Data from Hydrogel_Ink_Intensity_Test_1_USB4F045381__82__00082.txt Node

Date: Mon Jul 31 10:57:15 EDT 2023
User: mmckonesweet
Spectrometer: USB4F04538
Trigger mode: 4
Integration Time (sec): 9.000000E-1
Scans to average: 1
Electric dark correction enabled: true
Nonlinearity correction enabled: false
Boxcar width: 0
XAxis mode: Wavelengths
Number of Pixels in Spectrum: 3648
>>>>>Begin Spectral Data<<<<<
345.52	-1116.31
345.736	-1116.31
345.952	-1116.31
346.168	-1134.75
346.384	-1073.31
346.6	-143.53
346.816	-270.5
347.032	-188.58
347.248	249.68
347.464	-247.97
347.68	-88.23
347.896	110.42
348.112	376.66
348.328	-8.36
348.544	-110.76
348.76	59.22
348.975	261.97
349.191	-290.98
349.407	-204.97
349.623	-10.41
349.839	-86.19
350.055	-188.58
350.27	12.12
350.486	241.49
350.702	337.74
350.918	143.19
351.133	-104.62
351.349	40.79
351.565	440.14
351.781	-237.74
351.996	114.52
352.212	401.23
352.428	-129.19
352.644	-184.49
352.859	-161.96
353.075	282.45
353.291	-16.55
353.506	-213.16
353.722	-215.21
353.938	-135.34
354.153	483.15
354.369	38.74
354.584	-100.52
354.8	212.82
355.016	-338.09
355.231	-241.83
355.447	-47.27
355.662	141.14
355.878	843.59
356.093	-426.15
356.309	-49.32
356.524	-266.41
356.74	188.24
356.955	-219.3
357.171	-98.47
357.386	116.56
357.602	-200.87
357.817	-112.81
358.033	-247.97
358.248	431.95
358.464	151.38
358.679	-192.68
358.895	-354.47
359.11	40.79
359.325	327.5
359.541	243.54
359.756	-41.13
359.972	-344.23
360.187	212.82
360.402	-106.67
360.618	-254.12
360.833	933.7
361.048	188.24
361.264	-170.15
361.479	12.12
361.694	34.64
361.909	137.04
362.125	-131.24
362.34	-102.57
362.555	294.74
362.77	110.42
362.986	-200.87
363.201	-143.53
363.416	163.67
363.631	89.94
363.847	-135.34
364.062	-182.44
364.277	253.78
364.492	151.38
364.707	-102.57
364.922	-348.33
365.138	311.12
365.353	388.94
365.568	-266.41
365.783	-176.3
365.998	77.65
366.213	657.23
366.428	-303.27
366.643	46.93
366.858	302.93
367.073	221.01
367.288	-127.14
367.503	-143.53
367.718	132.95
367.933	362.32
368.148	-229.54
368.363	-102.57
368.578	-8.36
368.793	442.19
369.008	-200.87
369.223	-192.68
369.438	243.54
369.653	388.94
369.868	-204.97
370.083	-241.83
370.298	135
370.513	421.71
370.728	-30.89
370.943	-143.53
371.157	-71.85
371.372	563.02
371.587	-237.74
371.802	-174.25
372.017	112.47
372.232	415.57
372.446	-26.79
372.661	-217.26
372.876	282.45
373.091	155.47
373.306	-94.38
373.52	-239.78
373.735	-108.71
373.95	421.71
374.165	-67.75
374.379	-100.52
374.594	-65.71
374.809	161.62
375.023	18.26
375.238	-184.49
375.453	282.45
375.667	-233.64
375.882	-157.86
376.097	-223.4
376.311	85.84
376.526	-41.13
376.741	-278.69
376.955	122.71
377.17	552.78
377.384	626.51
377.599	8.02
377.813	-225.45
378.028	630.6
378.242	210.77
378.457	-82.09
378.672	-315.56
378.886	178
379.101	22.36
379.315	-286.89
379.53	-180.39
379.744	216.91
379.958	190.29
380.173	-92.33
380.387	-176.3
380.602	216.91
380.816	-116.9
381.031	-172.2
381.245	-188.58
381.459	315.22
381.674	2723.63
381.888	-143.53
382.103	116.56
382.317	-139.43
382.531	487.25
382.746	65.36
382.96	-161.96
383.174	10.07
383.388	493.39
383.603	110.42
383.817	-194.73
384.031	249.68
384.246	454.48
384.46	30.55
384.674	368.46
384.888	116.56
385.103	102.23
385.317	-174.25
385.531	-20.65
385.745	427.85
385.959	388.94
386.174	-161.96
386.388	-174.25
386.602	53.08
386.816	-73.9
387.03	-45.23
387.244	-69.8
387.458	210.77
387.672	495.44
387.887	-252.07
388.101	-198.82
388.315	384.85
388.529	145.24
388.743	-34.99
388.957	-145.58
389.171	356.18
389.385	-125.1
389.599	-45.23
389.813	77.65
390.027	196.43
390.241	773.96
390.455	-45.23
390.669	-69.8
390.883	73.56
391.097	503.63
391.311	169.81
391.525	-53.42
391.738	264.02
391.952	253.78
392.166	-2.22
392.38	-139.43
392.594	323.41
392.808	431.95
393.022	-65.71
393.236	-45.23
393.449	356.18
393.663	266.07
393.877	-196.78
394.091	-37.03
394.305	-10.41
394.518	1.88
394.732	-204.97
394.946	-131.24
395.16	563.02
395.373	106.32
395.587	-82.09
395.801	-34.99
396.015	458.57
396.228	319.31
396.442	-225.45
396.656	-266.41
396.869	446.29
397.083	526.16
397.297	5.97
397.51	-47.27
397.724	421.71
397.938	221.01
398.151	-229.54
398.365	-178.34
398.578	384.85
398.792	497.49
399.005	102.23
399.219	-55.47
399.433	231.25
399.646	282.45
399.86	221.01
400.073	96.08
400.287	290.64
400.5	108.37
400.714	34.64
400.927	1.88
401.141	327.5
401.354	1208.13
401.567	261.97
401.781	-112.81
401.994	397.14
402.208	704.33
402.421	36.69
402.635	-34.99
402.848	210.77
403.061	495.44
403.275	143.19
403.488	-141.48
403.701	640.84
403.915	507.73
404.128	167.76
404.341	-102.57
404.555	343.89
404.768	175.95
404.981	145.24
405.195	-53.42
405.408	634.7
405.621	464.72
405.834	132.95
406.048	-135.34
406.261	552.78
406.474	595.79
406.687	-57.51
406.9	171.86
407.114	253.78
407.327	247.63
407.54	-80.04
407.753	-135.34
407.966	22.36
408.179	329.55
408.392	-26.79
408.605	-112.81
408.819	370.51
409.032	266.07
409.245	-8.36
409.458	128.85
409.671	366.42
409.884	560.97
410.097	-135.34
410.31	194.39
410.523	458.57
410.736	124.76
410.949	87.89
411.162	48.98
411.375	556.88
411.588	421.71
411.801	147.28
412.014	-8.36
412.227	339.79
412.44	182.1
412.653	-57.51
412.865	175.95
413.078	585.55
413.291	405.33
413.504	118.61
413.717	65.36
413.93	464.72
414.143	16.21
414.356	100.18
414.568	-77.99
414.781	532.3
414.994	292.69
415.207	132.95
415.42	94.04
415.632	448.33
415.845	761.67
416.058	-20.65
416.271	-8.36
416.483	384.85
416.696	692.04
416.909	8.02
417.121	-37.03
417.334	407.38
417.547	628.56
417.759	-12.46
417.972	-39.08
418.185	159.57
418.397	505.68
418.61	55.12
418.823	67.41
419.035	677.71
419.248	325.46
419.46	169.81
419.673	186.19
419.885	442.19
420.098	360.27
420.311	22.36
420.523	-88.23
420.736	591.69
420.948	233.3
421.161	75.6
421.373	-77.99
421.586	397.14
421.798	139.09
422.01	-41.13
422.223	221.01
422.435	190.29
422.648	505.68
422.86	116.56
423.073	137.04
423.285	626.51
423.497	114.52
423.71	85.84
423.922	171.86
424.134	511.82
424.347	634.7
424.559	366.42
424.771	419.66
424.984	360.27
425.196	458.57
425.408	-75.95
425.621	-12.46
425.833	638.8
426.045	712.52
426.257	16.21
426.47	69.46
426.682	472.91
426.894	511.82
427.106	147.28
427.318	137.04
427.531	286.54
427.743	560.97
427.955	188.24
428.167	636.75
428.379	526.16
428.591	347.98
428.804	266.07
429.016	128.85
429.228	331.6
429.44	552.78
429.652	401.23
429.864	-12.46
430.076	380.75
430.288	372.56
430.5	319.31
430.712	304.98
430.924	667.47
431.136	530.25
431.348	-4.27
431.56	188.24
431.772	434
431.984	282.45
432.196	169.81
432.408	153.43
432.62	343.89
432.832	626.51
433.044	450.38
433.256	331.6
433.468	618.32
433.679	104.28
433.891	73.56
434.103	532.3
434.315	882.5
434.527	622.41
434.739	423.76
434.95	352.08
435.162	655.18
435.374	382.8
435.586	278.35
435.798	218.96
436.009	317.26
436.221	491.34
436.433	288.59
436.645	276.31
436.856	409.42
437.068	769.87
437.28	200.53
437.491	558.92
437.703	692.04
437.915	573.26
438.126	399.18
438.338	610.12
438.55	630.6
438.761	716.62
438.973	372.56
439.184	417.61
439.396	491.34
439.608	757.58
439.819	225.11
440.031	421.71
440.242	798.54
440.454	651.08
440.665	368.46
440.877	464.72
441.088	720.71
441.3	554.83
441.511	241.49
441.723	327.5
441.934	601.93
442.146	694.09
442.357	569.16
442.569	626.51
442.78	581.45
442.991	1038.15
443.203	790.35
443.414	274.26
443.626	902.98
443.837	397.14
444.048	257.87
444.26	315.22
444.471	667.47
444.682	814.92
444.894	251.73
445.105	296.78
445.316	927.56
445.528	782.15
445.739	511.82
445.95	434
446.161	700.23
446.373	927.56
446.584	501.58
446.795	470.86
447.006	802.63
447.217	1118.02
447.429	282.45
447.64	372.56
447.851	1005.38
448.062	767.82
448.273	311.12
448.484	454.48
448.695	880.46
448.907	671.56
449.118	593.74
449.329	638.8
449.54	530.25
449.751	597.84
449.962	409.42
450.173	384.85
450.384	950.09
450.595	1068.87
450.806	511.82
451.017	487.25
451.228	1027.91
451.439	1011.53
451.65	517.97
451.861	276.31
452.072	487.25
452.283	810.82
452.494	757.58
452.705	417.61
452.915	1208.13
453.126	859.98
453.337	460.62
453.548	522.06
453.759	1027.91
453.97	1328.96
454.181	786.25
454.391	552.78
454.602	888.65
454.813	1066.82
455.024	581.45
455.235	591.69
455.445	773.96
455.656	905.03
455.867	755.53
456.078	655.18
456.288	720.71
456.499	1122.12
456.71	612.17
456.921	896.84
457.131	999.24
457.342	952.13
457.553	642.89
457.763	646.99
457.974	1083.2
458.184	974.66
458.395	603.98
458.606	655.18
458.816	1193.8
459.027	1384.26
459.237	841.54
459.448	657.23
459.659	1339.2
459.869	1525.57
460.08	507.73
460.29	933.7
460.501	1539.9
460.711	915.27
460.922	610.12
461.132	671.56
461.343	1728.31
461.553	769.87
461.764	780.11
461.974	784.2
462.184	1314.63
462.395	1269.57
462.605	948.04
462.816	718.67
463.026	1052.49
463.236	1455.94
463.447	694.09
463.657	925.51
463.867	1464.13
464.078	1097.54
464.288	997.19
464.498	847.69
464.709	1142.6
464.919	1118.02
465.129	1019.72
465.339	913.22
465.55	1419.07
465.76	1347.39
465.97	917.32
466.18	892.74
466.391	1490.75
466.601	1298.24
466.811	1107.78
467.021	917.32
467.231	1478.46
467.441	1595.2
467.651	1120.07
467.862	864.07
468.072	1244.99
468.282	1675.07
468.492	1122.12
468.702	1140.55
468.912	1367.87
469.122	2142
469.332	1519.42
469.542	1134.4
469.752	1761.08
469.962	1535.81
470.172	1216.32
470.382	1242.95
470.592	1668.92
470.802	1843
471.012	1412.93
471.222	1277.76
471.432	1705.79
471.642	1863.48
471.852	1548.09
472.062	1212.23
472.272	1601.34
472.482	1560.38
472.691	1363.78
472.901	1349.44
473.111	1625.92
473.321	2314.03
473.531	1431.36
473.741	1625.92
473.95	1924.92
474.16	1974.07
474.37	1683.26
474.58	1480.51
474.79	2342.71
474.999	2142
475.209	1451.84
475.419	1593.15
475.628	1933.11
475.838	2264.88
476.048	1859.38
476.258	1679.16
476.467	2400.05
476.677	2094.9
476.886	1984.31
477.096	1781.56
477.306	1969.98
477.515	2375.47
477.725	1912.63
477.935	1945.4
478.144	2547.5
478.354	2133.81
478.563	2027.32
478.773	1814.33
478.982	2445.1
479.192	2535.21
479.401	2119.48
479.611	2074.42
479.82	2139.96
480.03	2430.77
480.239	2131.76
480.449	2068.28
480.658	2801.45
480.868	2275.12
481.077	2330.42
481.287	2158.39
481.496	2539.31
481.705	2895.66
481.915	2623.28
482.124	2529.07
482.333	2680.62
482.543	3008.3
482.752	2475.82
482.961	2320.18
483.171	3012.39
483.38	2608.94
483.589	2563.89
483.799	2445.1
484.008	2821.93
484.217	2979.62
484.426	2666.28
484.636	2408.24
484.845	2883.37
485.054	2418.48
485.263	3061.54
485.472	2666.28
485.682	3284.77
485.891	2957.1
486.1	2541.36
486.309	2740.01
486.518	3184.42
486.727	3522.34
486.936	2602.8
487.146	2879.27
487.355	3428.13
487.564	2961.19
487.773	2936.62
487.982	2846.51
488.191	2963.24
488.4	3383.07
488.609	3006.25
488.818	2987.82
489.027	3751.71
489.236	3688.22
489.445	3055.4
489.654	2983.72
489.863	3620.64
490.072	3383.07
490.281	3446.56
490.49	3180.32
490.698	3833.63
490.907	3686.17
491.116	3243.81
491.325	3385.12
491.534	3866.39
491.743	3667.74
491.952	3350.31
492.16	3295.01
492.369	3753.76
492.578	3845.91
492.787	3460.9
492.996	3419.94
493.204	3608.35
493.413	4157.21
493.622	3284.77
493.831	3202.85
494.039	4144.92
494.248	3473.18
494.457	3415.84
494.665	3516.19
494.874	3952.41
495.083	4347.67
495.291	3647.26
495.5	3501.86
495.709	4169.49
495.917	3917.59
496.126	3870.49
496.335	3575.58
496.543	3807
496.752	4028.18
496.96	4083.48
497.169	3665.69
497.377	4114.2
497.586	4544.27
497.794	4028.18
498.003	3622.69
498.211	4155.16
498.42	4419.35
498.628	4036.38
498.837	3837.72
499.045	4228.88
499.254	4167.45
499.462	4046.62
499.671	3833.63
499.879	4761.36
500.087	4536.08
500.296	3919.64
500.504	3985.18
500.713	4364.05
500.921	5027.59
501.129	4060.95
501.338	4063
501.546	4624.14
501.754	4425.49
501.962	4222.74
502.171	3903.26
502.379	4630.29
502.587	5062.41
502.795	4173.59
503.004	4267.8
503.212	4730.64
503.42	4726.54
503.628	4384.53
503.837	4310.8
504.045	4835.08
504.253	4927.24
504.461	4226.84
504.669	4265.75
504.877	4902.67
505.085	5084.94
505.294	4228.88
505.502	4511.5
505.71	4890.38
505.918	4859.66
506.126	4347.67
506.334	4409.11
506.542	4714.25
506.75	4800.27
506.958	4669.2
507.166	4519.7
507.374	4740.88
507.582	5224.2
507.79	4644.62
507.998	4484.88
508.206	4935.43
508.414	4972.3
508.622	4740.88
508.83	4751.12
509.037	5304.07
509.245	5000.97
509.453	4687.63
509.661	4636.43
509.869	5318.4
510.077	4937.48
510.285	4880.14
510.492	4470.55
510.7	5558.02
510.908	4857.61
511.116	4822.8
511.324	4757.26
511.531	4992.78
511.739	5150.47
511.947	4990.73
512.155	5195.53
512.362	5152.52
512.57	4919.05
512.778	4816.65
512.985	4615.95
513.193	5357.32
513.401	5676.8
513.608	5000.97
513.816	4896.52
514.024	5322.5
514.231	5562.11
514.439	5013.26
514.646	4945.67
514.854	5578.5
515.061	5508.87
515.269	5013.26
515.477	5097.22
515.684	5129.99
515.892	5723.9
516.099	4849.42
516.307	5015.3
516.514	5560.06
516.722	5928.7
516.929	5099.27
517.136	5003.02
517.344	5701.37
517.551	5523.2
517.759	5246.73
517.966	5254.92
518.173	5420.8
518.381	5625.6
518.588	5345.03
518.796	5234.44
519.003	5887.74
519.21	5525.25
519.418	5437.19
519.625	5535.49
519.832	5627.65
520.039	5771.01
520.247	5076.74
520.454	5295.88
520.661	5897.98
520.868	5928.7
521.076	5500.67
521.283	5312.26
521.49	6301.43
521.697	5809.92
521.904	5508.87
522.112	5553.92
522.319	6049.53
522.526	5852.92
522.733	5660.41
522.94	5496.58
523.147	5908.22
523.354	6027
523.561	5476.1
523.768	5738.24
523.975	6131.45
524.183	5986.04
524.39	5852.92
524.597	5572.35
524.804	6067.96
525.011	5863.16
525.218	5672.7
525.425	5857.02
525.632	6377.2
525.838	5971.71
526.045	5664.51
526.252	5764.86
526.459	7427.81
526.666	6940.4
526.873	5848.83
527.08	5875.45
527.287	6565.62
527.494	6356.72
527.701	5857.02
527.907	5897.98
528.114	6332.15
528.321	6141.69
528.528	5996.28
528.735	6000.38
528.941	6108.92
529.148	6219.51
529.355	6082.3
529.562	5885.69
529.768	6768.37
529.975	6194.93
530.182	5975.8
530.388	5918.46
530.595	6698.74
530.802	6188.79
531.008	6285.05
531.215	6110.97
531.422	7257.83
531.628	7069.42
531.835	6086.39
532.042	6280.95
532.248	6319.86
532.455	6549.23
532.661	6291.19
532.868	6158.07
533.074	6704.88
533.281	6899.44
533.487	6602.48
533.694	6254.33
533.9	6518.51
534.107	6897.39
534.313	6311.67
534.52	6268.66
534.726	7061.23
534.933	7257.83
535.139	6342.39
535.345	6309.62
535.552	6772.46
535.758	6852.33
535.965	6483.7
536.171	6508.27
536.377	7134.95
536.584	7173.86
536.79	6483.7
536.996	6647.54
537.203	6946.54
537.409	6926.06
537.615	6592.24
537.821	6950.64
538.028	7141.1
538.234	6967.02
538.44	6852.33
538.646	6721.26
538.853	6903.53
539.059	6741.74
539.265	7147.24
539.471	6485.75
539.677	7337.7
539.883	6921.96
540.09	6729.45
540.296	7188.2
540.502	7165.67
540.708	7065.32
540.914	7040.75
541.12	6772.46
541.326	7407.33
541.532	7229.16
541.738	7208.68
541.944	7003.88
542.15	7569.12
542.356	7237.35
542.562	6991.59
542.768	6938.35
542.974	8003.29
543.18	7802.59
543.386	7077.61
543.592	6975.21
543.798	7692
544.004	7722.72
544.21	7245.54
544.415	7229.16
544.621	7628.51
544.827	7665.38
545.033	7075.56
545.239	7487.2
545.445	7399.14
545.651	7593.7
545.856	7085.8
546.062	7235.3
546.268	7657.18
546.474	7427.81
546.679	7245.54
546.885	7343.85
547.091	7491.3
547.297	8197.85
547.502	7628.51
547.708	7237.35
547.914	7427.81
548.119	7712.48
548.325	7364.32
548.531	7155.43
548.736	8009.44
548.942	7442.15
549.147	7278.31
549.353	7565.03
549.559	8007.39
549.764	7841.5
549.97	7372.52
550.175	7552.74
550.381	7896.8
550.586	7519.97
550.792	7489.25
550.997	7442.15
551.203	7796.45
551.408	8058.59
551.614	7427.81
551.819	7714.53
552.025	8459.99
552.23	8287.96
552.435	7710.43
552.641	7915.23
552.846	7861.98
553.052	8359.64
553.257	7890.65
553.462	7827.17
553.668	7907.04
553.873	8408.79
554.078	8011.48
554.283	7913.18
554.489	8226.52
554.694	8228.57
554.899	7831.26
555.105	8052.44
555.31	8261.34
555.515	8421.08
555.72	8107.74
555.925	7859.93
556.131	8636.11
556.336	8173.27
556.541	8021.72
556.746	7984.86
556.951	8482.52
557.156	8734.42
557.361	8052.44
557.567	8247
557.772	8982.22
557.977	8611.54
558.182	8181.46
558.387	7980.76
558.592	8339.16
558.797	8656.59
559.002	8107.74
559.207	8371.93
559.412	8337.11
559.617	8859.34
559.822	8351.45
560.027	8097.5
560.232	8371.93
560.437	8650.45
560.642	7952.09
560.847	8154.84
561.051	8341.21
561.256	8601.3
561.461	8304.34
561.666	7962.33
561.871	8496.85
562.076	8863.44
562.281	8263.38
562.485	8060.63
562.69	8785.62
562.895	8814.29
563.1	8341.21
563.305	8154.84
563.509	8892.11
563.714	9051.85
563.919	8390.36
564.123	8287.96
564.328	8629.97
564.533	9066.19
564.737	8310.49
564.942	8447.7
565.147	9121.48
565.351	9180.87
565.556	8529.62
565.761	8689.36
565.965	8892.11
566.17	8621.78
566.374	8490.71
566.579	8406.74
566.784	8648.4
566.988	8892.11
567.193	8171.22
567.397	8644.31
567.602	8591.06
567.806	8758.99
568.011	8480.47
568.215	8593.11
568.42	8699.6
568.624	8779.47
568.828	8541.91
569.033	8730.32
569.237	9019.08
569.442	9078.47
569.646	8318.68
569.85	8503
570.055	8781.52
570.259	9008.84
570.463	8840.91
570.668	8722.13
570.872	8965.84
571.076	8953.55
571.281	8732.37
571.485	8871.63
571.689	9105.1
571.893	9320.14
572.098	9035.47
572.302	8804.05
572.506	9088.71
572.71	9232.07
572.914	8685.26
573.119	8898.25
573.323	9555.65
573.527	9615.04
573.731	8914.64
573.935	8941.26
574.139	9236.17
574.343	9025.23
574.547	8832.72
574.751	8736.46
574.955	9359.05
575.159	9557.7
575.364	8658.64
575.568	8888.01
575.772	9137.87
575.976	9598.66
576.18	8902.35
576.383	8873.68
576.587	9676.48
576.791	9479.88
576.995	8744.66
577.199	8826.57
577.403	9647.81
577.607	9625.28
577.811	8906.45
578.015	8971.98
578.219	9481.92
578.422	9658.05
578.626	9379.53
578.83	9336.52
579.034	9539.27
579.238	9492.16
579.442	9115.34
579.645	9559.75
579.849	9410.25
580.053	9526.98
580.257	9361.09
580.46	9328.33
580.664	9670.34
580.868	9584.32
581.071	9387.72
581.275	9598.66
581.479	9412.29
581.682	9625.28
581.886	9264.84
582.09	9545.41
582.293	9860.8
582.497	9936.57
582.7	9502.4
582.904	9338.57
583.107	9768.64
583.311	9735.87
583.515	9537.22
583.718	9584.32
583.922	9944.77
584.125	10129.08
584.329	9375.43
584.532	9612.99
584.735	10120.89
584.939	9821.89
585.142	9516.74
585.346	9473.73
585.549	10084.03
585.753	9850.56
585.956	9725.63
586.159	9572.04
586.363	10204.86
586.566	10100.41
586.769	9567.94
586.973	9434.82
587.176	10423.99
587.379	10368.7
587.582	10098.36
587.786	9887.42
587.989	10067.64
588.192	10596.02
588.395	9879.23
588.599	9995.96
588.802	10155.71
589.005	10194.62
589.208	9719.49
589.411	9578.18
589.615	10223.29
589.818	10489.53
590.021	10086.08
590.224	10102.46
590.427	10239.67
590.63	10464.95
590.833	9934.53
591.036	9967.29
591.239	10137.27
591.442	10258.1
591.645	10188.47
591.848	10006.2
592.051	10546.87
592.254	10489.53
592.457	10081.98
592.66	10043.07
592.863	10172.09
593.066	10460.85
593.269	10002.11
593.472	10081.98
593.675	10325.69
593.878	10555.06
594.081	10086.08
594.284	9862.85
594.486	10626.74
594.689	10561.2
594.892	10116.79
595.095	10438.33
595.298	10710.71
595.5	10313.4
595.703	10376.89
595.906	10407.61
596.109	10950.32
596.311	10729.14
596.514	10096.32
596.717	10395.32
596.92	11026.09
597.122	10690.23
597.325	10395.32
597.528	10116.79
597.73	11282.09
597.933	10600.12
598.136	10389.17
598.338	10215.1
598.541	10970.8
598.743	11153.07
598.946	10319.54
599.148	10481.33
599.351	11022
599.554	10950.32
599.756	10671.79
599.959	10706.61
600.161	11073.2
600.363	11599.52
600.566	10720.95
600.768	10462.9
600.971	11357.86
601.173	11042.48
601.376	10505.91
601.578	10751.67
601.78	10976.94
601.983	11284.14
602.185	10473.14
602.388	10804.91
602.59	10972.85
602.792	10956.46
602.995	10735.28
603.197	10419.89
603.399	11194.03
603.601	11148.97
603.804	10573.49
604.006	10725.04
604.208	10813.1
604.41	10534.58
604.613	10913.45
604.815	10555.06
605.017	11591.33
605.219	10776.24
605.421	11069.1
605.623	10772.14
605.826	11597.48
606.028	11368.1
606.23	10710.71
606.432	10604.21
606.634	11562.66
606.836	11366.06
607.038	10739.38
607.24	10874.54
607.442	11065
607.644	11112.11
607.846	11065
608.048	10755.76
608.25	11398.82
608.452	11056.81
608.654	11050.67
608.856	10452.66
609.058	11134.64
609.26	11318.95
609.462	10909.36
609.664	11077.29
609.866	11634.34
610.067	11488.93
610.269	11173.55
610.471	10935.98
610.673	11173.55
610.875	11364.01
611.077	10890.93
611.278	11017.9
611.48	11185.83
611.682	11730.59
611.884	11015.85
612.085	10817.2
612.287	11042.48
612.489	11267.75
612.69	10749.62
612.892	10983.09
613.094	11562.66
613.295	11357.86
613.497	10841.78
613.699	10970.8
613.9	11425.45
614.102	11302.57
614.304	10817.2
614.505	10831.54
614.707	11429.54
614.908	11271.85
615.11	10722.99
615.311	10958.51
615.513	11245.23
615.714	11480.74
615.916	10919.6
616.117	10892.98
616.319	11038.38
616.52	11478.69
616.722	11065
616.923	11091.63
617.124	11538.09
617.326	11357.86
617.527	11151.02
617.729	11431.59
617.93	11558.56
618.131	11648.68
618.333	11089.58
618.534	10870.45
618.735	11218.6
618.937	11708.07
619.138	10995.37
619.339	10903.21
619.54	11474.6
619.742	11355.82
619.943	11296.42
620.144	11091.63
620.345	11570.85
620.546	11767.46
620.748	11013.81
620.949	11083.44
621.15	11351.72
621.351	11282.09
621.552	11067.05
621.753	10931.89
621.954	11087.53
622.155	11728.55
622.356	10923.69
622.558	11331.24
622.759	11452.07
622.96	11988.64
623.161	11075.24
623.362	11173.55
623.563	11423.4
623.764	11353.77
623.965	11110.06
624.166	11329.19
624.366	11550.37
624.567	11435.69
624.768	10743.47
624.969	11056.81
625.17	11458.21
625.371	11402.92
625.572	11232.94
625.773	11284.14
625.973	11773.6
626.174	11605.67
626.375	11486.89
626.576	11306.66
626.777	11607.72
626.977	11996.83
627.178	11470.5
627.379	11353.77
627.58	11230.89
627.78	11400.87
627.981	11314.86
628.182	11392.68
628.382	11761.31
628.583	11243.18
628.784	11210.41
628.984	11251.37
629.185	11646.63
629.386	11650.72
629.586	11427.49
629.787	11116.2
629.987	11935.39
630.188	11390.63
630.388	11517.61
630.589	11505.32
630.79	12285.59
630.99	11583.14
631.191	11447.97
631.391	11349.67
631.591	11652.77
631.792	12123.8
631.992	11562.66
632.193	11599.52
632.393	12033.69
632.594	11544.23
632.794	11157.16
632.994	11517.61
633.195	11603.62
633.395	11620
633.595	11366.06
633.796	11669.16
633.996	11689.63
634.196	11935.39
634.397	11392.68
634.597	11611.81
634.797	11679.4
634.997	11988.64
635.198	11587.24
635.398	11325.1
635.598	11927.2
635.798	12066.46
635.998	11912.86
636.199	11357.86
636.399	11620
636.599	11579.04
636.799	11613.86
636.999	11898.53
637.199	11876
637.399	12207.77
637.599	11611.81
637.799	11447.97
637.999	11962.01
638.199	12179.1
638.399	11370.15
638.599	11706.02
638.799	11822.75
638.999	12344.98
639.199	11863.71
639.399	11587.24
639.599	12340.89
639.799	11722.4
639.999	11800.23
640.199	11638.44
640.399	11882.14
640.599	11693.73
640.799	11712.16
640.998	11691.68
641.198	11865.76
641.398	11908.77
641.598	11984.54
641.798	11781.79
641.997	12969.62
642.197	12013.21
642.397	11906.72
642.597	11927.2
642.796	11919.01
642.996	12492.44
643.196	11994.78
643.395	11683.49
643.595	12344.98
643.795	11687.59
643.994	11681.44
644.194	11892.38
644.394	12132
644.593	12240.54
644.793	11632.29
644.992	12095.13
645.192	12138.14
645.392	11900.58
645.591	12048.03
645.791	12005.02
645.99	12185.24
646.19	12086.94
646.389	11802.27
646.589	11974.3
646.788	12134.04
646.987	12357.27
647.187	12181.15
647.386	11941.54
647.586	12119.71
647.785	12557.97
647.984	11998.88
648.184	12197.53
648.383	12103.32
648.582	12140.19
648.782	11867.81
648.981	12019.36
649.18	11910.82
649.38	12367.51
649.579	11962.01
649.778	11892.38
649.977	12361.37
650.177	12291.74
650.376	12097.18
650.575	11824.8
650.774	12725.91
650.973	12220.06
651.173	11677.35
651.372	11742.88
651.571	12379.8
651.77	12390.04
651.969	12068.51
652.168	12265.11
652.367	11972.25
652.566	12121.76
652.765	11976.35
652.964	12414.62
653.163	12816.02
653.362	12129.95
653.561	11992.73
653.76	11589.28
653.959	12314.27
654.158	12400.28
654.357	12023.45
654.556	11900.58
654.755	12562.07
654.954	12498.58
655.153	12043.93
655.352	12045.98
655.551	12537.49
655.749	12156.57
655.948	12187.29
656.147	12152.48
656.346	12412.57
656.545	12349.08
656.743	11957.92
656.942	12105.37
657.141	12422.81
657.34	12207.77
657.538	12170.91
657.737	12416.66
657.936	12568.21
658.135	12648.08
658.333	11968.16
658.532	12404.38
658.731	12830.35
658.929	12897.94
659.128	12416.66
659.326	12132
659.525	12961.42
659.724	12256.92
659.922	12125.85
660.121	11884.19
660.319	12488.34
660.518	12277.4
660.716	12064.41
660.915	12201.63
661.113	12983.95
661.312	12097.18
661.51	12418.71
661.709	12267.16
661.907	12736.15
662.105	12879.5
662.304	12461.72
662.502	12476.05
662.701	12775.06
662.899	12390.04
663.097	12607.12
663.296	12181.15
663.494	12787.35
663.692	12859.03
663.891	12338.84
664.089	11988.64
664.287	12504.73
664.485	12799.63
664.684	12478.1
664.882	12312.22
665.08	12529.3
665.278	12590.74
665.476	11890.34
665.675	12693.14
665.873	13035.15
666.071	12691.09
666.269	12226.2
666.467	12469.91
666.665	12641.94
666.863	12228.25
667.061	12400.28
667.259	12271.26
667.457	12490.39
667.655	12707.48
667.853	12117.66
668.051	12603.03
668.249	12347.03
668.447	12623.51
668.645	12150.43
668.843	12277.4
669.041	12439.19
669.239	12469.91
669.437	12211.87
669.635	12431
669.833	12404.38
670.031	12488.34
670.229	12431
670.426	12392.09
670.624	12451.48
670.822	12211.87
671.02	12226.2
671.218	12416.66
671.415	12193.44
671.613	12557.97
671.811	12504.73
672.009	12531.35
672.206	12730
672.404	12465.82
672.602	12127.9
672.799	12443.29
672.997	12635.8
673.195	12752.53
673.392	12431
673.59	12158.62
673.788	12615.32
673.985	11898.53
674.183	12418.71
674.38	12117.66
674.578	12713.62
674.775	12252.83
674.973	12105.37
675.17	11888.29
675.368	12752.53
675.565	12457.62
675.763	12072.61
675.96	12095.13
676.158	12410.52
676.355	12123.8
676.553	12080.8
676.75	12009.12
676.947	12320.41
677.145	12250.78
677.342	11976.35
677.539	12109.47
677.737	12414.62
677.934	12668.56
678.131	12318.36
678.329	12150.43
678.526	12670.61
678.723	12508.82
678.92	12213.91
679.118	12021.41
679.315	12115.61
679.512	12603.03
679.709	12347.03
679.906	12238.49
680.104	12584.6
680.301	12222.11
680.498	12029.6
680.695	11947.68
680.892	12136.09
681.089	12209.82
681.286	12187.29
681.483	11906.72
681.68	12287.64
681.877	12281.5
682.075	12088.99
682.272	12117.66
682.469	12281.5
682.665	12017.31
682.862	11654.82
683.059	11685.54
683.256	12463.77
683.453	12230.3
683.65	11792.03
683.847	12029.6
684.044	12181.15
684.241	12007.07
684.438	12076.7
684.635	11744.93
684.831	12592.79
685.028	12619.41
685.225	11789.99
685.422	12058.27
685.619	12218.01
685.815	12177.05
686.012	12103.32
686.209	11923.1
686.405	11769.51
686.602	12402.33
686.799	11562.66
686.996	11663.01
687.192	11765.41
687.389	12492.44
687.586	11749.03
687.782	11925.15
687.979	12603.03
688.175	12258.97
688.372	11957.92
688.568	11738.79
688.765	11869.86
688.962	12285.59
689.158	12007.07
689.355	11681.44
689.551	12324.51
689.748	11775.65
689.944	11607.72
690.14	11652.77
690.337	12197.53
690.533	11869.86
690.73	11923.1
690.926	11947.68
691.123	12041.89
691.319	11816.61
691.515	11757.22
691.712	11839.14
691.908	12121.76
692.104	11863.71
692.301	11892.38
692.497	11482.79
692.693	12299.93
692.889	12224.15
693.086	11859.62
693.282	11527.85
693.478	11816.61
693.674	12070.56
693.87	11679.4
694.067	11529.89
694.263	12123.8
694.459	11974.3
694.655	11970.21
694.851	11722.4
695.047	12226.2
695.243	12195.48
695.439	11830.94
695.635	11587.24
695.831	12078.75
696.027	11886.24
696.224	11593.38
696.42	12025.5
696.615	12117.66
696.811	12045.98
697.007	11570.85
697.203	11509.41
697.399	11738.79
697.595	12123.8
697.791	11464.36
697.987	11533.99
698.183	11638.44
698.379	11531.94
698.575	11593.38
698.77	11423.4
698.966	11894.43
699.162	11888.29
699.358	11488.93
699.554	11415.21
699.749	11828.9
699.945	11904.67
700.141	11605.67
700.337	11777.7
700.532	11636.39
700.728	11380.39
700.924	11384.49
701.119	11321
701.315	11822.75
701.511	11554.47
701.706	11630.24
701.902	11300.52
702.097	11607.72
702.293	11882.14
702.489	11497.13
702.684	11445.93
702.88	11620
703.075	11351.72
703.271	11146.92
703.466	11200.17
703.662	11644.58
703.857	11994.78
704.053	11441.83
704.248	11370.15
704.443	11880.1
704.639	11826.85
704.834	11376.3
705.03	11421.35
705.225	11818.66
705.42	11828.9
705.616	11435.69
705.811	11251.37
706.006	11417.26
706.202	11511.46
706.397	11546.28
706.592	11226.79
706.787	11628.2
706.983	11585.19
707.178	11566.76
707.373	11452.07
707.568	11798.18
707.763	11628.2
707.959	11265.71
708.154	11228.84
708.349	11497.13
708.544	11499.17
708.739	11341.48
708.934	11284.14
709.129	11708.07
709.324	11808.42
709.519	11353.77
709.714	11099.82
709.909	11695.78
710.104	11665.06
710.299	11103.92
710.494	11282.09
710.689	11562.66
710.884	11318.95
711.079	11173.55
711.274	11337.38
711.469	11714.21
711.664	11593.38
711.859	11224.75
712.054	11458.21
712.249	11388.58
712.443	11617.96
712.638	11163.31
712.833	10972.85
713.028	11466.41
713.223	11075.24
713.417	11411.11
713.612	11253.42
713.807	11486.89
714.002	12097.18
714.196	11300.52
714.391	10985.13
714.586	11478.69
714.78	11529.89
714.975	11009.71
715.17	10923.69
715.364	11179.69
715.559	11638.44
715.754	10731.19
715.948	11026.09
716.143	11826.85
716.337	11243.18
716.532	11306.66
716.726	10954.41
716.921	11486.89
717.115	11806.37
717.31	11056.81
717.504	11495.08
717.699	11251.37
717.893	11482.79
718.088	10972.85
718.282	10911.41
718.476	11333.29
718.671	11226.79
718.865	10757.81
719.059	10813.1
719.254	11165.35
719.448	11353.77
719.642	11955.87
719.837	10559.16
720.031	11251.37
720.225	11288.23
720.419	10823.34
720.614	10813.1
720.808	11263.66
721.002	11103.92
721.196	10768.05
721.39	10770.1
721.585	11224.75
721.779	11048.62
721.973	10768.05
722.167	10835.63
722.361	10833.58
722.555	11384.49
722.749	10620.6
722.943	10694.32
723.137	10636.98
723.331	11048.62
723.525	10796.72
723.719	10892.98
723.913	11099.82
724.107	11173.55
724.301	10768.05
724.495	10714.8
724.689	11417.26
724.883	11105.96
725.077	10729.14
725.271	10817.2
725.465	11372.2
725.659	10897.07
725.853	10751.67
726.046	10507.96
726.24	10960.56
726.434	11030.19
726.628	10704.56
726.822	10485.43
727.015	11378.34
727.209	10870.45
727.403	10741.43
727.596	10557.11
727.79	11060.91
727.984	11017.9
728.177	10737.33
728.371	10641.07
728.565	10962.61
728.758	10862.26
728.952	10526.39
729.146	10688.18
729.339	11060.91
729.533	10829.49
729.726	10456.76
729.92	10682.03
730.113	11277.99
730.307	10849.97
730.5	10581.68
730.694	10487.48
730.887	10933.93
731.081	11011.76
731.274	10796.72
731.468	10571.44
731.661	10763.95
731.854	10878.64
732.048	10497.72
732.241	10469.05
732.435	10604.21
732.628	11163.31
732.821	10505.91
733.014	10489.53
733.208	10528.44
733.401	10948.27
733.594	10790.58
733.788	10659.51
733.981	11294.38
734.174	11171.5
734.367	10393.27
734.56	11146.92
734.754	11091.63
734.947	10761.91
735.14	10456.76
735.333	10628.79
735.526	10944.17
735.719	10587.83
735.912	10626.74
736.105	10350.26
736.298	10739.38
736.491	10708.66
736.684	10520.24
736.877	10505.91
737.07	10763.95
737.263	10968.75
737.456	10436.28
737.649	10448.57
737.842	10718.9
738.035	10884.78
738.228	10606.26
738.421	10655.41
738.614	11062.96
738.807	10964.65
739	10112.7
739.192	10415.8
739.385	10847.92
739.578	10833.58
739.771	10569.4
739.964	10454.71
740.156	10671.79
740.349	10677.94
740.542	10593.97
740.735	10215.1
740.927	10596.02
741.12	10329.78
741.313	10043.07
741.505	10571.44
741.698	10907.31
741.891	10626.74
742.083	10550.96
742.276	10368.7
742.468	10792.62
742.661	10718.9
742.854	10325.69
743.046	10311.35
743.239	11034.28
743.431	10489.53
743.624	10313.4
743.816	10145.47
744.009	10446.52
744.201	10661.55
744.393	10442.42
744.586	10217.15
744.778	10929.84
744.971	10436.28
745.163	10493.62
745.355	10610.36
745.548	10571.44
745.74	10387.13
745.932	10315.45
746.125	10241.72
746.317	11095.72
746.509	10653.36
746.702	10430.13
746.894	10262.2
747.086	10665.65
747.278	10843.82
747.471	10579.64
747.663	10469.05
747.855	10333.88
748.047	10751.67
748.239	10462.9
748.431	10323.64
748.623	10931.89
748.815	10862.26
749.008	10342.07
749.2	10163.9
749.392	10659.51
749.584	10600.12
749.776	10452.66
749.968	10460.85
750.16	11093.68
750.352	10358.46
750.544	10309.3
750.736	10309.3
750.928	10616.5
751.12	10555.06
751.311	9967.29
751.503	10145.47
751.695	10516.15
751.887	10364.6
752.079	10030.78
752.271	9846.46
752.463	11234.99
752.654	10776.24
752.846	10053.31
753.038	10364.6
753.23	10155.71
753.421	10387.13
753.613	10096.32
753.805	10505.91
753.997	10720.95
754.188	10305.21
754.38	9881.28
754.572	10120.89
754.763	10354.36
754.955	10333.88
755.146	9760.45
755.338	10161.85
755.53	10364.6
755.721	10174.14
755.913	9903.81
756.104	9815.74
756.296	10231.48
756.487	10344.12
756.679	9916.09
756.87	9834.18
757.062	9926.33
757.253	10378.93
757.445	10084.03
757.636	10127.03
757.827	10276.54
758.019	10745.52
758.21	9817.79
758.401	10022.59
758.593	10624.69
758.784	10462.9
758.975	9684.67
759.167	9674.43
759.358	10041.02
759.549	10342.07
759.74	9819.84
759.932	9819.84
760.123	10172.09
760.314	9823.94
760.505	9889.47
760.696	9721.54
760.888	10467
761.079	9703.11
761.27	9526.98
761.461	9445.06
761.652	10299.06
761.843	10022.59
762.034	9559.75
762.225	9828.03
762.416	9795.26
762.607	9711.3
762.798	9602.75
762.989	9725.63
763.18	10587.83
763.371	9696.96
763.562	9481.92
763.753	9760.45
763.944	9838.27
764.135	10178.23
764.326	9885.37
764.517	9445.06
764.708	9868.99
764.899	10227.39
765.089	9621.19
765.28	9258.7
765.471	9748.16
765.662	9909.95
765.853	9615.04
766.043	9223.88
766.234	9959.1
766.425	9879.23
766.615	9307.85
766.806	9486.02
766.997	9844.42
767.187	9569.99
767.378	9270.98
767.569	8990.41
767.759	9793.22
767.95	9739.97
768.141	9653.95
768.331	9307.85
768.522	9445.06
768.712	9748.16
768.903	9311.94
769.093	9236.17
769.284	9924.29
769.474	9574.08
769.665	8941.26
769.855	9006.8
770.046	9787.07
770.236	9320.14
770.426	9369.29
770.617	9017.04
770.807	9344.71
770.998	9563.84
771.188	9242.31
771.378	9125.58
771.569	9582.28
771.759	9512.64
771.949	8941.26
772.139	8894.16
772.33	9311.94
772.52	9666.24
772.71	9060.04
772.9	8992.46
773.09	9733.82
773.281	9764.54
773.471	8900.3
773.661	9078.47
773.851	9410.25
774.041	9297.61
774.231	8812.24
774.421	9168.59
774.611	9422.53
774.802	9279.18
774.992	8865.49
775.182	8881.87
775.372	9260.74
775.562	9459.4
775.752	8892.11
775.942	9047.76
776.131	9477.83
776.321	9209.54
776.511	8885.97
776.701	8742.61
776.891	9416.39
777.081	8765.14
777.271	8961.74
777.461	8795.86
777.651	9082.57
777.84	9340.61
778.03	8703.7
778.22	8701.65
778.41	9334.47
778.599	8715.98
778.789	8552.15
778.979	8498.9
779.169	8908.49
779.358	8656.59
779.548	8869.58
779.738	8285.91
779.927	8941.26
780.117	8597.2
780.307	8589.01
780.496	8132.31
780.686	8949.45
780.875	9297.61
781.065	8507.09
781.254	8498.9
781.444	8971.98
781.633	8670.93
781.823	8369.88
782.012	8507.09
782.202	8664.79
782.391	8779.47
782.581	8177.37
782.77	8505.04
782.96	9162.44
783.149	8568.53
783.338	8638.16
783.528	8283.86
783.717	8636.11
783.906	9254.6
784.096	8408.79
784.285	8398.55
784.474	8597.2
784.663	8597.2
784.853	8447.7
785.042	8373.97
785.231	8806.09
785.42	8867.53
785.61	8556.24
785.799	8183.51
785.988	8408.79
786.177	8523.48
786.366	8339.16
786.555	8560.34
786.744	8910.54
786.933	8367.83
787.122	8373.97
787.312	8163.03
787.501	8277.72
787.69	8560.34
787.879	8195.8
788.068	8199.9
788.257	7954.14
788.445	8122.07
788.634	8134.36
788.823	7931.61
789.012	8941.26
789.201	8789.71
789.39	8105.69
789.579	7874.27
789.768	8103.64
789.957	8193.75
790.145	8077.02
790.334	7743.2
790.523	8267.48
790.712	8113.88
790.9	8179.42
791.089	7872.22
791.278	8466.13
791.467	8529.62
791.655	8298.2
791.844	8474.32
792.033	8064.73
792.221	8238.81
792.41	7921.37
792.599	7663.33
792.787	8314.58
792.976	8554.19
793.164	7790.3
793.353	7986.91
793.541	8339.16
793.73	8384.21
793.918	8007.39
794.107	8101.59
794.295	8095.45
794.484	8101.59
794.672	7798.49
794.861	8064.73
795.049	8290.01
795.238	8531.67
795.426	7714.53
795.614	8097.5
795.803	8296.15
795.991	8435.41
796.179	7694.05
796.368	7788.25
796.556	8511.19
796.744	7870.17
796.932	7661.28
797.121	7624.42
797.309	8140.51
797.497	8275.67
797.685	7683.81
797.874	7765.73
798.062	8068.83
798.25	8470.23
798.438	7724.77
798.626	7769.82
798.814	8324.82
799.002	8527.57
799.19	8042.2
799.378	7861.98
799.566	8328.92
799.755	8236.76
799.943	8077.02
800.131	7798.49
800.318	8058.59
800.506	8251.1
800.694	7743.2
800.882	7997.15
801.07	8498.9
801.258	7974.62
801.446	7937.76
801.634	7653.09
801.822	8105.69
802.01	8185.56
802.197	7761.63
802.385	7890.65
802.573	8134.36
802.761	7769.82
802.949	7974.62
803.136	7479.01
803.324	8367.83
803.512	8400.6
803.699	7861.98
803.887	7794.4
804.075	8480.47
804.262	7968.48
804.45	7456.48
804.638	7642.85
804.825	7880.41
805.013	7775.97
805.201	7802.59
805.388	7659.23
805.576	7929.56
805.763	8584.91
805.951	7864.03
806.138	7810.78
806.326	8570.58
806.513	8249.05
806.701	7714.53
806.888	7651.04
807.075	8122.07
807.263	8484.56
807.45	7806.69
807.638	7917.28
807.825	8398.55
808.012	8304.34
808.2	7792.35
808.387	8091.35
808.574	8056.54
808.761	8290.01
808.949	7962.33
809.136	7800.54
809.323	8163.03
809.51	8287.96
809.698	8212.18
809.885	8091.35
810.072	8113.88
810.259	8359.64
810.446	8085.21
810.633	7866.08
810.82	8519.38
811.008	8593.11
811.195	8077.02
811.382	8103.64
811.569	8287.96
811.756	8040.15
811.943	7993.05
812.13	7722.72
812.317	8132.31
812.504	8007.39
812.691	7968.48
812.878	8031.96
813.064	8666.83
813.251	8244.95
813.438	7636.7
813.625	8046.3
813.812	7896.8
813.999	8212.18
814.186	8015.58
814.372	7765.73
814.559	8214.23
814.746	8468.18
814.933	7831.26
815.12	8068.83
815.306	8132.31
815.493	8025.82
815.68	8048.35
815.866	7976.67
816.053	8392.41
816.24	8758.99
816.426	7962.33
816.613	7786.21
816.799	8326.87
816.986	8468.18
817.173	7904.99
817.359	7833.31
817.546	8216.28
817.732	7847.65
817.919	7595.75
818.105	7993.05
818.292	7925.47
818.478	8169.18
818.665	7907.04
818.851	7798.49
819.037	8677.07
819.224	8048.35
819.41	7765.73
819.597	7823.07
819.783	8615.63
819.969	8130.27
820.156	7911.13
820.342	7605.99
820.528	8924.88
820.714	8099.55
820.901	7931.61
821.087	7771.87
821.273	8543.95
821.459	8052.44
821.646	7640.8
821.832	7730.91
822.018	8074.97
822.204	8128.22
822.39	7773.92
822.576	7694.05
822.762	8257.24
822.948	8058.59
823.134	7984.86
823.32	7673.57
823.507	7710.43
823.693	7880.41
823.879	7982.81
824.065	7597.79
824.25	8031.96
824.436	7646.94
824.622	7704.29
824.808	7700.19
824.994	7780.06
825.18	7816.93
825.366	7610.08
825.552	7728.86
825.738	7782.11
825.923	8160.98
826.109	7767.77
826.295	7493.35
826.481	7632.61
826.667	7708.38
826.852	7802.59
827.038	7505.63
827.224	8056.54
827.409	8263.38
827.595	7294.69
827.781	7761.63
827.966	8173.27
828.152	8138.46
828.338	7450.34
828.523	7382.76
828.709	7759.58
828.894	7894.75
829.08	7470.82
829.266	7347.94
829.451	7610.08
829.637	8105.69
829.822	7528.16
830.008	7462.63
830.193	7704.29
830.378	8197.85
830.564	7380.71
830.749	7200.49
830.935	7616.23
831.12	7868.13
831.305	7511.78
831.491	7630.56
831.676	7141.1
831.861	7792.35
832.047	7343.85
832.232	7153.38
832.417	7843.55
832.602	7642.85
832.788	7259.88
832.973	7190.25
833.158	7646.94
833.343	7603.94
833.528	7505.63
833.714	7466.72
833.899	7616.23
834.084	8117.98
834.269	7548.64
834.454	7411.43
834.639	7724.77
834.824	7622.37
835.009	7513.83
835.194	7384.8
835.379	7558.88
835.564	7759.58
835.749	7413.48
835.934	7126.76
836.119	7667.42
836.304	7427.81
836.489	7163.62
836.674	7274.21
836.859	7083.75
837.044	7843.55
837.228	7093.99
837.413	7130.86
837.598	7401.19
837.783	7712.48
837.968	7077.61
838.152	7069.42
838.337	7053.03
838.522	7720.67
838.707	7479.01
838.891	7155.43
839.076	7388.9
839.261	7442.15
839.445	6991.59
839.63	7216.87
839.815	7651.04
839.999	7220.97
840.184	7208.68
840.368	7069.42
840.553	7458.53
840.737	7321.32
840.922	6788.85
841.106	6930.16
841.291	6926.06
841.475	7261.93
841.66	6870.76
841.844	6809.33
842.029	7798.49
842.213	7079.66
842.397	6919.92
842.582	6698.74
842.766	7558.88
842.951	7335.65
843.135	7028.46
843.319	6919.92
843.504	7339.75
843.688	7468.77
843.872	6766.32
844.056	6885.1
844.241	7276.26
844.425	7012.07
844.609	6979.31
844.793	6762.22
844.977	7155.43
845.161	7163.62
845.346	6620.91
845.53	6610.67
845.714	6954.73
845.898	7343.85
846.082	6674.16
846.266	6647.54
846.45	7149.29
846.634	6995.69
846.818	6729.45
847.002	7010.03
847.186	7323.37
847.37	6907.63
847.554	6637.3
847.738	6856.43
847.922	7026.41
848.106	6997.74
848.29	6659.82
848.473	6510.32
848.657	6895.34
848.841	6792.94
849.025	6856.43
849.209	6315.76
849.392	6995.69
849.576	6827.76
849.76	6342.39
849.944	6633.2
850.127	7073.51
850.311	6526.71
850.495	6430.45
850.678	6352.63
850.862	7102.18
851.046	7323.37
851.229	6751.98
851.413	6489.84
851.596	6625.01
851.78	6958.83
851.964	6608.62
852.147	6586.1
852.331	7200.49
852.514	7120.62
852.698	6618.86
852.881	6217.46
853.065	7020.27
853.248	6518.51
853.431	6414.07
853.615	6428.4
853.798	7259.88
853.982	6680.3
854.165	6569.71
854.348	6352.63
854.532	6467.31
854.715	6452.98
854.898	6358.77
855.081	6354.68
855.265	7012.07
855.448	6825.71
855.631	6170.36
855.814	6110.97
855.997	6661.87
856.181	6485.75
856.364	6184.69
856.547	6131.45
856.73	6553.33
856.913	6643.44
857.096	6045.43
857.279	6315.76
857.462	6309.62
857.645	6704.88
857.828	6160.12
858.011	6278.9
858.194	6354.68
858.377	6657.78
858.56	6207.22
858.743	6336.24
858.926	6311.67
859.109	6637.3
859.292	6078.2
859.475	6090.49
859.658	6774.51
859.841	6471.41
860.023	5938.94
860.206	5922.55
860.389	6571.76
860.572	6663.92
860.755	6027
860.937	6088.44
861.12	6299.38
861.303	6194.93
861.486	6041.34
861.668	6067.96
861.851	6414.07
862.034	6520.56
862.216	6147.83
862.399	5885.69
862.581	6209.27
862.764	6698.74
862.947	5867.26
863.129	5910.27
863.312	5926.65
863.494	6475.51
863.677	6084.34
863.859	5725.95
864.042	6346.48
864.224	6350.58
864.406	5854.97
864.589	5664.51
864.771	6328.05
864.954	5861.12
865.136	5828.35
865.318	5699.33
865.501	6299.38
865.683	5619.46
865.865	5754.62
866.048	5713.66
866.23	6100.73
866.412	5910.27
866.594	5592.83
866.777	5711.61
866.959	5949.18
867.141	5762.81
867.323	5752.57
867.505	5762.81
867.687	5840.64
867.869	5994.23
868.052	5684.99
868.234	5586.69
868.416	5943.03
868.598	6252.28
868.78	5684.99
868.962	5519.11
869.144	6094.58
869.326	6133.5
869.508	5605.12
869.69	5476.1
869.872	5592.83
870.054	6184.69
870.236	5455.62
870.417	5598.98
870.599	5682.94
870.781	6395.64
870.963	5674.75
871.145	5519.11
871.327	5523.2
871.508	6106.87
871.69	5523.2
871.872	5570.3
872.054	5988.09
872.235	5910.27
872.417	5598.98
872.599	5517.06
872.78	6237.94
872.962	5981.95
873.144	5379.84
873.325	5596.93
873.507	6278.9
873.689	5768.96
873.87	5463.81
874.052	5670.65
874.233	5795.58
874.415	6135.54
874.596	5648.13
874.778	5451.52
874.959	5754.62
875.141	6067.96
875.322	5615.36
875.503	5295.88
875.685	5791.48
875.866	5441.28
876.048	5451.52
876.229	5508.87
876.41	5768.96
876.592	5764.86
876.773	5598.98
876.954	5361.41
877.136	6219.51
877.317	5746.43
877.498	5398.27
877.679	5517.06
877.86	5986.04
878.042	5891.84
878.223	5506.82
878.404	5881.6
878.585	6000.38
878.766	6360.82
878.947	5793.53
879.128	5781.25
879.309	5983.99
879.49	5943.03
879.672	5635.84
879.853	5639.94
880.034	5754.62
880.215	5795.58
880.396	5635.84
880.576	5664.51
880.757	5625.6
880.938	6233.85
881.119	5607.17
881.3	5648.13
881.481	5752.57
881.662	6772.46
881.843	5504.77
882.023	5508.87
882.204	5910.27
882.385	5951.23
882.566	5748.48
882.747	5564.16
882.927	6051.58
883.108	6153.98
883.289	5635.84
883.469	5961.47
883.65	5869.31
883.831	6016.76
884.011	5877.5
884.192	5762.81
884.373	6295.29
884.553	6164.22
884.734	5961.47
884.914	6131.45
885.095	6745.84
885.275	6545.14
885.456	5996.28
885.636	5672.7
885.817	6043.39
885.997	6147.83
886.178	5748.48
886.358	5912.32
886.538	6090.49
886.719	7089.9
886.899	5828.35
887.08	6008.57
887.26	6422.26
887.44	5930.75
887.621	5816.06
887.801	5967.61
887.981	6794.99
888.161	6354.68
888.342	5953.27
888.522	5955.32
888.702	6381.3
888.882	6438.64
889.062	5928.7
889.242	5699.33
889.423	6569.71
889.603	6401.78
889.783	6229.75
889.963	5766.91
890.143	6403.83
890.323	6444.79
890.503	5863.16
890.683	6039.29
890.863	6328.05
891.043	6401.78
891.223	5881.6
891.403	6143.74
891.583	6364.92
891.763	6276.85
891.943	5863.16
892.122	6055.67
892.302	6278.9
892.482	6072.06
892.662	6115.06
892.842	6078.2
893.022	6289.14
893.201	5912.32
893.381	6272.76
893.561	5871.36
893.741	6393.59
893.92	6352.63
894.1	5920.51
894.28	6094.58
894.459	6430.45
894.639	6303.48
894.819	5881.6
894.998	5945.08
895.178	6336.24
895.357	6250.23
895.537	5693.18
895.716	5508.87
895.896	6094.58
896.075	6309.62
896.255	5820.16
896.434	5656.32
896.614	6174.46
896.793	6354.68
896.973	5953.27
897.152	5865.21
897.331	6184.69
897.511	6457.07
897.69	5644.03
897.87	5809.92
898.049	6223.61
898.228	6139.64
898.407	6035.19
898.587	5988.09
898.766	5865.21
898.945	6031.1
899.124	5934.84
899.304	5992.19
899.483	6213.37
899.662	6305.53
899.841	5523.2
900.02	5576.45
900.199	6139.64
900.378	6084.34
900.557	5582.59
900.737	5508.87
900.916	6004.47
901.095	6121.21
901.274	5828.35
901.453	5428.99
901.632	5521.15
901.811	5601.02
901.989	5459.71
902.168	5492.48
902.347	5940.99
902.526	5420.8
902.705	5508.87
902.884	5564.16
903.063	6078.2
903.242	5953.27
903.42	5140.23
903.599	5416.71
903.778	5775.1
903.957	6051.58
904.135	5512.96
904.314	5396.23
904.493	5594.88
904.672	5650.18
904.85	5207.81
905.029	5166.85
905.207	5605.12
905.386	6051.58
905.565	4931.34
905.743	4992.78
905.922	5177.09
906.1	5515.01
906.279	5003.02
906.457	5107.46
906.636	5134.09
906.814	5125.9
906.993	5017.35
907.171	4865.8
907.35	5185.29
907.528	5484.29
907.707	5189.38
907.885	4742.92
908.063	5482.24
908.242	4781.84
908.42	4648.72
908.598	4706.06
908.777	5150.47
908.955	4904.71
909.133	4951.82
909.311	4708.11
909.49	4898.57
909.668	5060.36
909.846	4873.99
910.024	4577.04
910.202	5144.33
910.38	5123.85
910.559	4882.19
910.737	4822.8
910.915	5132.04
911.093	5187.33
911.271	4900.62
911.449	4951.82
911.627	5218.05
911.805	5787.39
911.983	4904.71
912.161	4808.46
912.339	5158.66
912.517	5435.14
912.695	5066.5
912.872	5060.36
913.05	4908.81
913.228	5332.74
913.406	5003.02
913.584	4863.76
913.762	5545.73
913.939	5103.37
914.117	4890.38
914.295	4951.82
914.473	5322.5
914.65	5283.59
914.828	4955.91
915.006	4865.8
915.184	4794.12
915.361	5213.96
915.539	5066.5
915.716	5138.18
915.894	5328.64
916.072	5447.43
916.249	5111.56
916.427	5140.23
916.604	5050.12
916.782	5431.04
916.959	4845.32
917.137	4943.63
917.314	5173
917.492	5138.18
917.669	4966.15
917.847	4962.06
918.024	5140.23
918.201	5033.74
918.379	4984.59
918.556	4855.56
918.733	5449.47
918.911	5119.75
919.088	5068.55
919.265	4966.15
919.442	5193.48
919.62	5046.02
919.797	4759.31
919.974	4710.16
920.151	5125.9
920.328	5058.31
920.506	4951.82
920.683	5046.02
920.86	4810.51
921.037	4873.99
921.214	4845.32
921.391	4681.49
921.568	5185.29
921.745	4796.17
921.922	4683.53
922.099	4710.16
922.276	5359.36
922.453	5193.48
922.63	4538.13
922.807	4902.67
922.984	4914.95
923.161	4599.57
923.338	4701.97
923.514	4544.27
923.691	4882.19
923.868	4839.18
924.045	4652.81
924.222	4482.83
924.399	4763.4
924.575	5111.56
924.752	4656.91
924.929	4685.58
925.105	4990.73
925.282	4546.32
925.459	4593.42
925.635	4583.18
925.812	4742.92
925.989	4558.61
926.165	4591.38
926.342	4417.3
926.518	4644.62
926.695	4779.79
926.871	4419.35
927.048	4388.63
927.224	5019.4
927.401	4550.42
927.577	4542.22
927.754	4239.12
927.93	4830.99
928.107	4734.73
928.283	4286.23
928.459	4325.14
928.636	4548.37
928.812	4421.39
928.988	4167.45
929.165	4136.73
929.341	4398.87
929.517	4439.83
929.693	4585.23
929.87	4144.92
930.046	4648.72
930.222	4300.56
930.398	4181.78
930.574	4531.98
930.751	4409.11
930.927	4337.43
931.103	4183.83
931.279	4230.93
931.455	4044.57
931.631	4232.98
931.807	3976.98
931.983	3962.65
932.159	4118.29
932.335	4366.1
932.511	3962.65
932.687	3905.31
932.863	4214.55
933.039	4067.1
933.215	3897.11
933.391	3649.31
933.566	4128.53
933.742	3993.37
933.918	3761.95
934.094	3639.07
934.27	4103.96
934.445	3993.37
934.621	3813.15
934.797	3464.99
934.973	3985.18
935.148	3772.19
935.324	3381.03
935.5	3198.76
935.675	3942.17
935.851	3706.65
936.027	3428.13
936.202	3485.47
936.378	3667.74
936.553	3378.98
936.729	3538.72
936.904	3151.65
937.08	3165.99
937.255	3045.16
937.431	2826.03
937.606	2938.66
937.782	3090.21
937.957	3075.88
938.133	2969.38
938.308	2846.51
938.483	3186.47
938.659	2873.13
938.834	2869.03
939.009	2565.93
939.185	2719.53
939.36	2613.04
939.535	2268.98
939.71	2606.89
939.886	3049.25
940.061	2780.97
940.236	2692.91
940.411	2539.31
940.586	2852.65
940.761	2797.35
940.937	2387.76
941.112	2252.59
941.287	2518.83
941.462	2484.02
941.637	2064.18
941.812	2447.15
941.987	2608.94
942.162	2512.69
942.337	2459.44
942.512	2293.55
942.687	2780.97
942.862	2553.65
943.037	1937.21
943.212	1863.48
943.386	2375.47
943.561	2457.39
943.736	2365.23
943.911	2434.86
944.086	2639.66
944.26	2498.35
944.435	2144.05
944.61	2314.03
944.785	2713.39
944.959	2828.07
945.134	2268.98
945.309	2115.38
945.483	2215.73
945.658	2527.02
945.833	1855.29
946.007	1996.6
946.182	2697
946.357	2160.44
946.531	1994.55
946.706	2045.75
946.88	1990.45
947.055	2527.02
947.229	2144.05
947.404	1986.36
947.578	2635.57
947.752	2410.29
947.927	2004.79
948.101	1994.55
948.276	2391.86
948.45	2455.34
948.624	2402.1
948.799	2084.66
948.973	2565.93
949.147	2053.94
949.321	2117.43
949.496	2232.12
949.67	2674.48
949.844	2494.26
950.018	2154.29
950.193	2082.61
950.367	2981.67
950.541	2402.1
950.715	2455.34
950.889	2373.43
951.063	2486.06
951.237	2467.63
951.411	2037.56
951.585	2213.68
951.759	2600.75
951.933	2572.08
952.107	2320.18
952.281	2350.9
952.455	2756.4
952.629	2778.92
952.803	2256.69
952.977	2232.12
953.151	2740.01
953.325	2813.74
953.499	2537.26
953.672	2240.31
953.846	2322.23
954.02	2428.72
954.194	2322.23
954.368	2314.03
954.541	2793.26
954.715	2543.41
954.889	2490.16
955.062	2322.23
955.236	2529.07
955.41	2373.43
955.583	2676.52
955.757	2166.58
955.93	2567.98
956.104	2371.38
956.278	2404.14
956.451	2391.86
956.625	2797.35
956.798	3104.55
956.972	2719.53
957.145	2334.51
957.319	2551.6
957.492	2656.04
957.665	2504.5
957.839	2395.95
958.012	2778.92
958.185	2537.26
958.359	2463.54
958.532	2604.85
958.705	2901.8
958.879	2662.19
959.052	2533.17
959.225	2264.88
959.398	2680.62
959.572	2860.84
959.745	2371.38
959.918	2451.25
960.091	2606.89
960.264	2819.88
960.438	2299.7
960.611	2363.19
960.784	2887.47
960.957	2395.95
961.13	2883.37
961.303	2359.09
961.476	2623.28
961.649	2842.41
961.822	2311.99
961.995	2336.56
962.168	2690.86
962.341	2684.72
962.514	2400.05
962.686	2375.47
962.859	2791.21
963.032	2836.27
963.205	2502.45
963.378	2266.93
963.551	2682.67
963.723	2654
963.896	2559.79
964.069	2617.13
964.242	2711.34
964.414	2776.87
964.587	2563.89
964.76	2522.93
964.932	2768.68
965.105	2699.05
965.278	2402.1
965.45	2420.53
965.623	2758.44
965.795	2883.37
965.968	2400.05
966.14	2424.62
966.313	2651.95
966.485	2549.55
966.658	2244.4
966.83	2217.78
967.003	2926.38
967.175	2721.58
967.348	2432.82
967.52	2277.17
967.692	2912.04
967.865	2748.2
968.037	2361.14
968.209	2639.66
968.382	2539.31
968.554	2725.68
968.726	2383.66
968.898	2228.02
969.071	2547.5
969.243	2590.51
969.415	2416.43
969.587	2330.42
969.759	3000.1
969.932	2688.81
970.104	2303.79
970.276	2060.09
970.448	2428.72
970.62	2352.95
970.792	2420.53
970.964	2352.95
971.136	2821.93
971.308	2658.09
971.48	2162.48
971.652	2309.94
971.824	2766.64
971.996	2422.58
972.168	2318.13
972.339	2297.65
972.511	2797.35
972.683	2453.3
972.855	2518.83
973.027	2275.12
973.199	2447.15
973.37	2561.84
973.542	2375.47
973.714	2412.34
973.886	2475.82
974.057	2721.58
974.229	2072.37
974.401	2127.67
974.572	2230.07
974.744	1926.97
974.915	2219.83
975.087	2166.58
975.259	2815.79
975.43	2240.31
975.602	2182.96
975.773	2053.94
975.945	2268.98
976.116	2602.8
976.288	2060.09
976.459	2326.32
976.63	2367.28
976.802	2445.1
976.973	2160.44
977.145	2217.78
977.316	2938.66
977.487	2570.03
977.659	2195.25
977.83	2172.72
978.001	2701.1
978.172	2342.71
978.344	2076.47
978.515	2084.66
978.686	2189.11
978.857	2789.16
979.028	2121.52
979.2	1926.97
979.371	2578.22
979.542	2209.59
979.713	2232.12
979.884	1695.55
980.055	2111.29
980.226	2240.31
980.397	2023.22
980.568	1961.78
980.739	2527.02
980.91	2170.68
981.081	2232.12
981.252	2035.51
981.423	2359.09
981.594	2498.35
981.765	1951.54
981.936	2080.57
982.106	2266.93
982.277	2547.5
982.448	1797.95
982.619	2066.23
982.79	2133.81
982.96	2443.06
983.131	2105.14
983.302	1728.31
983.472	2070.33
983.643	2211.64
983.814	2209.59
983.984	1863.48
984.155	2244.4
984.326	2371.38
984.496	2006.84
984.667	1890.1
984.837	1992.5
985.008	2371.38
985.178	2209.59
985.349	1922.87
985.519	1869.62
985.69	1879.86
985.86	1828.67
986.031	1787.71
986.201	2213.68
986.371	2246.45
986.542	1574.72
986.712	1613.63
986.882	2055.99
987.053	2152.24
987.223	1871.67
987.393	2066.23
987.563	1972.02
987.734	2178.87
987.904	2010.93
988.074	1687.36
988.244	2029.37
988.414	1900.34
988.585	1644.35
988.755	1879.86
988.925	1900.34
989.095	2285.36
989.265	1529.66
989.435	1896.25
989.605	2035.51
989.775	2082.61
989.945	1988.41
990.115	1533.76
990.285	1814.33
990.455	1875.77
990.625	1638.2
990.795	1642.3
990.965	2105.14
991.134	1511.23
991.304	1589.05
991.474	1734.46
991.644	1972.02
991.814	2248.5
991.984	1441.6
992.153	1615.68
992.323	1853.24
992.493	1724.22
992.662	1259.33
992.832	1728.31
993.002	1898.3
993.171	2027.32
993.341	1423.17
993.511	1650.49
993.68	1761.08
993.85	1822.52
994.019	1347.39
994.189	1386.3
994.358	1752.89
994.528	1691.45
994.697	1152.84
994.867	1404.74
995.036	1922.87
995.206	1644.35
995.375	1398.59
995.544	1464.13
995.714	1867.58
995.883	1576.77
996.052	1451.84
996.222	1183.56
996.391	2068.28
996.56	1627.96
996.73	1242.95
996.899	1179.46
997.068	2064.18
997.237	1582.91
997.406	1244.99
997.576	1167.17
997.745	1699.64
997.914	1720.12
998.083	1185.6
998.252	1224.51
998.421	1615.68
998.59	1482.56
998.759	1150.79
998.928	1208.13
999.097	1920.82
999.266	1632.06
999.435	1363.78
999.604	1054.53
999.773	2058.04
999.942	1564.48
1000.111	1072.96
1000.28	1134.4
1000.448	1398.59
1000.617	1429.31
1000.786	1347.39
1000.955	1122.12
1001.124	1736.51
1001.292	2041.65
1001.461	1107.78
1001.63	1068.87
1001.798	1873.72
1001.967	1881.91
1002.136	982.85
1002.304	1046.34
1002.473	1617.72
1002.642	1476.41
1002.81	1234.75
1002.979	1001.29
1003.147	1711.93
1003.316	1980.22
1003.484	1077.06
1003.653	1122.12
1003.821	1670.97
1003.99	1388.35
1004.158	1312.58
1004.327	1056.58
1004.495	1460.03
1004.663	1249.09
1004.832	1118.02
1005	825.16
1005.168	1513.28
1005.337	1433.41
1005.505	900.94
1005.673	1109.83
1005.842	1599.29
1006.01	1357.63
1006.178	1003.33
1006.346	945.99
1006.514	1279.81
1006.683	1560.38
1006.851	872.26
1007.019	1027.91
1007.187	1144.64
1007.355	808.78
1007.523	851.78
1007.691	802.63
1007.859	941.89
1008.027	1535.81
1008.195	937.8
1008.363	751.43
1008.531	1435.46
1008.699	1052.49
1008.867	847.69
1009.035	888.65
1009.203	1552.19
1009.37	1236.8
1009.538	864.07
1009.706	1267.52
1009.874	1251.14
1010.042	1158.98
1010.209	765.77
1010.377	778.06
1010.545	1421.12
1010.713	1105.73
1010.88	696.14
1011.048	882.5
1011.216	986.95
1011.383	1523.52
1011.551	773.96
1011.718	753.48
1011.886	1279.81
1012.054	1025.86
1012.221	798.54
1012.389	683.85
1012.556	1097.54
1012.724	1560.38
1012.891	884.55
1013.058	556.88
1013.226	1222.47
1013.393	1253.19
1013.561	646.99
1013.728	544.59
1013.895	1341.25
1014.063	1193.8
1014.23	515.92
1014.397	624.46
1014.565	1175.36
1014.732	1077.06
1014.899	728.91
1015.066	560.97
1015.233	1042.25
1015.401	1128.26
1015.568	726.86
1015.735	859.98
1015.902	1097.54
1016.069	1140.55
1016.236	681.8
1016.403	544.59
1016.57	702.28
1016.737	1204.03
1016.904	681.8
1017.071	548.68
1017.238	892.74
1017.405	1093.44
1017.572	661.32
1017.739	759.63
1017.906	1083.2
1018.073	1150.79
1018.24	446.29
1018.407	653.13
1018.573	1154.88
1018.74	880.46
1018.907	560.97
1019.074	374.61
1019.241	1046.34
1019.407	933.7
1019.574	534.35
1019.741	423.76
1019.907	1093.44
1020.074	1097.54
1020.241	313.17
1020.407	390.99
1020.574	929.61
1020.74	964.42
1020.907	442.19
1021.073	397.14
1021.24	1404.74
1021.406	1195.84
1021.573	397.14
1021.739	497.49
1021.906	1087.3
1022.072	814.92
1022.239	425.81
1022.405	556.88
1022.571	853.83
1022.738	683.85
1022.904	405.33
1023.07	511.82
1023.237	835.4
1023.403	1109.83
1023.569	524.11
1023.735	456.53
1023.902	839.5
1024.068	845.64
1024.234	374.61
1024.4	427.85
1024.566	825.16
1024.732	972.61
1024.898	339.79
1025.065	225.11
1025.231	958.28
1025.397	757.58
1025.563	388.94
1025.729	325.46
1025.895	407.38
1026.061	612.17
1026.227	192.34
1026.392	384.85
1026.558	1087.3
1026.724	888.65
1026.89	347.98
1027.056	507.73
1027.222	878.41
1027.388	528.21
1027.553	337.74
1027.719	341.84
1027.885	1122.12
1028.051	900.94
1028.216	227.15
1028.382	307.02
1028.548	921.42
1028.713	560.97
1028.879	247.63
1029.045	495.44
1029.21	1070.92
1029.376	1015.62
1029.541	341.84
1029.707	384.85
1029.873	896.84
1030.038	896.84
1030.204	257.87
1030.369	401.23
1030.534	831.3
1030.7	636.75
1030.865	298.83
1031.031	214.87
1031.196	833.35
1031.361	657.23
1031.527	259.92
1031.692	321.36
1031.857	300.88
1032.023	814.92
1032.188	227.15
1032.353	247.63
1032.518	1003.33
1032.684	747.34
1032.849	200.53
1033.014	290.64
1033.179	864.07
1033.344	790.35
1033.509	413.52
1033.674	284.5
1033.839	837.45
1034.004	806.73
1034.17	290.64
1034.335	157.52
1034.5	536.4
1034.664	554.83
1034.829	221.01
1034.994	343.89
1035.159	702.28
1035.324	685.9
1035.489	294.74
1035.654	180.05
1035.819	1011.53
1035.984	704.33
1036.148	311.12
1036.313	302.93
1036.478	898.89
1036.643	612.17
1036.807	104.28
1036.972	171.86
1037.137	974.66
1037.301	749.39
1037.466	18.26
1037.631	307.02
1037.795	913.22
1037.96	665.42
1038.124	388.94
1038.289	44.88
1038.454	776.01
1038.618	675.66
1038.783	307.02
1038.947	321.36
1039.111	671.56
1039.276	448.33
1039.44	147.28
1039.605	753.48
1039.769	546.64
1039.933	612.17
1040.098	280.4
1040.262	446.29
1040.426	743.24
1040.591	796.49
1040.755	46.93
1040.919	167.76
1041.083	716.62
1041.248	560.97
1041.412	10.07
1041.576	98.13
1041.74	413.52
1041.904	659.28
1042.068	67.41
1042.232	233.3
1042.397	839.5
1042.561	618.32
1042.725	-86.19
1042.889	261.97
1043.053	728.91
1043.217	700.23
1043.381	239.44
1043.544	16.21
1043.708	810.82
1043.872	237.39
1044.036	-133.29
1044.2	-18.6
1044.364	808.78
1044.528	808.78
1044.691	5011.21
1044.855	-0.17
1045.019	702.28
1045.183	710.47
1045.346	182.1
1045.51	18.26
1045.674	651.08
1045.837	708.43
1046.001	139.09
1046.165	114.52
1046.328	1017.67
1046.492	628.56
1046.655	223.06
1046.819	178
1046.983	290.64
1047.146	560.97
1047.31	163.67
1047.473	-98.47
1047.636	462.67
1047.8	294.74
1047.963	155.47
1048.127	36.69
1048.29	360.27
