Data from Hydrogel_Ink_Intensity_Test_1_USB4F045381__35__00035.txt Node

Date: Mon Jul 31 10:43:27 EDT 2023
User: mmckonesweet
Spectrometer: USB4F04538
Trigger mode: 4
Integration Time (sec): 9.000000E-1
Scans to average: 1
Electric dark correction enabled: true
Nonlinearity correction enabled: false
Boxcar width: 0
XAxis mode: Wavelengths
Number of Pixels in Spectrum: 3648
>>>>>Begin Spectral Data<<<<<
345.52	-1022.11
345.736	-1022.11
345.952	-1022.11
346.168	-979.1
346.384	-950.43
346.6	-112.81
346.816	-227.5
347.032	-184.49
347.248	245.59
347.464	-250.02
347.68	-114.86
347.896	141.14
348.112	374.61
348.328	-67.75
348.544	-77.99
348.76	14.17
348.975	259.92
349.191	-176.3
349.407	-235.69
349.623	91.99
349.839	-28.84
350.055	-69.8
350.27	141.14
350.486	196.43
350.702	413.52
350.918	403.28
351.133	-88.23
351.349	233.3
351.565	507.73
351.781	-235.69
351.996	87.89
352.212	380.75
352.428	-90.28
352.644	-114.86
352.859	-114.86
353.075	302.93
353.291	77.65
353.506	-57.51
353.722	-116.9
353.938	-16.55
354.153	419.66
354.369	206.67
354.584	-176.3
354.8	327.5
355.016	-196.78
355.231	-123.05
355.447	18.26
355.662	137.04
355.878	921.42
356.093	-260.26
356.309	34.64
356.524	-235.69
356.74	300.88
356.955	-129.19
357.171	36.69
357.386	210.77
357.602	-176.3
357.817	20.31
358.033	-86.19
358.248	399.18
358.464	298.83
358.679	-61.61
358.895	-237.74
359.11	63.32
359.325	352.08
359.541	296.78
359.756	89.94
359.972	-145.58
360.187	216.91
360.402	-90.28
360.618	-92.33
360.833	991.05
361.048	231.25
361.264	-77.99
361.479	8.02
361.694	96.08
361.909	202.58
362.125	-53.42
362.34	-73.9
362.555	304.98
362.77	167.76
362.986	-184.49
363.201	-30.89
363.416	261.97
363.631	149.33
363.847	-88.23
364.062	-143.53
364.277	249.68
364.492	118.61
364.707	-82.09
364.922	-268.45
365.138	384.85
365.353	427.85
365.568	-71.85
365.783	-86.19
365.998	186.19
366.213	696.14
366.428	-176.3
366.643	126.8
366.858	325.46
367.073	368.46
367.288	75.6
367.503	-164.01
367.718	178
367.933	413.52
368.148	-137.38
368.363	71.51
368.578	124.76
368.793	550.73
369.008	-67.75
369.223	-86.19
369.438	335.7
369.653	456.53
369.868	-202.92
370.083	-123.05
370.298	116.56
370.513	456.53
370.728	102.23
370.943	-104.62
371.157	-168.1
371.372	630.6
371.587	-321.7
371.802	-174.25
372.017	149.33
372.232	489.29
372.446	53.08
372.661	-166.06
372.876	323.41
373.091	270.16
373.306	65.36
373.52	-131.24
373.735	-151.72
373.95	446.29
374.165	5.97
374.379	40.79
374.594	8.02
374.809	296.78
375.023	124.76
375.238	-96.43
375.453	304.98
375.667	-157.86
375.882	-59.56
376.097	-114.86
376.311	216.91
376.526	-14.51
376.741	-123.05
376.955	212.82
377.17	665.42
377.384	608.08
377.599	67.41
377.813	-123.05
378.028	651.08
378.242	282.45
378.457	-57.51
378.672	-227.5
378.886	266.07
379.101	91.99
379.315	-209.06
379.53	65.36
379.744	333.65
379.958	298.83
380.173	-37.03
380.387	-73.9
380.602	264.02
380.816	-22.7
381.031	34.64
381.245	79.7
381.459	302.93
381.674	2688.81
381.888	-57.51
382.103	194.39
382.317	-22.7
382.531	587.6
382.746	204.63
382.96	12.12
383.174	-2.22
383.388	659.28
383.603	200.53
383.817	-92.33
384.031	331.6
384.246	601.93
384.46	208.72
384.674	393.04
384.888	94.04
385.103	227.15
385.317	-80.04
385.531	130.9
385.745	526.16
385.959	470.86
386.174	-37.03
386.388	-49.32
386.602	192.34
386.816	71.51
387.03	116.56
387.244	98.13
387.458	227.15
387.672	497.49
387.887	-106.67
388.101	-34.99
388.315	659.28
388.529	304.98
388.743	81.75
388.957	-28.84
389.171	477.01
389.385	73.56
389.599	26.45
389.813	208.72
390.027	280.4
390.241	911.18
390.455	132.95
390.669	112.47
390.883	141.14
391.097	606.03
391.311	335.7
391.525	83.8
391.738	368.46
391.952	462.67
392.166	243.54
392.38	16.21
392.594	542.54
392.808	532.3
393.022	171.86
393.236	167.76
393.449	390.99
393.663	325.46
393.877	3.93
394.091	182.1
394.305	104.28
394.518	63.32
394.732	8.02
394.946	169.81
395.16	743.24
395.373	352.08
395.587	77.65
395.801	122.71
396.015	524.11
396.228	446.29
396.442	-16.55
396.656	-71.85
396.869	565.07
397.083	722.76
397.297	214.87
397.51	32.6
397.724	702.28
397.938	390.99
398.151	8.02
398.365	53.08
398.578	540.49
398.792	700.23
399.005	333.65
399.219	161.62
399.433	468.81
399.646	485.2
399.86	366.42
400.073	417.61
400.287	505.68
400.5	274.26
400.714	259.92
400.927	282.45
401.141	548.68
401.354	1490.75
401.567	606.03
401.781	46.93
401.994	595.79
402.208	966.47
402.421	276.31
402.635	245.59
402.848	356.18
403.061	575.31
403.275	386.9
403.488	169.81
403.701	843.59
403.915	505.68
404.128	460.62
404.341	227.15
404.555	552.78
404.768	409.42
404.981	384.85
405.195	272.21
405.408	866.12
405.621	634.7
405.834	530.25
406.048	204.63
406.261	829.26
406.474	814.92
406.687	188.24
406.9	419.66
407.114	474.96
407.327	622.41
407.54	171.86
407.753	106.32
407.966	268.11
408.179	663.37
408.392	200.53
408.605	151.38
408.819	581.45
409.032	663.37
409.245	280.4
409.458	542.54
409.671	716.62
409.884	790.35
410.097	149.33
410.31	487.25
410.523	737.1
410.736	386.9
410.949	345.94
411.162	378.7
411.375	857.93
411.588	745.29
411.801	556.88
412.014	429.9
412.227	491.34
412.44	405.33
412.653	372.56
412.865	591.69
413.078	749.39
413.291	706.38
413.504	403.28
413.717	294.74
413.93	773.96
414.143	350.03
414.356	442.19
414.568	284.5
414.781	835.4
414.994	655.18
415.207	415.57
415.42	565.07
415.632	769.87
415.845	1177.41
416.058	360.27
416.271	309.07
416.483	681.8
416.696	1120.07
416.909	440.14
417.121	364.37
417.334	794.44
417.547	1173.32
417.759	431.95
417.972	474.96
418.185	573.26
418.397	886.6
418.61	452.43
418.823	388.94
419.035	937.8
419.248	728.91
419.46	606.03
419.673	538.45
419.885	919.37
420.098	651.08
420.311	511.82
420.523	298.83
420.736	872.26
420.948	755.53
421.161	436.05
421.373	313.17
421.586	833.35
421.798	636.75
422.01	438.09
422.223	689.99
422.435	628.56
422.648	849.74
422.86	593.74
423.073	474.96
423.285	1044.29
423.497	505.68
423.71	556.88
423.922	536.4
424.134	972.61
424.347	1105.73
424.559	792.39
424.771	872.26
424.984	708.43
425.196	829.26
425.408	477.01
425.621	581.45
425.833	1148.74
426.045	1163.08
426.257	575.31
426.47	599.88
426.682	1013.57
426.894	999.24
427.106	755.53
427.318	702.28
427.531	755.53
427.743	1050.44
427.955	681.8
428.167	1163.08
428.379	945.99
428.591	810.82
428.804	806.73
429.016	692.04
429.228	808.78
429.44	962.37
429.652	931.66
429.864	661.32
430.076	943.94
430.288	913.22
430.5	819.02
430.712	868.17
430.924	1316.67
431.136	966.47
431.348	644.94
431.56	780.11
431.772	989
431.984	933.7
432.196	798.54
432.408	929.61
432.62	958.28
432.832	1122.12
433.044	1126.21
433.256	982.85
433.468	1228.61
433.679	761.67
433.891	751.43
434.103	1077.06
434.315	1515.33
434.527	1281.86
434.739	991.05
434.95	1099.59
435.162	1359.68
435.374	958.28
435.586	925.51
435.798	878.41
436.009	935.75
436.221	1091.4
436.433	999.24
436.645	1013.57
436.856	1036.1
437.068	1400.64
437.28	980.81
437.491	1249.09
437.703	1398.59
437.915	1322.82
438.126	1124.16
438.338	1226.56
438.55	1353.54
438.761	1427.26
438.973	1107.78
439.184	1132.36
439.396	1419.07
439.608	1539.9
439.819	950.09
440.031	1167.17
440.242	1492.8
440.454	1443.65
440.665	1255.23
440.877	1376.06
441.088	1470.27
441.3	1285.95
441.511	888.65
441.723	1089.35
441.934	1367.87
442.146	1386.3
442.357	1275.71
442.569	1359.68
442.78	1494.85
442.991	1748.79
443.203	1607.48
443.414	1236.8
443.626	1705.79
443.837	1269.57
444.048	1185.6
444.26	1048.39
444.471	1408.83
444.682	1550.14
444.894	1077.06
445.105	1249.09
445.316	1769.27
445.528	1687.36
445.739	1417.02
445.95	1417.02
446.161	1527.61
446.373	1847.1
446.584	1298.24
446.795	1437.5
447.006	1728.31
447.217	1847.1
447.429	1175.36
447.64	1261.38
447.851	1748.79
448.062	1713.98
448.273	1122.12
448.484	1408.83
448.695	1675.07
448.907	1476.41
449.118	1503.04
449.329	1572.67
449.54	1509.18
449.751	1484.61
449.962	1427.26
450.173	1478.46
450.384	1892.15
450.595	1929.02
450.806	1462.08
451.017	1509.18
451.228	2055.99
451.439	2047.8
451.65	1478.46
451.861	1337.15
452.072	1634.11
452.283	1767.23
452.494	1703.74
452.705	1468.22
452.915	2127.67
453.126	1894.2
453.337	1695.55
453.548	1533.76
453.759	2131.76
453.97	2283.31
454.181	1867.58
454.391	1687.36
454.602	1918.78
454.813	2086.71
455.024	1824.57
455.235	1685.31
455.445	1949.5
455.656	2195.25
455.867	1961.78
456.078	1730.36
456.288	1773.37
456.499	2139.96
456.71	1789.75
456.921	2045.75
457.131	2123.57
457.342	2142
457.553	1974.07
457.763	1793.85
457.974	2316.08
458.184	2318.13
458.395	1797.95
458.606	1939.26
458.816	2438.96
459.027	2785.07
459.237	2070.33
459.448	1875.77
459.659	2445.1
459.869	2705.2
460.08	1818.43
460.29	2189.11
460.501	2766.64
460.711	2225.97
460.922	2008.89
461.132	2201.4
461.343	3139.37
461.553	2096.95
461.764	2223.92
461.974	2125.62
462.184	2656.04
462.395	2666.28
462.605	2254.64
462.816	2129.72
463.026	2580.27
463.236	2842.41
463.447	2389.81
463.657	2383.66
463.867	2901.8
464.078	2490.16
464.288	2467.63
464.498	2504.5
464.709	2686.76
464.919	2711.34
465.129	2666.28
465.339	2486.06
465.55	2826.03
465.76	2973.48
465.97	2674.48
466.18	2494.26
466.391	3342.11
466.601	3051.3
466.811	2938.66
467.021	2604.85
467.231	3026.73
467.441	3252
467.651	2967.34
467.862	2684.72
468.072	3213.09
468.282	3475.23
468.492	2860.84
468.702	3047.21
468.912	3256.1
469.122	3802.91
469.332	3432.22
469.542	3245.86
469.752	3720.99
469.962	3514.14
470.172	3165.99
470.382	3245.86
470.592	3700.51
470.802	3823.39
471.012	3483.42
471.222	3395.36
471.432	3976.98
471.642	3786.52
471.852	3555.1
472.062	3495.71
472.272	3731.23
472.482	3589.92
472.691	3700.51
472.901	3659.55
473.111	3962.65
473.321	4632.33
473.531	3944.22
473.741	3999.51
473.95	4353.81
474.16	4304.66
474.37	4108.05
474.58	3921.69
474.79	4720.4
474.999	4550.42
475.209	4046.62
475.419	4181.78
475.628	4423.44
475.838	4785.93
476.048	4609.81
476.258	4149.01
476.467	4992.78
476.677	4826.89
476.886	4783.88
477.096	4747.02
477.306	4775.69
477.515	5185.29
477.725	4947.72
477.935	4927.24
478.144	5320.45
478.354	4884.23
478.563	5041.93
478.773	4898.57
478.982	5598.98
479.192	5760.77
479.401	5162.76
479.611	5099.27
479.82	5211.91
480.03	5641.98
480.239	5222.15
480.449	5447.43
480.658	5910.27
480.868	5510.91
481.077	5721.85
481.287	5609.22
481.496	6037.24
481.705	6250.23
481.915	5949.18
482.124	5986.04
482.333	6205.17
482.543	6549.23
482.752	6188.79
482.961	5977.85
483.171	6479.6
483.38	6287.09
483.589	6172.41
483.799	6199.03
484.008	6504.18
484.217	6614.77
484.426	6375.16
484.636	6299.38
484.845	6674.16
485.054	6448.88
485.263	6862.57
485.472	6446.83
485.682	7397.09
485.891	6821.61
486.1	6543.09
486.309	6768.37
486.518	7278.31
486.727	7462.63
486.936	6897.39
487.146	7089.9
487.355	7692
487.564	6997.74
487.773	7257.83
487.982	7177.96
488.191	7306.98
488.4	7517.92
488.609	7532.26
488.818	7329.51
489.027	8181.46
489.236	8177.37
489.445	7769.82
489.654	7526.11
489.863	8095.45
490.072	7890.65
490.281	7847.65
490.49	7640.8
490.698	8283.86
490.907	8496.85
491.116	7954.14
491.325	7880.41
491.534	8550.1
491.743	8314.58
491.952	8181.46
492.16	8345.3
492.369	8404.69
492.578	8697.55
492.787	8363.73
492.996	8103.64
493.204	8543.95
493.413	8965.84
493.622	8273.62
493.831	8109.79
494.039	9133.77
494.248	8632.02
494.457	8619.73
494.665	8627.92
494.874	9058
495.083	9506.5
495.291	8898.25
495.5	8660.69
495.709	9432.77
495.917	9125.58
496.126	9109.19
496.335	9055.95
496.543	9154.25
496.752	9295.56
496.96	9416.39
497.169	9092.81
497.377	9584.32
497.586	9608.9
497.794	9389.77
498.003	8963.79
498.211	9797.31
498.42	9852.61
498.628	9692.87
498.837	9475.78
499.045	9795.26
499.254	9977.53
499.462	9715.39
499.671	9821.89
499.879	10333.88
500.087	10268.34
500.296	9799.36
500.504	9940.67
500.713	10137.27
500.921	10700.47
501.129	9963.2
501.338	9940.67
501.546	10305.21
501.754	10352.31
501.962	10262.2
502.171	10182.33
502.379	10512.05
502.587	10813.1
502.795	10421.94
503.004	10249.91
503.212	10970.8
503.42	10995.37
503.628	10643.12
503.837	10407.61
504.045	10811.06
504.253	11271.85
504.461	10380.98
504.669	10319.54
504.877	11185.83
505.085	11316.9
505.294	10667.7
505.502	11032.24
505.71	11099.82
505.918	11247.27
506.126	10774.19
506.334	10753.71
506.542	11134.64
506.75	11165.35
506.958	11206.31
507.166	11142.83
507.374	11216.55
507.582	11685.54
507.79	11204.27
507.998	11241.13
508.206	11501.22
508.414	11740.83
508.622	11419.3
508.83	11347.62
509.037	11994.78
509.245	11398.82
509.453	11253.42
509.661	11525.8
509.869	11937.44
510.077	11765.41
510.285	11718.31
510.492	11220.65
510.7	12533.4
510.908	11579.04
511.116	11695.78
511.324	11859.62
511.531	12091.04
511.739	12197.53
511.947	11904.67
512.155	12152.48
512.362	12107.42
512.57	11761.31
512.778	11959.97
512.985	11789.99
513.193	12412.57
513.401	12803.73
513.608	12002.97
513.816	12037.79
514.024	12422.81
514.231	12754.58
514.439	12291.74
514.646	12013.21
514.854	12600.98
515.061	12637.84
515.269	12162.72
515.477	12246.68
515.684	12326.55
515.892	12856.98
516.099	12078.75
516.307	12404.38
516.514	12922.51
516.722	13239.95
516.929	12514.97
517.136	12607.12
517.344	13137.55
517.551	12996.24
517.759	12439.19
517.966	12670.61
518.173	13047.44
518.381	13182.6
518.588	12816.02
518.796	12777.11
519.003	13416.07
519.21	13131.4
519.418	12869.26
519.625	13104.78
519.832	13321.87
520.039	13244.04
520.247	12840.59
520.454	13121.17
520.661	13825.67
520.868	13518.47
521.076	13307.53
521.283	13203.08
521.49	13987.46
521.697	13858.43
521.904	13405.83
522.112	13303.43
522.319	13944.45
522.526	13764.23
522.733	13547.14
522.94	13334.15
523.147	13751.94
523.354	13932.16
523.561	13584.01
523.768	13780.61
523.975	14233.21
524.183	14149.25
524.39	13891.2
524.597	13803.14
524.804	14161.53
525.011	13860.48
525.218	13936.26
525.425	14087.81
525.632	14544.5
525.838	13956.74
526.045	14130.81
526.252	13991.55
526.459	15761
526.666	15304.3
526.873	14077.57
527.08	14089.85
527.287	14859.89
527.494	14603.89
527.701	14317.18
527.907	14194.3
528.114	14610.04
528.321	14456.44
528.528	14599.8
528.735	14425.72
528.941	14886.51
529.148	14491.26
529.355	14626.42
529.562	14442.1
529.768	15285.87
529.975	14540.41
530.182	14618.23
530.388	14628.47
530.595	15060.59
530.802	14585.46
531.008	14978.67
531.215	14972.53
531.422	15781.48
531.628	15869.54
531.835	15314.54
532.042	15224.43
532.248	15158.89
532.455	15832.68
532.661	15046.26
532.868	15048.3
533.074	15621.73
533.281	15844.96
533.487	15500.9
533.694	15226.48
533.9	15447.66
534.107	15877.73
534.313	15480.43
534.52	15414.89
534.726	16113.25
534.933	16397.92
535.139	15615.59
535.345	15533.67
535.552	15834.72
535.758	16189.02
535.965	15711.85
536.171	15928.93
536.377	16404.06
536.584	16281.18
536.79	15943.27
536.996	16242.27
537.203	16195.17
537.409	16289.37
537.615	16060
537.821	16215.65
538.028	16641.62
538.234	16635.48
538.44	16012.9
538.646	16057.95
538.853	16633.43
539.059	16266.85
539.265	16782.93
539.471	16000.61
539.677	16639.58
539.883	16682.58
540.09	16379.48
540.296	16942.67
540.502	16827.99
540.708	16528.99
540.914	16727.64
541.12	16787.03
541.326	17034.83
541.532	16926.29
541.738	17051.22
541.944	16766.55
542.15	17454.67
542.356	17065.55
542.562	16705.11
542.768	17030.74
542.974	17868.36
543.18	17747.53
543.386	17315.41
543.592	16938.58
543.798	17653.32
544.004	17753.67
544.21	17356.36
544.415	17225.29
544.621	17731.14
544.827	17970.76
545.033	17522.25
545.239	17768.01
545.445	17804.87
545.651	17677.9
545.856	17346.12
546.062	17636.94
546.268	17675.85
546.474	18345.53
546.679	17405.52
546.885	17616.46
547.091	17561.16
547.297	18366.01
547.502	17665.61
547.708	17481.29
547.914	17839.69
548.119	18161.22
548.325	17569.35
548.531	17725
548.736	18828.85
548.942	17802.82
549.147	17931.84
549.353	17987.14
549.559	18433.6
549.764	18222.66
549.97	17663.56
550.175	18005.57
550.381	18769.46
550.586	18034.24
550.792	17940.04
550.997	18206.27
551.203	18613.82
551.408	18853.43
551.614	18130.5
551.819	18421.31
552.025	18957.88
552.23	19113.52
552.435	18406.97
552.641	18808.37
552.846	18775.61
553.052	19340.85
553.257	18558.52
553.462	18851.38
553.668	18517.56
553.873	19115.57
554.078	18724.41
554.283	18943.54
554.489	19107.38
554.694	19113.52
554.899	18857.53
555.105	19226.16
555.31	19033.65
555.515	19330.61
555.72	19248.69
555.925	19027.51
556.131	19727.91
556.336	19090.99
556.541	18968.12
556.746	19187.25
556.951	19621.42
557.156	19494.44
557.361	19101.23
557.567	19619.37
557.772	19777.06
557.977	19662.38
558.182	19297.84
558.387	19263.02
558.592	19359.28
558.797	19975.72
559.002	19527.21
559.207	19867.17
559.412	19637.8
559.617	20186.66
559.822	19777.06
560.027	19310.13
560.232	19998.24
560.437	19895.85
560.642	19310.13
560.847	19541.55
561.051	20270.62
561.256	19969.57
561.461	19625.51
561.666	19732.01
561.871	20063.78
562.076	19932.71
562.281	20137.51
562.485	19779.11
562.69	20104.74
562.895	20194.85
563.1	19918.37
563.305	20026.92
563.509	20559.39
563.714	21050.9
563.919	19973.67
564.123	19990.05
564.328	20151.84
564.533	20479.52
564.737	19951.14
564.942	20051.49
565.147	20620.83
565.351	21284.37
565.556	20094.5
565.761	20172.32
565.965	20487.71
566.17	20164.13
566.374	20164.13
566.579	20131.36
566.784	20637.21
566.988	20848.15
567.193	20364.83
567.397	20430.37
567.602	20555.29
567.806	20555.29
568.011	20618.78
568.215	20817.43
568.42	20592.16
568.624	20811.29
568.828	20469.28
569.033	20561.44
569.237	21120.53
569.442	21339.66
569.646	20450.85
569.85	20850.2
570.055	20971.03
570.259	21118.48
570.463	21095.96
570.668	20719.13
570.872	21005.84
571.076	21216.79
571.281	21042.71
571.485	21255.7
571.689	21265.94
571.893	21603.85
572.098	20893.21
572.302	21147.15
572.506	21519.88
572.71	21022.23
572.914	20930.07
573.119	20878.87
573.323	21712.39
573.527	21650.95
573.731	21229.07
573.935	21452.3
574.139	21440.01
574.343	21308.94
574.547	21204.5
574.751	21409.29
574.955	21790.22
575.159	21835.27
575.364	21304.85
575.568	21464.59
575.772	21550.6
575.976	22210.05
576.18	21505.55
576.383	21728.78
576.587	22171.14
576.791	21954.05
576.995	21382.67
577.199	21470.73
577.403	22308.35
577.607	22263.3
577.811	21888.52
578.015	21861.9
578.219	22427.14
578.422	22029.83
578.626	22103.56
578.83	21876.23
579.034	22459.9
579.238	22373.89
579.442	22298.11
579.645	22466.05
579.849	22267.39
580.053	22398.46
580.257	22154.76
580.46	22142.47
580.664	22881.78
580.868	22486.53
581.071	22244.87
581.275	22373.89
581.479	22246.91
581.682	23078.39
581.886	21990.92
582.09	22476.29
582.293	22836.73
582.497	22871.54
582.7	22390.27
582.904	22621.69
583.107	22736.38
583.311	22568.44
583.515	22715.9
583.718	22627.84
583.922	23231.99
584.125	23182.84
584.329	22275.59
584.532	22879.74
584.735	23244.27
584.939	23172.6
585.142	22533.63
585.346	22619.64
585.549	22908.41
585.753	22994.42
585.956	22857.21
586.159	23223.79
586.363	23852.52
586.566	23799.27
586.769	22793.72
586.973	22969.85
587.176	23379.44
587.379	23733.74
587.582	23463.41
587.786	23334.39
587.989	23786.99
588.192	24155.62
588.395	23440.88
588.599	23377.39
588.802	23887.34
589.005	23883.24
589.208	23467.5
589.411	23340.53
589.615	23784.94
589.818	24344.03
590.021	23662.06
590.224	23545.33
590.427	23967.21
590.63	24126.95
590.833	23449.07
591.036	23858.67
591.239	23854.57
591.442	23559.66
591.645	24096.23
591.848	23811.56
592.051	24061.41
592.254	24198.63
592.457	24137.19
592.66	23999.98
592.863	23936.49
593.066	24489.44
593.269	23993.83
593.472	24194.53
593.675	24145.38
593.878	24419.81
594.081	24366.56
594.284	23981.54
594.486	24798.68
594.689	24442.34
594.892	24210.92
595.095	24229.35
595.298	24774.11
595.5	24348.13
595.703	24778.2
595.906	24341.99
596.109	25011.67
596.311	25351.63
596.514	23965.16
596.717	24786.4
596.92	25060.82
597.122	24794.59
597.325	24401.38
597.528	24653.28
597.73	25433.55
597.933	25146.84
598.136	25091.54
598.338	24724.96
598.541	25224.66
598.743	25458.13
598.946	24698.33
599.148	24907.23
599.351	25265.62
599.554	25685.45
599.756	24886.75
599.959	25048.54
600.161	25279.96
600.363	25728.46
600.566	25388.5
600.768	25116.12
600.971	25689.55
601.173	25308.63
601.376	25243.09
601.578	25097.69
601.78	25572.82
601.983	26138.05
602.185	25263.57
602.388	25372.11
602.59	25597.39
602.792	25482.7
602.995	25591.25
603.197	25462.22
603.399	25769.42
603.601	25597.39
603.804	25198.04
604.006	25652.69
604.208	25466.32
604.41	25206.23
604.613	25626.06
604.815	25286.1
605.017	26066.38
605.219	25621.97
605.421	25904.59
605.623	25384.4
605.826	26269.12
606.028	26160.58
606.23	25601.49
606.432	25384.4
606.634	26572.22
606.836	26209.73
607.038	25343.44
607.24	25626.06
607.442	26088.9
607.644	25640.4
607.846	25710.03
608.048	25927.11
608.25	26105.29
608.452	25728.46
608.654	25841.1
608.856	25013.72
609.058	25982.41
609.26	26156.49
609.462	25882.06
609.664	26365.38
609.866	26119.62
610.067	26635.71
610.269	26283.46
610.471	25642.45
610.673	26219.97
610.875	26430.91
611.077	25816.52
611.278	26101.19
611.48	26418.63
611.682	26602.94
611.884	26322.37
612.085	26015.18
612.287	26037.7
612.489	26277.32
612.69	25916.87
612.892	26359.24
613.094	26623.42
613.295	26451.39
613.497	26299.84
613.699	25890.25
613.9	26582.46
614.102	26656.19
614.304	26113.48
614.505	25865.67
614.707	26455.49
614.908	26297.8
615.11	25992.65
615.311	26105.29
615.513	26189.25
615.714	26783.16
615.916	25841.1
616.117	26060.23
616.319	26183.11
616.52	26332.61
616.722	26107.33
616.923	26230.21
617.124	26607.04
617.326	26586.56
617.527	26320.32
617.729	26291.65
617.93	26510.78
618.131	26770.88
618.333	26080.71
618.534	26555.84
618.735	26455.49
618.937	26990.01
619.138	26377.67
619.339	26224.07
619.54	26748.35
619.742	26666.43
619.943	26318.28
620.144	26367.43
620.345	26396.1
620.546	26852.8
620.748	26484.16
620.949	26453.44
621.15	26639.81
621.351	26686.91
621.552	26119.62
621.753	26189.25
621.954	26410.43
622.155	26805.69
622.356	26359.24
622.558	26719.68
622.759	26713.53
622.96	26742.21
623.161	26365.38
623.362	26308.04
623.563	26551.74
623.764	26480.07
623.965	26361.28
624.166	26973.63
624.366	26672.57
624.567	26979.77
624.768	26324.42
624.969	26344.9
625.17	26697.15
625.371	27051.45
625.572	26297.8
625.773	26541.5
625.973	26860.99
626.174	27135.42
626.375	26441.15
626.576	26185.16
626.777	27180.47
626.977	27372.98
627.178	26871.23
627.379	26723.77
627.58	26766.78
627.78	26754.49
627.981	26547.65
628.182	26848.7
628.382	27235.77
628.583	26869.18
628.784	26496.45
628.984	26387.91
629.185	26932.67
629.386	26977.72
629.586	27137.46
629.787	26537.41
629.987	26987.96
630.188	27123.13
630.388	26910.14
630.589	26738.11
630.79	27700.65
630.99	27311.54
631.191	26834.36
631.391	27295.16
631.591	27024.82
631.792	27612.59
631.992	27284.92
632.193	27119.03
632.393	27588.02
632.594	27112.89
632.794	26838.46
632.994	27104.7
633.195	27342.26
633.395	27295.16
633.595	26854.84
633.796	26932.67
633.996	27196.85
634.196	27581.87
634.397	27217.33
634.597	27483.57
634.797	27116.98
634.997	27655.6
635.198	27104.7
635.398	27086.26
635.598	27678.13
635.798	27794.86
635.998	27413.94
636.199	27178.42
636.399	27352.5
636.599	27133.37
636.799	27139.51
636.999	27061.69
637.199	27887.02
637.399	27796.91
637.599	27262.39
637.799	27207.09
637.999	27530.67
638.199	28007.85
638.399	27147.7
638.599	27428.27
638.799	27698.61
638.999	27966.89
639.199	27608.5
639.399	27764.14
639.599	28290.47
639.799	27487.67
639.999	27317.68
640.199	27284.92
640.399	27997.61
640.599	27094.46
640.799	27811.24
640.998	27678.13
641.198	28251.56
641.398	27917.74
641.598	27698.61
641.798	27633.07
641.997	28671.39
642.197	27827.63
642.397	27813.29
642.597	27694.51
642.796	28257.7
642.996	28212.65
643.196	27774.38
643.395	27272.63
643.595	27964.84
643.795	27690.41
643.994	27545.01
644.194	27700.65
644.394	28173.74
644.593	28059.05
644.793	27616.69
644.992	27956.65
645.192	28188.07
645.392	27528.63
645.591	28171.69
645.791	27897.26
645.99	28421.54
646.19	28063.15
646.389	28267.94
646.589	28083.62
646.788	28503.46
646.987	28237.22
647.187	28339.62
647.386	28235.17
647.586	28429.73
647.785	28435.88
647.984	28081.58
648.184	27956.65
648.383	28226.98
648.582	27923.88
648.782	28030.38
648.981	28597.66
649.18	28278.18
649.38	28691.87
649.579	28124.58
649.778	28097.96
649.977	28738.97
650.177	28558.75
650.376	28333.48
650.575	27862.44
650.774	29052.31
650.973	28257.7
651.173	27899.31
651.372	28333.48
651.571	28618.14
651.77	28521.89
651.969	28616.1
652.168	28097.96
652.367	27866.54
652.566	28587.43
652.765	28906.91
652.964	28394.92
653.163	28833.18
653.362	28675.49
653.561	28208.55
653.76	28173.74
653.959	28476.83
654.158	28755.36
654.357	28761.5
654.556	28399.01
654.755	28972.44
654.954	29037.98
655.153	28427.68
655.352	28577.19
655.551	28941.72
655.749	28550.56
655.948	28394.92
656.147	28804.51
656.346	28976.54
656.545	28708.26
656.743	28562.85
656.942	28581.28
657.141	28982.68
657.34	28530.08
657.538	28857.76
657.737	28943.77
657.936	28816.8
658.135	28974.49
658.333	28411.3
658.532	28724.64
658.731	29447.57
658.929	29134.23
659.128	28677.54
659.326	28847.52
659.525	29197.72
659.724	28882.33
659.922	28308.9
660.121	28505.51
660.319	29058.46
660.518	28937.63
660.716	28618.14
660.915	28587.43
661.113	29343.13
661.312	28362.15
661.51	28929.44
661.709	28704.16
661.907	29169.05
662.105	29068.7
662.304	29017.5
662.502	28851.61
662.701	29543.83
662.899	28583.33
663.097	29275.54
663.296	28487.07
663.494	29545.87
663.692	29197.72
663.891	29068.7
664.089	28480.93
664.287	29275.54
664.485	29132.18
664.684	28784.03
664.882	28870.04
665.08	28890.52
665.278	29420.95
665.476	28480.93
665.675	29068.7
665.873	29781.39
666.071	29447.57
666.269	29089.18
666.467	28849.57
666.665	29246.87
666.863	29113.75
667.061	28794.27
667.259	28765.6
667.457	29130.14
667.655	28894.62
667.853	28769.69
668.051	28650.91
668.249	28364.2
668.447	29054.36
668.645	28476.83
668.843	29246.87
669.041	29242.78
669.239	28806.56
669.437	28718.5
669.635	29334.93
669.833	28779.93
670.031	29322.65
670.229	28636.58
670.426	28925.34
670.624	28888.48
670.822	28677.54
671.02	28669.34
671.218	28829.09
671.415	28558.75
671.613	28935.58
671.811	28646.82
672.009	28560.8
672.206	29320.6
672.404	28855.71
672.602	28777.89
672.799	28851.61
672.997	29205.91
673.195	29386.13
673.392	29064.6
673.59	28597.66
673.788	28800.41
673.985	28018.09
674.183	28665.25
674.38	28648.86
674.578	29296.02
674.775	28626.34
674.973	28423.59
675.17	28421.54
675.368	29201.82
675.565	28974.49
675.763	28652.96
675.96	28155.3
676.158	28845.47
676.355	28386.72
676.553	28693.92
676.75	28474.79
676.947	28640.67
677.145	28630.43
677.342	28530.08
677.539	28212.65
677.737	28708.26
677.934	28831.13
678.131	28808.61
678.329	28464.55
678.526	29162.9
678.723	28775.84
678.92	28917.15
679.118	28323.24
679.315	28331.43
679.512	28988.83
679.709	28214.69
679.906	28540.32
680.104	28781.98
680.301	28646.82
680.498	28255.65
680.695	28286.37
680.892	28147.11
681.089	28458.4
681.286	28403.11
681.483	27880.88
681.68	28476.83
681.877	28452.26
682.075	28009.9
682.272	28456.36
682.469	28218.79
682.665	28157.35
682.862	27932.08
683.059	28044.71
683.256	28513.7
683.453	28530.08
683.65	28083.62
683.847	28124.58
684.044	28251.56
684.241	27598.26
684.438	28691.87
684.635	27915.69
684.831	28556.71
685.028	28722.59
685.225	27907.5
685.422	27633.07
685.619	27790.77
685.815	28349.86
686.012	28157.35
686.209	27581.87
686.405	28028.33
686.602	28313
686.799	27456.95
686.996	27997.61
687.192	27536.82
687.389	28435.88
687.586	27465.14
687.782	27798.96
687.979	28419.49
688.175	28183.98
688.372	27815.34
688.568	27614.64
688.765	27475.38
688.962	27868.59
689.158	27850.16
689.355	27415.99
689.551	28147.11
689.748	27383.22
689.944	27602.35
690.14	27491.76
690.337	27696.56
690.533	27848.11
690.73	27489.71
690.926	27669.94
691.123	27649.46
691.319	28036.52
691.515	27727.28
691.712	27477.43
691.908	27637.17
692.104	27577.78
692.301	27522.48
692.497	27172.28
692.693	28050.86
692.889	27641.26
693.086	27276.73
693.282	27129.27
693.478	27438.51
693.674	28120.49
693.87	27313.59
694.067	27149.75
694.263	27559.34
694.459	27407.8
694.655	27266.49
694.851	27336.12
695.047	27305.4
695.243	27518.39
695.439	27362.74
695.635	27377.08
695.831	27819.44
696.027	27430.32
696.224	26916.28
696.42	27639.22
696.615	28036.52
696.811	27508.15
697.007	27155.89
697.203	27012.54
697.399	26990.01
697.595	27874.73
697.791	27047.35
697.987	27184.57
698.183	27078.07
698.379	26848.7
698.575	27266.49
698.77	27315.64
698.966	27426.23
699.162	27225.53
699.358	26994.11
699.554	26860.99
699.749	27497.91
699.945	27282.87
700.141	26574.27
700.337	26437.06
700.532	26764.73
700.728	26844.6
700.924	26490.31
701.119	26623.42
701.315	26609.09
701.511	26981.82
701.706	27045.3
701.902	26527.17
702.097	26871.23
702.293	27172.28
702.489	26738.11
702.684	27135.42
702.88	26869.18
703.075	26617.28
703.271	26664.38
703.466	26645.95
703.662	26756.54
703.857	27248.05
704.053	27010.49
704.248	26547.65
704.443	26994.11
704.639	26750.4
704.834	27016.63
705.03	26922.43
705.225	27108.79
705.42	27139.51
705.616	27020.73
705.811	26119.62
706.006	26482.11
706.202	26774.97
706.397	26502.59
706.592	26404.29
706.787	26328.52
706.983	26461.63
707.178	27110.84
707.373	26381.76
707.568	26858.94
707.763	26521.02
707.959	26404.29
708.154	26394.05
708.349	26480.07
708.544	26809.79
708.739	26484.16
708.934	26269.12
709.129	26637.76
709.324	26832.32
709.519	26400.19
709.714	26539.46
709.909	27219.38
710.104	26422.72
710.299	26293.7
710.494	26271.17
710.689	26656.19
710.884	26387.91
711.079	26400.19
711.274	26201.54
711.469	26598.85
711.664	26258.88
711.859	26189.25
712.054	26377.67
712.249	26443.2
712.443	26652.09
712.638	25984.46
712.833	26080.71
713.028	26475.97
713.223	25818.57
713.417	26127.81
713.612	26090.95
713.807	26490.31
714.002	26809.79
714.196	26049.99
714.391	26033.61
714.586	26402.24
714.78	26447.3
714.975	25955.79
715.17	26136.01
715.364	26123.72
715.559	26559.94
715.754	25558.48
715.948	26045.9
716.143	26166.73
716.337	26066.38
716.532	26090.95
716.726	25851.34
716.921	26275.27
717.115	26688.96
717.31	25601.49
717.504	26346.95
717.699	26013.13
717.893	26105.29
718.088	25404.88
718.282	25480.66
718.476	26068.42
718.671	25603.53
718.865	25384.4
719.059	25599.44
719.254	25941.45
719.448	26076.62
719.642	25884.11
719.837	25261.52
720.031	26088.9
720.225	26113.48
720.419	25531.86
720.614	25257.43
720.808	25583.05
721.002	25607.63
721.196	25353.68
721.39	25402.83
721.585	25888.2
721.779	25681.36
721.973	25150.93
722.167	25253.33
722.361	25417.17
722.555	25642.45
722.749	25146.84
722.943	25359.83
723.137	25105.88
723.331	25425.36
723.525	25169.37
723.719	25026.01
723.913	25359.83
724.107	25511.38
724.301	24808.92
724.495	25222.61
724.689	25560.53
724.883	25435.6
725.077	24907.23
725.271	25009.62
725.465	25425.36
725.659	25368.02
725.853	25050.58
726.046	25103.83
726.24	24708.57
726.434	25265.62
726.628	25241.04
726.822	25171.41
727.015	25763.28
727.209	25392.59
727.403	25310.68
727.596	24856.03
727.79	25513.42
727.984	25411.03
728.177	24888.79
728.371	25275.86
728.565	25345.49
728.758	25064.92
728.952	24849.88
729.146	24890.84
729.339	25433.55
729.533	25046.49
729.726	24831.45
729.92	25015.77
730.113	25505.23
730.307	25306.58
730.5	24653.28
730.694	24567.26
730.887	24915.42
731.081	25562.58
731.274	24815.07
731.468	24591.84
731.661	24620.51
731.854	25071.06
732.048	24985.05
732.241	24436.19
732.435	24872.41
732.628	25142.74
732.821	25013.72
733.014	24831.45
733.208	24706.52
733.401	25398.74
733.594	24552.93
733.788	24825.31
733.981	25292.24
734.174	25085.4
734.367	24706.52
734.56	24856.03
734.754	25017.82
734.947	25060.82
735.14	24974.81
735.333	24595.93
735.526	25271.76
735.719	24802.78
735.912	24550.88
736.105	24952.28
736.298	25257.43
736.491	24554.97
736.684	24407.52
736.877	24878.55
737.07	25343.44
737.263	25372.11
737.456	24552.93
737.649	24712.67
737.842	24792.54
738.035	24958.42
738.228	24647.13
738.421	24927.7
738.614	25222.61
738.807	25073.11
739	24501.73
739.192	24329.7
739.385	24583.65
739.578	24884.7
739.771	24653.28
739.964	24718.81
740.156	24634.85
740.349	24344.03
740.542	24516.06
740.735	24137.19
740.927	24174.05
741.12	24212.96
741.313	24192.48
741.505	24554.97
741.698	24419.81
741.891	24624.61
742.083	24614.37
742.276	24030.69
742.468	24710.62
742.661	24550.88
742.854	24286.69
743.046	24167.91
743.239	24796.63
743.431	24546.78
743.624	23918.06
743.816	24141.28
744.009	24477.15
744.201	24456.67
744.393	24145.38
744.586	24319.46
744.778	24974.81
744.971	24096.23
745.163	24133.09
745.355	24206.82
745.548	24206.82
745.74	24051.17
745.932	24227.3
746.125	24401.38
746.317	25089.49
746.509	24081.89
746.702	23799.27
746.894	24225.25
747.086	24456.67
747.278	24755.68
747.471	24243.68
747.663	24237.54
747.855	24223.2
748.047	24706.52
748.239	24061.41
748.431	24073.7
748.623	24720.86
748.815	24485.34
749.008	24014.31
749.2	24034.79
749.392	24243.68
749.584	24372.71
749.776	24073.7
749.968	24313.31
750.16	24800.73
750.352	24161.76
750.544	23834.09
750.736	23776.75
750.928	24264.16
751.12	24083.94
751.311	23557.61
751.503	24049.13
751.695	24681.95
751.887	23797.23
752.079	23543.28
752.271	23748.07
752.463	24978.9
752.654	24294.88
752.846	23866.86
753.038	23936.49
753.23	23592.43
753.421	24112.61
753.613	23692.78
753.805	24020.45
753.997	24387.04
754.188	24083.94
754.38	23404.02
754.572	23684.59
754.763	23875.05
754.955	23637.48
755.146	23569.9
755.338	23545.33
755.53	23492.08
755.721	23444.98
755.913	23176.69
756.104	23279.09
756.296	23625.2
756.487	23961.06
756.679	23168.5
756.87	23084.53
757.062	23262.71
757.253	23770.6
757.445	23358.96
757.636	23463.41
757.827	23637.48
758.019	24212.96
758.21	23039.48
758.401	23191.03
758.593	23793.13
758.784	23604.72
758.975	22765.05
759.167	22885.88
759.358	23428.59
759.549	23526.89
759.74	22863.35
759.932	23031.29
760.123	23395.82
760.314	23129.59
760.505	22930.94
760.696	22863.35
760.888	23528.94
761.079	22619.64
761.27	22629.88
761.461	22707.71
761.652	23647.72
761.843	22873.59
762.034	22914.55
762.225	22660.6
762.416	22992.37
762.607	22545.92
762.798	22586.88
762.989	22644.22
763.18	23447.02
763.371	22554.11
763.562	22316.54
763.753	22558.21
763.944	22636.03
764.135	22908.41
764.326	22408.7
764.517	22380.03
764.708	22730.23
764.899	22580.73
765.089	22011.4
765.28	21915.14
765.471	22633.98
765.662	22279.68
765.853	22007.3
766.043	21773.83
766.234	22734.33
766.425	22146.56
766.615	22216.19
766.806	22193.67
766.997	22390.27
767.187	22005.25
767.378	22029.83
767.569	21632.52
767.759	22275.59
767.95	22607.36
768.141	22019.59
768.331	21876.23
768.522	21976.58
768.712	22210.05
768.903	21779.98
769.093	21833.22
769.284	22304.26
769.474	22097.41
769.665	21298.7
769.855	21345.81
770.046	21833.22
770.236	21849.61
770.426	21792.26
770.617	21241.36
770.807	21683.72
770.998	21550.6
771.188	21474.83
771.378	21157.39
771.569	21822.98
771.759	21491.21
771.949	20831.77
772.139	21562.89
772.33	21429.77
772.52	22007.3
772.71	20968.98
772.9	20909.59
773.09	21605.9
773.281	21603.85
773.471	20891.16
773.661	20909.59
773.851	21597.71
774.041	21059.09
774.231	21042.71
774.421	21077.52
774.611	21753.35
774.802	21075.48
774.992	20928.02
775.182	20835.86
775.372	21032.47
775.562	21532.17
775.752	21079.57
775.942	20778.52
776.131	21644.81
776.321	21009.94
776.511	20712.99
776.701	20782.62
776.891	21075.48
777.081	20663.83
777.271	20586.01
777.461	20321.82
777.651	20899.35
777.84	20995.6
778.03	20590.11
778.22	20321.82
778.41	21405.2
778.599	20334.11
778.789	20600.35
778.979	20356.64
779.169	20997.65
779.358	20653.59
779.548	20543
779.738	19983.91
779.927	20528.67
780.117	20088.35
780.307	20454.94
780.496	20074.02
780.686	20405.79
780.875	20487.71
781.065	20200.99
781.254	20352.54
781.444	20407.84
781.633	20346.4
781.823	20108.83
782.012	19760.68
782.202	19918.37
782.391	20006.44
782.581	19703.34
782.77	20112.93
782.96	20287.01
783.149	19897.89
783.338	19957.28
783.528	19705.38
783.717	20160.03
783.906	20291.1
784.096	19891.75
784.285	19625.51
784.474	19918.37
784.663	19809.83
784.853	19566.12
785.042	19519.02
785.231	20010.53
785.42	20104.74
785.61	19707.43
785.799	19660.33
785.988	19246.64
786.177	19574.31
786.366	19410.48
786.555	19508.78
786.744	19852.84
786.933	19660.33
787.122	19390
787.312	19559.98
787.501	19201.58
787.69	19553.83
787.879	19551.79
788.068	19197.49
788.257	18929.2
788.445	19422.76
788.634	19205.68
788.823	19050.03
789.012	20168.23
789.201	19635.75
789.39	18867.77
789.579	18759.22
789.768	19363.37
789.957	19082.8
790.145	19095.09
790.334	18736.7
790.523	18992.69
790.712	19095.09
790.9	18968.12
791.089	18652.73
791.278	19463.72
791.467	19086.9
791.655	18990.64
791.844	19377.71
792.033	18820.66
792.221	18851.38
792.41	18695.74
792.599	18505.27
792.787	19291.69
792.976	19043.89
793.164	18495.04
793.353	18779.7
793.541	18923.06
793.73	19033.65
793.918	18595.39
794.107	18685.5
794.295	18574.91
794.484	18642.49
794.672	18361.92
794.861	18339.39
795.049	18650.68
795.238	18966.07
795.426	18267.71
795.614	18259.52
795.803	18748.98
795.991	18861.62
796.179	18097.73
796.368	18304.57
796.556	18712.12
796.744	18372.16
796.932	18118.21
797.121	18136.64
797.309	18382.4
797.497	18619.96
797.685	18361.92
797.874	18501.18
798.062	18257.47
798.25	18554.43
798.438	18185.79
798.626	18067.01
798.814	18609.72
799.002	18925.11
799.19	18163.26
799.378	18353.73
799.566	18716.22
799.755	18540.09
799.943	18425.4
800.131	17870.4
800.318	18630.2
800.506	18839.09
800.694	18302.53
800.882	18230.85
801.07	18902.58
801.258	18636.34
801.446	18128.45
801.634	18052.67
801.822	18386.49
802.01	18259.52
802.197	18226.75
802.385	18179.65
802.573	18624.06
802.761	18390.59
802.949	18220.61
803.136	18320.96
803.324	18916.92
803.512	18372.16
803.699	18413.12
803.887	18327.1
804.075	18912.82
804.262	18476.6
804.45	18083.39
804.638	18359.87
804.825	18517.56
805.013	18400.83
805.201	18363.97
805.388	18058.82
805.576	18511.42
805.763	19131.95
805.951	18466.36
806.138	18419.26
806.326	18742.84
806.513	18560.57
806.701	18415.16
806.888	18077.25
807.075	18638.39
807.263	19131.95
807.45	18267.71
807.638	18415.16
807.825	19011.12
808.012	18933.3
808.2	18748.98
808.387	18867.77
808.574	18830.9
808.761	19047.99
808.949	18517.56
809.136	18857.53
809.323	18886.2
809.51	18816.57
809.698	18654.78
809.885	18603.58
810.072	18695.74
810.259	19002.93
810.446	18335.29
810.633	18515.51
810.82	19156.53
811.008	19138.1
811.195	18759.22
811.382	18677.3
811.569	19045.94
811.756	18579
811.943	18871.86
812.13	18423.36
812.317	18501.18
812.504	18873.91
812.691	18241.09
812.878	18816.57
813.064	19271.22
813.251	18978.36
813.438	18335.29
813.625	18611.77
813.812	18728.5
813.999	18789.94
814.186	18689.59
814.372	18583.1
814.559	18619.96
814.746	18906.68
814.933	18320.96
815.12	18925.11
815.306	18759.22
815.493	18576.95
815.68	18816.57
815.866	18671.16
816.053	18955.83
816.24	19537.45
816.426	18912.82
816.613	18433.6
816.799	19113.52
816.986	19193.39
817.173	18562.62
817.359	18134.59
817.546	18933.3
817.732	18396.73
817.919	18239.04
818.105	18646.58
818.292	18800.18
818.478	18906.68
818.665	18599.48
818.851	18271.81
819.037	19433
819.224	18597.43
819.41	18300.48
819.597	18531.9
819.783	18937.4
819.969	18839.09
820.156	18654.78
820.342	18388.54
820.528	19193.39
820.714	18552.38
820.901	18329.15
821.087	18269.76
821.273	18837.05
821.459	18380.35
821.646	18226.75
821.832	18284.09
822.018	18605.63
822.204	18341.44
822.39	18363.97
822.576	18214.46
822.762	18458.17
822.948	18425.4
823.134	18556.47
823.32	18036.29
823.507	18236.99
823.693	18447.93
823.879	18308.67
824.065	17958.47
824.25	18347.58
824.436	18032.19
824.622	18062.91
824.808	17757.77
824.994	18118.21
825.18	18116.16
825.366	17618.5
825.552	17774.15
825.738	17806.92
825.923	18177.6
826.109	18011.71
826.295	17856.07
826.481	18165.31
826.667	18292.29
826.852	17862.21
827.038	17645.13
827.224	18554.43
827.409	18490.94
827.595	17618.5
827.781	17745.48
827.966	18366.01
828.152	18146.88
828.338	17292.88
828.523	17391.18
828.709	17950.28
828.894	18296.38
829.08	17761.86
829.266	17489.48
829.451	17579.59
829.637	17919.56
829.822	17694.28
830.008	17301.07
830.193	17821.25
830.378	18052.67
830.564	17608.26
830.749	17063.5
830.935	17587.78
831.12	17579.59
831.305	17178.19
831.491	17548.87
831.676	17133.14
831.861	17780.29
832.047	17432.14
832.232	16825.94
832.417	17653.32
832.602	17260.11
832.788	17100.37
832.973	16911.96
833.158	17260.11
833.343	17317.45
833.528	17309.26
833.714	17053.27
833.899	17655.37
834.084	17622.6
834.269	17364.56
834.454	17051.22
834.639	17671.75
834.824	17315.41
835.009	17126.99
835.194	17337.93
835.379	17200.72
835.564	17208.91
835.749	16830.04
835.934	17098.32
836.119	17069.65
836.304	16946.77
836.489	16510.55
836.674	16885.33
836.859	17008.21
837.044	17442.38
837.228	16922.2
837.413	16531.03
837.598	17272.4
837.783	16997.97
837.968	16918.1
838.152	16522.84
838.337	16348.76
838.522	17112.66
838.707	17206.86
838.891	16686.68
839.076	16901.72
839.261	17213.01
839.445	16832.08
839.63	16502.36
839.815	17161.81
839.999	16469.59
840.184	16252.51
840.368	16324.19
840.553	17016.4
840.737	16842.32
840.922	16221.79
841.106	16324.19
841.291	16410.2
841.475	16502.36
841.66	16203.36
841.844	16229.98
842.029	17436.24
842.213	16373.34
842.397	16256.61
842.582	15771.24
842.766	16625.24
842.951	16473.69
843.135	16295.52
843.319	16035.42
843.504	16522.84
843.688	16725.59
843.872	16002.66
844.056	16156.25
844.241	16379.48
844.425	16143.97
844.609	16111.2
844.793	15732.33
844.977	16166.49
845.161	16133.73
845.346	15687.27
845.53	15638.12
845.714	16129.63
845.898	16483.93
846.082	15658.6
846.266	15842.92
846.45	16004.71
846.634	16098.91
846.818	15695.46
847.002	15945.31
847.186	16045.66
847.37	15259.24
847.554	15396.46
847.738	15341.16
847.922	15924.83
848.106	16172.64
848.29	15234.67
848.473	15627.88
848.657	15763.04
848.841	15443.56
849.025	15353.45
849.209	15117.93
849.392	15869.54
849.576	15761
849.76	15259.24
849.944	15611.5
850.127	15924.83
850.311	15298.16
850.495	15240.81
850.678	15214.19
850.862	15988.32
851.046	15799.91
851.229	15314.54
851.413	15072.88
851.596	15326.83
851.78	15404.65
851.964	15220.33
852.147	15068.78
852.331	16137.82
852.514	15707.75
852.698	15232.62
852.881	15095.41
853.065	15621.73
853.248	15369.83
853.431	15162.99
853.615	15087.22
853.798	15730.28
853.982	15328.88
854.165	15081.07
854.348	14734.96
854.532	14806.64
854.715	15027.82
854.898	14794.36
855.081	14900.85
855.265	15068.78
855.448	15392.36
855.631	14818.93
855.814	14704.24
855.997	15173.23
856.181	14859.89
856.364	14827.12
856.547	14376.57
856.73	14896.75
856.913	14978.67
857.096	14610.04
857.279	14673.53
857.462	14614.13
857.645	14950
857.828	14675.57
858.011	14423.67
858.194	14458.49
858.377	14931.57
858.56	14214.78
858.743	14296.7
858.926	14112.38
859.109	14589.56
859.292	14175.87
859.475	14179.96
859.658	14831.22
859.841	14671.48
860.023	14077.57
860.206	13889.15
860.389	14333.56
860.572	14659.19
860.755	14216.83
860.937	14089.85
861.12	14392.95
861.303	14220.92
861.486	14050.94
861.668	13913.73
861.851	14515.83
862.034	14546.55
862.216	13909.63
862.399	13735.56
862.581	14270.08
862.764	14601.85
862.947	14200.44
863.129	13741.7
863.312	13735.56
863.494	14222.97
863.677	13893.25
863.859	13385.35
864.042	14239.36
864.224	14173.82
864.406	13782.66
864.589	13190.8
864.771	13973.12
864.954	13612.68
865.136	13645.45
865.318	13399.69
865.501	13909.63
865.683	13213.32
865.865	13467.27
866.048	13604.49
866.23	13702.79
866.412	13721.22
866.594	13330.06
866.777	13637.25
866.959	13692.55
867.141	13491.85
867.323	13891.2
867.505	13713.03
867.687	13569.67
867.869	13584.01
868.052	13303.43
868.234	13303.43
868.416	13567.62
868.598	13745.8
868.78	12998.29
868.962	13323.91
869.144	13823.62
869.326	13686.4
869.508	13119.12
869.69	13098.64
869.872	13270.67
870.054	13801.09
870.236	13274.76
870.417	13323.91
870.599	13213.32
870.781	13850.24
870.963	13411.98
871.145	13086.35
871.327	13072.01
871.508	13393.54
871.69	13153.93
871.872	13131.4
872.054	13506.18
872.235	13319.82
872.417	13297.29
872.599	12947.09
872.78	13700.74
872.962	13536.9
873.144	12916.37
873.325	13215.37
873.507	13866.63
873.689	13293.19
873.87	13127.31
874.052	13579.91
874.233	13332.11
874.415	13667.97
874.596	13180.56
874.778	13180.56
874.959	13223.56
875.141	13285
875.322	13053.58
875.503	12990.1
875.685	13674.12
875.866	12859.03
876.048	12961.42
876.229	13051.53
876.41	13129.36
876.592	13541
876.773	13088.4
876.954	12791.44
877.136	13631.11
877.317	13024.91
877.498	12725.91
877.679	12965.52
877.86	13219.47
878.042	13383.31
878.223	13049.49
878.404	13424.26
878.585	13256.33
878.766	13649.54
878.947	13385.35
879.128	13354.63
879.309	13620.87
879.49	13524.61
879.672	13178.51
879.853	13174.41
880.034	13377.16
880.215	13584.01
880.396	13207.18
880.576	13315.72
880.757	13405.83
880.938	14212.73
881.119	13311.63
881.3	13127.31
881.481	13502.09
881.662	14550.65
881.843	13493.9
882.023	13264.52
882.204	13770.37
882.385	13627.01
882.566	13637.25
882.747	13586.05
882.927	13889.15
883.108	13852.29
883.289	13547.14
883.469	13979.26
883.65	13563.53
883.831	13731.46
884.011	13739.65
884.192	13614.73
884.373	14118.53
884.553	13880.96
884.734	13895.3
884.914	13866.63
885.095	14481.02
885.275	14153.34
885.456	14130.81
885.636	13536.9
885.817	13989.5
885.997	14182.01
886.178	13823.62
886.358	13878.91
886.538	13975.17
886.719	15005.3
886.899	13733.51
887.08	13971.07
887.26	14460.54
887.44	13739.65
887.621	13620.87
887.801	13987.46
887.981	14626.42
888.161	14315.13
888.342	14032.51
888.522	14032.51
888.702	14280.32
888.882	14306.94
889.062	14089.85
889.242	13727.36
889.423	14628.47
889.603	14263.93
889.783	14253.69
889.963	14112.38
890.143	14462.58
890.323	14415.48
890.503	14079.61
890.683	14046.85
890.863	14460.54
891.043	14284.41
891.223	14108.29
891.403	14308.99
891.583	14366.33
891.763	14171.77
891.943	14231.16
892.122	14351.99
892.302	14368.38
892.482	14290.56
892.662	14048.89
892.842	13848.19
893.022	14001.79
893.201	14016.13
893.381	14184.06
893.561	14112.38
893.741	14317.18
893.92	14276.22
894.1	14007.94
894.28	14157.44
894.459	14143.1
894.639	14323.32
894.819	13872.77
894.998	13958.78
895.178	14265.98
895.357	14321.27
895.537	13665.92
895.716	13661.83
895.896	14218.88
896.075	14331.51
896.255	13921.92
896.434	13774.47
896.614	14194.3
896.793	14272.12
896.973	13637.25
897.152	13727.36
897.331	13948.54
897.511	14300.8
897.69	13641.35
897.87	13438.6
898.049	13979.26
898.228	13854.34
898.407	13768.32
898.587	13590.15
898.766	13606.53
898.945	13704.84
899.124	13592.2
899.304	13514.38
899.483	13803.14
899.662	14102.14
899.841	13242
900.02	13309.58
900.199	13708.93
900.378	13557.38
900.557	12951.18
900.737	13285
900.916	13698.69
901.095	13678.21
901.274	13084.3
901.453	12793.49
901.632	13041.29
901.811	13074.06
901.989	13033.1
902.168	12648.08
902.347	13170.32
902.526	12740.24
902.705	12801.68
902.884	12918.42
903.063	13108.88
903.242	13287.05
903.42	12445.34
903.599	12768.91
903.778	13246.09
903.957	13026.96
904.135	12611.22
904.314	12539.54
904.493	12762.77
904.672	12752.53
904.85	12304.03
905.029	12232.35
905.207	12693.14
905.386	13063.82
905.565	12199.58
905.743	12146.33
905.922	12019.36
906.1	12414.62
906.279	11826.85
906.457	11488.93
906.636	12033.69
906.814	11892.38
906.993	11533.99
907.171	11746.98
907.35	12199.58
907.528	12064.41
907.707	11798.18
907.885	11353.77
908.063	11906.72
908.242	11509.41
908.42	11386.54
908.598	11126.44
908.777	11486.89
908.955	11456.17
909.133	11390.63
909.311	11024.05
909.49	11415.21
909.668	11484.84
909.846	11157.16
910.024	10960.56
910.202	11460.26
910.38	11728.55
910.559	11359.91
910.737	11273.9
910.915	11738.79
911.093	12002.97
911.271	11419.3
911.449	11769.51
911.627	11886.24
911.805	12529.3
911.983	11558.56
912.161	11929.25
912.339	12097.18
912.517	12297.88
912.695	11519.65
912.872	11611.81
913.05	11914.91
913.228	12152.48
913.406	11873.95
913.584	11751.07
913.762	12054.17
913.939	12048.03
914.117	11869.86
914.295	11648.68
914.473	12041.89
914.65	12084.89
914.828	11681.44
915.006	11765.41
915.184	11994.78
915.361	12025.5
915.539	11847.33
915.716	11818.66
915.894	11912.86
916.072	12426.9
916.249	11957.92
916.427	11906.72
916.604	11650.72
916.782	11945.63
916.959	11398.82
917.137	11669.16
917.314	12015.26
917.492	12031.65
917.669	11605.67
917.847	11620
918.024	11749.03
918.201	11642.53
918.379	11480.74
918.556	11558.56
918.733	12156.57
918.911	11722.4
919.088	11779.75
919.265	11333.29
919.442	11837.09
919.62	11577
919.797	11421.35
919.974	11058.86
920.151	11441.83
920.328	11273.9
920.506	11304.62
920.683	11415.21
920.86	11298.47
921.037	11339.43
921.214	11384.49
921.391	11329.19
921.568	11593.38
921.745	11148.97
921.922	10925.74
922.099	10942.13
922.276	11595.43
922.453	11417.26
922.63	11097.77
922.807	11224.75
922.984	11124.4
923.161	10925.74
923.338	10993.33
923.514	10813.1
923.691	11333.29
923.868	11312.81
924.045	10917.55
924.222	10772.14
924.399	11058.86
924.575	11124.4
924.752	11022
924.929	10596.02
925.105	10974.89
925.282	10727.09
925.459	10448.57
925.635	10565.3
925.812	10632.88
925.989	10401.46
926.165	10485.43
926.342	10290.87
926.518	10589.88
926.695	10704.56
926.871	10444.47
927.048	10139.32
927.224	10712.75
927.401	10370.74
927.577	10426.04
927.754	9854.65
927.93	10694.32
928.107	10727.09
928.283	10290.87
928.459	10190.52
928.636	10489.53
928.812	10233.53
928.988	10159.8
929.165	9727.68
929.341	10239.67
929.517	10331.83
929.693	10258.1
929.87	9594.56
930.046	10391.22
930.222	10075.84
930.398	9670.34
930.574	9758.4
930.751	9977.53
930.927	9901.76
931.103	9594.56
931.279	9606.85
931.455	9522.88
931.631	9733.82
931.807	9219.78
931.983	9334.47
932.159	9301.7
932.335	9643.71
932.511	9373.38
932.687	9422.53
932.863	9785.02
933.039	9293.51
933.215	8980.17
933.391	9010.89
933.566	9264.84
933.742	9164.49
933.918	8949.45
934.094	8496.85
934.27	9068.23
934.445	9066.19
934.621	8632.02
934.797	8421.08
934.973	8896.21
935.148	8691.41
935.324	8244.95
935.5	7984.86
935.675	8474.32
935.851	8353.49
936.027	7993.05
936.202	7913.18
936.378	8128.22
936.553	7952.09
936.729	7999.2
936.904	7405.28
937.08	7395.04
937.255	7233.25
937.431	6936.3
937.606	6950.64
937.782	7206.63
937.957	7061.23
938.133	6866.67
938.308	6643.44
938.483	6758.13
938.659	6575.86
938.834	6735.6
939.009	6242.04
939.185	6516.47
939.36	6375.16
939.535	5789.44
939.71	6229.75
939.886	6334.2
940.061	6233.85
940.236	6141.69
940.411	5781.25
940.586	6113.02
940.761	6074.1
940.937	5656.32
941.112	5545.73
941.287	5857.02
941.462	5877.5
941.637	5330.69
941.812	5281.54
941.987	5695.23
942.162	5549.82
942.337	5361.41
942.512	5424.9
942.687	5617.41
942.862	5725.95
943.037	4830.99
943.212	4974.35
943.386	5336.84
943.561	5447.43
943.736	5220.1
943.911	5484.29
944.086	5328.64
944.26	5351.17
944.435	5003.02
944.61	5295.88
944.785	5576.45
944.959	5783.29
945.134	5158.66
945.309	4871.95
945.483	4949.77
945.658	5617.41
945.833	4804.36
946.007	4906.76
946.182	5824.25
946.357	5177.09
946.531	4998.92
946.706	5066.5
946.88	4896.52
947.055	5371.65
947.229	5185.29
947.404	5125.9
947.578	5740.29
947.752	5197.57
947.927	5213.96
948.101	5261.06
948.276	5459.71
948.45	5361.41
948.624	5564.16
948.799	5105.42
948.973	5558.02
949.147	5203.72
949.321	5400.32
949.496	5279.49
949.67	5793.53
949.844	5400.32
950.018	5369.6
950.193	5345.03
950.367	5885.69
950.541	5576.45
950.715	5650.18
950.889	5459.71
951.063	5435.14
951.237	5846.78
951.411	5265.16
951.585	5314.31
951.759	5785.34
951.933	5744.38
952.107	5519.11
952.281	5631.74
952.455	6088.44
952.629	5971.71
952.803	5668.61
952.977	5553.92
953.151	6063.86
953.325	5945.08
953.499	5871.36
953.672	5564.16
953.846	5670.65
954.02	5768.96
954.194	5717.76
954.368	5951.23
954.541	6123.26
954.715	5826.3
954.889	5850.88
955.062	5641.98
955.236	5936.89
955.41	5783.29
955.583	5766.91
955.757	5457.67
955.93	5834.49
956.104	5738.24
956.278	5746.43
956.451	5893.88
956.625	6291.19
956.798	6414.07
956.972	6049.53
957.145	5678.85
957.319	6059.77
957.492	5951.23
957.665	6024.95
957.839	5687.04
958.012	6158.07
958.185	5979.9
958.359	5930.75
958.532	6084.34
958.705	6358.77
958.879	6033.15
959.052	5891.84
959.225	5592.83
959.398	6176.5
959.572	6102.78
959.745	5938.94
959.918	5912.32
960.091	6029.05
960.264	6258.42
960.438	5857.02
960.611	5758.72
960.784	6231.8
960.957	6020.86
961.13	6280.95
961.303	5707.52
961.476	6082.3
961.649	6231.8
961.822	5852.92
961.995	5857.02
962.168	6104.82
962.341	6160.12
962.514	5730.05
962.686	5754.62
962.859	6086.39
963.032	6360.82
963.205	5742.33
963.378	5748.48
963.551	5959.42
963.723	5973.75
963.896	5949.18
964.069	5926.65
964.242	5930.75
964.414	6264.57
964.587	5883.64
964.76	5637.89
964.932	6164.22
965.105	5805.82
965.278	5801.72
965.45	5713.66
965.623	6037.24
965.795	6242.04
965.968	5623.55
966.14	5637.89
966.313	5897.98
966.485	5900.03
966.658	5756.67
966.83	5605.12
967.003	6235.89
967.175	6383.35
967.348	5740.29
967.52	5775.1
967.692	6176.5
967.865	5895.93
968.037	5838.59
968.209	5756.67
968.382	5781.25
968.554	5971.71
968.726	5549.82
968.898	5746.43
969.071	5879.55
969.243	5873.4
969.415	5701.37
969.587	5666.56
969.759	6090.49
969.932	5979.9
970.104	5594.88
970.276	5285.64
970.448	5644.03
970.62	5570.3
970.792	5691.13
970.964	5490.43
971.136	6194.93
971.308	5994.23
971.48	5447.43
971.652	5316.36
971.824	6188.79
971.996	5306.12
972.168	5578.5
972.339	5433.09
972.511	5963.51
972.683	5678.85
972.855	5545.73
973.027	5535.49
973.199	5461.76
973.37	5793.53
973.542	5586.69
973.714	5492.48
973.886	5451.52
974.057	5793.53
974.229	5242.63
974.401	5326.6
974.572	5355.27
974.744	5177.09
974.915	5164.81
975.087	5195.53
975.259	5830.4
975.43	5254.92
975.602	5201.67
975.773	4935.43
975.945	5205.77
976.116	5652.22
976.288	5132.04
976.459	5349.12
976.63	5275.4
976.802	5398.27
976.973	5144.33
977.145	5353.22
977.316	5560.06
977.487	5553.92
977.659	5166.85
977.83	4984.59
978.001	5623.55
978.172	5365.51
978.344	4939.53
978.515	5097.22
978.686	5170.95
978.857	5582.59
979.028	5078.79
979.2	4996.87
979.371	5447.43
979.542	5064.46
979.713	5150.47
979.884	4486.93
980.055	5007.11
980.226	5168.9
980.397	4941.58
980.568	4749.07
980.739	5459.71
980.91	4921.1
981.081	4970.25
981.252	4673.29
981.423	5302.02
981.594	5428.99
981.765	4759.31
981.936	4820.75
982.106	5058.31
982.277	5408.51
982.448	4730.64
982.619	4701.97
982.79	4699.92
982.96	5279.49
983.131	4783.88
983.302	4411.15
983.472	4732.69
983.643	4816.65
983.814	4976.39
983.984	4646.67
984.155	4759.31
984.326	4980.49
984.496	4544.27
984.667	4402.96
984.837	4736.78
985.008	5043.98
985.178	4828.94
985.349	4558.61
985.519	4695.82
985.69	4531.98
985.86	4618
986.031	4259.6
986.201	4640.53
986.371	4783.88
986.542	4319
986.712	4050.71
986.882	4652.81
987.053	4679.44
987.223	4249.36
987.393	4441.87
987.563	4327.19
987.734	4646.67
987.904	4640.53
988.074	4194.07
988.244	4488.98
988.414	4237.08
988.585	4165.4
988.755	4402.96
988.925	4306.71
989.095	4859.66
989.265	3956.5
989.435	4136.73
989.605	4476.69
989.775	4509.46
989.945	4288.28
990.115	3981.08
990.285	4181.78
990.455	4327.19
990.625	4042.52
990.795	3864.35
990.965	4472.59
991.134	3940.12
991.304	3772.19
991.474	3874.59
991.644	4167.45
991.814	4521.74
991.984	3800.86
992.153	3776.28
992.323	4140.82
992.493	4175.64
992.662	3669.79
992.832	3927.83
993.002	3976.98
993.171	4196.12
993.341	3546.91
993.511	3948.31
993.68	4026.14
993.85	4030.23
994.019	3481.38
994.189	3667.74
994.358	3997.46
994.528	3852.06
994.697	3387.17
994.867	3565.34
995.036	4284.18
995.206	3702.56
995.375	3481.38
995.544	3665.69
995.714	3991.32
995.883	3729.18
996.052	3542.82
996.222	3292.96
996.391	4308.76
996.56	3727.13
996.73	3464.99
996.899	3376.93
997.068	4019.99
997.237	3776.28
997.406	3309.35
997.576	3260.2
997.745	3692.32
997.914	3702.56
998.083	3209
998.252	3262.24
998.421	3575.58
998.59	3258.15
998.759	3190.56
998.928	3012.39
999.097	3876.63
999.266	3612.45
999.435	3415.84
999.604	3088.17
999.773	3976.98
999.942	3378.98
1000.111	2963.24
1000.28	3209
1000.448	3219.24
1000.617	3165.99
1000.786	3268.39
1000.955	2903.85
1001.124	3524.38
1001.292	3993.37
1001.461	2922.28
1001.63	2901.8
1001.798	3731.23
1001.967	3557.15
1002.136	2762.54
1002.304	3055.4
1002.473	3333.92
1002.642	3252
1002.81	2883.37
1002.979	2826.03
1003.147	3352.35
1003.316	3778.33
1003.484	2895.66
1003.653	2862.89
1003.821	3477.28
1003.99	3071.78
1004.158	2957.1
1004.327	2893.61
1004.495	3172.13
1004.663	2998.06
1004.832	2809.64
1005	2721.58
1005.168	3133.22
1005.337	3057.45
1005.505	2625.33
1005.673	2887.47
1005.842	3041.06
1006.01	3116.84
1006.178	2561.84
1006.346	2649.9
1006.514	3034.92
1006.683	3192.61
1006.851	2686.76
1007.019	2750.25
1007.187	2852.65
1007.355	2518.83
1007.523	2297.65
1007.691	2496.3
1007.859	2555.69
1008.027	3057.45
1008.195	2563.89
1008.363	2361.14
1008.531	3073.83
1008.699	2723.63
1008.867	2322.23
1009.035	2334.51
1009.203	3063.59
1009.37	2731.82
1009.538	2367.28
1009.706	2823.98
1009.874	2752.3
1010.042	2625.33
1010.209	2109.24
1010.377	2289.46
1010.545	2699.05
1010.713	2535.21
1010.88	2185.01
1011.048	2324.27
1011.216	2453.3
1011.383	3008.3
1011.551	2311.99
1011.718	2256.69
1011.886	2670.38
1012.054	2539.31
1012.221	2236.21
1012.389	2277.17
1012.556	2408.24
1012.724	2948.9
1012.891	2185.01
1013.058	2000.69
1013.226	2561.84
1013.393	2533.17
1013.561	1933.11
1013.728	1871.67
1013.895	2608.94
1014.063	2457.39
1014.23	2012.98
1014.397	2012.98
1014.565	2576.17
1014.732	2244.4
1014.899	2035.51
1015.066	1849.15
1015.233	2367.28
1015.401	2279.22
1015.568	2096.95
1015.735	2101.05
1015.902	2262.83
1016.069	2213.68
1016.236	1945.4
1016.403	1906.49
1016.57	2121.52
1016.737	2449.2
1016.904	2017.08
1017.071	1886.01
1017.238	2051.89
1017.405	2305.84
1017.572	1826.62
1017.739	2043.7
1017.906	2279.22
1018.073	2359.09
1018.24	1662.78
1018.407	1765.18
1018.573	2383.66
1018.74	1904.44
1018.907	1691.45
1019.074	1619.77
1019.241	2225.97
1019.407	2117.43
1019.574	1611.58
1019.741	1630.01
1019.907	2033.46
1020.074	2107.19
1020.241	1484.61
1020.407	1453.89
1020.574	2076.47
1020.74	2139.96
1020.907	1711.93
1021.073	1574.72
1021.24	2369.33
1021.406	2236.21
1021.573	1511.23
1021.739	1623.87
1021.906	2139.96
1022.072	1775.42
1022.239	1556.29
1022.405	1476.41
1022.571	1904.44
1022.738	1632.06
1022.904	1537.85
1023.07	1580.86
1023.237	1881.91
1023.403	2088.76
1023.569	1544
1023.735	1584.96
1023.902	1853.24
1024.068	1879.86
1024.234	1306.43
1024.4	1414.98
1024.566	1916.73
1024.732	1879.86
1024.898	1429.31
1025.065	1331.01
1025.231	2006.84
1025.397	1761.08
1025.563	1353.54
1025.729	1216.32
1025.895	1273.67
1026.061	1531.71
1026.227	1183.56
1026.392	1392.45
1026.558	1906.49
1026.724	1810.23
1026.89	1204.03
1027.056	1345.34
1027.222	1689.4
1027.388	1447.74
1027.553	1296.19
1027.719	1218.37
1027.885	1922.87
1028.051	1736.51
1028.216	1171.27
1028.382	1333.06
1028.548	1791.8
1028.713	1533.76
1028.879	1048.39
1029.045	1267.52
1029.21	1849.15
1029.376	1787.71
1029.541	1195.84
1029.707	1310.53
1029.873	1634.11
1030.038	1806.14
1030.204	1220.42
1030.369	1128.26
1030.534	1779.51
1030.7	1347.39
1030.865	1101.64
1031.031	1083.2
1031.196	1556.29
1031.361	1587.01
1031.527	1148.74
1031.692	943.94
1031.857	1222.47
1032.023	1589.05
1032.188	978.76
1032.353	1126.21
1032.518	1937.21
1032.684	1498.94
1032.849	974.66
1033.014	1152.84
1033.179	1576.77
1033.344	1472.32
1033.509	1091.4
1033.674	1103.68
1033.839	1412.93
1034.004	1638.2
1034.17	1046.34
1034.335	1005.38
1034.5	1236.8
1034.664	1154.88
1034.829	1011.53
1034.994	984.9
1035.159	1511.23
1035.324	1457.98
1035.489	1060.68
1035.654	804.68
1035.819	1636.16
1035.984	1388.35
1036.148	1058.63
1036.313	1036.1
1036.478	1570.62
1036.643	1195.84
1036.807	919.37
1036.972	892.74
1037.137	1570.62
1037.301	1288
1037.466	751.43
1037.631	1042.25
1037.795	1572.67
1037.96	1380.16
1038.124	1066.82
1038.289	753.48
1038.454	1318.72
1038.618	1417.02
1038.783	868.17
1038.947	956.23
1039.111	1335.1
1039.276	1064.77
1039.44	923.46
1039.605	1285.95
1039.769	1036.1
1039.933	1204.03
1040.098	913.22
1040.262	1083.2
1040.426	1275.71
1040.591	1251.14
1040.755	792.39
1040.919	798.54
1041.083	1191.75
1041.248	1007.43
1041.412	667.47
1041.576	716.62
1041.74	1011.53
1041.904	1390.4
1042.068	751.43
1042.232	878.41
1042.397	1324.87
1042.561	1115.97
1042.725	612.17
1042.889	866.12
1043.053	1345.34
1043.217	1238.85
1043.381	874.31
1043.544	577.36
1043.708	1374.02
1043.872	798.54
1044.036	503.63
1044.2	575.31
1044.364	1251.14
1044.528	1447.74
1044.691	3624.73
1044.855	520.01
1045.019	1302.34
1045.183	1136.45
1045.346	673.61
1045.51	585.55
1045.674	1083.2
1045.837	1109.83
1046.001	653.13
1046.165	579.4
1046.328	1525.57
1046.492	1064.77
1046.655	759.63
1046.819	683.85
1046.983	868.17
1047.146	1115.97
1047.31	694.09
1047.473	440.14
1047.636	915.27
1047.8	716.62
1047.963	632.65
1048.127	540.49
1048.29	714.57
