Data from Hydrogel_Ink_Intensity_Test_1_USB4F045381__19__00019.txt Node

Date: Mon Jul 31 10:39:09 EDT 2023
User: mmckonesweet
Spectrometer: USB4F04538
Trigger mode: 4
Integration Time (sec): 9.000000E-1
Scans to average: 1
Electric dark correction enabled: true
Nonlinearity correction enabled: false
Boxcar width: 0
XAxis mode: Wavelengths
Number of Pixels in Spectrum: 3648
>>>>>Begin Spectral Data<<<<<
345.52	-979.78
345.736	-979.78
345.952	-979.78
346.168	-918.34
346.384	-949.06
346.6	-125.78
346.816	-226.13
347.032	-269.14
347.248	246.95
347.464	-197.46
347.68	-93.01
347.896	48.3
348.112	390.31
348.328	-29.52
348.544	-33.62
348.76	15.53
348.975	273.57
349.191	-215.89
349.407	-138.07
349.623	29.87
349.839	-82.77
350.055	-68.44
350.27	152.74
350.486	136.36
350.702	386.21
350.918	310.44
351.133	-185.17
351.349	199.85
351.565	345.25
351.781	-168.79
351.996	74.92
352.212	435.36
352.428	-84.82
352.644	-27.48
352.859	-142.16
353.075	234.66
353.291	-2.9
353.506	-37.72
353.722	-150.36
353.938	-62.29
354.153	507.04
354.369	169.13
354.584	-99.16
354.8	337.06
355.016	-230.23
355.231	-131.92
355.447	5.29
355.662	208.04
355.878	918.68
356.093	-267.09
356.309	85.16
356.524	-181.07
356.74	308.39
356.955	-17.24
357.171	-19.29
357.386	242.85
357.602	-222.03
357.817	-0.85
358.033	-21.33
358.248	468.13
358.464	167.08
358.679	-23.38
358.895	-174.93
359.11	60.59
359.325	386.21
359.541	359.59
359.756	167.08
359.972	-154.45
360.187	138.41
360.402	-39.76
360.618	-90.96
360.833	1053.85
361.048	230.57
361.264	-15.19
361.479	42.15
361.694	50.35
361.909	273.57
362.125	-50
362.34	-23.38
362.555	308.39
362.77	193.7
362.986	-101.2
363.201	-123.73
363.416	316.58
363.631	89.26
363.847	15.53
364.062	-11.09
364.277	298.15
364.492	242.85
364.707	-58.2
364.922	-240.47
365.138	246.95
365.353	394.4
365.568	-142.16
365.783	13.48
365.998	40.11
366.213	679.07
366.428	-93.01
366.643	173.22
366.858	359.59
367.073	296.1
367.288	50.35
367.503	-93.01
367.718	230.57
367.933	504.99
368.148	-142.16
368.363	79.02
368.578	130.22
368.793	533.67
369.008	-39.76
369.223	-15.19
369.438	326.82
369.653	521.38
369.868	-95.06
370.083	-107.35
370.298	234.66
370.513	476.32
370.728	130.22
370.943	40.11
371.157	-23.38
371.372	634.02
371.587	-101.2
371.802	-105.3
372.017	193.7
372.232	517.28
372.446	126.12
372.661	-74.58
372.876	341.16
373.091	353.45
373.306	117.93
373.52	-109.4
373.735	-90.96
373.95	550.05
374.165	15.53
374.379	38.06
374.594	-33.62
374.809	246.95
375.023	181.42
375.238	-23.38
375.453	388.26
375.667	-105.3
375.882	3.24
376.097	1.19
376.311	142.5
376.526	216.23
376.741	-39.76
376.955	283.81
377.17	750.75
377.384	738.46
377.599	54.44
377.813	-88.92
378.028	660.64
378.242	332.97
378.457	91.31
378.672	-56.15
378.886	345.25
379.101	160.94
379.315	-187.22
379.53	122.02
379.744	314.53
379.958	443.56
380.173	140.46
380.387	-82.77
380.602	312.49
380.816	79.02
381.031	-19.29
381.245	150.7
381.459	361.64
381.674	2681.99
381.888	-62.29
382.103	265.38
382.317	44.2
382.531	687.26
382.746	165.03
382.96	21.67
383.174	81.07
383.388	664.74
383.603	275.62
383.817	-13.14
384.031	361.64
384.246	689.31
384.46	292.01
384.674	572.58
384.888	230.57
385.103	343.21
385.317	13.48
385.531	287.91
385.745	554.15
385.959	691.36
386.174	103.59
386.388	66.73
386.602	165.03
386.816	175.27
387.03	238.76
387.244	249
387.458	378.02
387.672	595.11
387.887	68.78
388.101	-21.33
388.315	574.63
388.529	402.6
388.743	226.47
388.957	115.88
389.171	498.85
389.385	23.72
389.599	173.22
389.813	390.31
390.027	402.6
390.241	892.06
390.455	216.23
390.669	271.53
390.883	224.42
391.097	812.19
391.311	339.11
391.525	226.47
391.738	535.71
391.952	400.55
392.166	312.49
392.38	177.32
392.594	605.35
392.808	556.19
393.022	263.33
393.236	277.67
393.449	550.05
393.663	545.95
393.877	165.03
394.091	312.49
394.305	242.85
394.518	224.42
394.732	13.48
394.946	214.18
395.16	738.46
395.373	398.5
395.587	267.43
395.801	255.14
396.015	656.54
396.228	582.82
396.442	169.13
396.656	171.18
396.869	715.94
397.083	830.62
397.297	406.69
397.51	296.1
397.724	795.81
397.938	472.23
398.151	122.02
398.365	167.08
398.578	656.54
398.792	728.22
399.005	519.33
399.219	375.97
399.433	552.1
399.646	674.98
399.86	554.15
400.073	492.71
400.287	734.37
400.5	429.22
400.714	439.46
400.927	429.22
401.141	715.94
401.354	1545.36
401.567	732.32
401.781	255.14
401.994	742.56
402.208	1096.86
402.421	470.18
402.635	404.64
402.848	492.71
403.061	865.44
403.275	578.72
403.488	384.16
403.701	1076.38
403.915	894.11
404.128	586.91
404.341	412.84
404.555	674.98
404.768	562.34
404.981	689.31
405.195	521.38
405.408	992.41
405.621	804
405.834	591.01
406.048	437.41
406.261	988.32
406.474	994.46
406.687	412.84
406.9	636.06
407.114	674.98
407.327	812.19
407.54	375.97
407.753	351.4
407.966	574.63
408.179	855.2
408.392	525.47
408.605	414.88
408.819	894.11
409.032	842.91
409.245	525.47
409.458	760.99
409.671	824.48
409.884	1066.14
410.097	480.42
410.31	717.98
410.523	861.34
410.736	736.42
410.949	709.79
411.162	627.87
411.375	1135.77
411.588	1047.71
411.801	857.25
412.014	625.83
412.227	742.56
412.44	736.42
412.653	697.5
412.865	865.44
413.078	1086.62
413.291	920.73
413.504	568.48
413.717	668.83
413.93	971.93
414.143	765.09
414.356	709.79
414.568	525.47
414.781	1178.78
414.994	982.17
415.207	740.51
415.42	715.94
415.632	1107.1
415.845	1397.91
416.058	552.1
416.271	701.6
416.483	877.73
416.696	1334.42
416.909	650.4
417.121	760.99
417.334	1137.82
417.547	1377.43
417.759	726.18
417.972	691.36
418.185	847.01
418.397	1219.74
418.61	767.13
418.823	752.8
419.035	1299.61
419.248	1000.6
419.46	906.4
419.673	867.49
419.885	1141.91
420.098	910.49
420.311	875.68
420.523	693.41
420.736	1160.34
420.948	1117.34
421.161	867.49
421.373	687.26
421.586	1131.67
421.798	873.63
422.01	713.89
422.223	996.51
422.435	994.46
422.648	1238.17
422.86	902.3
423.073	1029.27
423.285	1297.56
423.497	875.68
423.71	953.5
423.922	855.2
424.134	1342.61
424.347	1533.08
424.559	1184.92
424.771	1229.98
424.984	1143.96
425.196	1262.74
425.408	824.48
425.621	881.82
425.833	1430.68
426.045	1463.44
426.257	965.79
426.47	1131.67
426.682	1418.39
426.894	1455.25
427.106	1090.71
427.318	1168.54
427.531	1186.97
427.743	1485.97
427.955	1176.73
428.167	1596.56
428.379	1414.29
428.591	1389.72
428.804	1279.13
429.016	1119.39
429.228	1234.07
429.44	1567.89
429.652	1442.96
429.864	1029.27
430.076	1418.39
430.288	1393.81
430.5	1250.46
430.712	1346.71
430.924	1735.82
431.136	1402.01
431.348	1141.91
431.56	1240.22
431.772	1453.2
431.984	1461.4
432.196	1299.61
432.408	1375.38
432.62	1340.57
432.832	1647.76
433.044	1582.23
433.256	1516.69
433.468	1774.74
433.679	1334.42
433.891	1295.51
434.103	1598.61
434.315	2034.83
434.527	1719.44
434.739	1526.93
434.95	1590.42
435.162	2024.59
435.374	1410.2
435.586	1483.92
435.798	1447.06
436.009	1571.99
436.221	1660.05
436.433	1432.72
436.645	1557.65
436.856	1647.76
437.068	1918.09
437.28	1436.82
437.491	1918.09
437.703	1963.15
437.915	1868.94
438.126	1690.77
438.338	1916.05
438.55	1819.79
438.761	2045.07
438.973	1746.06
439.184	1713.3
439.396	1813.65
439.608	2030.73
439.819	1592.47
440.031	1752.21
440.242	2098.31
440.454	1979.53
440.665	1811.6
440.877	1948.81
441.088	2153.61
441.3	1885.33
441.511	1703.06
441.723	1703.06
441.934	2028.68
442.146	2024.59
442.357	2008.2
442.569	2043.02
442.78	2106.51
442.991	2413.7
443.203	2100.36
443.414	1840.27
443.626	2294.92
443.837	1969.29
444.048	1948.81
444.26	1832.08
444.471	2274.44
444.682	2286.73
444.894	1764.5
445.105	1692.82
445.316	2411.65
445.528	2360.45
445.739	2075.79
445.95	2223.24
446.161	2213
446.373	2464.9
446.584	2122.89
446.795	1946.76
447.006	2430.09
447.217	2641.03
447.429	1895.57
447.64	2090.12
447.851	2550.92
448.062	2327.69
448.273	1983.63
448.484	2122.89
448.695	2417.8
448.907	2217.1
449.118	2262.15
449.329	2303.11
449.54	2204.81
449.751	2176.14
449.962	2172.04
450.173	2280.58
450.384	2782.34
450.595	2759.81
450.806	2303.11
451.017	2296.97
451.228	2899.07
451.439	2716.8
451.65	2303.11
451.861	2051.21
452.072	2344.07
452.283	2622.59
452.494	2608.26
452.705	2368.65
452.915	2974.85
453.126	2733.18
453.337	2393.22
453.548	2460.81
453.759	3015.8
453.97	3411.06
454.181	2788.48
454.391	2645.12
454.602	2774.14
454.813	2794.62
455.024	2749.57
455.235	2706.56
455.445	2946.17
455.656	2960.51
455.867	2897.02
456.078	2759.81
456.288	2749.57
456.499	3163.26
456.71	2788.48
456.921	2974.85
457.131	3138.68
457.342	3054.72
457.553	2770.05
457.763	2905.21
457.974	3318.9
458.184	3384.44
458.395	2989.18
458.606	2702.47
458.816	3595.38
459.027	3632.24
459.237	3095.68
459.448	3032.19
459.659	3468.41
459.869	3763.31
460.08	3015.8
460.29	3390.58
460.501	3861.62
460.711	3351.67
460.922	3054.72
461.132	3302.52
461.343	3927.15
461.553	3112.06
461.764	3312.76
461.974	3423.35
462.184	3716.21
462.395	3933.29
462.605	3572.85
462.816	3419.25
463.026	3716.21
463.236	3966.06
463.447	3591.28
463.657	3544.18
463.867	3945.58
464.078	3791.98
464.288	3863.66
464.498	3767.41
464.709	4107.37
464.919	3925.1
465.129	3943.53
465.339	3892.34
465.55	4277.35
465.76	4277.35
465.97	3888.24
466.18	3980.4
466.391	4494.44
466.601	4297.83
466.811	4410.47
467.021	4095.08
467.231	4564.07
467.441	4590.69
467.651	4455.53
467.862	3986.54
468.072	4625.51
468.282	5043.29
468.492	4336.74
468.702	4609.12
468.912	4615.27
469.122	5401.69
469.332	4828.26
469.542	4600.93
469.752	5180.51
469.962	5039.2
470.172	4811.87
470.382	5016.67
470.592	5520.47
470.802	5450.84
471.012	5170.27
471.222	5157.98
471.432	5520.47
471.642	5667.92
471.852	5514.33
472.062	5356.63
472.272	5680.21
472.482	5442.65
472.691	5749.84
472.901	5616.72
473.111	5858.39
473.321	6476.87
473.531	5698.64
473.741	5844.05
473.95	6397
474.16	6325.32
474.37	6134.86
474.58	6030.41
474.79	7033.92
474.999	6530.12
475.209	6143.05
475.419	6347.85
475.628	6562.89
475.838	6986.82
476.048	6601.8
476.258	6394.95
476.467	7150.65
476.677	7050.3
476.886	7150.65
477.096	7205.95
477.306	7128.13
477.515	7412.79
477.725	7261.24
477.935	7203.9
478.144	7875.63
478.354	7382.07
478.563	7507
478.773	7400.51
478.982	7818.29
479.192	8197.17
479.401	7863.35
479.611	7472.18
479.82	7851.06
480.03	8318
480.239	7988.27
480.449	8231.98
480.658	8795.17
480.868	8344.62
481.077	8512.55
481.287	8287.28
481.496	8969.25
481.705	8979.49
481.915	8903.71
482.124	8805.41
482.333	8985.63
482.543	9321.5
482.752	8858.66
482.961	8928.29
483.171	9511.96
483.38	9305.12
483.589	9264.16
483.799	9301.02
484.008	9507.87
484.217	9538.59
484.426	9374.75
484.636	9491.48
484.845	9868.31
485.054	9702.42
485.263	10005.52
485.472	9782.29
485.682	10456.08
485.891	10056.72
486.1	9602.07
486.309	10200.08
486.518	10497.03
486.727	10855.43
486.936	10091.54
487.146	10648.58
487.355	11121.66
487.564	10648.58
487.773	10767.37
487.982	10650.63
488.191	10923.01
488.4	10683.4
488.609	11029.51
488.818	11011.07
489.027	11797.49
489.236	11547.64
489.445	11432.96
489.654	11203.58
489.863	11643.9
490.072	11717.62
490.281	11668.47
490.49	11496.44
490.698	12338.16
490.907	12237.81
491.116	11740.15
491.325	11582.46
491.534	12315.63
491.743	12319.73
491.952	12299.25
492.16	12225.52
492.369	12467.18
492.578	12665.83
492.787	12450.8
492.996	12252.14
493.204	12370.93
493.413	13087.71
493.622	12440.56
493.831	12524.52
494.039	13153.25
494.248	12737.51
494.457	12907.49
494.665	12813.29
494.874	13280.22
495.083	13622.23
495.291	13097.95
495.5	13171.68
495.709	13577.18
495.917	13829.08
496.126	13216.74
496.335	13403.1
496.543	13562.84
496.752	13882.33
496.96	13589.47
497.169	13487.07
497.377	14001.11
497.586	14541.77
497.794	14056.4
498.003	13683.67
498.211	14279.63
498.42	14607.31
498.628	13992.92
498.837	14144.47
499.045	14539.72
499.254	14439.37
499.462	14246.87
499.671	14308.3
499.879	14914.5
500.087	15102.92
500.296	14300.11
500.504	14760.91
500.713	15123.4
500.921	15342.53
501.129	14955.46
501.338	14992.33
501.546	14973.89
501.754	15227.84
501.962	14984.13
502.171	14910.41
502.379	15619
502.587	15889.34
502.795	15594.43
503.004	14939.08
503.212	15586.24
503.42	15932.34
503.628	15584.19
503.837	15756.22
504.045	16339.89
504.253	16255.92
504.461	15662.01
504.669	15614.91
504.877	16313.27
505.085	16440.24
505.294	15731.64
505.502	16139.19
505.71	16260.02
505.918	16085.94
506.126	16124.85
506.334	16014.26
506.542	16219.06
506.75	16640.94
506.958	16229.3
507.166	16260.02
507.374	16337.84
507.582	17327.01
507.79	16620.46
507.998	16571.31
508.206	16950.18
508.414	16980.9
508.622	16626.6
508.83	16745.39
509.037	17505.18
509.245	16812.97
509.453	16796.59
509.661	16849.83
509.869	17241
510.077	17142.69
510.285	17410.98
510.492	16767.91
510.7	17998.74
510.908	17503.14
511.116	17138.6
511.324	17114.02
511.531	17634.21
511.739	17806.23
511.947	17611.68
512.155	17826.71
512.362	17656.73
512.57	17728.41
512.778	17505.18
512.985	17531.81
513.193	18226.07
513.401	18174.87
513.608	17959.83
513.816	17808.28
514.024	18023.32
514.231	18420.63
514.439	18156.44
514.646	17968.02
514.854	18494.35
515.061	18674.57
515.269	18051.99
515.477	17916.83
515.684	18318.23
515.892	18727.82
516.099	17955.74
516.307	18340.75
516.514	18856.84
516.722	19166.09
516.929	18549.65
517.136	18592.65
517.344	19213.19
517.551	19059.59
517.759	18688.91
517.966	18832.27
518.173	18721.68
518.381	19080.07
518.588	19209.09
518.796	18746.25
519.003	19368.84
519.21	19504
519.418	19321.73
519.625	19284.87
519.832	19465.09
520.039	19868.54
520.247	19133.32
520.454	19260.29
520.661	20132.73
520.868	19622.78
521.076	19792.76
521.283	19540.86
521.49	20394.87
521.697	19991.42
521.904	19964.79
522.112	19661.69
522.319	20192.12
522.526	20087.67
522.733	19803
522.94	19970.94
523.147	20116.34
523.354	20312.95
523.561	19811.2
523.768	20415.35
523.975	20882.28
524.183	20599.66
524.39	20378.48
524.597	20376.44
524.804	20589.42
525.011	20693.87
525.218	20640.62
525.425	20687.73
525.632	21113.7
525.838	20595.57
526.045	20591.47
526.252	20927.34
526.459	22051.67
526.666	21738.33
526.873	20681.58
527.08	20786.03
527.287	21631.84
527.494	21058.41
527.701	21031.79
527.907	21031.79
528.114	21531.49
528.321	21275.49
528.528	21465.96
528.735	21592.93
528.941	21588.83
529.148	21492.58
529.355	21263.21
529.562	21705.57
529.768	22223.7
529.975	21525.35
530.182	21531.49
530.388	21564.26
530.595	22442.84
530.802	21963.61
531.008	22088.54
531.215	21939.04
531.422	22991.69
531.628	23206.73
531.835	22258.52
532.042	22270.81
532.248	22268.76
532.455	22553.43
532.661	22408.02
532.868	22205.27
533.074	23032.65
533.281	23145.29
533.487	22489.94
533.694	22379.35
533.9	22969.16
534.107	22743.89
534.313	22526.8
534.52	23024.46
534.726	23272.26
534.933	23499.59
535.139	22850.38
535.345	23083.85
535.552	23327.56
535.758	23274.31
535.965	23282.5
536.171	23356.23
536.377	23638.85
536.584	24208.19
536.79	23325.51
536.996	23505.73
537.203	23946.05
537.409	23888.7
537.615	23769.92
537.821	23769.92
538.028	24415.03
538.234	24249.14
538.44	23835.45
538.646	23745.34
538.853	24300.34
539.059	23882.56
539.265	24277.82
539.471	23771.97
539.677	24384.31
539.883	24484.66
540.09	24195.9
540.296	25037.61
540.502	24531.76
540.708	24404.79
540.914	24716.08
541.12	24654.64
541.326	25082.67
541.532	24939.31
541.738	24912.69
541.944	24826.67
542.15	25510.69
542.356	25254.7
542.562	24738.61
542.768	25197.35
542.974	26006.3
543.18	25729.83
543.386	24972.08
543.592	25088.81
543.798	25955.1
544.004	25924.38
544.21	25484.07
544.415	25340.71
544.621	26086.17
544.827	25623.33
545.033	25701.15
545.239	25989.92
545.445	26211.1
545.651	26018.59
545.856	25551.65
546.062	25965.34
546.268	25840.42
546.474	26178.33
546.679	25848.61
546.885	25934.62
547.091	26100.51
547.297	26575.64
547.502	26381.08
547.708	25713.44
547.914	25961.25
548.119	26463
548.325	25856.8
548.531	25584.42
548.736	26876.69
548.942	26233.63
549.147	26086.17
549.353	26561.3
549.559	27368.2
549.764	26716.95
549.97	26221.34
550.175	26256.15
550.381	27101.97
550.586	26192.67
550.792	26708.76
550.997	26518.29
551.203	27071.25
551.408	27054.86
551.614	26858.26
551.819	26721.04
552.025	27601.67
552.23	27726.6
552.435	27122.44
552.641	27609.86
552.846	27648.77
553.052	28056.32
553.257	27380.49
553.462	27638.53
553.668	27509.51
553.873	28093.18
554.078	27431.69
554.283	27812.61
554.489	28134.14
554.694	28078.85
554.899	27730.69
555.105	27691.78
555.31	27976.45
555.515	28359.42
555.72	28185.34
555.925	27626.25
556.131	28721.91
556.336	28207.87
556.541	28103.42
556.746	28111.61
556.951	28793.59
557.156	29000.43
557.361	28115.71
557.567	28590.84
557.772	29033.2
557.977	28928.75
558.182	28453.62
558.387	28689.14
558.592	28734.2
558.797	29080.3
559.002	28504.82
559.207	28873.46
559.412	28953.33
559.617	29643.49
559.822	28644.09
560.027	28537.59
560.232	28895.99
560.437	28871.41
560.642	28545.78
560.847	29068.02
561.051	29178.61
561.256	28861.17
561.461	28848.88
561.666	28941.04
561.871	29348.59
562.076	29444.84
562.281	29395.69
562.485	28783.35
562.69	29618.92
562.895	29197.04
563.1	29063.92
563.305	29342.44
563.509	29795.04
563.714	29844.2
563.919	29498.09
564.123	29143.79
564.328	29752.04
564.533	29782.76
564.737	29469.42
564.942	29207.28
565.147	30309.08
565.351	30386.91
565.556	29831.91
565.761	29666.02
565.965	30198.49
566.17	29743.84
566.374	29606.63
566.579	29577.96
566.784	29754.08
566.988	29948.64
567.193	29881.06
567.397	29987.55
567.602	30137.05
567.806	30036.7
568.011	30073.57
568.215	30227.17
568.42	30110.43
568.624	30485.21
568.828	30055.14
569.033	30593.75
569.237	30509.79
569.442	30886.61
569.646	29836
569.85	30599.9
570.055	30808.79
570.259	30434.01
570.463	30771.93
570.668	30556.89
570.872	30135.01
571.076	30896.85
571.281	30943.95
571.485	30618.33
571.689	30939.86
571.893	31060.69
572.098	30753.49
572.302	30829.27
572.506	31371.98
572.71	31191.76
572.914	30808.79
573.119	31142.61
573.323	31587.02
573.527	31720.13
573.731	31165.14
573.935	31275.73
574.139	31888.07
574.343	31142.61
574.547	31572.68
574.751	31191.76
574.955	31990.47
575.159	31734.47
575.364	31056.59
575.568	31906.5
575.772	31666.89
575.976	32015.04
576.18	30952.15
576.383	31732.42
576.587	32088.77
576.791	32350.91
576.995	31572.68
577.199	31341.26
577.403	32352.96
577.607	32228.03
577.811	32371.39
578.015	31789.77
578.219	32117.44
578.422	32633.53
578.626	32244.41
578.83	32256.7
579.034	32633.53
579.238	32103.1
579.442	32410.3
579.645	32527.03
579.849	32559.8
580.053	32744.12
580.257	32299.71
580.46	32557.75
580.664	32801.46
580.868	32766.65
581.071	32854.71
581.275	32656.06
581.479	32432.83
581.682	32979.64
581.886	32459.45
582.09	32690.87
582.293	33194.67
582.497	33333.93
582.7	33137.33
582.904	33090.23
583.107	33618.6
583.311	33069.75
583.515	32856.76
583.718	32821.94
583.922	33573.55
584.125	33698.47
584.329	33030.83
584.532	33614.51
584.735	33837.73
584.939	33575.59
585.142	33288.88
585.346	33178.29
585.549	33893.03
585.753	33606.31
585.956	33512.11
586.159	33794.73
586.363	34351.77
586.566	34136.74
586.769	33540.78
586.973	33462.96
587.176	34212.51
587.379	34370.21
587.582	34243.23
587.786	34042.53
587.989	34163.36
588.192	34951.83
588.395	34114.21
588.599	34538.14
588.802	34884.25
589.005	34620.06
589.208	34220.7
589.411	34501.28
589.615	34499.23
589.818	35043.99
590.021	34941.59
590.224	34806.42
590.427	35136.15
590.63	35125.91
590.833	34445.98
591.036	34253.47
591.239	35156.63
591.442	34579.1
591.645	34986.64
591.848	35072.66
592.051	35517.07
592.254	35267.22
592.457	35134.1
592.66	34808.47
592.863	35291.79
593.066	35324.56
593.269	35115.67
593.472	35183.25
593.675	34986.64
593.878	35447.44
594.081	35537.55
594.284	35236.5
594.486	35957.38
594.689	35867.27
594.892	35183.25
595.095	35517.07
595.298	35908.23
595.5	35758.73
595.703	36088.45
595.906	35836.55
596.109	36352.64
596.311	36403.84
596.514	35689.1
596.717	35775.11
596.92	36606.59
597.122	36201.09
597.325	35648.14
597.528	35957.38
597.73	36956.79
597.933	36229.76
598.136	36092.55
598.338	35783.3
598.541	36440.7
598.743	36907.64
598.946	36250.24
599.148	36412.03
599.351	37096.05
599.554	37057.14
599.756	36395.65
599.959	36745.85
600.161	36698.75
600.363	37333.62
600.566	36713.08
600.768	36674.17
600.971	36813.43
601.173	36977.27
601.376	36729.47
601.578	36958.84
601.78	37145.2
601.983	37300.85
602.185	36526.72
602.388	36928.12
602.59	37245.55
602.792	37202.55
602.995	37239.41
603.197	37075.57
603.399	37728.87
603.601	37515.89
603.804	36608.64
604.006	37096.05
604.208	36801.15
604.41	37182.07
604.613	37233.27
604.815	37061.24
605.017	38134.37
605.219	37294.71
605.421	36774.52
605.623	37352.05
605.826	38093.41
606.028	37571.18
606.23	37165.68
606.432	37425.78
606.634	38048.36
606.836	37722.73
607.038	37454.45
607.24	37630.57
607.442	38124.13
607.644	37722.73
607.846	37769.83
608.048	37610.09
608.25	38054.5
608.452	37988.97
608.654	37710.44
608.856	37163.64
609.058	37448.3
609.26	37876.33
609.462	37753.45
609.664	37454.45
609.866	38173.28
610.067	38089.32
610.269	37964.39
610.471	37507.69
610.673	38021.73
610.875	38099.56
611.077	37810.79
611.278	37929.58
611.48	37974.63
611.682	38339.17
611.884	37911.14
612.085	37671.53
612.287	38161
612.489	38373.99
612.69	37831.27
612.892	38470.24
613.094	38359.65
613.295	38140.52
613.497	37667.44
613.699	37954.15
613.9	38443.62
614.102	38244.96
614.304	38193.76
614.505	37692.01
614.707	38079.08
614.908	37761.64
615.11	37915.24
615.311	38433.38
615.513	38066.79
615.714	38511.2
615.916	38396.51
616.117	38310.5
616.319	38247.01
616.52	38337.12
616.722	37997.16
616.923	38322.79
617.124	38885.98
617.326	38496.86
617.527	38402.66
617.729	38361.7
617.93	38148.71
618.131	38804.06
618.333	38251.11
618.534	38308.45
618.735	38283.87
618.937	38773.34
619.138	38208.1
619.339	38300.26
619.54	38500.96
619.742	38582.88
619.943	38314.59
620.144	38269.54
620.345	38865.5
620.546	38533.73
620.748	38347.36
620.949	38724.19
621.15	38554.21
621.351	38705.76
621.552	38601.31
621.753	38083.17
621.954	38767.2
622.155	38527.58
622.356	38206.05
622.558	38857.31
622.759	38756.96
622.96	39062.1
623.161	38662.75
623.362	38404.7
623.563	38949.46
623.764	38574.69
623.965	38312.55
624.166	39088.73
624.366	38666.84
624.567	38738.52
624.768	38486.62
624.969	38306.4
625.17	38517.34
625.371	39248.47
625.572	38584.93
625.773	38462.05
625.973	38734.43
626.174	38896.22
626.375	38881.88
626.576	38609.5
626.777	39400.02
626.977	39080.53
627.178	38890.07
627.379	38378.08
627.58	38740.57
627.78	38992.47
627.981	38488.67
628.182	38867.55
628.382	39256.66
628.583	38574.69
628.784	38611.55
628.984	38812.25
629.185	39506.51
629.386	38840.92
629.586	39600.72
629.787	39105.11
629.987	39570
630.188	39207.51
630.388	38888.03
630.589	38957.66
630.79	39828.04
630.99	39502.42
631.191	39135.83
631.391	39428.69
631.591	39207.51
631.792	40055.37
631.992	39090.77
632.193	39721.55
632.393	39926.35
632.594	39252.56
632.794	39215.7
632.994	39238.23
633.195	39565.9
633.395	39639.63
633.595	38822.49
633.796	39547.47
633.996	39486.03
634.196	40096.33
634.397	39406.16
634.597	39699.02
634.797	39715.4
634.997	39807.56
635.198	39625.29
635.398	39287.38
635.598	40153.67
635.798	40329.8
635.998	39563.85
636.199	39526.99
636.399	39498.32
636.599	39539.28
636.799	39701.07
636.999	39561.81
637.199	39922.25
637.399	40065.61
637.599	40000.07
637.799	39131.73
637.999	40020.55
638.199	40356.42
638.399	39979.59
638.599	39658.06
638.799	40417.86
638.999	40888.89
639.199	39938.63
639.399	39959.11
639.599	40849.98
639.799	39875.15
639.999	39830.09
640.199	39838.28
640.399	40462.91
640.599	39559.76
640.799	40372.8
640.998	39979.59
641.198	40405.57
641.398	40419.91
641.598	40401.47
641.798	40215.11
641.997	41214.52
642.197	40401.47
642.397	40479.3
642.597	40530.5
642.796	40282.69
642.996	40878.65
643.196	40389.19
643.395	39809.61
643.595	40579.65
643.795	40360.51
643.994	40380.99
644.194	40428.1
644.394	41067.06
644.593	40608.32
644.793	40432.19
644.992	40788.54
645.192	40542.78
645.392	40354.37
645.591	40557.12
645.791	41146.93
645.99	40782.4
646.19	40864.32
646.389	40776.25
646.589	40911.42
646.788	41171.51
646.987	40968.76
647.187	41310.77
647.386	40888.89
647.586	41142.84
647.785	41284.15
647.984	40927.8
648.184	40989.24
648.383	40989.24
648.582	40819.26
648.782	41114.17
648.981	40897.08
649.18	40823.36
649.38	41017.91
649.579	40745.53
649.778	40985.15
649.977	41503.28
650.177	40972.86
650.376	41157.17
650.575	40696.38
650.774	41499.19
650.973	41048.63
651.173	40976.95
651.372	41114.17
651.571	41404.98
651.77	41701.93
651.969	40983.1
652.168	41114.17
652.367	40946.23
652.566	41505.33
652.765	41081.4
652.964	41513.52
653.163	41726.51
653.362	41595.44
653.561	40895.03
653.76	41654.83
653.959	41374.26
654.158	42037.8
654.357	41587.25
654.556	41323.06
654.755	41792.04
654.954	41943.59
655.153	41355.83
655.352	41605.68
655.551	41843.24
655.749	41708.08
655.948	41351.73
656.147	41378.36
656.346	42367.52
656.545	41949.74
656.743	41224.76
656.942	41398.83
657.141	41763.37
657.34	41675.31
657.538	41611.82
657.737	41278
657.936	42027.56
658.135	41421.36
658.333	41237.05
658.532	41796.14
658.731	42295.85
658.929	42246.69
659.128	41824.81
659.326	41507.38
659.525	42342.95
659.724	41896.49
659.922	41476.66
660.121	41247.29
660.319	41927.21
660.518	41665.07
660.716	41572.91
660.915	41785.9
661.113	42400.29
661.312	41495.09
661.51	41959.98
661.709	41685.55
661.907	41783.85
662.105	42191.4
662.304	42011.18
662.502	41828.91
662.701	42228.26
662.899	41620.02
663.097	42160.68
663.296	41566.77
663.494	42261.03
663.692	42641.95
663.891	41632.3
664.089	41308.72
664.287	41943.59
664.485	42215.97
664.684	41886.25
664.882	41790
665.08	41906.73
665.278	42480.16
665.476	41595.44
665.675	41943.59
665.873	42586.66
666.071	42109.48
666.269	41667.12
666.467	41984.55
666.665	41882.16
666.863	41660.97
667.061	41867.82
667.259	41622.06
667.457	41802.28
667.655	41857.58
667.853	41669.17
668.051	41988.65
668.249	41437.75
668.447	42064.42
668.645	41417.27
668.843	42074.66
669.041	41935.4
669.239	41681.45
669.437	41667.12
669.635	42127.91
669.833	41843.24
670.031	41939.5
670.229	41501.23
670.426	42193.45
670.624	41595.44
670.822	41564.72
671.02	41654.83
671.218	42226.21
671.415	41396.79
671.613	41935.4
671.811	41595.44
672.009	41761.33
672.206	42064.42
672.404	42058.28
672.602	41718.32
672.799	41949.74
672.997	41814.57
673.195	42199.59
673.392	41749.04
673.59	41163.32
673.788	41701.93
673.985	40804.92
674.183	41644.59
674.38	41687.6
674.578	41921.07
674.775	41591.34
674.973	41151.03
675.17	41226.81
675.368	41679.41
675.565	41822.76
675.763	41798.19
675.96	41519.67
676.158	41757.23
676.355	41095.74
676.553	41585.2
676.75	41450.03
676.947	41818.67
677.145	41474.61
677.342	41357.88
677.539	41392.69
677.737	41597.49
677.934	41349.68
678.131	41552.43
678.329	40931.9
678.526	41488.95
678.723	41181.75
678.92	41534
679.118	41036.34
679.315	40935.99
679.512	41419.31
679.709	41179.7
679.906	41124.41
680.104	41857.58
680.301	40880.7
680.498	40933.95
680.695	40802.88
680.892	40788.54
681.089	40819.26
681.286	41417.27
681.483	40172.1
681.68	41288.24
681.877	41286.2
682.075	40884.79
682.272	41153.08
682.469	40884.79
682.665	41189.94
682.862	40139.33
683.059	40477.25
683.256	41079.35
683.453	40991.29
683.65	40481.34
683.847	41464.37
684.044	40862.27
684.241	40811.07
684.438	41243.19
684.635	40086.09
684.831	41413.17
685.028	41091.64
685.225	40542.78
685.422	40251.97
685.619	40608.32
685.815	40372.8
686.012	40458.82
686.209	40073.8
686.405	40522.3
686.602	40985.15
686.799	39840.33
686.996	40313.41
687.192	40317.51
687.389	40825.4
687.586	40206.92
687.782	40747.58
687.979	40725.05
688.175	40575.55
688.372	39897.67
688.568	40417.86
688.765	39924.3
688.962	40911.42
689.158	40008.26
689.355	40108.61
689.551	40208.97
689.748	40256.07
689.944	40112.71
690.14	40041.03
690.337	40415.81
690.533	40225.35
690.73	40065.61
690.926	40081.99
691.123	39938.63
691.319	39887.43
691.515	39737.93
691.712	39944.78
691.908	39598.67
692.104	40272.45
692.301	39701.07
692.497	39262.8
692.693	40270.4
692.889	40098.37
693.086	39717.45
693.282	39408.21
693.478	39555.66
693.674	40321.6
693.87	39991.88
694.067	39780.94
694.263	39723.6
694.459	39682.64
694.655	39625.29
694.851	39666.25
695.047	39752.27
695.243	39942.73
695.439	39682.64
695.635	39608.91
695.831	39633.49
696.027	39623.25
696.224	39248.47
696.42	39508.56
696.615	40032.84
696.811	39840.33
697.007	39088.73
697.203	39490.13
697.399	39457.36
697.595	39342.67
697.791	38976.09
697.987	39582.29
698.183	39096.92
698.379	39141.97
698.575	39144.02
698.77	39076.44
698.966	39592.53
699.162	39479.89
699.358	39080.53
699.554	39008.86
699.749	38998.62
699.945	39445.07
700.141	38904.41
700.337	39150.17
700.532	38951.51
700.728	38621.79
700.924	38990.42
701.119	39182.93
701.315	38804.06
701.511	38949.46
701.706	39051.86
701.902	38447.71
702.097	38859.35
702.293	38851.16
702.489	38550.11
702.684	38820.44
702.88	39055.96
703.075	38732.38
703.271	38400.61
703.466	38644.32
703.662	38748.76
703.857	39230.04
704.053	38613.6
704.248	38916.7
704.443	38924.89
704.639	38593.12
704.834	38515.29
705.03	38853.21
705.225	38822.49
705.42	38779.48
705.616	38425.18
705.811	38451.81
706.006	38683.23
706.202	38642.27
706.397	38152.8
706.592	38404.7
706.787	38533.73
706.983	38386.27
707.178	38959.7
707.373	38349.41
707.568	38482.53
707.763	38693.47
707.959	38535.77
708.154	38161
708.349	38355.55
708.544	38695.52
708.739	38281.83
708.934	37751.4
709.129	38439.52
709.324	38683.23
709.519	38025.83
709.714	37991.01
709.909	38959.7
710.104	38052.45
710.299	37913.19
710.494	38322.79
710.689	38386.27
710.884	38287.97
711.079	38402.66
711.274	38003.3
711.469	38333.03
711.664	38546.01
711.859	38009.45
712.054	38396.51
712.249	38064.74
712.443	38220.39
712.638	37571.18
712.833	37603.95
713.028	38283.87
713.223	38083.17
713.417	38193.76
713.612	37911.14
713.807	38206.05
714.002	38185.57
714.196	38238.82
714.391	37745.26
714.586	37960.3
714.78	38005.35
714.975	37601.9
715.17	37616.24
715.364	37626.48
715.559	38144.61
715.754	37223.03
715.948	37016.18
716.143	38099.56
716.337	37806.7
716.532	38111.85
716.726	37507.69
716.921	37775.98
717.115	38087.27
717.31	37151.35
717.504	37958.25
717.699	37847.66
717.893	37642.86
718.088	37003.89
718.282	37214.83
718.476	37519.98
718.671	37288.56
718.865	36926.07
719.059	36909.69
719.254	37180.02
719.448	37173.88
719.642	38058.6
719.837	36704.89
720.031	37126.77
720.225	37214.83
720.419	36887.16
720.614	36545.15
720.808	37085.81
721.002	37094
721.196	36283.01
721.39	36475.52
721.585	37261.94
721.779	36952.69
721.973	36545.15
722.167	36018.82
722.361	36713.08
722.555	37159.54
722.749	36493.95
722.943	36797.05
723.137	36520.57
723.331	37028.47
723.525	36514.43
723.719	36545.15
723.913	37272.18
724.107	36653.69
724.301	36280.96
724.495	36459.13
724.689	37028.47
724.883	36950.65
725.077	36598.4
725.271	36373.12
725.465	36741.75
725.659	36358.78
725.853	36131.46
726.046	36217.47
726.24	36162.18
726.434	36416.13
726.628	36297.34
726.822	36344.45
727.015	36534.91
727.209	36424.32
727.403	36137.6
727.596	36104.84
727.79	36690.55
727.984	36776.57
728.177	36553.34
728.371	36594.3
728.565	36391.55
728.758	36293.25
728.952	35981.96
729.146	36285.06
729.339	36733.56
729.533	36399.74
729.726	36440.7
729.92	36285.06
730.113	36545.15
730.307	36655.74
730.5	35975.81
730.694	35734.15
730.887	36317.82
731.081	36770.43
731.274	36289.15
731.468	36037.25
731.661	36201.09
731.854	36244.1
732.048	36496
732.241	35955.33
732.435	36250.24
732.628	36002.44
732.821	36043.4
733.014	36098.69
733.208	35926.66
733.401	36153.99
733.594	35777.16
733.788	36002.44
733.981	36414.08
734.174	36270.72
734.367	36002.44
734.56	36131.46
734.754	36498.05
734.947	36291.2
735.14	35859.08
735.333	36369.02
735.526	36471.42
735.719	36438.65
735.912	36278.91
736.105	35699.34
736.298	36541.05
736.491	36000.39
736.684	35844.74
736.877	35814.02
737.07	35875.46
737.263	36362.88
737.456	35959.43
737.649	35555.98
737.842	36012.68
738.035	35879.56
738.228	35795.59
738.421	35754.63
738.614	36141.7
738.807	36104.84
739	35451.53
739.192	35170.96
739.385	35695.24
739.578	35959.43
739.771	35760.78
739.964	35324.56
740.156	35887.75
740.349	35633.8
740.542	35646.09
740.735	35121.81
740.927	35578.51
741.12	35297.94
741.313	35617.42
741.505	35633.8
741.698	35381.9
741.891	35848.84
742.083	35840.65
742.276	35756.68
742.468	35682.95
742.661	35474.06
742.854	35383.95
743.046	35043.99
743.239	35742.35
743.431	35373.71
743.624	35226.26
743.816	35058.32
744.009	35312.27
744.201	35863.18
744.393	35103.38
744.586	35232.4
744.778	35420.81
744.971	35410.57
745.163	34966.17
745.355	34982.55
745.548	34824.86
745.74	34724.5
745.932	34945.69
746.125	34972.31
746.317	35871.37
746.509	35037.84
746.702	35103.38
746.894	34886.29
747.086	35369.61
747.278	35732.11
747.471	34892.44
747.663	35211.92
747.855	35453.58
748.047	35631.75
748.239	34972.31
748.431	35130
748.623	35818.12
748.815	35377.81
749.008	35127.95
749.2	35158.67
749.392	35193.49
749.584	34984.6
749.776	35228.31
749.968	34908.82
750.16	35363.47
750.352	34853.53
750.544	34923.16
750.736	34773.66
750.928	35175.06
751.12	34556.57
751.311	34529.95
751.503	34900.63
751.695	34816.66
751.887	34380.45
752.079	34839.19
752.271	34357.92
752.463	35553.93
752.654	34822.81
752.846	34335.39
753.038	34554.52
753.23	34411.17
753.421	34517.66
753.613	34288.29
753.805	34806.42
753.997	34396.83
754.188	34685.59
754.38	34341.53
754.572	34486.94
754.763	34273.95
754.955	33942.18
755.146	34198.18
755.338	34149.03
755.53	34433.69
755.721	33784.49
755.913	33315.5
756.104	33872.55
756.296	33995.43
756.487	34321.05
756.679	33784.49
756.87	33229.49
757.062	33589.93
757.253	34185.89
757.445	33850.02
757.636	33716.9
757.827	33888.93
758.019	34386.59
758.21	33477.29
758.401	33585.83
758.593	34243.23
758.784	34173.6
758.975	33104.56
759.167	33346.22
759.358	33696.42
759.549	33532.59
759.74	33282.73
759.932	33190.58
760.123	33417.9
760.314	33422
760.505	32852.66
760.696	33170.1
760.888	33569.45
761.079	33307.31
761.27	32860.85
761.461	32858.81
761.652	33335.98
761.843	32836.28
762.034	32914.1
762.225	32682.68
762.416	32930.48
762.607	32934.58
762.798	32580.28
762.989	32527.03
763.18	33112.75
763.371	32557.75
763.562	32387.77
763.753	32424.64
763.944	32783.03
764.135	32606.91
764.326	32903.86
764.517	32826.04
764.708	32496.31
764.899	32398.01
765.089	31765.19
765.28	31916.74
765.471	32453.31
765.662	32453.31
765.853	32099.01
766.043	31734.47
766.234	32678.58
766.425	32297.66
766.615	31924.93
766.806	32131.78
766.997	32451.26
767.187	32019.14
767.378	31726.28
767.569	31408.84
767.759	32193.22
767.95	32234.17
768.141	32160.45
768.331	31857.35
768.522	31949.51
768.712	32361.15
768.903	31652.55
769.093	31439.56
769.284	31775.43
769.474	31621.83
769.665	31273.68
769.855	31353.55
770.046	31687.37
770.236	31724.23
770.426	31687.37
770.617	31267.53
770.807	31406.8
770.998	31408.84
771.188	30749.4
771.378	31036.11
771.569	31574.73
771.759	31589.06
771.949	30630.62
772.139	30739.16
772.33	30718.68
772.52	31654.6
772.71	31175.37
772.9	30378.72
773.09	31605.45
773.281	31292.11
773.471	30651.09
773.661	30558.94
773.851	31066.83
774.041	30739.16
774.231	30229.21
774.421	30524.12
774.611	30806.74
774.802	30317.28
774.992	30270.17
775.182	30384.86
775.372	30460.63
775.562	30583.51
775.752	30552.79
775.942	30020.32
776.131	30898.9
776.321	30386.91
776.511	30178.01
776.701	30159.58
776.891	30278.36
777.081	29756.13
777.271	29756.13
777.461	29766.37
777.651	30108.38
777.84	29956.83
778.03	29709.03
778.22	29641.45
778.41	30309.08
778.599	29723.37
778.789	29774.56
778.979	29647.59
779.169	29911.78
779.358	29649.64
779.548	30087.9
779.738	29162.22
779.927	29594.34
780.117	29739.75
780.307	29416.17
780.496	29145.84
780.686	29543.14
780.875	30046.94
781.065	29426.41
781.254	28971.76
781.444	29381.35
781.633	29414.12
781.823	29256.43
782.012	29213.42
782.202	29145.84
782.391	29254.38
782.581	28678.9
782.77	29192.94
782.96	29342.44
783.149	28678.9
783.338	28445.43
783.528	28754.68
783.717	29364.97
783.906	29377.26
784.096	28771.06
784.285	28611.32
784.474	28904.18
784.663	28938.99
784.853	28726
785.042	28623.61
785.231	28662.52
785.42	29174.51
785.61	28474.1
785.799	28259.07
785.988	28185.34
786.177	28363.51
786.366	28140.29
786.555	28711.67
786.744	28807.92
786.933	28195.58
787.122	28250.88
787.312	27923.2
787.501	28074.75
787.69	28619.51
787.879	27773.7
788.068	27908.86
788.257	27861.76
788.445	27646.72
788.634	27861.76
788.823	27329.29
789.012	28603.13
789.201	28386.04
789.39	27628.29
789.579	27253.51
789.768	27925.25
789.957	28054.27
790.145	27804.42
790.334	27122.44
790.523	27560.71
790.712	27415.3
790.9	27859.71
791.089	27493.13
791.278	27632.39
791.467	27745.03
791.655	27613.96
791.844	27667.2
792.033	27253.51
792.221	27296.52
792.41	27011.85
792.599	26852.11
792.787	27616.01
792.976	27659.01
793.164	27335.43
793.353	27089.68
793.541	27521.8
793.73	27675.4
793.918	26960.66
794.107	27011.85
794.295	26891.02
794.484	27065.1
794.672	26821.39
794.861	26491.67
795.049	27329.29
795.238	27403.02
795.426	26880.78
795.614	26694.42
795.803	26880.78
795.991	27339.53
796.179	26649.36
796.368	26417.94
796.556	26989.33
796.744	26942.22
796.932	26692.37
797.121	26219.29
797.309	26577.69
797.497	26743.57
797.685	26678.04
797.874	26782.48
798.062	26866.45
798.25	27001.61
798.438	26526.49
798.626	26319.64
798.814	26641.17
799.002	27314.95
799.19	26741.52
799.378	26456.85
799.566	27061.01
799.755	26643.22
799.943	26223.39
800.131	26440.47
800.318	26592.02
800.506	26772.24
800.694	26276.63
800.882	26305.31
801.07	26882.83
801.258	26415.9
801.446	26811.15
801.634	26657.56
801.822	26688.28
802.01	26596.12
802.197	26686.23
802.385	26721.04
802.573	26448.66
802.761	26419.99
802.949	26471.19
803.136	26223.39
803.324	26604.31
803.512	26805.01
803.699	26430.23
803.887	26510.1
804.075	26944.27
804.262	26735.38
804.45	26417.94
804.638	26366.74
804.825	26458.9
805.013	26440.47
805.201	26829.59
805.388	26860.3
805.576	26495.77
805.763	27339.53
805.951	26495.77
806.138	26809.11
806.326	27605.77
806.513	26895.12
806.701	26815.25
806.888	26751.76
807.075	27177.74
807.263	27282.19
807.45	27001.61
807.638	27026.19
807.825	27489.03
808.012	27163.4
808.2	26624.79
808.387	27245.32
808.574	26934.03
808.761	27552.52
808.949	26931.98
809.136	26970.9
809.323	26841.87
809.51	26882.83
809.698	27003.66
809.885	27097.87
810.072	27312.91
810.259	27435.78
810.446	26854.16
810.633	26938.13
810.82	27337.48
811.008	27446.02
811.195	27278.09
811.382	27335.43
811.569	27573
811.756	26833.68
811.943	26960.66
812.13	26989.33
812.317	26864.4
812.504	27339.53
812.691	27132.68
812.878	27153.16
813.064	27618.05
813.251	27333.39
813.438	27202.32
813.625	27222.8
813.812	27181.84
813.999	27691.78
814.186	27466.5
814.372	27065.1
814.559	27099.92
814.746	27386.63
814.933	26946.32
815.12	26948.37
815.306	27001.61
815.493	26856.21
815.68	26815.25
815.866	27104.01
816.053	27536.13
816.24	27519.75
816.426	26948.37
816.613	26428.18
816.799	27456.26
816.986	27362.06
817.173	26835.73
817.359	26940.18
817.546	27118.35
817.732	26858.26
817.919	26628.88
818.105	26868.5
818.292	27128.59
818.478	27214.6
818.665	27237.13
818.851	26944.27
819.037	27697.92
819.224	27392.78
819.41	26723.09
819.597	26471.19
819.783	27249.42
819.969	27079.44
820.156	26837.78
820.342	26825.49
820.528	27552.52
820.714	26891.02
820.901	26782.48
821.087	26452.76
821.273	27450.12
821.459	26665.75
821.646	26741.52
821.832	26514.2
822.018	26843.92
822.204	26903.31
822.39	26514.2
822.576	26471.19
822.762	26782.48
822.948	26592.02
823.134	26338.07
823.32	26114.84
823.507	26065.69
823.693	26655.51
823.879	26364.7
824.065	25998.11
824.25	26329.88
824.436	26252.06
824.622	25895.71
824.808	26045.21
824.994	26301.21
825.18	25912.1
825.366	26143.52
825.552	26059.55
825.738	26430.23
825.923	26639.12
826.109	26256.15
826.295	25750.31
826.481	26172.19
826.667	26102.56
826.852	26073.88
827.038	25862.94
827.224	26446.62
827.409	26200.86
827.595	25508.65
827.781	25844.51
827.966	26372.89
828.152	25957.15
828.338	25668.39
828.523	25301.8
828.709	25654.05
828.894	25709.35
829.08	25580.32
829.266	24972.08
829.451	25606.95
829.637	25752.35
829.822	25482.02
830.008	25621.28
830.193	25686.82
830.378	25801.5
830.564	25748.26
830.749	25049.9
830.935	25316.14
831.12	25422.63
831.305	24980.27
831.491	25074.48
831.676	25054
831.861	25535.27
832.047	25037.61
832.232	25068.33
832.417	25389.86
832.602	25262.89
832.788	25043.76
832.973	24929.07
833.158	25375.53
833.343	25387.82
833.528	25170.73
833.714	24914.73
833.899	25228.07
834.084	25635.62
834.269	24974.13
834.454	24961.84
834.639	24890.16
834.824	24847.15
835.009	24724.27
835.194	24736.56
835.379	25082.67
835.564	24978.22
835.749	24779.57
835.934	24171.32
836.119	24859.44
836.304	24707.89
836.489	24826.67
836.674	24570.68
836.859	24075.07
837.044	25000.75
837.228	24429.37
837.413	24296.25
837.598	24830.77
837.783	24673.07
837.968	24343.35
838.152	24259.38
838.337	23935.81
838.522	24642.35
838.707	25080.62
838.891	24105.79
839.076	24515.38
839.261	24558.39
839.445	23911.23
839.63	24048.44
839.815	24574.77
839.999	23814.98
840.184	23864.13
840.368	23745.34
840.553	24556.34
840.737	24247.1
840.922	23944
841.106	24257.34
841.291	23864.13
841.475	24073.02
841.66	23821.12
841.844	23636.8
842.029	24576.82
842.213	23743.3
842.397	23382.85
842.582	23233.35
842.766	23860.03
842.951	23401.29
843.135	23466.82
843.319	23532.36
843.504	23739.2
843.688	23911.23
843.872	23194.44
844.056	23339.85
844.241	23493.44
844.425	23403.33
844.609	23440.2
844.793	23112.52
844.977	23841.6
845.161	23302.98
845.346	23280.46
845.53	22983.5
845.714	23444.29
845.898	23345.99
846.082	22885.2
846.266	23094.09
846.45	23274.31
846.634	23092.04
846.818	22686.54
847.002	22958.92
847.186	22973.26
847.37	22483.8
847.554	22694.74
847.738	22750.03
847.922	22764.37
848.106	22913.87
848.29	22209.37
848.473	22786.89
848.657	22842.19
848.841	22885.2
849.025	22731.6
849.209	22162.26
849.392	22817.61
849.576	22631.25
849.76	22199.13
849.944	22395.73
850.127	23268.17
850.311	22192.98
850.495	22023
850.678	21934.94
850.862	22520.66
851.046	22635.35
851.229	22014.81
851.413	22125.4
851.596	22184.79
851.78	22463.32
851.964	22451.03
852.147	22055.77
852.331	22469.46
852.514	22430.55
852.698	22035.29
852.881	21932.89
853.065	22408.02
853.248	21973.85
853.431	21859.17
853.615	21992.28
853.798	22801.23
853.982	22328.15
854.165	21746.53
854.348	21683.04
854.532	21961.56
854.715	21934.94
854.898	21951.32
855.081	21554.02
855.265	22004.57
855.448	21975.9
855.631	21420.9
855.814	21334.89
855.997	22078.3
856.181	21724
856.364	21328.74
856.547	21334.89
856.73	21535.59
856.913	21500.77
857.096	21304.17
857.279	21396.32
857.462	21398.37
857.645	21754.72
857.828	21068.65
858.011	21007.21
858.194	21173.1
858.377	21425
858.56	20861.8
858.743	21267.3
858.926	20933.48
859.109	21367.65
859.292	20816.75
859.475	20622.19
859.658	21738.33
859.841	21074.79
860.023	20956.01
860.206	20763.5
860.389	21001.07
860.572	20990.83
860.755	20712.3
860.937	20638.58
861.12	20908.91
861.303	20841.32
861.486	20607.86
861.668	20654.96
861.851	20896.62
862.034	20943.72
862.216	20566.9
862.399	19817.34
862.581	20403.06
862.764	20804.46
862.947	20259.7
863.129	20294.52
863.312	20083.58
863.494	20657.01
863.677	20267.89
863.859	19960.7
864.042	20167.54
864.224	20706.16
864.406	20034.42
864.589	19743.61
864.771	20306.8
864.954	19803
865.136	19690.37
865.318	19428.23
865.501	20097.91
865.683	19698.56
865.865	19704.7
866.048	19692.41
866.23	19690.37
866.412	19651.45
866.594	19491.71
866.777	19655.55
866.959	19778.43
867.141	19624.83
867.323	19561.34
867.505	19706.75
867.687	19704.7
867.869	19762.05
868.052	19616.64
868.234	19258.24
868.416	19612.54
868.598	19751.81
868.78	19413.89
868.962	19319.68
869.144	19876.73
869.326	19690.37
869.508	19223.43
869.69	19284.87
869.872	19446.66
870.054	19811.2
870.236	19018.63
870.417	18928.52
870.599	19372.93
870.781	19719.04
870.963	19311.49
871.145	19108.74
871.327	19078.02
871.508	19590.02
871.69	19014.54
871.872	19338.12
872.054	19510.14
872.235	19456.9
872.417	19178.37
872.599	19020.68
872.78	19637.12
872.962	19352.45
873.144	18834.32
873.325	19030.92
873.507	19518.34
873.689	19184.52
873.87	18697.1
874.052	19274.63
874.233	19374.98
874.415	19510.14
874.596	18838.41
874.778	19026.82
874.959	19258.24
875.141	19415.94
875.322	18893.71
875.503	18903.95
875.685	19372.93
875.866	18938.76
876.048	19051.4
876.229	18908.04
876.41	18797.45
876.592	19278.72
876.773	19039.11
876.954	18774.92
877.136	19587.97
877.317	19170.18
877.498	18862.99
877.679	19024.78
877.86	19377.03
878.042	18858.89
878.223	19190.66
878.404	19454.85
878.585	19530.62
878.766	19465.09
878.947	19501.95
879.128	19227.53
879.309	19440.51
879.49	19657.6
879.672	19491.71
879.853	19354.5
880.034	19221.38
880.215	19428.23
880.396	19428.23
880.576	19307.4
880.757	19594.11
880.938	19493.76
881.119	19213.19
881.3	19452.8
881.481	19762.05
881.662	20450.16
881.843	19381.12
882.023	19325.83
882.204	19659.65
882.385	19972.99
882.566	19483.52
882.747	19381.12
882.927	20001.66
883.108	19870.59
883.289	19587.97
883.469	20104.06
883.65	19770.24
883.831	19944.31
884.011	19635.07
884.192	19915.64
884.373	20517.75
884.553	20306.8
884.734	20128.63
884.914	20282.23
885.095	20849.52
885.275	20290.42
885.456	20151.16
885.636	20038.52
885.817	20249.46
885.997	20167.54
886.178	19987.32
886.358	20179.83
886.538	20429.68
886.719	21367.65
886.899	19948.41
887.08	20595.57
887.26	20753.26
887.44	20315
887.621	20206.45
887.801	20261.75
887.981	21189.48
888.161	20544.37
888.342	20140.92
888.522	20396.92
888.702	20566.9
888.882	21009.26
889.062	20450.16
889.242	20083.58
889.423	20953.96
889.603	20599.66
889.783	20720.49
889.963	20401.01
890.143	20573.04
890.323	20745.07
890.503	20190.07
890.683	20226.93
890.863	20218.74
891.043	20679.54
891.223	20503.41
891.403	20575.09
891.583	20847.47
891.763	20407.16
891.943	20411.25
892.122	20288.37
892.302	20765.55
892.482	20812.65
892.662	20321.14
892.842	20474.74
893.022	20667.25
893.201	20396.92
893.381	20505.46
893.561	20476.79
893.741	20810.61
893.92	20427.63
894.1	20435.83
894.28	20106.1
894.459	20503.41
894.639	20489.07
894.819	20370.29
894.998	20284.28
895.178	20671.34
895.357	20542.32
895.537	20112.25
895.716	20110.2
895.896	20294.52
896.075	20736.88
896.255	19774.33
896.434	19938.17
896.614	20466.55
896.793	20509.55
896.973	19985.27
897.152	19741.57
897.331	19966.84
897.511	20015.99
897.69	19442.56
897.87	19895.16
898.049	20159.35
898.228	20153.21
898.407	19721.09
898.587	20024.19
898.766	19784.57
898.945	19970.94
899.124	19815.29
899.304	19665.79
899.483	19729.28
899.662	20056.95
899.841	19258.24
900.02	19362.69
900.199	19534.72
900.378	19637.12
900.557	19454.85
900.737	19280.77
900.916	19217.29
901.095	19743.61
901.274	19336.07
901.453	18819.98
901.632	19110.79
901.811	18862.99
901.989	19012.49
902.168	18551.7
902.347	19286.92
902.526	18422.67
902.705	18760.59
902.884	18377.62
903.063	19463.04
903.242	18781.07
903.42	18303.89
903.599	18424.72
903.778	18981.77
903.957	18787.21
904.135	18195.35
904.314	18160.53
904.493	18293.65
904.672	18416.53
904.85	17781.66
905.029	18017.18
905.207	18119.57
905.386	18695.05
905.565	17603.49
905.743	17511.33
905.922	17683.36
906.1	17832.86
906.279	17265.57
906.457	17382.31
906.636	17589.15
906.814	17351.59
906.993	17138.6
907.171	17091.49
907.35	17447.84
907.528	17208.23
907.707	17216.42
907.885	16731.05
908.063	17210.28
908.242	16679.85
908.42	16534.45
908.598	16118.71
908.777	16571.31
908.955	16634.8
909.133	16638.89
909.311	16522.16
909.49	16628.65
909.668	16651.18
909.846	16348.08
910.024	16427.95
910.202	16796.59
910.38	17269.67
910.559	16417.71
910.737	16696.24
910.915	16948.14
911.093	17238.95
911.271	16815.02
911.449	17290.15
911.627	17159.08
911.805	17578.91
911.983	16780.2
912.161	16946.09
912.339	17238.95
912.517	17712.03
912.695	17165.22
912.872	17021.86
913.05	17169.32
913.228	17460.13
913.406	17101.73
913.584	17314.72
913.762	17210.28
913.939	17400.74
914.117	17265.57
914.295	16823.21
914.473	17605.53
914.65	17449.89
914.828	17177.51
915.006	16739.24
915.184	17386.4
915.361	17284
915.539	17306.53
915.716	17247.14
915.894	17515.42
916.072	17488.8
916.249	17302.43
916.427	17255.33
916.604	17013.67
916.782	17402.79
916.959	16907.18
917.137	17134.5
917.314	17212.32
917.492	17384.35
917.669	16853.93
917.847	17208.23
918.024	17400.74
918.201	16827.31
918.379	16911.27
918.556	16751.53
918.733	17093.54
918.911	16655.28
919.088	16944.04
919.265	16573.36
919.442	16896.94
919.62	16679.85
919.797	16372.66
919.974	16470.96
920.151	16823.21
920.328	16966.57
920.506	16593.84
920.683	16747.44
920.86	16225.2
921.037	16374.7
921.214	16227.25
921.391	16407.47
921.568	16673.71
921.745	16276.4
921.922	16354.23
922.099	15956.92
922.276	16741.29
922.453	16520.11
922.63	16036.79
922.807	16270.26
922.984	16579.5
923.161	16153.52
923.338	15909.82
923.514	16044.98
923.691	16303.03
923.868	16155.57
924.045	15973.3
924.222	15696.83
924.399	16081.85
924.575	16206.77
924.752	15901.62
924.929	15885.24
925.105	16165.81
925.282	15576
925.459	15737.79
925.635	15651.77
925.812	15616.96
925.989	15360.96
926.165	15254.47
926.342	15340.48
926.518	15184.83
926.695	15371.2
926.871	15205.31
927.048	14853.06
927.224	15545.28
927.401	15211.46
927.577	14826.44
927.754	14859.21
927.93	15176.64
928.107	15477.69
928.283	14681.03
928.459	15102.92
928.636	15166.4
928.812	14881.74
928.988	14683.08
929.165	14422.99
929.341	14611.4
929.517	14697.42
929.693	14867.4
929.87	14437.33
930.046	14527.44
930.222	14324.69
930.398	14336.98
930.574	14052.31
930.751	14263.25
930.927	14228.43
931.103	14128.08
931.279	13849.56
931.455	13960.15
931.631	14027.73
931.807	13587.42
931.983	13517.79
932.159	13523.93
932.335	13779.93
932.511	13683.67
932.687	13538.27
932.863	13837.27
933.039	13462.49
933.215	13132.77
933.391	13059.04
933.566	13310.94
933.742	13163.49
933.918	12864.49
934.094	12766.18
934.27	12850.15
934.445	12776.42
934.621	12667.88
934.797	12375.02
934.973	12868.58
935.148	12620.78
935.324	12176.37
935.5	11654.14
935.675	12428.27
935.851	11742.2
936.027	11641.85
936.202	11711.48
936.378	11672.57
936.553	11379.71
936.729	11518.97
936.904	10810.37
937.08	10933.25
937.255	10378.25
937.431	10216.46
937.606	10116.11
937.782	9915.41
937.957	10120.21
938.133	9933.84
938.308	9645.08
938.483	9741.33
938.659	9632.79
938.834	9516.06
939.009	9143.33
939.185	9178.14
939.36	8641.57
939.535	8791.08
939.71	8789.03
939.886	9151.52
940.061	8895.52
940.236	8647.72
940.411	8510.5
940.586	8907.81
940.761	8641.57
940.937	8408.11
941.112	8090.67
941.287	8459.31
941.462	8258.6
941.637	8082.48
941.812	7943.22
941.987	8358.96
942.162	8154.16
942.337	7945.27
942.512	7683.13
942.687	8096.82
942.862	7963.7
943.037	7533.62
943.212	7345.21
943.386	7642.17
943.561	7742.52
943.736	7668.79
943.911	7625.78
944.086	7658.55
944.26	7838.77
944.435	7488.57
944.61	7627.83
944.785	8287.28
944.959	8039.47
945.134	7578.68
945.309	7500.86
945.483	7541.82
945.658	7892.02
945.833	6896.71
946.007	7337.02
946.182	8008.75
946.357	7296.06
946.531	7519.29
946.706	7531.58
946.88	7181.37
947.055	7705.65
947.229	7623.73
947.404	7369.79
947.578	8156.21
947.752	7789.62
947.927	7425.08
948.101	7463.99
948.276	7887.92
948.45	7875.63
948.624	7947.31
948.799	7543.86
948.973	7961.65
949.147	7564.34
949.321	7924.79
949.496	7724.08
949.67	8074.29
949.844	7926.83
950.018	7832.63
950.193	7904.31
950.367	8631.33
950.541	8123.44
950.715	7824.44
950.889	8090.67
951.063	8123.44
951.237	8418.35
951.411	7697.46
951.585	7904.31
951.759	8391.72
951.933	8205.36
952.107	8072.24
952.281	8246.32
952.455	8633.38
952.629	8483.88
952.803	7994.42
952.977	8000.56
953.151	8461.35
953.325	8420.39
953.499	8430.63
953.672	7957.55
953.846	8342.57
954.02	8318
954.194	8125.49
954.368	8356.91
954.541	8748.07
954.715	8254.51
954.889	8352.81
955.062	8346.67
955.236	8494.12
955.41	8524.84
955.583	8551.46
955.757	8080.43
955.93	8356.91
956.104	8320.04
956.278	8401.96
956.451	8438.83
956.625	8782.88
956.798	9079.84
956.972	8911.91
957.145	8453.16
957.319	8619.05
957.492	8690.73
957.665	8893.47
957.839	8641.57
958.012	8948.77
958.185	8946.72
958.359	8813.6
958.532	8922.15
958.705	8977.44
958.879	8873
959.052	8510.5
959.225	8262.7
959.398	8846.37
959.572	8815.65
959.745	8498.22
959.918	8600.62
960.091	8533.03
960.264	8905.76
960.438	8354.86
960.611	8455.21
960.784	9049.12
960.957	8576.04
961.13	8766.5
961.303	8373.29
961.476	8713.25
961.649	8817.7
961.822	8307.76
961.995	8674.34
962.168	8864.8
962.341	8885.28
962.514	8666.15
962.686	8379.43
962.859	8836.13
963.032	8893.47
963.205	8475.69
963.378	8401.96
963.551	8940.58
963.723	8600.62
963.896	8563.75
964.069	8557.61
964.242	8807.46
964.414	8612.9
964.587	8549.42
964.76	8500.26
964.932	8809.51
965.105	8557.61
965.278	8250.41
965.45	8612.9
965.623	8533.03
965.795	8748.07
965.968	8365.1
966.14	8367.15
966.313	8496.17
966.485	8580.14
966.658	8219.69
966.83	8143.92
967.003	8801.32
967.175	8631.33
967.348	8209.45
967.52	8244.27
967.692	9036.83
967.865	8518.7
968.037	8287.28
968.209	8707.11
968.382	8469.55
968.554	8651.81
968.726	8330.28
968.898	8291.37
969.071	8625.19
969.243	8512.55
969.415	8150.06
969.587	8119.34
969.759	8946.72
969.932	8537.13
970.104	8197.17
970.276	7885.87
970.448	8141.87
970.62	8201.26
970.792	8107.05
970.964	8000.56
971.136	8938.53
971.308	8365.1
971.48	8051.76
971.652	7945.27
971.824	8522.79
971.996	7961.65
972.168	7959.6
972.339	7978.03
972.511	8418.35
972.683	8064.05
972.855	8162.35
973.027	7820.34
973.199	7994.42
973.37	8264.75
973.542	7965.75
973.714	7871.54
973.886	7922.74
974.057	8412.2
974.229	7617.59
974.401	7863.35
974.572	7803.96
974.744	7261.24
974.915	7562.3
975.087	7705.65
975.259	8141.87
975.43	7656.5
975.602	7590.97
975.773	7504.95
975.945	7533.62
976.116	7984.18
976.288	7629.88
976.459	7679.03
976.63	7517.24
976.802	7935.03
976.973	7502.9
977.145	7685.17
977.316	8064.05
977.487	7627.83
977.659	7547.96
977.83	7347.26
978.001	8123.44
978.172	7541.82
978.344	7355.45
978.515	7226.43
978.686	7388.22
978.857	7795.76
979.028	7330.87
979.2	7291.96
979.371	7568.44
979.542	7339.07
979.713	7294.01
979.884	6771.78
980.055	7330.87
980.226	7185.47
980.397	7091.26
980.568	7142.46
980.739	7597.11
980.91	7066.69
981.081	7230.52
981.252	7003.2
981.423	7343.16
981.594	7435.32
981.765	6876.23
981.936	6947.9
982.106	7162.94
982.277	7537.72
982.448	6882.37
982.619	7177.28
982.79	6947.9
982.96	7027.78
983.131	7074.88
983.302	6626.37
983.472	6972.48
983.643	6845.51
983.814	6800.45
983.984	6560.84
984.155	6857.79
984.326	7072.83
984.496	6599.75
984.667	6779.97
984.837	6562.89
985.008	7011.39
985.178	6788.16
985.349	6696
985.519	6515.78
985.69	6577.22
985.86	6499.4
986.031	6364.23
986.201	6855.75
986.371	6673.48
986.542	6231.12
986.712	6157.39
986.882	6626.37
987.053	6472.78
987.223	6235.21
987.393	6224.97
987.563	6272.07
987.734	6411.34
987.904	6499.4
988.074	6255.69
988.244	6573.13
988.414	6253.64
988.585	6044.75
988.755	6184.01
988.925	6431.82
989.095	6614.09
989.265	6011.98
989.435	6122.57
989.605	6374.47
989.775	6360.14
989.945	6265.93
990.115	5762.13
990.285	6310.99
990.455	6130.77
990.625	5852.24
990.795	5758.03
990.965	6452.3
991.134	5858.39
991.304	5788.75
991.474	5776.47
991.644	6102.09
991.814	6229.07
991.984	5518.42
992.153	5657.68
992.323	5835.86
992.493	6132.81
992.662	5540.95
992.832	5819.47
993.002	5839.95
993.171	5825.62
993.341	5278.81
993.511	5612.63
993.68	5555.29
993.85	5936.21
994.019	5303.39
994.189	5291.1
994.358	5778.51
994.528	5651.54
994.697	4965.47
994.867	5362.78
995.036	5776.47
995.206	5493.85
995.375	5260.38
995.544	5434.46
995.714	5622.87
995.883	5307.48
996.052	5346.39
996.222	4979.81
996.391	5938.26
996.56	5385.3
996.73	5082.21
996.899	4934.75
997.068	5459.03
997.237	5192.8
997.406	4854.88
997.576	4609.12
997.745	5340.25
997.914	5348.44
998.083	4732
998.252	4885.6
998.421	5188.7
998.59	5031.01
998.759	4783.2
998.928	4588.64
999.097	5391.45
999.266	5317.72
999.435	4791.39
999.604	4582.5
999.773	5442.65
999.942	4899.94
1000.111	4576.36
1000.28	4322.41
1000.448	4760.67
1000.617	4539.49
1000.786	4727.91
1000.955	4525.16
1001.124	4998.24
1001.292	5536.85
1001.461	4455.53
1001.63	4308.07
1001.798	5117.02
1001.967	5112.92
1002.136	4433
1002.304	4531.3
1002.473	4619.36
1002.642	4736.1
1002.81	4494.44
1002.979	4500.58
1003.147	4736.1
1003.316	5227.61
1003.484	4299.88
1003.653	4220.01
1003.821	4906.08
1003.99	4455.53
1004.158	4420.71
1004.327	4299.88
1004.495	4564.07
1004.663	4154.48
1004.832	4277.35
1005	3964.01
1005.168	4553.83
1005.337	4351.08
1005.505	3972.21
1005.673	4131.95
1005.842	4430.95
1006.01	4346.98
1006.178	4062.32
1006.346	3865.71
1006.514	4285.55
1006.683	4619.36
1006.851	3861.62
1007.019	3882.1
1007.187	4115.56
1007.355	3654.77
1007.523	3630.2
1007.691	3900.53
1007.859	3722.35
1008.027	4277.35
1008.195	3871.86
1008.363	3554.42
1008.531	4185.19
1008.699	3974.25
1008.867	3613.81
1009.035	3705.97
1009.203	4252.78
1009.37	3994.73
1009.538	3589.24
1009.706	3929.2
1009.874	3931.25
1010.042	3724.4
1010.209	3392.63
1010.377	3462.26
1010.545	4037.74
1010.713	3861.62
1010.88	3423.35
1011.048	3466.36
1011.216	3642.48
1011.383	3947.63
1011.551	3359.86
1011.718	3400.82
1011.886	3867.76
1012.054	3658.87
1012.221	3261.56
1012.389	3413.11
1012.556	3490.93
1012.724	4009.07
1012.891	3206.27
1013.058	3179.64
1013.226	3669.11
1013.393	3652.72
1013.561	3007.61
1013.728	3118.2
1013.895	3585.14
1014.063	3507.32
1014.23	3038.33
1014.397	3185.79
1014.565	3574.9
1014.732	3120.25
1014.899	2954.37
1015.066	2991.23
1015.233	3347.58
1015.401	3337.34
1015.568	3060.86
1015.735	3052.67
1015.902	3261.56
1016.069	3349.62
1016.236	2860.16
1016.403	2823.3
1016.57	2985.09
1016.737	3341.43
1016.904	2788.48
1017.071	2716.8
1017.238	2878.59
1017.405	3275.9
1017.572	2778.24
1017.739	2792.58
1017.906	3177.59
1018.073	3251.32
1018.24	2587.78
1018.407	2729.09
1018.573	3193.98
1018.74	2890.88
1018.907	2645.12
1019.074	2489.48
1019.241	3150.97
1019.407	2966.65
1019.574	2626.69
1019.741	2462.85
1019.907	2776.19
1020.074	2933.89
1020.241	2301.06
1020.407	2438.28
1020.574	2886.78
1020.74	3024
1020.907	2458.76
1021.073	2380.93
1021.24	3282.04
1021.406	3148.92
1021.573	2354.31
1021.739	2481.28
1021.906	2858.11
1022.072	2602.11
1022.239	2436.23
1022.405	2475.14
1022.571	2673.79
1022.738	2475.14
1022.904	2221.19
1023.07	2503.81
1023.237	2624.64
1023.403	2950.27
1023.569	2368.65
1023.735	2184.33
1023.902	2538.63
1024.068	2612.35
1024.234	2192.52
1024.4	2260.1
1024.566	2573.44
1024.732	2589.83
1024.898	2145.42
1025.065	2038.92
1025.231	2628.74
1025.397	2358.41
1025.563	2034.83
1025.729	2071.69
1025.895	1997.96
1026.061	2075.79
1026.227	1848.46
1026.392	2090.12
1026.558	2501.76
1026.724	2409.61
1026.89	2016.4
1027.056	2120.84
1027.222	2499.72
1027.388	2206.86
1027.553	1952.91
1027.719	1791.12
1027.885	2684.03
1028.051	2370.69
1028.216	1717.39
1028.382	1893.52
1028.548	2477.19
1028.713	2159.75
1028.879	1811.6
1029.045	1991.82
1029.21	2520.2
1029.376	2534.53
1029.541	1914
1029.707	1891.47
1029.873	2241.67
1030.038	2303.11
1030.204	1819.79
1030.369	1768.59
1030.534	2362.5
1030.7	2000.01
1030.865	1731.73
1031.031	1670.29
1031.196	2159.75
1031.361	2229.38
1031.527	1723.54
1031.692	1678.48
1031.857	1750.16
1032.023	2155.66
1032.188	1633.43
1032.353	1717.39
1032.518	2419.85
1032.684	2036.88
1032.849	1477.78
1033.014	1647.76
1033.179	2131.08
1033.344	1989.77
1033.509	1684.62
1033.674	1545.36
1033.839	2237.58
1034.004	2100.36
1034.17	1537.17
1034.335	1475.73
1034.5	1778.83
1034.664	1791.12
1034.829	1498.26
1034.994	1604.75
1035.159	1911.95
1035.324	1916.05
1035.489	1510.55
1035.654	1502.36
1035.819	2124.94
1035.984	1959.05
1036.148	1492.12
1036.313	1498.26
1036.478	1989.77
1036.643	1813.65
1036.807	1408.15
1036.972	1367.19
1037.137	2208.9
1037.301	1778.83
1037.466	1227.93
1037.631	1574.03
1037.795	2086.03
1037.96	1807.5
1038.124	1582.23
1038.289	1250.46
1038.454	1819.79
1038.618	1889.42
1038.783	1412.25
1038.947	1389.72
1039.111	1692.82
1039.276	1569.94
1039.44	1328.28
1039.605	1670.29
1039.769	1547.41
1039.933	1637.52
1040.098	1381.53
1040.262	1483.92
1040.426	1836.17
1040.591	1715.34
1040.755	1195.16
1040.919	1293.46
1041.083	1750.16
1041.248	1502.36
1041.412	1107.1
1041.576	1174.68
1041.74	1541.27
1041.904	1801.36
1042.068	1096.86
1042.232	1223.83
1042.397	1617.04
1042.561	1707.15
1042.725	1014.94
1042.889	1234.07
1043.053	1713.3
1043.217	1623.19
1043.381	1174.68
1043.544	982.17
1043.708	1778.83
1043.872	1225.88
1044.036	842.91
1044.2	996.51
1044.364	1666.19
1044.528	1750.16
1044.691	3630.2
1044.855	920.73
1045.019	1764.5
1045.183	1582.23
1045.346	1182.87
1045.51	978.08
1045.674	1535.12
1045.837	1481.88
1046.001	1057.95
1046.165	955.55
1046.328	1944.72
1046.492	1477.78
1046.655	1236.12
1046.819	1182.87
1046.983	1223.83
1047.146	1488.02
1047.31	1103
1047.473	787.61
1047.636	1287.32
1047.8	1090.71
1047.963	1000.6
1048.127	775.33
1048.29	1137.82
