Data from Hydrogel_Ink_Intensity_Test_1_USB4F045381__38__00038.txt Node

Date: Mon Jul 31 10:45:40 EDT 2023
User: mmckonesweet
Spectrometer: USB4F04538
Trigger mode: 4
Integration Time (sec): 9.000000E-1
Scans to average: 1
Electric dark correction enabled: true
Nonlinearity correction enabled: false
Boxcar width: 0
XAxis mode: Wavelengths
Number of Pixels in Spectrum: 3648
>>>>>Begin Spectral Data<<<<<
345.52	-1079.45
345.736	-1079.45
345.952	-1079.45
346.168	-938.14
346.384	-993.44
346.6	-112.81
346.816	-247.97
347.032	-211.11
347.248	229.2
347.464	-225.45
347.68	-90.28
347.896	75.6
348.112	419.66
348.328	-39.08
348.544	-98.47
348.76	44.88
348.975	255.83
349.191	-239.78
349.407	-127.14
349.623	38.74
349.839	-39.08
350.055	-90.28
350.27	53.08
350.486	173.91
350.702	343.89
350.918	280.4
351.133	-270.5
351.349	270.16
351.565	384.85
351.781	-86.19
351.996	-6.31
352.212	397.14
352.428	-100.52
352.644	-153.77
352.859	-180.39
353.075	315.22
353.291	-37.03
353.506	-141.48
353.722	-184.49
353.938	-0.17
354.153	470.86
354.369	73.56
354.584	-217.26
354.8	198.48
355.016	-270.5
355.231	-276.65
355.447	1.88
355.662	147.28
355.878	778.06
356.093	-293.03
356.309	-6.31
356.524	-243.88
356.74	350.03
356.955	-145.58
357.171	-43.18
357.386	184.15
357.602	-159.91
357.817	71.51
358.033	-63.66
358.248	395.09
358.464	132.95
358.679	-114.86
358.895	-196.78
359.11	34.64
359.325	319.31
359.541	237.39
359.756	-4.27
359.972	-135.34
360.187	188.24
360.402	-151.72
360.618	-121
360.833	1077.06
361.048	175.95
361.264	-129.19
361.479	67.41
361.694	114.52
361.909	302.93
362.125	-172.2
362.34	-69.8
362.555	221.01
362.77	161.62
362.986	-266.41
363.201	-184.49
363.416	345.94
363.631	36.69
363.847	-127.14
364.062	-53.42
364.277	227.15
364.492	161.62
364.707	-131.24
364.922	-284.84
365.138	302.93
365.353	401.23
365.568	-161.96
365.783	-53.42
365.998	204.63
366.213	622.41
366.428	-114.86
366.643	16.21
366.858	350.03
367.073	264.02
367.288	-102.57
367.503	-143.53
367.718	151.38
367.933	352.08
368.148	-192.68
368.363	40.79
368.578	83.8
368.793	532.3
369.008	-57.51
369.223	-102.57
369.438	325.46
369.653	481.1
369.868	-229.54
370.083	-174.25
370.298	149.33
370.513	429.9
370.728	85.84
370.943	-100.52
371.157	-69.8
371.372	634.7
371.587	-245.93
371.802	-180.39
372.017	85.84
372.232	479.05
372.446	16.21
372.661	-159.91
372.876	323.41
373.091	302.93
373.306	-73.9
373.52	-164.01
373.735	-63.66
373.95	532.3
374.165	32.6
374.379	-127.14
374.594	16.21
374.809	204.63
375.023	169.81
375.238	-137.38
375.453	296.78
375.667	-245.93
375.882	-16.55
376.097	10.07
376.311	202.58
376.526	48.98
376.741	-41.13
376.955	180.05
377.17	573.26
377.384	743.24
377.599	18.26
377.813	-155.82
378.028	612.17
378.242	300.88
378.457	79.7
378.672	-225.45
378.886	208.72
379.101	24.4
379.315	-274.6
379.53	-32.94
379.744	276.31
379.958	300.88
380.173	-39.08
380.387	-30.89
380.602	331.6
380.816	79.7
381.031	48.98
381.245	-2.22
381.459	286.54
381.674	2701.1
381.888	1.88
382.103	235.35
382.317	-51.37
382.531	542.54
382.746	106.32
382.96	-28.84
383.174	104.28
383.388	534.35
383.603	190.29
383.817	-139.43
384.031	304.98
384.246	644.94
384.46	169.81
384.674	554.83
384.888	225.11
385.103	259.92
385.317	-102.57
385.531	169.81
385.745	532.3
385.959	544.59
386.174	12.12
386.388	-6.31
386.602	261.97
386.816	63.32
387.03	44.88
387.244	130.9
387.458	186.19
387.672	567.12
387.887	-12.46
388.101	1.88
388.315	534.35
388.529	319.31
388.743	83.8
388.957	-41.13
389.171	505.68
389.385	-4.27
389.599	112.47
389.813	239.44
390.027	384.85
390.241	902.98
390.455	147.28
390.669	139.09
390.883	143.19
391.097	671.56
391.311	311.12
391.525	20.31
391.738	434
391.952	405.33
392.166	200.53
392.38	-34.99
392.594	601.93
392.808	477.01
393.022	253.78
393.236	81.75
393.449	419.66
393.663	372.56
393.877	-67.75
394.091	233.3
394.305	139.09
394.518	157.52
394.732	85.84
394.946	130.9
395.16	696.14
395.373	417.61
395.587	-43.18
395.801	196.43
396.015	536.4
396.228	509.77
396.442	-20.65
396.656	36.69
396.869	573.26
397.083	630.6
397.297	159.57
397.51	165.71
397.724	651.08
397.938	501.58
398.151	22.36
398.365	-20.65
398.578	530.25
398.792	739.15
399.005	313.17
399.219	190.29
399.433	501.58
399.646	624.46
399.86	352.08
400.073	431.95
400.287	520.01
400.5	393.04
400.714	302.93
400.927	350.03
401.141	552.78
401.354	1451.84
401.567	517.97
401.781	65.36
401.994	683.85
402.208	954.18
402.421	274.26
402.635	276.31
402.848	360.27
403.061	661.32
403.275	302.93
403.488	132.95
403.701	902.98
403.915	634.7
404.128	495.44
404.341	247.63
404.555	554.83
404.768	292.69
404.981	360.27
405.195	239.44
405.408	982.85
405.621	583.5
405.834	507.73
406.048	296.78
406.261	776.01
406.474	894.79
406.687	231.25
406.9	491.34
407.114	536.4
407.327	622.41
407.54	186.19
407.753	190.29
407.966	286.54
408.179	626.51
408.392	343.89
408.605	169.81
408.819	687.95
409.032	671.56
409.245	300.88
409.458	479.05
409.671	679.75
409.884	882.5
410.097	278.35
410.31	507.73
410.523	687.95
410.736	483.15
410.949	429.9
411.162	347.98
411.375	945.99
411.588	792.39
411.801	515.92
412.014	352.08
412.227	487.25
412.44	515.92
412.653	280.4
412.865	569.16
413.078	718.67
413.291	689.99
413.504	513.87
413.717	444.24
413.93	902.98
414.143	464.72
414.356	454.48
414.568	223.06
414.781	835.4
414.994	778.06
415.207	548.68
415.42	464.72
415.632	962.37
415.845	1113.92
416.058	354.13
416.271	513.87
416.483	694.09
416.696	1179.46
416.909	442.19
417.121	362.32
417.334	825.16
417.547	1146.69
417.759	423.76
417.972	526.16
418.185	630.6
418.397	1036.1
418.61	456.53
418.823	454.48
419.035	1003.33
419.248	851.78
419.46	520.01
419.673	599.88
419.885	855.88
420.098	665.42
420.311	499.53
420.523	413.52
420.736	1011.53
420.948	755.53
421.161	472.91
421.373	409.42
421.586	872.26
421.798	671.56
422.01	442.19
422.223	823.11
422.435	624.46
422.648	929.61
422.86	571.21
423.073	569.16
423.285	1056.58
423.497	479.05
423.71	579.4
423.922	649.04
424.134	1118.02
424.347	1128.26
424.559	866.12
424.771	1040.2
424.984	810.82
425.196	872.26
425.408	497.49
425.621	556.88
425.833	1253.19
426.045	1146.69
426.257	626.51
426.47	679.75
426.682	1038.15
426.894	1007.43
427.106	644.94
427.318	769.87
427.531	753.48
427.743	1177.41
427.955	714.57
428.167	1179.46
428.379	1081.16
428.591	921.42
428.804	892.74
429.016	755.53
429.228	884.55
429.44	1173.32
429.652	1025.86
429.864	683.85
430.076	945.99
430.288	970.57
430.5	845.64
430.712	888.65
430.924	1355.58
431.136	1058.63
431.348	700.23
431.56	857.93
431.772	1064.77
431.984	962.37
432.196	745.29
432.408	857.93
432.62	986.95
432.832	1232.71
433.044	1208.13
433.256	1107.78
433.468	1402.69
433.679	876.36
433.891	839.5
434.103	1150.79
434.315	1627.96
434.527	1363.78
434.739	1064.77
434.95	1111.88
435.162	1566.53
435.374	1128.26
435.586	1034.05
435.798	1124.16
436.009	919.37
436.221	1193.8
436.433	1105.73
436.645	1197.89
436.856	1208.13
437.068	1584.96
437.28	954.18
437.491	1468.22
437.703	1556.29
437.915	1410.88
438.126	1187.65
438.338	1433.41
438.55	1380.16
438.761	1498.94
438.973	1081.16
439.184	1132.36
439.396	1441.6
439.608	1607.48
439.819	1066.82
440.031	1224.51
440.242	1617.72
440.454	1558.33
440.665	1292.1
440.877	1410.88
441.088	1544
441.3	1417.02
441.511	1132.36
441.723	1265.47
441.934	1349.44
442.146	1568.57
442.357	1460.03
442.569	1634.11
442.78	1556.29
442.991	1920.82
443.203	1656.64
443.414	1242.95
443.626	1972.02
443.837	1414.98
444.048	1304.39
444.26	1187.65
444.471	1515.33
444.682	1793.85
444.894	1234.75
445.105	1220.42
445.316	1898.3
445.528	1703.74
445.739	1525.57
445.95	1529.66
446.161	1695.55
446.373	1861.43
446.584	1429.31
446.795	1474.37
447.006	1843
447.217	2197.3
447.429	1240.9
447.64	1300.29
447.851	1933.11
448.062	1728.31
448.273	1154.88
448.484	1482.56
448.695	1865.53
448.907	1630.01
449.118	1615.68
449.329	1756.99
449.54	1648.44
449.751	1632.06
449.962	1457.98
450.173	1662.78
450.384	2055.99
450.595	2199.35
450.806	1554.24
451.017	1634.11
451.228	2117.43
451.439	2090.81
451.65	1732.41
451.861	1380.16
452.072	1621.82
452.283	1879.86
452.494	1908.54
452.705	1644.35
452.915	2256.69
453.126	2019.13
453.337	1699.64
453.548	1740.6
453.759	2207.54
453.97	2500.4
454.181	2139.96
454.391	1851.19
454.602	2037.56
454.813	2092.85
455.024	2019.13
455.235	1793.85
455.445	2217.78
455.656	2264.88
455.867	2035.51
456.078	1736.51
456.288	2025.27
456.499	2279.22
456.71	1922.87
456.921	2193.2
457.131	2252.59
457.342	2262.83
457.553	2078.52
457.763	2051.89
457.974	2424.62
458.184	2408.24
458.395	1998.65
458.606	1996.6
458.816	2524.97
459.027	2860.84
459.237	2371.38
459.448	2004.79
459.659	2672.43
459.869	2936.62
460.08	2047.8
460.29	2367.28
460.501	3043.11
460.711	2443.06
460.922	2072.37
461.132	2281.27
461.343	3127.08
461.553	2221.88
461.764	2377.52
461.974	2314.03
462.184	2682.67
462.395	2864.94
462.605	2506.54
462.816	2346.8
463.026	2717.48
463.236	3057.45
463.447	2459.44
463.657	2416.43
463.867	3149.61
464.078	2862.89
464.288	2527.02
464.498	2549.55
464.709	2914.09
464.919	2697
465.129	2680.62
465.339	2588.46
465.55	2989.86
465.76	3223.33
465.97	2815.79
466.18	2701.1
466.391	3385.12
466.601	3075.88
466.811	3002.15
467.021	2895.66
467.231	3383.07
467.441	3499.81
467.651	3090.21
467.862	2805.55
468.072	3399.46
468.282	3833.63
468.492	3190.56
468.702	3286.82
468.912	3477.28
469.122	4106.01
469.332	3821.34
469.542	3254.05
469.752	3960.6
469.962	3833.63
470.172	3475.23
470.382	3477.28
470.592	4093.72
470.802	4038.42
471.012	3688.22
471.222	3604.25
471.432	4122.39
471.642	4290.32
471.852	3850.01
472.062	3823.39
472.272	3972.89
472.482	3985.18
472.691	3921.69
472.901	3745.56
473.111	4206.36
473.321	4865.8
473.531	4099.86
473.741	4239.12
473.95	4732.69
474.16	4712.21
474.37	4497.17
474.58	4232.98
474.79	5082.89
474.999	4878.09
475.209	4267.8
475.419	4697.87
475.628	4886.28
475.838	5175.05
476.048	4726.54
476.258	4683.53
476.467	5424.9
476.677	4910.86
476.886	5097.22
477.096	5115.66
477.306	5189.38
477.515	5564.16
477.725	5183.24
477.935	5279.49
478.144	5826.3
478.354	5353.22
478.563	5457.67
478.773	5443.33
478.982	5750.53
479.192	5965.56
479.401	5623.55
479.611	5426.95
479.82	5560.06
480.03	5930.75
480.239	5648.13
480.449	5684.99
480.658	6446.83
480.868	6172.41
481.077	5934.84
481.287	5940.99
481.496	6295.29
481.705	6721.26
481.915	6422.26
482.124	6438.64
482.333	6495.99
482.543	6975.21
482.752	6446.83
482.961	6446.83
483.171	6915.82
483.38	6840.04
483.589	6850.28
483.799	6610.67
484.008	6926.06
484.217	7180.01
484.426	6958.83
484.636	6823.66
484.845	7194.34
485.054	6913.77
485.263	7282.41
485.472	7065.32
485.682	7847.65
485.891	7483.11
486.1	6840.04
486.309	7247.59
486.518	7861.98
486.727	8003.29
486.936	7155.43
487.146	7765.73
487.355	8011.48
487.564	7722.72
487.773	7759.58
487.982	7624.42
488.191	7884.51
488.4	8124.12
488.609	7978.72
488.818	7952.09
489.027	8980.17
489.236	8687.31
489.445	8034.01
489.654	7915.23
489.863	8748.75
490.072	8439.51
490.281	8638.16
490.49	8378.07
490.698	8883.92
490.907	9031.37
491.116	8613.59
491.325	8396.5
491.534	9084.62
491.743	9010.89
491.952	8656.59
492.16	8783.57
492.369	9176.78
492.578	9490.12
492.787	9031.37
492.996	8777.42
493.204	9098.95
493.413	9813.7
493.622	8928.97
493.831	8941.26
494.039	9760.45
494.248	9250.5
494.457	9137.87
494.665	9037.52
494.874	9766.59
495.083	10254.01
495.291	9412.29
495.5	9309.9
495.709	9924.29
495.917	9916.09
496.126	9766.59
496.335	9768.64
496.543	10157.75
496.752	10307.26
496.96	10073.79
497.169	9690.82
497.377	10143.42
497.586	10368.7
497.794	10069.69
498.003	9807.55
498.211	10430.13
498.42	10645.17
498.628	10376.89
498.837	10010.3
499.045	10733.23
499.254	10522.29
499.462	10350.26
499.671	10616.5
499.879	11159.21
500.087	10778.29
500.296	10428.09
500.504	10577.59
500.713	11130.54
500.921	11443.88
501.129	10505.91
501.338	10407.61
501.546	11132.59
501.754	10766
501.962	11087.53
502.171	10806.96
502.379	11218.6
502.587	11650.72
502.795	11269.8
503.004	10882.74
503.212	11314.86
503.42	11607.72
503.628	11173.55
503.837	11318.95
504.045	11767.46
504.253	12148.38
504.461	11314.86
504.669	11093.68
504.877	11935.39
505.085	11900.58
505.294	11163.31
505.502	11734.69
505.71	11882.14
505.918	12072.61
506.126	11464.36
506.334	11364.01
506.542	11929.25
506.75	12084.89
506.958	11898.53
507.166	11783.84
507.374	11785.89
507.582	12766.87
507.79	11925.15
507.998	11884.19
508.206	12471.96
508.414	12387.99
508.622	12107.42
508.83	11931.3
509.037	12766.87
509.245	12385.94
509.453	12324.51
509.661	12191.39
509.869	12957.33
510.077	12379.8
510.285	12592.79
510.492	12068.51
510.7	13405.83
510.908	12580.5
511.116	12347.03
511.324	12555.93
511.531	12977.81
511.739	12869.26
511.947	12836.5
512.155	13043.34
512.362	12994.19
512.57	12615.32
512.778	12803.73
512.985	12613.27
513.193	13115.02
513.401	13608.58
513.608	12760.72
513.816	12947.09
514.024	13323.91
514.231	13244.04
514.439	12953.23
514.646	12846.74
514.854	13627.01
515.061	13350.54
515.269	13022.86
515.477	12891.79
515.684	13385.35
515.892	13983.36
516.099	13205.13
516.307	13145.74
516.514	13700.74
516.722	13891.2
516.929	13377.16
517.136	13270.67
517.344	13739.65
517.551	13878.91
517.759	13344.39
517.966	13239.95
518.173	13899.39
518.381	13821.57
518.588	13723.27
518.796	13649.54
519.003	14341.75
519.21	14130.81
519.418	13803.14
519.625	14063.23
519.832	14161.53
520.039	14212.73
520.247	13991.55
520.454	13977.22
520.661	14384.76
520.868	14618.23
521.076	14317.18
521.283	14075.52
521.49	14937.71
521.697	14415.48
521.904	14358.14
522.112	14212.73
522.319	14872.18
522.526	14528.12
522.733	14282.36
522.94	14546.55
523.147	14737.01
523.354	14827.12
523.561	14605.94
523.768	14646.9
523.975	15283.82
524.183	15126.13
524.39	14782.07
524.597	14861.94
524.804	15167.09
525.011	15093.36
525.218	14532.22
525.425	15025.78
525.632	15627.88
525.838	15087.22
526.045	14831.22
526.252	14925.43
526.459	16340.57
526.666	16256.61
526.873	15158.89
527.08	15222.38
527.287	15758.95
527.494	15570.54
527.701	15441.51
527.907	15478.38
528.114	15605.35
528.321	15535.72
528.528	15369.83
528.735	15640.17
528.941	15754.85
529.148	15216.24
529.355	15629.93
529.562	15599.21
529.768	16080.48
529.975	15593.06
530.182	15251.05
530.388	15459.95
530.595	16428.63
530.802	15767.14
531.008	16131.68
531.215	15976.03
531.422	17030.74
531.628	16922.2
531.835	15879.78
532.042	16123.49
532.248	16299.61
532.455	16391.77
532.661	16168.54
532.868	16086.62
533.074	16496.22
533.281	16533.08
533.487	16338.52
533.694	16404.06
533.9	16610.9
534.107	16793.17
534.313	16422.49
534.52	16391.77
534.726	17303.12
534.933	17395.28
535.139	16633.43
535.345	16283.23
535.552	17120.85
535.758	17006.16
535.965	16850.52
536.171	16715.35
536.377	17135.18
536.584	17170
536.79	16875.09
536.996	17243.73
537.203	17368.65
537.409	17243.73
537.615	17303.12
537.821	17213.01
538.028	17690.18
538.234	17489.48
538.44	17253.97
538.646	17161.81
538.853	17741.38
539.059	17606.22
539.265	17622.6
539.471	17370.7
539.677	17700.42
539.883	17495.63
540.09	17358.41
540.296	18189.89
540.502	18105.92
540.708	17862.21
540.914	18081.35
541.12	17696.33
541.326	18386.49
541.532	18058.82
541.738	18052.67
541.944	18112.06
542.15	18687.54
542.356	18296.38
542.562	18329.15
542.768	18153.02
542.974	19000.88
543.18	18945.59
543.386	18390.59
543.592	18030.15
543.798	18748.98
544.004	18996.79
544.21	18261.57
544.415	18320.96
544.621	18685.5
544.827	19058.23
545.033	18509.37
545.239	18644.54
545.445	18718.26
545.651	18636.34
545.856	18361.92
546.062	18968.12
546.268	18916.92
546.474	19027.51
546.679	18705.98
546.885	18957.88
547.091	18794.04
547.297	19228.21
547.502	18925.11
547.708	18593.34
547.914	18972.21
548.119	19336.75
548.325	18730.55
548.531	18447.93
548.736	19342.89
548.942	19193.39
549.147	19041.84
549.353	19390
549.559	19584.55
549.764	19310.13
549.97	18994.74
550.175	19301.93
550.381	19719.72
550.586	19285.55
550.792	19459.63
550.997	19447.34
551.203	19828.26
551.408	19467.82
551.614	19017.27
551.819	19150.39
552.025	20055.59
552.23	20174.37
552.435	19584.55
552.641	20076.07
552.846	20143.65
553.052	20723.23
553.257	20065.83
553.462	19988
553.668	20000.29
553.873	20330.02
554.078	20063.78
554.283	20186.66
554.489	20381.21
554.694	20424.22
554.899	20143.65
555.105	20428.32
555.31	20643.35
555.515	20500
555.72	20373.02
555.925	20184.61
556.131	20780.57
556.336	20567.58
556.541	20295.2
556.746	20135.46
556.951	20790.81
557.156	21032.47
557.361	20373.02
557.567	20737.56
557.772	21022.23
557.977	20749.85
558.182	20379.17
558.387	20659.74
558.592	20538.91
558.797	21192.21
559.002	20794.9
559.207	20819.48
559.412	20799
559.617	21134.87
559.822	20782.62
560.027	20495.9
560.232	20905.49
560.437	21427.73
560.642	20647.45
560.847	20809.24
561.051	21444.11
561.256	21212.69
561.461	21046.8
561.666	21011.99
561.871	21116.44
562.076	21442.06
562.281	21171.73
562.485	21061.14
562.69	21874.18
562.895	21509.65
563.1	21288.46
563.305	20919.83
563.509	21700.11
563.714	22046.21
563.919	21151.25
564.123	21083.67
564.328	21403.15
564.533	22064.64
564.737	21028.37
564.942	21456.4
565.147	22377.98
565.351	22027.78
565.556	21480.97
565.761	21579.28
565.965	21888.52
566.17	21696.01
566.374	21511.69
566.579	21435.92
566.784	21796.36
566.988	21755.4
567.193	21558.8
567.397	21351.95
567.602	21886.47
567.806	21966.34
568.011	21671.43
568.215	21812.74
568.42	21978.63
568.624	22244.87
568.828	21939.72
569.033	22218.24
569.237	22398.46
569.442	22425.09
569.646	21597.71
569.85	21915.14
570.055	22310.4
570.259	22412.8
570.463	22296.07
570.668	22060.55
570.872	22326.78
571.076	22459.9
571.281	22228.48
571.485	22304.26
571.689	22617.6
571.893	22658.56
572.098	22525.44
572.302	22253.06
572.506	22619.64
572.71	22576.64
572.914	22334.98
573.119	22437.37
573.323	23023.09
573.527	23250.42
573.731	22748.67
573.935	22851.06
574.139	23141.88
574.343	22711.8
574.547	22355.46
574.751	22568.44
574.955	23211.51
575.159	23129.59
575.364	22420.99
575.568	22558.21
575.772	23236.08
575.976	23723.5
576.18	22547.97
576.383	22842.87
576.587	23428.59
576.791	23285.23
576.995	22877.69
577.199	23092.72
577.403	23363.06
577.607	23561.71
577.811	22951.42
578.015	23207.41
578.219	23694.83
578.422	23442.93
578.626	23465.46
578.83	23637.48
579.034	23901.67
579.238	23645.68
579.442	23191.03
579.645	23795.18
579.849	23369.2
580.053	24065.51
580.257	23436.78
580.46	23870.95
580.664	24051.17
580.868	23653.87
581.071	23721.45
581.275	23690.73
581.479	23674.35
581.682	23805.42
581.886	23684.59
582.09	23924.2
582.293	24159.72
582.497	23936.49
582.7	23729.64
582.904	23698.92
583.107	24055.27
583.311	23907.82
583.515	23920.1
583.718	23791.08
583.922	24245.73
584.125	24733.15
584.329	23567.85
584.532	24071.65
584.735	24780.25
584.939	24542.69
585.142	24217.06
585.346	24049.13
585.549	24776.16
585.753	24446.43
585.956	24272.35
586.159	24839.64
586.363	25132.5
586.566	24595.93
586.769	24288.74
586.973	24085.99
587.176	24847.83
587.379	25042.39
587.582	24993.24
587.786	24645.09
587.989	25066.97
588.192	25748.94
588.395	24858.07
588.599	24710.62
588.802	25173.46
589.005	25069.01
589.208	24808.92
589.411	25146.84
589.615	25230.8
589.818	25601.49
590.021	25091.54
590.224	25128.41
590.427	25222.61
590.63	25435.6
590.833	24933.85
591.036	25146.84
591.239	25382.35
591.442	25775.56
591.645	25271.76
591.848	25195.99
592.051	25673.17
592.254	25830.86
592.457	25433.55
592.66	25443.79
592.863	25980.36
593.066	25744.84
593.269	25413.07
593.472	25609.68
593.675	25925.07
593.878	25974.22
594.081	25900.49
594.284	25943.5
594.486	26002.89
594.689	26308.04
594.892	25701.84
595.095	26013.13
595.298	26168.77
595.5	26240.45
595.703	26117.57
595.906	25994.7
596.109	26455.49
596.311	26469.83
596.514	25734.6
596.717	26066.38
596.92	26801.6
597.122	26813.88
597.325	26207.69
597.528	26445.25
597.73	27045.3
597.933	26729.92
598.136	26650.05
598.338	26136.01
598.541	26748.35
598.743	26762.68
598.946	26346.95
599.148	26449.35
599.351	26895.8
599.554	27272.63
599.756	26213.83
599.959	26549.7
600.161	27162.04
600.363	27274.68
600.566	27170.23
600.768	26453.44
600.971	27321.78
601.173	27176.37
601.376	26459.59
601.578	26656.19
601.78	26947
601.983	27592.11
602.185	26609.09
602.388	27076.02
602.59	27035.06
602.792	27159.99
602.995	26934.71
603.197	26805.69
603.399	27440.56
603.601	27137.46
603.804	26879.42
604.006	27010.49
604.208	27342.26
604.41	26777.02
604.613	27082.17
604.815	26803.64
605.017	27633.07
605.219	27174.33
605.421	27246.01
605.623	26754.49
605.826	27788.72
606.028	27936.17
606.23	27286.96
606.432	26924.47
606.634	28048.81
606.836	27866.54
607.038	27094.46
607.24	27534.77
607.442	27309.49
607.644	27778.48
607.846	27241.91
608.048	27659.7
608.25	27723.18
608.452	27211.19
608.654	27385.27
608.856	26969.53
609.058	27766.19
609.26	27590.06
609.462	27223.48
609.664	27628.98
609.866	27794.86
610.067	27553.2
610.269	27336.12
610.471	27534.77
610.673	28020.14
610.875	27792.81
611.077	27323.83
611.278	27655.6
611.48	27329.97
611.682	28206.5
611.884	27958.7
612.085	27346.36
612.287	27835.82
612.489	27893.16
612.69	27180.47
612.892	27682.22
613.094	28159.4
613.295	27698.61
613.497	27334.07
613.699	27669.94
613.9	28202.41
614.102	28095.91
614.304	27635.12
614.505	27203
614.707	27604.4
614.908	27749.81
615.11	27301.3
615.311	27809.2
615.513	27766.19
615.714	27839.92
615.916	27571.63
616.117	27571.63
616.319	27731.37
616.52	27829.68
616.722	27708.85
616.923	27536.82
617.124	28700.06
617.326	27911.6
617.527	27919.79
617.729	28212.65
617.93	28134.82
618.131	28362.15
618.333	27776.43
618.534	28229.03
618.735	27960.75
618.937	28622.24
619.138	27563.44
619.339	27758
619.54	28257.7
619.742	27786.67
619.943	27930.03
620.144	28095.91
620.345	28407.2
620.546	28585.38
620.748	27829.68
620.949	27956.65
621.15	28112.3
621.351	28374.44
621.552	27964.84
621.753	27573.68
621.954	27821.48
622.155	28276.13
622.356	27731.37
622.558	28198.31
622.759	28245.41
622.96	28493.22
623.161	28093.86
623.362	27835.82
623.563	28317.09
623.764	28327.33
623.965	28179.88
624.166	28704.16
624.366	27934.12
624.567	28595.62
624.768	28134.82
624.969	28011.95
625.17	28362.15
625.371	28274.09
625.572	28190.12
625.773	27919.79
625.973	28704.16
626.174	28573.09
626.375	28413.35
626.576	28702.11
626.777	28913.05
626.977	28536.23
627.178	28661.15
627.379	28628.38
627.58	28900.76
627.78	28423.59
627.981	28505.51
628.182	28562.85
628.382	29031.83
628.583	28382.63
628.784	28255.65
628.984	27940.27
629.185	28820.89
629.386	28523.94
629.586	28804.51
629.787	28374.44
629.987	28812.7
630.188	28753.31
630.388	28513.7
630.589	28675.49
630.79	29320.6
630.99	28865.95
631.191	28454.31
631.391	28900.76
631.591	28921.24
631.792	29210.01
631.992	28966.3
632.193	28915.1
632.393	28999.07
632.594	28732.83
632.794	28450.21
632.994	28820.89
633.195	28710.3
633.395	29142.42
633.595	28384.68
633.796	29040.03
633.996	29169.05
634.196	29371.8
634.397	28798.37
634.597	28851.61
634.797	28986.78
634.997	29189.53
635.198	28966.3
635.398	28519.84
635.598	28960.16
635.798	29449.62
635.998	29212.06
636.199	28640.67
636.399	29064.6
636.599	28960.16
636.799	29107.61
636.999	29205.91
637.199	28900.76
637.399	29468.05
637.599	28900.76
637.799	28691.87
637.999	29390.23
638.199	29711.76
638.399	28757.41
638.599	28935.58
638.799	29470.1
638.999	29900.17
639.199	29216.15
639.399	29250.97
639.599	30133.64
639.799	29281.69
639.999	28728.73
640.199	28761.5
640.399	29314.45
640.599	28464.55
640.799	29779.34
640.998	29167
641.198	29640.08
641.398	29466
641.598	28964.25
641.798	29240.73
641.997	30137.74
642.197	29021.59
642.397	29326.74
642.597	29308.31
642.796	29783.44
642.996	29691.28
643.196	29388.18
643.395	29412.76
643.595	29394.32
643.795	29431.19
643.994	29736.34
644.194	29556.11
644.394	29822.35
644.593	29572.5
644.793	29261.21
644.992	29496.72
645.192	30051.72
645.392	29474.2
645.591	29707.66
645.791	29726.1
645.99	29834.64
646.19	29883.79
646.389	29857.17
646.589	29453.72
646.788	30043.53
646.987	30190.98
647.187	30037.39
647.386	30061.96
647.586	30238.09
647.785	30432.64
647.984	29803.92
648.184	30246.28
648.383	29975.95
648.582	30092.68
648.782	29945.23
648.981	29599.12
649.18	29689.23
649.38	30350.73
649.579	29545.87
649.778	30029.2
649.977	30504.32
650.177	30383.49
650.376	30074.25
650.575	29535.63
650.774	30686.59
650.973	30076.3
651.173	29789.58
651.372	29973.9
651.571	30176.65
651.77	30010.76
651.969	30059.91
652.168	30004.62
652.367	29777.29
652.566	30152.07
652.765	29799.82
652.964	30117.26
653.163	31114.62
653.362	30348.68
653.561	29998.48
653.76	30014.86
653.959	30080.39
654.158	30633.35
654.357	29971.85
654.556	29818.25
654.755	30721.41
654.954	30455.17
655.153	30061.96
655.352	30438.79
655.551	30637.44
655.749	30332.29
655.948	29988.24
656.147	30653.83
656.346	30745.98
656.545	30463.36
656.743	30504.32
656.942	30475.65
657.141	30762.37
657.34	30391.69
657.538	30487.94
657.737	30229.9
657.936	30657.92
658.135	30711.17
658.333	30690.69
658.532	30324.1
658.731	31094.14
658.929	30864.77
659.128	30293.38
659.326	30150.03
659.525	30739.84
659.724	30479.75
659.922	30150.03
660.121	29939.08
660.319	30676.35
660.518	30182.79
660.716	30377.35
660.915	30793.09
661.113	31110.52
661.312	30381.45
661.51	30748.03
661.709	30442.88
661.907	30811.52
662.105	31032.7
662.304	30403.97
662.502	30320.01
662.701	31028.6
662.899	30297.48
663.097	31042.94
663.296	30287.24
663.494	30897.53
663.692	31108.47
663.891	30805.38
664.089	30561.67
664.287	30778.75
664.485	30875.01
664.684	30604.67
664.882	30391.69
665.08	30619.01
665.278	30913.92
665.476	30459.27
665.675	30852.48
665.873	31083.9
666.071	31006.08
666.269	30565.76
666.467	30565.76
666.665	30963.07
666.863	30569.86
667.061	30758.27
667.259	30707.07
667.457	31042.94
667.655	31012.22
667.853	30369.16
668.051	30330.25
668.249	30754.18
668.447	30963.07
668.645	30158.22
668.843	30772.61
669.041	30365.06
669.239	30563.71
669.437	30424.45
669.635	30776.7
669.833	30442.88
670.031	30465.41
670.229	30252.42
670.426	30317.96
670.624	30514.56
670.822	30389.64
671.02	30463.36
671.218	30291.34
671.415	30512.52
671.613	30291.34
671.811	30291.34
672.009	30494.08
672.206	30844.29
672.404	30631.3
672.602	30279.05
672.799	30551.43
672.997	30723.46
673.195	30846.33
673.392	30729.6
673.59	30186.89
673.788	30606.72
673.985	29885.84
674.183	30219.66
674.38	30111.11
674.578	30281.1
674.775	30166.41
674.973	29902.22
675.17	29765.01
675.368	30676.35
675.565	30850.43
675.763	30195.08
675.96	30172.55
676.158	30786.94
676.355	30186.89
676.553	30621.06
676.75	30006.67
676.947	30530.95
677.145	30186.89
677.342	30342.53
677.539	30219.66
677.737	30291.34
677.934	31071.61
678.131	30528.9
678.329	30285.19
678.526	30637.44
678.723	30244.23
678.92	30049.67
679.118	29711.76
679.315	29758.86
679.512	30338.44
679.709	30160.27
679.906	29652.37
680.104	30367.11
680.301	30461.32
680.498	29810.06
680.695	29427.09
680.892	29699.47
681.089	29904.27
681.286	30006.67
681.483	29963.66
681.68	30260.62
681.877	30602.63
682.075	30057.87
682.272	30012.81
682.469	30070.15
682.665	30092.68
682.862	29844.88
683.059	29703.57
683.256	29975.95
683.453	30053.77
683.65	29775.25
683.847	29719.95
684.044	29767.06
684.241	29427.09
684.438	29982.09
684.635	28937.63
684.831	30342.53
685.028	30147.98
685.225	29797.77
685.422	29699.47
685.619	29572.5
685.815	29609.36
686.012	29549.97
686.209	29175.19
686.405	29433.24
686.602	29990.28
686.799	28857.76
686.996	29590.93
687.192	29379.99
687.389	30107.02
687.586	29488.53
687.782	29486.48
687.979	30059.91
688.175	29328.79
688.372	29154.71
688.568	29123.99
688.765	29140.38
688.962	29537.68
689.158	29220.25
689.355	29349.27
689.551	29513.11
689.748	29318.55
689.944	29132.18
690.14	28890.52
690.337	29300.12
690.533	29302.17
690.73	29107.61
690.926	29224.34
691.123	29279.64
691.319	29447.57
691.515	29171.1
691.712	29253.01
691.908	29619.6
692.104	29250.97
692.301	29269.4
692.497	29007.26
692.693	29230.49
692.889	29191.58
693.086	29150.62
693.282	28880.28
693.478	28908.96
693.674	29494.68
693.87	28704.16
694.067	28814.75
694.263	29271.45
694.459	29418.9
694.655	28908.96
694.851	28964.25
695.047	29377.94
695.243	29332.89
695.439	28941.72
695.635	28851.61
695.831	29083.03
696.027	29324.69
696.224	28695.97
696.42	29197.72
696.615	29666.7
696.811	29263.25
697.007	28728.73
697.203	28493.22
697.399	29013.4
697.595	28984.73
697.791	28571.04
697.987	28601.76
698.183	28302.76
698.379	28296.61
698.575	28544.42
698.77	28474.79
698.966	28601.76
699.162	29142.42
699.358	28620.19
699.554	28200.36
699.749	28892.57
699.945	28980.64
700.141	28460.45
700.337	28265.89
700.532	28255.65
700.728	28274.09
700.924	28818.85
701.119	28143.02
701.315	28538.27
701.511	28313
701.706	28646.82
701.902	27989.42
702.097	28562.85
702.293	28573.09
702.489	28222.89
702.684	28188.07
702.88	28251.56
703.075	28267.94
703.271	28145.06
703.466	27938.22
703.662	28548.51
703.857	28902.81
704.053	28394.92
704.248	28229.03
704.443	28999.07
704.639	28923.29
704.834	28190.12
705.03	27975.08
705.225	28609.95
705.42	29017.5
705.616	27936.17
705.811	27823.53
706.006	28085.67
706.202	28331.43
706.397	28241.32
706.592	28188.07
706.787	28210.6
706.983	28284.33
707.178	28419.49
707.373	27995.56
707.568	28286.37
707.763	28413.35
707.959	27884.97
708.154	28022.19
708.349	27954.6
708.544	28263.85
708.739	27946.41
708.934	27661.74
709.129	28405.16
709.324	28347.81
709.519	27766.19
709.714	27782.57
709.909	28667.3
710.104	28075.43
710.299	27665.84
710.494	27927.98
710.689	27758
710.884	28104.1
711.079	27827.63
711.274	27835.82
711.469	28249.51
711.664	28327.33
711.859	28001.71
712.054	27948.46
712.249	27960.75
712.443	28274.09
712.638	27651.5
712.833	27397.56
713.028	27893.16
713.223	27491.76
713.417	27839.92
713.612	27502
713.807	27762.09
714.002	28353.96
714.196	27698.61
714.391	27254.2
714.586	28151.21
714.78	27714.99
714.975	27583.92
715.17	27696.56
715.364	27772.33
715.559	28171.69
715.754	26969.53
715.948	27145.66
716.143	27731.37
716.337	27415.99
716.532	27708.85
716.726	27080.12
716.921	27739.57
717.115	28028.33
717.31	27256.25
717.504	27952.55
717.699	27729.33
717.893	27862.44
718.088	27172.28
718.282	27076.02
718.476	27692.46
718.671	27454.9
718.865	27178.42
719.059	27360.69
719.254	27252.15
719.448	27540.91
719.642	28732.83
719.837	26795.45
720.031	27647.41
720.225	27051.45
720.419	26908.09
720.614	26639.81
720.808	27258.29
721.002	27102.65
721.196	26617.28
721.39	26514.88
721.585	27671.98
721.779	27121.08
721.973	26430.91
722.167	26000.84
722.361	26256.84
722.555	27084.22
722.749	26332.61
722.943	26451.39
723.137	26381.76
723.331	26807.74
723.525	26457.54
723.719	26645.95
723.913	26652.09
724.107	27352.5
724.301	26736.06
724.495	26643.9
724.689	27190.71
724.883	26654.14
725.077	26514.88
725.271	26301.89
725.465	26494.4
725.659	26516.93
725.853	26373.57
726.046	26172.87
726.24	26166.73
726.434	26480.07
726.628	26062.28
726.822	26498.5
727.015	27188.66
727.209	26877.37
727.403	26713.53
727.596	26029.51
727.79	26820.03
727.984	26899.9
728.177	26400.19
728.371	26549.7
728.565	26934.71
728.758	26641.85
728.952	26305.99
729.146	26389.95
729.339	26758.59
729.533	26652.09
729.726	26459.59
729.92	26326.47
730.113	26887.61
730.307	26693.05
730.5	26269.12
730.694	26537.41
730.887	26344.9
731.081	26873.28
731.274	26783.16
731.468	26357.19
731.661	26553.79
731.854	26463.68
732.048	26273.22
732.241	26496.45
732.435	26504.64
732.628	26396.1
732.821	26179.01
733.014	26230.21
733.208	26502.59
733.401	26582.46
733.594	26287.56
733.788	26062.28
733.981	26910.14
734.174	26461.63
734.367	26029.51
734.56	26328.52
734.754	26564.03
734.947	26525.12
735.14	26250.69
735.333	26289.6
735.526	26897.85
735.719	26742.21
735.912	26406.34
736.105	26029.51
736.298	26467.78
736.491	26189.25
736.684	26152.39
736.877	26164.68
737.07	26346.95
737.263	26727.87
737.456	26111.43
737.649	25951.69
737.842	26310.08
738.035	26361.28
738.228	25656.78
738.421	26240.45
738.614	26287.56
738.807	26877.37
739	25626.06
739.192	25718.22
739.385	26533.31
739.578	26207.69
739.771	25988.55
739.964	25765.32
740.156	26142.15
740.349	26230.21
740.542	26074.57
740.735	25388.5
740.927	26019.27
741.12	25853.39
741.313	25609.68
741.505	25988.55
741.698	25976.26
741.891	26088.9
742.083	26146.25
742.276	25626.06
742.468	26222.02
742.661	25880.01
742.854	26156.49
743.046	25339.35
743.239	26265.03
743.431	26121.67
743.624	25867.72
743.816	25550.29
744.009	25771.47
744.201	26248.64
744.393	25529.81
744.586	25402.83
744.778	26060.23
744.971	25683.41
745.163	25730.51
745.355	25615.82
745.548	25540.05
745.74	25681.36
745.932	25802.19
746.125	25679.31
746.317	26322.37
746.509	25525.71
746.702	25474.51
746.894	25257.43
747.086	25570.77
747.278	25816.52
747.471	25247.19
747.663	25234.9
747.855	25437.65
748.047	25542.1
748.239	25359.83
748.431	25427.41
748.623	25986.5
748.815	25834.96
749.008	25662.93
749.2	25402.83
749.392	25578.96
749.584	25449.94
749.776	25239
749.968	25507.28
750.16	25783.76
750.352	25005.53
750.544	25212.37
750.736	25150.93
750.928	25599.44
751.12	25388.5
751.311	24923.61
751.503	25470.42
751.695	25746.89
751.887	25247.19
752.079	25191.89
752.271	25038.3
752.463	26136.01
752.654	25576.91
752.846	25363.92
753.038	25155.03
753.23	24993.24
753.421	25349.59
753.613	24882.65
753.805	25255.38
753.997	24806.87
754.188	25476.56
754.38	24972.76
754.572	24909.27
754.763	25093.59
754.955	25132.5
755.146	24813.02
755.338	24675.8
755.53	24632.8
755.721	24688.09
755.913	24346.08
756.104	24245.73
756.296	24849.88
756.487	24536.54
756.679	24436.19
756.87	24454.62
757.062	24772.06
757.253	25413.07
757.445	24632.8
757.636	24860.12
757.827	24991.19
758.019	25546.19
758.21	24518.11
758.401	24438.24
758.593	25386.45
758.784	25374.16
758.975	24356.32
759.167	24317.41
759.358	24974.81
759.549	25212.37
759.74	24337.89
759.932	24808.92
760.123	24731.1
760.314	24432.1
760.505	24184.29
760.696	24063.46
760.888	24923.61
761.079	24036.84
761.27	24067.56
761.461	23965.16
761.652	24692.19
761.843	24554.97
762.034	24184.29
762.225	24524.26
762.416	24442.34
762.607	24114.66
762.798	23856.62
762.989	23997.93
763.18	24827.35
763.371	23825.9
763.562	23793.13
763.753	23180.79
763.944	24059.37
764.135	23735.79
764.326	23754.22
764.517	23391.73
764.708	23899.62
764.899	23733.74
765.089	23410.16
765.28	23391.73
765.471	23770.6
765.662	23801.32
765.853	23047.67
766.043	23238.13
766.234	23922.15
766.425	23555.57
766.615	23444.98
766.806	23285.23
766.997	23823.85
767.187	23541.23
767.378	23221.75
767.569	22781.43
767.759	23406.06
767.95	23438.83
768.141	23285.23
768.331	23000.57
768.522	23186.93
768.712	23334.39
768.903	22826.49
769.093	22867.45
769.284	23318
769.474	23002.61
769.665	22386.18
769.855	22570.49
770.046	23105.01
770.236	23262.71
770.426	22789.63
770.617	22830.58
770.807	23225.84
770.998	23223.79
771.188	22558.21
771.378	22633.98
771.569	23051.77
771.759	23399.92
771.949	22255.11
772.139	22224.39
772.33	22500.86
772.52	22922.74
772.71	22279.68
772.9	22130.18
773.09	22863.35
773.281	22836.73
773.471	21839.37
773.661	22177.28
773.851	22601.21
774.041	22511.1
774.231	21984.77
774.421	22177.28
774.611	22691.32
774.802	22527.49
774.992	22242.82
775.182	21984.77
775.372	22193.67
775.562	22392.32
775.752	21978.63
775.942	21802.5
776.131	22924.79
776.321	22390.27
776.511	21857.8
776.701	22179.33
776.891	22517.25
777.081	21913.09
777.271	21868.04
777.461	21843.46
777.651	22228.48
777.84	22291.97
778.03	21509.65
778.22	21399.05
778.41	21906.95
778.599	21702.15
778.789	21161.49
778.979	21286.42
779.169	21313.04
779.358	21526.03
779.548	21687.82
779.738	21018.13
779.927	21202.45
780.117	21413.39
780.307	21284.37
780.496	21102.1
780.686	21317.14
780.875	22222.34
781.065	21407.25
781.254	21224.98
781.444	21222.93
781.633	21831.18
781.823	21356.05
782.012	21040.66
782.202	21468.69
782.391	21278.22
782.581	20794.9
782.77	21577.23
782.96	21698.06
783.149	20899.35
783.338	20993.56
783.528	20966.93
783.717	21466.64
783.906	21546.51
784.096	20911.64
784.285	20872.73
784.474	21022.23
784.663	21112.34
784.853	21009.94
785.042	20856.34
785.231	20872.73
785.42	21454.35
785.61	20676.12
785.799	20690.46
785.988	20833.82
786.177	20481.56
786.366	20700.7
786.555	20850.2
786.744	21327.38
786.933	20866.58
787.122	20663.83
787.312	20416.03
787.501	20516.38
787.69	20631.07
787.879	20225.57
788.068	20440.61
788.257	20000.29
788.445	20188.71
788.634	20360.73
788.823	19848.74
789.012	21081.62
789.201	20901.4
789.39	20098.59
789.579	19965.48
789.768	20407.84
789.957	20370.97
790.145	19695.14
790.334	20024.87
790.523	20325.92
790.712	20119.07
790.9	20014.63
791.089	19785.26
791.278	20567.58
791.467	20258.34
791.655	20506.14
791.844	20434.46
792.033	19981.86
792.221	19967.52
792.41	19760.68
792.599	19375.66
792.787	20016.68
792.976	20092.45
793.164	19439.15
793.353	19930.66
793.541	20293.15
793.73	20045.35
793.918	20133.41
794.107	19373.61
794.295	19684.9
794.484	19742.25
794.672	19734.06
794.861	19678.76
795.049	19641.9
795.238	20037.16
795.426	19301.93
795.614	19457.58
795.803	19914.28
795.991	19830.31
796.179	19328.56
796.368	19269.17
796.556	19791.4
796.744	19236.4
796.932	19355.18
797.121	19125.81
797.309	19621.42
797.497	19824.17
797.685	19123.76
797.874	19510.83
798.062	19490.35
798.25	19772.97
798.438	19330.61
798.626	19213.87
798.814	19906.09
799.002	20235.81
799.19	19334.7
799.378	19279.41
799.566	19736.1
799.755	19525.16
799.943	19375.66
800.131	19492.4
800.318	19877.41
800.506	19527.21
800.694	19019.32
800.882	19170.86
801.07	19832.36
801.258	19496.49
801.446	19224.11
801.634	19004.98
801.822	19269.17
802.01	19459.63
802.197	19002.93
802.385	19275.31
802.573	19605.03
802.761	19172.91
802.949	19213.87
803.136	19375.66
803.324	19846.69
803.512	19807.78
803.699	19572.27
803.887	18984.5
804.075	19826.21
804.262	19607.08
804.45	19428.91
804.638	19490.35
804.825	19547.69
805.013	19658.28
805.201	19645.99
805.388	19441.2
805.576	19602.99
805.763	19985.96
805.951	19207.73
806.138	19385.9
806.326	19936.81
806.513	19775.02
806.701	19369.52
806.888	19516.97
807.075	19760.68
807.263	20082.21
807.45	19453.48
807.638	19656.23
807.825	20200.99
808.012	20246.05
808.2	19740.2
808.387	19811.88
808.574	20205.09
808.761	20436.51
808.949	19396.14
809.136	19699.24
809.323	19678.76
809.51	19596.84
809.698	19846.69
809.885	19766.82
810.072	19830.31
810.259	20108.83
810.446	19732.01
810.633	19592.75
810.82	20119.07
811.008	20383.26
811.195	20031.01
811.382	20033.06
811.569	20018.72
811.756	19467.82
811.943	19736.1
812.13	19572.27
812.317	19482.16
812.504	20055.59
812.691	20000.29
812.878	19598.89
813.064	20704.79
813.251	20082.21
813.438	19570.22
813.625	19811.88
813.812	19703.34
813.999	20102.69
814.186	19766.82
814.372	19664.43
814.559	19879.46
814.746	20069.92
814.933	19314.22
815.12	19578.41
815.306	19527.21
815.493	19537.45
815.68	19543.6
815.866	19271.22
816.053	19740.2
816.24	20229.66
816.426	19273.26
816.613	19373.61
816.799	19748.39
816.986	20121.12
817.173	19514.92
817.359	19324.46
817.546	19854.89
817.732	19050.03
817.919	19607.08
818.105	19676.71
818.292	19803.69
818.478	19645.99
818.665	19715.62
818.851	19732.01
819.037	20356.64
819.224	19877.41
819.41	19187.25
819.597	19117.62
819.783	20268.58
819.969	19502.64
820.156	19289.65
820.342	19387.95
820.528	20280.86
820.714	19768.87
820.901	19838.5
821.087	19533.36
821.273	19879.46
821.459	19590.7
821.646	19123.76
821.832	19220.02
822.018	19574.31
822.204	19275.31
822.39	19142.19
822.576	18929.2
822.762	19428.91
822.948	19279.41
823.134	19211.82
823.32	18972.21
823.507	19099.19
823.693	19471.92
823.879	19594.79
824.065	19134
824.25	19123.76
824.436	19050.03
824.622	18712.12
824.808	18769.46
824.994	19226.16
825.18	19004.98
825.366	18853.43
825.552	18951.73
825.738	18830.9
825.923	19088.95
826.109	18959.92
826.295	18503.23
826.481	18728.5
826.667	18812.47
826.852	18886.2
827.038	18802.23
827.224	19052.08
827.409	19248.69
827.595	18615.87
827.781	18791.99
827.966	19426.86
828.152	19191.34
828.338	18732.6
828.523	18193.98
828.709	18658.87
828.894	19066.42
829.08	18447.93
829.266	18417.21
829.451	18671.16
829.637	18581.05
829.822	18636.34
830.008	18247.23
830.193	18570.81
830.378	18839.09
830.564	18265.66
830.749	18165.31
830.935	18595.39
831.12	18617.91
831.305	18218.56
831.491	18402.88
831.676	18538.04
831.861	18652.73
832.047	18404.92
832.232	18017.86
832.417	18822.71
832.602	18480.7
832.788	18083.39
832.973	18323.01
833.158	18280
833.343	18298.43
833.528	18425.4
833.714	18067.01
833.899	18435.64
834.084	18398.78
834.269	18003.52
834.454	17989.19
834.639	18705.98
834.824	18263.61
835.009	18329.15
835.194	17833.54
835.379	18497.08
835.564	18308.67
835.749	17954.37
835.934	17552.97
836.119	18155.07
836.304	18214.46
836.489	17882.69
836.674	17860.16
836.859	17944.13
837.044	18501.18
837.228	17702.47
837.413	17571.4
837.598	18255.42
837.783	18052.67
837.968	17491.53
838.152	17428.04
838.337	17284.69
838.522	18034.24
838.707	18079.3
838.891	17841.73
839.076	18024
839.261	18075.2
839.445	17700.42
839.63	17622.6
839.815	18120.26
839.999	17546.83
840.184	17444.43
840.368	17217.1
840.553	17802.82
840.737	17581.64
840.922	17069.65
841.106	17026.64
841.291	17227.34
841.475	17239.63
841.66	16758.36
841.844	17161.81
842.029	17944.13
842.213	17004.11
842.397	16705.11
842.582	16754.26
842.766	17604.17
842.951	17466.95
843.135	16907.86
843.319	16827.99
843.504	17157.71
843.688	17583.69
843.872	16692.82
844.056	16881.24
844.241	17124.94
844.425	17022.55
844.609	17057.36
844.793	16445.02
844.977	17296.97
845.161	16946.77
845.346	16619.1
845.53	16678.49
845.714	16623.19
845.898	17147.47
846.082	16522.84
846.266	16502.36
846.45	16907.86
846.634	16928.34
846.818	16551.51
847.002	16725.59
847.186	16899.67
847.37	16584.28
847.554	16508.51
847.738	16809.56
847.922	17045.07
848.106	16737.88
848.29	16234.08
848.473	16451.16
848.657	16715.35
848.841	16576.09
849.025	16422.49
849.209	16086.62
849.392	16664.15
849.576	16496.22
849.76	15627.88
849.944	16084.58
850.127	16873.04
850.311	16014.94
850.495	15838.82
850.678	16039.52
850.862	16649.82
851.046	16660.06
851.229	16035.42
851.413	15744.61
851.596	16180.83
851.78	16238.17
851.964	16236.13
852.147	15879.78
852.331	16744.02
852.514	16330.33
852.698	15887.97
852.881	15890.02
853.065	16354.91
853.248	16086.62
853.431	15851.11
853.615	15650.41
853.798	16420.44
853.982	15902.31
854.165	15826.53
854.348	15566.44
854.532	15650.41
854.715	15523.43
854.898	15711.85
855.081	15308.4
855.265	16152.16
855.448	16324.19
855.631	15455.85
855.814	15476.33
855.997	15898.21
856.181	15543.91
856.364	15457.9
856.547	15332.97
856.73	15840.87
856.913	15697.51
857.096	15292.01
857.279	15701.61
857.462	15255.15
857.645	15836.77
857.828	15500.9
858.011	15255.15
858.194	15189.61
858.377	15449.71
858.56	14909.04
858.743	14976.62
858.926	15060.59
859.109	15478.38
859.292	15005.3
859.475	14894.71
859.658	15953.51
859.841	15365.74
860.023	14937.71
860.206	14956.15
860.389	15128.17
860.572	15513.19
860.755	14964.34
860.937	14960.24
861.12	15167.09
861.303	15044.21
861.486	14872.18
861.668	14599.8
861.851	15208.05
862.034	15162.99
862.216	14835.31
862.399	14659.19
862.581	14872.18
862.764	15324.78
862.947	14567.03
863.129	14771.83
863.312	14595.7
863.494	15478.38
863.677	14806.64
863.859	14501.5
864.042	14872.18
864.224	15122.03
864.406	14505.59
864.589	14204.54
864.771	14802.55
864.954	14323.32
865.136	14274.17
865.318	14061.18
865.501	14495.35
865.683	14075.52
865.865	14329.47
866.048	14132.86
866.23	14124.67
866.412	14409.34
866.594	14126.72
866.777	14093.95
866.959	14265.98
867.141	14421.63
867.323	14448.25
867.505	14270.08
867.687	14304.89
867.869	14288.51
868.052	14249.6
868.234	13895.3
868.416	14147.2
868.598	14450.3
868.78	14030.46
868.962	13950.59
869.144	14626.42
869.326	14505.59
869.508	13936.26
869.69	13700.74
869.872	14112.38
870.054	14464.63
870.236	13616.77
870.417	13928.06
870.599	14134.91
870.781	14526.07
870.963	13864.58
871.145	14057.09
871.327	13883.01
871.508	14384.76
871.69	13651.59
871.872	13940.35
872.054	13979.26
872.235	14063.23
872.417	13661.83
872.599	13463.18
872.78	14366.33
872.962	13964.93
873.144	13850.24
873.325	13590.15
873.507	14184.06
873.689	13850.24
873.87	13682.31
874.052	13936.26
874.233	14091.9
874.415	14198.4
874.596	13872.77
874.778	13655.68
874.959	13897.35
875.141	14229.12
875.322	13653.64
875.503	13524.61
875.685	14208.64
875.866	13526.66
876.048	13725.32
876.229	13655.68
876.41	13788.8
876.592	14139.01
876.773	13913.73
876.954	13579.91
877.136	14440.06
877.317	13868.67
877.498	13297.29
877.679	13606.53
877.86	14112.38
878.042	13788.8
878.223	13930.11
878.404	13958.78
878.585	14059.13
878.766	14585.46
878.947	14130.81
879.128	13962.88
879.309	14120.57
879.49	14171.77
879.672	14169.73
879.853	13913.73
880.034	13909.63
880.215	14161.53
880.396	13768.32
880.576	13901.44
880.757	14110.33
880.938	14374.52
881.119	13883.01
881.3	14110.33
881.481	14270.08
881.662	14935.67
881.843	13940.35
882.023	14063.23
882.204	14227.07
882.385	14728.82
882.566	13962.88
882.747	14014.08
882.927	14419.58
883.108	14466.68
883.289	13842.05
883.469	14403.19
883.65	14345.85
883.831	14323.32
884.011	14227.07
884.192	14300.8
884.373	14612.09
884.553	14634.61
884.734	14671.48
884.914	14827.12
885.095	15300.2
885.275	14954.1
885.456	14972.53
885.636	14526.07
885.817	14603.89
885.997	15029.87
886.178	14640.76
886.358	14702.2
886.538	14655.09
886.719	15838.82
886.899	14358.14
887.08	14657.14
887.26	15019.63
887.44	14448.25
887.621	14431.87
887.801	14638.71
887.981	15259.24
888.161	15003.25
888.342	14562.94
888.522	14640.76
888.702	14900.85
888.882	15038.06
889.062	14861.94
889.242	14284.41
889.423	15140.46
889.603	15091.31
889.783	14966.38
889.963	14794.36
890.143	15091.31
890.323	15240.81
890.503	14642.81
890.683	14837.36
890.863	14945.91
891.043	14773.88
891.223	14589.56
891.403	14898.8
891.583	14685.81
891.763	14976.62
891.943	14442.1
892.122	14667.38
892.302	15033.97
892.482	14952.05
892.662	14747.25
892.842	14548.6
893.022	14956.15
893.201	14714.48
893.381	14659.19
893.561	14532.22
893.741	15052.4
893.92	15031.92
894.1	14513.78
894.28	14478.97
894.459	15023.73
894.639	14939.76
894.819	14282.36
894.998	14886.51
895.178	15025.78
895.357	14898.8
895.537	14493.3
895.716	14282.36
895.896	14648.95
896.075	14913.14
896.255	14573.17
896.434	14351.99
896.614	14921.33
896.793	14737.01
896.973	14317.18
897.152	14571.13
897.331	14765.68
897.511	14898.8
897.69	14052.99
897.87	14206.59
898.049	14603.89
898.228	14702.2
898.407	14460.54
898.587	14147.2
898.766	14196.35
898.945	14843.51
899.124	14380.67
899.304	14159.49
899.483	14384.76
899.662	14726.77
899.841	13919.87
900.02	14116.48
900.199	14575.22
900.378	14210.68
900.557	13837.95
900.737	13901.44
900.916	14278.27
901.095	14278.27
901.274	13700.74
901.453	13143.69
901.632	13495.94
901.811	13465.22
901.989	13487.75
902.168	13190.8
902.347	13692.55
902.526	13659.78
902.705	13145.74
902.884	13360.78
903.063	13690.5
903.242	13715.08
903.42	12938.9
903.599	13287.05
903.778	13393.54
903.957	13629.06
904.135	12992.14
904.314	12963.47
904.493	13291.15
904.672	13356.68
904.85	12762.77
905.029	12820.11
905.207	13029.01
905.386	13756.04
905.565	12920.46
905.743	12719.76
905.922	12879.5
906.1	13108.88
906.279	12422.81
906.457	12461.72
906.636	12578.45
906.814	12605.08
906.993	12271.26
907.171	12320.41
907.35	12555.93
907.528	12385.94
907.707	12451.48
907.885	12078.75
908.063	12787.35
908.242	12035.74
908.42	12033.69
908.598	12041.89
908.777	12431
908.955	12029.6
909.133	12181.15
909.311	11968.16
909.49	12285.59
909.668	12052.13
909.846	12078.75
910.024	11677.35
910.202	12332.7
910.38	12265.11
910.559	11765.41
910.737	11755.17
910.915	12463.77
911.093	12494.49
911.271	12207.77
911.449	12445.34
911.627	12723.86
911.805	13172.36
911.983	12359.32
912.161	12101.28
912.339	12787.35
912.517	12801.68
912.695	12273.31
912.872	12527.25
913.05	12629.65
913.228	12770.96
913.406	12414.62
913.584	12381.85
913.762	12830.35
913.939	12719.76
914.117	12562.07
914.295	12267.16
914.473	12584.6
914.65	12654.23
914.828	12293.79
915.006	12230.3
915.184	12166.81
915.361	12471.96
915.539	12578.45
915.716	12222.11
915.894	12678.8
916.072	12496.53
916.249	12508.82
916.427	12482.2
916.604	12115.61
916.782	12297.88
916.959	12023.45
917.137	11925.15
917.314	12568.21
917.492	12850.83
917.669	12371.61
917.847	12088.99
918.024	12412.57
918.201	12211.87
918.379	12011.17
918.556	11955.87
918.733	12166.81
918.911	12060.32
919.088	12017.31
919.265	11839.14
919.442	12248.73
919.62	12218.01
919.797	11970.21
919.974	11761.31
920.151	12125.85
920.328	11939.49
920.506	11908.77
920.683	12084.89
920.86	11822.75
921.037	11996.83
921.214	11867.81
921.391	11511.46
921.568	12465.82
921.745	11853.47
921.922	11882.14
922.099	11589.28
922.276	12205.72
922.453	12048.03
922.63	11642.53
922.807	11916.96
922.984	11685.54
923.161	11505.32
923.338	11427.49
923.514	11222.7
923.691	11859.62
923.868	11794.08
924.045	11318.95
924.222	11273.9
924.399	11548.33
924.575	11853.47
924.752	11458.21
924.929	11470.5
925.105	11568.8
925.282	11056.81
925.459	11048.62
925.635	11069.1
925.812	11292.33
925.989	11327.14
926.165	11234.99
926.342	10679.99
926.518	11087.53
926.695	11171.5
926.871	10854.06
927.048	10880.69
927.224	11140.78
927.401	10968.75
927.577	10845.87
927.754	10651.31
927.93	11097.77
928.107	11056.81
928.283	10565.3
928.459	10905.26
928.636	11105.96
928.812	10948.27
928.988	10475.19
929.165	10278.58
929.341	10563.25
929.517	10716.85
929.693	10612.4
929.87	10135.23
930.046	10679.99
930.222	10415.8
930.398	10225.34
930.574	10395.32
930.751	10645.17
930.927	10333.88
931.103	10401.46
931.279	10264.25
931.455	10204.86
931.631	10290.87
931.807	9885.37
931.983	9950.91
932.159	10090.17
932.335	10086.08
932.511	9711.3
932.687	9711.3
932.863	9948.86
933.039	9950.91
933.215	9567.94
933.391	9455.3
933.566	9793.22
933.742	9879.23
933.918	9465.54
934.094	8961.74
934.27	9451.21
934.445	9438.92
934.621	9133.77
934.797	8881.87
934.973	9291.46
935.148	9021.13
935.324	8601.3
935.5	8519.38
935.675	8974.03
935.851	8869.58
936.027	8290.01
936.202	8339.16
936.378	8535.76
936.553	8345.3
936.729	8494.8
936.904	7786.21
937.08	7562.98
937.255	7853.79
937.431	7388.9
937.606	7100.14
937.782	7382.76
937.957	7368.42
938.133	7220.97
938.308	6969.07
938.483	7057.13
938.659	6727.41
938.834	6704.88
939.009	6639.34
939.185	6659.82
939.36	6598.38
939.535	6092.54
939.71	6483.7
939.886	6774.51
940.061	6674.16
940.236	6418.16
940.411	6248.18
940.586	6598.38
940.761	6479.6
940.937	6121.21
941.112	5830.4
941.287	6127.35
941.462	5955.32
941.637	5592.83
941.812	5648.13
941.987	5734.14
942.162	5869.31
942.337	5652.22
942.512	5684.99
942.687	5996.28
942.862	5811.96
943.037	5297.92
943.212	5150.47
943.386	5574.4
943.561	5748.48
943.736	5533.44
943.911	5592.83
944.086	5881.6
944.26	5787.39
944.435	5367.56
944.61	5676.8
944.785	5711.61
944.959	6115.06
945.134	5523.2
945.309	5302.02
945.483	5302.02
945.658	5865.21
945.833	5080.84
946.007	5316.36
946.182	6018.81
946.357	5271.3
946.531	5306.12
946.706	5361.41
946.88	5349.12
947.055	5605.12
947.229	5373.7
947.404	5355.27
947.578	5965.56
947.752	5392.13
947.927	5291.78
948.101	5158.66
948.276	5695.23
948.45	5795.58
948.624	5641.98
948.799	5373.7
948.973	5619.46
949.147	5240.58
949.321	5662.46
949.496	5523.2
949.67	5940.99
949.844	5678.85
950.018	5543.68
950.193	5521.15
950.367	6194.93
950.541	5820.16
950.715	5842.68
950.889	5869.31
951.063	5787.39
951.237	6176.5
951.411	5697.28
951.585	5525.25
951.759	6004.47
951.933	5881.6
952.107	5730.05
952.281	6055.67
952.455	6319.86
952.629	6137.59
952.803	5867.26
952.977	5660.41
953.151	6340.34
953.325	6334.2
953.499	6199.03
953.672	5799.68
953.846	5762.81
954.02	6362.87
954.194	5949.18
954.368	6035.19
954.541	6457.07
954.715	6176.5
954.889	6149.88
955.062	5988.09
955.236	6174.46
955.41	6127.35
955.583	6162.17
955.757	5967.61
955.93	6160.12
956.104	5875.45
956.278	6121.21
956.451	6117.11
956.625	6536.95
956.798	6905.58
956.972	6397.68
957.145	6074.1
957.319	6268.66
957.492	6258.42
957.665	6358.77
957.839	6227.7
958.012	6223.61
958.185	6348.53
958.359	6192.89
958.532	6262.52
958.705	6713.07
958.879	6356.72
959.052	6387.44
959.225	6014.71
959.398	6379.25
959.572	6420.21
959.745	6082.3
959.918	6295.29
960.091	6258.42
960.264	6606.58
960.438	6145.78
960.611	5953.27
960.784	6500.08
960.957	6373.11
961.13	6463.22
961.303	6244.09
961.476	6235.89
961.649	6553.33
961.822	5936.89
961.995	6125.3
962.168	6424.31
962.341	6379.25
962.514	6090.49
962.686	6031.1
962.859	6504.18
963.032	6452.98
963.205	6082.3
963.378	5936.89
963.551	6495.99
963.723	6258.42
963.896	6139.64
964.069	6115.06
964.242	6340.34
964.414	6422.26
964.587	6260.47
964.76	6104.82
964.932	6457.07
965.105	6424.31
965.278	6074.1
965.45	6287.09
965.623	6151.93
965.795	6483.7
965.968	6121.21
966.14	5986.04
966.313	6270.71
966.485	6391.54
966.658	5959.42
966.83	6184.69
967.003	6471.41
967.175	6237.94
967.348	5967.61
967.52	6115.06
967.692	6653.68
967.865	6440.69
968.037	6067.96
968.209	6272.76
968.382	6268.66
968.554	6381.3
968.726	5891.84
968.898	5955.32
969.071	6147.83
969.243	6313.72
969.415	5906.17
969.587	5895.93
969.759	6401.78
969.932	6147.83
970.104	5801.72
970.276	5521.15
970.448	5871.36
970.62	5793.53
970.792	5791.48
970.964	5955.32
971.136	6246.13
971.308	6223.61
971.48	5867.26
971.652	5707.52
971.824	6278.9
971.996	5777.15
972.168	5627.65
972.339	5680.89
972.511	6176.5
972.683	5820.16
972.855	5906.17
973.027	5637.89
973.199	5971.71
973.37	5945.08
973.542	5676.8
973.714	5779.2
973.886	5852.92
974.057	6063.86
974.229	5502.72
974.401	5480.19
974.572	5443.33
974.744	5125.9
974.915	5263.11
975.087	5414.66
975.259	6274.81
975.43	5465.86
975.602	5515.01
975.773	5340.93
975.945	5480.19
976.116	5959.42
976.288	5398.27
976.459	5613.31
976.63	5574.4
976.802	5693.18
976.973	5359.36
977.145	5590.78
977.316	6156.02
977.487	5998.33
977.659	5598.98
977.83	5426.95
978.001	6057.72
978.172	5519.11
978.344	5222.15
978.515	5144.33
978.686	5420.8
978.857	5758.72
979.028	5420.8
979.2	5230.34
979.371	5807.87
979.542	5379.84
979.713	5345.03
979.884	4951.82
980.055	5336.84
980.226	5506.82
980.397	5193.48
980.568	5201.67
980.739	5783.29
980.91	5218.05
981.081	5318.4
981.252	5027.59
981.423	5541.63
981.594	5676.8
981.765	4775.69
981.936	5103.37
982.106	5277.44
982.277	5512.96
982.448	4902.67
982.619	5064.46
982.79	5119.75
982.96	5449.47
983.131	4880.14
983.302	4640.53
983.472	4955.91
983.643	5064.46
983.814	4884.23
983.984	4677.39
984.155	4810.51
984.326	5267.2
984.496	4902.67
984.667	4787.98
984.837	4747.02
985.008	5168.9
985.178	5082.89
985.349	4654.86
985.519	4767.5
985.69	4720.4
985.86	4574.99
986.031	4560.66
986.201	4980.49
986.371	4964.11
986.542	4620.05
986.712	4400.91
986.882	4747.02
987.053	4835.08
987.223	4452.11
987.393	4804.36
987.563	4531.98
987.734	4898.57
987.904	4837.13
988.074	4435.73
988.244	4712.21
988.414	4448.02
988.585	4230.93
988.755	4439.83
988.925	4448.02
989.095	5009.16
989.265	4323.09
989.435	4380.43
989.605	4534.03
989.775	4706.06
989.945	4595.47
990.115	4099.86
990.285	4456.21
990.455	4566.8
990.625	4165.4
990.795	4359.95
990.965	4704.01
991.134	4050.71
991.304	4024.09
991.474	3927.83
991.644	4570.9
991.814	4769.55
991.984	4075.29
992.153	4155.16
992.323	4249.36
992.493	4398.87
992.662	3768.09
992.832	4218.64
993.002	4257.56
993.171	4316.95
993.341	4026.14
993.511	4163.35
993.68	4114.2
993.85	4300.56
994.019	3675.93
994.189	3753.76
994.358	4052.76
994.528	3909.4
994.697	3514.14
994.867	3784.48
995.036	4370.19
995.206	3831.58
995.375	3833.63
995.544	3933.98
995.714	4165.4
995.883	3929.88
996.052	3923.74
996.222	3530.53
996.391	4445.97
996.56	3903.26
996.73	3751.71
996.899	3446.56
997.068	4216.6
997.237	3970.84
997.406	3495.71
997.576	3393.31
997.745	3792.67
997.914	3919.64
998.083	3393.31
998.252	3526.43
998.421	3622.69
998.59	3596.06
998.759	3301.15
998.928	3090.21
999.097	3946.27
999.266	3727.13
999.435	3452.7
999.604	3053.35
999.773	4146.97
999.942	3452.7
1000.111	3211.04
1000.28	3131.17
1000.448	3311.39
1000.617	3227.43
1000.786	3254.05
1000.955	3016.49
1001.124	3630.88
1001.292	4032.28
1001.461	3170.08
1001.63	2983.72
1001.798	3856.15
1001.967	3675.93
1002.136	2959.14
1002.304	3088.17
1002.473	3464.99
1002.642	3362.59
1002.81	3116.84
1002.979	3110.69
1003.147	3585.82
1003.316	3677.98
1003.484	3108.65
1003.653	2844.46
1003.821	3612.45
1003.99	3249.96
1004.158	3073.83
1004.327	3077.93
1004.495	3372.83
1004.663	3071.78
1004.832	2977.58
1005	2656.04
1005.168	3190.56
1005.337	3133.22
1005.505	2651.95
1005.673	3022.63
1005.842	3288.87
1006.01	3258.15
1006.178	2684.72
1006.346	2699.05
1006.514	3159.85
1006.683	3378.98
1006.851	2662.19
1007.019	2666.28
1007.187	2936.62
1007.355	2529.07
1007.523	2588.46
1007.691	2516.78
1007.859	2684.72
1008.027	3243.81
1008.195	2719.53
1008.363	2502.45
1008.531	3084.07
1008.699	2744.11
1008.867	2432.82
1009.035	2488.11
1009.203	3141.41
1009.37	2778.92
1009.538	2490.16
1009.706	2959.14
1009.874	2955.05
1010.042	2864.94
1010.209	2338.61
1010.377	2518.83
1010.545	2887.47
1010.713	2811.69
1010.88	2338.61
1011.048	2426.67
1011.216	2633.52
1011.383	3100.45
1011.551	2260.79
1011.718	2199.35
1011.886	2772.78
1012.054	2637.61
1012.221	2242.36
1012.389	2402.1
1012.556	2457.39
1012.724	2922.28
1012.891	2467.63
1013.058	2090.81
1013.226	2772.78
1013.393	2764.59
1013.561	2113.33
1013.728	2055.99
1013.895	2668.33
1014.063	2633.52
1014.23	2027.32
1014.397	2096.95
1014.565	2690.86
1014.732	2328.37
1014.899	2201.4
1015.066	1976.12
1015.233	2461.49
1015.401	2637.61
1015.568	2146.1
1015.735	2225.97
1015.902	2387.76
1016.069	2447.15
1016.236	2082.61
1016.403	1851.19
1016.57	2137.91
1016.737	2428.72
1016.904	2045.75
1017.071	1888.06
1017.238	2111.29
1017.405	2445.1
1017.572	2023.22
1017.739	2148.15
1017.906	2391.86
1018.073	2457.39
1018.24	1756.99
1018.407	1859.38
1018.573	2473.78
1018.74	2142
1018.907	1818.43
1019.074	1711.93
1019.241	2400.05
1019.407	2129.72
1019.574	1673.02
1019.741	1541.95
1019.907	2201.4
1020.074	2127.67
1020.241	1482.56
1020.407	1675.07
1020.574	2185.01
1020.74	2125.62
1020.907	1642.3
1021.073	1660.73
1021.24	2457.39
1021.406	2395.95
1021.573	1476.41
1021.739	1582.91
1021.906	2191.16
1022.072	2027.32
1022.239	1689.4
1022.405	1617.72
1022.571	1877.82
1022.738	1865.53
1022.904	1521.47
1023.07	1619.77
1023.237	2060.09
1023.403	2187.06
1023.569	1374.02
1023.735	1544
1023.902	1941.3
1024.068	1918.78
1024.234	1371.97
1024.4	1455.94
1024.566	1969.98
1024.732	2144.05
1024.898	1503.04
1025.065	1355.58
1025.231	2004.79
1025.397	1816.38
1025.563	1369.92
1025.729	1335.1
1025.895	1326.91
1026.061	1642.3
1026.227	1204.03
1026.392	1371.97
1026.558	1912.63
1026.724	1820.47
1026.89	1310.53
1027.056	1445.7
1027.222	1873.72
1027.388	1584.96
1027.553	1226.56
1027.719	1206.08
1027.885	2182.96
1028.051	1793.85
1028.216	1136.45
1028.382	1265.47
1028.548	1851.19
1028.713	1494.85
1028.879	1158.98
1029.045	1466.17
1029.21	1967.93
1029.376	1935.16
1029.541	1122.12
1029.707	1277.76
1029.873	1752.89
1030.038	1732.41
1030.204	1261.38
1030.369	1216.32
1030.534	1834.81
1030.7	1484.61
1030.865	1275.71
1031.031	1009.48
1031.196	1742.65
1031.361	1554.24
1031.527	1097.54
1031.692	1081.16
1031.857	1154.88
1032.023	1576.77
1032.188	1113.92
1032.353	1173.32
1032.518	1861.43
1032.684	1544
1032.849	960.33
1033.014	1212.23
1033.179	1599.29
1033.344	1713.98
1033.509	1113.92
1033.674	1126.21
1033.839	1687.36
1034.004	1584.96
1034.17	1183.56
1034.335	952.13
1034.5	1400.64
1034.664	1277.76
1034.829	954.18
1034.994	1103.68
1035.159	1419.07
1035.324	1462.08
1035.489	997.19
1035.654	1038.15
1035.819	1720.12
1035.984	1421.12
1036.148	1060.68
1036.313	898.89
1036.478	1634.11
1036.643	1290.05
1036.807	898.89
1036.972	890.7
1037.137	1582.91
1037.301	1347.39
1037.466	773.96
1037.631	1046.34
1037.795	1605.44
1037.96	1261.38
1038.124	1038.15
1038.289	939.85
1038.454	1316.67
1038.618	1404.74
1038.783	866.12
1038.947	1044.29
1039.111	1267.52
1039.276	1214.27
1039.44	948.04
1039.605	1259.33
1039.769	1093.44
1039.933	1238.85
1040.098	894.79
1040.262	1089.35
1040.426	1390.4
1040.591	1384.26
1040.755	773.96
1040.919	876.36
1041.083	1369.92
1041.248	1146.69
1041.412	632.65
1041.576	724.81
1041.74	1095.49
1041.904	1376.06
1042.068	726.86
1042.232	753.48
1042.397	1367.87
1042.561	1165.12
1042.725	534.35
1042.889	864.07
1043.053	1255.23
1043.217	1255.23
1043.381	845.64
1043.544	571.21
1043.708	1341.25
1043.872	870.22
1044.036	487.25
1044.2	542.54
1044.364	1406.78
1044.528	1388.35
1044.691	2049.85
1044.855	585.55
1045.019	1382.21
1045.183	1285.95
1045.346	765.77
1045.51	675.66
1045.674	1132.36
1045.837	1146.69
1046.001	737.1
1046.165	649.04
1046.328	1574.72
1046.492	1120.07
1046.655	851.78
1046.819	728.91
1046.983	905.03
1047.146	1126.21
1047.31	700.23
1047.473	448.33
1047.636	1058.63
1047.8	816.97
1047.963	689.99
1048.127	483.15
1048.29	808.78
