Data from Hydrogel_Ink_Intensity_Test_1_USB4F045381__48__00048.txt Node

Date: Mon Jul 31 10:48:52 EDT 2023
User: mmckonesweet
Spectrometer: USB4F04538
Trigger mode: 4
Integration Time (sec): 9.000000E-1
Scans to average: 1
Electric dark correction enabled: true
Nonlinearity correction enabled: false
Boxcar width: 0
XAxis mode: Wavelengths
Number of Pixels in Spectrum: 3648
>>>>>Begin Spectral Data<<<<<
345.52	-931.83
345.736	-931.83
345.952	-931.83
346.168	-1046.51
346.384	-980.98
346.6	-88.06
346.816	-268.28
347.032	-239.61
347.248	321.53
347.464	-178.17
347.68	-110.59
347.896	79.87
348.112	430.07
348.328	-63.49
348.544	-135.17
348.76	2.05
348.975	249.85
349.191	-225.28
349.407	-129.02
349.623	12.29
349.839	2.05
350.055	-51.2
350.27	94.21
350.486	96.25
350.702	360.44
350.918	215.04
351.133	-198.65
351.349	180.22
351.565	411.64
351.781	-321.53
351.996	-77.82
352.212	389.11
352.428	-104.45
352.644	-262.14
352.859	-266.24
353.075	325.63
353.291	34.82
353.506	-116.73
353.722	-231.42
353.938	26.62
354.153	530.42
354.369	75.77
354.584	-161.79
354.8	245.76
355.016	-370.68
355.231	-260.09
355.447	-47.1
355.662	116.73
355.878	767.99
356.093	-325.63
356.309	-20.48
356.524	-217.08
356.74	251.9
356.955	-198.65
357.171	-94.21
357.386	110.59
357.602	-212.99
357.817	-57.34
358.033	-86.01
358.248	395.26
358.464	163.84
358.679	-165.89
358.895	-315.39
359.11	10.24
359.325	376.83
359.541	299
359.756	-22.53
359.972	-186.37
360.187	186.37
360.402	-186.37
360.618	-124.93
360.833	923.63
361.048	141.31
361.264	-124.93
361.479	-63.49
361.694	-6.14
361.909	256
362.125	-247.8
362.34	-88.06
362.555	190.46
362.77	133.12
362.986	-178.17
363.201	-145.41
363.416	116.73
363.631	63.49
363.847	-141.31
364.062	-129.02
364.277	239.61
364.492	98.3
364.707	-137.21
364.922	-296.96
365.138	307.2
365.353	342.01
365.568	-237.56
365.783	-165.89
365.998	104.45
366.213	497.66
366.428	-247.8
366.643	22.53
366.858	395.26
367.073	315.39
367.288	-63.49
367.503	-172.03
367.718	133.12
367.933	380.92
368.148	-208.89
368.363	-63.49
368.578	65.53
368.793	509.94
369.008	-104.45
369.223	-243.71
369.438	264.19
369.653	413.69
369.868	-260.09
370.083	-288.76
370.298	176.13
370.513	374.78
370.728	38.91
370.943	-190.46
371.157	-120.83
371.372	579.58
371.587	-200.7
371.802	-256
372.017	61.44
372.232	565.24
372.446	-122.88
372.661	-272.38
372.876	235.52
373.091	212.99
373.306	-38.91
373.52	-262.14
373.735	-63.49
373.95	423.93
374.165	-79.87
374.379	-61.44
374.594	-55.3
374.809	118.78
375.023	88.06
375.238	-169.98
375.453	251.9
375.667	-253.95
375.882	-26.62
376.097	-141.31
376.311	88.06
376.526	38.91
376.741	-145.41
376.955	135.17
377.17	587.77
377.384	606.2
377.599	-6.14
377.813	-202.75
378.028	608.25
378.242	313.34
378.457	-10.24
378.672	-313.34
378.886	49.15
379.101	-10.24
379.315	-294.91
379.53	-51.2
379.744	235.52
379.958	292.86
380.173	-59.39
380.387	-96.25
380.602	196.61
380.816	-59.39
381.031	-108.54
381.245	-47.1
381.459	176.13
381.674	1525.74
381.888	-253.95
382.103	190.46
382.317	-59.39
382.531	522.23
382.746	-8.19
382.96	-151.55
383.174	-45.06
383.388	497.66
383.603	59.39
383.817	-96.25
384.031	256
384.246	518.14
384.46	45.06
384.674	364.54
384.888	135.17
385.103	169.98
385.317	-210.94
385.531	-6.14
385.745	454.65
385.959	356.35
386.174	-110.59
386.388	-110.59
386.602	149.5
386.816	-51.2
387.03	-6.14
387.244	-32.77
387.458	149.5
387.672	460.79
387.887	-149.5
388.101	-192.51
388.315	382.97
388.529	188.41
388.743	-47.1
388.957	-221.18
389.171	399.35
389.385	-86.01
389.599	-53.25
389.813	92.16
390.027	268.28
390.241	806.9
390.455	-8.19
390.669	14.34
390.883	49.15
391.097	550.9
391.311	165.89
391.525	-22.53
391.738	344.06
391.952	192.51
392.166	118.78
392.38	-114.69
392.594	397.31
392.808	444.41
393.022	-4.1
393.236	67.58
393.449	325.63
393.663	231.42
393.877	-174.08
394.091	116.73
394.305	112.64
394.518	-75.77
394.732	-135.17
394.946	-12.29
395.16	571.38
395.373	122.88
395.587	-49.15
395.801	2.05
396.015	491.51
396.228	305.15
396.442	-145.41
396.656	-210.94
396.869	511.99
397.083	641.01
397.297	57.34
397.51	45.06
397.724	509.94
397.938	342.01
398.151	-135.17
398.365	-112.64
398.578	380.92
398.792	583.67
399.005	129.02
399.219	18.43
399.433	241.66
399.646	282.62
399.86	188.41
400.073	301.05
400.287	403.45
400.5	194.56
400.714	161.79
400.927	75.77
401.141	419.83
401.354	1298.41
401.567	329.72
401.781	-161.79
401.994	466.94
402.208	745.46
402.421	6.14
402.635	53.25
402.848	204.8
403.061	511.99
403.275	145.41
403.488	-30.72
403.701	585.72
403.915	370.68
404.128	151.55
404.341	120.83
404.555	395.26
404.768	225.28
404.981	217.08
405.195	88.06
405.408	659.45
405.621	413.69
405.834	221.18
406.048	16.38
406.261	604.15
406.474	677.88
406.687	79.87
406.9	272.38
407.114	282.62
407.327	454.65
407.54	-14.34
407.753	-126.97
407.966	116.73
408.179	497.66
408.392	28.67
408.605	-18.43
408.819	403.45
409.032	456.7
409.245	83.97
409.458	270.33
409.671	434.17
409.884	583.67
410.097	-75.77
410.31	327.67
410.523	346.11
410.736	227.32
410.949	77.82
411.162	190.46
411.375	720.88
411.588	585.72
411.801	329.72
412.014	196.61
412.227	262.14
412.44	266.24
412.653	40.96
412.865	245.76
413.078	612.34
413.291	518.14
413.504	143.36
413.717	2.05
413.93	546.81
414.143	182.27
414.356	90.11
414.568	16.38
414.781	587.77
414.994	419.83
415.207	264.19
415.42	182.27
415.632	546.81
415.845	761.84
416.058	-24.58
416.271	75.77
416.483	450.55
416.696	833.52
416.909	174.08
417.121	83.97
417.334	559.1
417.547	868.34
417.759	180.22
417.972	210.94
418.185	309.24
418.397	577.53
418.61	182.27
418.823	145.41
419.035	718.84
419.248	448.51
419.46	182.27
419.673	274.43
419.885	612.34
420.098	444.41
420.311	241.66
420.523	-28.67
420.736	649.21
420.948	534.52
421.161	131.07
421.373	26.62
421.586	434.17
421.798	284.67
422.01	100.35
422.223	368.63
422.435	305.15
422.648	645.11
422.86	272.38
423.073	98.3
423.285	767.99
423.497	141.31
423.71	284.67
423.922	210.94
424.134	745.46
424.347	911.35
424.559	520.18
424.771	477.18
424.984	436.22
425.196	557.05
425.408	131.07
425.621	184.32
425.833	739.32
426.045	815.09
426.257	174.08
426.47	237.56
426.682	624.63
426.894	622.58
427.106	280.57
427.318	280.57
427.531	378.87
427.743	679.93
427.955	294.91
428.167	727.03
428.379	624.63
428.591	485.37
428.804	442.36
429.016	266.24
429.228	550.9
429.44	598.01
429.652	595.96
429.864	249.85
430.076	511.99
430.288	567.29
430.5	335.87
430.712	468.98
430.924	790.52
431.136	591.86
431.348	223.23
431.56	374.78
431.772	507.9
431.984	452.6
432.196	350.2
432.408	368.63
432.62	589.81
432.832	704.5
433.044	698.36
433.256	651.25
433.468	813.04
433.679	331.77
433.891	325.63
434.103	702.45
434.315	987.12
434.527	845.81
434.739	448.51
434.95	567.29
435.162	821.24
435.374	468.98
435.586	448.51
435.798	393.21
436.009	530.42
436.221	600.05
436.433	370.68
436.645	442.36
436.856	526.33
437.068	1001.46
437.28	430.07
437.491	817.14
437.703	948.21
437.915	876.53
438.126	507.9
438.338	819.19
438.55	737.27
438.761	813.04
438.973	563.19
439.184	589.81
439.396	673.78
439.608	980.98
439.819	511.99
440.031	643.06
440.242	921.59
440.454	882.67
440.665	585.72
440.877	729.08
441.088	862.19
441.3	804.85
441.511	471.03
441.723	481.27
441.934	899.06
442.146	866.29
442.357	722.93
442.569	862.19
442.78	796.66
442.991	1210.35
443.203	1013.74
443.414	544.76
443.626	1161.2
443.837	636.92
444.048	493.56
444.26	454.65
444.471	968.69
444.682	1009.65
444.894	389.11
445.105	495.61
445.316	1128.43
445.528	991.22
445.739	841.72
445.95	753.65
446.161	972.79
446.373	1189.87
446.584	671.73
446.795	606.2
447.006	1091.57
447.217	1271.79
447.429	575.48
447.64	638.97
447.851	1200.11
448.062	980.98
448.273	604.15
448.484	620.53
448.695	1073.14
448.907	950.26
449.118	876.53
449.329	1009.65
449.54	829.43
449.751	747.51
449.962	784.37
450.173	659.45
450.384	1267.69
450.595	1347.56
450.806	641.01
451.017	806.9
451.228	1257.45
451.439	1218.54
451.65	700.41
451.861	579.58
452.072	786.42
452.283	1095.66
452.494	978.93
452.705	733.17
452.915	1327.08
453.126	1214.45
453.337	837.62
453.548	774.13
453.759	1337.32
453.97	1554.41
454.181	1048.56
454.391	929.78
454.602	1234.93
454.813	1337.32
455.024	911.35
455.235	870.39
455.445	1181.68
455.656	1273.84
455.867	1103.86
456.078	897.01
456.288	1056.75
456.499	1384.43
456.71	985.07
456.921	1181.68
457.131	1341.42
457.342	1206.25
457.553	1044.46
457.763	970.74
457.974	1419.24
458.184	1439.72
458.395	1009.65
458.606	872.43
458.816	1517.54
459.027	1730.53
459.237	1275.88
459.448	997.36
459.659	1626.09
459.869	1943.52
460.08	856.05
460.29	1173.49
460.501	1820.64
460.711	1241.07
460.922	1023.98
461.132	1122.29
461.343	2107.36
461.553	1099.76
461.764	1214.45
461.974	1306.6
462.184	1527.78
462.395	1605.61
462.605	1277.93
462.816	1161.2
463.026	1576.94
463.236	1808.36
463.447	1331.18
463.657	1200.11
463.867	1804.26
464.078	1486.83
464.288	1464.3
464.498	1304.56
464.709	1505.26
464.919	1581.03
465.129	1411.05
465.339	1286.12
465.55	1781.73
465.76	1943.52
465.97	1468.39
466.18	1394.67
466.391	1933.28
466.601	1808.36
466.811	1621.99
467.021	1454.06
467.231	2004.96
467.441	2068.45
467.651	1691.62
467.862	1345.52
468.072	1837.03
468.282	2222.05
468.492	1560.55
468.702	1681.38
468.912	1927.14
469.122	2629.59
469.332	1939.43
469.542	1658.85
469.752	2303.96
469.962	2119.65
470.172	1671.14
470.382	1785.83
470.592	2199.52
470.802	2244.57
471.012	2025.44
471.222	1972.19
471.432	2439.13
471.642	2385.88
471.852	2099.17
472.062	1974.24
472.272	2181.09
472.482	1968.1
472.691	2011.11
472.901	2000.87
473.111	2334.68
473.321	2955.22
473.531	2250.72
473.741	2119.65
473.95	2668.5
474.16	2607.06
474.37	2346.97
474.58	2082.78
474.79	2973.65
474.999	2785.24
475.209	2283.49
475.419	2498.52
475.628	2740.18
475.838	2832.34
476.048	2463.71
476.258	2303.96
476.467	3123.15
476.677	2715.61
476.886	2815.96
477.096	2738.13
477.306	2709.46
477.515	3184.59
477.725	2734.04
477.935	2895.83
478.144	3479.5
478.354	2861.01
478.563	2850.77
478.773	2729.94
478.982	3342.28
479.192	3567.56
479.401	3055.57
479.611	2885.59
479.82	3100.62
480.03	3438.54
480.239	2969.55
480.449	2926.55
480.658	3731.4
480.868	3217.36
481.077	3248.08
481.287	3270.61
481.496	3706.82
481.705	3948.48
481.915	3600.33
482.124	3532.75
482.333	3813.32
482.543	4069.31
482.752	3579.85
482.961	3301.33
483.171	3964.87
483.38	3581.9
483.589	3715.02
483.799	3430.35
484.008	3829.7
484.217	4087.75
484.426	3809.22
484.636	3608.52
484.845	4122.56
485.054	3723.21
485.263	4026.31
485.472	3692.49
485.682	4491.2
485.891	4069.31
486.1	3708.87
486.309	3960.77
486.518	4290.49
486.727	4546.49
486.936	3766.21
487.146	4011.97
487.355	4659.13
487.564	4194.24
487.773	4097.99
487.982	4179.9
488.191	4280.25
488.4	4380.61
488.609	4169.66
488.818	4304.83
489.027	5212.08
489.236	4954.04
489.445	4390.84
489.654	4237.25
489.863	4874.17
490.072	4771.77
490.281	4745.14
490.49	4517.82
490.698	5015.48
490.907	5228.46
491.116	4609.98
491.325	4435.9
491.534	4997.04
491.743	4964.28
491.952	4681.66
492.16	4722.62
492.369	5038
492.578	5203.89
492.787	4804.53
492.996	4773.82
493.204	4900.79
493.413	5568.43
493.622	4591.55
493.831	4642.75
494.039	5697.45
494.248	4958.13
494.457	4990.9
494.665	4900.79
494.874	5564.33
495.083	5814.18
495.291	5078.96
495.5	5121.97
495.709	5547.95
495.917	5515.18
496.126	5314.48
496.335	5238.7
496.543	5482.41
496.752	5603.24
496.96	5486.51
497.169	5150.64
497.377	5695.4
497.586	6021.03
497.794	5486.51
498.003	5232.56
498.211	5758.89
498.42	6125.47
498.628	5646.25
498.837	5484.46
499.045	5922.73
499.254	5973.92
499.462	5566.38
499.671	5621.67
499.879	6322.08
500.087	6209.44
500.296	5445.55
500.504	5691.31
500.713	6283.17
500.921	6659.99
501.129	5840.81
501.338	5795.75
501.546	6158.24
501.754	6076.32
501.962	5826.47
502.171	5607.34
502.379	6344.61
502.587	6578.08
502.795	6096.8
503.004	5851.05
503.212	6238.11
503.42	6471.58
503.628	5916.58
503.837	6225.82
504.045	6541.21
504.253	6813.59
504.461	5990.31
504.669	5902.25
504.877	6739.87
505.085	6809.5
505.294	5922.73
505.502	6305.7
505.71	6614.94
505.918	6705.05
506.126	6277.02
506.334	6121.38
506.542	6547.36
506.75	6588.32
506.958	6461.34
507.166	6336.42
507.374	6557.6
507.582	7313.3
507.79	6555.55
507.998	6457.25
508.206	6969.24
508.414	6883.22
508.622	6481.82
508.83	6459.29
509.037	7395.22
509.245	6832.02
509.453	6426.53
509.661	6690.71
509.869	7243.67
510.077	6834.07
510.285	6870.94
510.492	6647.71
510.7	7704.46
510.908	6866.84
511.116	6774.68
511.324	6727.58
511.531	6993.81
511.739	7335.82
511.947	6969.24
512.155	7006.1
512.362	7098.26
512.57	7042.96
512.778	6838.17
512.985	6844.31
513.193	7473.04
513.401	7538.57
513.608	6961.05
513.816	7133.08
514.024	7518.09
514.231	7557
514.439	7088.02
514.646	7032.72
514.854	7718.79
515.061	7634.83
515.269	7110.55
515.477	7167.89
515.684	7415.69
515.892	7933.83
516.099	7038.87
516.307	6899.61
516.514	7847.82
516.722	7901.06
516.929	7282.58
517.136	7276.43
517.344	7808.9
517.551	7907.21
517.759	7239.57
517.966	7278.48
518.173	7432.08
518.381	7743.37
518.588	7446.41
518.796	7411.6
519.003	8032.13
519.21	7661.45
519.418	7448.46
519.625	7839.62
519.832	7774.09
520.039	8097.67
520.247	7317.39
520.454	7790.47
520.661	8181.64
520.868	8228.74
521.076	7821.19
521.283	7739.27
521.49	8470.4
521.697	8052.61
521.904	7755.66
522.112	7780.23
522.319	8230.79
522.526	8306.56
522.733	7763.85
522.94	7880.58
523.147	7999.37
523.354	8318.85
523.561	7876.49
523.768	8116.1
523.975	8560.51
524.183	8155.01
524.39	8034.18
524.597	7933.83
524.804	8318.85
525.011	8218.5
525.218	8148.87
525.425	8042.37
525.632	8804.22
525.838	8173.44
526.045	8038.28
526.252	8202.11
526.459	9631.6
526.666	9125.75
526.873	8374.14
527.08	8302.47
527.287	8826.75
527.494	8626.04
527.701	8173.44
527.907	8382.34
528.114	8900.47
528.321	8621.95
528.528	8421.25
528.735	8480.64
528.941	8793.98
529.148	8599.42
529.355	8525.69
529.562	8251.27
529.768	9248.63
529.975	8730.49
530.182	8583.04
530.388	8488.83
530.595	9021.3
530.802	8597.37
531.008	9078.65
531.215	8822.65
531.422	9705.32
531.628	9805.67
531.835	8685.44
532.042	8755.07
532.248	9054.07
532.455	9080.69
532.661	8984.44
532.868	8779.64
533.074	9224.05
533.281	9441.14
533.487	9088.89
533.694	8892.28
533.9	8890.23
534.107	9371.5
534.313	8920.95
534.52	8781.69
534.726	9531.25
534.933	9774.95
535.139	9127.8
535.345	9195.38
535.552	9166.71
535.758	9531.25
535.965	9301.87
536.171	9168.76
536.377	9555.82
536.584	9932.65
536.79	9242.48
536.996	9357.17
537.203	9463.66
537.409	9727.85
537.615	9389.94
537.821	9492.34
538.028	9779.05
538.234	9865.07
538.44	9494.38
538.646	9602.93
538.853	9977.7
539.059	9633.64
539.265	9713.52
539.471	9291.63
539.677	10137.45
539.883	9785.19
540.09	9627.5
540.296	10123.11
540.502	9889.64
540.708	9723.76
540.914	9799.53
541.12	9695.08
541.326	10198.88
541.532	10196.84
541.738	9922.41
541.944	9996.14
542.15	10362.72
542.356	10006.38
542.562	9903.98
542.768	10030.95
542.974	10882.91
543.18	10823.51
543.386	9854.83
543.592	9725.8
543.798	10725.21
544.004	10510.18
544.21	10119.01
544.415	10057.57
544.621	10631.01
544.827	10590.05
545.033	10055.53
545.239	10512.22
545.445	10104.68
545.651	10512.22
545.856	10123.11
546.062	10307.43
546.268	10317.67
546.474	10585.95
546.679	10225.51
546.885	10440.54
547.091	10432.35
547.297	10940.25
547.502	10391.39
547.708	10090.34
547.914	10370.91
548.119	10944.34
548.325	10157.92
548.531	10100.58
548.736	10973.02
548.942	10186.6
549.147	10401.63
549.353	10680.16
549.559	11145.05
549.764	10856.28
549.97	10471.26
550.175	10426.21
550.381	10960.73
550.586	10487.65
550.792	10446.69
550.997	10655.58
551.203	10948.44
551.408	11091.8
551.614	10618.72
551.819	10813.27
552.025	11485.01
552.23	11571.02
552.435	10561.37
552.641	11251.54
552.846	10848.09
553.052	11198.29
553.257	10970.97
553.462	10968.92
553.668	11005.78
553.873	11464.53
554.078	10897.24
554.283	10854.23
554.489	11415.38
554.694	11317.08
554.899	10923.87
555.105	11259.73
555.31	11272.02
555.515	11519.82
555.72	11122.52
555.925	11196.25
556.131	11712.33
556.336	11220.82
556.541	11143
556.746	11265.88
556.951	11738.96
557.156	11583.31
557.361	11349.84
557.567	11360.08
557.772	12230.47
557.977	11687.76
558.182	11456.34
558.387	11362.13
558.592	11579.22
558.797	11906.89
559.002	11358.03
559.207	11429.71
559.412	11716.43
559.617	11999.05
559.822	11241.3
560.027	11333.46
560.232	11773.77
560.437	11904.84
560.642	11532.11
560.847	11405.14
561.051	11589.46
561.256	11763.53
561.461	11646.8
561.666	11423.57
561.871	12087.11
562.076	11974.47
562.281	11542.35
562.485	11540.3
562.69	11859.79
562.895	12169.03
563.1	11769.68
563.305	11673.42
563.509	12369.73
563.714	12672.83
563.919	11708.24
564.123	11757.39
564.328	11923.27
564.533	12379.97
564.737	11732.81
564.942	11843.4
565.147	12480.32
565.351	12361.54
565.556	11859.79
565.761	11652.94
565.965	11992.9
566.17	12109.64
566.374	11861.83
566.579	11745.1
566.784	12113.74
566.988	12304.2
567.193	11652.94
567.397	11964.23
567.602	12132.17
567.806	11953.99
568.011	11820.88
568.215	12166.98
568.42	12060.49
568.624	12435.27
568.828	11976.52
569.033	12097.35
569.237	12545.86
569.442	12691.26
569.646	11755.34
569.85	12158.79
570.055	12273.48
570.259	12558.14
570.463	12261.19
570.668	12177.22
570.872	12099.4
571.076	12404.55
571.281	12285.76
571.485	12549.95
571.689	12635.97
571.893	12851
572.098	12355.4
572.302	12472.13
572.506	12822.33
572.71	12498.75
572.914	12504.9
573.119	12566.34
573.323	12926.78
573.527	13078.33
573.731	12670.78
573.935	12457.79
574.139	12857.15
574.343	12308.29
574.547	12715.84
574.751	12414.79
574.955	13041.46
575.159	13268.79
575.364	12273.48
575.568	12291.91
575.772	12844.86
575.976	13074.23
576.18	12502.85
576.383	12613.44
576.587	13299.51
576.791	13025.08
576.995	12810.04
577.199	12582.72
577.403	13260.6
577.607	13397.81
577.811	12506.95
578.015	12830.52
578.219	13084.47
578.422	13231.93
578.626	12937.02
578.83	12945.21
579.034	13520.69
579.238	13033.27
579.442	12730.17
579.645	13381.43
579.849	13307.7
580.053	13219.64
580.257	12896.06
580.46	13000.51
580.664	13649.71
580.868	13352.76
581.071	13139.77
581.275	13082.42
581.479	13000.51
581.682	13598.51
581.886	13121.34
582.09	12996.41
582.293	13752.11
582.497	13657.9
582.7	13428.53
582.904	13137.72
583.107	13670.19
583.311	13535.03
583.515	13229.88
583.718	13311.8
583.922	13664.05
584.125	14053.16
584.329	13154.1
584.532	13608.75
584.735	14059.31
584.939	13526.83
585.142	12949.31
585.346	13268.79
585.549	13899.56
585.753	13395.76
585.956	13471.54
586.159	13598.51
586.363	14225.19
586.566	14053.16
586.769	13272.89
586.973	13213.49
587.176	13889.32
587.379	14067.5
587.582	13831.98
587.786	13670.19
587.989	13901.61
588.192	14561.06
588.395	13887.28
588.599	13918
588.802	14264.1
589.005	14079.79
589.208	13881.13
589.411	13889.32
589.615	14143.27
589.818	14714.66
590.021	14235.43
590.224	14219.05
590.427	14448.42
590.63	14237.48
590.833	14020.39
591.036	13870.89
591.239	14096.17
591.442	14051.11
591.645	14040.87
591.848	14059.31
592.051	14049.07
592.254	14520.1
592.457	14036.78
592.66	14247.72
592.863	14544.67
593.066	14198.57
593.269	14081.83
593.472	14235.43
593.675	14233.38
593.878	14536.48
594.081	14413.6
594.284	14040.87
594.486	14559.01
594.689	14606.11
594.892	14241.57
595.095	14288.68
595.298	14673.7
595.5	14565.15
595.703	14571.3
595.906	14436.13
596.109	15099.67
596.311	15066.91
596.514	14247.72
596.717	14384.93
596.92	15114.01
597.122	15040.28
597.325	14276.39
597.528	14323.49
597.73	15443.73
597.933	14837.53
598.136	14395.17
598.338	14403.36
598.541	15062.81
598.743	15152.92
598.946	14571.3
599.148	14810.91
599.351	15300.37
599.554	15130.39
599.756	14718.75
599.959	14452.52
600.161	15247.13
600.363	15716.11
600.566	15060.76
600.768	14556.96
600.971	15144.73
601.173	15058.71
601.376	14835.49
601.578	14894.88
601.78	15107.87
601.983	15699.73
602.185	14941.98
602.388	15077.15
602.59	15466.26
602.792	15134.49
602.995	14944.03
603.197	14673.7
603.399	15111.96
603.601	15195.93
603.804	14878.49
604.006	14853.92
604.208	14987.04
604.41	14731.04
604.613	15140.63
604.815	15015.71
605.017	15695.63
605.219	15077.15
605.421	15441.68
605.623	15066.91
605.826	15675.15
606.028	15777.55
606.23	15204.12
606.432	14913.31
606.634	15976.2
606.836	15628.05
607.038	14722.85
607.24	15236.89
607.442	15576.85
607.644	15294.23
607.846	15312.66
608.048	14946.08
608.25	15894.29
608.452	15240.98
608.654	15044.38
608.856	14997.28
609.058	15148.82
609.26	15427.35
609.462	15105.82
609.664	15292.18
609.866	15836.94
610.067	15875.85
610.269	15220.5
610.471	15128.35
610.673	15216.41
610.875	15791.89
611.077	15015.71
611.278	15300.37
611.48	15597.33
611.682	15994.64
611.884	15363.86
612.085	15359.77
612.287	15245.08
612.489	15816.46
612.69	15085.34
612.892	15587.09
613.094	15716.11
613.295	15398.68
613.497	15021.85
613.699	15552.27
613.9	15869.71
614.102	15718.16
614.304	15523.6
614.505	14933.79
614.707	15431.44
614.908	15386.39
615.11	15132.44
615.311	15560.47
615.513	15652.63
615.714	15908.62
615.916	15370.01
616.117	15599.38
616.319	15644.43
616.52	15673.1
616.722	15435.54
616.923	15656.72
617.124	16047.88
617.326	15859.47
617.527	15400.73
617.729	15494.93
617.93	15755.02
618.131	16103.18
618.333	15517.46
618.534	15650.58
618.735	15597.33
618.937	16240.39
619.138	15275.8
619.339	15310.61
619.54	16064.27
619.742	15535.89
619.943	15576.85
620.144	15726.35
620.345	15943.44
620.546	16008.97
620.748	15339.29
620.949	15374.1
621.15	15662.86
621.351	15650.58
621.552	15484.69
621.753	15367.96
621.954	15544.08
622.155	16250.63
622.356	15216.41
622.558	15851.28
622.759	15922.96
622.96	16092.94
623.161	15470.36
623.362	15740.69
623.563	15869.71
623.764	15718.16
623.965	15795.98
624.166	15890.19
624.366	15607.57
624.567	16135.95
624.768	15556.37
624.969	15548.18
625.17	15810.32
625.371	16172.81
625.572	15693.58
625.773	15548.18
625.973	16305.93
626.174	16152.33
626.375	15857.42
626.576	15714.06
626.777	16215.82
626.977	16338.69
627.178	15544.08
627.379	15886.09
627.58	15998.73
627.78	15906.57
627.981	15605.52
628.182	15945.48
628.382	16238.34
628.583	15752.98
628.784	15642.39
628.984	15812.37
629.185	16207.62
629.386	16045.84
629.586	16097.03
629.787	15806.22
629.987	16213.77
630.188	15963.92
630.388	15591.19
630.589	15959.82
630.79	16711.42
630.99	16107.27
631.191	15908.62
631.391	16187.14
631.591	16164.62
631.792	16506.63
631.992	16039.69
632.193	15781.65
632.393	16817.92
632.594	16301.83
632.794	15847.18
632.994	16205.58
633.195	16338.69
633.395	16355.08
633.595	15722.26
633.796	16365.32
633.996	16428.81
634.196	16359.17
634.397	15943.44
634.597	16011.02
634.797	15912.72
634.997	16672.51
635.198	16207.62
635.398	16064.27
635.598	16393.99
635.798	16594.69
635.998	16307.98
636.199	15951.63
636.399	16228.1
636.599	15961.87
636.799	16111.37
636.999	16328.45
637.199	16467.72
637.399	16856.83
637.599	16201.48
637.799	16254.73
637.999	16328.45
638.199	16920.32
638.399	16092.94
638.599	16140.04
638.799	16598.79
638.999	17035
639.199	16357.13
639.399	16318.21
639.599	16719.62
639.799	15970.06
639.999	16357.13
640.199	16224.01
640.399	16408.33
640.599	16183.05
640.799	16529.16
640.998	16279.3
641.198	16758.53
641.398	16416.52
641.598	16504.58
641.798	16168.71
641.997	17516.28
642.197	16535.3
642.397	16369.41
642.597	16072.46
642.796	16670.47
642.996	16998.14
643.196	16559.88
643.395	16312.07
643.595	16690.95
643.795	16287.5
643.994	16348.93
644.194	16203.53
644.394	16760.58
644.593	16602.88
644.793	16451.33
644.992	16246.54
645.192	16754.43
645.392	16445.19
645.591	16762.62
645.791	16729.86
645.99	16746.24
646.19	16862.97
646.389	16414.47
646.589	16742.14
646.788	17020.67
646.987	16951.04
647.187	17045.24
647.386	16895.74
647.586	17024.76
647.785	16951.04
647.984	16873.21
648.184	16680.71
648.383	16535.3
648.582	16731.9
648.782	16494.34
648.981	16660.23
649.18	16713.47
649.38	16987.9
649.579	16887.55
649.778	16623.36
649.977	17329.91
650.177	17254.14
650.376	16721.66
650.575	16715.52
650.774	17342.2
650.973	16760.58
651.173	16310.02
651.372	16600.83
651.571	16856.83
651.77	17166.07
651.969	16736
652.168	17024.76
652.367	16750.34
652.566	16805.63
652.765	16766.72
652.964	16998.14
653.163	17671.92
653.362	16975.61
653.561	16936.7
653.76	17096.44
653.959	17028.86
654.158	17403.64
654.357	17151.74
654.556	16606.98
654.755	17243.9
654.954	17350.39
655.153	17180.41
655.352	16926.46
655.551	17594.1
655.749	16955.13
655.948	17168.12
656.147	17286.9
656.346	17336.06
656.545	17127.16
656.743	16844.54
656.942	17059.58
657.141	17155.83
657.34	16797.44
657.538	17055.48
657.737	17010.43
657.936	17080.06
658.135	17274.62
658.333	16871.17
658.532	17243.9
658.731	17784.56
658.929	17426.17
659.128	17317.62
659.326	16871.17
659.525	17303.29
659.724	17237.75
659.922	16813.82
660.121	16981.76
660.319	17250.04
660.518	17161.98
660.716	17037.05
660.915	17078.01
661.113	17733.36
661.312	16760.58
661.51	17223.42
661.709	17123.07
661.907	17725.17
662.105	17807.09
662.304	16944.89
662.502	17299.19
662.701	17719.03
662.899	17284.86
663.097	17293.05
663.296	16926.46
663.494	17880.82
663.692	17495.8
663.891	16879.36
664.089	17006.33
664.287	17456.89
664.485	17712.88
664.684	17073.92
664.882	17229.56
665.08	17164.03
665.278	17204.99
665.476	16791.3
665.675	17286.9
665.873	17551.09
666.071	17542.9
666.269	17018.62
666.467	17442.55
666.665	17237.75
666.863	17151.74
667.061	17078.01
667.259	17233.66
667.457	17260.28
667.655	17262.33
667.853	16854.78
668.051	16903.93
668.249	17125.11
668.447	17284.86
668.645	16844.54
668.843	17145.59
669.041	17352.44
669.239	17016.57
669.437	17374.97
669.635	16967.42
669.833	17270.52
670.031	17170.17
670.229	17043.2
670.426	17221.37
670.624	17145.59
670.822	17082.11
671.02	17032.96
671.218	16994.04
671.415	17116.92
671.613	17176.31
671.811	16572.16
672.009	17121.02
672.206	17291
672.404	17221.37
672.602	17420.02
672.799	16987.9
672.997	17243.9
673.195	17544.95
673.392	17213.18
673.59	16627.46
673.788	17196.79
673.985	16899.84
674.183	16897.79
674.38	17006.33
674.578	17567.48
674.775	17039.1
674.973	16729.86
675.17	17116.92
675.368	17540.85
675.565	17174.27
675.763	16795.39
675.96	16762.62
676.158	17481.46
676.355	17065.72
676.553	17057.53
676.75	16824.06
676.947	17176.31
677.145	17309.43
677.342	16897.79
677.539	17102.59
677.737	17319.67
677.934	17471.22
678.131	17014.52
678.329	17067.77
678.526	17598.2
678.723	17426.17
678.92	17008.38
679.118	16817.92
679.315	16547.59
679.512	17401.59
679.709	17137.4
679.906	16930.56
680.104	17475.32
680.301	17153.79
680.498	16936.7
680.695	16789.25
680.892	16889.6
681.089	16846.59
681.286	16944.89
681.483	16310.02
681.68	16981.76
681.877	17084.16
682.075	16492.29
682.272	16893.69
682.469	17047.29
682.665	16862.97
682.862	16334.6
683.059	16584.45
683.256	16983.8
683.453	17262.33
683.65	16695.04
683.847	16881.41
684.044	16725.76
684.241	16678.66
684.438	16905.98
684.635	16684.8
684.831	17434.36
685.028	17241.85
685.225	16365.32
685.422	16566.02
685.619	16758.53
685.815	16903.93
686.012	16738.05
686.209	16332.55
686.405	16717.57
686.602	17102.59
686.799	16439.05
686.996	16518.92
687.192	16566.02
687.389	17026.81
687.586	16506.63
687.782	16516.87
687.979	17338.1
688.175	17028.86
688.372	16512.77
688.568	16445.19
688.765	16613.12
688.962	16918.27
689.158	16547.59
689.355	16320.26
689.551	16846.59
689.748	16465.67
689.944	16285.45
690.14	16238.34
690.337	16750.34
690.533	16559.88
690.73	16582.4
690.926	16402.18
691.123	16647.94
691.319	16455.43
691.515	16348.93
691.712	16414.47
691.908	16606.98
692.104	16353.03
692.301	16316.17
692.497	16004.88
692.693	16924.41
692.889	16830.21
693.086	16502.53
693.282	16391.94
693.478	16619.27
693.674	16815.87
693.87	16185.1
694.067	16060.17
694.263	16621.31
694.459	16340.74
694.655	16264.97
694.851	16334.6
695.047	16627.46
695.243	16725.76
695.439	16459.52
695.635	16252.68
695.831	16600.83
696.027	16398.09
696.224	15984.4
696.42	16649.99
696.615	16733.95
696.811	16320.26
697.007	16072.46
697.203	15980.3
697.399	16383.75
697.595	16488.2
697.791	15963.92
697.987	16172.81
698.183	16146.19
698.379	16189.19
698.575	16049.93
698.77	16234.25
698.966	16328.45
699.162	16566.02
699.358	15953.68
699.554	16066.31
699.749	16537.35
699.945	16508.68
700.141	16088.84
700.337	16092.94
700.532	16332.55
700.728	15783.7
700.924	15714.06
701.119	15804.17
701.315	16287.5
701.511	15992.59
701.706	16158.47
701.902	15654.67
702.097	16123.66
702.293	16615.17
702.489	16144.14
702.684	15849.23
702.88	15916.81
703.075	16101.13
703.271	15914.77
703.466	15810.32
703.662	16084.75
703.857	16299.78
704.053	15855.37
704.248	15898.38
704.443	16310.02
704.639	16150.28
704.834	15795.98
705.03	15922.96
705.225	16230.15
705.42	16283.4
705.616	15632.15
705.811	15636.24
706.006	15871.76
706.202	15847.18
706.397	15699.73
706.592	15503.12
706.787	15789.84
706.983	16105.23
707.178	16074.51
707.373	15900.43
707.568	15996.68
707.763	16164.62
707.959	15795.98
708.154	15884.05
708.349	15822.61
708.544	16119.56
708.739	16015.12
708.934	15746.83
709.129	16232.2
709.324	16221.96
709.519	15707.92
709.714	15468.31
709.909	16217.86
710.104	16154.38
710.299	15331.09
710.494	15626
710.689	16060.17
710.884	16029.45
711.079	15806.22
711.274	15591.19
711.469	16006.92
711.664	15959.82
711.859	15548.18
712.054	15437.59
712.249	15863.57
712.443	15982.35
712.638	15355.67
712.833	15468.31
713.028	15779.6
713.223	15724.3
713.417	15662.86
713.612	15697.68
713.807	16078.6
714.002	16199.43
714.196	15605.52
714.391	15447.83
714.586	15974.16
714.78	15886.09
714.975	15413.01
715.17	15363.86
715.364	15404.82
715.559	16039.69
715.754	15052.57
715.948	15204.12
716.143	16232.2
716.337	15517.46
716.532	15451.92
716.726	15542.03
716.921	15722.26
717.115	15984.4
717.31	15263.51
717.504	15890.19
717.699	15290.13
717.893	15748.88
718.088	14896.92
718.282	15220.5
718.476	15738.64
718.671	15347.48
718.865	15271.7
719.059	15062.81
719.254	15519.51
719.448	15476.5
719.642	16518.92
719.837	14821.15
720.031	15654.67
720.225	15304.47
720.419	15249.18
720.614	14964.51
720.808	15490.84
721.002	15025.95
721.196	15001.37
721.39	15126.3
721.585	15802.13
721.779	15374.1
721.973	14980.89
722.167	14530.34
722.361	15060.76
722.555	15413.01
722.749	14774.05
722.943	15009.56
723.137	14794.53
723.331	15308.57
723.525	14681.89
723.719	15216.41
723.913	15353.62
724.107	15490.84
724.301	14954.27
724.495	15073.05
724.689	15490.84
724.883	15496.98
725.077	14970.65
725.271	15036.19
725.465	15288.09
725.659	15087.39
725.853	15062.81
726.046	14722.85
726.24	14798.62
726.434	15142.68
726.628	14862.11
726.822	14923.55
727.015	15312.66
727.209	15187.74
727.403	14901.02
727.596	14712.61
727.79	15460.12
727.984	15472.4
728.177	14964.51
728.371	15007.51
728.565	15361.81
728.758	14843.68
728.952	14757.66
729.146	14841.63
729.339	15548.18
729.533	15038.23
729.726	14796.57
729.92	15128.35
730.113	15288.09
730.307	15378.2
730.5	14868.25
730.694	14862.11
730.887	14866.21
731.081	15048.47
731.274	14898.97
731.468	14944.03
731.661	14954.27
731.854	15044.38
732.048	14774.05
732.241	14501.67
732.435	14788.38
732.628	15140.63
732.821	14821.15
733.014	14667.55
733.208	14731.04
733.401	15206.17
733.594	14569.25
733.788	14669.6
733.981	15224.6
734.174	14980.89
734.367	14657.31
734.56	14901.02
734.754	15374.1
734.947	15064.86
735.14	14915.36
735.333	14937.88
735.526	15292.18
735.719	14841.63
735.912	14481.19
736.105	14769.95
736.298	15257.37
736.491	14751.52
736.684	14513.95
736.877	14767.9
737.07	14931.74
737.263	15308.57
737.456	14653.22
737.649	14556.96
737.842	14739.23
738.035	14819.1
738.228	14681.89
738.421	14710.56
738.614	15281.94
738.807	15228.7
739	14411.56
739.192	14413.6
739.385	14925.6
739.578	15015.71
739.771	14817.05
739.964	14300.97
740.156	15183.64
740.349	14800.67
740.542	14669.6
740.735	14188.33
740.927	14563.11
741.12	14389.03
741.313	14360.36
741.505	14630.69
741.698	14763.81
741.891	14778.14
742.083	14593.83
742.276	14593.83
742.468	14696.22
742.661	14817.05
742.854	14448.42
743.046	14196.52
743.239	14925.6
743.431	14571.3
743.624	14380.84
743.816	14303.01
744.009	14720.8
744.201	14604.07
744.393	14368.55
744.586	14243.62
744.778	14976.8
744.971	14552.87
745.163	14681.89
745.355	14610.21
745.548	14511.91
745.74	14524.19
745.932	14722.85
746.125	14427.94
746.317	15539.99
746.509	14733.09
746.702	14423.84
746.894	14403.36
747.086	14645.02
747.278	14911.26
747.471	14645.02
747.663	14507.81
747.855	14567.2
748.047	14747.42
748.239	14585.63
748.431	14253.86
748.623	14882.59
748.815	14954.27
749.008	14311.21
749.2	14442.28
749.392	14739.23
749.584	14763.81
749.776	14272.29
749.968	14487.33
750.16	15003.42
750.352	14313.25
750.544	14323.49
750.736	14006.06
750.928	14731.04
751.12	14673.7
751.311	14294.82
751.503	14473
751.695	14573.35
751.887	14532.39
752.079	14004.01
752.271	14272.29
752.463	15453.97
752.654	14698.27
752.846	14202.66
753.038	14167.85
753.23	14157.61
753.421	14188.33
753.613	14214.95
753.805	14145.32
753.997	14477.09
754.188	14425.89
754.38	13920.04
754.572	13956.91
754.763	14317.35
754.955	14321.45
755.146	14288.68
755.338	14214.95
755.53	14212.9
755.721	14255.91
755.913	13795.12
756.104	13694.77
756.296	13928.24
756.487	14274.34
756.679	13909.8
756.87	14122.79
757.062	13965.1
757.253	14241.57
757.445	13815.6
757.636	14042.92
757.827	14288.68
758.019	14794.53
758.21	13588.27
758.401	13657.9
758.593	14575.39
758.784	14286.63
758.975	13647.66
759.167	13532.98
759.358	14143.27
759.549	14241.57
759.74	13662
759.932	13522.74
760.123	14161.7
760.314	13864.75
760.505	14012.2
760.696	13502.26
760.888	14325.54
761.079	13842.22
761.27	13641.52
761.461	13231.93
761.652	14022.44
761.843	13653.81
762.034	13473.59
762.225	13981.48
762.416	13664.05
762.607	13852.46
762.798	13279.03
762.989	13516.59
763.18	14331.69
763.371	13600.56
763.562	13248.31
763.753	13311.8
763.944	13768.49
764.135	13999.91
764.326	13506.35
764.517	13193.01
764.708	13578.03
764.899	13592.37
765.089	13004.6
765.28	13178.68
765.471	13430.58
765.662	13471.54
765.853	13256.5
766.043	12891.96
766.234	13721.39
766.425	13573.94
766.615	13236.02
766.806	12961.59
766.997	13707.05
767.187	13489.97
767.378	12910.39
767.569	12656.45
767.759	13502.26
767.95	13494.07
768.141	13332.28
768.331	12947.26
768.522	13356.85
768.712	13625.14
768.903	12932.92
769.093	12838.72
769.284	13553.46
769.474	13365.04
769.665	12695.36
769.855	12846.91
770.046	13256.5
770.236	13354.8
770.426	12848.96
770.617	12762.94
770.807	12961.59
770.998	13156.15
771.188	12941.11
771.378	12603.2
771.569	13346.61
771.759	13227.83
771.949	12508.99
772.139	12527.42
772.33	12599.1
772.52	13137.72
772.71	12668.73
772.9	12662.59
773.09	13293.37
773.281	13258.55
773.471	12541.76
773.661	12588.86
773.851	13240.12
774.041	12746.56
774.231	12308.29
774.421	12754.75
774.611	13072.18
774.802	12523.33
774.992	12355.4
775.182	12345.16
775.372	12742.46
775.562	12951.35
775.752	12453.7
775.942	12379.97
776.131	13006.65
776.321	12572.48
776.511	12212.04
776.701	12310.34
776.891	12867.39
777.081	12463.94
777.271	12275.52
777.461	12246.85
777.651	12678.97
777.84	12732.22
778.03	12267.33
778.22	12181.32
778.41	12801.85
778.599	12443.46
778.789	12306.24
778.979	12109.64
779.169	12308.29
779.358	12586.82
779.548	12361.54
779.738	11953.99
779.927	12330.82
780.117	12420.93
780.307	11863.88
780.496	12017.48
780.686	12592.96
780.875	12644.16
781.065	11994.95
781.254	12085.06
781.444	12164.93
781.633	12023.62
781.823	11716.43
782.012	11896.65
782.202	11945.8
782.391	11917.13
782.581	11706.19
782.77	12097.35
782.96	12406.59
783.149	11896.65
783.338	11855.69
783.528	11597.65
783.717	12236.61
783.906	12212.04
784.096	11798.35
784.285	11626.32
784.474	12011.34
784.663	11732.81
784.853	11806.54
785.042	11573.07
785.231	11908.94
785.42	12203.85
785.61	11892.55
785.799	11601.74
785.988	11880.27
786.177	11781.96
786.366	11695.95
786.555	11831.12
786.744	12322.63
786.933	12011.34
787.122	11403.09
787.312	11626.32
787.501	11808.59
787.69	11863.88
787.879	11468.62
788.068	11315.03
788.257	11462.48
788.445	11579.22
788.634	11616.08
788.823	11294.55
789.012	12515.14
789.201	11986.76
789.39	11458.39
789.579	11151.19
789.768	11597.65
789.957	11497.3
790.145	11212.63
790.334	11126.61
790.523	11468.62
790.712	11257.68
790.9	11607.89
791.089	10981.21
791.278	11759.44
791.467	11521.87
791.655	11407.19
791.844	11476.82
792.033	11302.74
792.221	11267.92
792.41	11247.44
792.599	10778.46
792.787	11589.46
792.976	11595.6
793.164	11181.91
793.353	11143
793.541	11661.13
793.73	11603.79
793.918	11233.11
794.107	10944.34
794.295	11169.62
794.484	11245.4
794.672	11030.36
794.861	10958.68
795.049	11444.05
795.238	11552.59
795.426	10723.16
795.614	10940.25
795.803	11218.77
795.991	11341.65
796.179	11024.22
796.368	10827.61
796.556	11435.86
796.744	10772.32
796.932	10997.59
797.121	10725.21
797.309	10966.87
797.497	11411.28
797.685	10954.58
797.874	10864.47
798.062	10950.49
798.25	11370.32
798.438	10964.82
798.626	10878.81
798.814	11163.48
799.002	11710.29
799.19	11048.79
799.378	10958.68
799.566	11333.46
799.755	11482.96
799.943	11042.65
800.131	10751.84
800.318	11097.94
800.506	11323.22
800.694	10676.06
800.882	10954.58
801.07	11374.42
801.258	10907.48
801.446	10819.42
801.634	10843.99
801.822	10921.82
802.01	11118.42
802.197	10913.63
802.385	11075.41
802.573	11360.08
802.761	10907.48
802.949	10876.76
803.136	10843.99
803.324	11456.34
803.512	11343.7
803.699	10952.54
803.887	10678.11
804.075	11431.76
804.262	10940.25
804.45	10815.32
804.638	10872.67
804.825	11001.69
805.013	11026.26
805.201	10858.33
805.388	10901.34
805.576	11036.5
805.763	11679.57
805.951	11167.57
806.138	10999.64
806.326	11792.2
806.513	11257.68
806.701	10811.23
806.888	10760.03
807.075	11333.46
807.263	11521.87
807.45	10661.73
807.638	11286.36
807.825	11616.08
808.012	11552.59
808.2	10958.68
808.387	11317.08
808.574	11208.53
808.761	11556.69
808.949	10973.02
809.136	11208.53
809.323	11153.24
809.51	11212.63
809.698	11442
809.885	11300.69
810.072	11536.21
810.259	11485.01
810.446	11036.5
810.633	11171.67
810.82	11671.37
811.008	11593.55
811.195	11364.18
811.382	11003.74
811.569	11421.52
811.756	10995.54
811.943	11233.11
812.13	11016.02
812.317	11138.9
812.504	11128.66
812.691	11194.2
812.878	11175.77
813.064	11587.41
813.251	11302.74
813.438	11044.7
813.625	11118.42
813.812	11362.13
813.999	11312.98
814.186	11331.41
814.372	11009.88
814.559	11306.84
814.746	11620.17
814.933	10993.5
815.12	11087.7
815.306	11136.85
815.493	11003.74
815.68	10850.14
815.866	11089.75
816.053	11487.06
816.24	11720.53
816.426	11171.67
816.613	10661.73
816.799	11421.52
816.986	11603.79
817.173	11056.98
817.359	10923.87
817.546	11267.92
817.732	10897.24
817.919	10737.5
818.105	11126.61
818.292	11104.09
818.478	11407.19
818.665	10817.37
818.851	10938.2
819.037	11632.46
819.224	11253.59
819.41	10760.03
819.597	10770.27
819.783	11646.8
819.969	11495.25
820.156	11056.98
820.342	10825.56
820.528	11824.97
820.714	11026.26
820.901	10962.78
821.087	10680.16
821.273	11419.47
821.459	10848.09
821.646	10669.92
821.832	10641.25
822.018	11255.64
822.204	11030.36
822.39	10692.44
822.576	10743.64
822.762	11249.49
822.948	10944.34
823.134	10938.2
823.32	10737.5
823.507	10858.33
823.693	11145.05
823.879	10954.58
824.065	10930.01
824.25	10950.49
824.436	10710.88
824.622	10532.7
824.808	10530.66
824.994	10973.02
825.18	10655.58
825.366	10581.85
825.552	10432.35
825.738	10786.65
825.923	11022.17
826.109	10841.95
826.295	10524.51
826.481	10479.46
826.667	10831.71
826.852	10684.25
827.038	10377.06
827.224	11210.58
827.409	11245.4
827.595	10559.33
827.781	10612.57
827.966	11065.18
828.152	11020.12
828.338	10712.92
828.523	10446.69
828.709	10438.5
828.894	11175.77
829.08	10643.29
829.266	10188.64
829.451	10569.57
829.637	10860.38
829.822	10702.68
830.008	10418.02
830.193	10729.31
830.378	11020.12
830.564	10581.85
830.749	10368.87
830.935	10706.78
831.12	10751.84
831.305	10166.12
831.491	10438.5
831.676	10323.81
831.861	10876.76
832.047	10395.49
832.232	10069.86
832.417	10657.63
832.602	10508.13
832.788	10159.97
832.973	10162.02
833.158	10389.35
833.343	10307.43
833.528	10612.57
833.714	10241.89
833.899	10544.99
834.084	10977.11
834.269	10372.96
834.454	10006.38
834.639	10639.2
834.824	10250.08
835.009	10317.67
835.194	10377.06
835.379	10495.84
835.564	10598.24
835.749	10241.89
835.934	9836.39
836.119	10563.42
836.304	10379.11
836.489	9987.94
836.674	10372.96
836.859	10014.57
837.044	10684.25
837.228	9877.35
837.413	9877.35
837.598	10358.63
837.783	10473.31
837.968	9879.4
838.152	9754.48
838.337	9854.83
838.522	10307.43
838.707	10747.74
838.891	9895.78
839.076	10123.11
839.261	10467.17
839.445	9867.11
839.63	9985.9
839.815	10504.03
839.999	9910.12
840.184	9867.11
840.368	9676.65
840.553	10147.69
840.737	10354.53
840.922	9715.56
841.106	9656.17
841.291	9738.09
841.475	10028.9
841.66	9668.46
841.844	9557.87
842.029	10624.86
842.213	9762.67
842.397	9846.63
842.582	9385.84
842.766	10291.04
842.951	10116.97
843.135	9699.18
843.319	9625.45
843.504	9791.34
843.688	10002.28
843.872	9416.56
844.056	9359.22
844.241	9901.93
844.425	9547.63
844.609	9774.95
844.793	9396.08
844.977	10137.45
845.161	9867.11
845.346	9500.53
845.53	9525.1
845.714	9764.71
845.898	10217.32
846.082	9166.71
846.266	9514.86
846.45	9557.87
846.634	9727.85
846.818	9328.5
847.002	9529.2
847.186	9803.63
847.37	9346.93
847.554	9422.7
847.738	9566.06
847.922	9809.77
848.106	9494.38
848.29	9211.76
848.473	9424.75
848.657	9713.52
848.841	9389.94
849.025	9363.31
849.209	9043.83
849.392	9561.97
849.576	9457.52
849.76	8877.94
849.944	9434.99
850.127	9613.17
850.311	9099.13
850.495	9078.65
850.678	8996.73
850.862	9869.16
851.046	9697.13
851.229	9254.77
851.413	9090.93
851.596	9494.38
851.78	9385.84
851.964	9310.07
852.147	9023.35
852.331	9910.12
852.514	9602.93
852.698	9068.41
852.881	8619.9
853.065	9318.26
853.248	9289.59
853.431	8955.77
853.615	8875.9
853.798	10033
853.982	9234.29
854.165	9027.45
854.348	8920.95
854.532	8785.79
854.715	8968.06
854.898	8875.9
855.081	8884.09
855.265	9328.5
855.448	9439.09
855.631	8871.8
855.814	8761.21
855.997	9185.14
856.181	8955.77
856.364	8808.31
856.547	8509.31
856.73	8976.25
856.913	8959.86
857.096	8529.79
857.279	8746.87
857.462	8490.88
857.645	9234.29
857.828	8740.73
858.011	8603.52
858.194	8693.63
858.377	9090.93
858.56	8460.16
858.743	8451.97
858.926	8562.56
859.109	9023.35
859.292	8646.52
859.475	8259.46
859.658	9144.18
859.841	8812.41
860.023	8335.23
860.206	8580.99
860.389	8994.68
860.572	8931.19
860.755	8550.27
860.937	8484.73
861.12	8650.62
861.303	8832.89
861.486	8355.71
861.668	8320.9
861.851	8689.53
862.034	8759.16
862.216	8464.25
862.399	8181.64
862.581	8497.02
862.764	8877.94
862.947	8398.72
863.129	8294.27
863.312	8155.01
863.494	8767.35
863.677	8492.93
863.859	7909.26
864.042	8714.11
864.224	8773.5
864.406	8365.95
864.589	7821.19
864.771	8525.69
864.954	8140.68
865.136	7927.69
865.318	7966.6
865.501	8443.78
865.683	8050.57
865.865	8177.54
866.048	8095.62
866.23	8394.62
866.412	8198.02
866.594	8005.51
866.777	8204.16
866.959	8558.46
867.141	8177.54
867.323	8017.8
867.505	8181.64
867.687	8210.31
867.869	8249.22
868.052	7997.32
868.234	7925.64
868.416	8193.92
868.598	8275.84
868.78	7952.26
868.962	7835.53
869.144	8345.47
869.326	8615.8
869.508	7995.27
869.69	7909.26
869.872	7960.45
870.054	8484.73
870.236	7573.39
870.417	7761.8
870.599	7993.22
870.781	8601.47
870.963	7923.59
871.145	7729.03
871.327	7741.32
871.508	8159.11
871.69	7911.3
871.872	8064.9
872.054	8206.21
872.235	8218.5
872.417	7915.4
872.599	7718.79
872.78	8456.06
872.962	8193.92
873.144	7636.88
873.325	7880.58
873.507	8468.35
873.689	7997.32
873.87	7735.18
874.052	7948.17
874.233	7993.22
874.415	8335.23
874.596	7810.95
874.778	7677.83
874.959	8152.96
875.141	8210.31
875.322	7710.6
875.503	7628.68
875.685	8132.48
875.866	7835.53
876.048	7722.89
876.229	7630.73
876.41	8005.51
876.592	8017.8
876.773	7831.43
876.954	7499.66
877.136	8327.04
877.317	7831.43
877.498	7604.11
877.679	7755.66
877.86	8071.04
878.042	8025.99
878.223	7653.26
878.404	8359.81
878.585	8320.9
878.766	8357.76
878.947	8075.14
879.128	8013.7
879.309	8423.3
879.49	8470.4
879.672	8097.67
879.853	7884.68
880.034	8050.57
880.215	8044.42
880.396	8071.04
880.576	7765.9
880.757	8198.02
880.938	8413.06
881.119	7870.34
881.3	7985.03
881.481	8183.68
881.662	9135.99
881.843	7882.63
882.023	7903.11
882.204	8423.3
882.385	8185.73
882.566	7890.82
882.747	7933.83
882.927	8322.94
883.108	8163.2
883.289	8017.8
883.469	8165.25
883.65	8255.36
883.831	8146.82
884.011	8079.24
884.192	8085.38
884.373	8568.7
884.553	8482.69
884.734	8259.46
884.914	8306.56
885.095	9041.78
885.275	8920.95
885.456	8515.45
885.636	8175.49
885.817	8439.68
885.997	8320.9
886.178	8228.74
886.358	8380.29
886.538	8361.86
886.719	9437.04
886.899	8120.2
887.08	8476.54
887.26	8746.87
887.44	8281.99
887.621	8050.57
887.801	8050.57
887.981	8984.44
888.161	8656.76
888.342	8316.8
888.522	8675.2
888.702	8669.05
888.882	8693.63
889.062	8480.64
889.242	7995.27
889.423	8927.1
889.603	8499.07
889.783	8552.32
889.963	8069
890.143	8597.37
890.323	8660.86
890.503	8402.82
890.683	8304.51
890.863	8480.64
891.043	8570.75
891.223	8476.54
891.403	8406.91
891.583	8521.6
891.763	8501.12
891.943	8259.46
892.122	8056.71
892.302	8406.91
892.482	8767.35
892.662	8423.3
892.842	8183.68
893.022	8529.79
893.201	8544.13
893.381	8511.36
893.561	8284.03
893.741	8757.11
893.92	8703.87
894.1	8499.07
894.28	8435.58
894.459	8658.81
894.639	8552.32
894.819	8099.72
894.998	8185.73
895.178	8593.28
895.357	8525.69
895.537	8169.35
895.716	8134.53
895.896	8472.45
896.075	8687.48
896.255	8193.92
896.434	7985.03
896.614	8636.28
896.793	8785.79
896.973	8212.35
897.152	8247.17
897.331	8361.86
897.511	8439.68
897.69	7892.87
897.87	8183.68
898.049	8439.68
898.228	8390.53
898.407	8300.42
898.587	8116.1
898.766	7999.37
898.945	8517.5
899.124	8148.87
899.304	8118.15
899.483	8445.82
899.662	8732.54
899.841	7692.17
900.02	7712.65
900.199	8478.59
900.378	8277.89
900.557	7956.36
900.737	7673.74
900.916	8312.71
901.095	8298.37
901.274	8130.44
901.453	7858.06
901.632	7923.59
901.811	7610.25
901.989	7677.83
902.168	7628.68
902.347	8316.8
902.526	7591.82
902.705	7497.61
902.884	7759.75
903.063	8140.68
903.242	8308.61
903.42	7368.59
903.599	7640.97
903.778	7907.21
903.957	8132.48
904.135	7540.62
904.314	7360.4
904.493	7792.52
904.672	7813
904.85	7313.3
905.029	7495.57
905.207	7587.72
905.386	8204.16
905.565	7081.88
905.743	7161.75
905.922	7264.15
906.1	7696.27
906.279	6862.74
906.457	6786.97
906.636	7190.42
906.814	7206.8
906.993	7079.83
907.171	6989.72
907.35	7221.14
907.528	7272.34
907.707	7124.88
907.885	6700.95
908.063	7384.98
908.242	6997.91
908.42	6854.55
908.598	6743.96
908.777	7055.25
908.955	6969.24
909.133	6838.17
909.311	6641.56
909.49	6942.61
909.668	6811.54
909.846	6815.64
910.024	6629.27
910.202	6956.95
910.38	7178.13
910.559	6758.3
910.737	6758.3
910.915	6965.14
911.093	7171.99
911.271	6956.95
911.449	7096.21
911.627	7372.69
911.805	7856.01
911.983	6883.22
912.161	6940.57
912.339	7235.47
912.517	7516.05
912.695	7147.41
912.872	6969.24
913.05	7196.56
913.228	7278.48
913.406	7157.65
913.584	6987.67
913.762	7266.19
913.939	7167.89
914.117	7206.8
914.295	7049.11
914.473	7499.66
914.65	7495.57
914.828	7057.3
915.006	6928.28
915.184	7141.27
915.361	7120.79
915.539	7260.05
915.716	7206.8
915.894	7212.95
916.072	7415.69
916.249	7139.22
916.427	7159.7
916.604	7049.11
916.782	7415.69
916.959	6827.93
917.137	6870.94
917.314	7237.52
917.492	7219.09
917.669	6918.04
917.847	6969.24
918.024	7145.36
918.201	6887.32
918.379	6975.38
918.556	6870.94
918.733	7255.95
918.911	7055.25
919.088	6985.62
919.265	6743.96
919.442	7145.36
919.62	6913.94
919.797	6631.32
919.974	6569.88
920.151	6965.14
920.328	7030.68
920.506	6829.98
920.683	7034.77
920.86	6731.67
921.037	6868.89
921.214	6793.11
921.391	6809.5
921.568	7124.88
921.745	6786.97
921.922	6858.65
922.099	6659.99
922.276	7260.05
922.453	7051.16
922.63	6438.81
922.807	6956.95
922.984	6948.76
923.161	6715.29
923.338	6715.29
923.514	6553.5
923.691	6752.15
923.868	6782.87
924.045	6281.12
924.222	6541.21
924.399	6864.79
924.575	6973.33
924.752	6582.17
924.929	6434.72
925.105	6670.23
925.282	6725.53
925.459	6375.33
925.635	6422.43
925.812	6518.68
925.989	6344.61
926.165	6541.21
926.342	6051.75
926.518	6291.36
926.695	6576.03
926.871	6236.06
927.048	5973.92
927.224	6535.07
927.401	6283.17
927.577	6092.71
927.754	6039.46
927.93	6453.15
928.107	6674.33
928.283	5900.2
928.459	6193.06
928.636	6279.07
928.812	6264.74
928.988	5930.92
929.165	5773.22
929.341	6207.39
929.517	6281.12
929.693	6168.48
929.87	5707.69
930.046	6285.22
930.222	5834.66
930.398	5795.75
930.574	6072.23
930.751	6059.94
930.927	5855.14
931.103	5693.35
931.279	5586.86
931.455	5578.67
931.631	5955.49
931.807	5545.9
931.983	5617.58
932.159	5420.97
932.335	5961.64
932.511	5474.22
932.687	5453.74
932.863	5664.68
933.039	5732.26
933.215	5259.18
933.391	5285.81
933.566	5746.6
933.742	5662.63
933.918	5322.67
934.094	5044.15
934.27	5304.24
934.445	5431.21
934.621	5306.29
934.797	4947.89
934.973	5541.8
935.148	5390.25
935.324	4693.94
935.5	4622.27
935.675	5257.14
935.851	5148.59
936.027	4861.88
936.202	4814.77
936.378	4835.25
936.553	4829.11
936.729	4927.41
936.904	4267.97
937.08	4370.37
937.255	4255.68
937.431	4190.14
937.606	4067.27
937.782	4345.79
937.957	4253.63
938.133	4167.62
938.308	4011.97
938.483	4065.22
938.659	3915.72
938.834	3962.82
939.009	3811.27
939.185	3860.42
939.36	3712.97
939.535	3313.61
939.71	3702.73
939.886	4126.66
940.061	3801.03
940.236	3655.62
940.411	3528.65
940.586	3839.94
940.761	3696.58
940.937	3282.89
941.112	3286.99
941.287	3624.9
941.462	3624.9
941.637	3084.24
941.812	3317.71
941.987	3387.34
942.162	3401.68
942.337	3307.47
942.512	3198.93
942.687	3518.41
942.862	3499.98
943.037	2938.84
943.212	2701.27
943.386	3289.04
943.561	3430.35
943.736	3243.98
943.911	3485.64
944.086	3420.11
944.26	3432.4
944.435	3119.06
944.61	3194.83
944.785	3575.75
944.959	3772.36
945.134	3176.4
945.309	2996.18
945.483	3065.81
945.658	3377.1
945.833	2680.79
946.007	2910.16
946.182	3680.2
946.357	2990.03
946.531	2928.6
946.706	2932.69
946.88	2867.16
947.055	3395.53
947.229	3065.81
947.404	2844.63
947.578	3508.17
947.752	3272.65
947.927	2840.53
948.101	2930.64
948.276	3375.05
948.45	3260.37
948.624	3207.12
948.799	3020.75
948.973	3350.48
949.147	3074
949.321	3250.13
949.496	3010.51
949.67	3588.04
949.844	3282.89
950.018	3157.97
950.193	3350.48
950.367	3913.67
950.541	3188.69
950.715	3334.09
950.889	3241.93
951.063	3307.47
951.237	3669.96
951.411	3155.92
951.585	3110.86
951.759	3551.18
951.933	3508.17
952.107	3286.99
952.281	3495.88
952.455	3745.73
952.629	3663.82
952.803	3409.87
952.977	3221.45
953.151	3590.09
953.325	3563.47
953.499	3540.94
953.672	3151.82
953.846	3282.89
954.02	3403.72
954.194	3270.61
954.368	3246.03
954.541	3573.71
954.715	3434.44
954.889	3362.76
955.062	3184.59
955.236	3547.08
955.41	3579.85
955.583	3626.95
955.757	3301.33
955.93	3536.84
956.104	3250.13
956.278	3534.79
956.451	3471.31
956.625	3684.3
956.798	4184
956.972	3712.97
957.145	3385.29
957.319	3823.56
957.492	3721.16
957.665	3602.38
957.839	3403.72
958.012	3839.94
958.185	3403.72
958.359	3534.79
958.532	3829.7
958.705	3825.61
958.879	3774.41
959.052	3645.38
959.225	3289.04
959.398	3794.89
959.572	3788.74
959.745	3409.87
959.918	3418.06
960.091	3758.02
960.264	3841.99
960.438	3239.89
960.611	3373
960.784	3848.13
960.957	3567.56
961.13	3780.55
961.303	3405.77
961.476	3719.11
961.649	3686.34
961.822	3459.02
961.995	3391.44
962.168	3784.65
962.341	3815.37
962.514	3440.59
962.686	3475.4
962.859	3745.73
963.032	3782.6
963.205	3405.77
963.378	3475.4
963.551	3653.58
963.723	3725.26
963.896	3528.65
964.069	3620.81
964.242	3665.86
964.414	3876.8
964.587	3286.99
964.76	3450.83
964.932	3850.18
965.105	3692.49
965.278	3473.36
965.45	3422.16
965.623	3635.14
965.795	3846.09
965.968	3440.59
966.14	3377.1
966.313	3667.91
966.485	3704.78
966.658	3327.95
966.83	3366.86
967.003	3674.06
967.175	3852.23
967.348	3377.1
967.52	3373
967.692	4011.97
967.865	3618.76
968.037	3520.46
968.209	3590.09
968.382	3512.27
968.554	3856.33
968.726	3444.68
968.898	3131.34
969.071	3665.86
969.243	3704.78
969.415	3344.33
969.587	3487.69
969.759	4114.37
969.932	3747.78
970.104	3235.79
970.276	3155.92
970.448	3338.19
970.62	3364.81
970.792	3471.31
970.964	3321.81
971.136	4079.55
971.308	3655.62
971.48	3170.26
971.652	3289.04
971.824	3854.28
971.996	3203.02
972.168	3180.5
972.339	3358.67
972.511	3813.32
972.683	3446.73
972.855	3512.27
973.027	3393.48
973.199	3504.07
973.37	3577.8
973.542	3448.78
973.714	3325.9
973.886	3413.96
974.057	3682.25
974.229	3002.32
974.401	3213.26
974.572	3080.14
974.744	3008.47
974.915	3108.82
975.087	3069.91
975.259	3612.62
975.43	3121.1
975.602	3114.96
975.773	2856.92
975.945	3121.1
976.116	3442.64
976.288	3041.23
976.459	3270.61
976.63	3209.17
976.802	3463.12
976.973	3012.56
977.145	3272.65
977.316	3657.67
977.487	3350.48
977.659	3166.16
977.83	3018.71
978.001	3594.19
978.172	3420.11
978.344	3033.04
978.515	3004.37
978.686	3160.02
978.857	3471.31
979.028	2932.69
979.2	2955.22
979.371	3413.96
979.542	3047.38
979.713	3172.3
979.884	2478.04
980.055	3074
980.226	3098.58
980.397	3037.14
980.568	2799.57
980.739	3442.64
980.91	3043.28
981.081	2979.79
981.252	2736.09
981.423	3051.47
981.594	3227.6
981.765	2797.53
981.936	2865.11
982.106	2949.07
982.277	3162.06
982.448	2627.54
982.619	3018.71
982.79	2818
982.96	3252.17
983.131	2957.27
983.302	2533.34
983.472	2871.25
983.643	3012.56
983.814	2955.22
983.984	2566.1
984.155	2820.05
984.326	3153.87
984.496	2729.94
984.667	2738.13
984.837	2740.18
985.008	3221.45
985.178	2908.12
985.349	2619.35
985.519	2858.96
985.69	2828.24
985.86	2666.46
986.031	2537.43
986.201	2959.31
986.371	3016.66
986.542	2463.71
986.712	2400.22
986.882	2803.67
987.053	2869.2
987.223	2510.81
987.393	2697.17
987.563	2686.93
987.734	2926.55
987.904	2904.02
988.074	2359.26
988.244	2662.36
988.414	2574.3
988.585	2408.41
988.755	2480.09
988.925	2699.22
989.095	3117.01
989.265	2189.28
989.435	2439.13
989.605	2830.29
989.775	2793.43
989.945	2670.55
990.115	2369.5
990.285	2594.78
990.455	2623.45
990.625	2330.59
990.795	2273.25
990.965	2842.58
991.134	2387.93
991.304	2291.68
991.474	2238.43
991.644	2568.15
991.814	3096.53
991.984	2156.51
992.153	2183.13
992.323	2553.82
992.493	2607.06
992.662	1929.19
992.832	2324.44
993.002	2451.42
993.171	2451.42
993.341	2031.58
993.511	2226.14
993.68	2361.31
993.85	2701.27
994.019	2093.02
994.189	2197.47
994.358	2330.59
994.528	2287.58
994.697	1873.89
994.867	2045.92
995.036	2471.9
995.206	2332.64
995.375	1992.67
995.544	2164.7
995.714	2371.55
995.883	2260.96
996.052	2220
996.222	1890.28
996.391	2850.77
996.56	2414.56
996.73	2072.54
996.899	1810.4
997.068	2611.16
997.237	2404.32
997.406	1894.37
997.576	1834.98
997.745	2236.38
997.914	2299.87
998.083	1687.53
998.252	1884.13
998.421	2252.77
998.59	2002.91
998.759	1767.4
998.928	1724.39
999.097	2394.08
999.266	2185.18
999.435	1894.37
999.604	1615.85
999.773	2572.25
999.942	2029.54
1000.111	1658.85
1000.28	1535.98
1000.448	1820.64
1000.617	1912.8
1000.786	2119.65
1000.955	1642.47
1001.124	1992.67
1001.292	2762.71
1001.461	1685.48
1001.63	1679.33
1001.798	2336.73
1001.967	2246.62
1002.136	1513.45
1002.304	1630.18
1002.473	2000.87
1002.642	2066.4
1002.81	1632.23
1002.979	1689.57
1003.147	2111.46
1003.316	2510.81
1003.484	1796.07
1003.653	1505.26
1003.821	2238.43
1003.99	1845.22
1004.158	1744.87
1004.327	1714.15
1004.495	1980.39
1004.663	1806.31
1004.832	1656.81
1005	1368.04
1005.168	2056.16
1005.337	1857.51
1005.505	1398.76
1005.673	1671.14
1005.842	1970.15
1006.01	1816.55
1006.178	1357.8
1006.346	1415.15
1006.514	1970.15
1006.683	2031.58
1006.851	1521.64
1007.019	1513.45
1007.187	1572.84
1007.355	1259.5
1007.523	1171.44
1007.691	1394.67
1007.859	1492.97
1008.027	2031.58
1008.195	1497.07
1008.363	1239.02
1008.531	1863.65
1008.699	1611.75
1008.867	1210.35
1009.035	1415.15
1009.203	1927.14
1009.37	1742.82
1009.538	1308.65
1009.706	1742.82
1009.874	1611.75
1010.042	1570.79
1010.209	1216.49
1010.377	1150.96
1010.545	1847.27
1010.713	1589.22
1010.88	1150.96
1011.048	1310.7
1011.216	1470.44
1011.383	1959.91
1011.551	1185.77
1011.718	1159.15
1011.886	1808.36
1012.054	1535.98
1012.221	1110
1012.389	1171.44
1012.556	1517.54
1012.724	1880.04
1012.891	1236.97
1013.058	964.59
1013.226	1642.47
1013.393	1640.42
1013.561	991.22
1013.728	1019.89
1013.895	1621.99
1014.063	1488.87
1014.23	1069.04
1014.397	1204.21
1014.565	1552.36
1014.732	1308.65
1014.899	1077.23
1015.066	966.64
1015.233	1505.26
1015.401	1550.31
1015.568	1136.62
1015.735	1300.46
1015.902	1327.08
1016.069	1505.26
1016.236	997.36
1016.403	956.4
1016.57	1099.76
1016.737	1566.7
1016.904	1075.18
1017.071	913.39
1017.238	1208.3
1017.405	1601.51
1017.572	944.11
1017.739	1126.38
1017.906	1482.73
1018.073	1619.94
1018.24	870.39
1018.407	1019.89
1018.573	1609.7
1018.74	1259.5
1018.907	999.41
1019.074	788.47
1019.241	1517.54
1019.407	1255.4
1019.574	870.39
1019.741	729.08
1019.907	1429.48
1020.074	1282.03
1020.241	604.15
1020.407	722.93
1020.574	1292.27
1020.74	1267.69
1020.907	788.47
1021.073	796.66
1021.24	1767.4
1021.406	1562.6
1021.573	727.03
1021.739	839.67
1021.906	1382.38
1022.072	1093.62
1022.239	825.33
1022.405	843.76
1022.571	1173.49
1022.738	929.78
1022.904	702.45
1023.07	614.39
1023.237	1279.98
1023.403	1439.72
1023.569	729.08
1023.735	772.08
1023.902	1236.97
1024.068	1095.66
1024.234	679.93
1024.4	702.45
1024.566	1202.16
1024.732	1290.22
1024.898	696.31
1025.065	628.73
1025.231	1259.5
1025.397	966.64
1025.563	661.49
1025.729	636.92
1025.895	616.44
1026.061	858.1
1026.227	569.34
1026.392	657.4
1026.558	1282.03
1026.724	1099.76
1026.89	593.91
1027.056	798.71
1027.222	1126.38
1027.388	946.16
1027.553	555
1027.719	577.53
1027.885	1361.9
1028.051	1187.82
1028.216	471.03
1028.382	667.64
1028.548	1177.58
1028.713	888.82
1028.879	542.71
1029.045	745.46
1029.21	1269.74
1029.376	1255.4
1029.541	546.81
1029.707	569.34
1029.873	1105.9
1030.038	1091.57
1030.204	690.17
1030.369	583.67
1030.534	1153.01
1030.7	870.39
1030.865	567.29
1031.031	417.79
1031.196	944.11
1031.361	1003.5
1031.527	464.89
1031.692	530.42
1031.857	501.75
1032.023	1046.51
1032.188	542.71
1032.353	567.29
1032.518	1306.6
1032.684	1005.55
1032.849	401.4
1033.014	532.47
1033.179	952.31
1033.344	956.4
1033.509	571.38
1033.674	462.84
1033.839	999.41
1034.004	966.64
1034.17	499.7
1034.335	321.53
1034.5	749.56
1034.664	622.58
1034.829	374.78
1034.994	462.84
1035.159	866.29
1035.324	854
1035.489	477.18
1035.654	399.35
1035.819	1189.87
1035.984	970.74
1036.148	546.81
1036.313	499.7
1036.478	1103.86
1036.643	749.56
1036.807	327.67
1036.972	370.68
1037.137	1107.95
1037.301	802.8
1037.466	223.23
1037.631	487.42
1037.795	1124.33
1037.96	890.87
1038.124	571.38
1038.289	329.72
1038.454	876.53
1038.618	856.05
1038.783	505.85
1038.947	477.18
1039.111	819.19
1039.276	612.34
1039.44	401.4
1039.605	860.15
1039.769	649.21
1039.933	731.12
1040.098	387.07
1040.262	679.93
1040.426	1066.99
1040.591	884.72
1040.755	272.38
1040.919	309.24
1041.083	882.67
1041.248	755.7
1041.412	233.47
1041.576	243.71
1041.74	694.26
1041.904	942.07
1042.068	399.35
1042.232	378.87
1042.397	952.31
1042.561	829.43
1042.725	53.25
1042.889	550.9
1043.053	897.01
1043.217	833.52
1043.381	389.11
1043.544	96.25
1043.708	954.35
1043.872	514.04
1044.036	67.58
1044.2	190.46
1044.364	927.73
1044.528	952.31
1044.691	5101.49
1044.855	223.23
1045.019	944.11
1045.183	845.81
1045.346	268.28
1045.51	268.28
1045.674	837.62
1045.837	780.28
1046.001	307.2
1046.165	284.67
1046.328	1140.72
1046.492	790.52
1046.655	444.41
1046.819	301.05
1046.983	464.89
1047.146	747.51
1047.31	217.08
1047.473	83.97
1047.636	487.42
1047.8	430.07
1047.963	249.85
1048.127	258.04
1048.29	487.42
