Data from Hydrogel_Ink_Intensity_Test_1_USB4F045381__23__00023.txt Node

Date: Mon Jul 31 10:39:51 EDT 2023
User: mmckonesweet
Spectrometer: USB4F04538
Trigger mode: 4
Integration Time (sec): 9.000000E-1
Scans to average: 1
Electric dark correction enabled: true
Nonlinearity correction enabled: false
Boxcar width: 0
XAxis mode: Wavelengths
Number of Pixels in Spectrum: 3648
>>>>>Begin Spectral Data<<<<<
345.52	-921.93
345.736	-921.93
345.952	-921.93
346.168	-938.31
346.384	-913.74
346.6	-123.22
346.816	-209.23
347.032	-299.34
347.248	263.85
347.464	-205.14
347.68	-108.88
347.896	157.35
348.112	329.38
348.328	-119.12
348.544	26.28
348.76	40.62
348.975	247.46
349.191	-196.95
349.407	-139.6
349.623	100.01
349.839	-43.35
350.055	-96.6
350.27	89.77
350.486	224.94
350.702	376.48
350.918	378.53
351.133	-108.88
351.349	208.55
351.565	390.82
351.781	-188.75
351.996	100.01
352.212	335.53
352.428	-33.11
352.644	-121.17
352.859	-106.84
353.075	366.25
353.291	128.68
353.506	-6.49
353.722	-147.8
353.938	3.75
354.153	583.33
354.369	173.74
354.584	-84.31
354.8	437.92
355.016	-108.88
355.231	-225.62
355.447	28.33
355.662	196.26
355.878	933.53
356.093	-219.47
356.309	7.85
356.524	-90.45
356.74	302.76
356.955	-115.03
357.171	40.62
357.386	204.46
357.602	-112.98
357.817	1.71
358.033	-63.83
358.248	435.88
358.464	265.89
358.679	102.06
358.895	-270.67
359.11	79.53
359.325	433.83
359.541	278.18
359.756	175.78
359.972	-108.88
360.187	243.37
360.402	52.91
360.618	-14.68
360.833	1040.03
361.048	269.99
361.264	-72.02
361.479	38.57
361.694	63.15
361.909	325.29
362.125	-10.58
362.34	16.04
362.555	394.92
362.77	229.03
362.986	-139.6
363.201	-12.63
363.416	233.13
363.631	186.02
363.847	38.57
364.062	-129.36
364.277	233.13
364.492	183.98
364.707	59.05
364.922	-239.95
365.138	378.53
365.353	392.87
365.568	-69.97
365.783	57
365.998	241.32
366.213	691.87
366.428	-88.4
366.643	36.52
366.858	464.55
367.073	396.96
367.288	5.8
367.503	-92.5
367.718	251.56
367.933	376.48
368.148	-108.88
368.363	11.95
368.578	104.11
368.793	597.67
369.008	32.43
369.223	-90.45
369.438	321.19
369.653	532.13
369.868	-22.87
370.083	-47.44
370.298	188.07
370.513	489.12
370.728	196.26
370.943	-26.96
371.157	20.14
371.372	646.82
371.587	-61.78
371.802	-65.88
372.017	128.68
372.232	538.27
372.446	79.53
372.661	-135.51
372.876	362.15
373.091	265.89
373.306	32.43
373.52	-115.03
373.735	-31.06
373.95	515.75
374.165	126.63
374.379	-29.01
374.594	30.38
374.809	237.22
375.023	190.12
375.238	-147.8
375.453	317.09
375.667	-127.32
375.882	-10.58
376.097	-69.97
376.311	204.46
376.526	190.12
376.741	-35.16
376.955	300.71
377.17	769.69
377.384	691.87
377.599	61.1
377.813	-8.53
378.028	794.27
378.242	380.58
378.457	175.78
378.672	-180.56
378.886	249.51
379.101	73.39
379.315	-131.41
379.53	20.14
379.744	345.77
379.958	353.96
380.173	112.3
380.387	124.58
380.602	339.62
380.816	22.19
381.031	50.86
381.245	22.19
381.459	413.35
381.674	2502.28
381.888	42.67
382.103	306.85
382.317	-12.63
382.531	738.98
382.746	95.91
382.96	57
383.174	171.69
383.388	675.49
383.603	382.63
383.817	-100.69
384.031	372.39
384.246	747.17
384.46	286.37
384.674	554.66
384.888	253.61
385.103	294.57
385.317	-47.44
385.531	198.31
385.745	607.91
385.959	599.71
386.174	71.34
386.388	-43.35
386.602	280.23
386.816	210.6
387.03	149.16
387.244	163.5
387.458	306.85
387.672	601.76
387.887	9.9
388.101	-12.63
388.315	636.58
388.529	413.35
388.743	269.99
388.957	-16.73
389.171	564.9
389.385	87.72
389.599	208.55
389.813	353.96
390.027	421.54
390.241	913.05
390.455	229.03
390.669	218.79
390.883	169.64
391.097	765.6
391.311	376.48
391.525	175.78
391.738	485.03
391.952	437.92
392.166	300.71
392.38	186.02
392.594	628.39
392.808	685.73
393.022	329.38
393.236	222.89
393.449	560.8
393.663	501.41
393.877	124.58
394.091	267.94
394.305	298.66
394.518	296.61
394.732	210.6
394.946	239.27
395.16	794.27
395.373	425.64
395.587	229.03
395.801	163.5
396.015	687.78
396.228	460.45
396.442	157.35
396.656	95.91
396.869	722.59
397.083	736.93
397.297	263.85
397.51	241.32
397.724	769.69
397.938	530.08
398.151	83.63
398.365	110.25
398.578	607.91
398.792	706.21
399.005	396.96
399.219	308.9
399.433	534.18
399.646	624.29
399.86	491.17
400.073	519.84
400.287	677.54
400.5	466.6
400.714	464.55
400.927	390.82
401.141	675.49
401.354	1605.27
401.567	710.3
401.781	278.18
401.994	788.13
402.208	1007.26
402.421	491.17
402.635	437.92
402.848	534.18
403.061	763.55
403.275	474.79
403.488	272.04
403.701	1011.36
403.915	702.11
404.128	427.68
404.341	409.25
404.555	687.78
404.768	458.4
404.981	566.95
405.195	394.92
405.408	1027.74
405.621	822.94
405.834	548.51
406.048	374.44
406.261	1044.12
406.474	999.07
406.687	423.59
406.9	657.06
407.114	575.14
407.327	726.69
407.54	347.81
407.753	302.76
407.966	501.41
408.179	845.47
408.392	521.89
408.605	269.99
408.819	722.59
409.032	814.75
409.245	442.02
409.458	757.41
409.671	726.69
409.884	1007.26
410.097	474.79
410.31	661.15
410.523	767.65
410.736	683.68
410.949	622.24
411.162	624.29
411.375	1121.95
411.588	1093.27
411.801	667.3
412.014	687.78
412.227	652.96
412.44	646.82
412.653	622.24
412.865	689.82
413.078	1007.26
413.291	933.53
413.504	736.93
413.717	507.55
413.93	1005.21
414.143	624.29
414.356	626.34
414.568	427.68
414.781	1023.64
414.994	917.15
415.207	786.08
415.42	616.1
415.632	1009.31
415.845	1359.51
416.058	577.19
416.271	609.95
416.483	800.41
416.696	1322.65
416.909	712.35
417.121	650.91
417.334	1044.12
417.547	1375.89
417.759	720.54
417.972	618.15
418.185	818.85
418.397	1060.51
418.61	747.17
418.823	751.26
419.035	1359.51
419.248	886.43
419.46	923.29
419.673	851.61
419.885	1103.51
420.098	935.58
420.311	777.89
420.523	540.32
420.736	1169.05
420.948	941.72
421.161	802.46
421.373	671.39
421.586	1042.07
421.798	949.92
422.01	757.41
422.223	939.68
422.435	947.87
422.648	1234.58
422.86	906.91
423.073	868
423.285	1330.84
423.497	769.69
423.71	806.56
423.922	878.24
424.134	1318.55
424.347	1390.23
424.559	1074.84
424.771	1175.19
424.984	1050.27
425.196	1222.3
425.408	677.54
425.621	868
425.833	1392.28
426.045	1459.86
426.257	843.42
426.47	964.25
426.682	1242.78
426.894	1326.74
427.106	1011.36
427.318	1074.84
427.531	1150.62
427.743	1359.51
427.955	937.63
428.167	1543.83
428.379	1459.86
428.591	1341.08
428.804	1212.06
429.016	1033.88
429.228	1250.97
429.44	1494.68
429.652	1339.03
429.864	1050.27
430.076	1275.54
430.288	1306.26
430.5	1212.06
430.712	1324.69
430.924	1633.94
431.136	1515.16
431.348	1121.95
431.56	1162.9
431.772	1349.27
431.984	1322.65
432.196	1199.77
432.408	1216.15
432.62	1314.45
432.832	1523.35
433.044	1625.75
433.256	1416.85
433.468	1678.99
433.679	1152.67
433.891	1255.06
434.103	1549.97
434.315	1957.52
434.527	1668.75
434.739	1431.19
434.95	1552.02
435.162	1732.24
435.374	1545.88
435.586	1523.35
435.798	1386.13
436.009	1285.78
436.221	1580.69
436.433	1445.52
436.645	1394.33
436.856	1562.26
437.068	1896.08
437.28	1509.01
437.491	1799.82
437.703	1844.88
437.915	1783.44
438.126	1638.03
438.338	1787.54
438.55	1861.26
438.761	1859.21
438.973	1703.57
439.184	1703.57
439.396	1713.81
439.608	2002.57
439.819	1580.69
440.031	1717.9
440.242	2057.87
440.454	2080.39
440.665	1621.65
440.877	1906.32
441.088	1996.43
441.3	1728.14
441.511	1552.02
441.723	1781.39
441.934	1947.28
442.146	1912.46
442.357	1859.21
442.569	2059.92
442.78	1869.45
442.991	2326.15
443.203	2018.96
443.414	1736.34
443.626	2236.04
443.837	1830.54
444.048	1742.48
444.26	1644.18
444.471	2080.39
444.682	2272.9
444.894	1678.99
445.105	1638.03
445.316	2338.44
445.528	2209.42
445.739	1922.7
445.95	1838.73
446.161	2025.1
446.373	2399.88
446.584	2070.16
446.795	1986.19
447.006	2293.38
447.217	2526.85
447.429	1822.35
447.64	1830.54
447.851	2477.7
448.062	2176.65
448.273	1765.01
448.484	2039.44
448.695	2379.4
448.907	2184.84
449.118	2082.44
449.329	2236.04
449.54	2141.83
449.751	2016.91
449.962	2055.82
450.173	2068.11
450.384	2561.67
450.595	2686.59
450.806	2180.75
451.017	2217.61
451.228	2641.54
451.439	2694.79
451.65	2121.35
451.861	1973.9
452.072	2076.3
452.283	2377.35
452.494	2383.49
452.705	2356.87
452.915	2819.71
453.126	2676.35
453.337	2135.69
453.548	2233.99
453.759	2776.7
453.97	3083.9
454.181	2512.52
454.391	2379.4
454.602	2682.5
454.813	2668.16
455.024	2602.63
455.235	2420.36
455.445	2809.47
455.656	2821.76
455.867	2602.63
456.078	2391.69
456.288	2655.87
456.499	2848.38
456.71	2422.41
456.921	2752.13
457.131	2893.44
457.342	2944.64
457.553	2592.39
457.763	2563.72
457.974	3108.48
458.184	3102.33
458.395	2561.67
458.606	2655.87
458.816	3321.46
459.027	3597.94
459.237	3077.76
459.448	2737.79
459.659	3352.18
459.869	3673.71
460.08	2754.18
460.29	3204.73
460.501	3683.95
460.711	3001.98
460.922	2811.52
461.132	3040.89
461.343	3909.23
461.553	3065.47
461.764	3053.18
461.974	3178.11
462.184	3425.91
462.395	3542.64
462.605	3384.95
462.816	3055.23
463.026	3540.6
463.236	3851.89
463.447	3180.15
463.657	3323.51
463.867	4011.63
464.078	3565.17
464.288	3466.87
464.498	3436.15
464.709	3673.71
464.919	3610.23
465.129	3561.08
465.339	3507.83
465.55	3976.81
465.76	4007.53
465.97	3620.47
466.18	3776.11
466.391	4200.04
466.601	4046.44
466.811	3837.55
467.021	3722.87
467.231	4312.68
467.441	4331.11
467.651	4220.52
467.862	3882.61
468.072	4449.89
468.282	4841.06
468.492	3978.86
468.702	4302.44
468.912	4611.68
469.122	5060.19
469.332	4587.11
469.542	4275.82
469.752	4894.3
469.962	4841.06
470.172	4433.51
470.382	4646.5
470.592	5250.65
470.802	5181.02
471.012	4898.4
471.222	4712.03
471.432	5455.45
471.642	5414.49
471.852	4949.6
472.062	5064.29
472.272	5172.83
472.482	5170.78
472.691	5111.39
472.901	5039.71
473.111	5447.26
473.321	6282.83
473.531	5336.67
473.741	5441.11
473.95	5846.61
474.16	5799.51
474.37	5762.64
474.58	5621.33
474.79	6428.23
474.999	6209.1
475.209	5680.72
475.419	6010.45
475.628	6364.75
475.838	6686.28
476.048	6178.38
476.258	6024.78
476.467	6698.56
476.677	6495.82
476.886	6737.48
477.096	6630.98
477.306	6491.72
477.515	7200.32
477.725	6725.19
477.935	6731.33
478.144	7218.75
478.354	6870.59
478.563	7065.15
478.773	6895.17
478.982	7360.06
479.192	7642.68
479.401	7214.65
479.611	7091.77
479.82	7274.04
480.03	7738.93
480.239	7517.75
480.449	7405.11
480.658	8203.82
480.868	7710.26
481.077	7923.25
481.287	7618.1
481.496	8298.03
481.705	8781.35
481.915	8240.68
482.124	8298.03
482.333	8504.87
482.543	8642.09
482.752	8246.83
482.961	8257.07
483.171	8947.23
483.38	8564.26
483.589	8736.29
483.799	8683.05
484.008	8928.8
484.217	9125.41
484.426	8934.95
484.636	8898.08
484.845	9340.44
485.054	8877.6
485.263	9629.21
485.472	9371.16
485.682	9915.92
485.891	9661.98
486.1	9104.93
486.309	9442.84
486.518	9954.83
486.727	10130.96
486.936	9596.44
487.146	9780.76
487.355	10243.6
487.564	9772.57
487.773	9915.92
487.982	9891.35
488.191	10233.36
488.4	10436.11
488.609	10223.12
488.818	10196.5
489.027	11165.18
489.236	11124.22
489.445	10341.9
489.654	10257.93
489.863	11130.37
490.072	10982.92
490.281	11183.62
490.49	10933.76
490.698	11429.37
490.907	11462.14
491.116	10903.04
491.325	10831.37
491.534	11746.81
491.743	11539.96
491.952	11417.08
492.16	11566.59
492.369	11605.5
492.578	11793.91
492.787	11619.83
492.996	11406.84
493.204	12062.19
493.413	12398.06
493.622	11488.76
493.831	11652.6
494.039	12559.85
494.248	11894.26
494.457	12008.95
494.665	12140.02
494.874	12451.31
495.083	12918.25
495.291	12533.23
495.5	12197.36
495.709	13047.27
495.917	12760.55
496.126	12520.94
496.335	12430.83
496.543	12852.71
496.752	13063.65
496.96	13012.45
497.169	12686.83
497.377	13028.84
497.586	13362.65
497.794	13057.51
498.003	12795.37
498.211	13393.37
498.42	13581.79
498.628	13202.91
498.837	12981.73
499.045	13680.09
499.254	13514.2
499.462	13327.84
499.671	13370.85
499.879	14032.34
500.087	14089.68
500.296	13862.36
500.504	13665.75
500.713	14177.75
500.921	14722.51
501.129	13624.79
501.338	13915.61
501.546	14392.78
501.754	14357.97
501.962	14171.6
502.171	13848.02
502.379	14630.35
502.587	14734.79
502.795	14304.72
503.004	14276.05
503.212	14644.68
503.42	15058.37
503.628	14751.18
503.837	14581.2
504.045	15052.23
504.253	15392.19
504.461	14683.59
504.669	14536.14
504.877	15080.9
505.085	15320.51
505.294	14919.11
505.502	15109.57
505.71	15470.01
505.918	15312.32
506.126	14978.5
506.334	14978.5
506.542	15510.97
506.75	15384
506.958	15408.58
507.166	15400.38
507.374	15441.34
507.582	16006.58
507.79	15560.13
507.998	15508.93
508.206	15805.88
508.414	15902.14
508.622	15476.16
508.83	15758.78
509.037	16438.7
509.245	16045.49
509.453	15898.04
509.661	15752.63
509.869	16084.41
510.077	16113.08
510.285	16207.28
510.492	15836.6
510.7	17083.81
510.908	16367.02
511.116	16156.08
511.324	16031.16
511.531	16348.59
511.739	16541.1
511.947	16666.03
512.155	16704.94
512.362	16815.53
512.57	16391.6
512.778	16248.24
512.985	16317.87
513.193	16887.21
513.401	17298.85
513.608	16563.63
513.816	16776.62
514.024	17102.25
514.231	17278.37
514.439	16928.17
514.646	16670.12
514.854	17276.32
515.061	17386.91
515.269	17139.11
515.477	16954.79
515.684	17200.55
515.892	17679.77
516.099	17102.25
516.307	16991.66
516.514	17859.99
516.722	17894.81
516.929	17178.02
517.136	17149.35
517.344	17520.03
517.551	17517.98
517.759	17376.67
517.966	17620.38
518.173	17960.34
518.381	18173.33
518.588	17931.67
518.796	17708.44
519.003	18271.64
519.21	18118.04
519.418	17917.34
519.625	18105.75
519.832	17995.16
520.039	18353.55
520.247	18140.57
520.454	18097.56
520.661	18826.64
520.868	18535.82
521.076	18335.12
521.283	18431.38
521.49	18840.97
521.697	18527.63
521.904	18570.64
522.112	18351.51
522.319	19158.41
522.526	18926.99
522.733	18720.14
522.94	18625.93
523.147	18861.45
523.354	19056.01
523.561	18730.38
523.768	18859.4
523.975	19516.8
524.183	19146.12
524.39	19217.8
524.597	19000.71
524.804	19344.77
525.011	19193.22
525.218	19096.97
525.425	19486.08
525.632	19541.38
525.838	19320.2
526.045	19385.73
526.252	19553.66
526.459	20936.04
526.666	20344.18
526.873	19330.44
527.08	19690.88
527.287	20405.62
527.494	19803.52
527.701	19836.28
527.907	19711.36
528.114	20061.56
528.321	20200.82
528.528	20047.22
528.735	20133.24
528.941	20241.78
529.148	19920.25
529.355	19991.93
529.562	20018.55
529.768	20557.17
529.975	20280.69
530.182	20657.52
530.388	20172.15
530.595	20579.7
530.802	20452.72
531.008	20608.37
531.215	20655.47
531.422	21468.52
531.628	21665.12
531.835	20925.8
532.042	20712.81
532.248	21034.35
532.455	21054.83
532.661	20774.25
532.868	20843.88
533.074	21325.16
533.281	21235.05
533.487	21130.6
533.694	20929.9
533.9	21488.99
534.107	22089.05
534.313	21298.53
534.52	21159.27
534.726	21738.85
534.933	21837.15
535.139	21353.83
535.345	21370.21
535.552	21859.68
535.758	22187.35
535.965	21904.73
536.171	21609.82
536.377	22162.78
536.584	22302.04
536.79	21706.08
536.996	22146.39
537.203	22216.02
537.409	22150.49
537.615	21984.6
537.821	22084.95
538.028	22990.16
538.234	22488.4
538.44	22207.83
538.646	22179.16
538.853	22814.03
539.059	22652.24
539.265	22906.19
539.471	22224.22
539.677	22912.33
539.883	22934.86
540.09	22494.55
540.296	22920.52
540.502	23098.7
540.708	22818.13
540.914	23209.29
541.12	23127.37
541.326	23520.58
541.532	23266.63
541.738	23254.34
541.944	23358.79
542.15	23782.72
542.356	23489.86
542.562	23340.36
542.768	23375.17
542.974	24210.75
543.18	24325.43
543.386	23651.65
543.592	23545.16
543.798	24126.78
544.004	24327.48
544.21	23575.87
544.415	24014.14
544.621	24046.91
544.827	24126.78
545.033	23831.87
545.239	24354.1
545.445	24339.77
545.651	24177.98
545.856	24157.5
546.062	24474.93
546.268	24253.75
546.474	24341.82
546.679	23934.27
546.885	24261.94
547.091	23991.61
547.297	24761.65
547.502	24360.25
547.708	24245.56
547.914	24343.86
548.119	24665.39
548.325	24180.03
548.531	24005.95
548.736	24933.68
548.942	24384.82
549.147	24204.6
549.353	24956.21
549.559	25335.08
549.764	25015.6
549.97	24120.63
550.175	24759.6
550.381	25306.41
550.586	24317.24
550.792	25011.5
550.997	25031.98
551.203	25111.85
551.408	25441.57
551.614	24890.67
551.819	25277.74
552.025	25656.61
552.23	26154.27
552.435	25230.63
552.641	25955.61
552.846	25732.39
553.052	26291.48
553.257	25883.94
553.462	25736.48
553.668	25652.52
553.873	26279.19
554.078	25822.5
554.283	25732.39
554.489	26340.63
554.694	26647.83
554.899	26055.97
555.105	26268.95
555.31	26301.72
555.515	26582.29
555.72	26545.43
555.925	26076.44
556.131	26965.26
556.336	26787.09
556.541	26531.09
556.746	26301.72
556.951	26979.6
557.156	26871.06
557.361	26455.32
557.567	26821.91
557.772	27526.41
557.977	26840.34
558.182	26561.81
558.387	26739.99
558.592	26748.18
558.797	27337.99
559.002	26965.26
559.207	27045.13
559.412	26821.91
559.617	27581.7
559.822	27000.08
560.027	26856.72
560.232	27059.47
560.437	27200.78
560.642	26711.32
560.847	27004.17
561.051	27387.14
561.256	27129.1
561.461	27239.69
561.666	26709.27
561.871	27239.69
562.076	27782.4
562.281	27125
562.485	26971.41
562.69	27462.92
562.895	27694.34
563.1	27585.8
563.305	27292.94
563.509	27720.96
563.714	28472.57
563.919	27178.25
564.123	27419.91
564.328	27702.53
564.533	28335.35
564.737	27370.76
564.942	27555.08
565.147	28564.73
565.351	28765.43
565.556	27927.81
565.761	27577.61
565.965	28093.69
566.17	27536.65
566.374	27503.88
566.579	27761.92
566.784	28216.57
566.988	28361.98
567.193	28011.78
567.397	27972.86
567.602	28017.92
567.806	27970.82
568.011	28151.04
568.215	28376.31
568.42	28261.63
568.624	28505.34
568.828	28441.85
569.033	28167.42
569.237	28640.5
569.442	29109.49
569.646	28171.52
569.85	28749.04
570.055	28902.64
570.259	28759.28
570.463	28742.9
570.668	28720.37
570.872	28720.37
571.076	29054.19
571.281	28863.73
571.485	28792.05
571.689	28904.69
571.893	29048.05
572.098	28964.08
572.302	29136.11
572.506	29474.02
572.71	29023.47
572.914	29228.27
573.119	28843.25
573.323	29560.04
573.527	29605.09
573.731	29175.02
573.935	29175.02
574.139	29404.39
574.343	29144.3
574.547	29304.04
574.751	29406.44
574.955	29375.72
575.159	29834.47
575.364	29023.47
575.568	29353.19
575.772	29807.84
575.976	30176.48
576.18	29662.44
576.383	29549.8
576.587	30420.19
576.791	29914.34
576.995	29682.92
577.199	29426.92
577.403	29719.78
577.607	30297.31
577.811	30147.81
578.015	30022.88
578.219	30403.8
578.422	30125.28
578.626	30037.22
578.83	30368.99
579.034	30581.98
579.238	30319.84
579.442	30581.98
579.645	30430.43
579.849	30594.26
580.053	30837.97
580.257	30192.86
580.46	30432.47
580.664	30610.65
580.868	30719.19
581.071	30231.77
581.275	30735.57
581.479	30405.85
581.682	30960.85
581.886	30694.61
582.09	30794.96
582.293	30995.67
582.497	31159.5
582.7	30803.16
582.904	31071.44
583.107	31089.87
583.311	30835.92
583.515	30952.66
583.718	31083.73
583.922	31347.92
584.125	31726.79
584.329	30764.25
584.532	31497.42
584.735	31855.81
584.939	31339.72
585.142	30762.2
585.346	31143.12
585.549	31567.05
585.753	31782.09
585.956	31438.03
586.159	31261.9
586.363	32189.63
586.566	32021.7
586.769	31683.78
586.973	31290.57
587.176	32040.13
587.379	32142.53
587.582	32384.19
587.786	31538.38
587.989	32306.37
588.192	32543.93
588.395	31956.16
588.599	32378.04
588.802	32109.76
589.005	31972.55
589.208	32095.42
589.411	32392.38
589.615	32537.79
589.818	33199.28
590.021	32349.37
590.224	32478.4
590.427	32597.18
590.63	32779.45
590.833	32283.84
591.036	32521.4
591.239	33055.92
591.442	32511.16
591.645	33074.35
591.848	32761.01
592.051	33322.16
592.254	33328.3
592.457	32949.43
592.66	32797.88
592.863	33186.99
593.066	33291.44
593.269	32920.76
593.472	33088.69
593.675	33227.95
593.878	33686.7
594.081	33084.59
594.284	33096.88
594.486	33592.49
594.689	33756.33
594.892	33344.69
595.095	33402.03
595.298	33778.86
595.5	33907.88
595.703	33578.15
595.906	33909.93
596.109	34102.43
596.311	34170.02
596.514	33295.53
596.717	33797.29
596.92	34360.48
597.122	34475.16
597.325	33483.95
597.528	33457.32
597.73	34299.04
597.933	33854.63
598.136	34028.71
598.338	33987.75
598.541	34239.65
598.743	34610.33
598.946	33860.77
599.148	34153.63
599.351	34299.04
599.554	34741.4
599.756	34102.43
599.959	34153.63
600.161	34716.82
600.363	35253.39
600.566	34788.5
600.768	34366.62
600.971	34817.18
601.173	34595.99
601.376	34233.5
601.578	34616.47
601.78	34583.71
601.983	35560.59
602.185	34456.73
602.388	35165.33
602.59	34802.84
602.792	34835.61
602.995	34608.28
603.197	34512.03
603.399	35273.87
603.601	35161.23
603.804	34747.54
604.006	34847.89
604.208	34940.05
604.41	34847.89
604.613	34905.24
604.815	34606.23
605.017	35398.8
605.219	34956.44
605.421	35095.7
605.623	34944.15
605.826	35617.93
606.028	35480.72
606.23	35470.48
606.432	34989.2
606.634	36115.59
606.836	35556.49
607.038	35032.21
607.24	35345.55
607.442	35292.3
607.644	35488.91
607.846	35163.28
608.048	35099.8
608.25	35521.68
608.452	35345.55
608.654	35296.4
608.856	34808.98
609.058	35540.11
609.26	35777.67
609.462	35445.9
609.664	35431.57
609.866	35605.64
610.067	35581.07
610.269	35703.95
610.471	35173.52
610.673	35726.47
610.875	35710.09
611.077	35450
611.278	35323.02
611.48	35513.48
611.682	35990.66
611.884	35822.73
612.085	35038.36
612.287	35732.62
612.489	35773.58
612.69	35394.7
612.892	35804.3
613.094	36672.64
613.295	36117.64
613.497	35421.33
613.699	35964.04
613.9	36504.7
614.102	36045.96
614.304	35843.21
614.505	35409.04
614.707	36197.51
614.908	35878.02
615.11	35208.34
615.311	35908.74
615.513	35777.67
615.714	36029.57
615.916	35777.67
616.117	35749
616.319	35843.21
616.52	36334.72
616.722	35679.37
616.923	35335.31
617.124	36250.75
617.326	36138.12
617.527	36052.1
617.729	35880.07
617.93	35910.79
618.131	36140.16
618.333	35785.86
618.534	35966.09
618.735	35787.91
618.937	36617.34
619.138	35753.1
619.339	35687.56
619.54	36174.98
619.742	35990.66
619.943	36088.96
620.144	35751.05
620.345	36244.61
620.546	36131.97
620.748	36021.38
620.949	36056.2
621.15	36265.09
621.351	36052.1
621.552	35800.2
621.753	35849.35
621.954	35966.09
622.155	36273.28
622.356	35857.54
622.558	36328.58
622.759	36308.1
622.96	36596.86
623.161	35933.32
623.362	36009.09
623.563	36424.83
623.764	36240.51
623.965	36205.7
624.166	36627.58
624.366	36183.17
624.567	36576.38
624.768	35996.81
624.969	35738.76
625.17	36394.11
625.371	36494.46
625.572	36424.83
625.773	35824.78
625.973	36359.3
626.174	36709.5
626.375	36338.82
626.576	36908.15
626.777	36783.23
626.977	36963.45
627.178	36054.15
627.379	36365.44
627.58	36613.24
627.78	36574.33
627.981	36238.47
628.182	36768.89
628.382	36480.13
628.583	36662.4
628.784	36199.55
628.984	36504.7
629.185	36940.92
629.386	36467.84
629.586	36643.96
629.787	36570.24
629.987	36777.08
630.188	37137.52
630.388	36783.23
630.589	36174.98
630.79	36891.77
630.99	37119.09
631.191	36697.21
631.391	37092.47
631.591	36693.11
631.792	37166.2
631.992	36899.96
632.193	37276.79
632.393	36983.93
632.594	37201.01
632.794	36949.11
632.994	36975.73
633.195	37164.15
633.395	37272.69
633.595	36699.26
633.796	37108.85
633.996	37041.27
634.196	37590.13
634.397	37092.47
634.597	36977.78
634.797	36877.43
634.997	37387.38
635.198	37141.62
635.398	36848.76
635.598	37825.64
635.798	37717.1
635.998	37397.62
636.199	37071.99
636.399	37272.69
636.599	37637.23
636.799	37502.06
636.999	37153.91
637.199	37319.79
637.399	37641.32
637.599	37739.63
637.799	37227.63
637.999	37403.76
638.199	38290.53
638.399	37071.99
638.599	37817.45
638.799	37493.87
638.999	38419.55
639.199	38034.53
639.399	37895.27
639.599	38231.14
639.799	37332.08
639.999	37637.23
640.199	37559.41
640.399	37637.23
640.599	36695.16
640.799	38022.25
640.998	37936.23
641.198	37858.41
641.398	38057.06
641.598	37952.62
641.798	38216.8
641.997	38843.48
642.197	37893.22
642.397	38190.18
642.597	38083.69
642.796	37975.14
642.996	38552.67
643.196	37872.74
643.395	37862.5
643.595	38337.63
643.795	37624.94
643.994	37825.64
644.194	38055.01
644.394	38704.22
644.593	37899.37
644.793	38337.63
644.992	38085.73
645.192	38167.65
645.392	37645.42
645.591	38470.75
645.791	38114.41
645.99	38593.63
646.19	38378.59
646.389	38325.35
646.589	38360.16
646.788	38962.26
646.987	38644.83
647.187	38933.59
647.386	38421.6
647.586	38530.14
647.785	38364.26
647.984	38392.93
648.184	38360.16
648.383	38319.2
648.582	38384.74
648.782	38384.74
648.981	38124.64
649.18	38315.11
649.38	38517.85
649.579	38419.55
649.778	38990.94
649.977	38825.05
650.177	38784.09
650.376	38192.23
650.575	38050.92
650.774	39087.19
650.973	38702.17
651.173	38087.78
651.372	38888.54
651.571	38911.06
651.77	39050.33
651.969	38743.13
652.168	38526.05
652.367	38612.06
652.566	38890.59
652.765	38657.12
652.964	38935.64
653.163	39490.64
653.362	39013.46
653.561	38341.73
653.76	38825.05
653.959	38775.9
654.158	39605.33
654.357	38923.35
654.556	38655.07
654.755	39552.08
654.954	39552.08
655.153	38675.55
655.352	39265.36
655.551	39371.86
655.749	39246.93
655.948	38800.47
656.147	38874.2
656.346	39545.94
656.545	39218.26
656.743	38874.2
656.942	39083.09
657.141	39423.06
657.34	39027.8
657.538	39148.63
657.737	39195.73
657.936	39498.83
658.135	39502.93
658.333	38988.89
658.532	39670.86
658.731	39519.31
658.929	39478.35
659.128	39009.37
659.326	39273.56
659.525	39652.43
659.724	39306.32
659.922	39052.37
660.121	39015.51
660.319	39296.08
660.518	39040.09
660.716	39011.42
660.915	39550.03
661.113	40424.51
661.312	38829.15
661.51	39525.46
661.709	39025.75
661.907	39799.88
662.105	39738.44
662.304	39431.25
662.502	38906.97
662.701	39644.24
662.899	39144.53
663.097	39203.92
663.296	39154.77
663.494	39908.43
663.692	40064.07
663.891	39140.44
664.089	38888.54
664.287	39410.77
664.485	39351.38
664.684	39126.1
664.882	39234.64
665.08	39568.46
665.278	39720.01
665.476	39636.05
665.675	39461.97
665.873	39943.24
666.071	39476.3
666.269	39398.48
666.467	39390.29
666.665	39691.34
666.863	39382.1
667.061	39824.46
667.259	39449.68
667.457	39849.03
667.655	39535.7
667.853	38933.59
668.051	39122.01
668.249	39107.67
668.447	39681.1
668.645	38884.44
668.843	39451.73
669.041	39687.25
669.239	39253.08
669.437	39248.98
669.635	39593.04
669.833	39079
670.031	39363.67
670.229	39439.44
670.426	39378
670.624	39470.16
670.822	38947.93
671.02	39408.72
671.218	39464.02
671.415	39007.32
671.613	39175.25
671.811	39134.29
672.009	39439.44
672.206	39724.11
672.404	39134.29
672.602	39351.38
672.799	39529.55
672.997	39998.54
673.195	39812.17
673.392	39388.24
673.59	38888.54
673.788	39283.8
673.985	38755.42
674.183	39035.99
674.38	39232.6
674.578	39603.28
674.775	39179.35
674.973	38722.65
675.17	38911.06
675.368	39388.24
675.565	39189.59
675.763	38673.5
675.96	38610.01
676.158	39545.94
676.355	38923.35
676.553	38917.21
676.75	38366.31
676.947	38853.72
677.145	38767.71
677.342	39074.9
677.539	38870.11
677.737	38984.79
677.934	39205.97
678.131	38765.66
678.329	38736.99
678.526	39191.64
678.723	39517.26
678.92	39015.51
679.118	38366.31
679.315	38540.38
679.512	39373.91
679.709	38855.77
679.906	38448.22
680.104	38984.79
680.301	38984.79
680.498	38351.97
680.695	38552.67
680.892	38634.59
681.089	38562.91
681.286	38736.99
681.483	37868.65
681.68	38927.45
681.877	38589.53
682.075	38378.59
682.272	38501.47
682.469	38597.73
682.665	38429.79
682.862	38120.55
683.059	37637.23
683.256	38728.8
683.453	38650.97
683.65	38290.53
683.847	38341.73
684.044	38186.08
684.241	38184.04
684.438	38409.31
684.635	37866.6
684.831	38886.49
685.028	38618.21
685.225	38065.25
685.422	38104.17
685.619	37969
685.815	38503.52
686.012	38337.63
686.209	37846.12
686.405	37895.27
686.602	38890.59
686.799	37540.97
686.996	37997.67
687.192	37633.13
687.389	38157.41
687.586	37710.96
687.782	38157.41
687.979	38489.18
688.175	38098.02
688.372	38036.58
688.568	37653.61
688.765	37819.5
688.962	38370.4
689.158	37661.8
689.355	37682.28
689.551	37813.35
689.748	37700.72
689.944	38179.94
690.14	37297.27
690.337	38169.7
690.533	37563.5
690.73	37260.4
690.926	38243.43
691.123	37784.68
691.319	38104.17
691.515	37235.83
691.712	37440.62
691.908	37758.06
692.104	37723.24
692.301	37651.56
692.497	37213.3
692.693	37543.02
692.889	37743.72
693.086	37225.59
693.282	37174.39
693.478	37012.6
693.674	37946.47
693.87	36940.92
694.067	37282.93
694.263	37444.72
694.459	37581.93
694.655	37932.14
694.851	37293.17
695.047	37135.48
695.243	37606.51
695.439	37260.4
695.635	37340.27
695.831	37426.29
696.027	37076.08
696.224	36562.04
696.42	37440.62
696.615	37604.46
696.811	37457.01
697.007	37074.04
697.203	37143.67
697.399	37502.06
697.595	37420.14
697.791	36531.33
697.987	36994.17
698.183	36787.32
698.379	36414.59
698.575	36967.54
698.77	37098.61
698.966	37254.26
699.162	37364.85
699.358	37250.16
699.554	36682.87
699.749	37454.96
699.945	36779.13
700.141	36779.13
700.337	36439.17
700.532	36840.57
700.728	36764.79
700.924	36711.55
701.119	36693.11
701.315	36537.47
701.511	36793.47
701.706	37018.74
701.902	36267.14
702.097	36529.28
702.293	36572.28
702.489	36439.17
702.684	36658.3
702.88	36514.94
703.075	36334.72
703.271	36295.81
703.466	36459.65
703.662	36779.13
703.857	36770.94
704.053	36402.3
704.248	36400.26
704.443	36355.2
704.639	36611.2
704.834	36549.76
705.03	36273.28
705.225	36494.46
705.42	36258.95
705.616	36275.33
705.811	35837.06
706.006	35929.22
706.202	36273.28
706.397	36056.2
706.592	35892.36
706.787	36213.89
706.983	36248.71
707.178	36596.86
707.373	35843.21
707.568	36301.95
707.763	36326.53
707.959	36091.01
708.154	35871.88
708.349	36232.32
708.544	36668.54
708.739	36005
708.934	35669.13
709.129	36328.58
709.324	36005
709.519	35810.44
709.714	35890.31
709.909	36756.6
710.104	36039.81
710.299	35431.57
710.494	36353.15
710.689	36158.59
710.884	35929.22
711.079	36015.24
711.274	35710.09
711.469	36160.64
711.664	36191.36
711.859	35835.02
712.054	36002.95
712.249	35908.74
712.443	36287.62
712.638	35531.92
712.833	35396.75
713.028	36007.05
713.223	35347.6
713.417	35660.94
713.612	35447.95
713.807	35966.09
714.002	36170.88
714.196	35660.94
714.391	35450
714.586	35726.47
714.78	35501.2
714.975	35318.93
715.17	35007.64
715.364	35822.73
715.559	36088.96
715.754	34716.82
715.948	35017.88
716.143	35732.62
716.337	35300.5
716.532	35583.12
716.726	35310.74
716.921	35351.7
717.115	35742.86
717.31	34731.16
717.504	35986.57
717.699	35150.99
717.893	35320.98
718.088	34864.28
718.282	34966.68
718.476	35370.13
718.671	35050.64
718.865	34747.54
719.059	34784.41
719.254	34737.3
719.448	35159.19
719.642	36031.62
719.837	34299.04
720.031	35071.12
720.225	34950.29
720.419	34626.71
720.614	34589.85
720.808	34761.88
721.002	34288.8
721.196	34383.01
721.39	34417.82
721.585	34710.68
721.779	34858.13
721.973	34829.46
722.167	33836.2
722.361	34471.07
722.555	34745.5
722.749	34471.07
722.943	34256.03
723.137	34307.23
723.331	34643.1
723.525	34237.6
723.719	33801.38
723.913	34524.32
724.107	34524.32
724.301	33971.36
724.495	33893.54
724.689	35048.6
724.883	34378.91
725.077	34008.23
725.271	34106.53
725.465	34499.74
725.659	34210.98
725.853	34059.43
726.046	33825.96
726.24	33873.06
726.434	34462.88
726.628	34229.41
726.822	33961.12
727.015	34702.49
727.209	34430.11
727.403	33885.35
727.596	33901.73
727.79	34725.02
727.984	34296.99
728.177	33873.06
728.371	34321.57
728.565	34122.91
728.758	34049.19
728.952	33791.14
729.146	34280.61
729.339	34610.33
729.533	34593.95
729.726	33744.04
729.92	33891.49
730.113	34385.05
730.307	34448.54
730.5	33703.08
730.694	33795.24
730.887	33756.33
731.081	34495.64
731.274	33905.83
731.468	33930.4
731.661	33680.55
731.854	33963.17
732.048	33911.97
732.241	33754.28
732.435	34163.87
732.628	34569.37
732.821	34331.81
733.014	33713.32
733.208	34008.23
733.401	34757.78
733.594	33551.53
733.788	33731.75
733.981	34421.92
734.174	34272.42
734.367	33713.32
734.56	33737.9
734.754	34294.94
734.947	34053.28
735.14	33895.59
735.333	34221.22
735.526	34155.68
735.719	33494.19
735.912	33524.91
736.105	33625.26
736.298	34108.58
736.491	33780.9
736.684	33549.48
736.877	33449.13
737.07	33727.66
737.263	34270.37
737.456	33436.84
737.649	33799.33
737.842	33887.4
738.035	33795.24
738.228	33379.5
738.421	33860.77
738.614	34008.23
738.807	33997.99
739	33143.98
739.192	33051.83
739.385	33590.44
739.578	34073.76
739.771	33469.61
739.964	33305.77
740.156	33672.36
740.349	33582.25
740.542	33842.34
740.735	33244.34
740.927	33348.78
741.12	32986.29
741.313	32697.53
741.505	33408.17
741.698	33205.42
741.891	33273.01
742.083	33318.06
742.276	33426.6
742.468	33352.88
742.661	32777.4
742.854	33334.45
743.046	32801.97
743.239	33391.79
743.431	33373.36
743.624	33027.25
743.816	32791.73
744.009	32738.49
744.201	33402.03
744.393	33062.07
744.586	32826.55
744.778	33524.91
744.971	33127.6
745.163	33281.2
745.355	33029.3
745.548	33105.07
745.74	33232.05
745.932	33008.82
746.125	33256.62
746.317	33739.94
746.509	32654.52
746.702	32851.13
746.894	32744.63
747.086	33084.59
747.278	33242.29
747.471	33129.65
747.663	32982.2
747.855	33250.48
748.047	33270.96
748.239	32777.4
748.431	32693.43
748.623	33459.37
748.815	33344.69
749.008	32963.76
749.2	33191.09
749.392	32834.74
749.584	32951.48
749.776	32810.17
749.968	32855.22
750.16	33361.07
750.352	32697.53
750.544	32672.95
750.736	32533.69
750.928	33031.35
751.12	32609.47
751.311	32285.89
751.503	32855.22
751.695	32707.77
751.887	32724.15
752.079	32441.53
752.271	32220.35
752.463	33776.81
752.654	32666.81
752.846	32490.68
753.038	31988.93
753.23	32470.2
753.421	32427.2
753.613	32230.59
753.805	32689.34
753.997	32625.85
754.188	32720.06
754.38	31718.6
754.572	32285.89
754.763	32382.14
754.955	31935.68
755.146	32107.71
755.338	31749.32
755.53	31960.26
755.721	32160.96
755.913	31503.56
756.104	31724.74
756.296	32025.79
756.487	32394.43
756.679	31800.52
756.87	31501.51
757.062	31546.57
757.253	31880.39
757.445	31644.87
757.636	31788.23
757.827	31808.71
758.019	32617.66
758.21	31442.12
758.401	31653.06
758.593	32132.29
758.784	31816.9
758.975	30887.12
759.167	31192.27
759.358	31665.35
759.549	31835.33
759.74	31206.61
759.932	31481.03
760.123	31847.62
760.314	31433.93
760.505	31104.21
760.696	30821.59
760.888	31827.14
761.079	30909.65
761.27	30780.63
761.461	30864.6
761.652	31716.55
761.843	30950.61
762.034	31194.32
762.225	31016.15
762.416	30954.71
762.607	31046.86
762.798	30653.65
762.989	30553.3
763.18	31538.38
763.371	30899.41
763.562	30508.25
763.753	30395.61
763.944	30983.38
764.135	30891.22
764.326	30905.56
764.517	30440.67
764.708	31091.92
764.899	30538.97
765.089	30252.25
765.28	30190.81
765.471	30760.15
765.662	30227.68
765.853	30215.39
766.043	29803.75
766.234	30573.78
766.425	30282.97
766.615	30156
766.806	29656.29
766.997	30446.81
767.187	29861.09
767.378	30229.73
767.569	29807.84
767.759	30076.13
767.95	30219.49
768.141	29981.92
768.331	29699.3
768.522	29609.19
768.712	30332.12
768.903	29816.04
769.093	29758.69
769.284	30018.78
769.474	29848.8
769.665	29553.9
769.855	29172.97
770.046	29910.24
770.236	29617.38
770.426	29336.81
770.617	29129.97
770.807	29285.61
770.998	29375.72
771.188	29238.51
771.378	29256.94
771.569	29287.66
771.759	29525.22
771.949	28753.14
772.139	29170.93
772.33	28974.32
772.52	29813.99
772.71	29019.38
772.9	28826.87
773.09	29527.27
773.281	29742.31
773.471	28966.13
773.661	28716.28
773.851	29015.28
774.041	28697.84
774.231	28800.24
774.421	29029.62
774.611	29195.5
774.802	28828.91
774.992	28462.33
775.182	28677.37
775.372	28654.84
775.562	28755.19
775.752	28464.38
775.942	28239.1
776.131	29046
776.321	28468.47
776.511	28351.74
776.701	28269.82
776.891	28685.56
777.081	27802.88
777.271	27895.04
777.461	28183.8
777.651	28304.63
777.84	28495.1
778.03	28007.68
778.22	28163.32
778.41	28146.94
778.599	27796.74
778.789	27831.55
778.979	27729.16
779.169	28314.87
779.358	27958.53
779.548	28151.04
779.738	27311.37
779.927	27809.03
780.117	27647.24
780.307	27444.49
780.496	27280.65
780.686	27876.61
780.875	28353.79
781.065	27630.85
781.254	27417.86
781.444	27428.1
781.633	27802.88
781.823	27340.04
782.012	27512.07
782.202	27276.55
782.391	27497.74
782.581	26842.39
782.77	27272.46
782.96	27733.25
783.149	27038.99
783.338	27284.75
783.528	26866.96
783.717	27464.97
783.906	27643.14
784.096	26926.35
784.285	27061.52
784.474	27000.08
784.663	26893.58
784.853	26701.08
785.042	26936.59
785.231	26744.08
785.42	27276.55
785.61	27047.18
785.799	26596.63
785.988	26787.09
786.177	26649.88
786.366	26690.84
786.555	26840.34
786.744	26660.12
786.933	26680.6
787.122	26459.41
787.312	26527
787.501	26412.31
787.69	26793.23
787.879	26750.23
788.068	26336.54
788.257	26492.18
788.445	26260.76
788.634	26150.17
788.823	26117.4
789.012	26875.15
789.201	26678.55
789.39	26029.34
789.579	25898.27
789.768	26266.91
789.957	26443.03
790.145	25992.48
790.334	25734.43
790.523	26015.01
790.712	25965.85
790.9	26201.37
791.089	25625.89
791.278	26412.31
791.467	25986.33
791.655	26090.78
791.844	26373.4
792.033	25691.43
792.221	25943.33
792.41	25820.45
792.599	25232.68
792.787	25822.5
792.976	25851.17
793.164	25517.35
793.353	25693.47
793.541	25865.5
793.73	25732.39
793.918	25500.97
794.107	25283.88
794.295	25521.45
794.484	25494.82
794.672	25507.11
794.861	25244.97
795.049	25515.3
795.238	25716
795.426	24913.2
795.614	25070.89
795.803	25488.68
795.991	25652.52
796.179	24800.56
796.368	25206.06
796.556	25339.18
796.744	24857.9
796.932	24677.68
797.121	24890.67
797.309	25017.64
797.497	25177.39
797.685	24935.73
797.874	24835.38
798.062	25130.28
798.25	25326.89
798.438	25050.41
798.626	25193.77
798.814	25269.55
799.002	25791.78
799.19	25097.52
799.378	25046.32
799.566	25359.66
799.755	25279.78
799.943	25089.32
800.131	24837.42
800.318	24913.2
800.506	25345.32
800.694	25025.84
800.882	24939.82
801.07	25470.25
801.258	25064.75
801.446	24657.2
801.634	24923.44
801.822	24841.52
802.01	25185.58
802.197	25181.48
802.385	24726.83
802.573	25175.34
802.761	24665.39
802.949	24917.29
803.136	24737.07
803.324	25404.71
803.512	25214.25
803.699	24976.69
803.887	24671.54
804.075	25398.57
804.262	24851.76
804.45	24882.48
804.638	25074.99
804.825	25294.12
805.013	24917.29
805.201	25097.52
805.388	25093.42
805.576	25326.89
805.763	25881.89
805.951	25115.95
806.138	25287.98
806.326	25718.05
806.513	25337.13
806.701	24896.81
806.888	25152.81
807.075	25361.7
807.263	25785.63
807.45	25046.32
807.638	25257.26
807.825	25861.41
808.012	25267.5
808.2	25261.35
808.387	25353.51
808.574	25738.53
808.761	25638.18
808.949	25011.5
809.136	25586.98
809.323	25279.78
809.51	25814.3
809.698	25398.57
809.885	25148.71
810.072	25654.56
810.259	25890.08
810.446	25457.96
810.633	25490.73
810.82	26320.15
811.008	25840.93
811.195	25783.59
811.382	24972.59
811.569	25834.78
811.756	25441.57
811.943	25306.41
812.13	25161
812.317	25083.18
812.504	25347.37
812.691	25605.41
812.878	25865.5
813.064	25863.46
813.251	25709.86
813.438	25269.55
813.625	25578.79
813.812	25386.28
813.999	25533.73
814.186	25580.84
814.372	25437.48
814.559	25560.36
814.746	25554.21
814.933	25079.08
815.12	25376.04
815.306	25388.33
815.493	25550.12
815.68	25271.59
815.866	25382.18
816.053	26035.49
816.24	26305.82
816.426	25679.14
816.613	25330.98
816.799	26187.04
816.986	25670.95
817.173	25097.52
817.359	25234.73
817.546	25554.21
817.732	25077.04
817.919	24993.07
818.105	25517.35
818.292	25294.12
818.478	25734.43
818.665	25249.07
818.851	25275.69
819.037	25847.07
819.224	25244.97
819.41	25066.8
819.597	24939.82
819.783	25967.9
819.969	25490.73
820.156	24902.96
820.342	24933.68
820.528	25838.88
820.714	25023.79
820.901	25197.87
821.087	25244.97
821.273	25730.34
821.459	25378.09
821.646	24982.83
821.832	24999.21
822.018	25197.87
822.204	24816.94
822.39	25132.33
822.576	24538.42
822.762	25308.46
822.948	25333.03
823.134	24775.98
823.32	24724.79
823.507	24761.65
823.693	24943.92
823.879	25267.5
824.065	24685.87
824.25	24702.26
824.436	24632.63
824.622	24685.87
824.808	24567.09
824.994	24829.23
825.18	24417.59
825.366	24468.79
825.552	24132.92
825.738	24911.15
825.923	24874.29
826.109	24935.73
826.295	24186.17
826.481	24532.28
826.667	24354.1
826.852	24431.93
827.038	24042.81
827.224	24526.13
827.409	24882.48
827.595	24128.83
827.781	24423.73
827.966	24905.01
828.152	24542.52
828.338	24276.28
828.523	23958.85
828.709	24210.75
828.894	24923.44
829.08	24057.15
829.266	23903.55
829.451	24409.4
829.637	24458.55
829.822	23874.88
830.008	23954.75
830.193	24188.22
830.378	24450.36
830.564	23885.12
830.749	23567.68
830.935	24208.7
831.12	24048.96
831.305	23803.2
831.491	23768.38
831.676	23475.52
831.861	24198.46
832.047	23463.24
832.232	23496
832.417	23926.08
832.602	23555.4
832.788	23393.61
832.973	23809.34
833.158	23444.8
833.343	23881.02
833.528	23498.05
833.714	23680.32
833.899	23762.24
834.084	23752
834.269	23496
834.454	23276.87
834.639	23762.24
834.824	23385.41
835.009	23231.82
835.194	23450.95
835.379	23487.81
835.564	23385.41
835.749	23246.15
835.934	22934.86
836.119	23317.83
836.304	23110.99
836.489	22771.02
836.674	23188.81
836.859	23119.18
837.044	23432.52
837.228	22828.37
837.413	23029.07
837.598	23235.91
837.783	23348.55
837.968	23272.78
838.152	22668.62
838.337	22672.72
838.522	23307.59
838.707	23188.81
838.891	22846.8
839.076	23043.4
839.261	23170.38
839.445	22904.14
839.63	22531.41
839.815	22728.02
839.999	22494.55
840.184	22648.15
840.368	22201.69
840.553	22898
840.737	22754.64
840.922	22259.03
841.106	22064.47
841.291	22320.47
841.475	22848.85
841.66	22197.59
841.844	21892.44
842.029	23098.7
842.213	22310.23
842.397	22160.73
842.582	22152.54
842.766	22740.3
842.951	22672.72
843.135	22166.87
843.319	22091.1
843.504	22005.08
843.688	22420.82
843.872	21755.23
844.056	21964.12
844.241	22003.03
844.425	21964.12
844.609	21718.37
844.793	21736.8
844.977	22633.81
845.161	22029.66
845.346	21499.23
845.53	21507.43
845.714	21849.44
845.898	22424.92
846.082	21534.05
846.266	21415.27
846.45	21716.32
846.634	21818.72
846.818	21941.6
847.002	21544.29
847.186	21910.88
847.37	21210.47
847.554	21228.9
847.738	21335.4
847.922	21591.39
848.106	21654.88
848.29	20974.95
848.473	21163.37
848.657	21568.87
848.841	21370.21
849.025	21040.49
849.209	21099.88
849.392	21386.6
849.576	21335.4
849.76	20839.79
849.944	20942.19
850.127	21400.93
850.311	21022.06
850.495	20731.25
850.678	20598.13
850.862	21466.47
851.046	21329.25
851.229	20979.05
851.413	20596.08
851.596	20866.41
851.78	20962.67
851.964	21159.27
852.147	20819.31
852.331	21816.67
852.514	21097.83
852.698	20761.97
852.881	20497.78
853.065	20864.36
853.248	20751.73
853.431	20589.94
853.615	20462.96
853.798	21431.65
853.982	20870.51
854.165	20438.39
854.348	20745.58
854.532	20450.67
854.715	20432.24
854.898	20223.35
855.081	20284.79
855.265	20671.86
855.448	20804.97
855.631	20321.65
855.814	20364.66
855.997	20503.92
856.181	20120.95
856.364	20366.71
856.547	19858.81
856.73	20079.99
856.913	20141.43
857.096	19856.76
857.279	19987.83
857.462	19987.83
857.645	20364.66
857.828	19893.63
858.011	19924.35
858.194	19656.06
858.377	20290.93
858.56	19522.94
858.743	19791.23
858.926	19654.01
859.109	19903.87
859.292	19494.27
859.475	19568
859.658	20176.25
859.841	20004.22
860.023	19256.71
860.206	19330.44
860.389	19602.82
860.572	19899.77
860.755	19307.91
860.937	19191.17
861.12	19535.23
861.303	19553.66
861.486	19344.77
861.668	19078.54
861.851	19406.21
862.034	19355.01
862.216	19271.04
862.399	18705.81
862.581	19242.37
862.764	19459.46
862.947	19088.78
863.129	19099.02
863.312	18836.88
863.494	19543.42
863.677	19185.03
863.859	18742.67
864.042	19248.52
864.224	19262.85
864.406	18898.31
864.589	18431.38
864.771	19238.28
864.954	18658.7
865.136	18316.69
865.318	18171.29
865.501	18994.57
865.683	18406.8
865.865	18595.21
866.048	18668.94
866.23	18857.35
866.412	18589.07
866.594	18224.53
866.777	18271.64
866.959	18791.82
867.141	18392.47
867.323	18560.4
867.505	18650.51
867.687	18212.24
867.869	18427.28
868.052	18386.32
868.234	18181.53
868.416	18402.71
868.598	18345.36
868.78	18230.68
868.962	17986.97
869.144	18759.05
869.326	18363.79
869.508	18019.74
869.69	18232.72
869.872	18386.32
870.054	18757
870.236	17644.96
870.417	17986.97
870.599	18392.47
870.781	18535.82
870.963	18316.69
871.145	17984.92
871.327	18091.41
871.508	18449.81
871.69	18103.7
871.872	18087.32
872.054	18316.69
872.235	18705.81
872.417	18017.69
872.599	17739.16
872.78	18886.03
872.962	18273.68
873.144	17782.17
873.325	17761.69
873.507	18433.43
873.689	18001.3
873.87	17884.57
874.052	18255.25
874.233	18126.23
874.415	18548.11
874.596	18148.76
874.778	17776.03
874.959	18247.06
875.141	18210.2
875.322	18113.94
875.503	17819.03
875.685	18318.74
875.866	17718.68
876.048	17616.29
876.229	17773.98
876.41	17980.82
876.592	17726.88
876.773	17915.29
876.954	17849.75
877.136	18439.57
877.317	18144.66
877.498	17870.23
877.679	17999.26
877.86	18304.4
878.042	17991.06
878.223	17755.55
878.404	18191.77
878.585	18384.27
878.766	18404.75
878.947	18093.46
879.128	18267.54
879.309	18181.53
879.49	18376.08
879.672	18296.21
879.853	17958.3
880.034	18202
880.215	18326.93
880.396	18132.37
880.576	18054.55
880.757	18421.14
880.938	18632.08
881.119	18083.22
881.3	18138.52
881.481	18265.49
881.662	19350.92
881.843	18156.95
882.023	18189.72
882.204	18789.77
882.385	18822.54
882.566	18533.78
882.747	18087.32
882.927	18728.33
883.108	18828.68
883.289	18492.82
883.469	18951.56
883.65	18478.48
883.831	19029.38
884.011	18855.31
884.192	18824.59
884.373	19170.69
884.553	19193.22
884.734	18869.64
884.914	19039.62
885.095	19711.36
885.275	19651.97
885.456	19381.63
885.636	18505.1
885.817	19021.19
885.997	19281.28
886.178	18996.62
886.358	19316.1
886.538	19213.7
886.719	20157.82
886.899	18820.49
887.08	19246.47
887.26	19496.32
887.44	18886.03
887.621	19062.15
887.801	19004.81
887.981	19785.08
888.161	19776.89
888.342	19238.28
888.522	19303.81
888.702	19580.29
888.882	19580.29
889.062	19406.21
889.242	19234.18
889.423	19756.41
889.603	19502.47
889.783	19445.12
889.963	19080.58
890.143	19412.35
890.323	19778.94
890.503	19041.67
890.683	19051.91
890.863	19316.1
891.043	19180.93
891.223	19316.1
891.403	19301.76
891.583	19635.58
891.763	19498.37
891.943	19471.75
892.122	19289.48
892.302	19322.24
892.482	19402.11
892.662	19178.89
892.842	19127.69
893.022	19299.72
893.201	19285.38
893.381	19287.43
893.561	19172.74
893.741	19527.04
893.92	19516.8
894.1	19363.2
894.28	19244.42
894.459	19586.43
894.639	19428.74
894.819	19246.47
894.998	19158.41
895.178	19484.03
895.357	19283.33
895.537	18808.2
895.716	18959.75
895.896	19076.49
896.075	19504.51
896.255	18777.48
896.434	18367.89
896.614	19379.59
896.793	19287.43
896.973	18734.48
897.152	18750.86
897.331	19041.67
897.511	19170.69
897.69	18527.63
897.87	18945.42
898.049	18828.68
898.228	18714
898.407	18615.69
898.587	18509.2
898.766	18537.87
898.945	18922.89
899.124	18386.32
899.304	18521.49
899.483	18703.76
899.662	19109.26
899.841	18357.65
900.02	18509.2
900.199	18591.12
900.378	18599.31
900.557	17874.33
900.737	17851.8
900.916	18230.68
901.095	18578.83
901.274	18318.74
901.453	17716.64
901.632	17857.95
901.811	17780.12
901.989	17964.44
902.168	17356.19
902.347	18144.66
902.526	17767.84
902.705	17132.97
902.884	17585.57
903.063	18202
903.242	17960.34
903.42	17427.87
903.599	17520.03
903.778	17554.85
903.957	17950.1
904.135	16924.07
904.314	17108.39
904.493	17372.58
904.672	17149.35
904.85	16811.43
905.029	16721.32
905.207	16993.7
905.386	17458.59
905.565	16223.67
905.743	16448.94
905.922	16543.15
906.1	16991.66
906.279	16096.69
906.457	16160.18
906.636	16324.02
906.814	16158.13
906.993	15957.43
907.171	15969.72
907.35	16569.77
907.528	16401.84
907.707	15977.91
907.885	15660.48
908.063	16270.77
908.242	15617.47
908.42	15467.97
908.598	15443.39
908.777	15861.18
908.955	15605.18
909.133	15723.96
909.311	15408.58
909.49	15488.45
909.668	15551.93
909.846	15287.75
910.024	15707.58
910.202	15932.86
910.38	16031.16
910.559	15506.88
910.737	15625.66
910.915	16053.69
911.093	16172.47
911.271	15895.99
911.449	15869.37
911.627	16164.28
911.805	16494
911.983	15977.91
912.161	15822.27
912.339	16182.71
912.517	16534.96
912.695	16287.15
912.872	15982.01
913.05	16278.96
913.228	16338.35
913.406	16018.87
913.584	16086.45
913.762	16510.38
913.939	15930.81
914.117	16250.29
914.295	16170.42
914.473	16465.33
914.65	16592.3
914.828	16078.26
915.006	15992.25
915.184	16315.83
915.361	16260.53
915.539	16297.39
915.716	16418.22
915.894	16201.14
916.072	16543.15
916.249	16125.36
916.427	16098.74
916.604	15943.1
916.782	16344.5
916.959	15893.94
917.137	16106.93
917.314	16111.03
917.492	16115.12
917.669	15746.49
917.847	15875.51
918.024	15879.61
918.201	15791.55
918.379	15783.35
918.556	15871.42
918.733	16231.86
918.911	15570.37
919.088	16145.84
919.265	15611.32
919.442	15789.5
919.62	15736.25
919.797	15402.43
919.974	15361.47
920.151	15717.82
920.328	15752.63
920.506	15549.89
920.683	15678.91
920.86	15439.3
921.037	15451.58
921.214	15586.75
921.391	15322.56
921.568	15787.45
921.745	15556.03
921.922	15197.63
922.099	15228.35
922.276	15570.37
922.453	15566.27
922.63	15044.04
922.807	15322.56
922.984	15242.69
923.161	15103.43
923.338	15064.52
923.514	14863.82
923.691	15140.29
923.868	15267.27
924.045	14837.19
924.222	14982.6
924.399	14933.45
924.575	15369.66
924.752	14591.44
924.929	14611.92
925.105	15121.86
925.282	14656.97
925.459	14519.76
925.635	14740.94
925.812	14519.76
925.989	14446.03
926.165	14560.72
926.342	14360.02
926.518	14110.16
926.695	14800.33
926.871	14151.12
927.048	13952.47
927.224	14622.16
927.401	14128.6
927.577	14194.13
927.754	14087.64
927.93	14730.7
928.107	14446.03
928.283	13968.85
928.459	14089.68
928.636	14284.24
928.812	13972.95
928.988	13745.62
929.165	13712.86
929.341	13948.37
929.517	14020.05
929.693	13848.02
929.87	13293.02
930.046	13981.14
930.222	13514.2
930.398	13213.15
930.574	13622.75
930.751	13532.64
930.927	13372.89
931.103	13217.25
931.279	13172.19
931.455	13151.71
931.631	13215.2
931.807	12875.24
931.983	12948.97
932.159	12852.71
932.335	13127.14
932.511	12973.54
932.687	12948.97
932.863	12903.91
933.039	12764.65
933.215	12316.14
933.391	12191.22
933.566	12471.79
933.742	12654.06
933.918	12422.64
934.094	12101.11
934.27	12129.78
934.445	12092.91
934.621	12172.78
934.797	11591.16
934.973	11908.6
935.148	11730.42
935.324	11302.4
935.5	10970.63
935.675	11533.82
935.851	11310.59
936.027	11091.46
936.202	10804.74
936.378	11085.31
936.553	10524.17
936.729	10741.25
936.904	10233.36
937.08	10067.47
937.255	10006.03
937.431	9786.9
937.606	9567.77
937.782	9827.86
937.957	9688.6
938.133	9266.72
938.308	9248.29
938.483	9324.06
938.659	9020.96
938.834	8939.04
939.009	8871.46
939.185	8709.67
939.36	8461.87
939.535	8003.12
939.71	8310.32
939.886	8468.01
940.061	8533.54
940.236	8318.51
940.411	8025.65
940.586	8224.3
940.761	8232.49
940.937	7816.76
941.112	7691.83
941.287	8080.94
941.462	7740.98
941.637	7687.73
941.812	7630.39
941.987	7923.25
942.162	7702.07
942.337	7579.19
942.512	7317.05
942.687	7777.84
942.862	7595.57
943.037	7216.7
943.212	6956.61
943.386	7310.91
943.561	7407.16
943.736	7183.93
943.911	7441.98
944.086	7231.04
944.26	7360.06
944.435	7054.91
944.61	7243.32
944.785	7573.05
944.959	7583.29
945.134	7161.41
945.309	7063.1
945.483	7075.39
945.658	7294.52
945.833	6893.12
946.007	6829.63
946.182	7560.76
946.357	6852.16
946.531	6872.64
946.706	6886.98
946.88	6807.11
947.055	7028.29
947.229	7024.19
947.404	7247.42
947.578	7505.46
947.752	7433.79
947.927	6968.9
948.101	6938.18
948.276	7470.65
948.45	7450.17
948.624	7315
948.799	7364.15
948.973	7468.6
949.147	7157.31
949.321	7456.31
949.496	7345.72
949.67	7917.11
949.844	7470.65
950.018	7325.24
950.193	7415.35
950.367	8027.7
950.541	7652.92
950.715	7597.62
950.889	7544.38
951.063	7618.1
951.237	7941.68
951.411	7382.59
951.585	7231.04
951.759	7890.48
951.933	7771.7
952.107	7724.6
952.281	7759.41
952.455	8246.83
952.629	8054.32
952.803	7650.87
952.977	7599.67
953.151	7958.07
953.325	7949.87
953.499	7945.78
953.672	7634.49
953.846	7626.29
954.02	8003.12
954.194	7794.23
954.368	7728.69
954.541	8341.04
954.715	7853.62
954.889	8064.56
955.062	7661.11
955.236	7996.98
955.41	8107.57
955.583	8113.71
955.757	7679.54
955.93	7902.77
956.104	7824.95
956.278	8072.75
956.451	7917.11
956.625	8281.64
956.798	8678.95
956.972	8355.37
957.145	7888.43
957.319	8013.36
957.492	8244.78
957.665	8269.36
957.839	8044.08
958.012	8392.23
958.185	7988.78
958.359	8175.15
958.532	8246.83
958.705	8556.07
958.879	8343.08
959.052	8085.04
959.225	7937.59
959.398	8355.37
959.572	8150.57
959.745	8105.52
959.918	8009.26
960.091	8201.77
960.264	8203.82
960.438	7855.67
960.611	7968.31
960.784	8212.01
960.957	8205.87
961.13	8242.73
961.303	7978.54
961.476	8228.4
961.649	8527.4
961.822	7994.93
961.995	8212.01
962.168	8506.92
962.341	8181.29
962.514	8269.36
962.686	7976.5
962.859	8373.8
963.032	8390.19
963.205	7906.87
963.378	7964.21
963.551	8310.32
963.723	8175.15
963.896	8230.45
964.069	8025.65
964.242	8435.24
964.414	8371.75
964.587	7966.26
964.76	8128.05
964.932	8232.49
965.105	8195.63
965.278	8064.56
965.45	8076.85
965.623	8048.18
965.795	8353.32
965.968	7902.77
966.14	7970.35
966.313	7902.77
966.485	8117.81
966.658	7845.43
966.83	7884.34
967.003	8189.49
967.175	8154.67
967.348	7902.77
967.52	7904.82
967.692	8590.89
967.865	8105.52
968.037	7968.31
968.209	8064.56
968.382	7941.68
968.554	8117.81
968.726	7810.61
968.898	7802.42
969.071	8078.9
969.243	8300.08
969.415	7761.46
969.587	7781.94
969.759	8425
969.932	8207.92
970.104	7718.45
970.276	7335.48
970.448	7714.36
970.62	7601.72
970.792	7683.64
970.964	7773.75
971.136	8295.98
971.308	7915.06
971.48	7544.38
971.652	7603.77
971.824	8117.81
971.996	7474.74
972.168	7540.28
972.339	7536.18
972.511	7951.92
972.683	7671.35
972.855	7779.89
973.027	7462.46
973.199	7618.1
973.37	7724.6
973.542	7626.29
973.714	7571
973.886	7638.58
974.057	7966.26
974.229	7192.12
974.401	7472.7
974.572	7196.22
974.744	7104.06
974.915	7077.44
975.087	7163.45
975.259	7917.11
975.43	7163.45
975.602	7388.73
975.773	7099.97
975.945	7075.39
976.116	7460.41
976.288	6907.46
976.459	7208.51
976.63	7319.1
976.802	7372.35
976.973	6968.9
977.145	7140.93
977.316	7597.62
977.487	7245.37
977.659	7122.49
977.83	6895.17
978.001	7603.77
978.172	7003.71
978.344	6897.22
978.515	6958.66
978.686	6846.02
978.857	7253.56
979.028	6874.69
979.2	6643.27
979.371	7151.17
979.542	6942.27
979.713	6983.23
979.884	6213.2
980.055	6846.02
980.226	7128.64
980.397	6714.95
980.568	6671.94
980.739	7179.84
980.91	6719.04
981.081	6786.63
981.252	6401.61
981.423	7050.82
981.594	6983.23
981.765	6592.07
981.936	6538.82
982.106	6821.44
982.277	6964.8
982.448	6553.16
982.619	6495.82
982.79	6630.98
982.96	6917.7
983.131	6626.89
983.302	6096.46
983.472	6698.56
983.643	6542.92
983.814	6432.33
983.984	6377.03
984.155	6557.25
984.326	6854.21
984.496	6350.41
984.667	6184.52
984.837	6245.96
985.008	6794.82
985.178	6456.9
985.349	6209.1
985.519	6188.62
985.69	6245.96
985.86	6004.3
986.031	6053.45
986.201	6358.6
986.371	6254.16
986.542	5867.09
986.712	5754.45
986.882	6252.11
987.053	6278.73
987.223	5856.85
987.393	6110.8
987.563	6059.6
987.734	6229.58
987.904	6190.67
988.074	5686.87
988.244	5973.58
988.414	5893.71
988.585	5865.04
988.755	5740.12
988.925	5985.87
989.095	6188.62
989.265	5414.49
989.435	5695.06
989.605	6020.69
989.775	6069.84
989.945	5934.67
990.115	5502.55
990.285	5910.1
990.455	5934.67
990.625	5717.59
990.795	5484.12
990.965	6102.61
991.134	5617.24
991.304	5500.5
991.474	5379.67
991.644	5879.38
991.814	6088.27
991.984	5279.32
992.153	5453.4
992.323	5686.87
992.493	5584.47
992.662	5219.93
992.832	5477.98
993.002	5518.93
993.171	5598.81
993.341	5006.94
993.511	5477.98
993.68	5297.75
993.85	5633.62
994.019	5013.09
994.189	5283.42
994.358	5531.22
994.528	5213.79
994.697	4861.54
994.867	4951.65
995.036	5447.26
995.206	5095
995.375	5015.13
995.544	4984.41
995.714	5279.32
995.883	5105.24
996.052	4968.03
996.222	4677.22
996.391	5615.19
996.56	5070.43
996.73	4783.71
996.899	4576.87
997.068	5318.23
997.237	5000.8
997.406	4474.47
997.576	4458.09
997.745	5004.89
997.914	4853.34
998.083	4507.24
998.252	4599.4
998.421	4869.73
998.59	4761.19
998.759	4445.8
998.928	4591.2
999.097	5201.5
999.266	4832.86
999.435	4650.6
999.604	4335.21
999.773	5234.27
999.942	4695.65
1000.111	4406.89
1000.28	4351.59
1000.448	4331.11
1000.617	4427.37
1000.786	4503.14
1000.955	4312.68
1001.124	4685.41
1001.292	5189.21
1001.461	4331.11
1001.63	4140.65
1001.798	4982.37
1001.967	4814.43
1002.136	3954.29
1002.304	4120.17
1002.473	4497
1002.642	4417.13
1002.81	4169.32
1002.979	4073.07
1003.147	4646.5
1003.316	4871.78
1003.484	3956.33
1003.653	3958.38
1003.821	4572.77
1003.99	4097.64
1004.158	3976.81
1004.327	4017.77
1004.495	4367.98
1004.663	4005.49
1004.832	3890.8
1005	3681.91
1005.168	4224.62
1005.337	4077.16
1005.505	3577.46
1005.673	4077.16
1005.842	4200.04
1006.01	4257.39
1006.178	3731.06
1006.346	3677.81
1006.514	4214.38
1006.683	4427.37
1006.851	3587.7
1007.019	3632.76
1007.187	3753.59
1007.355	3274.36
1007.523	3229.31
1007.691	3399.29
1007.859	3448.44
1008.027	4193.9
1008.195	3554.93
1008.363	3401.33
1008.531	4007.53
1008.699	3618.42
1008.867	3262.07
1009.035	3327.61
1009.203	3958.38
1009.37	3647.09
1009.538	3489.4
1009.706	3792.5
1009.874	3593.84
1010.042	3489.4
1010.209	3260.02
1010.377	3350.14
1010.545	3632.76
1010.713	3688.05
1010.88	3282.55
1011.048	3401.33
1011.216	3624.56
1011.383	3792.5
1011.551	3030.65
1011.718	3223.16
1011.886	3677.81
1012.054	3470.97
1012.221	3194.49
1012.389	2973.31
1012.556	3364.47
1012.724	3761.78
1012.891	3128.95
1013.058	2944.64
1013.226	3438.2
1013.393	3462.77
1013.561	2815.62
1013.728	2678.4
1013.895	3358.33
1014.063	3309.18
1014.23	2707.07
1014.397	2776.7
1014.565	3356.28
1014.732	3120.76
1014.899	2756.22
1015.066	2758.27
1015.233	3079.8
1015.401	3237.5
1015.568	2922.11
1015.735	2721.41
1015.902	3102.33
1016.069	3051.13
1016.236	2639.49
1016.403	2664.07
1016.57	2815.62
1016.737	3137.15
1016.904	2713.22
1017.071	2539.14
1017.238	2913.92
1017.405	3088
1017.572	2604.67
1017.739	2750.08
1017.906	2961.02
1018.073	3030.65
1018.24	2360.97
1018.407	2616.96
1018.573	3212.92
1018.74	2788.99
1018.907	2512.52
1019.074	2315.91
1019.241	3061.37
1019.407	2741.89
1019.574	2264.71
1019.741	2279.05
1019.907	2731.65
1020.074	2719.36
1020.241	2104.97
1020.407	2332.3
1020.574	2727.55
1020.74	2666.11
1020.907	2336.39
1021.073	2277
1021.24	3057.28
1021.406	2854.53
1021.573	2199.18
1021.739	2164.36
1021.906	2655.87
1022.072	2498.18
1022.239	2252.42
1022.405	2100.87
1022.571	2471.56
1022.738	2295.43
1022.904	2205.32
1023.07	2154.12
1023.237	2516.61
1023.403	2659.97
1023.569	2092.68
1023.735	2066.06
1023.902	2477.7
1024.068	2395.78
1024.234	2021
1024.4	2141.83
1024.566	2442.89
1024.732	2625.15
1024.898	1992.33
1025.065	1851.02
1025.231	2563.72
1025.397	2277
1025.563	2033.29
1025.729	1914.51
1025.895	1785.49
1026.061	1965.71
1026.227	1662.61
1026.392	2018.96
1026.558	2524.8
1026.724	2293.38
1026.89	1730.19
1027.056	1902.22
1027.222	2272.9
1027.388	1975.95
1027.553	1742.48
1027.719	1861.26
1027.885	2539.14
1028.051	2279.05
1028.216	1621.65
1028.382	1781.39
1028.548	2309.77
1028.713	1994.38
1028.879	1601.17
1029.045	1797.78
1029.21	2260.62
1029.376	2496.13
1029.541	1801.87
1029.707	1859.21
1029.873	2248.33
1030.038	2221.7
1030.204	1611.41
1030.369	1859.21
1030.534	2303.62
1030.7	1879.69
1030.865	1676.95
1031.031	1623.7
1031.196	1978
1031.361	2133.64
1031.527	1672.85
1031.692	1638.03
1031.857	1703.57
1032.023	2033.29
1032.188	1439.38
1032.353	1597.07
1032.518	2223.75
1032.684	1965.71
1032.849	1461.91
1033.014	1515.16
1033.179	2086.54
1033.344	1924.75
1033.509	1597.07
1033.674	1513.11
1033.839	2170.51
1034.004	1875.6
1034.17	1404.57
1034.335	1373.85
1034.5	1818.25
1034.664	1644.18
1034.829	1351.32
1034.994	1468.05
1035.159	1963.66
1035.324	1883.79
1035.489	1441.43
1035.654	1429.14
1035.819	2141.83
1035.984	1785.49
1036.148	1404.57
1036.313	1398.42
1036.478	1844.88
1036.643	1726.1
1036.807	1386.13
1036.972	1277.59
1037.137	1967.76
1037.301	1662.61
1037.466	1093.27
1037.631	1420.95
1037.795	1943.18
1037.96	1730.19
1038.124	1474.2
1038.289	1140.38
1038.454	1838.73
1038.618	1834.64
1038.783	1253.02
1038.947	1349.27
1039.111	1633.94
1039.276	1521.3
1039.44	1216.15
1039.605	1644.18
1039.769	1453.72
1039.933	1511.06
1040.098	1353.37
1040.262	1412.76
1040.426	1744.53
1040.591	1687.18
1040.755	1095.32
1040.919	1109.66
1041.083	1580.69
1041.248	1306.26
1041.412	978.59
1041.576	1109.66
1041.74	1474.2
1041.904	1646.23
1042.068	1042.07
1042.232	1226.39
1042.397	1738.38
1042.561	1556.11
1042.725	898.72
1042.889	1154.71
1043.053	1619.6
1043.217	1549.97
1043.381	1171.1
1043.544	970.4
1043.708	1633.94
1043.872	1191.58
1044.036	736.93
1044.2	890.53
1044.364	1599.12
1044.528	1664.66
1044.691	3714.67
1044.855	939.68
1045.019	1762.96
1045.183	1478.29
1045.346	1105.56
1045.51	841.37
1045.674	1549.97
1045.837	1611.41
1046.001	994.97
1046.165	1054.36
1046.328	1810.06
1046.492	1373.85
1046.655	1173.14
1046.819	1050.27
1046.983	1148.57
1047.146	1408.66
1047.31	935.58
1047.473	775.84
1047.636	1277.59
1047.8	1076.89
1047.963	1019.55
1048.127	865.95
1048.29	1005.21
