Data from Hydrogel_Ink_Intensity_Test_1_USB4F045381__50__00050.txt Node

Date: Mon Jul 31 10:48:54 EDT 2023
User: mmckonesweet
Spectrometer: USB4F04538
Trigger mode: 4
Integration Time (sec): 9.000000E-1
Scans to average: 1
Electric dark correction enabled: true
Nonlinearity correction enabled: false
Boxcar width: 0
XAxis mode: Wavelengths
Number of Pixels in Spectrum: 3648
>>>>>Begin Spectral Data<<<<<
345.52	-974.32
345.736	-974.32
345.952	-974.32
346.168	-1005.04
346.384	-970.23
346.6	-181.76
346.816	-237.05
347.032	-206.33
347.248	326.14
347.464	-79.36
347.68	-132.61
347.896	12.8
348.112	350.71
348.328	-1.54
348.544	-161.28
348.76	45.57
348.975	264.7
349.191	-216.57
349.407	-151.04
349.623	-3.58
349.839	-52.74
350.055	-91.65
350.27	59.9
350.486	172.54
350.702	399.87
350.918	274.94
351.133	-187.9
351.349	152.06
351.565	360.95
351.781	-163.33
351.996	18.94
352.212	344.57
352.428	-93.69
352.644	-278.01
352.859	-239.1
353.075	354.81
353.291	20.99
353.506	-138.75
353.722	-271.87
353.938	-36.35
354.153	451.07
354.369	98.81
354.584	-105.98
354.8	225.79
355.016	-353.79
355.231	-257.53
355.447	-56.83
355.662	135.68
355.878	807.41
356.093	-259.58
356.309	2.56
356.524	-214.52
356.74	260.6
356.955	-214.52
357.171	-24.06
357.386	213.5
357.602	-185.85
357.817	-11.78
358.033	-138.75
358.248	383.48
358.464	178.69
358.679	-126.46
358.895	-396.79
359.11	20.99
359.325	332.28
359.541	236.03
359.756	23.04
359.972	-292.35
360.187	172.54
360.402	-173.57
360.618	-116.22
360.833	934.39
361.048	164.35
361.264	-128.51
361.479	-99.84
361.694	12.8
361.909	219.64
362.125	-108.03
362.34	25.09
362.555	254.46
362.77	96.77
362.986	-171.52
363.201	-132.61
363.416	215.55
363.631	39.42
363.847	-101.89
364.062	-126.46
364.277	358.91
364.492	162.3
364.707	-112.13
364.922	-308.73
365.138	367.1
365.353	391.67
365.568	-216.57
365.783	-32.26
365.998	121.34
366.213	586.23
366.428	-116.22
366.643	102.91
366.858	287.23
367.073	203.26
367.288	-87.55
367.503	-239.1
367.718	221.69
367.933	299.52
368.148	-349.69
368.363	-19.97
368.578	102.91
368.793	414.2
369.008	-128.51
369.223	-116.22
369.438	285.18
369.653	422.39
369.868	-171.52
370.083	-261.63
370.298	135.68
370.513	440.83
370.728	160.25
370.943	-142.85
371.157	-116.22
371.372	504.31
371.587	-218.62
371.802	-241.15
372.017	150.01
372.232	483.83
372.446	-28.16
372.661	-232.96
372.876	221.69
373.091	176.64
373.306	-36.35
373.52	-216.57
373.735	-108.03
373.95	422.39
374.165	-62.98
374.379	-87.55
374.594	-46.59
374.809	147.97
375.023	115.2
375.238	-126.46
375.453	266.75
375.667	-148.99
375.882	-97.79
376.097	-167.42
376.311	121.34
376.526	61.95
376.741	-142.85
376.955	113.15
377.17	565.75
377.384	680.44
377.599	-11.78
377.813	-259.58
378.028	532.98
378.242	238.08
378.457	-60.93
378.672	-280.06
378.886	180.73
379.101	102.91
379.315	-312.83
379.53	-71.17
379.744	236.03
379.958	324.09
380.173	-85.5
380.387	-142.85
380.602	233.98
380.816	-17.92
381.031	-112.13
381.245	-32.26
381.459	352.76
381.674	987.63
381.888	-151.04
382.103	213.5
382.317	-50.69
382.531	524.79
382.746	45.57
382.96	-200.19
383.174	10.75
383.388	559.61
383.603	123.39
383.817	-200.19
384.031	291.32
384.246	532.98
384.46	66.05
384.674	459.26
384.888	94.72
385.103	266.75
385.317	-130.56
385.531	25.09
385.745	428.54
385.959	414.2
386.174	-69.12
386.388	-183.81
386.602	43.52
386.816	-48.64
387.03	31.23
387.244	-19.97
387.458	274.94
387.672	479.74
387.887	-163.33
388.101	-192
388.315	514.55
388.529	170.49
388.743	-9.73
388.957	-151.04
389.171	430.59
389.385	-24.06
389.599	-71.17
389.813	137.73
390.027	246.27
390.241	741.88
390.455	35.33
390.669	0.51
390.883	-5.63
391.097	623.09
391.311	199.16
391.525	8.7
391.738	358.91
391.952	348.67
392.166	121.34
392.38	-81.41
392.594	422.39
392.808	506.36
393.022	8.7
393.236	-24.06
393.449	344.57
393.663	373.24
393.877	-85.5
394.091	78.33
394.305	111.1
394.518	14.85
394.732	-134.65
394.946	53.76
395.16	557.56
395.373	197.12
395.587	-120.32
395.801	-26.11
396.015	344.57
396.228	369.15
396.442	-173.57
396.656	-228.86
396.869	567.8
397.083	553.46
397.297	193.02
397.51	94.72
397.724	461.3
397.938	270.84
398.151	-196.09
398.365	-97.79
398.578	465.4
398.792	510.46
399.005	80.38
399.219	23.04
399.433	326.14
399.646	381.43
399.86	209.4
400.073	291.32
400.287	365.05
400.5	80.38
400.714	166.4
400.927	90.62
401.141	406.01
401.354	1167.85
401.567	320
401.781	-89.6
401.994	479.74
402.208	799.22
402.421	150.01
402.635	102.91
402.848	227.84
403.061	489.98
403.275	94.72
403.488	0.51
403.701	659.96
403.915	446.97
404.128	201.21
404.341	53.76
404.555	418.3
404.768	184.83
404.981	272.89
405.195	23.04
405.408	659.96
405.621	449.02
405.834	268.8
406.048	-15.87
406.261	682.49
406.474	653.81
406.687	-28.16
406.9	137.73
407.114	285.18
407.327	412.15
407.54	-42.5
407.753	-99.84
407.966	107.01
408.179	438.78
408.392	14.85
408.605	-112.13
408.819	459.26
409.032	446.97
409.245	76.29
409.458	324.09
409.671	483.83
409.884	604.66
410.097	-65.02
410.31	301.56
410.523	539.13
410.736	371.19
410.949	199.16
411.162	94.72
411.375	768.5
411.588	621.05
411.801	307.71
412.014	82.43
412.227	295.42
412.44	225.79
412.653	78.33
412.865	270.84
413.078	647.67
413.291	467.45
413.504	188.93
413.717	180.73
413.93	702.97
414.143	129.53
414.356	117.25
414.568	-56.83
414.781	621.05
414.994	489.98
415.207	317.95
415.42	266.75
415.632	530.94
415.845	821.75
416.058	-9.73
416.271	43.52
416.483	358.91
416.696	811.51
416.909	156.16
417.121	188.93
417.334	487.93
417.547	887.28
417.759	82.43
417.972	68.09
418.185	315.9
418.397	594.42
418.61	176.64
418.823	111.1
419.035	799.22
419.248	451.07
419.46	303.61
419.673	268.8
419.885	594.42
420.098	434.68
420.311	199.16
420.523	-19.97
420.736	553.46
420.948	506.36
421.161	242.17
421.373	64
421.586	489.98
421.798	315.9
422.01	18.94
422.223	307.71
422.435	350.71
422.648	659.96
422.86	205.31
423.073	254.46
423.285	631.29
423.497	240.12
423.71	160.25
423.922	164.35
424.134	727.54
424.347	815.6
424.559	535.03
424.771	567.8
424.984	328.19
425.196	639.48
425.408	74.24
425.621	209.4
425.833	709.11
426.045	721.4
426.257	242.17
426.47	332.28
426.682	590.33
426.894	625.14
427.106	293.37
427.318	324.09
427.531	401.91
427.743	721.4
427.955	332.28
428.167	776.69
428.379	582.14
428.591	596.47
428.804	463.35
429.016	285.18
429.228	541.18
429.44	750.07
429.652	590.33
429.864	229.88
430.076	696.82
430.288	594.42
430.5	393.72
430.712	369.15
430.924	840.18
431.136	645.62
431.348	150.01
431.56	414.2
431.772	676.34
431.984	582.14
432.196	346.62
432.408	463.35
432.62	592.37
432.832	739.83
433.044	696.82
433.256	608.76
433.468	813.56
433.679	295.42
433.891	317.95
434.103	750.07
434.315	997.87
434.527	915.95
434.739	616.95
434.95	659.96
435.162	971.25
435.374	455.16
435.586	555.51
435.798	512.5
436.009	424.44
436.221	700.92
436.433	455.16
436.645	547.32
436.856	619
437.068	999.92
437.28	520.7
437.491	836.08
437.703	952.82
437.915	870.9
438.126	631.29
438.338	762.36
438.55	705.01
438.761	913.91
438.973	545.27
439.184	479.74
439.396	850.42
439.608	954.87
439.819	422.39
440.031	711.16
440.242	993.78
440.454	944.63
440.665	637.43
440.877	758.26
441.088	901.62
441.3	758.26
441.511	471.54
441.723	561.66
441.934	889.33
442.146	854.51
442.357	799.22
442.569	874.99
442.78	911.86
442.991	1270.25
443.203	995.82
443.414	475.64
443.626	1194.48
443.837	752.12
444.048	563.7
444.26	516.6
444.471	881.14
444.682	989.68
444.894	512.5
445.105	526.84
445.316	1157.61
445.528	1020.4
445.739	756.21
445.95	674.29
446.161	1090.03
446.373	1210.86
446.584	682.49
446.795	676.34
447.006	1122.8
447.217	1341.93
447.429	489.98
447.64	655.86
447.851	1311.21
448.062	915.95
448.273	530.94
448.484	696.82
448.695	1061.36
448.907	895.47
449.118	872.95
449.329	1030.64
449.54	805.36
449.751	791.03
449.962	711.16
450.173	688.63
450.384	1305.07
450.595	1495.53
450.806	737.78
451.017	793.08
451.228	1391.08
451.439	1284.59
451.65	813.56
451.861	582.14
452.072	817.65
452.283	1028.59
452.494	1004.02
452.705	889.33
452.915	1376.75
453.126	1255.92
453.337	848.37
453.548	864.75
453.759	1393.13
453.97	1597.93
454.181	1118.7
454.391	918
454.602	1147.37
454.813	1272.3
455.024	973.3
455.235	946.67
455.445	1184.24
455.656	1321.45
455.867	1176.05
456.078	928.24
456.288	1057.26
456.499	1280.49
456.71	758.26
456.921	1208.81
457.131	1397.23
457.342	1270.25
457.553	1012.21
457.763	924.15
457.974	1516.01
458.184	1561.06
458.395	954.87
458.606	883.19
458.816	1524.2
459.027	1774.05
459.237	1303.02
459.448	993.78
459.659	1653.22
459.869	1841.64
460.08	838.13
460.29	1317.36
460.501	1855.97
460.711	1307.12
460.922	999.92
461.132	1102.32
461.343	2040.29
461.553	1188.33
461.764	1171.95
461.974	1286.64
462.184	1620.46
462.395	1593.83
462.605	1380.84
462.816	1130.99
463.026	1556.97
463.236	1827.3
463.447	1296.88
463.657	1225.2
463.867	1642.98
464.078	1411.56
464.288	1366.51
464.498	1485.29
464.709	1634.79
464.919	1604.07
465.129	1391.08
465.339	1243.63
465.55	1679.85
465.76	1808.87
465.97	1495.53
466.18	1346.03
466.391	2064.86
466.601	1726.95
466.811	1604.07
467.021	1440.23
467.231	1939.94
467.441	2054.62
467.651	1651.17
467.862	1407.47
468.072	1980.9
468.282	2324.96
468.492	1546.73
468.702	1753.57
468.912	1950.18
469.122	2679.26
469.332	2042.34
469.542	1751.53
469.752	2359.77
469.962	2011.62
470.172	1858.02
470.382	1835.49
470.592	2365.92
470.802	2359.77
471.012	1962.47
471.222	1827.3
471.432	2388.44
471.642	2437.59
471.852	2206.17
472.062	2009.57
472.272	2294.24
472.482	2052.58
472.691	2073.06
472.901	1939.94
473.111	2376.16
473.321	2922.96
473.531	2163.17
473.741	2210.27
473.95	2630.1
474.16	2669.02
474.37	2398.68
474.58	2126.3
474.79	3037.65
474.999	2728.41
475.209	2353.63
475.419	2433.5
475.628	2613.72
475.838	2859.48
476.048	2703.83
476.258	2425.31
476.467	3113.42
476.677	2773.46
476.886	2748.89
477.096	2834.9
477.306	2683.35
477.515	3195.34
477.725	2683.35
477.935	2865.62
478.144	3410.38
478.354	2832.85
478.563	2857.43
478.773	2791.89
478.982	3295.69
479.192	3424.72
479.401	3094.99
479.611	2906.58
479.82	3033.55
480.03	3492.3
480.239	2865.62
480.449	3099.09
480.658	3733.96
480.868	3160.53
481.077	3328.46
481.287	3146.19
481.496	3611.08
481.705	3807.69
481.915	3602.89
482.124	3531.21
482.333	3701.19
482.543	3955.14
482.752	3588.55
482.961	3484.11
483.171	3828.17
483.38	3744.2
483.589	3709.38
483.799	3424.72
484.008	3846.6
484.217	4084.16
484.426	3738.05
484.636	3602.89
484.845	3942.85
485.054	3645.9
485.263	4071.87
485.472	3914.18
485.682	4506.04
485.891	3938.76
486.1	3752.39
486.309	3940.8
486.518	4258.24
486.727	4440.51
486.936	4041.15
487.146	4059.59
487.355	4712.89
487.564	4202.94
487.773	4256.19
487.982	4202.94
488.191	4305.34
488.4	4694.46
488.609	4194.75
488.818	4295.1
489.027	5157.3
489.236	4993.46
489.445	4460.99
489.654	4170.18
489.863	4964.79
490.072	4786.61
490.281	4872.63
490.49	4637.11
490.698	5259.7
490.907	5093.81
491.116	4743.61
491.325	4534.71
491.534	5237.17
491.743	4839.86
491.952	4876.73
492.16	4891.06
492.369	5161.39
492.578	5138.87
492.787	4815.29
492.996	4719.03
493.204	5198.26
493.413	5542.32
493.622	4751.8
493.831	4784.57
494.039	5642.67
494.248	4903.35
494.457	5091.76
494.665	4848.05
494.874	5376.43
495.083	5812.65
495.291	5241.26
495.5	5038.52
495.709	5636.52
495.917	5714.34
496.126	5271.98
496.335	5151.15
496.543	5294.51
496.752	5525.93
496.96	5570.99
497.169	5267.89
497.377	5650.86
497.586	5964.2
497.794	5487.02
498.003	5190.06
498.211	5595.56
498.42	6042.02
498.628	5679.53
498.837	5476.78
499.045	5988.77
499.254	5892.52
499.462	5476.78
499.671	5714.34
499.879	6240.67
500.087	6166.95
500.296	5542.32
500.504	5773.74
500.713	6087.08
500.921	6740.38
501.129	5771.69
501.338	5851.56
501.546	6193.57
501.754	6318.5
501.962	5833.13
502.171	5640.62
502.379	6455.71
502.587	6750.62
502.795	6046.12
503.004	5996.96
503.212	6328.74
503.42	6597.02
503.628	6246.82
503.837	6271.39
504.045	6427.04
504.253	6842.78
504.461	6052.26
504.669	5951.91
504.877	6674.84
505.085	6883.73
505.294	5970.34
505.502	6468
505.71	6631.83
505.918	6668.7
506.126	6099.36
506.334	6312.35
506.542	6603.16
506.75	6642.07
506.958	6556.06
507.166	6295.97
507.374	6728.09
507.582	7090.58
507.79	6683.03
507.998	6369.69
508.206	6971.8
508.414	6967.7
508.622	6574.49
508.83	6494.62
509.037	7399.82
509.245	6838.68
509.453	6570.4
509.661	6545.82
509.869	7149.97
510.077	6867.35
510.285	6734.23
510.492	6556.06
510.7	7778.7
510.908	6885.78
511.116	6803.86
511.324	6726.04
511.531	7139.73
511.739	7149.97
511.947	7066
512.155	7354.77
512.362	7367.06
512.57	6943.13
512.778	6922.65
512.985	6631.83
513.193	7618.96
513.401	7549.32
513.608	7123.35
513.816	7162.26
514.024	7444.88
514.231	7635.34
514.439	7082.39
514.646	7047.57
514.854	7530.89
515.061	7614.86
515.269	7106.96
515.477	7156.11
515.684	7244.18
515.892	7586.19
516.099	6975.89
516.307	7043.48
516.514	7899.53
516.722	8110.47
516.929	7373.2
517.136	7360.91
517.344	7926.15
517.551	7762.31
517.759	7235.99
517.966	7489.93
518.173	7586.19
518.381	7733.64
518.588	7661.96
518.796	7389.58
519.003	8192.39
519.21	7862.66
519.418	7455.12
519.625	7760.27
519.832	7870.86
520.039	8128.9
520.247	7455.12
520.454	7469.45
520.661	8235.39
520.868	8141.19
521.076	7713.16
521.283	7688.59
521.49	8669.56
521.697	8112.52
521.904	7842.18
522.112	7455.12
522.319	8372.61
522.526	8190.34
522.733	7948.68
522.94	7653.77
523.147	8122.76
523.354	8325.5
523.561	7938.44
523.768	8057.22
523.975	8622.46
524.183	8341.89
524.39	8012.17
524.597	7930.25
524.804	8333.7
525.011	8307.07
525.218	8051.08
525.425	8237.44
525.632	8724.86
525.838	8233.35
526.045	8100.23
526.252	7987.59
526.459	9812.33
526.666	9214.32
526.873	8298.88
527.08	8284.55
527.287	9185.65
527.494	8515.97
527.701	8235.39
527.907	8057.22
528.114	8880.5
528.321	8653.18
528.528	8470.91
528.735	8532.35
528.941	8634.75
529.148	8442.24
529.355	8481.15
529.562	8221.06
529.768	9263.47
529.975	8739.19
530.182	8405.38
530.388	8386.94
530.595	9228.66
530.802	8595.84
531.008	8833.4
531.215	8622.46
531.422	9732.46
531.628	9703.79
531.835	8880.5
532.042	8984.95
532.248	8839.55
532.455	9181.56
532.661	8796.54
532.868	8835.45
533.074	9265.52
533.281	9388.4
533.487	9040.25
533.694	8800.63
533.9	8968.57
534.107	9245.04
534.313	8839.55
534.52	8896.89
534.726	9660.78
534.933	9851.24
535.139	8966.52
535.345	8903.03
535.552	9324.91
535.758	9412.98
535.965	9220.47
536.171	9240.95
536.377	9744.75
536.584	9843.05
536.79	9103.73
536.996	9304.43
537.203	9482.61
537.409	9775.47
537.615	9247.09
537.821	9433.46
538.028	9970.02
538.234	9613.68
538.44	9421.17
538.646	9279.86
538.853	9990.5
539.059	9687.4
539.265	9822.57
539.471	9277.81
539.677	9804.14
539.883	9728.36
540.09	9482.61
540.296	10150.25
540.502	10027.37
540.708	9814.38
540.914	9900.39
541.12	9572.72
541.326	10058.09
541.532	10144.1
541.738	9806.19
541.944	9986.41
542.15	10297.7
542.356	10049.89
542.562	9853.29
542.768	9832.81
542.974	10951
543.18	10688.86
543.386	10070.37
543.592	9816.43
543.798	10576.22
544.004	10899.8
544.21	9947.5
544.415	10170.72
544.621	10551.65
544.827	10584.41
545.033	9867.63
545.239	10439.01
545.445	10250.6
545.651	10488.16
545.856	10133.86
546.062	10492.26
546.268	10412.39
546.474	10598.75
546.679	10250.6
546.885	10301.79
547.091	10410.34
547.297	10832.22
547.502	10502.5
547.708	10068.33
547.914	10439.01
548.119	10641.76
548.325	10254.69
548.531	10039.65
548.736	11118.93
548.942	10465.63
549.147	10197.35
549.353	10713.44
549.559	11069.78
549.764	10998.1
549.97	10563.93
550.175	10512.74
550.381	11069.78
550.586	10821.98
550.792	10551.65
550.997	10373.47
551.203	10887.51
551.408	10895.71
551.614	10561.89
551.819	10762.59
552.025	11440.47
552.23	11481.42
552.435	10621.28
552.641	11133.27
552.846	11059.54
553.052	11571.54
553.257	10918.23
553.462	10924.38
553.668	10899.8
553.873	11614.54
554.078	10924.38
554.283	11016.54
554.489	11397.46
554.694	11342.16
554.899	10969.43
555.105	11102.55
555.31	11346.26
555.515	11788.62
555.72	11180.37
555.925	11159.89
556.131	11598.16
556.336	11100.5
556.541	10877.27
556.746	11088.21
556.951	11698.51
557.156	12099.91
557.361	11399.51
557.567	11546.96
557.772	11934.03
557.977	11608.4
558.182	11211.09
558.387	11456.85
558.592	11215.19
558.797	11788.62
559.002	11395.41
559.207	11329.88
559.412	11702.61
559.617	12087.62
559.822	11506
560.027	11370.83
560.232	11927.88
560.437	12005.7
560.642	11301.2
560.847	11422.03
561.051	11704.65
561.256	11868.49
561.461	11637.07
561.666	11358.55
561.871	12030.28
562.076	11950.41
562.281	11626.83
562.485	11471.18
562.69	12091.72
562.895	12165.45
563.1	11626.83
563.305	11524.43
563.509	12378.44
563.714	12425.54
563.919	11608.4
564.123	11581.78
564.328	12136.77
564.533	12251.46
564.737	11954.51
564.942	11915.59
565.147	12562.75
565.351	12616
565.556	11989.32
565.761	11950.41
565.965	12140.87
566.17	12138.82
566.374	11864.39
566.579	11686.22
566.784	12067.14
566.988	12165.45
567.193	11800.91
567.397	12099.91
567.602	12104.01
567.806	11782.48
568.011	11848.01
568.215	12192.07
568.42	12192.07
568.624	12171.59
568.828	12046.66
569.033	12239.17
569.237	12579.14
569.442	12548.42
569.646	12136.77
569.85	12317
570.055	12697.92
570.259	12484.93
570.463	12448.07
570.668	12245.32
570.872	12314.95
571.076	12519.74
571.281	12446.02
571.485	12319.04
571.689	12605.76
571.893	12861.76
572.098	12491.07
572.302	12140.87
572.506	12611.9
572.71	12837.18
572.914	12360
573.119	12265.8
573.323	13068.6
573.527	13066.55
573.731	12345.67
573.935	12472.64
574.139	12702.01
574.343	12601.66
574.547	12497.22
574.751	12542.27
574.955	13207.86
575.159	13001.02
575.364	12251.46
575.568	12415.3
575.772	12837.18
575.976	13095.22
576.18	12484.93
576.383	12523.84
576.587	13357.36
576.791	13017.4
576.995	12622.14
577.199	12646.72
577.403	13087.03
577.607	13199.67
577.811	12671.29
578.015	12763.45
578.219	12998.97
578.422	13365.56
578.626	13074.74
578.83	13080.89
579.034	13031.74
579.238	13154.62
579.442	12890.43
579.645	13334.84
579.849	13132.09
580.053	13205.81
580.257	12745.02
580.46	13058.36
580.664	13349.17
580.868	13318.45
581.071	13179.19
581.275	13136.18
581.479	13087.03
581.682	13422.9
581.886	12894.52
582.09	13046.07
582.293	13691.18
582.497	13736.24
582.7	13334.84
582.904	13052.22
583.107	13345.08
583.311	13611.31
583.515	13201.72
583.718	13236.53
583.922	13422.9
584.125	13812.01
584.329	13025.59
584.532	13343.03
584.735	14174.5
584.939	13334.84
585.142	13097.27
585.346	13383.99
585.549	13885.74
585.753	13627.7
585.956	13455.67
586.159	13599.02
586.363	14082.35
586.566	13834.54
586.769	13187.38
586.973	13404.47
587.176	14045.48
587.379	14111.02
587.582	13994.28
587.786	13625.65
587.989	13852.97
588.192	14428.45
588.395	13826.35
588.599	14154.02
588.802	14123.3
589.005	13949.23
589.208	13607.22
589.411	13637.94
589.615	14186.79
589.818	14600.48
590.021	14043.43
590.224	14145.83
590.427	14340.39
590.63	14457.12
590.833	13672.75
591.036	13947.18
591.239	14229.8
591.442	14188.84
591.645	14141.74
591.848	14082.35
592.051	14534.95
592.254	14651.68
592.457	14096.68
592.66	14133.54
592.863	14328.1
593.066	14536.99
593.269	13996.33
593.472	14016.81
593.675	14248.23
593.878	14668.06
594.081	14577.95
594.284	14121.26
594.486	14666.02
594.689	14516.51
594.892	14348.58
595.095	14362.92
595.298	14813.47
595.5	14319.91
595.703	14524.71
595.906	14518.56
596.109	14895.39
596.311	14879
596.514	14211.37
596.717	14555.43
596.92	15081.75
597.122	14784.8
597.325	14149.93
597.528	14407.97
597.73	15089.95
597.933	14741.79
598.136	14424.36
598.338	14319.91
598.541	15198.49
598.743	15247.64
598.946	14567.71
599.148	14684.45
599.351	15165.72
599.554	15309.08
599.756	14678.3
599.959	14952.73
600.161	15323.41
600.363	15687.95
600.566	14985.5
600.768	14899.48
600.971	15491.35
601.173	15098.14
601.376	14827.81
601.578	14985.5
601.78	15286.55
601.983	15814.93
602.185	14831.9
602.388	14840.09
602.59	15350.04
602.792	15247.64
602.995	15173.91
603.197	14831.9
603.399	15423.76
603.601	15159.58
603.804	14928.16
604.006	14950.68
604.208	15155.48
604.41	14958.88
604.613	15333.65
604.815	14899.48
605.017	15941.9
605.219	14917.92
605.421	15036.7
605.623	14879
605.826	15665.42
606.028	15853.84
606.23	14852.38
606.432	14930.2
606.634	15665.42
606.836	15692.05
607.038	15003.93
607.24	15036.7
607.442	15388.95
607.644	15595.79
607.846	15272.21
608.048	15010.07
608.25	15649.04
608.452	15253.78
608.654	15145.24
608.856	14967.07
609.058	15405.33
609.26	15671.57
609.462	15135
609.664	15331.61
609.866	15941.9
610.067	15911.18
610.269	15331.61
610.471	15135
610.673	15569.17
610.875	15843.6
611.077	14938.4
611.278	15483.16
611.48	15601.94
611.682	15946
611.884	15429.91
612.085	15233.3
612.287	15175.96
612.489	15542.55
612.69	15132.95
612.892	15515.92
613.094	15802.64
613.295	15618.32
613.497	15241.5
613.699	15302.93
613.9	16009.48
614.102	15745.3
614.304	15137.05
614.505	15126.81
614.707	15603.99
614.908	15614.23
615.11	15159.58
615.311	15538.45
615.513	15804.69
615.714	15923.47
615.916	15270.17
616.117	15569.17
616.319	15616.27
616.52	15552.79
616.722	15358.23
616.923	15233.3
617.124	15982.86
617.326	15737.1
617.527	15655.19
617.729	15982.86
617.93	15814.93
618.131	16095.5
618.333	15345.94
618.534	15708.43
618.735	15610.13
618.937	16437.51
619.138	15073.56
619.339	15552.79
619.54	15642.9
619.742	15896.85
619.943	15642.9
620.144	15601.94
620.345	16077.07
620.546	15884.56
620.748	15587.6
620.949	15290.65
621.15	15884.56
621.351	15872.27
621.552	15405.33
621.753	15393.05
621.954	15495.44
622.155	16363.78
622.356	15603.99
622.558	15874.32
622.759	16337.16
622.96	16058.63
623.161	15542.55
623.362	15571.22
623.563	15872.27
623.764	15690
623.965	15458.58
624.166	15804.69
624.366	15806.73
624.567	16206.09
624.768	15397.14
624.969	15509.78
625.17	15780.11
625.371	16044.3
625.572	15687.95
625.773	15642.9
625.973	16181.51
626.174	16003.34
626.375	15962.38
626.576	15646.99
626.777	16124.17
626.977	16584.96
627.178	15507.73
627.379	15667.47
627.58	15880.46
627.78	15864.08
627.981	15958.28
628.182	16056.59
628.382	16148.75
628.583	15726.86
628.784	15765.78
628.984	15948.04
629.185	16263.43
629.386	16093.45
629.586	15849.74
629.787	15833.36
629.987	16081.16
630.188	16128.27
630.388	15616.27
630.589	15747.34
630.79	16707.84
630.99	16298.25
631.191	15794.45
631.391	16216.33
631.591	16400.65
631.792	16630.02
631.992	16156.94
632.193	15853.84
632.393	16812.29
632.594	16326.92
632.794	15989
632.994	16152.84
633.195	16253.19
633.395	16058.63
633.595	15964.43
633.796	16136.46
633.996	16077.07
634.196	16533.76
634.397	15937.8
634.597	16015.63
634.797	16085.26
634.997	16636.16
635.198	16324.87
635.398	15700.24
635.598	16380.17
635.798	16681.22
635.998	16261.38
636.199	16075.02
636.399	16036.11
636.599	16296.2
636.799	15954.19
636.999	16281.86
637.199	16611.59
637.399	16570.63
637.599	16095.5
637.799	16099.59
637.999	16374.02
638.199	16832.77
638.399	15986.96
638.599	15997.2
638.799	16498.95
638.999	17082.62
639.199	16496.9
639.399	16384.26
639.599	16976.12
639.799	16167.18
639.999	16341.25
640.199	16204.04
640.399	16472.32
640.599	16355.59
640.799	16519.43
640.998	16345.35
641.198	16685.31
641.398	16556.29
641.598	16347.4
641.798	16318.73
641.997	17459.45
642.197	16781.57
642.397	16427.27
642.597	16437.51
642.796	16879.87
642.996	16746.75
643.196	16476.42
643.395	16152.84
643.595	16636.16
643.795	16445.7
643.994	16130.31
644.194	16511.24
644.394	16806.14
644.593	16877.82
644.793	16443.65
644.992	16609.54
645.192	16691.46
645.392	16478.47
645.591	16845.05
645.791	16476.42
645.99	16924.93
646.19	16513.28
646.389	16617.73
646.589	16412.93
646.788	16797.95
646.987	16779.52
647.187	16900.35
647.386	16740.61
647.586	16685.31
647.785	17072.38
647.984	16707.84
648.184	16675.07
648.383	16574.72
648.582	16756.99
648.782	16697.6
648.981	16900.35
649.18	16822.53
649.38	17060.09
649.579	16617.73
649.778	16773.38
649.977	17012.99
650.177	17377.53
650.376	16627.97
650.575	16433.41
650.774	17164.54
650.973	16935.17
651.173	16828.67
651.372	16769.28
651.571	16791.81
651.77	17131.77
651.969	16779.52
652.168	16787.71
652.367	16724.22
652.566	17049.85
652.765	16707.84
652.964	17064.19
653.163	17494.26
653.362	16961.79
653.561	16783.62
653.76	16969.98
653.959	17015.04
654.158	17522.93
654.357	17113.34
654.556	16402.69
654.755	17168.63
654.954	17121.53
655.153	16951.55
655.352	17103.1
655.551	17633.52
655.749	16900.35
655.948	16851.2
656.147	17357.05
656.346	17422.58
656.545	16972.03
656.743	16771.33
656.942	17142.01
657.141	17277.18
657.34	16748.8
657.538	17119.48
657.737	17152.25
657.936	17225.98
658.135	17277.18
658.333	16988.41
658.532	17246.46
658.731	17733.87
658.929	17350.9
659.128	17307.9
659.326	16939.26
659.525	17627.38
659.724	17176.83
659.922	16533.76
660.121	16533.76
660.319	17246.46
660.518	17062.14
660.716	16847.1
660.915	16996.6
661.113	17654
661.312	16937.21
661.51	17103.1
661.709	16924.93
661.907	17389.81
662.105	17727.73
662.304	16929.02
662.502	17025.28
662.701	17633.52
662.899	17236.22
663.097	17287.42
663.296	16906.49
663.494	17645.81
663.692	17582.32
663.891	16908.54
664.089	17000.7
664.287	17166.59
664.485	17355
664.684	17125.63
664.882	17094.91
665.08	16957.69
665.278	17266.94
665.476	17139.96
665.675	17457.4
665.873	17766.64
666.071	17258.74
666.269	17058.04
666.467	17228.03
666.665	17387.77
666.863	17043.71
667.061	17060.09
667.259	16826.62
667.457	17305.85
667.655	17496.31
667.853	16789.76
668.051	17043.71
668.249	16920.83
668.447	17467.64
668.645	16961.79
668.843	17266.94
669.041	17453.3
669.239	17264.89
669.437	17113.34
669.635	17326.33
669.833	17019.13
670.031	17369.33
670.229	16847.1
670.426	17121.53
670.624	17121.53
670.822	16972.03
671.02	16939.26
671.218	17205.5
671.415	17248.5
671.613	17281.27
671.811	16967.93
672.009	16797.95
672.206	17678.58
672.404	17451.25
672.602	17207.55
672.799	16961.79
672.997	17305.85
673.195	17338.62
673.392	17187.07
673.59	16802.05
673.788	17445.11
673.985	16808.19
674.183	16994.56
674.38	16867.58
674.578	17301.75
674.775	17148.15
674.973	16957.69
675.17	16906.49
675.368	17455.35
675.565	17133.82
675.763	16937.21
675.96	16924.93
676.158	17346.81
676.355	16967.93
676.553	16941.31
676.75	16652.55
676.947	17408.25
677.145	17049.85
677.342	17107.19
677.539	17223.93
677.737	17037.56
677.934	17502.45
678.131	16836.86
678.329	16556.29
678.526	17498.36
678.723	17252.6
678.92	17004.8
679.118	16871.68
679.315	16843.01
679.512	17408.25
679.709	16904.45
679.906	16775.42
680.104	17414.39
680.301	16918.78
680.498	16544
680.695	16918.78
680.892	16926.97
681.089	17072.38
681.286	17056
681.483	16349.45
681.68	16982.27
681.877	17174.78
682.075	16699.65
682.272	16789.76
682.469	16820.48
682.665	16738.56
682.862	16222.47
683.059	16658.69
683.256	16955.65
683.453	17010.94
683.65	16793.86
683.847	16498.95
684.044	16945.41
684.241	16845.05
684.438	16961.79
684.635	16457.99
684.831	17320.18
685.028	17438.97
685.225	16537.86
685.422	16662.79
685.619	16965.89
685.815	16605.44
686.012	16474.37
686.209	16476.42
686.405	16367.88
686.602	17017.08
686.799	16408.84
686.996	16425.22
687.192	16558.34
687.389	16945.41
687.586	16466.18
687.782	16400.65
687.979	16847.1
688.175	16691.46
688.372	16484.61
688.568	16544
688.765	16337.16
688.962	17031.42
689.158	16654.59
689.355	16187.66
689.551	16972.03
689.748	16427.27
689.944	16664.83
690.14	16328.97
690.337	16531.72
690.533	16433.41
690.73	16341.25
690.926	16548.1
691.123	16505.09
691.319	16478.47
691.515	16292.1
691.712	16253.19
691.908	16695.55
692.104	16443.65
692.301	16351.49
692.497	16136.46
692.693	16638.21
692.889	16734.46
693.086	16462.08
693.282	16306.44
693.478	16216.33
693.674	16810.24
693.87	16216.33
694.067	16247.05
694.263	16693.51
694.459	16296.2
694.655	16357.64
694.851	16290.06
695.047	16589.06
695.243	16664.83
695.439	16394.5
695.635	16087.31
695.831	16652.55
696.027	16443.65
696.224	15956.24
696.42	16584.96
696.615	16742.66
696.811	16457.99
697.007	15974.67
697.203	16328.97
697.399	16451.84
697.595	16617.73
697.791	15780.11
697.987	16142.6
698.183	16179.47
698.379	15939.85
698.575	16040.2
698.77	16183.56
698.966	16427.27
699.162	16406.79
699.358	15806.73
699.554	16070.92
699.749	16140.55
699.945	16423.17
700.141	16097.55
700.337	16134.41
700.532	16140.55
700.728	16189.7
700.924	15833.36
701.119	15753.49
701.315	16298.25
701.511	16193.8
701.706	16001.29
701.902	15755.54
702.097	16154.89
702.293	16218.38
702.489	16017.68
702.684	15999.24
702.88	16257.29
703.075	16044.3
703.271	15974.67
703.466	15915.28
703.662	15939.85
703.857	16222.47
704.053	15843.6
704.248	15837.45
704.443	16072.97
704.639	16120.07
704.834	15831.31
705.03	15755.54
705.225	16175.37
705.42	16265.48
705.616	15661.33
705.811	15669.52
706.006	15859.98
706.202	15937.8
706.397	15778.06
706.592	15878.41
706.787	15991.05
706.983	15991.05
707.178	16197.9
707.373	15907.09
707.568	16124.17
707.763	16341.25
707.959	15636.75
708.154	15726.86
708.349	15792.4
708.544	15978.76
708.739	15806.73
708.934	15675.66
709.129	16021.77
709.324	15816.97
709.519	15692.05
709.714	15558.93
709.909	16437.51
710.104	15673.62
710.299	15737.1
710.494	15601.94
710.689	15976.72
710.884	15935.76
711.079	15558.93
711.274	15661.33
711.469	15966.48
711.664	15761.68
711.859	15458.58
712.054	15644.95
712.249	15825.17
712.443	15806.73
712.638	15407.38
712.833	15515.92
713.028	15855.89
713.223	15708.43
713.417	15673.62
713.612	15614.23
713.807	15946
714.002	16353.54
714.196	15667.47
714.391	15630.61
714.586	16134.41
714.78	15663.38
714.975	15542.55
715.17	15423.76
715.364	15802.64
715.559	16138.51
715.754	15427.86
715.948	15528.21
716.143	16044.3
716.337	15784.21
716.532	15683.86
716.726	15366.42
716.921	15722.77
717.115	15984.91
717.31	14768.41
717.504	15896.85
717.699	15649.04
717.893	15556.88
718.088	15163.67
718.282	15016.22
718.476	15528.21
718.671	15495.44
718.865	15030.55
719.059	15094.04
719.254	15257.88
719.448	15788.3
719.642	16451.84
719.837	14977.31
720.031	15640.85
720.225	15651.09
720.419	14973.21
720.614	15126.81
720.808	15411.48
721.002	15175.96
721.196	14954.78
721.39	15198.49
721.585	15585.55
721.779	15327.51
721.973	14829.85
722.167	14580
722.361	15218.97
722.555	15556.88
722.749	15069.47
722.943	15051.03
723.137	14852.38
723.331	15378.71
723.525	15132.95
723.719	15069.47
723.913	15249.69
724.107	15458.58
724.301	15083.8
724.495	14981.4
724.689	15606.03
724.883	15509.78
725.077	14881.05
725.271	14831.9
725.465	15155.48
725.659	14938.4
725.853	15057.18
726.046	14965.02
726.24	14735.65
726.434	15077.66
726.628	14713.12
726.822	14862.62
727.015	15470.87
727.209	15331.61
727.403	15024.41
727.596	14729.5
727.79	15423.76
727.984	15347.99
728.177	14891.29
728.371	14903.58
728.565	15376.66
728.758	14866.72
728.952	14876.96
729.146	15151.38
729.339	15472.92
729.533	15051.03
729.726	14758.17
729.92	14557.47
730.113	15044.89
730.307	15069.47
730.5	14569.76
730.694	14723.36
730.887	14872.86
731.081	15284.5
731.274	14897.44
731.468	14731.55
731.661	14958.88
731.854	14930.2
732.048	14774.56
732.241	14520.61
732.435	14780.7
732.628	15048.99
732.821	14729.5
733.014	14821.66
733.208	14655.78
733.401	15329.56
733.594	14745.89
733.788	14641.44
733.981	15499.54
734.174	15284.5
734.367	14721.31
734.56	14844.19
734.754	15118.62
734.947	15077.66
735.14	14690.59
735.333	14530.85
735.526	15178.01
735.719	14813.47
735.912	14565.67
736.105	14760.22
736.298	14790.94
736.491	14768.41
736.684	14510.37
736.877	14881.05
737.07	14905.63
737.263	15347.99
737.456	14545.19
737.649	14610.72
737.842	14823.71
738.035	14983.45
738.228	14606.63
738.421	14670.11
738.614	15065.37
738.807	14989.6
739	14487.84
739.192	14371.11
739.385	15018.27
739.578	14977.31
739.771	14866.72
739.964	14184.74
740.156	14967.07
740.349	14895.39
740.542	14711.07
740.735	14416.16
740.927	14567.71
741.12	14500.13
741.313	14397.73
741.505	14569.76
741.698	14868.77
741.891	14821.66
742.083	14571.81
742.276	14608.67
742.468	14758.17
742.661	14504.23
742.854	14426.4
743.046	14352.68
743.239	15186.2
743.431	14696.74
743.624	14569.76
743.816	14156.07
744.009	14475.56
744.201	14745.89
744.393	14754.08
744.586	13977.9
744.778	14749.98
744.971	14694.69
745.163	14551.33
745.355	14719.26
745.548	14719.26
745.74	14618.91
745.932	14553.38
746.125	14455.08
746.317	14997.79
746.509	14721.31
746.702	14496.03
746.894	14385.44
747.086	14795.04
747.278	14958.88
747.471	14551.33
747.663	14534.95
747.855	14737.7
748.047	15055.13
748.239	14383.4
748.431	14442.79
748.623	15110.43
748.815	14860.57
749.008	14188.84
749.2	14377.25
749.392	14719.26
749.584	14580
749.776	14397.73
749.968	14489.89
750.16	15020.31
750.352	14547.23
750.544	14397.73
750.736	14272.81
750.928	14496.03
751.12	14647.58
751.311	14012.71
751.503	14348.58
751.695	14500.13
751.887	14506.27
752.079	14102.82
752.271	14020.91
752.463	15106.33
752.654	14668.06
752.846	14076.2
753.038	14020.91
753.23	14217.51
753.421	14618.91
753.613	14053.67
753.805	14469.41
753.997	14520.61
754.188	14557.47
754.38	13852.97
754.572	13887.79
754.763	14360.87
754.955	14385.44
755.146	14025
755.338	13869.36
755.53	14637.34
755.721	14156.07
755.913	13625.65
756.104	13955.37
756.296	14049.58
756.487	14704.93
756.679	13859.12
756.87	13717.81
757.062	14086.44
757.253	14229.8
757.445	13756.72
757.636	13898.03
757.827	14059.82
758.019	14754.08
758.21	13504.82
758.401	13832.49
758.593	14569.76
758.784	14213.42
758.975	13588.78
759.167	13713.71
759.358	13949.23
759.549	14307.62
759.74	13754.67
759.932	13693.23
760.123	14172.46
760.314	13803.82
760.505	13574.45
760.696	13435.19
760.888	14350.63
761.079	13769.01
761.27	13517.11
761.461	13195.57
761.652	14156.07
761.843	13803.82
762.034	13635.89
762.225	13631.79
762.416	13674.8
762.607	13521.2
762.798	13390.13
762.989	13355.32
763.18	14426.4
763.371	13580.59
763.562	13453.62
763.753	13136.18
763.944	13877.55
764.135	13877.55
764.326	13680.94
764.517	13439.28
764.708	13609.26
764.899	13482.29
765.089	13209.91
765.28	13203.77
765.471	13474.1
765.662	13621.55
765.853	13336.88
766.043	12845.37
766.234	13924.65
766.425	13599.02
766.615	13291.83
766.806	12781.88
766.997	13721.9
767.187	13441.33
767.378	12960.06
767.569	12767.55
767.759	13363.51
767.95	13404.47
768.141	13031.74
768.331	13111.61
768.522	13113.66
768.712	13478.19
768.903	12951.87
769.093	12898.62
769.284	13386.04
769.474	13259.06
769.665	12443.97
769.855	12802.36
770.046	13416.76
770.236	13068.6
770.426	12947.77
770.617	12431.68
770.807	13168.95
770.998	12972.35
771.188	13084.98
771.378	12644.67
771.569	13470
771.759	13076.79
771.949	12491.07
772.139	12491.07
772.33	12652.86
772.52	13343.03
772.71	12751.17
772.9	12620.1
773.09	13308.21
773.281	13144.38
773.471	12753.21
773.661	12460.35
773.851	12972.35
774.041	12685.63
774.231	12450.11
774.421	12456.26
774.611	12939.58
774.802	12910.91
774.992	12519.74
775.182	12345.67
775.372	12861.76
775.562	12853.56
775.752	12458.31
775.942	12339.52
776.131	12939.58
776.321	13076.79
776.511	12427.59
776.701	12218.69
776.891	12906.81
777.081	12269.89
777.271	12175.69
777.461	12276.04
777.651	12712.25
777.84	12665.15
778.03	12611.9
778.22	12171.59
778.41	12933.43
778.599	12452.16
778.789	12015.94
778.979	12061
779.169	12632.38
779.358	12251.46
779.548	12661.05
779.738	12030.28
779.927	12460.35
780.117	12333.38
780.307	11977.03
780.496	11598.16
780.686	12407.11
780.875	12568.9
781.065	11997.51
781.254	11997.51
781.444	12308.8
781.633	12317
781.823	11782.48
782.012	12015.94
782.202	12196.17
782.391	12296.52
782.581	11643.21
782.77	12085.58
782.96	12218.69
783.149	11958.6
783.338	11766.09
783.528	11637.07
783.717	12396.87
783.906	12540.22
784.096	11723.09
784.285	11641.17
784.474	11735.37
784.663	11925.83
784.853	11770.19
785.042	11653.45
785.231	11686.22
785.42	12312.9
785.61	11886.92
785.799	11735.37
785.988	11731.28
786.177	12020.04
786.366	11643.21
786.555	11690.32
786.744	12179.78
786.933	11800.91
787.122	11489.62
787.312	11596.11
787.501	11874.63
787.69	11805
787.879	11573.58
788.068	11532.62
788.257	11274.58
788.445	11653.45
788.634	11450.71
788.823	11250
789.012	12273.99
789.201	12159.3
789.39	11583.82
789.579	11233.62
789.768	11393.36
789.957	11546.96
790.145	11577.68
790.334	11207
790.523	11344.21
790.712	11381.07
790.9	11270.48
791.089	11088.21
791.278	11655.5
791.467	11559.25
791.655	11524.43
791.844	11858.25
792.033	11374.93
792.221	11073.88
792.41	11118.93
792.599	10862.94
792.787	11866.44
792.976	11680.08
793.164	11014.49
793.353	11018.58
793.541	11686.22
793.73	11417.94
793.918	11004.25
794.107	10860.89
794.295	11147.61
794.484	11469.14
794.672	10830.17
794.861	10957.14
795.049	11567.44
795.238	11557.2
795.426	10936.67
795.614	11057.5
795.803	11037.02
795.991	11327.83
796.179	10766.68
796.368	11163.99
796.556	11467.09
796.744	10821.98
796.932	10897.75
797.121	10695
797.309	11098.45
797.497	11327.83
797.685	11002.2
797.874	10768.73
798.062	11176.28
798.25	11471.18
798.438	10879.32
798.626	10932.57
798.814	11219.28
799.002	11659.6
799.19	10998.1
799.378	10983.77
799.566	11331.92
799.755	11372.88
799.943	11071.83
800.131	10940.76
800.318	11272.53
800.506	11159.89
800.694	10897.75
800.882	10963.29
801.07	11194.71
801.258	11141.46
801.446	10951
801.634	10719.58
801.822	10854.75
802.01	11039.06
802.197	10764.64
802.385	10951
802.573	11159.89
802.761	10772.83
802.949	10928.47
803.136	10471.78
803.324	11374.93
803.512	11215.19
803.699	10799.45
803.887	10678.62
804.075	11370.83
804.262	11016.54
804.45	10727.77
804.638	10907.99
804.825	10918.23
805.013	11039.06
805.201	11022.68
805.388	10797.4
805.576	11129.17
805.763	11395.41
805.951	10867.03
806.138	11006.3
806.326	11485.52
806.513	11381.07
806.701	10938.71
806.888	10965.34
807.075	11241.81
807.263	11448.66
807.45	10934.62
807.638	11143.51
807.825	11731.28
808.012	11440.47
808.2	10844.51
808.387	11233.62
808.574	11399.51
808.761	11598.16
808.949	10903.9
809.136	11129.17
809.323	11364.69
809.51	11299.16
809.698	11233.62
809.885	11258.2
810.072	11477.33
810.259	11475.28
810.446	11116.89
810.633	10905.95
810.82	11788.62
811.008	11653.45
811.195	11344.21
811.382	11147.61
811.569	11438.42
811.756	10948.95
811.943	11278.68
812.13	10912.09
812.317	11264.34
812.504	11413.84
812.691	10926.43
812.878	11186.52
813.064	11549.01
813.251	11368.79
813.438	11000.15
813.625	11395.41
813.812	11250
813.999	11487.57
814.186	11192.66
814.372	11190.61
814.559	11297.11
814.746	11571.54
814.933	10707.29
815.12	11071.83
815.306	11055.45
815.493	11274.58
815.68	11030.87
815.866	11094.36
816.053	11594.06
816.24	11688.27
816.426	11016.54
816.613	10961.24
816.799	11458.9
816.986	11473.23
817.173	10910.04
817.359	11127.13
817.546	11438.42
817.732	10858.84
817.919	11026.78
818.105	11284.82
818.292	11190.61
818.478	11366.74
818.665	11057.5
818.851	10809.69
819.037	11721.04
819.224	11194.71
819.41	10680.67
819.597	10778.97
819.783	11639.12
819.969	11407.7
820.156	11051.35
820.342	10803.55
820.528	11985.23
820.714	11129.17
820.901	11106.65
821.087	11069.78
821.273	11442.51
821.459	10830.17
821.646	10719.58
821.832	10791.26
822.018	11295.06
822.204	11071.83
822.39	10873.18
822.576	10514.78
822.762	11262.29
822.948	11024.73
823.134	10926.43
823.32	10568.03
823.507	10840.41
823.693	11147.61
823.879	11209.04
824.065	10443.1
824.25	10942.81
824.436	10740.06
824.622	10690.91
824.808	10619.23
824.994	10717.53
825.18	10891.61
825.366	10584.41
825.552	10709.34
825.738	10985.82
825.923	11100.5
826.109	10912.09
826.295	10547.55
826.481	10647.9
826.667	10838.36
826.852	10840.41
827.038	10717.53
827.224	11075.93
827.409	11297.11
827.595	10410.34
827.781	10715.48
827.966	11161.94
828.152	11000.15
828.338	10617.18
828.523	10293.6
828.709	10815.83
828.894	10981.72
829.08	10551.65
829.266	10416.48
829.451	10484.06
829.637	10842.46
829.822	10629.47
830.008	10531.17
830.193	10750.3
830.378	11045.21
830.564	10535.26
830.749	10258.79
830.935	10809.69
831.12	10676.57
831.305	10428.77
831.491	10475.87
831.676	10332.51
831.861	10576.22
832.047	10203.49
832.232	10160.48
832.417	10793.31
832.602	10287.46
832.788	10277.22
832.973	10262.88
833.158	10586.46
833.343	10617.18
833.528	10269.03
833.714	10400.1
833.899	10768.73
834.084	10762.59
834.269	10381.67
834.454	10170.72
834.639	10608.99
834.824	10342.75
835.009	10254.69
835.194	10309.99
835.379	10578.27
835.564	10643.81
835.749	10070.37
835.934	9929.06
836.119	10633.57
836.304	10355.04
836.489	10238.31
836.674	10219.88
836.859	10144.1
837.044	10570.08
837.228	10097
837.413	9916.78
837.598	10422.62
837.783	10449.25
837.968	10131.81
838.152	9924.97
838.337	9689.45
838.522	10408.29
838.707	10383.71
838.891	10113.38
839.076	9976.17
839.261	10406.24
839.445	9935.21
839.63	10035.56
839.815	10674.53
839.999	10072.42
840.184	9974.12
840.368	9910.63
840.553	10195.3
840.737	10264.93
840.922	9644.4
841.106	9773.42
841.291	9867.63
841.475	9937.26
841.66	9662.83
841.844	9761.13
842.029	10856.79
842.213	9451.89
842.397	9388.4
842.582	9689.45
842.766	10355.04
842.951	10140.01
843.135	9662.83
843.319	9638.25
843.504	9931.11
843.688	10209.64
843.872	9355.63
844.056	9738.6
844.241	9982.31
844.425	9662.83
844.609	9615.73
844.793	9515.37
844.977	9976.17
845.161	9797.99
845.346	9355.63
845.53	9494.9
845.714	9632.11
845.898	10170.72
846.082	9398.64
846.266	9304.43
846.45	9517.42
846.634	9554.29
846.818	9286
847.002	9601.39
847.186	9705.84
847.37	9310.58
847.554	9183.6
847.738	9402.74
847.922	9476.46
848.106	9740.65
848.29	9134.45
848.473	9271.67
848.657	9701.74
848.841	9867.63
849.025	9349.49
849.209	8937.85
849.392	9744.75
849.576	9410.93
849.76	8987
849.944	9150.84
850.127	9820.52
850.311	8917.37
850.495	8991.09
850.678	8968.57
850.862	9728.36
851.046	9789.8
851.229	9480.56
851.413	8962.42
851.596	9197.94
851.78	9441.65
851.964	9421.17
852.147	8903.03
852.331	10049.89
852.514	9251.19
852.698	9075.06
852.881	8685.95
853.065	9357.68
853.248	9120.12
853.431	9062.77
853.615	9109.88
853.798	9744.75
853.982	9240.95
854.165	8989.05
854.348	8855.93
854.532	8987
854.715	9034.1
854.898	8909.18
855.081	8782.2
855.265	9091.45
855.448	9601.39
855.631	8712.57
855.814	8608.12
855.997	9081.21
856.181	8956.28
856.364	8780.15
856.547	8419.71
856.73	9130.36
856.913	8984.95
857.096	8628.6
857.279	8939.9
857.462	8774.01
857.645	9060.73
857.828	8892.79
858.011	8655.23
858.194	8966.52
858.377	9042.29
858.56	8552.83
858.743	8655.23
858.926	8563.07
859.109	9089.4
859.292	8552.83
859.475	8479.1
859.658	9038.2
859.841	8974.71
860.023	8255.87
860.206	8405.38
860.389	8835.45
860.572	9122.16
860.755	8348.03
860.937	8507.77
861.12	8653.18
861.303	8810.87
861.486	8417.66
861.668	8194.43
861.851	8604.03
862.034	8704.38
862.216	8452.48
862.399	8202.63
862.581	8692.09
862.764	8878.46
862.947	8458.62
863.129	8112.52
863.312	8096.13
863.494	8812.92
863.677	8411.52
863.859	8075.65
864.042	8649.08
864.224	8745.34
864.406	8452.48
864.589	7981.45
864.771	8675.71
864.954	8077.7
865.136	8096.13
865.318	7913.86
865.501	8462.72
865.683	7971.21
865.865	8053.13
866.048	8008.07
866.23	8356.22
866.412	8378.75
866.594	7819.66
866.777	8051.08
866.959	8268.16
867.141	8061.32
867.323	8059.27
867.505	7985.54
867.687	8216.96
867.869	8319.36
868.052	7971.21
868.234	7924.1
868.416	8116.61
868.598	8507.77
868.78	8106.37
868.962	7838.09
869.144	8614.27
869.326	8456.57
869.508	8028.55
869.69	7713.16
869.872	7993.73
870.054	8432
870.236	7750.03
870.417	7887.24
870.599	7975.3
870.781	8479.1
870.963	7981.45
871.145	7737.74
871.327	7862.66
871.508	8323.46
871.69	7584.14
871.872	7940.49
872.054	8133
872.235	8143.24
872.417	7827.85
872.599	7844.23
872.78	8327.55
872.962	8100.23
873.144	7731.59
873.325	7729.55
873.507	8317.31
873.689	7852.42
873.87	7496.08
874.052	8032.65
874.233	7987.59
874.415	8180.1
874.596	7774.6
874.778	7618.96
874.959	7946.63
875.141	8354.18
875.322	7840.14
875.503	7745.93
875.685	8145.28
875.866	7721.35
876.048	7704.97
876.229	7657.87
876.41	8069.51
876.592	8155.52
876.773	7815.56
876.954	7512.46
877.136	8493.44
877.317	7768.46
877.498	7565.71
877.679	7954.82
877.86	8081.8
878.042	8165.76
878.223	7723.4
878.404	7930.25
878.585	8063.36
878.766	8458.62
878.947	8026.5
879.128	7862.66
879.309	8268.16
879.49	8278.4
879.672	7891.34
879.853	7799.18
880.034	7909.77
880.215	8059.27
880.396	7848.33
880.576	7879.05
880.757	7987.59
880.938	8327.55
881.119	7862.66
881.3	7752.07
881.481	7922.06
881.662	9066.87
881.843	7768.46
882.023	7770.51
882.204	8374.66
882.385	8251.78
882.566	7887.24
882.747	8030.6
882.927	8339.84
883.108	8300.93
883.289	7926.15
883.469	8130.95
883.65	8094.08
883.831	8366.46
884.011	8348.03
884.192	7983.49
884.373	8573.31
884.553	8405.38
884.734	8350.08
884.914	8532.35
885.095	9154.93
885.275	8880.5
885.456	8522.11
885.636	8038.79
885.817	8458.62
885.997	8475.01
886.178	8233.35
886.358	8372.61
886.538	8556.93
886.719	9437.55
886.899	8085.89
887.08	8515.97
887.26	8808.83
887.44	8350.08
887.621	8194.43
887.801	8395.14
887.981	9064.82
888.161	8776.06
888.342	8130.95
888.522	8343.94
888.702	8782.2
888.882	9070.97
889.062	8454.53
889.242	8206.72
889.423	8900.98
889.603	8722.81
889.783	8440.19
889.963	8249.73
890.143	8681.85
890.323	8882.55
890.503	8393.09
890.683	8452.48
890.863	8634.75
891.043	8552.83
891.223	8313.22
891.403	8554.88
891.583	8499.58
891.763	8714.62
891.943	8405.38
892.122	8298.88
892.302	8731
892.482	8538.49
892.662	8298.88
892.842	8151.43
893.022	8630.65
893.201	8280.45
893.381	8225.15
893.561	8194.43
893.741	8692.09
893.92	8700.28
894.1	8302.98
894.28	8307.07
894.459	8681.85
894.639	8653.18
894.819	8403.33
894.998	8456.57
895.178	8585.6
895.357	8696.19
895.537	8145.28
895.716	8161.67
895.896	8319.36
896.075	8728.95
896.255	8143.24
896.434	7965.06
896.614	8714.62
896.793	8814.97
896.973	8278.4
897.152	8120.71
897.331	8544.64
897.511	8610.17
897.69	7817.61
897.87	8036.74
898.049	8358.27
898.228	8229.25
898.407	8122.76
898.587	8182.15
898.766	8040.84
898.945	8251.78
899.124	8296.83
899.304	8089.99
899.483	8274.31
899.662	8481.15
899.841	8040.84
900.02	7932.29
900.199	8626.56
900.378	8286.59
900.557	7704.97
900.737	7737.74
900.916	8161.67
901.095	8321.41
901.274	8098.18
901.453	7784.84
901.632	7811.46
901.811	7836.04
901.989	7739.79
902.168	7684.49
902.347	8245.63
902.526	7807.37
902.705	7688.59
902.884	7647.63
903.063	8137.09
903.242	8245.63
903.42	7543.18
903.599	7541.13
903.778	7844.23
903.957	8032.65
904.135	7539.08
904.314	7340.43
904.493	7541.13
904.672	7661.96
904.85	7254.42
905.029	7213.46
905.207	7680.39
905.386	8251.78
905.565	7043.48
905.743	7211.41
905.922	7135.64
906.1	7592.33
906.279	7066
906.457	6922.65
906.636	7250.32
906.814	7197.07
906.993	7080.34
907.171	6764.95
907.35	7395.73
907.528	7428.49
907.707	7160.21
907.885	6767
908.063	7387.54
908.242	6828.44
908.42	6756.76
908.598	6558.11
908.777	6850.97
908.955	6785.43
909.133	6883.73
909.311	6386.08
909.49	7051.67
909.668	6916.5
909.846	6701.47
910.024	6648.22
910.202	6898.07
910.38	6992.28
910.559	6773.14
910.737	6846.87
910.915	7340.43
911.093	7184.79
911.271	6934.93
911.449	7178.64
911.627	7176.59
911.805	7645.58
911.983	7018.9
912.161	7039.38
912.339	7608.72
912.517	7559.56
912.695	7360.91
912.872	7063.96
913.05	7242.13
913.228	7281.04
913.406	7176.59
913.584	7047.57
913.762	7391.63
913.939	7096.72
914.117	6988.18
914.295	6936.98
914.473	7537.04
914.65	7287.18
914.828	7223.7
915.006	6959.51
915.184	7041.43
915.361	7385.49
915.539	7172.5
915.716	7262.61
915.894	7330.19
916.072	7614.86
916.249	7213.46
916.427	7270.8
916.604	6869.4
916.782	7246.23
916.959	6744.47
917.137	6896.02
917.314	7330.19
917.492	7258.51
917.669	6914.45
917.847	6953.37
918.024	7266.71
918.201	6975.89
918.379	6822.3
918.556	6965.65
918.733	7262.61
918.911	7082.39
919.088	7154.07
919.265	6697.37
919.442	7121.3
919.62	7102.87
919.797	6787.48
919.974	6590.88
920.151	7139.73
920.328	6889.88
920.506	6635.93
920.683	6752.66
920.86	6787.48
921.037	6853.02
921.214	6769.05
921.391	6580.64
921.568	7170.45
921.745	6873.5
921.922	6873.5
922.099	6490.52
922.276	7016.85
922.453	7188.88
922.63	6506.91
922.807	6777.24
922.984	6758.81
923.161	6445.47
923.338	6357.41
923.514	6316.45
923.691	6822.3
923.868	6924.69
924.045	6457.76
924.222	6515.1
924.399	6619.55
924.575	6955.41
924.752	6660.51
924.929	6515.1
925.105	6885.78
925.282	6402.46
925.459	6392.22
925.635	6508.96
925.812	6676.89
925.989	6502.81
926.165	6396.32
926.342	6121.89
926.518	6187.43
926.695	6455.71
926.871	6177.19
927.048	6072.74
927.224	6693.27
927.401	6162.85
927.577	6261.15
927.754	6015.4
927.93	6756.76
928.107	6543.77
928.283	6050.21
928.459	6310.3
928.636	6486.43
928.812	6187.43
928.988	5958.05
929.165	5786.02
929.341	6072.74
929.517	6349.22
929.693	6017.44
929.87	5597.61
930.046	6295.97
930.222	5986.72
930.398	5808.55
930.574	5931.43
930.751	6023.59
930.927	5835.17
931.103	5949.86
931.279	5898.66
931.455	5683.63
931.631	6246.82
931.807	5454.25
931.983	5570.99
932.159	5568.94
932.335	5900.71
932.511	5480.88
932.687	5489.07
932.863	5906.85
933.039	5927.33
933.215	5243.31
933.391	5190.06
933.566	5722.54
933.742	5583.27
933.918	5366.19
934.094	5095.86
934.27	5536.17
934.445	5597.61
934.621	5347.76
934.797	4805.05
934.973	5482.92
935.148	5372.33
935.324	4821.43
935.5	4698.55
935.675	5304.75
935.851	5179.82
936.027	4884.92
936.202	4759.99
936.378	5147.06
936.553	4938.16
936.729	4819.38
936.904	4395.45
937.08	4313.53
937.255	4460.99
937.431	4321.73
937.606	4161.98
937.782	4133.31
937.957	4501.95
938.133	4049.35
938.308	3826.12
938.483	3969.48
938.659	3852.74
938.834	3811.78
939.009	3555.79
939.185	4035.01
939.36	3637.7
939.535	3260.88
939.71	3662.28
939.886	4082.11
940.061	4084.16
940.236	3725.77
940.411	3484.11
940.586	3928.52
940.761	3645.9
940.937	3449.29
941.112	3271.12
941.287	3502.54
941.462	3539.4
941.637	3166.67
941.812	3226.06
941.987	3551.69
942.162	3371.47
942.337	3291.6
942.512	3262.93
942.687	3656.14
942.862	3516.87
943.037	3019.22
943.212	2847.19
943.386	3271.12
943.561	3338.7
943.736	3375.56
943.911	3430.86
944.086	3398.09
944.26	3314.13
944.435	3109.33
944.61	3170.77
944.785	3555.79
944.959	3549.64
945.134	3172.82
945.309	3004.88
945.483	3076.56
945.658	3580.36
945.833	2656.73
946.007	2920.92
946.182	3660.23
946.357	2980.31
946.531	3064.27
946.706	2965.97
946.88	2904.53
947.055	3305.93
947.229	3084.75
947.404	3043.79
947.578	3504.59
947.752	3117.52
947.927	2904.53
948.101	3051.99
948.276	3305.93
948.45	3437
948.624	3232.21
948.799	3170.77
948.973	3406.28
949.147	3049.94
949.321	3281.36
949.496	3230.16
949.67	3686.86
949.844	3391.95
950.018	3201.49
950.193	3113.42
950.367	3797.45
950.541	3373.52
950.715	3310.03
950.889	3185.1
951.063	3369.42
951.237	3594.7
951.411	3105.23
951.585	3076.56
951.759	3690.95
951.933	3482.06
952.107	3246.54
952.281	3408.33
952.455	3865.03
952.629	3695.05
952.803	3318.22
952.977	3154.38
953.151	3748.29
953.325	3801.54
953.499	3625.42
953.672	3166.67
953.846	3402.19
954.02	3596.75
954.194	3242.45
954.368	3363.28
954.541	3658.18
954.715	3414.48
954.889	3494.35
955.062	3312.08
955.236	3641.8
955.41	3568.07
955.583	3547.59
955.757	3205.58
955.93	3471.82
956.104	3316.17
956.278	3332.56
956.451	3518.92
956.625	3817.93
956.798	3994.05
956.972	3955.14
957.145	3461.58
957.319	3727.82
957.492	3621.32
957.665	3588.55
957.839	3437
958.012	3729.86
958.185	3563.98
958.359	3510.73
958.532	3641.8
958.705	3764.68
958.879	3774.92
959.052	3439.05
959.225	3297.74
959.398	3789.25
959.572	3748.29
959.745	3453.39
959.918	3475.91
960.091	3774.92
960.264	3965.38
960.438	3307.98
960.611	3299.79
960.784	3912.13
960.957	3557.83
961.13	3842.5
961.303	3533.26
961.476	3629.51
961.649	3981.76
961.822	3447.24
961.995	3568.07
962.168	3871.17
962.341	3703.24
962.514	3451.34
962.686	3340.75
962.859	3717.58
963.032	3725.77
963.205	3592.65
963.378	3357.13
963.551	3672.52
963.723	3701.19
963.896	3617.22
964.069	3641.8
964.242	3701.19
964.414	3822.02
964.587	3484.11
964.76	3455.44
964.932	3830.21
965.105	3776.97
965.278	3484.11
965.45	3416.52
965.623	3645.9
965.795	3693
965.968	3363.28
966.14	3514.83
966.313	3453.39
966.485	3590.6
966.658	3361.23
966.83	3396.04
967.003	3905.99
967.175	3809.73
967.348	3387.85
967.52	3463.63
967.692	3936.71
967.865	3555.79
968.037	3445.2
968.209	3627.46
968.382	3578.31
968.554	3975.62
968.726	3408.33
968.898	3365.32
969.071	3566.03
969.243	3660.23
969.415	3379.66
969.587	3574.22
969.759	4008.39
969.932	3690.95
970.104	3271.12
970.276	3023.31
970.448	3418.57
970.62	3398.09
970.792	3422.67
970.964	3391.95
971.136	4002.24
971.308	3627.46
971.48	3226.06
971.652	3203.54
971.824	3936.71
971.996	3420.62
972.168	3297.74
972.339	3326.41
972.511	3813.83
972.683	3404.24
972.855	3455.44
973.027	3373.52
973.199	3394
973.37	3693
973.542	3445.2
973.714	3340.75
973.886	3342.8
974.057	3703.24
974.229	3152.34
974.401	3250.64
974.572	3203.54
974.744	3029.46
974.915	3043.79
975.087	3107.28
975.259	3768.77
975.43	3217.87
975.602	3221.97
975.773	3006.93
975.945	3123.66
976.116	3512.78
976.288	2918.87
976.459	3209.68
976.63	3209.68
976.802	3381.71
976.973	3031.51
977.145	3240.4
977.316	3686.86
977.487	3387.85
977.659	3201.49
977.83	3078.61
978.001	3643.85
978.172	3291.6
978.344	2990.55
978.515	2947.54
978.686	3047.89
978.857	3563.98
979.028	3017.17
979.2	2806.23
979.371	3385.8
979.542	3174.86
979.713	3080.66
979.884	2552.28
980.055	2845.14
980.226	2968.02
980.397	2712.02
980.568	2818.52
980.739	3295.69
980.91	3062.23
981.081	3107.28
981.252	2908.63
981.423	3142.1
981.594	3197.39
981.765	2740.69
981.936	2802.13
982.106	3035.6
982.277	3387.85
982.448	2769.37
982.619	2998.74
982.79	2937.3
982.96	3109.33
983.131	2839
983.302	2564.57
983.472	2822.61
983.643	2879.96
983.814	2947.54
983.984	2681.3
984.155	2890.2
984.326	3244.49
984.496	2793.94
984.667	2630.1
984.837	2720.21
985.008	3125.71
985.178	2931.16
985.349	2548.19
985.519	2798.04
985.69	2699.73
985.86	2642.39
986.031	2583
986.201	2898.39
986.371	2884.05
986.542	2576.86
986.712	2410.97
986.882	2900.44
987.053	3002.83
987.223	2388.44
987.393	2705.88
987.563	2632.15
987.734	3068.37
987.904	2886.1
988.074	2496.99
988.244	2814.42
988.414	2574.81
988.585	2482.65
988.755	2515.42
988.925	2623.96
989.095	3185.1
989.265	2294.24
989.435	2499.03
989.605	2798.04
989.775	2814.42
989.945	2654.68
990.115	2404.83
990.285	2562.52
990.455	2709.97
990.625	2388.44
990.795	2322.91
990.965	2933.2
991.134	2431.45
991.304	2374.11
991.474	2306.52
991.644	2558.42
991.814	2957.78
991.984	2159.07
992.153	2390.49
992.323	2488.79
992.493	2496.99
992.662	2128.35
992.832	2333.15
993.002	2380.25
993.171	2521.56
993.341	2081.25
993.511	2351.58
993.68	2273.76
993.85	2654.68
994.019	1984.99
994.189	2150.88
994.358	2490.84
994.528	2335.2
994.697	1892.84
994.867	2030.05
995.036	2548.19
995.206	2177.5
995.375	2128.35
995.544	2261.47
995.714	2562.52
995.883	2163.17
996.052	2208.22
996.222	1823.2
996.391	2769.37
996.56	2339.29
996.73	1989.09
996.899	1796.58
997.068	2662.87
997.237	2210.27
997.406	1995.23
997.576	1802.72
997.745	2232.8
997.914	2370.01
998.083	1614.31
998.252	1970.66
998.421	2240.99
998.59	1944.03
998.759	1829.35
998.928	1786.34
999.097	2583
999.266	2310.62
999.435	1880.55
999.604	1632.74
999.773	2654.68
999.942	2122.21
1000.111	1724.9
1000.28	1737.19
1000.448	1876.45
1000.617	1855.97
1000.786	1987.04
1000.955	1706.47
1001.124	2212.32
1001.292	2687.45
1001.461	1638.89
1001.63	1700.33
1001.798	2398.68
1001.967	2410.97
1002.136	1468.91
1002.304	1702.37
1002.473	2054.62
1002.642	1919.46
1002.81	1577.45
1002.979	1800.68
1003.147	2062.82
1003.316	2447.83
1003.484	1667.56
1003.653	1526.25
1003.821	2204.13
1003.99	1872.36
1004.158	1815.01
1004.327	1700.33
1004.495	2064.86
1004.663	1827.3
1004.832	1774.05
1005	1497.58
1005.168	2048.48
1005.337	1794.53
1005.505	1317.36
1005.673	1800.68
1005.842	2003.43
1006.01	1937.89
1006.178	1415.66
1006.346	1532.39
1006.514	1946.08
1006.683	2122.21
1006.851	1407.47
1007.019	1612.26
1007.187	1614.31
1007.355	1272.3
1007.523	1192.43
1007.691	1360.36
1007.859	1425.9
1008.027	2040.29
1008.195	1440.23
1008.363	1319.4
1008.531	1831.4
1008.699	1638.89
1008.867	1264.11
1009.035	1393.13
1009.203	1888.74
1009.37	1604.07
1009.538	1384.94
1009.706	1755.62
1009.874	1708.52
1010.042	1630.7
1010.209	1180.14
1010.377	1282.54
1010.545	1749.48
1010.713	1544.68
1010.88	1288.68
1011.048	1294.83
1011.216	1511.91
1011.383	1880.55
1011.551	1167.85
1011.718	1081.84
1011.886	1796.58
1012.054	1610.22
1012.221	1137.13
1012.389	1219.05
1012.556	1532.39
1012.724	1976.8
1012.891	1335.79
1013.058	1028.59
1013.226	1698.28
1013.393	1626.6
1013.561	981.49
1013.728	1049.07
1013.895	1722.85
1014.063	1602.02
1014.23	950.77
1014.397	1069.55
1014.565	1759.72
1014.732	1292.78
1014.899	1022.45
1015.066	1012.21
1015.233	1436.14
1015.401	1487.34
1015.568	1137.13
1015.735	1090.03
1015.902	1546.73
1016.069	1491.43
1016.236	991.73
1016.403	973.3
1016.57	1176.05
1016.737	1653.22
1016.904	1081.84
1017.071	860.66
1017.238	1188.33
1017.405	1636.84
1017.572	963.06
1017.739	1180.14
1017.906	1450.47
1018.073	1544.68
1018.24	889.33
1018.407	922.1
1018.573	1618.41
1018.74	1208.81
1018.907	983.54
1019.074	797.17
1019.241	1520.1
1019.407	1380.84
1019.574	895.47
1019.741	754.16
1019.907	1260.01
1020.074	1333.74
1020.241	637.43
1020.407	709.11
1020.574	1372.65
1020.74	1405.42
1020.907	850.42
1021.073	791.03
1021.24	1708.52
1021.406	1534.44
1021.573	762.36
1021.739	872.95
1021.906	1409.51
1022.072	1069.55
1022.239	737.78
1022.405	717.3
1022.571	1212.91
1022.738	979.44
1022.904	809.46
1023.07	678.39
1023.237	1145.33
1023.403	1309.16
1023.569	766.45
1023.735	901.62
1023.902	1255.92
1024.068	1139.18
1024.234	651.77
1024.4	659.96
1024.566	1210.86
1024.732	1389.03
1024.898	725.49
1025.065	553.46
1025.231	1149.42
1025.397	985.58
1025.563	707.06
1025.729	672.25
1025.895	743.92
1026.061	868.85
1026.227	561.66
1026.392	733.68
1026.558	1294.83
1026.724	1137.13
1026.89	578.04
1027.056	768.5
1027.222	1110.51
1027.388	954.87
1027.553	717.3
1027.719	498.17
1027.885	1395.18
1028.051	1167.85
1028.216	457.21
1028.382	670.2
1028.548	1180.14
1028.713	866.8
1028.879	528.89
1029.045	854.51
1029.21	1298.92
1029.376	1155.57
1029.541	737.78
1029.707	709.11
1029.873	1049.07
1030.038	1026.54
1030.204	702.97
1030.369	594.42
1030.534	1229.29
1030.7	813.56
1030.865	674.29
1031.031	619
1031.196	987.63
1031.361	993.78
1031.527	535.03
1031.692	584.18
1031.857	610.81
1032.023	1128.94
1032.188	485.88
1032.353	625.14
1032.518	1298.92
1032.684	958.96
1032.849	375.29
1033.014	616.95
1033.179	1116.65
1033.344	963.06
1033.509	606.71
1033.674	406.01
1033.839	1049.07
1034.004	1051.12
1034.17	489.98
1034.335	391.67
1034.5	772.6
1034.664	782.84
1034.829	510.46
1034.994	492.02
1035.159	905.71
1035.324	948.72
1035.489	489.98
1035.654	422.39
1035.819	1122.8
1035.984	926.19
1036.148	553.46
1036.313	469.5
1036.478	1049.07
1036.643	864.75
1036.807	324.09
1036.972	444.92
1037.137	1141.23
1037.301	768.5
1037.466	285.18
1037.631	500.22
1037.795	1032.69
1037.96	903.67
1038.124	616.95
1038.289	297.47
1038.454	920.05
1038.618	844.28
1038.783	483.83
1038.947	557.56
1039.111	770.55
1039.276	649.72
1039.44	332.28
1039.605	848.37
1039.769	592.37
1039.933	762.36
1040.098	451.07
1040.262	614.9
1040.426	991.73
1040.591	881.14
1040.755	313.85
1040.919	330.23
1041.083	901.62
1041.248	698.87
1041.412	92.67
1041.576	340.47
1041.74	688.63
1041.904	872.95
1042.068	274.94
1042.232	461.3
1042.397	930.29
1042.561	819.7
1042.725	147.97
1042.889	492.02
1043.053	899.57
1043.217	848.37
1043.381	426.49
1043.544	270.84
1043.708	950.77
1043.872	428.54
1044.036	76.29
1044.2	172.54
1044.364	895.47
1044.528	1065.46
1044.691	5124.53
1044.855	205.31
1045.019	999.92
1045.183	856.56
1045.346	334.33
1045.51	262.65
1045.674	725.49
1045.837	741.88
1046.001	244.22
1046.165	254.46
1046.328	1118.7
1046.492	772.6
1046.655	377.34
1046.819	342.52
1046.983	467.45
1047.146	709.11
1047.31	276.99
1047.473	94.72
1047.636	625.14
1047.8	436.73
1047.963	352.76
1048.127	162.3
1048.29	430.59
