Data from Hydrogel_Ink_Intensity_Test_1_USB4F045381__49__00049.txt Node

Date: Mon Jul 31 10:48:53 EDT 2023
User: mmckonesweet
Spectrometer: USB4F04538
Trigger mode: 4
Integration Time (sec): 9.000000E-1
Scans to average: 1
Electric dark correction enabled: true
Nonlinearity correction enabled: false
Boxcar width: 0
XAxis mode: Wavelengths
Number of Pixels in Spectrum: 3648
>>>>>Begin Spectral Data<<<<<
345.52	-1030.47
345.736	-1030.47
345.952	-1030.47
346.168	-1026.37
346.384	-1048.9
346.6	-84.31
346.816	-256.34
347.032	-190.8
347.248	319.14
347.464	-213.33
347.68	-84.31
347.896	85.67
348.112	325.29
348.328	-35.16
348.544	-82.26
348.76	-26.96
348.975	243.37
349.191	-242
349.407	-221.52
349.623	-74.07
349.839	-104.79
350.055	-164.18
350.27	-43.35
350.486	104.11
350.702	335.53
350.918	202.41
351.133	-180.56
351.349	163.5
351.565	300.71
351.781	-203.09
351.996	65.19
352.212	313
352.428	-104.79
352.644	-227.67
352.859	-211.28
353.075	304.81
353.291	20.14
353.506	-100.69
353.722	-287.06
353.938	-76.12
354.153	401.06
354.369	114.34
354.584	-219.47
354.8	263.85
355.016	-280.91
355.231	-289.1
355.447	-143.7
355.662	116.39
355.878	820.89
356.093	-340.3
356.309	9.9
356.524	-196.95
356.74	245.41
356.955	-160.08
357.171	11.95
357.386	145.06
357.602	-301.39
357.817	-61.78
358.033	-207.19
358.248	374.44
358.464	200.36
358.679	-129.36
358.895	-299.34
359.11	5.8
359.325	200.36
359.541	216.74
359.756	-26.96
359.972	-188.75
360.187	177.83
360.402	-211.28
360.618	-149.84
360.833	1058.46
361.048	288.42
361.264	-133.46
361.479	-57.68
361.694	-53.59
361.909	229.03
362.125	-145.75
362.34	-74.07
362.555	210.6
362.77	89.77
362.986	-176.47
363.201	-227.67
363.416	216.74
363.631	52.91
363.847	-90.45
364.062	-147.8
364.277	169.64
364.492	91.82
364.707	-59.73
364.922	-393.55
365.138	267.94
365.353	384.68
365.568	-198.99
365.783	-84.31
365.998	89.77
366.213	521.89
366.428	-223.57
366.643	-26.96
366.858	333.48
367.073	118.44
367.288	-127.32
367.503	-233.81
367.718	134.82
367.933	362.15
368.148	-325.97
368.363	-69.97
368.578	3.75
368.793	480.93
369.008	-31.06
369.223	-264.53
369.438	208.55
369.653	349.86
369.868	-256.34
370.083	-166.23
370.298	134.82
370.513	446.12
370.728	50.86
370.943	-137.56
371.157	-137.56
371.372	517.79
371.587	-285.01
371.802	-256.34
372.017	20.14
372.232	485.03
372.446	20.14
372.661	-252.24
372.876	253.61
373.091	171.69
373.306	-69.97
373.52	-207.19
373.735	-35.16
373.95	505.51
374.165	-96.6
374.379	-115.03
374.594	9.9
374.809	120.49
375.023	87.72
375.238	-248.15
375.453	253.61
375.667	-239.95
375.882	-90.45
376.097	-268.63
376.311	149.16
376.526	48.81
376.741	-239.95
376.955	32.43
377.17	597.67
377.384	552.61
377.599	-18.77
377.813	-282.96
378.028	605.86
378.242	308.9
378.457	-0.34
378.672	-354.64
378.886	114.34
379.101	20.14
379.315	-334.16
379.53	-158.03
379.744	206.5
379.958	245.41
380.173	-125.27
380.387	-162.13
380.602	206.5
380.816	-22.87
381.031	-129.36
381.245	-47.44
381.459	233.13
381.674	927.39
381.888	-115.03
382.103	132.78
382.317	-135.51
382.531	495.27
382.746	5.8
382.96	-207.19
383.174	-59.73
383.388	513.7
383.603	112.3
383.817	-192.85
384.031	247.46
384.246	499.36
384.46	136.87
384.674	376.48
384.888	67.24
385.103	81.58
385.317	-155.99
385.531	-0.34
385.745	403.11
385.959	464.55
386.174	-104.79
386.388	-166.23
386.602	112.3
386.816	-10.58
387.03	-29.01
387.244	38.57
387.458	151.21
387.672	423.59
387.887	-221.52
388.101	-242
388.315	442.02
388.529	237.22
388.743	11.95
388.957	-139.6
389.171	435.88
389.385	-69.97
389.599	-8.53
389.813	147.11
390.027	265.89
390.241	734.88
390.455	-65.88
390.669	-35.16
390.883	13.99
391.097	564.9
391.311	97.96
391.525	-41.3
391.738	249.51
391.952	257.7
392.166	79.53
392.38	-141.65
392.594	394.92
392.808	351.91
393.022	30.38
393.236	-22.87
393.449	288.42
393.663	353.96
393.877	-166.23
394.091	32.43
394.305	81.58
394.518	-55.64
394.732	-207.19
394.946	3.75
395.16	564.9
395.373	181.93
395.587	-55.64
395.801	-119.12
396.015	351.91
396.228	304.81
396.442	-141.65
396.656	-196.95
396.869	419.49
397.083	622.24
397.297	59.05
397.51	-4.44
397.724	464.55
397.938	265.89
398.151	-213.33
398.365	-117.08
398.578	386.72
398.792	579.23
399.005	136.87
399.219	-0.34
399.433	269.99
399.646	292.52
399.86	73.39
400.073	112.3
400.287	345.77
400.5	177.83
400.714	251.56
400.927	100.01
401.141	415.4
401.354	1169.05
401.567	462.5
401.781	-117.08
401.994	384.68
402.208	753.31
402.421	48.81
402.635	-37.2
402.848	177.83
403.061	515.75
403.275	245.41
403.488	-14.68
403.701	636.58
403.915	321.19
404.128	167.59
404.341	-18.77
404.555	362.15
404.768	177.83
404.981	192.17
405.195	-2.39
405.408	693.92
405.621	495.27
405.834	198.31
406.048	-92.5
406.261	706.21
406.474	550.56
406.687	-41.3
406.9	204.46
407.114	317.09
407.327	435.88
407.54	-10.58
407.753	-141.65
407.966	91.82
408.179	497.32
408.392	48.81
408.605	-31.06
408.819	374.44
409.032	452.26
409.245	-35.16
409.458	280.23
409.671	388.77
409.884	587.43
410.097	-76.12
410.31	280.23
410.523	433.83
410.736	298.66
410.949	147.11
411.162	153.26
411.375	612
411.588	603.81
411.801	331.43
412.014	190.12
412.227	310.95
412.44	190.12
412.653	126.63
412.865	317.09
413.078	546.47
413.291	341.67
413.504	194.22
413.717	100.01
413.93	458.4
414.143	79.53
414.356	173.74
414.568	-43.35
414.781	544.42
414.994	446.12
415.207	190.12
415.42	261.8
415.632	630.43
415.845	788.13
416.058	73.39
416.271	24.23
416.483	435.88
416.696	741.02
416.909	73.39
417.121	177.83
417.334	476.84
417.547	808.61
417.759	93.87
417.972	100.01
418.185	177.83
418.397	507.55
418.61	177.83
418.823	149.16
419.035	743.07
419.248	454.31
419.46	239.27
419.673	208.55
419.885	562.85
420.098	386.72
420.311	327.33
420.523	-31.06
420.736	587.43
420.948	499.36
421.161	241.32
421.373	44.71
421.586	566.95
421.798	210.6
422.01	77.48
422.223	345.77
422.435	339.62
422.648	628.39
422.86	210.6
423.073	261.8
423.285	683.68
423.497	194.22
423.71	169.64
423.922	188.07
424.134	581.28
424.347	822.94
424.559	437.92
424.771	482.98
424.984	386.72
425.196	587.43
425.408	106.15
425.621	114.34
425.833	753.31
426.045	759.46
426.257	163.5
426.47	333.48
426.682	648.86
426.894	552.61
427.106	349.86
427.318	431.78
427.531	419.49
427.743	745.12
427.955	341.67
428.167	763.55
428.379	634.53
428.591	536.23
428.804	349.86
429.016	288.42
429.228	382.63
429.44	671.39
429.652	525.99
429.864	194.22
430.076	431.78
430.288	472.74
430.5	468.64
430.712	489.12
430.924	843.42
431.136	644.77
431.348	153.26
431.56	247.46
431.772	595.62
431.984	491.17
432.196	317.09
432.408	390.82
432.62	439.97
432.832	728.74
433.044	745.12
433.256	550.56
433.468	845.47
433.679	253.61
433.891	335.53
434.103	675.49
434.315	906.91
434.527	796.32
434.739	439.97
434.95	501.41
435.162	845.47
435.374	556.71
435.586	540.32
435.798	454.31
436.009	425.64
436.221	640.67
436.433	423.59
436.645	388.77
436.856	538.27
437.068	964.25
437.28	437.92
437.491	816.8
437.703	939.68
437.915	726.69
438.126	558.75
438.338	886.43
438.55	773.79
438.761	904.86
438.973	612
439.184	579.23
439.396	804.51
439.608	925.34
439.819	462.5
440.031	587.43
440.242	831.13
440.454	986.78
440.665	609.95
440.877	704.16
441.088	966.3
441.3	730.78
441.511	521.89
441.723	517.79
441.934	851.61
442.146	843.42
442.357	841.37
442.569	960.16
442.78	798.37
442.991	1210.01
443.203	947.87
443.414	446.12
443.626	1250.97
443.837	704.16
444.048	560.8
444.26	466.6
444.471	966.3
444.682	1130.14
444.894	411.3
445.105	431.78
445.316	1109.66
445.528	1015.45
445.739	788.13
445.95	734.88
446.161	951.96
446.373	1097.37
446.584	706.21
446.795	751.26
447.006	1095.32
447.217	1361.56
447.429	550.56
447.64	638.62
447.851	1185.43
448.062	935.58
448.273	550.56
448.484	632.48
448.695	1099.42
448.907	818.85
449.118	847.52
449.329	1011.36
449.54	898.72
449.751	804.51
449.962	779.93
450.173	743.07
450.384	1203.86
450.595	1298.07
450.806	728.74
451.017	767.65
451.228	1398.42
451.439	1263.26
451.65	843.42
451.861	657.06
452.072	835.23
452.283	1091.23
452.494	1046.17
452.705	751.26
452.915	1463.96
453.126	1154.71
453.337	960.16
453.548	747.17
453.759	1316.5
453.97	1531.54
454.181	1179.29
454.391	882.33
454.602	1162.9
454.813	1306.26
455.024	966.3
455.235	841.37
455.445	1279.64
455.656	1267.35
455.867	1007.26
456.078	769.69
456.288	1021.6
456.499	1418.9
456.71	915.1
456.921	1078.94
457.131	1306.26
457.342	1261.21
457.553	976.54
457.763	1009.31
457.974	1390.23
458.184	1613.46
458.395	904.86
458.606	890.53
458.816	1515.16
459.027	1777.3
459.237	1269.4
459.448	941.72
459.659	1564.31
459.869	1840.78
460.08	935.58
460.29	1167
460.501	1793.68
460.711	1218.2
460.922	943.77
461.132	1115.8
461.343	2066.06
461.553	1064.6
461.764	1171.1
461.974	1173.14
462.184	1627.79
462.395	1683.09
462.605	1287.83
462.816	1093.27
463.026	1396.37
463.236	1758.86
463.447	1099.42
463.657	1218.2
463.867	1726.1
464.078	1513.11
464.288	1341.08
464.498	1379.99
464.709	1588.88
464.919	1674.9
465.129	1359.51
465.339	1257.11
465.55	1713.81
465.76	1844.88
465.97	1484.44
466.18	1410.71
466.391	1924.75
466.601	1822.35
466.811	1476.24
467.021	1386.13
467.231	1955.47
467.441	2016.91
467.651	1656.47
467.862	1283.74
468.072	1910.41
468.282	2147.98
468.492	1660.56
468.702	1693.33
468.912	1916.56
469.122	2524.8
469.332	1980.04
469.542	1627.79
469.752	2250.38
469.962	2064.01
470.172	1726.1
470.382	1853.07
470.592	2213.51
470.802	2363.01
471.012	1953.42
471.222	1896.08
471.432	2526.85
471.642	2520.71
471.852	2209.42
472.062	1855.12
472.272	2244.23
472.482	2082.44
472.691	1957.52
472.901	1805.97
473.111	2510.47
473.321	2918.01
473.531	2047.63
473.741	2137.74
473.95	2430.6
474.16	2612.87
474.37	2541.19
474.58	2209.42
474.79	2997.88
474.999	2815.62
475.209	2311.82
475.419	2363.01
475.628	2512.52
475.838	2975.36
476.048	2473.6
476.258	2485.89
476.467	3038.84
476.677	2598.53
476.886	2868.86
477.096	2594.44
477.306	2752.13
477.515	3260.02
477.725	2748.03
477.935	2766.46
478.144	3399.29
478.354	2918.01
478.563	2854.53
478.773	2717.31
478.982	3354.23
479.192	3317.37
479.401	3047.04
479.611	2844.29
479.82	3006.08
480.03	3257.98
480.239	3040.89
480.449	3073.66
480.658	3849.84
480.868	3196.54
481.077	3296.89
481.287	3122.81
481.496	3608.18
481.705	3927.66
481.915	3573.36
482.124	3499.64
482.333	3583.6
482.543	3985.01
482.752	3473.01
482.961	3503.73
483.171	3741.3
483.38	3669.62
483.589	3696.24
483.799	3518.07
484.008	3780.21
484.217	3962.48
484.426	3618.42
484.636	3559.03
484.845	4054.64
485.054	3581.56
485.263	3982.96
485.472	3804.78
485.682	4470.37
485.891	4122.22
486.1	3741.3
486.309	3864.18
486.518	4419.18
486.727	4679.27
486.936	4001.39
487.146	4173.42
487.355	4587.11
487.564	4159.08
487.773	4085.36
487.982	4263.53
488.191	4308.58
488.4	4466.28
488.609	4271.72
488.818	4468.33
489.027	5052
489.236	4941.41
489.445	4355.69
489.654	4374.12
489.863	4791.91
490.072	4576.87
490.281	4796
490.49	4601.44
490.698	4970.08
490.907	5258.84
491.116	4642.4
491.325	4503.14
491.534	5273.18
491.743	4984.41
491.952	4814.43
492.16	4525.67
492.369	5078.62
492.578	5174.88
492.787	5015.13
492.996	4769.38
493.204	5056.09
493.413	5631.57
493.622	4576.87
493.831	4769.38
494.039	5658.2
494.248	5066.33
494.457	5006.94
494.665	4955.74
494.874	5527.13
495.083	5836.37
495.291	5060.19
495.5	4890.21
495.709	5660.24
495.917	5357.14
496.126	5193.31
496.335	5189.21
496.543	5205.6
496.752	5715.54
496.96	5545.56
497.169	5086.81
497.377	5588.57
497.586	5918.29
497.794	5596.76
498.003	5156.44
498.211	5588.57
498.42	6100.56
498.628	5510.74
498.837	5387.86
499.045	5862.99
499.254	5893.71
499.462	5584.47
499.671	5502.55
499.879	6346.31
500.087	6092.37
500.296	5607
500.504	5510.74
500.713	5969.49
500.921	6411.85
501.129	5633.62
501.338	5690.96
501.546	6245.96
501.754	6278.73
501.962	5928.53
502.171	5809.75
502.379	6317.64
502.587	6622.79
502.795	5807.7
503.004	6035.02
503.212	6207.05
503.42	6651.46
503.628	6215.24
503.837	6137.42
504.045	6538.82
504.253	6684.23
504.461	6184.52
504.669	5893.71
504.877	6444.62
505.085	6956.61
505.294	6137.42
505.502	6452.81
505.71	6526.54
505.918	6686.28
506.126	6186.57
506.334	6164.04
506.542	6551.11
506.75	6702.66
506.958	6610.5
507.166	6461
507.374	6393.42
507.582	7181.89
507.79	6508.1
507.998	6374.99
508.206	6993.47
508.414	6878.79
508.622	6606.41
508.83	6612.55
509.037	7335.48
509.245	6669.89
509.453	6682.18
509.661	6413.9
509.869	6968.9
510.077	6936.13
510.285	6909.51
510.492	6477.38
510.7	7525.94
510.908	6962.75
511.116	6811.2
511.324	6504.01
511.531	7011.9
511.739	7079.49
511.947	7038.53
512.155	7208.51
512.362	7185.98
512.57	6915.65
512.778	6858.31
512.985	6624.84
513.193	7546.42
513.401	7697.97
513.608	7071.29
513.816	6946.37
514.024	7509.56
514.231	7558.71
514.439	6964.8
514.646	7018.05
514.854	7620.15
515.061	7548.47
515.269	7157.31
515.477	7198.27
515.684	7319.1
515.892	7548.47
516.099	7222.84
516.307	7247.42
516.514	7798.32
516.722	8048.18
516.929	7173.69
517.136	7337.53
517.344	8082.99
517.551	7827
517.759	7226.94
517.966	7398.97
518.173	7562.81
518.381	7740.98
518.588	7491.13
518.796	7562.81
519.003	7919.15
519.21	7632.44
519.418	7640.63
519.625	7710.26
519.832	7571
520.039	7951.92
520.247	7345.72
520.454	7804.47
520.661	8334.89
520.868	8144.43
521.076	7773.75
521.283	7714.36
521.49	8615.46
521.697	8095.28
521.904	7710.26
522.112	7956.02
522.319	8422.95
522.526	8255.02
522.733	7882.29
522.94	7644.73
523.147	7904.82
523.354	8476.2
523.561	7800.37
523.768	8011.31
523.975	8269.36
524.183	8439.34
524.39	8085.04
524.597	8046.13
524.804	8343.08
525.011	8173.1
525.218	8044.08
525.425	8115.76
525.632	8832.55
525.838	8388.14
526.045	8291.88
526.252	8132.14
526.459	9807.38
526.666	9346.59
526.873	8078.9
527.08	8175.15
527.287	8850.98
527.494	8732.2
527.701	8271.4
527.907	8273.45
528.114	8758.82
528.321	8762.92
528.528	8422.95
528.735	8523.3
528.941	8746.53
529.148	8369.71
529.355	8685.09
529.562	8506.92
529.768	9145.89
529.975	8576.55
530.182	8650.28
530.388	8681
530.595	9090.59
530.802	8615.46
531.008	8689.19
531.215	8818.21
531.422	9713.17
531.628	9838.1
531.835	8848.93
532.042	8869.41
532.248	9086.5
532.455	9250.33
532.661	9086.5
532.868	8945.19
533.074	9408.03
533.281	9442.84
533.487	8943.14
533.694	8744.49
533.9	9244.19
534.107	9446.94
534.313	8945.19
534.52	8838.69
534.726	9512.47
534.933	9909.78
535.139	8816.16
535.345	9016.87
535.552	9414.17
535.758	9342.49
535.965	9348.64
536.171	9266.72
536.377	9922.07
536.584	9645.59
536.79	9381.4
536.996	9623.06
537.203	9668.12
537.409	9766.42
537.615	9432.6
537.821	9545.24
538.028	9870.87
538.234	9721.37
538.44	9522.71
538.646	9514.52
538.853	9821.72
539.059	9723.41
539.265	9838.1
539.471	9575.96
539.677	10118.67
539.883	9895.44
540.09	9578.01
540.296	9963.03
540.502	10053.14
540.708	9610.78
540.914	9922.07
541.12	9721.37
541.326	10110.48
541.532	9858.58
541.738	10016.27
541.944	9922.07
542.15	10468.87
542.356	10085.9
542.562	9729.56
542.768	10055.19
542.974	10743.3
543.18	10745.35
543.386	10198.54
543.592	9881.11
543.798	10843.65
544.004	10558.99
544.21	10071.57
544.415	9926.16
544.621	10702.34
544.827	10645
545.033	9907.73
545.239	10255.89
545.445	10126.86
545.651	10448.4
545.856	10184.21
546.062	10114.58
546.268	10444.3
546.474	10472.97
546.679	10257.93
546.885	10300.94
547.091	10489.35
547.297	11040.26
547.502	10243.6
547.708	10108.43
547.914	10331.66
548.119	10870.28
548.325	10010.13
548.531	10192.4
548.736	11023.87
548.942	10515.98
549.147	10368.52
549.353	10741.25
549.559	10905.09
549.764	10944
549.97	10376.72
550.175	10479.11
550.381	10960.39
550.586	10444.3
550.792	10726.92
550.997	10511.88
551.203	10757.64
551.408	11154.94
551.614	10391.05
551.819	10599.94
552.025	11271.68
552.23	11525.63
552.435	10847.75
552.641	11189.76
552.846	10901
553.052	11490.81
553.257	10933.76
553.462	10974.72
553.668	10841.61
553.873	11472.38
554.078	10718.73
554.283	10872.32
554.489	11480.57
554.694	11226.62
554.899	10802.69
555.105	11441.66
555.31	11546.11
555.515	11666.94
555.72	11273.73
555.925	10808.84
556.131	11724.28
556.336	11113.99
556.541	11271.68
556.746	11130.37
556.951	11787.77
557.156	11922.93
557.361	11345.41
557.567	11560.44
557.772	12191.22
557.977	11761.14
558.182	11111.94
558.387	11353.6
558.592	11668.98
558.797	12060.15
559.002	11546.11
559.207	11587.07
559.412	11740.66
559.617	12133.87
559.822	11462.14
560.027	11437.56
560.232	11718.14
560.437	12193.26
560.642	11027.97
560.847	11527.67
561.051	11732.47
561.256	11943.41
561.461	11881.97
561.666	11460.09
561.871	12111.35
562.076	12029.43
562.281	11736.57
562.485	11470.33
562.69	12135.92
562.895	12023.28
563.1	11709.94
563.305	11640.31
563.509	12150.26
563.714	12611.05
563.919	11785.72
564.123	11595.26
564.328	12015.09
564.533	12428.78
564.737	11863.54
564.942	11720.18
565.147	12434.92
565.351	12455.4
565.556	11965.94
565.761	11855.35
565.965	12318.19
566.17	11787.77
566.374	11677.18
566.579	11951.6
566.784	12334.57
566.988	12234.22
567.193	11529.72
567.397	11867.64
567.602	11918.84
567.806	12252.66
568.011	12023.28
568.215	12164.59
568.42	12348.91
568.624	12111.35
568.828	11791.86
569.033	12058.1
569.237	12516.84
569.442	12572.14
569.646	11967.99
569.85	12273.14
570.055	12344.81
570.259	12561.9
570.463	12301.81
570.668	12228.08
570.872	12430.83
571.076	12398.06
571.281	12432.88
571.485	12334.57
571.689	12611.05
571.893	12727.78
572.098	12541.42
572.302	12185.07
572.506	12531.18
572.71	12506.6
572.914	12412.4
573.119	12258.8
573.323	12895.72
573.527	12987.88
573.731	12459.5
573.935	12416.49
574.139	12951.01
574.343	12516.84
574.547	12484.08
574.751	12522.99
574.955	13096.42
575.159	13338.08
575.364	12475.88
575.568	12373.49
575.772	12852.71
575.976	12987.88
576.18	12531.18
576.383	12619.24
576.587	13219.3
576.791	12971.49
576.995	12525.04
577.199	12635.63
577.403	13073.89
577.607	13338.08
577.811	12670.44
578.015	12768.74
578.219	13278.69
578.422	13112.8
578.626	12959.2
578.83	13034.98
579.034	13338.08
579.238	13217.25
579.442	12908.01
579.645	13190.63
579.849	13092.32
580.053	13340.13
580.257	12852.71
580.46	12934.63
580.664	13501.92
580.868	13508.06
581.071	13288.93
581.275	13379.04
581.479	12975.59
581.682	13397.47
581.886	13026.79
582.09	13020.64
582.293	13659.61
582.497	13602.27
582.7	13399.52
582.904	13086.18
583.107	13417.95
583.311	13381.09
583.515	13151.71
583.718	13164
583.922	13747.67
584.125	13997.53
584.329	13383.13
584.532	13424.09
584.735	13919.7
584.939	13811.16
585.142	13301.22
585.346	13293.02
585.549	13567.45
585.753	13454.81
585.956	13538.78
586.159	13573.6
586.363	14142.93
586.566	13878.74
586.769	13397.47
586.973	13444.57
587.176	13888.98
587.379	14216.66
587.582	13905.37
587.786	13751.77
587.989	13784.54
588.192	14534.09
588.395	13782.49
588.599	13981.14
588.802	14042.58
589.005	13989.33
589.208	13874.65
589.411	13514.2
589.615	14276.05
589.818	14769.61
590.021	14298.58
590.224	13825.5
590.427	14224.85
590.63	14095.83
590.833	13721.05
591.036	13835.74
591.239	14271.95
591.442	14071.25
591.645	14423.5
591.848	14310.86
592.051	14448.08
592.254	14618.06
592.457	14067.16
592.66	14165.46
592.863	14384.59
593.066	14546.38
593.269	13936.09
593.472	14142.93
593.675	14349.78
593.878	14669.26
594.081	14097.88
594.284	14177.75
594.486	14759.37
594.689	14534.09
594.892	13964.76
595.095	14204.37
595.298	14525.9
595.5	14419.41
595.703	14517.71
595.906	14274
596.109	15181.25
596.311	15044.04
596.514	14003.67
596.717	14587.34
596.92	14978.5
597.122	14915.02
597.325	14159.31
597.528	14269.9
597.73	14831.05
597.933	14687.69
598.136	14566.86
598.338	14210.51
598.541	15238.59
598.743	15353.28
598.946	14329.3
599.148	14829
599.351	14900.68
599.554	15199.68
599.756	14730.7
599.959	14720.46
600.161	15357.38
600.363	15844.79
600.566	15037.89
600.768	14761.42
600.971	15189.44
601.173	15189.44
601.376	14869.96
601.578	14833.1
601.78	15250.88
601.983	15547.84
602.185	14771.66
602.388	14831.05
602.59	15123.91
602.792	15054.28
602.995	14998.98
603.197	14841.29
603.399	15310.27
603.601	15185.35
603.804	14597.58
604.006	14906.82
604.208	14955.97
604.41	14757.32
604.613	15130.05
604.815	14970.31
605.017	15760.83
605.219	15072.71
605.421	15207.87
605.623	14720.46
605.826	15777.21
606.028	15848.89
606.23	15054.28
606.432	14972.36
606.634	15756.73
606.836	15605.18
607.038	15142.34
607.24	15111.62
607.442	15351.23
607.644	15474.11
607.846	15115.72
608.048	15162.82
608.25	15609.28
608.452	15195.59
608.654	15220.16
608.856	14777.8
609.058	15418.82
609.26	15627.71
609.462	15089.09
609.664	15168.96
609.866	15826.36
610.067	15832.51
610.269	15484.35
610.471	15193.54
610.673	15588.8
610.875	15689.15
611.077	15144.39
611.278	15437.25
611.48	15723.96
611.682	15984.05
611.884	15427.01
612.085	15480.25
612.287	15461.82
612.489	15635.9
612.69	15027.65
612.892	15314.37
613.094	15889.85
613.295	15625.66
613.497	15322.56
613.699	15314.37
613.9	16047.54
614.102	15715.77
614.304	15566.27
614.505	14994.89
614.707	15592.89
614.908	15566.27
615.11	15205.83
615.311	15547.84
615.513	15764.92
615.714	15889.85
615.916	15123.91
616.117	15420.86
616.319	15580.6
616.52	15873.46
616.722	15267.27
616.923	15330.75
617.124	16008.63
617.326	15857.08
617.527	15807.93
617.729	15805.88
617.93	15820.22
618.131	15766.97
618.333	15406.53
618.534	15183.3
618.735	15384
618.937	16010.68
619.138	15445.44
619.339	15314.37
619.54	15746.49
619.742	15736.25
619.943	15484.35
620.144	15678.91
620.345	15895.99
620.546	15881.66
620.748	15379.9
620.949	15564.22
621.15	15879.61
621.351	15906.23
621.552	15580.6
621.753	15539.65
621.954	15377.86
622.155	16278.96
622.356	15365.57
622.558	15580.6
622.759	16012.73
622.96	16268.72
623.161	15529.41
623.362	15812.03
623.563	15779.26
623.764	15764.92
623.965	15594.94
624.166	15988.15
624.366	15617.47
624.567	16041.4
624.768	15422.91
624.969	15373.76
625.17	15654.33
625.371	15932.86
625.572	15762.87
625.773	15371.71
625.973	16086.45
626.174	16227.76
626.375	15719.87
626.576	15840.7
626.777	16147.89
626.977	16321.97
627.178	15640
627.379	15848.89
627.58	15709.63
627.78	16053.69
627.981	15683
628.182	15902.14
628.382	16266.67
628.583	15775.16
628.784	15683
628.984	15775.16
629.185	16391.6
629.386	15799.74
629.586	15947.19
629.787	15521.21
629.987	16330.16
630.188	16272.82
630.388	16055.73
630.589	15795.64
630.79	16580.01
630.99	16197.04
631.191	15812.03
631.391	16029.11
631.591	16115.12
631.792	16684.46
631.992	16371.12
632.193	15941.05
632.393	16506.29
632.594	16002.49
632.794	16035.25
632.994	16078.26
633.195	16313.78
633.395	16383.41
633.595	15848.89
633.796	16055.73
633.996	16133.56
634.196	16483.76
634.397	16053.69
634.597	15846.84
634.797	15914.42
634.997	16633.26
635.198	16348.59
635.398	16012.73
635.598	16235.95
635.798	16711.08
635.998	16369.07
636.199	16027.06
636.399	16221.62
636.599	16141.75
636.799	16027.06
636.999	16262.58
637.199	16424.37
637.399	16680.36
637.599	16070.07
637.799	16403.89
637.999	16201.14
638.199	16768.43
638.399	16029.11
638.599	16104.88
638.799	16512.43
638.999	17141.16
639.199	16450.99
639.399	16442.8
639.599	16647.6
639.799	16244.15
639.999	16250.29
640.199	16004.53
640.399	16539.05
640.599	16242.1
640.799	16461.23
640.998	16643.5
641.198	16709.04
641.398	16807.34
641.598	16500.14
641.798	16391.6
641.997	17327.52
642.197	16586.16
642.397	16600.49
642.597	16354.74
642.796	16899.5
642.996	16754.09
643.196	16487.86
643.395	16231.86
643.595	16729.52
643.795	16344.5
643.994	16498.09
644.194	16242.1
644.394	16711.08
644.593	16838.06
644.793	16360.88
644.992	16487.86
645.192	16661.93
645.392	16129.46
645.591	16784.81
645.791	16477.62
645.99	16995.75
646.19	16706.99
646.389	16825.77
646.589	16487.86
646.788	17010.09
646.987	16846.25
647.187	16774.57
647.386	16684.46
647.586	16661.93
647.785	17149.35
647.984	16623.02
648.184	16610.73
648.383	16768.43
648.582	16752.04
648.782	16844.2
648.981	16655.79
649.18	16522.67
649.38	16893.35
649.579	16610.73
649.778	16563.63
649.977	17087.91
650.177	16993.7
650.376	16745.9
650.575	16577.97
650.774	17286.56
650.973	16850.35
651.173	16506.29
651.372	16637.36
651.571	16788.91
651.77	16999.85
651.969	16866.73
652.168	16797.1
652.367	16600.49
652.566	17063.33
652.765	16788.91
652.964	17020.33
653.163	17460.64
653.362	17139.11
653.561	16485.81
653.76	16782.76
653.959	16954.79
654.158	17216.93
654.357	16922.02
654.556	16709.04
654.755	17368.48
654.954	17241.51
655.153	16688.56
655.352	16969.13
655.551	17180.07
655.749	17135.01
655.948	16831.91
656.147	17386.91
656.346	17235.36
656.545	16991.66
656.743	16719.28
656.942	17038.76
657.141	17118.63
657.34	16995.75
657.538	17038.76
657.737	17071.53
657.936	17061.29
658.135	17087.91
658.333	16907.69
658.532	17235.36
658.731	17384.87
658.929	17528.22
659.128	17227.17
659.326	16790.95
659.525	17501.6
659.724	17118.63
659.922	16565.68
660.121	17036.71
660.319	17231.27
660.518	17276.32
660.716	17059.24
660.915	17280.42
661.113	17835.42
661.312	16987.56
661.51	17266.08
661.709	16823.72
661.907	17362.34
662.105	17636.77
662.304	17286.56
662.502	17173.92
662.701	17728.92
662.899	16852.39
663.097	17364.39
663.296	16631.21
663.494	17522.08
663.692	17800.6
663.891	16938.41
664.089	17102.25
664.287	17290.66
664.485	17747.36
664.684	17284.51
664.882	17137.06
665.08	17145.25
665.278	17511.84
665.476	16741.8
665.675	17534.37
665.873	17798.56
666.071	17536.42
666.269	17057.19
666.467	17221.03
666.665	17522.08
666.863	17059.24
667.061	17270.18
667.259	17042.85
667.457	17411.49
667.655	17450.4
667.853	17087.91
668.051	17216.93
668.249	17065.38
668.447	17567.13
668.645	16756.14
668.843	17319.33
669.041	17468.83
669.239	16919.98
669.437	16952.74
669.635	17335.71
669.833	17149.35
670.031	17331.62
670.229	16946.6
670.426	17202.6
670.624	17057.19
670.822	17032.61
671.02	17122.73
671.218	16915.88
671.415	16971.18
671.613	17071.53
671.811	17087.91
672.009	17075.62
672.206	17411.49
672.404	17374.63
672.602	17356.19
672.799	17128.87
672.997	17339.81
673.195	17509.79
673.392	17094.05
673.59	17012.14
673.788	17302.95
673.985	16555.44
674.183	17120.68
674.38	16899.5
674.578	17261.99
674.775	16641.45
674.973	16930.22
675.17	16971.18
675.368	17501.6
675.565	17323.43
675.763	17128.87
675.96	16922.02
676.158	17407.39
676.355	17057.19
676.553	16858.54
676.75	16725.42
676.947	17374.63
677.145	17151.4
677.342	17030.57
677.539	17167.78
677.737	17247.65
677.934	17405.35
678.131	17061.29
678.329	17008.04
678.526	17608.09
678.723	17411.49
678.92	17120.68
679.118	16901.54
679.315	16676.27
679.512	17569.18
679.709	16782.76
679.906	17137.06
680.104	17327.52
680.301	17005.99
680.498	16625.07
680.695	16577.97
680.892	16840.11
681.089	16821.67
681.286	16940.46
681.483	16668.08
681.68	17016.23
681.877	17171.88
682.075	16571.82
682.272	16926.12
682.469	16854.44
682.665	16813.48
682.862	16719.28
683.059	16528.81
683.256	16891.3
683.453	16858.54
683.65	16971.18
683.847	16668.08
684.044	16850.35
684.241	16563.63
684.438	16709.04
684.635	16293.3
684.831	17327.52
685.028	17081.77
685.225	16575.92
685.422	16956.84
685.619	16631.21
685.815	17135.01
686.012	16539.05
686.209	16422.32
686.405	16625.07
686.602	16543.15
686.799	16475.57
686.996	16653.74
687.192	16719.28
687.389	17335.71
687.586	16340.4
687.782	16410.03
687.979	17180.07
688.175	16971.18
688.372	16577.97
688.568	16553.39
688.765	16479.66
688.962	16844.2
689.158	16598.45
689.355	16457.14
689.551	17051.05
689.748	16543.15
689.944	16440.75
690.14	16131.51
690.337	16801.19
690.533	16389.55
690.73	16315.83
690.926	16555.44
691.123	16580.01
691.319	16668.08
691.515	16178.61
691.712	16246.19
691.908	16635.31
692.104	16491.95
692.301	16414.13
692.497	15936.95
692.693	16700.84
692.889	16725.42
693.086	16362.93
693.282	16266.67
693.478	16487.86
693.674	16715.18
693.87	16414.13
694.067	16033.21
694.263	16418.22
694.459	16444.85
694.655	16522.67
694.851	16139.7
695.047	16565.68
695.243	16274.87
695.439	16330.16
695.635	16276.91
695.831	16631.21
696.027	16362.93
696.224	15910.33
696.42	16520.62
696.615	16647.6
696.811	16704.94
697.007	15805.88
697.203	16201.14
697.399	16381.36
697.595	16690.6
697.791	15820.22
697.987	15971.77
698.183	15846.84
698.379	16049.59
698.575	15982.01
698.77	15934.9
698.966	16342.45
699.162	16573.87
699.358	16053.69
699.554	16170.42
699.749	16428.46
699.945	16430.51
700.141	16221.62
700.337	15992.25
700.532	15945.14
700.728	15914.42
700.924	16094.65
701.119	15910.33
701.315	16158.13
701.511	15889.85
701.706	16211.38
701.902	15932.86
702.097	15807.93
702.293	16412.08
702.489	16045.49
702.684	15818.17
702.88	16000.44
703.075	16084.41
703.271	15703.48
703.466	15650.24
703.662	15982.01
703.857	16336.31
704.053	15744.44
704.248	15914.42
704.443	16295.35
704.639	16219.57
704.834	16055.73
705.03	15873.46
705.225	16160.18
705.42	16260.53
705.616	15971.77
705.811	15654.33
706.006	15871.42
706.202	15752.63
706.397	15783.35
706.592	15664.57
706.787	15961.53
706.983	15814.07
707.178	16078.26
707.373	15736.25
707.568	16061.88
707.763	16100.79
707.959	15820.22
708.154	15805.88
708.349	15934.9
708.544	16082.36
708.739	15703.48
708.934	15758.78
709.129	15902.14
709.324	16186.8
709.519	15844.79
709.714	15726.01
709.909	16336.31
710.104	16039.35
710.299	15760.83
710.494	15764.92
710.689	16045.49
710.884	15857.08
711.079	15773.11
711.274	15783.35
711.469	15965.62
711.664	15754.68
711.859	15484.35
712.054	16145.84
712.249	16188.85
712.443	16010.68
712.638	15513.02
712.833	15416.77
713.028	15625.66
713.223	15838.65
713.417	15857.08
713.612	15594.94
713.807	16057.78
714.002	16442.8
714.196	15801.79
714.391	15455.68
714.586	15902.14
714.78	15664.57
714.975	15513.02
715.17	15340.99
715.364	15586.75
715.559	16217.52
715.754	15101.38
715.948	15373.76
716.143	16012.73
716.337	15615.42
716.532	15777.21
716.726	15199.68
716.921	15711.67
717.115	15992.25
717.31	14845.38
717.504	15840.7
717.699	15404.48
717.893	15830.46
718.088	15293.89
718.282	15201.73
718.476	15379.9
718.671	15586.75
718.865	15072.71
719.059	15056.32
719.254	15275.46
719.448	15771.07
719.642	16545.2
719.837	14816.71
720.031	15517.12
720.225	15523.26
720.419	15312.32
720.614	14984.65
720.808	15445.44
721.002	15257.03
721.196	14962.12
721.39	14939.59
721.585	15537.6
721.779	15308.23
721.973	15052.23
722.167	14851.53
722.361	15539.65
722.555	15537.6
722.749	15033.8
722.943	14978.5
723.137	14951.88
723.331	15193.54
723.525	15015.37
723.719	14972.36
723.913	15453.63
724.107	15523.26
724.301	14888.39
724.495	14923.21
724.689	15539.65
724.883	15494.59
725.077	14749.13
725.271	15046.09
725.465	15406.53
725.659	15232.45
725.853	14894.54
726.046	14988.74
726.24	14906.82
726.434	15320.51
726.628	14853.58
726.822	14759.37
727.015	15463.87
727.209	15244.74
727.403	14876.1
727.596	14474.7
727.79	15355.33
727.984	15498.69
728.177	14933.45
728.371	14816.71
728.565	15289.79
728.758	14722.51
728.952	14759.37
729.146	14773.71
729.339	15410.62
729.533	14917.06
729.726	14722.51
729.92	14779.85
730.113	15582.65
730.307	15111.62
730.5	14714.31
730.694	14736.84
730.887	14894.54
731.081	15373.76
731.274	14955.97
731.468	14796.23
731.661	15062.47
731.854	15037.89
732.048	14673.35
732.241	14650.83
732.435	14933.45
732.628	15121.86
732.821	14970.31
733.014	14882.25
733.208	14927.3
733.401	15367.62
733.594	14575.05
733.788	14804.42
733.981	15242.69
734.174	15113.67
734.367	14853.58
734.56	14906.82
734.754	15201.73
734.947	15068.61
735.14	14712.27
735.333	14845.38
735.526	14912.97
735.719	14704.07
735.912	14718.41
736.105	14636.49
736.298	14923.21
736.491	14818.76
736.684	14648.78
736.877	14579.15
737.07	15003.08
737.263	15068.61
737.456	14659.02
737.649	14677.45
737.842	14923.21
738.035	15011.27
738.228	14607.82
738.421	14923.21
738.614	15330.75
738.807	14953.93
739	14638.54
739.192	14423.5
739.385	14861.77
739.578	14960.07
739.771	14722.51
739.964	14470.61
740.156	14937.54
740.349	14783.95
740.542	14697.93
740.735	14435.79
740.927	14456.27
741.12	14341.58
741.313	14456.27
741.505	14779.85
741.698	14847.43
741.891	14810.57
742.083	14820.81
742.276	14683.59
742.468	14867.91
742.661	14515.66
742.854	14482.89
743.046	14431.69
743.239	14947.78
743.431	14714.31
743.624	14433.74
743.816	14194.13
744.009	14546.38
744.201	14728.65
744.393	14503.37
744.586	14308.82
744.778	14910.92
744.971	14618.06
745.163	14501.33
745.355	14530
745.548	14603.72
745.74	14484.94
745.932	14196.18
746.125	14474.7
746.317	15087.04
746.509	14716.36
746.702	14411.21
746.894	14431.69
747.086	14716.36
747.278	14947.78
747.471	14429.65
747.663	14364.11
747.855	14364.11
748.047	14792.14
748.239	14327.25
748.431	14020.05
748.623	14785.99
748.815	15199.68
749.008	14192.08
749.2	14310.86
749.392	14628.3
749.584	14669.26
749.776	14450.13
749.968	14552.52
750.16	14716.36
750.352	14384.59
750.544	14267.86
750.736	14325.2
750.928	14573
751.12	14542.28
751.311	13931.99
751.503	14349.78
751.695	14613.96
751.887	14319.06
752.079	14157.27
752.271	14077.4
752.463	15238.59
752.654	14515.66
752.846	14155.22
753.038	13927.89
753.23	14259.67
753.421	14515.66
753.613	13850.07
753.805	14230.99
753.997	14443.98
754.188	14640.59
754.38	13843.93
754.572	14042.58
754.763	14343.63
754.955	14452.17
755.146	14054.87
755.338	14015.96
755.53	14327.25
755.721	14192.08
755.913	13796.82
756.104	13653.47
756.296	14179.79
756.487	14132.69
756.679	13993.43
756.87	13854.17
757.062	13948.37
757.253	13977.05
757.445	13755.86
757.636	13714.91
757.827	14130.64
758.019	14695.88
758.21	13460.96
758.401	13637.08
758.593	14368.21
758.784	14294.48
758.975	13450.72
759.167	13469.15
759.358	14077.4
759.549	13948.37
759.74	13639.13
759.932	13594.08
760.123	14001.62
760.314	13659.61
760.505	13624.79
760.696	13723.1
760.888	14476.75
761.079	13530.59
761.27	13546.97
761.461	13202.91
761.652	13997.53
761.843	13477.34
762.034	13512.16
762.225	13520.35
762.416	13700.57
762.607	13714.91
762.798	13567.45
762.989	13370.85
763.18	14476.75
763.371	13395.42
763.562	13370.85
763.753	13411.81
763.944	14011.86
764.135	13630.94
764.326	13567.45
764.517	13237.73
764.708	13710.81
764.899	13743.58
765.089	13047.27
765.28	12998.12
765.471	13528.54
765.662	13632.99
765.853	13260.26
766.043	12852.71
766.234	13522.4
766.425	13458.91
766.615	13057.51
766.806	13112.8
766.997	13764.06
767.187	13094.37
767.378	13061.6
767.569	13049.32
767.759	13383.13
767.95	13278.69
768.141	13178.34
768.331	12932.58
768.522	13014.5
768.712	13526.49
768.903	13018.6
769.093	12744.17
769.284	13622.75
769.474	13190.63
769.665	12758.5
769.855	12738.02
770.046	13198.82
770.236	12948.97
770.426	12889.57
770.617	12649.96
770.807	13221.34
770.998	13172.19
771.188	12891.62
771.378	12527.08
771.569	13151.71
771.759	13037.03
771.949	12537.32
772.139	12570.09
772.33	13067.75
772.52	13102.56
772.71	12789.22
772.9	12303.85
773.09	13090.27
773.281	13166.05
773.471	12625.39
773.661	12563.95
773.851	12942.82
774.041	12690.92
774.231	12387.82
774.421	12553.71
774.611	13143.52
774.802	12703.21
774.992	12348.91
775.182	12271.09
775.372	12588.52
775.562	12752.36
775.752	12518.89
775.942	12350.96
776.131	12836.33
776.321	13002.21
776.511	12416.49
776.701	12406.25
776.891	12668.39
777.081	12353.01
777.271	12578.28
777.461	12301.81
777.651	12744.17
777.84	12725.74
778.03	12346.86
778.22	12017.14
778.41	12588.52
778.599	12244.46
778.789	12318.19
778.979	12230.13
779.169	12609
779.358	12252.66
779.548	12455.4
779.738	11927.03
779.927	12496.36
780.117	12023.28
780.307	12017.14
780.496	11918.84
780.686	12436.97
780.875	12482.03
781.065	12011
781.254	11941.36
781.444	12203.5
781.633	12111.35
781.823	11625.98
782.012	11933.17
782.202	11953.65
782.391	12019.19
782.581	11597.31
782.77	11951.6
782.96	12178.93
783.149	11738.62
783.338	11642.36
783.528	11589.11
783.717	12254.7
783.906	12361.2
784.096	11869.69
784.285	11517.43
784.474	11773.43
784.663	11849.21
784.853	11714.04
785.042	11576.83
785.231	11800.05
785.42	11972.08
785.61	11828.73
785.799	11394.56
785.988	11773.43
786.177	11750.9
786.366	11607.55
786.555	11884.02
786.744	12037.62
786.933	11845.11
787.122	11548.15
787.312	11570.68
787.501	11656.7
787.69	11845.11
787.879	11593.21
788.068	11376.13
788.257	11331.07
788.445	11558.39
788.634	11558.39
788.823	11460.09
789.012	12269.04
789.201	11963.89
789.39	11408.89
789.579	11017.73
789.768	11488.76
789.957	11474.43
790.145	11392.51
790.334	11163.14
790.523	11472.38
790.712	11554.3
790.9	11486.72
791.089	11118.08
791.278	11904.5
791.467	11703.8
791.655	11306.49
791.844	11515.39
792.033	11257.34
792.221	11300.35
792.41	11187.71
792.599	10917.38
792.787	11609.59
792.976	11681.27
793.164	11183.62
793.353	11042.31
793.541	11582.97
793.73	11529.72
793.918	11245.06
794.107	10941.96
794.295	11167.23
794.484	11425.28
794.672	11113.99
794.861	10974.72
795.049	11326.97
795.238	11941.36
795.426	10817.03
795.614	11064.83
795.803	11324.93
795.991	11677.18
796.179	10857.99
796.368	10903.04
796.556	11611.64
796.744	10952.2
796.932	10831.37
797.121	10733.06
797.309	11011.59
797.497	11216.38
797.685	10882.56
797.874	10704.39
798.062	11030.02
798.25	11582.97
798.438	10755.59
798.626	10903.04
798.814	11134.46
799.002	11603.45
799.19	11025.92
799.378	10925.57
799.566	11304.45
799.755	11580.92
799.943	10939.91
800.131	10782.21
800.318	11318.78
800.506	11109.89
800.694	10575.37
800.882	10700.3
801.07	11441.66
801.258	10978.82
801.446	10810.89
801.634	10784.26
801.822	10991.11
802.01	11095.55
802.197	10784.26
802.385	10911.24
802.573	11171.33
802.761	11015.68
802.949	10802.69
803.136	10743.3
803.324	11367.93
803.512	11367.93
803.699	10954.24
803.887	10669.58
804.075	11595.26
804.262	11075.07
804.45	10753.54
804.638	10991.11
804.825	10958.34
805.013	10976.77
805.201	10927.62
805.388	10532.36
805.576	11062.79
805.763	11738.62
805.951	10712.58
806.138	11032.07
806.326	11531.77
806.513	11337.21
806.701	10950.15
806.888	10894.85
807.075	11353.6
807.263	11736.57
807.45	10743.3
807.638	11261.44
807.825	11703.8
808.012	11316.73
808.2	11015.68
808.387	11240.96
808.574	11300.35
808.761	11550.2
808.949	10802.69
809.136	11195.9
809.323	11290.11
809.51	11095.55
809.698	11306.49
809.885	11228.67
810.072	11220.48
810.259	11664.89
810.446	10913.28
810.633	10966.53
810.82	11607.55
811.008	11763.19
811.195	11443.71
811.382	11142.66
811.569	11179.52
811.756	10935.81
811.943	11261.44
812.13	11032.07
812.317	11163.14
812.504	11208.19
812.691	11363.84
812.878	11056.64
813.064	11701.75
813.251	11458.04
813.438	10907.14
813.625	11247.1
813.812	11333.12
813.999	11478.52
814.186	11238.91
814.372	11210.24
814.559	11359.74
814.746	11677.18
814.933	11077.12
815.12	11423.23
815.306	11097.6
815.493	11146.75
815.68	10993.15
815.866	11105.79
816.053	11494.91
816.24	11986.42
816.426	11318.78
816.613	11038.21
816.799	11376.13
816.986	11544.06
817.173	11058.69
817.359	11015.68
817.546	11269.63
817.732	10976.77
817.919	10872.32
818.105	11042.31
818.292	11107.84
818.478	11419.13
818.665	11177.47
818.851	11083.27
819.037	11834.87
819.224	11150.85
819.41	10755.59
819.597	10972.68
819.783	11640.31
819.969	11609.59
820.156	11042.31
820.342	10673.67
820.528	11886.07
820.714	11173.38
820.901	10964.48
821.087	10929.67
821.273	11568.63
821.459	11159.04
821.646	10731.01
821.832	10868.23
822.018	11159.04
822.204	11073.03
822.39	11040.26
822.576	10647.05
822.762	11292.16
822.948	11060.74
823.134	10894.85
823.32	10599.94
823.507	10702.34
823.693	11091.46
823.879	11079.17
824.065	10563.08
824.25	11171.33
824.436	10706.44
824.622	10749.45
824.808	10636.81
824.994	10917.38
825.18	10661.38
825.366	10657.29
825.552	10493.45
825.738	10888.71
825.923	11118.08
826.109	10950.15
826.295	10794.5
826.481	10475.02
826.667	10800.65
826.852	10966.53
827.038	10694.15
827.224	11097.6
827.409	11044.35
827.595	10575.37
827.781	10552.84
827.966	11204.1
828.152	11036.16
828.338	10221.07
828.523	10294.8
828.709	10589.71
828.894	10991.11
829.08	10346
829.266	10358.28
829.451	10597.9
829.637	10817.03
829.822	10380.81
830.008	10149.39
830.193	11034.11
830.378	10837.51
830.564	10407.44
830.749	10090
830.935	10692.1
831.12	10696.2
831.305	10173.97
831.491	10384.91
831.676	10206.73
831.861	10614.28
832.047	10378.76
832.232	10106.38
832.417	10683.91
832.602	10671.62
832.788	10266.13
832.973	10440.2
833.158	10423.82
833.343	10262.03
833.528	10544.65
833.714	10483.21
833.899	10442.25
834.084	10872.32
834.269	10290.7
834.454	10186.26
834.639	10460.68
834.824	10468.87
835.009	10360.33
835.194	10374.67
835.379	10638.86
835.564	10569.23
835.749	10171.92
835.934	10030.61
836.119	10339.85
836.304	10288.65
836.489	9944.59
836.674	10509.83
836.859	10032.66
837.044	10591.75
837.228	10044.95
837.413	9881.11
837.598	10483.21
837.783	10497.55
837.968	9819.67
838.152	9711.13
838.337	9487.9
838.522	10421.77
838.707	10499.59
838.891	10194.45
839.076	10145.3
839.261	10368.52
839.445	9848.34
839.63	10028.56
839.815	10675.72
839.999	10008.08
840.184	9829.91
840.368	9811.48
840.553	10348.04
840.737	10335.76
840.922	9639.45
841.106	9578.01
841.291	9803.29
841.475	10044.95
841.66	9686.55
841.844	9704.98
842.029	10911.24
842.213	9674.26
842.397	9664.02
842.582	9350.68
842.766	10247.69
842.951	10133.01
843.135	9803.29
843.319	9795.09
843.504	9946.64
843.688	10262.03
843.872	9293.34
844.056	9602.58
844.241	9770.52
844.425	9590.3
844.609	9655.83
844.793	9352.73
844.977	10069.52
845.161	9829.91
845.346	9268.77
845.53	9532.95
845.714	9813.52
845.898	9883.16
846.082	9344.54
846.266	9414.17
846.45	9760.28
846.634	9760.28
846.818	9350.68
847.002	9491.99
847.186	9604.63
847.37	9514.52
847.554	9307.68
847.738	9373.21
847.922	9569.82
848.106	9815.57
848.29	8943.14
848.473	9262.62
848.657	9643.54
848.841	9393.69
849.025	9166.37
849.209	9113.12
849.392	9358.88
849.576	9295.39
849.76	8816.16
849.944	9238.05
850.127	9932.31
850.311	9176.61
850.495	9006.63
850.678	9004.58
850.862	9754.13
851.046	9725.46
851.229	9238.05
851.413	8840.74
851.596	9350.68
851.78	9356.83
851.964	9240.09
852.147	9035.3
852.331	10085.9
852.514	9618.97
852.698	9033.25
852.881	8709.67
853.065	9281.05
853.248	9131.55
853.431	8980
853.615	8904.23
853.798	9686.55
853.982	9487.9
854.165	8926.75
854.348	8871.46
854.532	8879.65
854.715	9061.92
854.898	9123.36
855.081	8744.49
855.265	9389.6
855.448	9258.53
855.631	8805.92
855.814	8773.16
855.997	9311.77
856.181	8744.49
856.364	8795.68
856.547	8635.94
856.73	8992.29
856.913	9027.1
857.096	8642.09
857.279	8609.32
857.462	8629.8
857.645	9231.9
857.828	8646.18
858.011	8939.04
858.194	8709.67
858.377	9178.65
858.56	8617.51
858.743	8740.39
858.926	8562.22
859.109	9145.89
859.292	8511.02
859.475	8449.58
859.658	8877.6
859.841	8828.45
860.023	8472.11
860.206	8293.93
860.389	8846.88
860.572	9070.11
860.755	8605.22
860.937	8635.94
861.12	8513.06
861.303	8668.71
861.486	8621.61
861.668	8341.04
861.851	8693.29
862.034	8750.63
862.216	8332.84
862.399	8244.78
862.581	8523.3
862.764	8795.68
862.947	8492.59
863.129	8173.1
863.312	8316.46
863.494	8846.88
863.677	8443.43
863.859	7915.06
864.042	8566.31
864.224	8715.81
864.406	8205.87
864.589	7886.39
864.771	8543.78
864.954	8338.99
865.136	8209.97
865.318	8035.89
865.501	8506.92
865.683	7984.69
865.865	8013.36
866.048	8044.08
866.23	8402.47
866.412	8126
866.594	7861.81
866.777	8126
866.959	8459.82
867.141	8085.04
867.323	8134.19
867.505	8201.77
867.687	8078.9
867.869	8197.68
868.052	7990.83
868.234	7753.27
868.416	8269.36
868.598	8388.14
868.78	7906.87
868.962	7937.59
869.144	8556.07
869.326	8404.52
869.508	7929.39
869.69	7781.94
869.872	8236.59
870.054	8377.9
870.236	7747.12
870.417	7902.77
870.599	8027.7
870.781	8556.07
870.963	7986.74
871.145	7849.52
871.327	7788.08
871.508	8285.74
871.69	7706.17
871.872	7704.12
872.054	8150.57
872.235	8220.21
872.417	7863.86
872.599	7632.44
872.78	8584.74
872.962	8111.66
873.144	7738.93
873.325	7902.77
873.507	8238.64
873.689	7931.44
873.87	7597.62
874.052	8048.18
874.233	7882.29
874.415	8244.78
874.596	7908.91
874.778	7730.74
874.959	7874.1
875.141	8091.18
875.322	7822.9
875.503	7626.29
875.685	8119.85
875.866	7743.03
876.048	7636.53
876.229	7558.71
876.41	7921.2
876.592	8197.68
876.773	7865.91
876.954	7552.57
877.136	8527.4
877.317	7704.12
877.498	7587.38
877.679	7847.47
877.86	8148.53
878.042	7999.02
878.223	7755.32
878.404	8070.7
878.585	8169.01
878.766	8496.68
878.947	8013.36
879.128	7910.96
879.309	8273.45
879.49	8295.98
879.672	7894.58
879.853	7843.38
880.034	7894.58
880.215	7845.43
880.396	7808.56
880.576	7716.4
880.757	8029.74
880.938	8437.29
881.119	7747.12
881.3	7863.86
881.481	8283.69
881.662	9111.07
881.843	7831.09
882.023	7888.43
882.204	8115.76
882.385	8394.28
882.566	8027.7
882.747	7755.32
882.927	8068.66
883.108	8367.66
883.289	8119.85
883.469	8226.35
883.65	8384.04
883.831	8459.82
884.011	8158.77
884.192	8113.71
884.373	8549.93
884.553	8406.57
884.734	8242.73
884.914	8357.42
885.095	9127.46
885.275	8889.89
885.456	8478.25
885.636	8074.8
885.817	8355.37
885.997	8359.47
886.178	8031.79
886.358	8320.56
886.538	8525.35
886.719	9250.33
886.899	8078.9
887.08	8263.21
887.26	8883.75
887.44	8265.26
887.621	8138.29
887.801	8420.91
887.981	8969.76
888.161	8715.81
888.342	8271.4
888.522	8291.88
888.702	8742.44
888.882	8758.82
889.062	8328.75
889.242	8074.8
889.423	8746.53
889.603	8500.78
889.783	8398.38
889.963	8310.32
890.143	8812.07
890.323	8896.03
890.503	8201.77
890.683	8318.51
890.863	8594.98
891.043	8537.64
891.223	8470.06
891.403	8453.67
891.583	8511.02
891.763	8443.43
891.943	8330.8
892.122	8087.09
892.302	8508.97
892.482	8531.5
892.662	8230.45
892.842	8244.78
893.022	8439.34
893.201	8363.56
893.381	8545.83
893.561	8255.02
893.741	8771.11
893.92	8541.74
894.1	8349.23
894.28	8486.44
894.459	8758.82
894.639	8525.35
894.819	8261.16
894.998	8402.47
895.178	8754.73
895.357	8568.36
895.537	8306.22
895.716	8064.56
895.896	8592.94
896.075	8883.75
896.255	8076.85
896.434	7931.44
896.614	8627.75
896.793	8805.92
896.973	8338.99
897.152	8154.67
897.331	8468.01
897.511	8513.06
897.69	7886.39
897.87	8121.9
898.049	8422.95
898.228	8353.32
898.407	8209.97
898.587	8033.84
898.766	8123.95
898.945	8445.48
899.124	8140.33
899.304	7960.11
899.483	8279.6
899.662	8650.28
899.841	7786.04
900.02	7781.94
900.199	8537.64
900.378	8085.04
900.557	7632.44
900.737	7685.69
900.916	8087.09
901.095	8191.53
901.274	7921.2
901.453	7738.93
901.632	7898.67
901.811	7829.04
901.989	7738.93
902.168	7743.03
902.347	8304.17
902.526	7970.35
902.705	7767.6
902.884	7751.22
903.063	8195.63
903.242	8121.9
903.42	7423.55
903.599	7697.97
903.778	7929.39
903.957	8123.95
904.135	7536.18
904.314	7263.8
904.493	7581.24
904.672	7636.53
904.85	7349.82
905.029	7171.65
905.207	7626.29
905.386	8328.75
905.565	7140.93
905.743	6977.09
905.922	7239.23
906.1	7607.86
906.279	7036.48
906.457	6843.97
906.636	7112.25
906.814	7202.36
906.993	6936.13
907.171	6848.07
907.35	7278.14
907.528	7360.06
907.707	7116.35
907.885	6823.49
908.063	7454.26
908.242	6882.88
908.42	6852.16
908.598	6452.81
908.777	7108.16
908.955	6805.06
909.133	6868.55
909.311	6661.7
909.49	6999.62
909.668	7091.77
909.846	6823.49
910.024	6532.68
910.202	7036.48
910.38	7157.31
910.559	6663.75
910.737	6710.85
910.915	6989.38
911.093	7089.73
911.271	6829.63
911.449	7042.62
911.627	7298.62
911.805	7603.77
911.983	7128.64
912.161	6962.75
912.339	7278.14
912.517	7646.77
912.695	7169.6
912.872	7124.54
913.05	7009.86
913.228	7364.15
913.406	6921.79
913.584	7075.39
913.762	7509.56
913.939	7370.3
914.117	6899.27
914.295	6964.8
914.473	7370.3
914.65	7368.25
914.828	7048.77
915.006	6938.18
915.184	7067.2
915.361	7417.4
915.539	7087.68
915.716	7220.8
915.894	7298.62
916.072	7276.09
916.249	7026.24
916.427	7263.8
916.604	6942.27
916.782	7308.86
916.959	6757.96
917.137	6897.22
917.314	6995.52
917.492	7398.97
917.669	6862.4
917.847	6755.91
918.024	7102.01
918.201	6944.32
918.379	6927.94
918.556	6792.77
918.733	7138.88
918.911	7038.53
919.088	7009.86
919.265	6620.74
919.442	7075.39
919.62	7099.97
919.797	6647.37
919.974	6567.49
920.151	7040.58
920.328	7069.25
920.506	6637.13
920.683	6913.6
920.86	6766.15
921.037	6817.35
921.214	6743.62
921.391	6653.51
921.568	7136.83
921.745	6796.87
921.922	6780.48
922.099	6563.4
922.276	7061.05
922.453	6989.38
922.63	6491.72
922.807	6862.4
922.984	6905.41
923.161	6592.07
923.338	6645.32
923.514	6475.34
923.691	6702.66
923.868	6813.25
924.045	6561.35
924.222	6354.51
924.399	6846.02
924.575	6899.27
924.752	6473.29
924.929	6381.13
925.105	6745.67
925.282	6391.37
925.459	6499.91
925.635	6444.62
925.812	6594.12
925.989	6483.53
926.165	6227.53
926.342	6235.72
926.518	6315.59
926.695	6544.97
926.871	6028.88
927.048	6088.27
927.224	6641.22
927.401	6202.96
927.577	6321.74
927.754	5895.76
927.93	6635.08
928.107	6547.01
928.283	6055.5
928.459	6286.92
928.636	6385.23
928.812	6358.6
928.988	5946.96
929.165	5848.66
929.341	6323.79
929.517	6243.92
929.693	6272.59
929.87	5580.37
930.046	6157.9
930.222	5932.62
930.398	5721.68
930.574	5885.52
930.751	6047.31
930.927	5963.34
931.103	5928.53
931.279	5858.9
931.455	5613.14
931.631	5889.62
931.807	5525.08
931.983	5541.46
932.159	5473.88
932.335	5766.74
932.511	5684.82
932.687	5647.96
932.863	5750.35
933.039	5764.69
933.215	5156.44
933.391	5273.18
933.566	5471.83
933.742	5617.24
933.918	5240.41
934.094	5158.49
934.27	5512.79
934.445	5426.78
934.621	5242.46
934.797	4900.45
934.973	5400.15
935.148	5285.47
935.324	4822.63
935.5	4689.51
935.675	5459.54
935.851	4988.51
936.027	4843.1
936.202	4802.15
936.378	5017.18
936.553	4845.15
936.729	5047.9
936.904	4398.7
937.08	4429.42
937.255	4437.61
937.431	4179.56
937.606	3997.29
937.782	4257.39
937.957	4398.7
938.133	4003.44
938.308	3878.51
938.483	4185.71
938.659	3862.13
938.834	3694.19
939.009	3743.35
939.185	3847.79
939.36	3671.67
939.535	3284.6
939.71	3700.34
939.886	3942
940.061	3839.6
940.236	3565.17
940.411	3616.37
940.586	3884.66
940.761	3817.07
940.937	3331.7
941.112	3237.5
941.287	3497.59
941.462	3614.32
941.637	3155.58
941.812	3305.08
941.987	3499.64
942.162	3434.1
942.337	3223.16
942.512	3102.33
942.687	3554.93
942.862	3532.4
943.037	2881.15
943.212	2754.18
943.386	3155.58
943.561	3339.9
943.736	3071.61
943.911	3419.77
944.086	3579.51
944.26	3384.95
944.435	3155.58
944.61	3085.95
944.785	3649.14
944.959	3761.78
945.134	3133.05
945.309	3030.65
945.483	3077.76
945.658	3317.37
945.833	2780.8
946.007	2930.3
946.182	3575.41
946.357	2915.97
946.531	3108.48
946.706	3004.03
946.88	2870.91
947.055	3128.95
947.229	3022.46
947.404	2895.49
947.578	3569.27
947.752	3186.3
947.927	2870.91
948.101	2946.69
948.276	3241.59
948.45	3343.99
948.624	3348.09
948.799	2928.25
948.973	3329.66
949.147	3176.06
949.321	3253.88
949.496	2969.21
949.67	3634.8
949.844	3198.59
950.018	3245.69
950.193	3180.15
950.367	3878.51
950.541	3268.22
950.715	3309.18
950.889	3305.08
951.063	3282.55
951.237	3636.85
951.411	3001.98
951.585	3028.6
951.759	3501.69
951.933	3270.26
952.107	3251.83
952.281	3452.53
952.455	3806.83
952.629	3696.24
952.803	3235.45
952.977	3387
953.151	3858.03
953.325	3677.81
953.499	3423.86
953.672	3176.06
953.846	3276.41
954.02	3483.25
954.194	3298.94
954.368	3331.7
954.541	3720.82
954.715	3399.29
954.889	3417.72
955.062	3323.51
955.236	3579.51
955.41	3405.43
955.583	3645.04
955.757	3151.48
955.93	3495.54
956.104	3399.29
956.278	3599.99
956.451	3493.49
956.625	3622.52
956.798	4025.97
956.972	3665.52
957.145	3305.08
957.319	3655.28
957.492	3548.79
957.665	3694.19
957.839	3421.81
958.012	3757.68
958.185	3536.5
958.359	3343.99
958.532	3597.94
958.705	3946.09
958.879	3696.24
959.052	3444.34
959.225	3235.45
959.398	3720.82
959.572	3610.23
959.745	3343.99
959.918	3393.14
960.091	3606.13
960.264	3905.14
960.438	3292.79
960.611	3315.32
960.784	3939.95
960.957	3569.27
961.13	3903.09
961.303	3348.09
961.476	3618.42
961.649	3987.05
961.822	3245.69
961.995	3550.84
962.168	3939.95
962.341	3640.95
962.514	3395.19
962.686	3387
962.859	3720.82
963.032	3802.74
963.205	3358.33
963.378	3122.81
963.551	3673.71
963.723	3708.53
963.896	3532.4
964.069	3507.83
964.242	3581.56
964.414	3780.21
964.587	3395.19
964.76	3436.15
964.932	3784.3
965.105	3567.22
965.278	3575.41
965.45	3272.31
965.623	3675.76
965.795	3847.79
965.968	3520.12
966.14	3427.96
966.313	3528.31
966.485	3569.27
966.658	3348.09
966.83	3300.98
967.003	3960.43
967.175	3810.93
967.348	3372.66
967.52	3397.24
967.692	3968.62
967.865	3696.24
968.037	3393.14
968.209	3591.8
968.382	3667.57
968.554	3872.37
968.726	3401.33
968.898	3298.94
969.071	3516.02
969.243	3575.41
969.415	3321.46
969.587	3317.37
969.759	3925.61
969.932	3679.86
970.104	3274.36
970.276	2967.17
970.448	3321.46
970.62	3389.05
970.792	3448.44
970.964	3262.07
971.136	3966.57
971.308	3579.51
971.48	3440.25
971.652	3298.94
971.824	3749.49
971.996	3354.23
972.168	3341.94
972.339	3339.9
972.511	3696.24
972.683	3454.58
972.855	3434.1
973.027	3135.1
973.199	3380.86
973.37	3538.55
973.542	3317.37
973.714	3276.41
973.886	3374.71
974.057	3636.85
974.229	2989.69
974.401	3190.39
974.572	3186.3
974.744	2930.3
974.915	2958.97
975.087	2967.17
975.259	3679.86
975.43	3184.25
975.602	3165.82
975.773	2940.54
975.945	3096.19
976.116	3442.29
976.288	2993.79
976.459	3255.93
976.63	3153.53
976.802	3376.76
976.973	3214.97
977.145	3237.5
977.316	3708.53
977.487	3262.07
977.659	3143.29
977.83	2922.11
978.001	3573.36
978.172	3303.03
978.344	3088
978.515	2995.84
978.686	3110.52
978.857	3495.54
979.028	2903.68
979.2	2883.2
979.371	3235.45
979.542	3153.53
979.713	2981.5
979.884	2401.93
980.055	3063.42
980.226	3155.58
980.397	2950.78
980.568	2872.96
980.739	3411.57
980.91	2956.93
981.081	3069.56
981.252	2737.79
981.423	3096.19
981.594	3331.7
981.765	2692.74
981.936	2825.86
982.106	3006.08
982.277	3393.14
982.448	2852.48
982.619	2958.97
982.79	2803.33
982.96	3343.99
983.131	2860.67
983.302	2487.94
983.472	2950.78
983.643	2932.35
983.814	2834.05
983.984	2686.59
984.155	2856.58
984.326	3290.74
984.496	2848.38
984.667	2741.89
984.837	2799.23
985.008	3145.34
985.178	2905.73
985.349	2729.6
985.519	2817.66
985.69	2623.11
985.86	2844.29
986.031	2569.86
986.201	2948.73
986.371	2969.21
986.542	2444.93
986.712	2383.49
986.882	3090.04
987.053	2819.71
987.223	2444.93
987.393	2649.73
987.563	2725.51
987.734	2971.26
987.904	2807.42
988.074	2633.35
988.244	2756.22
988.414	2588.29
988.585	2311.82
988.755	2553.48
988.925	2662.02
989.095	3024.51
989.265	2360.97
989.435	2414.21
989.605	2766.46
989.775	2786.94
989.945	2670.21
990.115	2188.94
990.285	2569.86
990.455	2612.87
990.625	2483.84
990.795	2258.57
990.965	2901.63
991.134	2367.11
991.304	2178.7
991.474	2313.86
991.644	2721.41
991.814	2897.53
991.984	2229.9
992.153	2225.8
992.323	2459.27
992.493	2528.9
992.662	2160.27
992.832	2434.69
993.002	2487.94
993.171	2496.13
993.341	2055.82
993.511	2375.3
993.68	2356.87
993.85	2492.04
994.019	2115.21
994.189	2164.36
994.358	2395.78
994.528	2350.73
994.697	1861.26
994.867	2088.59
995.036	2438.79
995.206	2209.42
995.375	1978
995.544	2193.03
995.714	2483.84
995.883	2272.9
996.052	2115.21
996.222	1922.7
996.391	2872.96
996.56	2248.33
996.73	1986.19
996.899	1873.55
997.068	2541.19
997.237	2131.59
997.406	1801.87
997.576	1830.54
997.745	2270.86
997.914	2356.87
998.083	1777.3
998.252	1863.31
998.421	2254.47
998.59	1982.09
998.759	1777.3
998.928	1709.71
999.097	2373.25
999.266	2320.01
999.435	2143.88
999.604	1742.48
999.773	2533
999.942	2068.11
1000.111	1676.95
1000.28	1562.26
1000.448	1838.73
1000.617	1758.86
1000.786	2016.91
1000.955	1619.6
1001.124	2102.92
1001.292	2600.58
1001.461	1678.99
1001.63	1691.28
1001.798	2309.77
1001.967	2283.14
1002.136	1611.41
1002.304	1658.51
1002.473	2057.87
1002.642	1996.43
1002.81	1638.03
1002.979	1668.75
1003.147	2131.59
1003.316	2561.67
1003.484	1566.35
1003.653	1427.09
1003.821	2193.03
1003.99	1969.8
1004.158	1742.48
1004.327	1652.37
1004.495	2049.68
1004.663	1722
1004.832	1910.41
1005	1410.71
1005.168	2070.16
1005.337	1871.5
1005.505	1486.48
1005.673	1689.23
1005.842	1857.17
1006.01	1959.56
1006.178	1410.71
1006.346	1609.36
1006.514	1994.38
1006.683	1978
1006.851	1443.48
1007.019	1468.05
1007.187	1482.39
1007.355	1332.89
1007.523	1201.82
1007.691	1308.31
1007.859	1361.56
1008.027	2004.62
1008.195	1359.51
1008.363	1259.16
1008.531	1951.37
1008.699	1562.26
1008.867	1087.13
1009.035	1277.59
1009.203	2021
1009.37	1574.55
1009.538	1377.94
1009.706	1627.79
1009.874	1752.72
1010.042	1541.78
1010.209	1173.14
1010.377	1216.15
1010.545	1859.21
1010.713	1668.75
1010.88	1281.69
1011.048	1363.61
1011.216	1566.35
1011.383	1963.66
1011.551	1255.06
1011.718	1117.85
1011.886	1881.74
1012.054	1504.92
1012.221	1169.05
1012.389	1257.11
1012.556	1627.79
1012.724	1889.93
1012.891	1156.76
1013.058	1103.51
1013.226	1662.61
1013.393	1701.52
1013.561	964.25
1013.728	911
1013.895	1844.88
1014.063	1562.26
1014.23	904.86
1014.397	1048.22
1014.565	1574.55
1014.732	1320.6
1014.899	988.83
1015.066	990.88
1015.233	1341.08
1015.401	1515.16
1015.568	1105.56
1015.735	1146.52
1015.902	1349.27
1016.069	1517.2
1016.236	1101.47
1016.403	863.9
1016.57	1066.65
1016.737	1506.96
1016.904	951.96
1017.071	810.65
1017.238	1210.01
1017.405	1588.88
1017.572	986.78
1017.739	1142.43
1017.906	1410.71
1018.073	1513.11
1018.24	796.32
1018.407	978.59
1018.573	1504.92
1018.74	1152.67
1018.907	1083.03
1019.074	714.4
1019.241	1425.04
1019.407	1285.78
1019.574	827.04
1019.741	800.41
1019.907	1334.93
1020.074	1300.12
1020.241	595.62
1020.407	745.12
1020.574	1318.55
1020.74	1304.21
1020.907	769.69
1021.073	816.8
1021.24	1633.94
1021.406	1463.96
1021.573	800.41
1021.739	798.37
1021.906	1347.22
1022.072	1017.5
1022.239	827.04
1022.405	765.6
1022.571	1113.75
1022.738	937.63
1022.904	808.61
1023.07	583.33
1023.237	1228.44
1023.403	1392.28
1023.569	718.5
1023.735	767.65
1023.902	1169.05
1024.068	1193.62
1024.234	632.48
1024.4	745.12
1024.566	1177.24
1024.732	1236.63
1024.898	726.69
1025.065	634.53
1025.231	1246.87
1025.397	939.68
1025.563	738.98
1025.729	575.14
1025.895	657.06
1026.061	841.37
1026.227	554.66
1026.392	718.5
1026.558	1257.11
1026.724	1218.2
1026.89	581.28
1027.056	743.07
1027.222	1074.84
1027.388	911
1027.553	595.62
1027.719	689.82
1027.885	1207.96
1028.051	1021.6
1028.216	439.97
1028.382	618.15
1028.548	1189.53
1028.713	784.03
1028.879	530.08
1029.045	743.07
1029.21	1197.72
1029.376	1253.02
1029.541	554.66
1029.707	665.25
1029.873	1085.08
1030.038	1068.7
1030.204	480.93
1030.369	603.81
1030.534	1185.43
1030.7	822.94
1030.865	595.62
1031.031	439.97
1031.196	1005.21
1031.361	939.68
1031.527	511.65
1031.692	415.4
1031.857	489.12
1032.023	1001.12
1032.188	464.55
1032.353	609.95
1032.518	1304.21
1032.684	968.35
1032.849	300.71
1033.014	562.85
1033.179	1021.6
1033.344	947.87
1033.509	607.91
1033.674	487.08
1033.839	1101.47
1034.004	947.87
1034.17	505.51
1034.335	409.25
1034.5	679.58
1034.664	652.96
1034.829	356.01
1034.994	499.36
1035.159	896.67
1035.324	935.58
1035.489	431.78
1035.654	364.2
1035.819	1148.57
1035.984	880.29
1036.148	507.55
1036.313	446.12
1036.478	1021.6
1036.643	845.47
1036.807	528.03
1036.972	321.19
1037.137	1136.28
1037.301	769.69
1037.466	288.42
1037.631	495.27
1037.795	1171.1
1037.96	802.46
1038.124	571.04
1038.289	255.65
1038.454	949.92
1038.618	890.53
1038.783	472.74
1038.947	435.88
1039.111	706.21
1039.276	652.96
1039.44	419.49
1039.605	820.89
1039.769	650.91
1039.933	669.34
1040.098	411.3
1040.262	579.23
1040.426	896.67
1040.591	849.57
1040.755	333.48
1040.919	472.74
1041.083	792.22
1041.248	714.4
1041.412	233.13
1041.576	313
1041.74	693.92
1041.904	839.33
1042.068	259.75
1042.232	421.54
1042.397	886.43
1042.561	849.57
1042.725	173.74
1042.889	407.2
1043.053	784.03
1043.217	784.03
1043.381	425.64
1043.544	181.93
1043.708	964.25
1043.872	444.07
1044.036	-16.73
1044.2	153.26
1044.364	824.99
1044.528	1007.26
1044.691	5041.76
1044.855	104.11
1045.019	986.78
1045.183	835.23
1045.346	284.33
1045.51	233.13
1045.674	665.25
1045.837	769.69
1046.001	308.9
1046.165	267.94
1046.328	1240.73
1046.492	726.69
1046.655	417.44
1046.819	315.05
1046.983	515.75
1047.146	675.49
1047.31	327.33
1047.473	26.28
1047.636	681.63
1047.8	431.78
1047.963	310.95
1048.127	202.41
1048.29	480.93
