Data from Hydrogel_Ink_Intensity_Test_1_USB4F045381__6__00006.txt Node

Date: Mon Jul 31 10:36:29 EDT 2023
User: mmckonesweet
Spectrometer: USB4F04538
Trigger mode: 4
Integration Time (sec): 9.000000E-1
Scans to average: 1
Electric dark correction enabled: true
Nonlinearity correction enabled: false
Boxcar width: 0
XAxis mode: Wavelengths
Number of Pixels in Spectrum: 3648
>>>>>Begin Spectral Data<<<<<
345.52	-999.24
345.736	-999.24
345.952	-999.24
346.168	-872.26
346.384	-907.08
346.6	-178
346.816	-257.87
347.032	-204.63
347.248	264.36
347.464	-184.15
347.68	-87.89
347.896	151.72
348.112	395.43
348.328	-22.36
348.544	-149.33
348.76	-34.64
348.975	307.37
349.191	-196.43
349.407	-106.32
349.623	-38.74
349.839	10.41
350.055	-5.97
350.27	145.58
350.486	268.45
350.702	495.78
350.918	342.18
351.133	-114.52
351.349	254.12
351.565	317.61
351.781	-132.95
351.996	151.72
352.212	409.76
352.428	10.41
352.644	-75.6
352.859	-186.19
353.075	368.81
353.291	61.61
353.506	-12.12
353.722	-44.88
353.938	8.36
354.153	536.74
354.369	182.44
354.584	-108.37
354.8	280.74
355.016	-229.2
355.231	-100.18
355.447	41.13
355.662	204.97
355.878	983.2
356.093	-190.29
356.309	49.32
356.524	-102.23
356.74	219.3
356.955	-3.93
357.171	34.99
357.386	182.44
357.602	-155.47
357.817	16.55
358.033	-65.36
358.248	409.76
358.464	270.5
358.679	2.22
358.895	-163.67
359.11	118.95
359.325	397.48
359.541	381.09
359.756	55.47
359.972	-204.63
360.187	147.62
360.402	-63.32
360.618	-20.31
360.833	991.39
361.048	319.65
361.264	-32.6
361.479	39.08
361.694	71.85
361.909	356.52
362.125	-81.75
362.34	106.67
362.555	358.57
362.77	213.16
362.986	-135
363.201	22.7
363.416	290.98
363.631	190.63
363.847	-18.26
364.062	-42.84
364.277	247.97
364.492	235.69
364.707	-8.02
364.922	-132.95
365.138	348.33
365.353	440.48
365.568	-79.7
365.783	100.52
365.998	188.58
366.213	673.95
366.428	-40.79
366.643	100.52
366.858	389.28
367.073	295.08
367.288	16.55
367.503	-110.42
367.718	178.34
367.933	422.05
368.148	-124.76
368.363	77.99
368.578	90.28
368.793	532.64
369.008	86.19
369.223	-32.6
369.438	313.51
369.653	530.59
369.868	-94.04
370.083	-44.88
370.298	272.55
370.513	436.39
370.728	147.62
370.943	2.22
371.157	-67.41
371.372	622.75
371.587	-85.84
371.802	-79.7
372.017	198.82
372.232	479.4
372.446	129.19
372.661	0.17
372.876	360.61
373.091	256.17
373.306	65.71
373.52	0.17
373.735	-30.55
373.95	532.64
374.165	170.15
374.379	94.38
374.594	67.75
374.809	219.3
375.023	319.65
375.238	-44.88
375.453	411.81
375.667	-20.31
375.882	137.38
376.097	41.13
376.311	159.91
376.526	96.43
376.741	-14.17
376.955	303.27
377.17	749.73
377.384	594.08
377.599	168.1
377.813	-100.18
378.028	624.8
378.242	399.52
378.457	155.82
378.672	-147.28
378.886	301.22
379.101	133.29
379.315	-128.85
379.53	104.62
379.744	319.65
379.958	331.94
380.173	22.7
380.387	55.47
380.602	362.66
380.816	121
381.031	121
381.245	69.8
381.459	401.57
381.674	2689.15
381.888	67.75
382.103	331.94
382.317	55.47
382.531	716.96
382.746	180.39
382.96	57.51
383.174	127.14
383.388	653.47
383.603	317.61
383.817	37.03
384.031	405.67
384.246	823.45
384.46	407.72
384.674	487.59
384.888	319.65
385.103	370.85
385.317	14.51
385.531	227.5
385.745	635.04
385.959	692.38
386.174	159.91
386.388	94.38
386.602	258.21
386.816	229.54
387.03	194.73
387.244	250.02
387.458	436.39
387.672	653.47
387.887	127.14
388.101	98.47
388.315	667.81
388.529	458.92
388.743	176.3
388.957	182.44
389.171	643.23
389.385	178.34
389.599	180.39
389.813	471.2
390.027	448.68
390.241	917.66
390.455	237.74
390.669	307.37
390.883	288.93
391.097	841.89
391.311	536.74
391.525	188.58
391.738	618.66
391.952	551.07
392.166	407.72
392.38	194.73
392.594	745.63
392.808	665.76
393.022	272.55
393.236	366.76
393.449	565.41
393.663	581.79
393.877	229.54
394.091	356.52
394.305	274.6
394.518	350.37
394.732	127.14
394.946	278.69
395.16	753.82
395.373	458.92
395.587	245.93
395.801	319.65
396.015	719.01
396.228	630.95
396.442	192.68
396.656	200.87
396.869	729.25
397.083	897.18
397.297	446.63
397.51	307.37
397.724	809.12
397.938	614.56
398.151	204.97
398.365	237.74
398.578	667.81
398.792	772.25
399.005	637.09
399.219	460.96
399.433	618.66
399.646	630.95
399.86	612.51
400.073	602.27
400.287	721.06
400.5	360.61
400.714	565.41
400.927	553.12
401.141	680.1
401.354	1458.32
401.567	823.45
401.781	256.17
401.994	872.61
402.208	1134.75
402.421	546.98
402.635	514.21
402.848	632.99
403.061	954.52
403.275	598.18
403.488	436.39
403.701	1036.44
403.915	710.82
404.128	575.65
404.341	555.17
404.555	759.97
404.768	684.19
404.981	698.53
405.195	555.17
405.408	1210.52
405.621	835.74
405.834	702.62
406.048	438.44
406.261	1071.26
406.474	1149.08
406.687	536.74
406.9	721.06
407.114	745.63
407.327	870.56
407.54	467.11
407.753	383.14
407.966	632.99
408.179	964.76
408.392	563.36
408.605	503.97
408.819	995.48
409.032	886.94
409.245	538.79
409.458	805.02
409.671	958.62
409.884	1185.94
410.097	503.97
410.31	776.35
410.523	975
410.736	792.73
410.949	667.81
411.162	725.15
411.375	1161.37
411.588	1142.94
411.801	870.56
412.014	583.84
412.227	759.97
412.44	809.12
412.653	719.01
412.865	850.08
413.078	1142.94
413.291	975
413.504	874.65
413.717	682.14
413.93	1155.23
414.143	827.55
414.356	819.36
414.568	589.99
414.781	1099.93
414.994	1069.21
415.207	862.37
415.42	764.06
415.632	1269.91
415.845	1448.08
416.058	616.61
416.271	716.96
416.483	952.48
416.696	1396.89
416.909	831.65
417.121	811.17
417.334	1218.71
417.547	1542.29
417.759	776.35
417.972	768.16
418.185	860.32
418.397	1296.53
418.61	854.17
418.823	843.93
419.035	1339.54
419.248	1069.21
419.46	958.62
419.673	897.18
419.885	1220.76
420.098	1005.72
420.311	950.43
420.523	719.01
420.736	1263.77
420.948	1138.84
421.161	845.98
421.373	919.71
421.586	1198.23
421.798	1052.83
422.01	864.41
422.223	1153.18
422.435	1048.73
422.648	1253.53
422.86	1040.54
423.073	1056.92
423.285	1419.41
423.497	991.39
423.71	1030.3
423.922	1067.16
424.134	1433.75
424.347	1613.97
424.559	1325.21
424.771	1405.08
424.984	1163.42
425.196	1427.6
425.408	1061.02
425.621	1142.94
425.833	1663.12
426.045	1640.59
426.257	1044.63
426.47	1196.18
426.682	1499.28
426.894	1497.24
427.106	1261.72
427.318	1288.34
427.531	1206.42
427.743	1599.63
427.955	1323.16
428.167	1648.79
428.379	1605.78
428.591	1208.47
428.804	1435.8
429.016	1198.23
429.228	1462.42
429.44	1597.59
429.652	1454.23
429.864	1241.24
430.076	1466.52
430.288	1394.84
430.5	1374.36
430.712	1476.76
430.924	1806.48
431.136	1654.93
431.348	1198.23
431.56	1532.05
431.772	1570.96
431.984	1446.04
432.196	1497.24
432.408	1542.29
432.62	1556.63
432.832	1620.11
433.044	1714.32
433.256	1624.21
433.468	1874.06
433.679	1487
433.891	1450.13
434.103	1763.47
434.315	2093.19
434.527	1900.69
434.739	1728.66
434.95	1685.65
435.162	2056.33
435.374	1769.62
435.586	1644.69
435.798	1632.4
436.009	1579.15
436.221	1810.58
436.433	1632.4
436.645	1628.31
436.856	1722.51
437.068	2130.06
437.28	1720.46
437.491	2017.42
437.703	2105.48
437.915	2078.86
438.126	1867.92
438.338	2093.19
438.55	2072.72
438.761	2269.32
438.973	1892.49
439.184	1933.45
439.396	2050.19
439.608	2297.99
439.819	1839.25
440.031	2089.1
440.242	2250.89
440.454	2314.38
440.665	2035.85
440.877	2021.52
441.088	2297.99
441.3	2011.28
441.511	1917.07
441.723	1949.84
441.934	2029.71
442.146	2171.02
442.357	2132.11
442.569	2357.38
442.78	2191.5
442.991	2529.41
443.203	2318.47
443.414	2011.28
443.626	2535.56
443.837	2125.96
444.048	2117.77
444.26	1896.59
444.471	2392.2
444.682	2588.8
444.894	1929.36
445.105	1968.27
445.316	2545.8
445.528	2392.2
445.739	2375.81
445.95	2242.7
446.161	2412.68
446.373	2838.66
446.584	2273.42
446.795	2386.05
447.006	2605.19
447.217	2834.56
447.429	2082.95
447.64	2156.68
447.851	2723.97
448.062	2570.37
448.273	2162.83
448.484	2216.07
448.695	2697.35
448.907	2439.3
449.118	2390.15
449.329	2545.8
449.54	2510.98
449.751	2408.58
449.962	2408.58
450.173	2291.85
450.384	2850.94
450.595	3098.75
450.806	2580.61
451.017	2574.47
451.228	3045.5
451.439	2900.09
451.65	2547.84
451.861	2283.66
452.072	2650.24
452.283	2758.78
452.494	2650.24
452.705	2613.38
452.915	3309.69
453.126	3008.64
453.337	2674.82
453.548	2662.53
453.759	3172.47
453.97	3451
454.181	3031.16
454.391	2789.5
454.602	3094.65
454.813	3266.68
455.024	3043.45
455.235	2717.83
455.445	3080.32
455.656	3272.82
455.867	3057.79
456.078	2896
456.288	2906.24
456.499	3244.15
456.71	2949.25
456.921	3289.21
457.131	3369.08
457.342	3299.45
457.553	3014.78
457.763	2988.16
457.974	3448.95
458.184	3584.12
458.395	3227.77
458.606	3149.95
458.816	3981.42
459.027	3962.99
459.237	3426.42
459.448	3219.58
459.659	3809.39
459.869	4075.63
460.08	3375.22
460.29	3649.65
460.501	4249.71
460.711	3631.22
460.922	3235.96
461.132	3512.44
461.343	4403.3
461.553	3489.91
461.764	3729.52
461.974	3608.69
462.184	3999.85
462.395	3934.32
462.605	3797.1
462.816	3647.6
463.026	4114.54
463.236	4202.6
463.447	3903.6
463.657	3750
463.867	4464.74
464.078	4202.6
464.288	4079.72
464.498	4085.87
464.709	4216.94
464.919	4151.4
465.129	4194.41
465.339	4196.46
465.55	4468.84
465.76	4526.18
465.97	4419.69
466.18	4282.47
466.391	4890.72
466.601	4575.33
466.811	4524.13
467.021	4499.56
467.231	4755.55
467.441	4954.21
467.651	4663.4
467.862	4489.32
468.072	5124.19
468.282	5328.99
468.492	4808.8
468.702	5077.09
468.912	5294.17
469.122	5763.15
469.332	5492.82
469.542	5187.68
469.752	5550.17
469.962	5429.34
470.172	5163.1
470.382	5466.2
470.592	5834.83
470.802	5959.76
471.012	5439.58
471.222	5535.83
471.432	5931.09
471.642	6111.31
471.852	5742.68
472.062	5777.49
472.272	6070.35
472.482	5967.95
472.691	6033.49
472.901	5804.11
473.111	6316.11
473.321	6983.74
473.531	6471.75
473.741	6459.46
473.95	6754.37
474.16	6672.45
474.37	6584.39
474.58	6467.66
474.79	7387.19
474.999	7196.73
475.209	6684.74
475.419	6828.1
475.628	7295.04
475.838	7362.62
476.048	7180.35
476.258	7139.39
476.467	7872.56
476.677	7497.78
476.886	7577.66
477.096	7784.5
477.306	7551.03
477.515	7970.87
477.725	7624.76
477.935	7745.59
478.144	8271.92
478.354	7884.85
478.563	8091.7
478.773	7964.72
478.982	8613.93
479.192	8843.3
479.401	8286.25
479.611	8237.1
479.82	8507.43
480.03	8759.33
480.239	8648.74
480.449	8642.6
480.658	9371.68
480.868	8919.07
481.077	9207.84
481.287	8935.46
481.496	9429.02
481.705	9990.16
481.915	9435.16
482.124	9502.75
482.333	9736.21
482.543	9938.96
482.752	9707.54
482.961	9783.32
483.171	9959.44
483.38	9789.46
483.589	9957.39
483.799	9889.81
484.008	10237.97
484.217	10481.67
484.426	10280.97
484.636	10096.66
484.845	10510.35
485.054	10369.04
485.263	10930.18
485.472	10670.09
485.682	11030.53
485.891	10921.99
486.1	10416.14
486.309	11124.74
486.518	11526.14
486.727	11419.64
486.936	11122.69
487.146	11352.06
487.355	11775.99
487.564	11128.83
487.773	11642.87
487.982	11292.67
488.191	11612.15
488.4	11964.4
488.609	11687.93
488.818	11960.31
489.027	12722.15
489.236	12523.5
489.445	11900.92
489.654	12118
489.863	12746.73
490.072	12482.54
490.281	12750.82
490.49	12623.85
490.698	13090.79
490.907	13162.47
491.116	12890.09
491.325	12759.02
491.534	13221.86
491.743	13137.89
491.952	13068.26
492.16	13205.47
492.369	13428.7
492.578	13512.67
492.787	13504.48
492.996	13244.38
493.204	13434.85
493.413	14073.81
493.622	13207.52
493.831	13451.23
494.039	14116.82
494.248	13918.17
494.457	13746.14
494.665	13817.82
494.874	14262.23
495.083	14790.6
495.291	14010.32
495.5	14082
495.709	14958.53
495.917	14575.56
496.126	14323.66
496.335	14323.66
496.543	14565.32
496.752	14608.33
496.96	14786.51
497.169	14569.42
497.377	14716.87
497.586	15429.57
497.794	15110.08
498.003	14641.1
498.211	15048.65
498.42	15597.5
498.628	15493.05
498.837	15200.19
499.045	15546.3
499.254	15534.01
499.462	15222.72
499.671	15497.15
499.879	16269.23
500.087	15943.61
500.296	15491.01
500.504	15699.9
500.713	15919.03
500.921	16656.3
501.129	15663.04
501.338	15730.62
501.546	16412.59
501.754	16353.2
501.962	15986.61
502.171	15876.02
502.379	16517.04
502.587	16717.74
502.795	16492.46
503.004	16324.53
503.212	16631.72
503.42	16963.5
503.628	16555.95
503.837	16625.58
504.045	17055.65
504.253	17444.77
504.461	16682.92
504.669	16646.06
504.877	17358.75
505.085	17481.63
505.294	16996.26
505.502	17239.97
505.71	17479.58
505.918	17358.75
506.126	17199.01
506.334	17295.27
506.542	17592.22
506.75	17323.94
506.958	17756.06
507.166	17543.07
507.374	17569.69
507.582	18204.56
507.79	17872.79
507.998	17897.37
508.206	18235.28
508.414	17952.66
508.622	17854.36
508.83	17665.95
509.037	18743.18
509.245	18003.86
509.453	17797.02
509.661	18071.45
509.869	18544.53
510.077	18206.61
510.285	18653.07
510.492	18173.85
510.7	19263.36
510.908	18640.78
511.116	18298.77
511.324	18431.89
511.531	18780.04
511.739	18642.83
511.947	18882.44
512.155	19216.26
512.362	19214.21
512.57	18661.26
512.778	18896.78
512.985	18565.01
513.193	19218.31
513.401	19410.82
513.608	19203.97
513.816	19322.76
514.024	19511.17
514.231	19892.09
514.439	19380.1
514.646	19507.07
514.854	19847.04
515.061	19480.45
515.269	19208.07
515.477	19648.38
515.684	19918.71
515.892	20199.29
516.099	19695.49
516.307	19636.1
516.514	20088.7
516.722	20256.63
516.929	19986.3
517.136	19922.81
517.344	20529.01
517.551	20285.3
517.759	20301.68
517.966	20187
518.173	20283.25
518.381	20498.29
518.588	20062.07
518.796	20268.92
519.003	20750.19
519.21	20414.32
519.418	20510.58
519.625	20981.61
519.832	20565.87
520.039	21135.21
520.247	20557.68
520.454	21000.04
520.661	21170.02
520.868	21026.67
521.076	20819.82
521.283	20655.98
521.49	21757.79
521.697	21147.5
521.904	21147.5
522.112	20983.66
522.319	21567.33
522.526	21610.34
522.733	21534.56
522.94	21192.55
523.147	21280.61
523.354	21831.52
523.561	21516.13
523.768	21368.68
523.975	22234.97
524.183	21780.32
524.39	21860.19
524.597	21823.33
524.804	22132.57
525.011	21886.81
525.218	21987.16
525.425	22245.21
525.632	22318.93
525.838	22159.19
526.045	21938.01
526.252	21868.38
526.459	23433.03
526.666	22957.9
526.873	22335.32
527.08	22447.96
527.287	22970.19
527.494	22431.57
527.701	22363.99
527.907	22607.7
528.114	22882.13
528.321	22941.52
528.528	22599.51
528.735	23205.7
528.941	22818.64
529.148	22675.28
529.355	22835.02
529.562	22802.25
529.768	23711.55
529.975	23009.1
530.182	23037.77
530.388	23009.1
530.595	23668.55
530.802	23015.24
531.008	23740.22
531.215	23547.72
531.422	24454.97
531.628	24598.32
531.835	23615.3
532.042	23879.49
532.248	24115
532.455	24225.59
532.661	23875.39
532.868	24078.14
533.074	24342.33
533.281	24471.35
533.487	24149.82
533.694	24137.53
533.9	24653.62
534.107	24512.31
534.313	24491.83
534.52	24411.96
534.726	24975.15
534.933	25057.07
535.139	24557.36
535.345	24686.39
535.552	24942.38
535.758	25114.41
535.965	24776.5
536.171	24559.41
536.377	25184.04
536.584	25382.7
536.79	25128.75
536.996	25472.81
537.203	25392.94
537.409	25399.08
537.615	24876.85
537.821	25286.44
538.028	25753.38
538.234	25788.19
538.44	25333.54
538.646	25866.02
538.853	25773.86
539.059	25648.93
539.265	26107.68
539.471	25632.55
539.677	26076.96
539.883	25894.69
540.09	25784.1
540.296	26511.13
540.502	26504.98
540.708	26203.93
540.914	26169.12
541.12	26156.83
541.326	26801.94
541.532	26734.35
541.738	26533.65
541.944	26375.96
542.15	27117.32
542.356	26943.25
542.562	26380.06
542.768	26402.58
542.974	27457.29
543.18	27621.13
543.386	26756.88
543.592	26789.65
543.798	27494.15
544.004	27408.14
544.21	27154.19
544.415	27156.24
544.621	27629.32
544.827	27498.25
545.033	27369.23
545.239	27485.96
545.445	27639.56
545.651	27549.45
545.856	27647.75
546.062	27561.73
546.268	27524.87
546.474	27463.43
546.679	27252.49
546.885	27553.54
547.091	27647.75
547.297	28149.5
547.502	27717.38
547.708	27176.72
547.914	27600.65
548.119	28417.79
548.325	27565.83
548.531	27690.76
548.736	28503.8
548.942	27791.11
549.147	27655.94
549.353	28423.93
549.559	28696.31
549.764	28239.61
549.97	27973.38
550.175	28102.4
550.381	28884.72
550.586	28184.32
550.792	28442.36
550.997	28350.2
551.203	28985.07
551.408	28890.87
551.614	28626.68
551.819	28862.19
552.025	29351.66
552.23	29718.25
552.435	28901.11
552.641	29492.97
552.846	29339.37
553.052	29781.73
553.257	28958.45
553.462	29343.47
553.668	29538.02
553.873	29970.15
554.078	29187.82
554.283	29662.95
554.489	29761.25
554.694	30013.15
554.899	29357.8
555.105	30013.15
555.31	30232.29
555.515	30564.06
555.72	30080.74
555.925	29470.44
556.131	30285.53
556.336	30271.2
556.541	29900.51
556.746	29671.14
556.951	30314.2
557.156	30645.98
557.361	30265.05
557.567	30891.73
557.772	30985.94
557.977	30301.92
558.182	30093.02
558.387	30174.94
558.592	30514.91
558.797	31069.9
559.002	30326.49
559.207	30551.77
559.412	30559.96
559.617	31069.9
559.822	30549.72
560.027	30469.85
560.232	30901.97
560.437	31186.64
560.642	30834.39
560.847	30865.11
561.051	31348.43
561.256	31108.82
561.461	30854.87
561.666	30914.26
561.871	31456.97
562.076	31366.86
562.281	31549.13
562.485	30979.79
562.69	31321.8
562.895	31405.77
563.1	31063.76
563.305	31028.95
563.509	31557.32
563.714	31993.54
563.919	31325.9
564.123	31383.24
564.328	31487.69
564.533	31522.51
564.737	31432.4
564.942	31250.13
565.147	31944.39
565.351	32083.65
565.556	31424.2
565.761	31534.79
565.965	32257.73
566.17	31440.59
566.374	31483.59
566.579	31928
566.784	31868.61
566.988	32032.45
567.193	31864.52
567.397	31626.95
567.602	31817.41
567.806	31956.68
568.011	32077.51
568.215	32530.11
568.42	32476.86
568.624	32214.72
568.828	32300.73
569.033	32423.61
569.237	32753.33
569.442	32913.08
569.646	31981.25
569.85	32321.21
570.055	32394.94
570.259	32579.26
570.463	33214.13
570.668	32706.23
570.872	32450.24
571.076	32655.03
571.281	32919.22
571.485	33103.54
571.689	33429.16
571.893	33201.84
572.098	32870.07
572.302	32917.17
572.506	33242.8
572.71	32941.75
572.914	33076.91
573.119	33103.54
573.323	33722.02
573.527	33703.59
573.731	33259.18
573.935	33005.24
574.139	33728.17
574.343	33038
574.547	33025.71
574.751	33425.07
574.955	33988.26
575.159	34082.47
575.364	33027.76
575.568	33382.06
575.772	33748.65
575.976	34070.18
576.18	33486.51
576.383	33670.82
576.587	34535.07
576.791	33697.45
576.995	33816.23
577.199	33943.2
577.403	34096.8
577.607	34645.66
577.811	33883.81
578.015	33941.16
578.219	34393.76
578.422	34451.1
578.626	34543.26
578.83	34313.89
579.034	34412.19
579.238	34274.98
579.442	34119.33
579.645	34279.07
579.849	34653.85
580.053	34823.83
580.257	34518.68
580.46	34733.72
580.664	35137.17
580.868	34782.87
581.071	35321.49
581.275	34731.67
581.479	34614.94
581.682	35223.19
581.886	34877.08
582.09	35110.55
582.293	35415.69
582.497	35851.91
582.7	34838.17
582.904	35014.29
583.107	35221.14
583.311	34973.33
583.515	35131.03
583.718	35249.81
583.922	35313.3
584.125	35995.27
584.329	35219.09
584.532	35575.44
584.735	35972.74
584.939	35370.64
585.142	34963.09
585.346	35546.76
585.549	35917.45
585.753	35573.39
585.956	35745.42
586.159	35554.96
586.363	36404.86
586.566	35913.35
586.769	35645.07
586.973	35618.44
587.176	36439.68
587.379	36519.55
587.582	36273.79
587.786	36349.57
587.989	36372.1
588.192	36894.33
588.395	36150.92
588.599	36677.24
588.802	36630.14
589.005	36716.15
589.208	36372.1
589.411	36271.75
589.615	36595.32
589.818	37236.34
590.021	37004.92
590.224	37181.04
590.427	37133.94
590.63	37035.64
590.833	36593.28
591.036	36724.35
591.239	36746.87
591.442	36613.76
591.645	36963.96
591.848	37162.61
592.051	37740.14
592.254	37662.32
592.457	36996.73
592.66	37142.13
592.863	37711.47
593.066	37531.25
593.269	37373.55
593.472	37639.79
593.675	37647.98
593.878	37662.32
594.081	37623.4
594.284	37621.36
594.486	38172.26
594.689	38329.95
594.892	37596.78
595.095	38176.36
595.298	38522.46
595.5	38102.63
595.703	38497.89
595.906	37951.08
596.109	38901.34
596.311	38598.24
596.514	37799.53
596.717	38469.22
596.92	38803.03
597.122	38327.91
597.325	37951.08
597.528	38063.72
597.73	39474.77
597.933	38755.93
598.136	38379.11
598.338	38127.2
598.541	38792.79
598.743	39171.67
598.946	38921.82
599.148	38737.5
599.351	39009.88
599.554	39476.82
599.756	38944.34
599.959	39181.91
600.161	39026.26
600.363	39784.01
600.566	39110.23
600.768	39050.84
600.971	39743.05
601.173	39312.98
601.376	39321.17
601.578	39575.12
601.78	39231.06
601.983	40146.5
602.185	39235.16
602.388	39685.71
602.59	39304.79
602.792	39644.75
602.995	39534.16
603.197	39042.65
603.399	39915.08
603.601	39820.88
603.804	39235.16
604.006	39886.41
604.208	39134.81
604.41	39366.23
604.613	39757.39
604.815	39603.79
605.017	40308.29
605.219	39509.58
605.421	39523.92
605.623	39706.19
605.826	40420.93
606.028	40322.63
606.23	40126.02
606.432	39820.88
606.634	40461.89
606.836	40375.87
607.038	39538.26
607.24	39820.88
607.442	39802.44
607.644	40197.7
607.846	39816.78
608.048	39634.51
608.25	39951.95
608.452	39585.36
608.654	40230.47
608.856	39669.33
609.058	39921.23
609.26	40326.72
609.462	39931.47
609.664	40339.01
609.866	40437.31
610.067	40642.11
610.269	40384.07
610.471	39810.64
610.673	40132.17
610.875	40789.56
611.077	39710.28
611.278	40089.16
611.48	40523.33
611.682	41094.71
611.884	40724.03
612.085	40011.34
612.287	40447.55
612.489	40717.89
612.69	40279.62
612.892	40218.18
613.094	40834.62
613.295	40566.34
613.497	40238.66
613.699	40044.1
613.9	40699.45
614.102	40830.52
614.304	40351.3
614.505	39628.37
614.707	40631.87
614.908	40554.05
615.11	40554.05
615.311	40402.5
615.513	40955.45
615.714	41057.85
615.916	40582.72
616.117	41061.94
616.319	40494.66
616.52	40836.67
616.722	40433.22
616.923	40255.04
617.124	40728.13
617.326	40461.89
617.527	40941.11
617.729	40818.24
617.93	40795.71
618.131	41117.24
618.333	40529.47
618.534	40719.93
618.735	40656.45
618.937	41076.28
619.138	40339.01
619.339	40810.04
619.54	40992.31
619.742	40662.59
619.943	40740.41
620.144	40584.77
620.345	41020.98
620.546	41131.58
620.748	40908.35
620.949	40697.41
621.15	41344.56
621.351	41115.19
621.552	40533.57
621.753	40422.98
621.954	41170.49
622.155	41131.58
622.356	40662.59
622.558	41213.49
622.759	41193.01
622.96	41262.65
623.161	40808
623.362	40646.21
623.563	41465.39
623.764	41008.7
623.965	40939.07
624.166	41363
624.366	41172.53
624.567	41549.36
624.768	40959.55
624.969	40805.95
625.17	41205.3
625.371	41723.44
625.572	41059.9
625.773	40871.48
625.973	41571.89
626.174	41772.59
626.375	40965.69
626.576	41463.35
626.777	41666.09
626.977	41686.57
627.178	41557.55
627.379	41469.49
627.58	41332.28
627.78	41535.02
627.981	41317.94
628.182	41659.95
628.382	41866.8
628.583	41633.33
628.784	41246.26
628.984	41137.72
629.185	41877.04
629.386	41375.28
629.586	41770.54
629.787	41748.01
629.987	42018.35
630.188	41352.76
630.388	41569.84
630.589	41680.43
630.79	42401.32
630.99	41772.59
631.191	41664.05
631.391	41958.95
631.591	41465.39
631.792	42184.23
631.992	41958.95
632.193	41694.77
632.393	42268.2
632.594	41731.63
632.794	41393.72
632.994	41823.79
633.195	41717.29
633.395	42335.78
633.595	41774.64
633.796	42063.4
633.996	41838.12
634.196	42255.91
634.397	42429.99
634.597	42305.06
634.797	42208.81
634.997	42606.11
635.198	41889.32
635.398	41967.15
635.598	42270.25
635.798	42579.49
635.998	41977.39
636.199	41936.43
636.399	42001.96
636.599	42104.36
636.799	42096.17
636.999	41891.37
637.199	42180.14
637.399	42540.58
637.599	42227.24
637.799	42055.21
637.999	42745.37
638.199	43220.5
638.399	42520.1
638.599	42477.09
638.799	42630.69
638.999	43644.43
639.199	42597.92
639.399	42780.19
639.599	43230.74
639.799	41987.63
639.999	42458.66
640.199	42370.6
640.399	42675.74
640.599	41838.12
640.799	43433.49
640.998	42262.05
641.198	42874.4
641.398	42700.32
641.598	42679.84
641.798	43167.26
641.997	43587.09
642.197	42913.31
642.397	42548.77
642.597	43056.67
642.796	43253.27
642.996	42870.3
643.196	42866.2
643.395	42278.44
643.595	43392.53
643.795	42503.71
643.994	43073.05
644.194	42743.33
644.394	43574.8
644.593	43083.29
644.793	43144.73
644.992	43363.86
645.192	43460.12
645.392	42835.49
645.591	43572.75
645.791	43376.15
645.99	43175.45
646.19	43392.53
646.389	43009.56
646.589	43146.78
646.788	43820.56
646.987	43247.13
647.187	43752.98
647.386	43116.06
647.586	43462.16
647.785	43320.85
647.984	43632.14
648.184	43429.4
648.383	43781.65
648.582	43370
648.782	43626
648.981	43736.59
649.18	42913.31
649.38	44099.08
649.579	43570.71
649.778	43605.52
649.977	43701.78
650.177	43765.26
650.376	43542.03
650.575	42847.77
650.774	44150.28
650.973	43247.13
651.173	43298.33
651.372	43556.37
651.571	44154.38
651.77	43931.15
651.969	43873.81
652.168	43621.91
652.367	43644.43
652.566	43943.44
652.765	43630.1
652.964	44195.34
653.163	44445.19
653.362	43939.34
653.561	43621.91
653.76	44002.83
653.959	43572.75
654.158	44719.62
654.357	43894.28
654.556	43828.75
654.755	44598.79
654.954	43912.72
655.153	43992.59
655.352	44211.72
655.551	44123.66
655.749	43898.38
655.948	44017.16
656.147	43791.89
656.346	44621.31
656.545	44590.59
656.743	43648.53
656.942	44148.23
657.141	44215.82
657.34	44047.88
657.538	44326.41
657.737	44482.05
657.936	44424.71
658.135	44402.18
658.333	43916.81
658.532	44326.41
658.731	44617.22
658.929	44611.07
659.128	44002.83
659.326	44201.48
659.525	45161.98
659.724	44506.63
659.922	44205.58
660.121	44273.16
660.319	44596.74
660.518	43918.86
660.716	43728.4
660.915	44219.91
661.113	44756.48
661.312	44248.58
661.51	43824.65
661.709	44267.02
661.907	44086.79
662.105	44410.37
662.304	44654.08
662.502	44451.33
662.701	44983.8
662.899	44633.6
663.097	44969.47
663.296	43759.12
663.494	44998.14
663.692	44793.34
663.891	44342.79
664.089	44385.8
664.287	44740.1
664.485	44967.42
664.684	44314.12
664.882	44772.86
665.08	45018.62
665.278	44981.76
665.476	44269.06
665.675	45024.76
665.873	45409.78
666.071	45112.83
666.269	44289.54
666.467	44510.72
666.665	44606.98
666.863	43933.2
667.061	44328.45
667.259	44355.08
667.457	44539.4
667.655	44721.66
667.853	44135.95
668.051	44189.19
668.249	44185.1
668.447	44101.13
668.645	43832.85
668.843	44848.64
669.041	44994.04
669.239	44508.68
669.437	44633.6
669.635	44375.56
669.833	44365.32
670.031	44322.31
670.229	44090.89
670.426	44586.5
670.624	44469.76
670.822	44097.03
671.02	44279.3
671.218	44647.94
671.415	44359.17
671.613	44426.76
671.811	43877.9
672.009	44459.52
672.206	44494.34
672.404	44228.1
672.602	43986.44
672.799	44664.32
672.997	44779.01
673.195	44795.39
673.392	44713.47
673.59	43943.44
673.788	44287.49
673.985	43640.34
674.183	44076.55
674.38	43988.49
674.578	44740.1
674.775	43922.96
674.973	43664.91
675.17	43621.91
675.368	44516.87
675.565	44412.42
675.763	44140.04
675.96	43798.03
676.158	44719.62
676.355	43632.14
676.553	44103.18
676.75	43785.74
676.947	44019.21
677.145	43464.21
677.342	43646.48
677.539	43765.26
677.737	44150.28
677.934	44629.51
678.131	43970.06
678.329	43681.3
678.526	44277.26
678.723	44088.84
678.92	44017.16
679.118	43511.31
679.315	43361.81
679.512	44314.12
679.709	43601.43
679.906	43507.22
680.104	43906.57
680.301	43935.24
680.498	43511.31
680.695	43410.96
680.892	43392.53
681.089	43550.23
681.286	43683.34
681.483	43157.02
681.68	44211.72
681.877	44092.94
682.075	43845.13
682.272	43511.31
682.469	43576.85
682.665	43576.85
682.862	42845.72
683.059	42839.58
683.256	43427.35
683.453	43142.68
683.65	43404.82
683.847	43607.57
684.044	43187.74
684.241	42962.46
684.438	43314.71
684.635	42690.08
684.831	43806.22
685.028	43515.41
685.225	43128.34
685.422	42843.68
685.619	43154.97
685.815	43415.06
686.012	43060.76
686.209	42806.81
686.405	42753.57
686.602	43456.02
686.799	42540.58
686.996	43032.09
687.192	42612.26
687.389	43634.19
687.586	42798.62
687.782	43015.71
687.979	43249.17
688.175	43353.62
688.372	42569.25
688.568	42759.71
688.765	42757.66
688.962	43191.83
689.158	42901.02
689.355	42532.39
689.551	42253.86
689.748	42812.96
689.944	42507.81
690.14	42090.02
690.337	42765.85
690.533	42647.07
690.73	42260.01
690.926	42927.64
691.123	42681.89
691.319	42567.2
691.515	42321.44
691.712	42098.22
691.908	42503.71
692.104	42550.82
692.301	42552.87
692.497	42237.48
692.693	42944.03
692.889	42628.64
693.086	41942.57
693.282	42212.9
693.478	42475.04
693.674	42602.02
693.87	42034.73
694.067	41672.24
694.263	42728.99
694.459	42386.98
694.655	42440.23
694.851	42202.66
695.047	42481.19
695.243	42561.06
695.439	42124.84
695.635	42030.63
695.831	42165.8
696.027	42436.13
696.224	41872.94
696.42	42112.55
696.615	42665.5
696.811	42419.75
697.007	41815.6
697.203	41758.25
697.399	42116.65
697.595	42178.09
697.791	41287.22
697.987	41537.07
698.183	41618.99
698.379	41983.53
698.575	42006.06
698.77	41246.26
698.966	41926.19
699.162	42001.96
699.358	41709.1
699.554	41647.66
699.749	42194.47
699.945	41852.46
700.141	41666.09
700.337	41496.11
700.532	41436.72
700.728	41444.91
700.924	41229.88
701.119	41332.28
701.315	41451.06
701.511	41358.9
701.706	42141.22
701.902	41035.32
702.097	41444.91
702.293	42114.6
702.489	41221.69
702.684	41225.78
702.88	41098.81
703.075	41170.49
703.271	40918.59
703.466	41229.88
703.662	41326.13
703.857	41575.98
704.053	41102.9
704.248	41164.34
704.443	41471.54
704.639	41668.14
704.834	40969.79
705.03	41365.04
705.225	41336.37
705.42	41160.25
705.616	41143.86
705.811	40259.14
706.006	40930.87
706.202	40820.28
706.397	40468.03
706.592	40511.04
706.787	40945.21
706.983	40652.35
707.178	41360.95
707.373	40926.78
707.568	41039.42
707.763	40724.03
707.959	40787.52
708.154	41158.2
708.349	40674.88
708.544	41453.11
708.739	40674.88
708.934	40060.49
709.129	40797.76
709.324	41051.7
709.519	40529.47
709.714	40934.97
709.909	41272.88
710.104	40844.86
710.299	40547.9
710.494	40656.45
710.689	40490.56
710.884	40730.17
711.079	40597.06
711.274	40289.86
711.469	40824.38
711.664	40711.74
711.859	40476.23
712.054	40644.16
712.249	40238.66
712.443	40851
712.638	40134.21
712.833	40019.53
713.028	40744.51
713.223	39984.71
713.417	39902.79
713.612	40017.48
713.807	40693.31
714.002	40986.17
714.196	40844.86
714.391	39986.76
714.586	40386.11
714.78	39937.61
714.975	40179.27
715.17	40345.16
715.364	40472.13
715.559	40427.07
715.754	39464.53
715.948	39970.38
716.143	40472.13
716.337	40001.1
716.532	40226.37
716.726	39806.54
716.921	40011.34
717.115	40443.46
717.31	39609.93
717.504	40541.76
717.699	39603.79
717.893	39568.97
718.088	39503.44
718.282	39538.26
718.476	39624.27
718.671	39415.38
718.865	39312.98
719.059	39165.53
719.254	39460.43
719.448	39726.67
719.642	40568.38
719.837	38743.64
720.031	39595.6
720.225	39444.05
720.419	39284.31
720.614	39063.13
720.808	39366.23
721.002	38819.42
721.196	38938.2
721.39	38973.02
721.585	39456.34
721.779	39394.9
721.973	38602.33
722.167	38448.74
722.361	38790.75
722.555	39550.54
722.749	38614.62
722.943	38757.98
723.137	38913.62
723.331	39186
723.525	38993.5
723.719	38641.25
723.913	39171.67
724.107	38932.06
724.301	38827.61
724.495	38876.76
724.689	39247.44
724.883	38954.58
725.077	38846.04
725.271	39118.42
725.465	38940.25
725.659	38645.34
725.853	38485.6
726.046	38710.88
726.24	38757.98
726.434	38870.62
726.628	38727.26
726.822	38557.28
727.015	39034.46
727.209	38880.86
727.403	38626.91
727.596	38239.84
727.79	38768.22
727.984	38825.56
728.177	38633.05
728.371	38088.29
728.565	38768.22
728.758	38551.13
728.952	38534.75
729.146	38350.43
729.339	39130.71
729.533	38747.74
729.726	38428.26
729.92	38829.66
730.113	39349.84
730.307	38983.26
730.5	38676.06
730.694	38868.57
730.887	38450.78
731.081	39013.98
731.274	38313.57
731.468	38176.36
731.661	38329.95
731.854	38366.82
732.048	38108.77
732.241	38297.19
732.435	38698.59
732.628	38262.37
732.821	38166.12
733.014	38444.64
733.208	38657.63
733.401	38942.3
733.594	38108.77
733.788	38262.37
733.981	38477.41
734.174	38151.78
734.367	38172.26
734.56	38577.76
734.754	38661.72
734.947	38299.23
735.14	38452.83
735.333	38467.17
735.526	38655.58
735.719	37854.83
735.912	38096.49
736.105	38153.83
736.298	38438.5
736.491	37877.35
736.684	37828.2
736.877	37643.88
737.07	38002.28
737.263	38084.2
737.456	37752.43
737.649	37867.11
737.842	37965.42
738.035	37668.46
738.228	37652.08
738.421	37928.55
738.614	38362.72
738.807	38532.7
739	37619.31
739.192	37668.46
739.385	37871.21
739.578	38323.81
739.771	38043.24
739.964	37514.86
740.156	37951.08
740.349	37822.06
740.542	38033
740.735	37035.64
740.927	37705.32
741.12	37684.84
741.313	37363.31
741.505	38252.13
741.698	37979.75
741.891	37987.94
742.083	38151.78
742.276	37637.74
742.468	37566.06
742.661	37244.53
742.854	37586.54
743.046	37621.36
743.239	38143.59
743.431	37527.15
743.624	37242.48
743.816	37303.92
744.009	37557.87
744.201	37432.94
744.393	37310.07
744.586	36861.56
744.778	37592.69
744.971	37181.04
745.163	37287.54
745.355	37011.06
745.548	37099.12
745.74	37054.07
745.932	37254.77
746.125	36886.14
746.317	38200.93
746.509	37371.5
746.702	37725.8
746.894	36875.9
747.086	36839.03
747.278	37713.52
747.471	37039.73
747.663	37244.53
747.855	37230.19
748.047	37867.11
748.239	36918.9
748.431	36804.22
748.623	37793.39
748.815	37363.31
749.008	36963.96
749.2	37162.61
749.392	37553.77
749.584	36871.8
749.776	36978.29
749.968	37199.48
750.16	37457.52
750.352	36816.5
750.544	36783.74
750.736	36718.2
750.928	37092.98
751.12	36972.15
751.311	36624
751.503	36918.9
751.695	37029.49
751.887	36718.2
752.079	36537.98
752.271	36523.65
752.463	37981.8
752.654	36822.65
752.846	36580.99
753.038	36439.68
753.23	36857.46
753.421	36976.25
753.613	36497.02
753.805	36978.29
753.997	36781.69
754.188	36806.27
754.38	36288.13
754.572	36505.21
754.763	36607.61
754.955	36462.21
755.146	36288.13
755.338	36255.36
755.53	36562.56
755.721	36531.84
755.913	35821.19
756.104	36044.42
756.296	36327.04
756.487	36634.24
756.679	35997.32
756.87	35782.28
757.062	35798.66
757.253	36460.16
757.445	35794.57
757.636	36093.57
757.827	36144.77
758.019	36898.42
758.21	35651.21
758.401	35724.94
758.593	36243.07
758.784	36030.08
758.975	35456.65
759.167	35204.75
759.358	35444.37
759.549	35884.68
759.74	35128.98
759.932	35139.22
760.123	35290.77
760.314	35614.35
760.505	35180.18
760.696	34909.85
760.888	35966.6
761.079	35165.84
761.27	34956.95
761.461	34887.32
761.652	35520.14
761.843	34647.71
762.034	35378.83
762.225	34915.99
762.416	35184.27
762.607	34954.9
762.798	35223.19
762.989	34885.27
763.18	36064.9
763.371	34700.95
763.562	34807.45
763.753	34817.69
763.944	35065.49
764.135	34926.23
764.326	34682.52
764.517	34459.29
764.708	34412.19
764.899	34602.65
765.089	34168.48
765.28	33941.16
765.471	34528.92
765.662	34399.9
765.853	34399.9
766.043	33935.01
766.234	34598.55
766.425	34217.63
766.615	33873.57
766.806	33986.21
766.997	34213.54
767.187	33892.01
767.378	34186.91
767.569	33439.4
767.759	34090.66
767.95	34115.23
768.141	33935.01
768.331	33775.27
768.522	33572.52
768.712	34055.84
768.903	33941.16
769.093	33185.46
769.284	34021.03
769.474	33783.46
769.665	32990.9
769.855	33160.88
770.046	33719.98
770.236	33386.16
770.426	33547.95
770.617	33015.47
770.807	33361.58
770.998	33427.12
771.188	33005.24
771.378	32956.08
771.569	33590.95
771.759	33402.54
771.949	32376.51
772.139	32755.38
772.33	32485.05
772.52	33445.55
772.71	32861.88
772.9	32243.39
773.09	33308.33
773.281	32865.97
773.471	32429.76
773.661	32427.71
773.851	32773.81
774.041	32782.01
774.231	32192.19
774.421	32646.84
774.611	32331.45
774.802	32335.55
774.992	32218.82
775.182	32063.17
775.372	32161.47
775.562	32538.3
775.752	32237.25
775.942	31856.32
776.131	32671.42
776.321	32239.29
776.511	32184
776.701	31887.04
776.891	32100.03
777.081	31637.19
777.271	31485.64
777.461	31882.95
777.651	31995.59
777.84	32270.01
778.03	31995.59
778.22	31538.89
778.41	31952.58
778.599	31997.63
778.789	31362.76
778.979	31325.9
779.169	31747.78
779.358	31491.79
779.548	31651.53
779.738	31317.71
779.927	31334.09
780.117	31381.2
780.307	31219.41
780.496	31071.95
780.686	31686.34
780.875	31796.93
781.065	30985.94
781.254	31129.3
781.444	31121.1
781.633	31608.52
781.823	31002.32
782.012	30985.94
782.202	30856.92
782.391	30783.19
782.581	30484.19
782.77	30846.68
782.96	30985.94
783.149	30611.16
783.338	30519
783.528	29939.43
783.717	30832.34
783.906	30799.57
784.096	30367.45
784.285	30269.15
784.474	30310.11
784.663	30297.82
784.853	30250.72
785.042	30557.91
785.231	30574.3
785.42	31239.89
785.61	30322.4
785.799	30275.29
785.988	30275.29
786.177	30043.87
786.366	29845.22
786.555	30426.84
786.744	30478.04
786.933	30060.26
787.122	29779.68
787.312	30060.26
787.501	29847.27
787.69	30199.52
787.879	29728.49
788.068	29716.2
788.257	29202.16
788.445	29505.26
788.634	29581.03
788.823	29380.33
789.012	30023.39
789.201	29896.42
789.39	29503.21
789.579	29267.69
789.768	29359.85
789.957	29609.7
790.145	29474.54
790.334	28870.39
790.523	29345.51
790.712	29179.63
790.9	29595.37
791.089	28964.59
791.278	29771.49
791.467	29196.01
791.655	29273.84
791.844	29177.58
792.033	29040.37
792.221	29294.32
792.41	28876.53
792.599	28227.32
792.787	29306.6
792.976	29482.73
793.164	28497.66
793.353	29103.85
793.541	29034.22
793.73	28989.17
793.918	28686.07
794.107	28528.38
794.295	28761.84
794.484	29093.61
794.672	28677.88
794.861	28606.2
795.049	29185.77
795.238	28935.92
795.426	28327.67
795.614	28335.87
795.803	28444.41
795.991	28692.21
796.179	28552.95
796.368	28370.68
796.556	28575.48
796.744	28159.74
796.932	28339.96
797.121	28190.46
797.309	28493.56
797.497	28784.37
797.685	28270.33
797.874	28413.69
798.062	28524.28
798.25	28511.99
798.438	28231.42
798.626	28352.25
798.814	28493.56
799.002	28501.75
799.19	28219.13
799.378	27864.83
799.566	28333.82
799.755	28327.67
799.943	28231.42
800.131	27954.94
800.318	28362.49
800.506	28262.14
800.694	27555.59
800.882	28024.58
801.07	28487.42
801.258	28282.62
801.446	28165.88
801.634	28030.72
801.822	28212.99
802.01	28266.24
802.197	28296.95
802.385	28147.45
802.573	28598.01
802.761	28049.15
802.949	28182.27
803.136	28180.22
803.324	28571.38
803.512	28333.82
803.699	28243.71
803.887	27924.22
804.075	28673.78
804.262	27983.62
804.45	28133.12
804.638	28038.91
804.825	28319.48
805.013	28155.65
805.201	28358.39
805.388	27973.38
805.576	28622.58
805.763	29175.53
805.951	28190.46
806.138	28856.05
806.326	29062.9
806.513	28718.84
806.701	28376.83
806.888	27987.71
807.075	29013.74
807.263	28915.44
807.45	28253.95
807.638	28421.88
807.825	29228.78
808.012	28579.57
808.2	28292.86
808.387	29003.5
808.574	29026.03
808.761	28954.35
808.949	28778.23
809.136	28397.31
809.323	28618.49
809.51	28544.76
809.698	28546.81
809.885	28262.14
810.072	28724.98
810.259	29226.73
810.446	28638.97
810.633	29036.27
810.82	29312.75
811.008	29542.12
811.195	28966.64
811.382	29034.22
811.569	29419.24
811.756	28602.1
811.943	28845.81
812.13	28968.69
812.317	29048.56
812.504	28663.54
812.691	29011.7
812.878	28919.54
813.064	29120.24
813.251	29034.22
813.438	28626.68
813.625	28362.49
813.812	29036.27
813.999	28950.26
814.186	28995.31
814.372	28882.67
814.559	29306.6
814.746	28821.23
814.933	28579.57
815.12	28710.64
815.306	28374.78
815.493	28694.26
815.68	29034.22
815.866	28307.19
816.053	29249.26
816.24	29433.58
816.426	28735.22
816.613	28460.79
816.799	29282.03
816.986	28993.26
817.173	28518.14
817.359	28280.57
817.546	28712.69
817.732	28192.51
817.919	28397.31
818.105	28423.93
818.292	28550.9
818.478	29327.08
818.665	28757.75
818.851	28274.43
819.037	29146.86
819.224	28997.36
819.41	28321.53
819.597	28296.95
819.783	28878.58
819.969	29034.22
820.156	28442.36
820.342	28309.24
820.528	29384.43
820.714	28436.22
820.901	28436.22
821.087	28294.91
821.273	28972.78
821.459	28546.81
821.646	28296.95
821.832	28028.67
822.018	28284.67
822.204	28059.39
822.39	27768.58
822.576	27897.6
822.762	28219.13
822.948	27909.89
823.134	27848.45
823.32	27731.72
823.507	28108.54
823.693	28079.87
823.879	28417.79
824.065	28022.53
824.25	28266.24
824.436	27985.66
824.622	27864.83
824.808	28462.84
824.994	27870.98
825.18	27848.45
825.366	27655.94
825.552	27528.97
825.738	27768.58
825.923	27854.59
826.109	28012.29
826.295	27305.74
826.481	27430.66
826.667	27965.18
826.852	27895.55
827.038	27311.88
827.224	28026.62
827.409	27780.87
827.595	27340.55
827.781	27264.78
827.966	27526.92
828.152	27506.44
828.338	27184.91
828.523	27146
828.709	27598.6
828.894	27356.94
829.08	27481.86
829.266	27195.15
829.451	27176.72
829.637	27207.44
829.822	26994.45
830.008	27070.22
830.193	27453.19
830.378	27373.32
830.564	27252.49
830.749	26992.4
830.935	27021.07
831.12	26990.35
831.305	26679.06
831.491	26578.71
831.676	26713.88
831.861	26885.9
832.047	26822.42
832.232	26695.44
832.417	26988.3
832.602	27166.48
832.788	26388.25
832.973	26255.13
833.158	26685.2
833.343	26765.07
833.528	26584.85
833.714	26623.76
833.899	27234.06
834.084	26867.47
834.269	26435.35
834.454	26199.83
834.639	26912.53
834.824	26461.97
835.009	26230.55
835.194	26298.14
835.379	26570.52
835.564	26572.57
835.749	26165.02
835.934	26003.23
836.119	26345.24
836.304	25999.13
836.489	25790.24
836.674	25978.65
836.859	25732.9
837.044	26455.83
837.228	26281.75
837.413	25726.75
837.598	26416.92
837.783	26130.2
837.968	25988.89
838.152	25853.73
838.337	25593.64
838.522	26394.39
838.707	26076.96
838.891	25425.7
839.076	25833.25
839.261	26093.34
839.445	25739.04
839.63	25812.77
839.815	25663.27
839.999	25558.82
840.184	25562.92
840.368	25507.62
840.553	25571.11
840.737	26001.18
840.922	25169.71
841.106	25136.94
841.291	25147.18
841.475	25261.87
841.66	25270.06
841.844	25149.23
842.029	26138.4
842.213	25075.5
842.397	25030.44
842.582	24905.52
842.766	25780
842.951	25739.04
843.135	25136.94
843.319	24964.91
843.504	25134.89
843.688	25642.79
843.872	24790.83
844.056	24981.29
844.241	25421.61
844.425	24903.47
844.609	24823.6
844.793	24672.05
844.977	25098.03
845.161	24788.78
845.346	24557.36
845.53	24321.85
845.714	24977.2
845.898	24899.37
846.082	24315.7
846.266	24694.58
846.45	24399.67
846.634	24395.57
846.818	24235.83
847.002	24684.34
847.186	24604.47
847.37	24196.92
847.554	24061.76
847.738	24203.07
847.922	24309.56
848.106	24700.72
848.29	23865.15
848.473	24022.84
848.657	24139.58
848.841	24514.36
849.025	23977.79
849.209	23715.65
849.392	24035.13
849.576	24129.34
849.76	23508.8
849.944	24043.32
850.127	24487.73
850.311	23521.09
850.495	23568.2
850.678	23357.25
850.862	24340.28
851.046	24411.96
851.229	23572.29
851.413	23367.49
851.596	23846.72
851.78	23979.84
851.964	23766.85
852.147	23447.36
852.331	24090.43
852.514	23940.93
852.698	23465.8
852.881	23179.08
853.065	23772.99
853.248	23678.79
853.431	23533.38
853.615	23607.11
853.798	23977.79
853.982	23447.36
854.165	23123.79
854.348	23240.52
854.532	23484.23
854.715	23138.12
854.898	23117.64
855.081	23031.63
855.265	23379.78
855.448	23523.14
855.631	22679.38
855.814	23185.22
855.997	23443.27
856.181	23181.13
856.364	23191.37
856.547	22908.75
856.73	23158.6
856.913	22886.22
857.096	22482.77
857.279	23000.91
857.462	22744.91
857.645	23005
857.828	22636.37
858.011	22806.35
858.194	22454.1
858.377	22994.76
858.56	22560.59
858.743	22800.21
858.926	22536.02
859.109	22882.13
859.292	22368.09
859.475	22349.65
859.658	22962
859.841	22503.25
860.023	22161.24
860.206	22019.93
860.389	22462.29
860.572	22488.92
860.755	22314.84
860.937	21978.97
861.12	22210.39
861.303	22275.93
861.486	21749.6
861.668	21616.48
861.851	21952.35
862.034	21856.09
862.216	21794.65
862.399	21010.28
862.581	21677.92
862.764	21784.41
862.947	21495.65
863.129	21303.14
863.312	21292.9
863.494	21819.23
863.677	21522.27
863.859	21268.33
864.042	21925.72
864.224	22028.12
864.406	21294.95
864.589	20952.94
864.771	21628.77
864.954	21178.22
865.136	20934.51
865.318	20848.49
865.501	21084.01
865.683	21124.97
865.865	21210.98
866.048	20981.61
866.23	21172.07
866.412	21165.93
866.594	20348.79
866.777	21143.4
866.959	21061.48
867.141	20623.22
867.323	20334.45
867.505	20688.75
867.687	20539.25
867.869	20803.44
868.052	20731.76
868.234	20336.5
868.416	20506.48
868.598	20940.65
868.78	20629.36
868.962	20737.9
869.144	20752.24
869.326	20553.59
869.508	20655.98
869.69	20305.78
869.872	20567.92
870.054	20920.17
870.236	20199.29
870.417	20492.15
870.599	20486
870.781	20981.61
870.963	20359.03
871.145	20197.24
871.327	20506.48
871.508	20551.54
871.69	20041.59
871.872	20406.13
872.054	20596.59
872.235	20641.65
872.417	20223.86
872.599	19947.39
872.78	21131.11
872.962	20404.08
873.144	20299.64
873.325	20490.1
873.507	20737.9
873.689	20420.47
873.87	20266.87
874.052	20453.23
874.233	20418.42
874.415	20221.81
874.596	20430.71
874.778	20322.16
874.959	20789.1
875.141	20707.18
875.322	20371.32
875.503	20127.61
875.685	20817.77
875.866	20045.69
876.048	20238.2
876.229	20137.85
876.41	20344.69
876.592	20602.74
876.773	20207.48
876.954	19888
877.136	20825.96
877.317	20322.16
877.498	20252.53
877.679	20367.22
877.86	20436.85
878.042	20520.82
878.223	20168.57
878.404	20606.83
878.585	20606.83
878.766	20969.32
878.947	20508.53
879.128	20920.17
879.309	20918.12
879.49	20811.63
879.672	20524.91
879.853	20666.22
880.034	20711.28
880.215	20807.53
880.396	20821.87
880.576	20680.56
880.757	20758.38
880.938	20811.63
881.119	20911.98
881.3	20627.31
881.481	20864.88
881.662	21897.05
881.843	20770.67
882.023	20424.56
882.204	20922.22
882.385	21380.96
882.566	20768.62
882.747	21061.48
882.927	21053.29
883.108	21188.46
883.289	21159.78
883.469	21299.05
883.65	21038.95
883.831	21346.15
884.011	21509.99
884.192	21335.91
884.373	21899.1
884.553	21669.73
884.734	21548.9
884.914	21395.3
885.095	22304.6
885.275	21907.29
885.456	21401.44
885.636	21170.02
885.817	21411.68
885.997	21765.98
886.178	21700.45
886.358	21673.82
886.538	21909.34
886.719	22751.06
886.899	21639.01
887.08	21761.89
887.26	22122.33
887.44	21614.43
887.621	21456.74
887.801	21520.23
887.981	22706
888.161	22056.79
888.342	21976.92
888.522	21731.17
888.702	21968.73
888.882	22171.48
889.062	21997.4
889.242	21833.57
889.423	22126.43
889.603	22120.28
889.783	22050.65
889.963	21544.8
890.143	22230.87
890.323	22120.28
890.503	21497.7
890.683	21661.54
890.863	22245.21
891.043	21929.82
891.223	22017.88
891.403	21903.2
891.583	21897.05
891.763	22011.74
891.943	21700.45
892.122	21608.29
892.302	21911.39
892.482	21561.19
892.662	21821.28
892.842	21901.15
893.022	21970.78
893.201	21737.31
893.381	21808.99
893.561	21366.63
893.741	21927.77
893.92	21905.24
894.1	21577.57
894.28	21604.19
894.459	21626.72
894.639	21776.22
894.819	21417.83
894.998	21317.48
895.178	21655.39
895.357	21796.7
895.537	21147.5
895.716	21434.21
895.896	21858.14
896.075	21802.85
896.255	21170.02
896.434	20954.99
896.614	21985.12
896.793	22024.03
896.973	21383.01
897.152	21315.43
897.331	21423.97
897.511	22046.55
897.69	20907.88
897.87	21286.76
898.049	21581.67
898.228	21518.18
898.407	21354.34
898.587	21196.65
898.766	21127.02
898.945	21223.27
899.124	20866.92
899.304	21032.81
899.483	21018.47
899.662	21800.8
899.841	20715.37
900.02	20858.73
900.199	21112.68
900.378	20823.92
900.557	20627.31
900.737	20381.56
900.916	20877.16
901.095	20948.84
901.274	20381.56
901.453	20100.98
901.632	20230.01
901.811	20068.22
901.989	20092.79
902.168	19904.38
902.347	20545.39
902.526	20100.98
902.705	19738.49
902.884	19906.43
903.063	20060.02
903.242	19859.32
903.42	19509.12
903.599	19617.66
903.778	19763.07
903.957	19898.24
904.135	19746.69
904.314	19292.04
904.493	19664.77
904.672	19644.29
904.85	19077
905.029	19314.56
905.207	19484.55
905.386	20076.41
905.565	18751.37
905.743	18823.05
905.922	18679.69
906.1	18851.72
906.279	18339.73
906.457	18419.6
906.636	18751.37
906.814	18407.31
906.993	18147.22
907.171	18263.96
907.35	18675.6
907.528	18575.25
907.707	18091.93
907.885	17840.03
908.063	18392.98
908.242	17684.38
908.42	17643.42
908.598	17239.97
908.777	17659.81
908.955	17856.41
909.133	17596.32
909.311	17475.49
909.49	17776.54
909.668	18018.2
909.846	17778.59
910.024	17426.34
910.202	18116.5
910.38	17979.29
910.559	17620.89
910.737	17815.45
910.915	18214.8
911.093	18263.96
911.271	18153.37
911.449	18102.17
911.627	18360.21
911.805	18790.28
911.983	18214.8
912.161	18196.37
912.339	18599.82
912.517	18794.38
912.695	18513.81
912.872	18462.61
913.05	18522
913.228	18427.79
913.406	18577.3
913.584	18503.57
913.762	18952.07
913.939	18722.7
914.117	18601.87
914.295	18347.92
914.473	18765.71
914.65	18870.15
914.828	18364.31
915.006	18431.89
915.184	18216.85
915.361	18741.13
915.539	18556.82
915.716	18591.63
915.894	18640.78
916.072	18890.63
916.249	18431.89
916.427	18573.2
916.604	18175.89
916.782	18634.64
916.959	18007.96
917.137	18268.05
917.314	18636.69
917.492	18384.79
917.669	18169.75
917.847	18116.5
918.024	18517.9
918.201	18130.84
918.379	17983.38
918.556	18030.49
918.733	18395.03
918.911	17999.77
919.088	17967
919.265	18061.21
919.442	17956.76
919.62	17934.23
919.797	17702.81
919.974	17424.29
920.151	17895.32
920.328	17452.96
920.506	17518.5
920.683	17663.9
920.86	17653.66
921.037	17653.66
921.214	17432.48
921.391	17313.7
921.568	17760.16
921.745	17399.71
921.922	17278.88
922.099	16934.82
922.276	17960.86
922.453	17518.5
922.63	17332.13
922.807	17612.7
922.984	17653.66
923.161	17252.26
923.338	17037.22
923.514	16947.11
923.691	17123.24
923.868	17379.23
924.045	16838.57
924.222	16762.79
924.399	17174.44
924.575	17098.66
924.752	16670.64
924.929	16940.97
925.105	16793.51
925.282	16789.42
925.459	16689.07
925.635	16940.97
925.812	16902.06
925.989	16433.07
926.165	16572.33
926.342	16261.04
926.518	16357.3
926.695	16293.81
926.871	16041.91
927.048	16150.45
927.224	16578.48
927.401	16127.92
927.577	16254.9
927.754	15943.61
927.93	16226.23
928.107	16070.58
928.283	15540.16
928.459	15753.15
928.636	15830.97
928.812	15564.73
928.988	15355.84
929.165	15329.22
929.341	15624.12
929.517	15669.18
929.693	15720.38
929.87	15245.25
930.046	15816.63
930.222	15466.43
930.398	15062.98
930.574	15321.02
930.751	15411.14
930.927	14972.87
931.103	15048.65
931.279	15073.22
931.455	14784.46
931.631	14966.73
931.807	14729.16
931.983	14630.86
932.159	14573.52
932.335	14819.27
932.511	14452.69
932.687	14505.93
932.863	14606.28
933.039	14315.47
933.215	14098.39
933.391	13985.75
933.566	14202.83
933.742	14190.55
933.918	13875.16
934.094	13494.24
934.27	13797.34
934.445	13830.1
934.621	13443.04
934.797	13234.14
934.973	13621.21
935.148	13625.31
935.324	12787.69
935.5	12453.87
935.675	13191.14
935.851	12972
936.027	12337.13
936.202	12363.76
936.378	12333.04
936.553	12066.8
936.729	12347.37
936.904	11802.61
937.08	11522.04
937.255	11309.05
937.431	10909.7
937.606	10878.98
937.782	10930.18
937.957	11042.82
938.133	10645.51
938.308	10455.05
938.483	10557.45
938.659	10301.45
938.834	10090.51
939.009	9850.9
939.185	9682.97
939.36	9555.99
939.535	9216.03
939.71	9670.68
939.886	9721.88
940.061	9662.49
940.236	9195.55
940.411	9205.79
940.586	9220.13
940.761	9209.89
940.937	8867.88
941.112	8669.22
941.287	8902.69
941.462	8898.59
941.637	8558.63
941.812	8585.26
941.987	8757.29
942.162	8593.45
942.337	8345.64
942.512	8271.92
942.687	8568.87
942.862	8845.35
943.037	8069.17
943.212	7829.56
943.386	8339.5
943.561	8161.33
943.736	8306.73
943.911	8294.44
944.086	8466.47
944.26	8343.6
944.435	8015.92
944.61	8208.43
944.785	8560.68
944.959	8456.23
945.134	7964.72
945.309	8044.59
945.483	7905.33
945.658	8233.01
945.833	7589.94
946.007	7934
946.182	8562.73
946.357	7751.73
946.531	7749.68
946.706	7919.67
946.88	7778.36
947.055	8325.16
947.229	7948.34
947.404	8034.35
947.578	8583.21
947.752	8065.07
947.927	7843.89
948.101	8036.4
948.276	8343.6
948.45	8333.36
948.624	8265.77
948.799	8257.58
948.973	8464.43
949.147	8196.14
949.321	8202.29
949.496	8261.68
949.67	8663.08
949.844	8368.17
950.018	8349.74
950.193	8349.74
950.367	8851.49
950.541	8423.47
950.715	8546.34
950.889	8566.82
951.063	8605.74
951.237	8831.01
951.411	8194.09
951.585	8372.27
951.759	8812.58
951.933	8661.03
952.107	9013.28
952.281	8826.92
952.455	9443.35
952.629	9213.98
952.803	8781.86
952.977	8577.06
953.151	8900.64
953.325	9015.33
953.499	8978.47
953.672	8708.13
953.846	8697.89
954.02	8912.93
954.194	8704.04
954.368	8663.08
954.541	9246.75
954.715	8843.3
954.889	9080.86
955.062	8615.98
955.236	8962.08
955.41	8912.93
955.583	9187.36
955.757	8861.73
955.93	8937.51
956.104	9091.1
956.278	8933.41
956.451	8890.4
956.625	9250.85
956.798	9750.55
956.972	9291.8
957.145	8738.85
957.319	9226.27
957.492	9275.42
957.665	9101.34
957.839	8974.37
958.012	9230.37
958.185	8951.84
958.359	9015.33
958.532	9125.92
958.705	9312.28
958.879	9449.5
959.052	9058.34
959.225	8869.92
959.398	9138.21
959.572	9388.06
959.745	9089.06
959.918	9052.19
960.091	9158.69
960.264	9400.35
960.438	9056.29
960.611	9121.82
960.784	9488.41
960.957	9000.99
961.13	9594.9
961.303	8933.41
961.476	9433.11
961.649	9521.18
961.822	9132.06
961.995	9236.51
962.168	9330.72
962.341	9343
962.514	8988.71
962.686	9048.1
962.859	9203.74
963.032	9197.6
963.205	8886.31
963.378	8673.32
963.551	9211.93
963.723	9121.82
963.896	9025.57
964.069	8931.36
964.242	9246.75
964.414	9254.94
964.587	9099.3
964.76	9076.77
964.932	9281.57
965.105	9207.84
965.278	9060.38
965.45	8886.31
965.623	9224.22
965.795	9179.17
965.968	8904.74
966.14	9068.58
966.313	9222.17
966.485	9222.17
966.658	8919.07
966.83	8839.2
967.003	9435.16
967.175	9263.13
967.348	8843.3
967.52	8781.86
967.692	9412.64
967.865	9127.97
968.037	8923.17
968.209	9058.34
968.382	9056.29
968.554	9224.22
968.726	8908.83
968.898	8800.29
969.071	9031.71
969.243	9084.96
969.415	8826.92
969.587	8820.77
969.759	9527.32
969.932	9037.86
970.104	8716.33
970.276	8327.21
970.448	8730.66
970.62	8708.13
970.792	8773.67
970.964	8669.22
971.136	9398.3
971.308	8878.12
971.48	8548.39
971.652	8402.99
971.824	8886.31
971.996	8491.05
972.168	8462.38
972.339	8482.86
972.511	8781.86
972.683	8704.04
972.855	8392.75
973.027	8458.28
973.199	8495.15
973.37	8777.76
973.542	8515.62
973.714	8241.2
973.886	8263.72
974.057	8593.45
974.229	8171.57
974.401	8130.61
974.572	8386.6
974.744	7944.24
974.915	8081.46
975.087	8015.92
975.259	8513.58
975.43	8159.28
975.602	8222.77
975.773	7919.67
975.945	8038.45
976.116	8355.88
976.288	7884.85
976.459	8093.74
976.63	8108.08
976.802	8134.7
976.973	7999.54
977.145	8030.26
977.316	8523.82
977.487	8282.16
977.659	7991.34
977.83	7907.38
978.001	8329.26
978.172	8040.5
978.344	7671.86
978.515	7778.36
978.686	7794.74
978.857	8288.3
979.028	7815.22
979.2	7714.87
979.371	8097.84
979.542	7835.7
979.713	7751.73
979.884	7206.97
980.055	7583.8
980.226	7686.2
980.397	7655.48
980.568	7481.4
980.739	8038.45
980.91	7694.39
981.081	7587.89
981.252	7235.64
981.423	7684.15
981.594	7823.41
981.765	7417.91
981.936	7411.77
982.106	7526.46
982.277	7727.16
982.448	7352.38
982.619	7460.92
982.79	7524.41
982.96	7847.99
983.131	7495.74
983.302	7014.46
983.472	7372.86
983.643	7403.58
983.814	7366.71
983.984	7120.96
984.155	7166.01
984.326	7696.44
984.496	7137.34
984.667	6910.02
984.837	7114.81
985.008	7483.45
985.178	7071.81
985.349	7120.96
985.519	7231.55
985.69	6783.04
985.86	6778.95
986.031	6846.53
986.201	7086.14
986.371	6918.21
986.542	6664.26
986.712	6688.84
986.882	7002.18
987.053	6920.26
987.223	6709.32
987.393	6817.86
987.563	6778.95
987.734	6977.6
987.904	7026.75
988.074	6434.89
988.244	6803.52
988.414	6539.33
988.585	6400.07
988.755	6549.57
988.925	6447.18
989.095	7110.72
989.265	6391.88
989.435	6590.53
989.605	6668.36
989.775	6570.05
989.945	6733.89
990.115	6111.31
990.285	6443.08
990.455	6543.43
990.625	6504.52
990.795	6180.94
990.965	6701.12
991.134	6170.7
991.304	6289.48
991.474	6307.91
991.644	6467.66
991.814	6664.26
991.984	6099.02
992.153	6027.34
992.323	5902.42
992.493	6279.24
992.662	5888.08
992.832	6127.69
993.002	6322.25
993.171	6283.34
993.341	5834.83
993.511	6035.53
993.68	5933.14
993.85	6332.49
994.019	5646.42
994.189	5683.28
994.358	6142.03
994.528	5791.83
994.697	5472.34
994.867	5558.36
995.036	5902.42
995.206	5781.59
995.375	5580.89
995.544	5701.72
995.714	5812.31
995.883	5621.84
996.052	5589.08
996.222	5202.01
996.391	6281.29
996.56	5605.46
996.73	5539.93
996.899	5312.6
997.068	5861.46
997.237	5697.62
997.406	5341.27
997.576	5140.57
997.745	5404.76
997.914	5560.41
998.083	5122.14
998.252	5259.35
998.421	5443.67
998.59	5214.3
998.759	5144.67
998.928	4997.21
999.097	5693.52
999.266	5453.91
999.435	5218.4
999.604	4878.43
999.773	5787.73
999.942	5199.96
1000.111	4864.1
1000.28	4909.15
1000.448	5075.04
1000.617	5019.74
1000.786	5015.65
1000.955	4710.5
1001.124	5179.48
1001.292	5763.15
1001.461	4698.21
1001.63	4724.83
1001.798	5353.56
1001.967	5341.27
1002.136	4474.98
1002.304	4601.96
1002.473	4917.34
1002.642	5029.98
1002.81	4755.55
1002.979	4587.62
1003.147	4954.21
1003.316	5550.17
1003.484	4597.86
1003.653	4657.25
1003.821	5058.65
1003.99	4714.59
1004.158	4612.2
1004.327	4649.06
1004.495	4816.99
1004.663	4444.26
1004.832	4474.98
1005	4038.77
1005.168	4704.35
1005.337	4571.24
1005.505	4161.64
1005.673	4438.12
1005.842	4730.98
1006.01	4751.46
1006.178	4178.03
1006.346	4124.78
1006.514	4579.43
1006.683	4919.39
1006.851	4173.93
1007.019	4229.23
1007.187	4294.76
1007.355	4018.29
1007.523	3973.23
1007.691	4006
1007.859	4149.36
1008.027	4558.95
1008.195	4114.54
1008.363	3795.06
1008.531	4522.09
1008.699	4020.33
1008.867	3934.32
1009.035	3907.7
1009.203	4382.82
1009.37	4112.49
1009.538	3780.72
1009.706	4298.86
1009.874	4221.03
1010.042	4042.86
1010.209	3752.05
1010.377	3813.49
1010.545	4059.24
1010.713	4057.2
1010.88	3706.99
1011.048	3641.46
1011.216	3915.89
1011.383	4272.23
1011.551	3469.43
1011.718	3555.44
1011.886	4214.89
1012.054	4010.09
1012.221	3438.71
1012.389	3555.44
1012.556	3739.76
1012.724	4110.44
1012.891	3684.47
1013.058	3229.82
1013.226	3862.64
1013.393	3930.22
1013.561	3407.99
1013.728	3070.08
1013.895	3864.69
1014.063	3852.4
1014.23	3154.04
1014.397	3207.29
1014.565	3846.26
1014.732	3496.05
1014.899	3242.11
1015.066	3070.08
1015.233	3455.09
1015.401	3549.3
1015.568	3151.99
1015.735	3174.52
1015.902	3399.8
1016.069	3348.6
1016.236	3111.04
1016.403	2891.9
1016.57	3022.97
1016.737	3455.09
1016.904	3098.75
1017.071	2826.37
1017.238	3147.9
1017.405	3444.85
1017.572	2998.4
1017.739	3068.03
1017.906	3227.77
1018.073	3432.57
1018.24	2928.77
1018.407	3057.79
1018.573	3393.65
1018.74	3115.13
1018.907	2910.33
1019.074	2603.14
1019.241	3395.7
1019.407	3158.14
1019.574	2705.54
1019.741	2633.86
1019.907	3000.44
1020.074	3137.66
1020.241	2381.96
1020.407	2711.68
1020.574	3102.84
1020.74	3154.04
1020.907	2633.86
1021.073	2531.46
1021.24	3244.15
1021.406	3258.49
1021.573	2531.46
1021.739	2427.01
1021.906	3145.85
1022.072	2900.09
1022.239	2549.89
1022.405	2394.25
1022.571	2914.43
1022.738	2463.88
1022.904	2508.93
1023.07	2396.29
1023.237	2844.8
1023.403	2797.7
1023.569	2422.92
1023.735	2390.15
1023.902	2633.86
1024.068	2742.4
1024.234	2238.6
1024.4	2343.05
1024.566	2771.07
1024.732	2836.61
1024.898	2392.2
1025.065	2197.64
1025.231	2883.71
1025.397	2445.45
1025.563	2330.76
1025.729	2308.23
1025.895	2138.25
1026.061	2455.69
1026.227	2173.07
1026.392	2154.63
1026.558	2766.98
1026.724	2640
1026.89	2183.31
1027.056	2238.6
1027.222	2621.57
1027.388	2492.55
1027.553	2072.72
1027.719	2085
1027.885	2848.9
1028.051	2547.84
1028.216	1910.93
1028.382	2039.95
1028.548	2484.36
1028.713	2244.74
1028.879	1994.89
1029.045	2273.42
1029.21	2719.87
1029.376	2547.84
1029.541	2039.95
1029.707	2103.43
1029.873	2449.54
1030.038	2597
1030.204	1904.78
1030.369	1988.75
1030.534	2476.16
1030.7	2111.63
1030.865	1876.11
1031.031	1878.16
1031.196	2285.7
1031.361	2242.7
1031.527	1872.01
1031.692	1892.49
1031.857	1816.72
1032.023	2232.46
1032.188	1781.9
1032.353	2003.08
1032.518	2545.8
1032.684	2064.52
1032.849	1632.4
1033.014	1806.48
1033.179	2291.85
1033.344	2156.68
1033.509	1845.39
1033.674	1804.43
1033.839	2275.46
1034.004	2160.78
1034.17	1605.78
1034.335	1681.55
1034.5	1937.55
1034.664	1951.88
1034.829	1634.45
1034.994	1763.47
1035.159	2056.33
1035.324	2144.39
1035.489	1650.83
1035.654	1605.78
1035.819	2281.61
1035.984	1953.93
1036.148	1687.7
1036.313	1697.94
1036.478	2171.02
1036.643	1992.84
1036.807	1544.34
1036.972	1550.48
1037.137	2162.83
1037.301	1974.41
1037.466	1435.8
1037.631	1595.54
1037.795	2166.92
1037.96	1835.15
1038.124	1661.07
1038.289	1411.22
1038.454	1884.3
1038.618	1990.8
1038.783	1501.33
1038.947	1577.11
1039.111	1806.48
1039.276	1628.31
1039.44	1394.84
1039.605	1800.34
1039.769	1728.66
1039.933	1605.78
1040.098	1491.09
1040.262	1611.92
1040.426	1937.55
1040.591	1880.21
1040.755	1437.84
1040.919	1329.3
1041.083	1675.41
1041.248	1593.49
1041.412	1226.9
1041.576	1329.3
1041.74	1544.34
1041.904	1927.31
1042.068	1214.62
1042.232	1333.4
1042.397	1720.46
1042.561	1761.42
1042.725	1052.83
1042.889	1491.09
1043.053	1751.18
1043.217	1695.89
1043.381	1372.31
1043.544	1106.07
1043.708	1855.63
1043.872	1267.86
1044.036	983.2
1044.2	1095.83
1044.364	1716.37
1044.528	1857.68
1044.691	5488.73
1044.855	1112.22
1045.019	1771.66
1045.183	1538.2
1045.346	1171.61
1045.51	1040.54
1045.674	1611.92
1045.837	1661.07
1046.001	1153.18
1046.165	1226.9
1046.328	1923.21
1046.492	1558.67
1046.655	1306.77
1046.819	1181.85
1046.983	1239.19
1047.146	1501.33
1047.31	1071.26
1047.473	878.75
1047.636	1345.69
1047.8	1222.81
1047.963	907.42
1048.127	1028.25
1048.29	1155.23
