Data from Hydrogel_Ink_Intensity_Test_1_USB4F045381__14__00014.txt Node

Date: Mon Jul 31 10:37:58 EDT 2023
User: mmckonesweet
Spectrometer: USB4F04538
Trigger mode: 4
Integration Time (sec): 9.000000E-1
Scans to average: 1
Electric dark correction enabled: true
Nonlinearity correction enabled: false
Boxcar width: 0
XAxis mode: Wavelengths
Number of Pixels in Spectrum: 3648
>>>>>Begin Spectral Data<<<<<
345.52	-946.33
345.736	-946.33
345.952	-946.33
346.168	-948.38
346.384	-1015.96
346.6	-110.76
346.816	-237.74
347.032	-282.79
347.248	261.97
347.464	-198.82
347.68	-45.23
347.896	67.41
348.112	380.75
348.328	-53.42
348.544	-123.05
348.76	98.13
348.975	243.54
349.191	-338.09
349.407	-102.57
349.623	22.36
349.839	-65.71
350.055	-98.47
350.27	116.56
350.486	243.54
350.702	440.14
350.918	239.44
351.133	-114.86
351.349	153.43
351.565	352.08
351.781	-123.05
351.996	79.7
352.212	339.79
352.428	12.12
352.644	-73.9
352.859	-133.29
353.075	319.31
353.291	-37.03
353.506	-77.99
353.722	-161.96
353.938	-86.19
354.153	468.81
354.369	194.39
354.584	-12.46
354.8	362.32
355.016	-186.54
355.231	-147.62
355.447	75.6
355.662	153.43
355.878	950.09
356.093	-266.41
356.309	40.79
356.524	-135.34
356.74	247.63
356.955	-116.9
357.171	32.6
357.386	149.33
357.602	-92.33
357.817	16.21
358.033	-90.28
358.248	356.18
358.464	208.72
358.679	-8.36
358.895	-233.64
359.11	36.69
359.325	388.94
359.541	345.94
359.756	143.19
359.972	-166.06
360.187	294.74
360.402	-61.61
360.618	-55.47
360.833	986.95
361.048	182.1
361.264	-127.14
361.479	-34.99
361.694	28.5
361.909	315.22
362.125	-106.67
362.34	8.02
362.555	212.82
362.77	196.43
362.986	-123.05
363.201	-53.42
363.416	233.3
363.631	98.13
363.847	-92.33
364.062	-82.09
364.277	268.11
364.492	223.06
364.707	-28.84
364.922	-325.8
365.138	307.02
365.353	423.76
365.568	-98.47
365.783	51.03
365.998	46.93
366.213	651.08
366.428	-149.67
366.643	147.28
366.858	448.33
367.073	362.32
367.288	34.64
367.503	-127.14
367.718	184.15
367.933	405.33
368.148	-155.82
368.363	57.17
368.578	-18.6
368.793	558.92
369.008	-20.65
369.223	-118.95
369.438	239.44
369.653	505.68
369.868	-90.28
370.083	-88.23
370.298	137.04
370.513	524.11
370.728	206.67
370.943	-26.79
371.157	-39.08
371.372	560.97
371.587	-121
371.802	-92.33
372.017	194.39
372.232	558.92
372.446	77.65
372.661	-129.19
372.876	352.08
373.091	253.78
373.306	73.56
373.52	-26.79
373.735	-14.51
373.95	591.69
374.165	22.36
374.379	-6.31
374.594	-55.47
374.809	188.24
375.023	216.91
375.238	-90.28
375.453	360.27
375.667	-116.9
375.882	-0.17
376.097	-26.79
376.311	173.91
376.526	110.42
376.741	-16.55
376.955	302.93
377.17	745.29
377.384	700.23
377.599	24.4
377.813	-63.66
378.028	644.94
378.242	409.42
378.457	135
378.672	-161.96
378.886	327.5
379.101	114.52
379.315	-178.34
379.53	112.47
379.744	311.12
379.958	356.18
380.173	-30.89
380.387	3.93
380.602	304.98
380.816	32.6
381.031	48.98
381.245	73.56
381.459	298.83
381.674	2694.96
381.888	77.65
382.103	294.74
382.317	102.23
382.531	771.91
382.746	137.04
382.96	53.08
383.174	106.32
383.388	608.08
383.603	261.97
383.817	-18.6
384.031	386.9
384.246	692.04
384.46	208.72
384.674	513.87
384.888	235.35
385.103	253.78
385.317	-28.84
385.531	200.53
385.745	565.07
385.959	597.84
386.174	59.22
386.388	18.26
386.602	286.54
386.816	206.67
387.03	188.24
387.244	235.35
387.458	372.56
387.672	583.5
387.887	57.17
388.101	20.31
388.315	579.4
388.529	350.03
388.743	149.33
388.957	67.41
389.171	679.75
389.385	81.75
389.599	200.53
389.813	343.89
390.027	448.33
390.241	884.55
390.455	212.82
390.669	270.16
390.883	210.77
391.097	771.91
391.311	331.6
391.525	139.09
391.738	515.92
391.952	507.73
392.166	286.54
392.38	87.89
392.594	618.32
392.808	683.85
393.022	241.49
393.236	302.93
393.449	472.91
393.663	397.14
393.877	159.57
394.091	331.6
394.305	278.35
394.518	231.25
394.732	143.19
394.946	173.91
395.16	835.4
395.373	401.23
395.587	249.68
395.801	218.96
396.015	712.52
396.228	601.93
396.442	102.23
396.656	102.23
396.869	722.76
397.083	841.54
397.297	333.65
397.51	274.26
397.724	739.15
397.938	581.45
398.151	190.29
398.365	212.82
398.578	638.8
398.792	708.43
399.005	403.28
399.219	276.31
399.433	644.94
399.646	667.47
399.86	497.49
400.073	393.04
400.287	616.27
400.5	421.71
400.714	442.19
400.927	372.56
401.141	712.52
401.354	1453.89
401.567	675.66
401.781	200.53
401.994	814.92
402.208	1021.77
402.421	335.7
402.635	358.22
402.848	614.22
403.061	749.39
403.275	550.73
403.488	300.88
403.701	1011.53
403.915	778.06
404.128	581.45
404.341	345.94
404.555	735.05
404.768	534.35
404.981	565.07
405.195	329.55
405.408	1052.49
405.621	847.69
405.834	692.04
406.048	413.52
406.261	958.28
406.474	1019.72
406.687	419.66
406.9	679.75
407.114	659.28
407.327	716.62
407.54	429.9
407.753	333.65
407.966	427.85
408.179	870.22
408.392	442.19
408.605	329.55
408.819	870.22
409.032	870.22
409.245	393.04
409.458	679.75
409.671	839.5
409.884	960.33
410.097	431.95
410.31	720.71
410.523	823.11
410.736	733
410.949	583.5
411.162	601.93
411.375	1144.64
411.588	1068.87
411.801	806.73
412.014	548.68
412.227	708.43
412.44	700.23
412.653	640.84
412.865	761.67
413.078	1009.48
413.291	958.28
413.504	632.65
413.717	534.35
413.93	1003.33
414.143	608.08
414.356	610.12
414.568	489.29
414.781	1101.64
414.994	945.99
415.207	696.14
415.42	714.57
415.632	1138.5
415.845	1376.06
416.058	634.7
416.271	528.21
416.483	794.44
416.696	1304.39
416.909	749.39
417.121	675.66
417.334	1091.4
417.547	1488.7
417.759	739.15
417.972	720.71
418.185	837.45
418.397	1175.36
418.61	700.23
418.823	778.06
419.035	1294.15
419.248	966.47
419.46	890.7
419.673	958.28
419.885	1242.95
420.098	862.02
420.311	900.94
420.523	589.64
420.736	1126.21
420.948	939.85
421.161	890.7
421.373	710.47
421.586	1113.92
421.798	966.47
422.01	712.52
422.223	1019.72
422.435	872.26
422.648	1218.37
422.86	829.26
423.073	911.18
423.285	1357.63
423.497	857.93
423.71	921.42
423.922	880.46
424.134	1337.15
424.347	1457.98
424.559	1052.49
424.771	1269.57
424.984	1085.25
425.196	1173.32
425.408	909.13
425.621	876.36
425.833	1470.27
426.045	1513.28
426.257	935.75
426.47	989
426.682	1326.91
426.894	1462.08
427.106	1003.33
427.318	1083.2
427.531	1087.3
427.743	1464.13
427.955	1054.53
428.167	1376.06
428.379	1410.88
428.591	1265.47
428.804	1236.8
429.016	1085.25
429.228	1025.86
429.44	1453.89
429.652	1251.14
429.864	1013.57
430.076	1308.48
430.288	1298.24
430.5	1201.99
430.712	1269.57
430.924	1650.49
431.136	1402.69
431.348	1085.25
431.56	1226.56
431.772	1490.75
431.984	1457.98
432.196	1273.67
432.408	1238.85
432.62	1331.01
432.832	1560.38
433.044	1634.11
433.256	1470.27
433.468	1716.03
433.679	1163.08
433.891	1255.23
434.103	1654.59
434.315	1912.63
434.527	1828.67
434.739	1490.75
434.95	1554.24
435.162	1705.79
435.374	1480.51
435.586	1503.04
435.798	1468.22
436.009	1371.97
436.221	1574.72
436.433	1433.41
436.645	1343.3
436.856	1584.96
437.068	2027.32
437.28	1449.79
437.491	1802.04
437.703	1892.15
437.915	1845.05
438.126	1640.25
438.338	1736.51
438.55	1843
438.761	1941.3
438.973	1716.03
439.184	1572.67
439.396	1875.77
439.608	2064.18
439.819	1525.57
440.031	1744.7
440.242	2047.8
440.454	2182.96
440.665	1756.99
440.877	1871.67
441.088	1982.26
441.3	1853.24
441.511	1589.05
441.723	1705.79
441.934	1988.41
442.146	1881.91
442.357	2053.94
442.569	1969.98
442.78	1982.26
442.991	2406.19
443.203	2152.24
443.414	1697.6
443.626	2238.26
443.837	1926.97
444.048	1791.8
444.26	1763.13
444.471	2019.13
444.682	2346.8
444.894	1695.55
445.105	1812.28
445.316	2395.95
445.528	2248.5
445.739	2035.51
445.95	2084.66
446.161	2266.93
446.373	2266.93
446.584	1939.26
446.795	1947.45
447.006	2213.68
447.217	2649.9
447.429	1888.06
447.64	1994.55
447.851	2490.16
448.062	2187.06
448.273	1828.67
448.484	2090.81
448.695	2416.43
448.907	2260.79
449.118	2131.76
449.329	2322.23
449.54	2142
449.751	2139.96
449.962	2133.81
450.173	2207.54
450.384	2625.33
450.595	2819.88
450.806	2258.74
451.017	2223.92
451.228	2606.89
451.439	2658.09
451.65	2289.46
451.861	2029.37
452.072	2447.15
452.283	2481.97
452.494	2383.66
452.705	2244.4
452.915	2864.94
453.126	2699.05
453.337	2436.91
453.548	2367.28
453.759	2799.4
453.97	3196.71
454.181	2740.01
454.391	2428.72
454.602	2828.07
454.813	2953
455.024	2584.37
455.235	2514.73
455.445	2774.83
455.656	2854.7
455.867	2719.53
456.078	2635.57
456.288	2641.71
456.499	2918.18
456.71	2408.24
456.921	2801.45
457.131	3082.02
457.342	2811.69
457.553	2697
457.763	2764.59
457.974	3286.82
458.184	3073.83
458.395	2772.78
458.606	2660.14
458.816	3346.21
459.027	3667.74
459.237	3092.26
459.448	2731.82
459.659	3338.02
459.869	3798.81
460.08	2985.77
460.29	3252
460.501	3790.62
460.711	3147.56
460.922	3147.56
461.132	3211.04
461.343	3864.35
461.553	3180.32
461.764	3342.11
461.974	3145.51
462.184	3673.89
462.395	3589.92
462.605	3436.32
462.816	3120.93
463.026	3653.41
463.236	3792.67
463.447	3448.61
463.657	3292.96
463.867	3897.11
464.078	3626.78
464.288	3663.65
464.498	3788.57
464.709	3856.15
464.919	3782.43
465.129	3716.89
465.339	3643.17
465.55	4103.96
465.76	4110.1
465.97	3833.63
466.18	3688.22
466.391	4331.28
466.601	4159.25
466.811	3948.31
467.021	3919.64
467.231	4310.8
467.441	4476.69
467.651	4239.12
467.862	3985.18
468.072	4572.94
468.282	4800.27
468.492	4206.36
468.702	4411.15
468.912	4710.16
469.122	5263.11
469.332	4783.88
469.542	4427.54
469.752	5232.39
469.962	4976.39
470.172	4777.74
470.382	4792.08
470.592	5152.52
470.802	5275.4
471.012	5078.79
471.222	4896.52
471.432	5490.43
471.642	5437.19
471.852	5306.12
472.062	5119.75
472.272	5357.32
472.482	5271.3
472.691	5314.31
472.901	5240.58
473.111	5572.35
473.321	6246.13
473.531	5496.58
473.741	5834.49
473.95	6147.83
474.16	5953.27
474.37	6024.95
474.58	5814.01
474.79	6602.48
474.999	6532.85
475.209	6039.29
475.419	6168.31
475.628	6409.97
475.838	6741.74
476.048	6352.63
476.258	6469.36
476.467	6784.75
476.677	6729.45
476.886	6774.51
477.096	6956.78
477.306	6672.11
477.515	7298.79
477.725	7007.98
477.935	7073.51
478.144	7360.23
478.354	7227.11
478.563	7364.32
478.773	7175.91
478.982	7577.31
479.192	7917.28
479.401	7388.9
479.611	7356.13
479.82	7653.09
480.03	8074.97
480.239	7659.23
480.449	7706.34
480.658	8503
480.868	7984.86
481.077	8302.29
481.287	8048.35
481.496	8568.53
481.705	8806.09
481.915	8541.91
482.124	8333.01
482.333	8627.92
482.543	9172.68
482.752	8566.48
482.961	8732.37
483.171	9101
483.38	8906.45
483.589	8783.57
483.799	9045.71
484.008	9195.21
484.217	9643.71
484.426	9348.81
484.636	9119.43
484.845	9705.15
485.054	9101
485.263	9782.98
485.472	9594.56
485.682	10030.78
485.891	9909.95
486.1	9610.95
486.309	9696.96
486.518	10157.75
486.727	10231.48
486.936	9983.68
487.146	10141.37
487.355	10593.97
487.564	10186.43
487.773	10294.97
487.982	10370.74
488.191	10405.56
488.4	10598.07
488.609	10510
488.818	10612.4
489.027	11564.71
489.236	11370.15
489.445	10839.73
489.654	10809.01
489.863	11325.1
490.072	11288.23
490.281	11357.86
490.49	11163.31
490.698	11763.36
490.907	11878.05
491.116	11505.32
491.325	11378.34
491.534	12086.94
491.743	11826.85
491.952	11681.44
492.16	11746.98
492.369	12062.37
492.578	12238.49
492.787	11919.01
492.996	11986.59
493.204	11839.14
493.413	12861.07
493.622	11976.35
493.831	11898.53
494.039	12938.9
494.248	12445.34
494.457	12508.82
494.665	12328.6
494.874	12805.78
495.083	13104.78
495.291	12848.79
495.5	12744.34
495.709	13270.67
495.917	13029.01
496.126	12764.82
496.335	13006.48
496.543	13297.29
496.752	13278.86
496.96	13479.56
497.169	13069.97
497.377	13622.92
497.586	13958.78
497.794	13465.22
498.003	13434.5
498.211	13790.85
498.42	14182.01
498.628	13710.98
498.837	13532.81
499.045	13975.17
499.254	14151.29
499.462	14069.37
499.671	13868.67
499.879	14519.93
500.087	14595.7
500.296	13987.46
500.504	14190.2
500.713	14593.65
500.921	15296.11
501.129	14157.44
501.338	14323.32
501.546	14751.35
501.754	14950
501.962	14528.12
502.171	14589.56
502.379	15150.7
502.587	15394.41
502.795	14679.67
503.004	14644.85
503.212	14919.28
503.42	15146.61
503.628	14929.52
503.837	15195.76
504.045	15367.79
504.253	15937.12
504.461	15261.29
504.669	15148.65
504.877	15828.58
505.085	16037.47
505.294	15347.31
505.502	15611.5
505.71	15998.56
505.918	15896.16
506.126	15427.18
506.334	15511.14
506.542	16055.9
506.75	15824.48
506.958	15851.11
507.166	16004.71
507.374	15920.74
507.582	16580.18
507.79	15959.65
507.998	16135.78
508.206	16225.89
508.414	16594.52
508.622	16238.17
508.83	16197.21
509.037	16907.86
509.245	16211.55
509.453	16217.69
509.661	16410.2
509.869	16901.72
510.077	16635.48
510.285	16488.03
510.492	16215.65
510.7	17727.05
510.908	16717.4
511.116	16494.17
511.324	16500.31
511.531	17081.94
511.739	17012.31
511.947	17342.03
512.155	17026.64
512.362	17356.36
512.57	16891.48
512.778	16916.05
512.985	17145.42
513.193	17565.26
513.401	17819.21
513.608	17008.21
513.816	17286.73
514.024	17780.29
514.231	17698.38
514.439	17516.11
514.646	17460.81
514.854	17821.25
515.061	17954.37
515.269	17479.24
515.477	17716.81
515.684	17735.24
515.892	17954.37
516.099	17454.67
516.307	17811.01
516.514	18380.35
516.722	18390.59
516.929	18142.78
517.136	18026.05
517.344	18492.99
517.551	18370.11
517.759	17892.93
517.966	18112.06
518.173	18300.48
518.381	18628.15
518.588	18138.69
518.796	18376.25
519.003	19066.42
519.21	18587.19
519.418	18470.46
519.625	18542.14
519.832	18638.39
520.039	19074.61
520.247	18341.44
520.454	18810.42
520.661	19555.88
520.868	18918.96
521.076	19158.58
521.283	18878.01
521.49	19527.21
521.697	19191.34
521.904	19213.87
522.112	18912.82
522.319	19516.97
522.526	19424.81
522.733	19318.32
522.94	19342.89
523.147	19752.49
523.354	19889.7
523.561	19582.51
523.768	19615.27
523.975	20143.65
524.183	19996.2
524.39	19918.37
524.597	19541.55
524.804	19910.18
525.011	19928.61
525.218	19955.24
525.425	19985.96
525.632	20213.28
525.838	20024.87
526.045	19928.61
526.252	20098.59
526.459	21485.07
526.666	20864.53
526.873	20383.26
527.08	20303.39
527.287	20889.11
527.494	20461.09
527.701	20213.28
527.907	20629.02
528.114	21106.2
528.321	20917.78
528.528	20825.62
528.735	20958.74
528.941	20915.73
529.148	20733.46
529.355	20878.87
529.562	20682.27
529.768	21483.02
529.975	20719.13
530.182	20897.3
530.388	20913.69
530.595	21872.14
530.802	21016.08
531.008	21331.47
531.215	21386.77
531.422	21974.53
531.628	22345.22
531.835	21401.1
532.042	21599.76
532.248	21769.74
532.455	22232.58
532.661	21421.58
532.868	21689.87
533.074	22046.21
533.281	22113.8
533.487	22070.79
533.694	21804.55
533.9	22226.43
534.107	22109.7
534.313	21982.73
534.52	22126.08
534.726	22646.27
534.933	22869.5
535.139	22369.79
535.345	22078.98
535.552	22672.89
535.758	22595.07
535.965	22572.54
536.171	22382.08
536.377	23195.12
536.584	23098.87
536.79	22541.82
536.996	22894.07
537.203	22779.39
537.409	23016.95
537.615	22834.68
537.821	22939.13
538.028	23535.09
538.234	23412.21
538.44	23201.27
538.646	23295.47
538.853	23748.07
539.059	23107.06
539.265	23860.71
539.471	22951.42
539.677	23383.54
539.883	23782.89
540.09	23490.03
540.296	23840.23
540.502	23936.49
540.708	23737.84
540.914	23563.76
541.12	23705.07
541.326	24020.45
541.532	24034.79
541.738	24161.76
541.944	23973.35
542.15	24563.17
542.356	24442.34
542.562	23809.51
542.768	24229.35
542.974	25050.58
543.18	25257.43
543.386	24387.04
543.592	24454.62
543.798	24917.47
544.004	24923.61
544.21	24163.81
544.415	24765.92
544.621	24747.48
544.827	25062.87
545.033	24735.2
545.239	25107.93
545.445	25427.41
545.651	24825.31
545.856	24950.23
546.062	24866.27
546.268	24966.62
546.474	25310.68
546.679	25034.2
546.885	24964.57
547.091	24794.59
547.297	25740.75
547.502	24856.03
547.708	25155.03
547.914	25026.01
548.119	25683.41
548.325	25085.4
548.531	24729.05
548.736	25847.24
548.942	25587.15
549.147	25282
549.353	25439.7
549.559	26131.91
549.764	25652.69
549.97	25415.12
550.175	25593.29
550.381	26052.04
550.586	25329.11
550.792	25794
550.997	25781.71
551.203	25853.39
551.408	26330.56
551.614	25929.16
551.819	26123.72
552.025	26547.65
552.23	27092.41
552.435	26082.76
552.641	26762.68
552.846	26533.31
553.052	26717.63
553.257	26553.79
553.462	26660.29
553.668	26521.02
553.873	27135.42
554.078	26478.02
554.283	26420.67
554.489	27178.42
554.694	26660.29
554.899	26678.72
555.105	26750.4
555.31	27217.33
555.515	27661.74
555.72	27305.4
555.925	26744.25
556.131	27624.88
556.336	27280.82
556.541	27219.38
556.746	27243.96
556.951	27661.74
557.156	27989.42
557.361	27182.52
557.567	27577.78
557.772	27966.89
557.977	27870.64
558.182	27149.75
558.387	27387.32
558.592	27471.28
558.797	27821.48
559.002	27585.97
559.207	27860.4
559.412	27870.64
559.617	27925.93
559.822	27784.62
560.027	27915.69
560.232	28110.25
560.437	28110.25
560.642	27608.5
560.847	27850.16
561.051	28372.39
561.256	27952.55
561.461	27925.93
561.666	28200.36
561.871	28114.34
562.076	28435.88
562.281	28292.52
562.485	27839.92
562.69	28632.48
562.895	28478.88
563.1	28249.51
563.305	28073.38
563.509	28751.26
563.714	29173.14
563.919	28485.03
564.123	28480.93
564.328	28568.99
564.533	28695.97
564.737	27940.27
564.942	28480.93
565.147	29259.16
565.351	29355.41
565.556	28581.28
565.761	28548.51
565.965	28822.94
566.17	28691.87
566.374	28624.29
566.579	28839.33
566.784	29109.66
566.988	29126.04
567.193	28679.58
567.397	28757.41
567.602	29265.3
567.806	28972.44
568.011	29126.04
568.215	29482.39
568.42	29621.65
568.624	29257.11
568.828	29269.4
569.033	29283.73
569.237	29771.15
569.442	29773.2
569.646	29101.47
569.85	29484.44
570.055	29382.04
570.259	29928.84
570.463	29826.45
570.668	29494.68
570.872	29584.79
571.076	29629.84
571.281	29914.51
571.485	29853.07
571.689	29939.08
571.893	30354.82
572.098	29744.53
572.302	29851.02
572.506	30012.81
572.71	30133.64
572.914	30358.92
573.119	29814.16
573.323	30586.24
573.527	30375.3
573.731	30010.76
573.935	30059.91
574.139	30504.32
574.343	30219.66
574.547	30078.35
574.751	30401.93
574.955	31065.47
575.159	31090.04
575.364	30203.27
575.568	30264.71
575.772	30524.8
575.976	31118.71
576.18	30342.53
576.383	30465.41
576.587	31327.61
576.791	31081.85
576.995	30465.41
577.199	30999.93
577.403	30973.31
577.607	31524.21
577.811	31274.36
578.015	30918.01
578.219	31575.41
578.422	31415.67
578.626	31204.73
578.83	31346.04
579.034	31757.68
579.238	31151.48
579.442	31008.12
579.645	31374.71
579.849	31526.26
580.053	31731.06
580.257	31204.73
580.46	31501.68
580.664	31886.7
580.868	31878.51
581.071	31520.12
581.275	31421.81
581.479	31268.22
581.682	31489.4
581.886	31845.74
582.09	31616.37
582.293	32343.4
582.497	31978.86
582.7	31907.18
582.904	31763.82
583.107	32212.33
583.311	31956.33
583.515	31985.01
583.718	32021.87
583.922	32093.55
584.125	32472.42
584.329	31831.41
584.532	32146.79
584.735	32986.46
584.939	32367.98
585.142	31911.28
585.346	32163.18
585.549	32728.42
585.753	32195.95
585.956	32513.38
586.159	32961.89
586.363	33023.33
586.566	33193.31
586.769	32376.17
586.973	32189.8
587.176	33000.8
587.379	33103.2
587.582	33256.79
587.786	32828.77
587.989	33269.08
588.192	33676.63
588.395	32900.45
588.599	33103.2
588.802	33326.42
589.005	33555.8
589.208	33578.32
589.411	33443.16
589.615	33439.06
589.818	33774.93
590.021	33531.22
590.224	33613.14
590.427	33695.06
590.63	33650
590.833	33500.5
591.036	33484.12
591.239	34166.09
591.442	33738.07
591.645	34024.78
591.848	33924.43
592.051	33791.31
592.254	34002.25
592.457	33809.75
592.66	33852.75
592.863	34264.39
593.066	34141.52
593.269	34221.39
593.472	33979.73
593.675	34360.65
593.878	34841.92
594.081	34344.27
594.284	33932.62
594.486	34362.7
594.689	34925.89
594.892	34061.65
595.095	34696.52
595.298	34901.31
595.5	34657.6
595.703	34565.45
595.906	34678.08
596.109	35110.21
596.311	35396.92
596.514	34555.21
596.717	35204.41
596.92	35476.79
597.122	35366.2
597.325	34504.01
597.528	34639.17
597.73	35253.56
597.933	35142.97
598.136	35061.05
598.338	34751.81
598.541	35657.01
598.743	35534.14
598.946	35188.03
599.148	35241.28
599.351	35421.5
599.554	35818.8
599.756	35265.85
599.959	35736.88
600.161	35747.12
600.363	36203.82
600.566	35173.69
600.768	35654.97
600.971	35728.69
601.173	36042.03
601.376	35671.35
601.578	35585.33
601.78	36076.85
601.983	36236.59
602.185	35749.17
602.388	35812.66
602.59	35775.8
602.792	36201.77
602.995	35939.63
603.197	35937.58
603.399	36183.34
603.601	36191.53
603.804	35439.93
604.006	36068.65
604.208	35536.18
604.41	35781.94
604.613	35822.9
604.815	35693.88
605.017	36945.19
605.219	36128.05
605.421	36080.94
605.623	35968.3
605.826	36601.13
606.028	36603.17
606.23	36267.31
606.432	36113.71
606.634	36883.75
606.836	36564.26
607.038	35949.87
607.24	36500.78
607.442	36500.78
607.644	36758.82
607.846	36068.65
608.048	36189.49
608.25	36689.19
608.452	36392.23
608.654	36773.16
608.856	36154.67
609.058	36488.49
609.26	36926.75
609.462	36445.48
609.664	36463.91
609.866	36752.68
610.067	36896.03
610.269	36662.57
610.471	36257.07
610.673	36709.67
610.875	36670.76
611.077	36478.25
611.278	36830.5
611.48	36709.67
611.682	37217.57
611.884	37123.36
612.085	36492.58
612.287	36959.52
612.489	37072.16
612.69	36293.93
612.892	37084.45
613.094	37354.78
613.295	36932.9
613.497	36754.72
613.699	36844.84
613.9	37516.57
614.102	37115.17
614.304	36361.51
614.505	36199.72
614.707	36775.2
614.908	36998.43
615.11	36932.9
615.311	36918.56
615.513	36904.23
615.714	37152.03
615.916	37102.88
616.117	36957.47
616.319	37182.75
616.52	37397.79
616.722	36828.45
616.923	37072.16
617.124	37231.9
617.326	36828.45
617.527	36869.41
617.729	36992.29
617.93	37002.53
618.131	37485.85
618.333	36877.6
618.534	37190.94
618.735	36906.27
618.937	37684.5
619.138	36646.18
619.339	36812.07
619.54	37666.07
619.742	37506.33
619.943	37209.37
620.144	37152.03
620.345	37930.26
620.546	37782.8
620.748	37453.08
620.949	37285.15
621.15	37422.36
621.351	37344.54
621.552	37279
621.753	37057.82
621.954	37092.64
622.155	37993.75
622.356	37082.4
622.558	37031.2
622.759	37625.11
622.96	38208.78
623.161	37205.28
623.362	37211.42
623.563	37590.3
623.764	37362.97
623.965	37684.5
624.166	37975.31
624.366	37555.48
624.567	37444.89
624.768	37125.41
624.969	37279
625.17	37545.24
625.371	37809.43
625.572	37401.88
625.773	37287.2
625.973	38065.42
626.174	38090
626.375	37475.61
626.576	37358.88
626.777	38090
626.977	38092.05
627.178	37735.7
627.379	37422.36
627.58	37416.22
627.78	37885.2
627.981	37684.5
628.182	37829.91
628.382	38202.64
628.583	37246.24
628.784	37664.02
628.984	37653.78
629.185	38411.53
629.386	37563.67
629.586	38038.8
629.787	37893.4
629.987	38350.09
630.188	37920.02
630.388	38251.79
630.589	37774.61
630.79	38651.14
630.99	37901.59
631.191	38335.76
631.391	38214.93
631.591	38264.08
631.792	38202.64
631.992	38118.67
632.193	38188.3
632.393	38681.86
632.594	38090
632.794	37729.56
632.994	38173.97
633.195	38141.2
633.395	38585.61
633.595	37944.59
633.796	38346
633.996	38235.41
634.196	38573.32
634.397	38059.28
634.597	38153.49
634.797	38452.49
634.997	38452.49
635.198	38456.59
635.398	37989.65
635.598	38630.66
635.798	38952.19
635.998	38360.33
636.199	38112.53
636.399	38339.85
636.599	38343.95
636.799	38300.94
636.999	38313.23
637.199	39017.73
637.399	39083.26
637.599	38731.01
637.799	38221.07
637.999	38827.27
638.199	39173.38
638.399	38327.56
638.599	38888.71
638.799	39038.21
638.999	39863.54
639.199	38849.8
639.399	39015.68
639.599	39204.1
639.799	38339.85
639.999	38632.71
640.199	38595.85
640.399	39275.77
640.599	37612.82
640.799	39429.37
640.998	39025.92
641.198	39111.94
641.398	38692.1
641.598	38958.34
641.798	39038.21
641.997	39793.91
642.197	39062.79
642.397	39412.99
642.597	38909.19
642.796	39308.54
642.996	39302.4
643.196	38855.94
643.395	38505.74
643.595	39595.26
643.795	38857.99
643.994	39341.31
644.194	38890.76
644.394	39785.72
644.593	39324.93
644.793	39009.54
644.992	39214.33
645.192	39789.81
645.392	39243.01
645.591	39671.03
645.791	39896.31
645.99	39617.78
646.19	39613.69
646.389	39318.78
646.589	39501.05
646.788	40054
646.987	39560.44
647.187	39851.25
647.386	39392.51
647.586	39675.13
647.785	39879.92
647.984	39720.18
648.184	39859.45
648.383	39693.56
648.582	40002.8
648.782	39707.9
648.981	39525.63
649.18	39343.36
649.38	39972.08
649.579	39509.24
649.778	39589.11
649.977	39873.78
650.177	39888.12
650.376	39599.35
650.575	39105.79
650.774	39812.34
650.973	39552.25
651.173	39755
651.372	39812.34
651.571	39890.16
651.77	40543.47
651.969	39818.49
652.168	40074.48
652.367	39701.75
652.566	40054
652.765	39953.65
652.964	39933.17
653.163	40273.13
653.362	40082.67
653.561	39972.08
653.76	40363.25
653.959	40066.29
654.158	40326.38
654.357	40045.81
654.556	39728.38
654.755	40316.14
654.954	40551.66
655.153	39765.24
655.352	40111.35
655.551	40346.86
655.749	40160.5
655.948	40185.07
656.147	40488.17
656.346	40746.22
656.545	40758.5
656.743	40193.26
656.942	40641.77
657.141	40609
657.34	40178.93
657.538	40336.62
657.737	40090.87
657.936	40449.26
658.135	40230.13
658.333	39980.28
658.532	40707.3
658.731	41069.79
658.929	40692.97
659.128	40559.85
659.326	40203.5
659.525	41098.47
659.724	40113.39
659.922	40576.23
660.121	40215.79
660.319	40604.91
660.518	40176.88
660.716	40111.35
660.915	40449.26
661.113	41254.11
661.312	40142.06
661.51	40277.23
661.709	40187.12
661.907	40482.03
662.105	40662.25
662.304	40522.99
662.502	40502.51
662.701	40955.11
662.899	40582.38
663.097	40850.66
663.296	40568.04
663.494	40934.63
663.692	41159.91
663.891	40457.45
664.089	40326.38
664.287	40797.41
664.485	40975.59
664.684	40793.32
664.882	40643.82
665.08	40821.99
665.278	40778.98
665.476	39896.31
665.675	40850.66
665.873	40946.92
666.071	40922.34
666.269	40490.22
666.467	40475.88
666.665	40873.19
666.863	40209.65
667.061	40367.34
667.259	40502.51
667.457	40602.86
667.655	40428.78
667.853	40506.6
668.051	40602.86
668.249	40572.14
668.447	40709.35
668.645	40119.54
668.843	40938.72
669.041	40457.45
669.239	40541.42
669.437	40672.49
669.635	40850.66
669.833	40477.93
670.031	40510.7
670.229	40842.47
670.426	40645.87
670.624	40594.67
670.822	40279.28
671.02	40148.21
671.218	40606.95
671.415	40389.87
671.613	40471.79
671.811	40213.74
672.009	40803.56
672.206	40946.92
672.404	40565.99
672.602	41022.69
672.799	40639.72
672.997	40936.68
673.195	40465.64
673.392	40455.4
673.59	40256.75
673.788	40072.43
673.985	39800.05
674.183	40271.09
674.38	40103.15
674.578	40283.37
674.775	40287.47
674.973	40086.77
675.17	40320.24
675.368	40805.61
675.565	40490.22
675.763	40396.01
675.96	39922.93
676.158	40520.94
676.355	39765.24
676.553	40133.87
676.75	39777.53
676.947	40510.7
677.145	39998.71
677.342	39933.17
677.539	40054
677.737	40230.13
677.934	40678.63
678.131	40355.05
678.329	40199.41
678.526	40164.59
678.723	40213.74
678.92	39974.13
679.118	39810.29
679.315	39783.67
679.512	40185.07
679.709	39685.37
679.906	39617.78
680.104	40133.87
680.301	40078.58
680.498	39832.82
680.695	39566.59
680.892	39576.83
681.089	39488.76
681.286	39871.73
681.483	38989.06
681.68	39875.83
681.877	39451.9
682.075	39585.02
682.272	39945.46
682.469	40010.99
682.665	39683.32
682.862	39552.25
683.059	39259.39
683.256	39656.7
683.453	39431.42
683.65	39392.51
683.847	39791.86
684.044	39251.2
684.241	39243.01
684.438	39898.36
684.635	39081.22
684.831	39877.88
685.028	39949.56
685.225	39525.63
685.422	38925.57
685.619	39097.6
685.815	39488.76
686.012	39329.02
686.209	39189.76
686.405	39257.34
686.602	39363.84
686.799	38688.01
686.996	39255.29
687.192	39210.24
687.389	39562.49
687.586	39019.78
687.782	39316.73
687.979	39755
688.175	39230.72
688.372	38645
688.568	39320.83
688.765	38814.98
688.962	39308.54
689.158	38966.53
689.355	38509.83
689.551	39404.8
689.748	38898.95
689.944	39156.99
690.14	38548.75
690.337	39142.66
690.533	38765.83
690.73	38896.9
690.926	38683.91
691.123	39079.17
691.319	39058.69
691.515	38638.86
691.712	38837.51
691.908	38782.21
692.104	38743.3
692.301	38489.35
692.497	38575.37
692.693	38737.16
692.889	39116.03
693.086	38421.77
693.282	38014.23
693.478	38554.89
693.674	39376.12
693.87	38661.38
694.067	38114.58
694.263	38599.94
694.459	38423.82
694.655	38454.54
694.851	38470.92
695.047	38479.11
695.243	38614.28
695.439	38442.25
695.635	38276.37
695.831	38296.84
696.027	38515.98
696.224	38073.62
696.42	38501.64
696.615	39120.13
696.811	38636.81
697.007	38014.23
697.203	38262.03
697.399	38518.03
697.595	38628.62
697.791	37807.38
697.987	37778.71
698.183	38020.37
698.379	37801.24
698.575	38229.26
698.77	38044.94
698.966	38432.01
699.162	38300.94
699.358	38270.22
699.554	37688.6
699.749	38145.3
699.945	38290.7
700.141	37991.7
700.337	37776.66
700.532	37561.62
700.728	37418.27
700.924	37801.24
701.119	37455.13
701.315	37717.27
701.511	37571.86
701.706	38352.14
701.902	37397.79
702.097	37610.78
702.293	38092.05
702.489	37764.37
702.684	37707.03
702.88	37700.89
703.075	37580.06
703.271	37383.45
703.466	37154.08
703.662	37395.74
703.857	37932.31
704.053	37297.44
704.248	37811.48
704.443	38110.48
704.639	37563.67
704.834	37436.7
705.03	37551.38
705.225	37745.94
705.42	37854.48
705.616	37563.67
705.811	37106.98
706.006	37487.9
706.202	37012.77
706.397	37188.89
706.592	37192.99
706.787	37618.97
706.983	37287.2
707.178	37334.3
707.373	37631.26
707.568	37080.35
707.763	37532.95
707.959	37455.13
708.154	37369.12
708.349	37063.97
708.544	37309.72
708.739	37031.2
708.934	37135.65
709.129	37397.79
709.324	37448.99
709.519	37446.94
709.714	36973.86
709.909	37737.75
710.104	36709.67
710.299	36883.75
710.494	36814.12
710.689	37405.98
710.884	37070.11
711.079	36857.12
711.274	36816.16
711.469	37336.35
711.664	36998.43
711.859	36889.89
712.054	37008.67
712.249	37010.72
712.443	37025.06
712.638	36717.86
712.833	36539.69
713.028	37031.2
713.223	36480.3
713.417	36932.9
713.612	37066.02
713.807	36977.95
714.002	37473.56
714.196	37098.78
714.391	36328.75
714.586	37188.89
714.78	36414.76
714.975	36582.7
715.17	36173.1
715.364	36488.49
715.559	36945.19
715.754	35919.15
715.948	36240.68
716.143	36734.24
716.337	36404.52
716.532	36404.52
716.726	36570.41
716.921	36308.27
717.115	36842.79
717.31	36236.59
717.504	37168.41
717.699	35964.21
717.893	36474.15
718.088	35935.54
718.282	36607.27
718.476	35884.34
718.671	35992.88
718.865	35734.84
719.059	35841.33
719.254	36306.22
719.448	36295.98
719.642	36799.78
719.837	35808.56
720.031	36144.43
720.225	36142.38
720.419	36072.75
720.614	35755.32
720.808	36078.89
721.002	35736.88
721.196	35702.07
721.39	35441.98
721.585	35738.93
721.779	35667.25
721.973	35362.11
722.167	35085.63
722.361	35407.16
722.555	36093.23
722.749	35073.34
722.943	35585.33
723.137	35259.71
723.331	35740.98
723.525	35372.35
723.719	35177.79
723.913	35640.63
724.107	35521.85
724.301	35214.65
724.495	35368.25
724.689	35919.15
724.883	35706.16
725.077	35530.04
725.271	35132.73
725.465	35454.26
725.659	35196.22
725.853	35511.61
726.046	34942.27
726.24	35288.38
726.434	35542.33
726.628	34886.98
726.822	35138.88
727.015	35808.56
727.209	35349.82
727.403	34929.98
727.596	34751.81
727.79	35290.43
727.984	35575.09
728.177	34936.13
728.371	34989.38
728.565	35493.18
728.758	34938.18
728.952	34800.96
729.146	35235.13
729.339	35880.24
729.533	35136.83
729.726	35196.22
729.92	34762.05
730.113	35611.96
730.307	35484.98
730.5	34751.81
730.694	34915.65
730.887	34954.56
731.081	35493.18
731.274	35046.72
731.468	34905.41
731.661	35145.02
731.854	34778.43
732.048	34733.38
732.241	34950.46
732.435	34968.9
732.628	35325.24
732.821	34964.8
733.014	34733.38
733.208	34958.66
733.401	35247.42
733.594	34897.22
733.788	34940.22
733.981	35265.85
734.174	35388.73
734.367	34651.46
734.56	35300.67
734.754	35038.53
734.947	35181.88
735.14	34809.15
735.333	35130.69
735.526	35454.26
735.719	35061.05
735.912	35052.86
736.105	34899.26
736.298	34643.27
736.491	34903.36
736.684	34635.08
736.877	34739.52
737.07	35149.12
737.263	35159.36
737.456	34934.08
737.649	34506.05
737.842	34678.08
738.035	34903.36
738.228	34835.78
738.421	34571.59
738.614	35054.91
738.807	34768.19
739	34270.54
739.192	34256.2
739.385	34520.39
739.578	34712.9
739.771	34448.71
739.964	34004.3
740.156	35026.24
740.349	34340.17
740.542	34878.79
740.735	34037.07
740.927	34377.03
741.12	33973.58
741.313	33979.73
741.505	34417.99
741.698	34411.85
741.891	34325.83
742.083	34321.74
742.276	34166.09
742.468	34452.81
742.661	34323.79
742.854	34272.59
743.046	33893.71
743.239	34854.21
743.431	34381.13
743.624	34045.26
743.816	34125.13
744.009	34301.26
744.201	34192.72
744.393	33918.29
744.586	33756.5
744.778	34178.38
744.971	34028.88
745.163	34022.73
745.355	34106.7
745.548	34065.74
745.74	33684.82
745.932	33828.18
746.125	33918.29
746.317	34680.13
746.509	33619.28
746.702	33801.55
746.894	33729.87
747.086	34043.21
747.278	34221.39
747.471	34266.44
747.663	34182.48
747.855	34026.83
748.047	35056.96
748.239	33959.25
748.431	33703.25
748.623	34725.19
748.815	34241.87
749.008	33463.64
749.2	33836.37
749.392	34338.12
749.584	33779.03
749.776	33926.48
749.968	34045.26
750.16	34610.5
750.352	33412.44
750.544	33533.27
750.736	33369.43
750.928	34016.59
751.12	33768.79
751.311	33502.55
751.503	33672.53
751.695	34065.74
751.887	33758.55
752.079	33705.3
752.271	33115.48
752.463	34397.51
752.654	33944.91
752.846	33080.67
753.038	33215.83
753.23	33428.82
753.421	33588.56
753.613	33475.93
753.805	33709.39
753.997	33226.07
754.188	33844.56
754.38	33062.24
754.572	33281.37
754.763	33373.53
754.955	33324.38
755.146	33205.59
755.338	33518.93
755.53	33252.7
755.721	33441.11
755.913	32722.27
756.104	32828.77
756.296	32943.45
756.487	33195.35
756.679	32787.81
756.87	32417.13
757.062	32763.23
757.253	32888.16
757.445	32757.09
757.636	32542.05
757.827	33047.9
758.019	33467.73
758.21	32425.32
758.401	32460.13
758.593	33148.25
758.784	32888.16
758.975	32185.71
759.167	32443.75
759.358	32361.83
759.549	32669.03
759.74	32494.95
759.932	32068.97
760.123	32583.01
760.314	32271.72
760.505	32187.75
760.696	31815.02
760.888	32562.53
761.079	32062.83
761.27	31870.32
761.461	31980.91
761.652	32433.51
761.843	31991.15
762.034	32050.54
762.225	32165.23
762.416	32060.78
762.607	31755.63
762.798	31458.68
762.989	31542.64
763.18	32595.3
763.371	31442.29
763.562	31581.56
763.753	31524.21
763.944	32093.55
764.135	32220.52
764.326	31520.12
764.517	31452.53
764.708	31661.43
764.899	31636.85
765.089	31264.12
765.28	31038.84
765.471	31552.88
765.662	31395.19
765.853	31163.77
766.043	30641.54
766.234	31331.7
766.425	31434.1
766.615	31040.89
766.806	30688.64
766.997	31655.28
767.187	30899.58
767.378	30915.97
767.569	30868.86
767.759	31305.08
767.95	31061.37
768.141	31051.13
768.331	30985.6
768.522	30922.11
768.712	31231.35
768.903	30985.6
769.093	30469.51
769.284	30805.38
769.474	30643.59
769.665	29916.56
769.855	30139.79
770.046	30948.73
770.236	30774.66
770.426	30440.84
770.617	30715.26
770.807	30559.62
770.998	30526.85
771.188	30195.08
771.378	30004.62
771.569	30522.76
771.759	30633.35
771.949	29672.85
772.139	30074.25
772.33	30121.35
772.52	30700.93
772.71	29822.35
772.9	29496.72
773.09	30344.58
773.281	30506.37
773.471	29240.73
773.661	29633.94
773.851	30057.87
774.041	29705.62
774.231	29642.13
774.421	29769.1
774.611	29947.28
774.802	29769.1
774.992	29484.44
775.182	28847.52
775.372	29197.72
775.562	29416.85
775.752	29502.87
775.942	28718.5
776.131	29650.32
776.321	29439.38
776.511	29390.23
776.701	29218.2
776.891	29500.82
777.081	28890.52
777.271	28954.01
777.461	29138.33
777.651	29154.71
777.84	29613.46
778.03	28726.69
778.22	28771.74
778.41	29121.94
778.599	28687.78
778.789	28685.73
778.979	28593.57
779.169	29058.46
779.358	28616.1
779.548	29167
779.738	28493.22
779.927	28601.76
780.117	28738.97
780.307	28167.59
780.496	28024.23
780.686	28470.69
780.875	29013.4
781.065	28255.65
781.254	28321.19
781.444	28575.14
781.633	28603.81
781.823	28013.99
782.012	28278.18
782.202	27862.44
782.391	27559.34
782.581	27870.64
782.77	28620.19
782.96	28601.76
783.149	27796.91
783.338	27854.25
783.528	27743.66
783.717	28489.12
783.906	28593.57
784.096	27674.03
784.285	27970.99
784.474	27868.59
784.663	27821.48
784.853	27463.09
785.042	27377.08
785.231	27614.64
785.42	27981.23
785.61	27686.32
785.799	27190.71
785.988	27454.9
786.177	27479.47
786.366	27293.11
786.555	27628.98
786.744	27702.7
786.933	27348.4
787.122	27295.16
787.312	27186.61
787.501	27659.7
787.69	27545.01
787.879	27200.95
788.068	26924.47
788.257	26830.27
788.445	26920.38
788.634	27399.6
788.823	26908.09
789.012	27712.94
789.201	27495.86
789.39	27026.87
789.579	26760.64
789.768	26852.8
789.957	27098.55
790.145	26447.3
790.334	26822.08
790.523	26914.23
790.712	26916.28
790.9	27030.97
791.089	26461.63
791.278	26969.53
791.467	26596.8
791.655	26934.71
791.844	26760.64
792.033	26387.91
792.221	26213.83
792.41	26469.83
792.599	26148.29
792.787	26752.45
792.976	26834.36
793.164	26138.05
793.353	26168.77
793.541	26879.42
793.73	26852.8
793.918	26586.56
794.107	26314.18
794.295	26394.05
794.484	26410.43
794.672	26009.03
794.861	25961.93
795.049	26521.02
795.238	26289.6
795.426	25996.74
795.614	25830.86
795.803	26099.14
795.991	26353.09
796.179	26140.1
796.368	25679.31
796.556	26414.53
796.744	25437.65
796.932	25867.72
797.121	25550.29
797.309	25585.1
797.497	26230.21
797.685	25736.65
797.874	25576.91
798.062	25886.15
798.25	26136.01
798.438	25912.78
798.626	25982.41
798.814	26170.82
799.002	26648
799.19	25505.23
799.378	25804.24
799.566	25814.48
799.755	26527.17
799.943	25648.59
800.131	25525.71
800.318	25802.19
800.506	25806.28
800.694	25173.46
800.882	25482.7
801.07	25851.34
801.258	25748.94
801.446	25804.24
801.634	25554.38
801.822	25755.08
802.01	26045.9
802.197	25710.03
802.385	25783.76
802.573	25615.82
802.761	25601.49
802.949	25769.42
803.136	25679.31
803.324	26416.58
803.512	25837
803.699	25595.34
803.887	25548.24
804.075	26449.35
804.262	26023.37
804.45	25781.71
804.638	25882.06
804.825	25914.83
805.013	25976.26
805.201	25875.91
805.388	25519.57
805.576	26162.63
805.763	26832.32
805.951	25970.12
806.138	26047.94
806.326	26449.35
806.513	26097.1
806.701	25816.52
806.888	26097.1
807.075	26262.98
807.263	26578.37
807.45	25898.44
807.638	25978.31
807.825	26529.22
808.012	26422.72
808.2	26146.25
808.387	26404.29
808.574	26469.83
808.761	26533.31
808.949	26185.16
809.136	26086.86
809.323	26367.43
809.51	26308.04
809.698	26355.14
809.885	25939.4
810.072	26586.56
810.259	26422.72
810.446	26045.9
810.633	25789.9
810.82	26912.19
811.008	26635.71
811.195	26486.21
811.382	26025.42
811.569	26299.84
811.756	26152.39
811.943	26066.38
812.13	26611.14
812.317	26232.26
812.504	26164.68
812.691	26488.26
812.878	26455.49
813.064	26625.47
813.251	26985.91
813.438	26262.98
813.625	26062.28
813.812	26414.53
813.999	26269.12
814.186	26451.39
814.372	26312.13
814.559	26387.91
814.746	26480.07
814.933	26029.51
815.12	26551.74
815.306	25732.56
815.493	26090.95
815.68	26326.47
815.866	26049.99
816.053	26756.54
816.24	26791.36
816.426	26156.49
816.613	26084.81
816.799	26222.02
816.986	26783.16
817.173	26006.98
817.359	25978.31
817.546	26076.62
817.732	25984.46
817.919	25839.05
818.105	25738.7
818.292	26310.08
818.478	26363.33
818.665	26078.66
818.851	26119.62
819.037	26727.87
819.224	26346.95
819.41	25765.32
819.597	25849.29
819.783	26338.76
819.969	26203.59
820.156	26246.6
820.342	25740.75
820.528	26785.21
820.714	25898.44
820.901	25896.39
821.087	25626.06
821.273	26396.1
821.459	25890.25
821.646	25476.56
821.832	25767.37
822.018	26297.8
822.204	25880.01
822.39	25695.69
822.576	25413.07
822.762	25943.5
822.948	25384.4
823.134	25750.99
823.32	25171.41
823.507	25353.68
823.693	25595.34
823.879	25613.77
824.065	25669.07
824.25	25750.99
824.436	25200.08
824.622	25267.67
824.808	25363.92
824.994	25509.33
825.18	25296.34
825.366	25079.25
825.552	25187.8
825.738	25441.75
825.923	25652.69
826.109	25200.08
826.295	24935.9
826.481	25232.85
826.667	25275.86
826.852	25236.95
827.038	24870.36
827.224	25419.22
827.409	25757.13
827.595	24665.56
827.781	24991.19
827.966	25417.17
828.152	25198.04
828.338	24950.23
828.523	24450.53
828.709	24886.75
828.894	25179.61
829.08	24741.34
829.266	24567.26
829.451	24774.11
829.637	24788.44
829.822	24690.14
830.008	24903.13
830.193	25112.02
830.378	25050.58
830.564	24497.63
830.749	24380.9
830.935	24665.56
831.12	24331.75
831.305	24679.9
831.491	24595.93
831.676	24344.03
831.861	24380.9
832.047	24266.21
832.232	24341.99
832.417	24964.57
832.602	24251.88
832.788	23973.35
832.973	24317.41
833.158	24335.84
833.343	24423.9
833.528	24030.69
833.714	24165.86
833.899	24577.5
834.084	24468.96
834.269	24210.92
834.454	24110.57
834.639	24446.43
834.824	23891.43
835.009	24155.62
835.194	23944.68
835.379	24059.37
835.564	24118.76
835.749	24063.46
835.934	23510.51
836.119	24206.82
836.304	24159.72
836.489	23748.07
836.674	23801.32
836.859	23682.54
837.044	24384.99
837.228	23584.24
837.413	23457.26
837.598	24337.89
837.783	23922.15
837.968	23567.85
838.152	23025.14
838.337	23395.82
838.522	23883.24
838.707	24094.18
838.891	23375.34
839.076	23444.98
839.261	24104.42
839.445	23660.01
839.63	23561.71
839.815	23473.65
839.999	23107.06
840.184	22873.59
840.368	23111.16
840.553	23772.65
840.737	23397.87
840.922	22945.27
841.106	23021.05
841.291	23184.88
841.475	23209.46
841.66	22892.02
841.844	22867.45
842.029	24049.13
842.213	22846.97
842.397	22865.4
842.582	22642.17
842.766	23508.46
842.951	23148.02
843.135	22570.49
843.319	22846.97
843.504	22562.3
843.688	23109.11
843.872	22756.86
844.056	22814.2
844.241	23023.09
844.425	22744.57
844.609	22666.75
844.793	22195.71
844.977	23227.89
845.161	22656.51
845.346	22251.01
845.53	22447.61
845.714	22701.56
845.898	22797.82
846.082	22248.96
846.266	22390.27
846.45	22373.89
846.634	22253.06
846.818	22124.04
847.002	22253.06
847.186	22531.58
847.37	21941.77
847.554	21988.87
847.738	22115.84
847.922	22427.14
848.106	22257.15
848.29	21693.96
848.473	21816.84
848.657	21804.55
848.841	21802.5
849.025	21779.98
849.209	21329.42
849.392	22095.36
849.576	21949.96
849.76	21370.38
849.944	21585.42
850.127	22058.5
850.311	21601.8
850.495	21566.99
850.678	21370.38
850.862	22154.76
851.046	22109.7
851.229	21585.42
851.413	21341.71
851.596	21653
851.78	21978.63
851.964	21554.7
852.147	21388.81
852.331	22470.14
852.514	21827.08
852.698	21206.55
852.881	21360.14
853.065	21511.69
853.248	21437.97
853.431	21204.5
853.615	21249.55
853.798	21886.47
853.982	21659.15
854.165	20827.67
854.348	20997.65
854.532	21255.7
854.715	20622.87
854.898	20870.68
855.081	20848.15
855.265	21405.2
855.448	21638.67
855.631	20811.29
855.814	20784.66
855.997	21083.67
856.181	20880.92
856.364	20608.54
856.547	20606.49
856.73	20862.49
856.913	21022.23
857.096	20346.4
857.279	20751.9
857.462	20907.54
857.645	21310.99
857.828	20366.88
858.011	20696.6
858.194	20266.53
858.377	20829.72
858.56	20280.86
858.743	20624.92
858.926	20186.66
859.109	20719.13
859.292	20131.36
859.475	20129.31
859.658	20854.3
859.841	20373.02
860.023	20151.84
860.206	19850.79
860.389	20475.42
860.572	20342.3
860.755	19910.18
860.937	20319.78
861.12	20082.21
861.303	20131.36
861.486	19840.55
861.668	19910.18
861.851	20309.54
862.034	20264.48
862.216	19828.26
862.399	19459.63
862.581	20182.56
862.764	20330.02
862.947	19650.09
863.129	19707.43
863.312	19519.02
863.494	20162.08
863.677	19656.23
863.859	19316.27
864.042	19787.3
864.224	20033.06
864.406	19322.41
864.589	18957.88
864.771	19832.36
864.954	19265.07
865.136	19093.04
865.318	18935.35
865.501	19234.35
865.683	19129.91
865.865	19201.58
866.048	18925.11
866.23	19236.4
866.412	19301.93
866.594	18763.32
866.777	18996.79
866.959	19205.68
867.141	18951.73
867.323	19039.79
867.505	19160.62
867.687	18773.56
867.869	19156.53
868.052	18961.97
868.234	18718.26
868.416	18888.25
868.598	19242.54
868.78	18507.32
868.962	18613.82
869.144	19402.29
869.326	19357.23
869.508	18435.64
869.69	18748.98
869.872	18732.6
870.054	19500.59
870.236	18392.64
870.417	18423.36
870.599	18847.29
870.781	19205.68
870.963	18716.22
871.145	18564.67
871.327	18402.88
871.508	19009.08
871.69	18312.77
871.872	18593.34
872.054	18994.74
872.235	18855.48
872.417	18562.62
872.599	18312.77
872.78	19121.71
872.962	18767.41
873.144	18101.83
873.325	18734.65
873.507	19265.07
873.689	18689.59
873.87	18323.01
874.052	18634.3
874.233	18579
874.415	19168.82
874.596	18853.43
874.778	18413.12
874.959	18472.51
875.141	18673.21
875.322	18325.05
875.503	18312.77
875.685	18947.64
875.866	18079.3
876.048	18042.43
876.229	18251.33
876.41	18323.01
876.592	18880.05
876.773	18617.91
876.954	18347.58
877.136	18767.41
877.317	18384.44
877.498	18024
877.679	18345.53
877.86	18679.35
878.042	18361.92
878.223	18445.88
878.404	18724.41
878.585	19000.88
878.766	19019.32
878.947	18830.9
879.128	18861.62
879.309	19142.19
879.49	19095.09
879.672	19054.13
879.853	18462.27
880.034	18490.94
880.215	18865.72
880.396	18982.45
880.576	18759.22
880.757	18939.44
880.938	19103.28
881.119	18798.13
881.3	18988.6
881.481	18894.39
881.662	20061.73
881.843	18576.95
882.023	18779.7
882.204	18994.74
882.385	19291.69
882.566	18904.63
882.747	18845.24
882.927	19203.63
883.108	19494.44
883.289	19084.85
883.469	19234.35
883.65	19410.48
883.831	19541.55
884.011	19324.46
884.192	19271.22
884.373	19926.57
884.553	19764.78
884.734	19353.13
884.914	19607.08
885.095	20098.59
885.275	19813.93
885.456	19623.47
885.636	19199.54
885.817	19711.53
885.997	19582.51
886.178	19230.26
886.358	19385.9
886.538	19924.52
886.719	20776.47
886.899	19394.09
887.08	19590.7
887.26	20028.96
887.44	19406.38
887.621	19680.81
887.801	19637.8
887.981	20555.29
888.161	20028.96
888.342	19308.08
888.522	19703.34
888.702	19996.2
888.882	20264.48
889.062	19783.21
889.242	19547.69
889.423	20164.13
889.603	20217.38
889.783	20160.03
889.963	19754.54
890.143	20264.48
890.323	20053.54
890.503	19703.34
890.683	19920.42
890.863	20334.11
891.043	20039.2
891.223	19766.82
891.403	19910.18
891.583	19820.07
891.763	20012.58
891.943	19867.17
892.122	19834.41
892.302	20233.76
892.482	20129.31
892.662	20012.58
892.842	19834.41
893.022	19760.68
893.201	19867.17
893.381	19885.61
893.561	19697.19
893.741	20221.47
893.92	20250.14
894.1	19676.71
894.28	19537.45
894.459	20006.44
894.639	19934.76
894.819	19611.18
894.998	19672.62
895.178	20172.32
895.357	19525.16
895.537	19131.95
895.716	19437.1
895.896	19807.78
896.075	20147.75
896.255	19342.89
896.434	19258.93
896.614	20086.31
896.793	19938.85
896.973	19435.05
897.152	19240.5
897.331	19727.91
897.511	19801.64
897.69	19060.27
897.87	19301.93
898.049	19707.43
898.228	19439.15
898.407	19047.99
898.587	19107.38
898.766	18931.25
898.945	19252.78
899.124	19093.04
899.304	19078.71
899.483	19342.89
899.662	19531.31
899.841	18644.54
900.02	18769.46
900.199	19222.06
900.378	18830.9
900.557	18669.11
900.737	18384.44
900.916	18724.41
901.095	18910.77
901.274	18824.76
901.453	18517.56
901.632	18556.47
901.811	18255.42
901.989	18544.19
902.168	18103.87
902.347	18718.26
902.526	18064.96
902.705	18107.97
902.884	18153.02
903.063	18615.87
903.242	18658.87
903.42	17675.85
903.599	17948.23
903.778	18460.22
903.957	18206.27
904.135	17737.29
904.314	17735.24
904.493	17827.4
904.672	18116.16
904.85	17163.86
905.029	17501.77
905.207	17589.83
905.386	18015.81
905.565	16817.75
905.743	17196.62
905.922	17188.43
906.1	17352.27
906.279	16907.86
906.457	16707.16
906.636	16973.39
906.814	16946.77
906.993	16471.64
907.171	16143.97
907.35	16723.54
907.528	16764.5
907.707	16389.72
907.885	16309.85
908.063	16737.88
908.242	16354.91
908.42	15957.6
908.598	15875.68
908.777	16356.96
908.955	15785.57
909.133	16109.15
909.311	15926.88
909.49	16115.3
909.668	16272.99
909.846	15957.6
910.024	15822.44
910.202	16520.79
910.38	16561.75
910.559	15951.46
910.737	15930.98
910.915	16760.41
911.093	16586.33
911.271	16324.19
911.449	16471.64
911.627	16827.99
911.805	17198.67
911.983	16410.2
912.161	16449.11
912.339	16819.8
912.517	17096.27
912.695	16914
912.872	16696.92
913.05	16649.82
913.228	17296.97
913.406	16701.01
913.584	16698.97
913.762	17139.28
913.939	16903.76
914.117	16793.17
914.295	16426.59
914.473	16987.73
914.65	17077.84
914.828	16815.7
915.006	16610.9
915.184	16873.04
915.361	17067.6
915.539	17055.31
915.716	16797.27
915.894	16725.59
916.072	17245.77
916.249	16649.82
916.427	16688.73
916.604	16670.29
916.782	16748.12
916.959	16418.39
917.137	16227.93
917.314	16772.69
917.492	16678.49
917.669	16397.92
917.847	16430.68
918.024	16721.49
918.201	16266.85
918.379	16744.02
918.556	16428.63
918.733	16727.64
918.911	16588.38
919.088	16385.63
919.265	16498.27
919.442	16469.59
919.62	16139.87
919.797	16391.77
919.974	15812.2
920.151	16168.54
920.328	16064.1
920.506	16154.21
920.683	16297.56
920.86	15875.68
921.037	15894.11
921.214	16010.85
921.391	15724.13
921.568	16045.66
921.745	15738.47
921.922	15789.67
922.099	15578.73
922.276	16516.7
922.453	16111.2
922.63	15752.8
922.807	16025.18
922.984	15859.3
923.161	15715.94
923.338	15732.33
923.514	15453.8
923.691	15797.86
923.868	15795.81
924.045	15285.87
924.222	15322.73
924.399	15523.43
924.575	15484.52
924.752	15060.59
924.929	15316.59
925.105	15617.64
925.282	15144.56
925.459	15007.34
925.635	15210.09
925.812	15095.41
925.989	15074.93
926.165	15281.77
926.342	14872.18
926.518	14902.9
926.695	14800.5
926.871	14616.18
927.048	14399.1
927.224	14745.2
927.401	14612.09
927.577	14636.66
927.754	14270.08
927.93	15066.74
928.107	14726.77
928.283	14591.61
928.459	14532.22
928.636	14857.84
928.812	14198.4
928.988	13846.15
929.165	13821.57
929.341	14085.76
929.517	14327.42
929.693	14597.75
929.87	13909.63
930.046	14257.79
930.222	13872.77
930.398	13985.41
930.574	13872.77
930.751	13895.3
930.927	13667.97
931.103	13614.73
931.279	13479.56
931.455	13532.81
931.631	13883.01
931.807	13258.38
931.983	13330.06
932.159	13248.14
932.335	13672.07
932.511	13178.51
932.687	13330.06
932.863	13151.88
933.039	13133.45
933.215	12750.48
933.391	12594.84
933.566	12797.59
933.742	12842.64
933.918	12517.01
934.094	12312.22
934.27	12301.98
934.445	12447.38
934.621	12297.88
934.797	11800.23
934.973	12525.21
935.148	12172.96
935.324	11663.01
935.5	11378.34
935.675	12023.45
935.851	11724.45
936.027	11306.66
936.202	11271.85
936.378	11572.9
936.553	11040.43
936.729	10991.28
936.904	10655.41
937.08	10340.02
937.255	10327.74
937.431	10088.12
937.606	10006.2
937.782	9877.18
937.957	9752.26
938.133	9766.59
938.308	9367.24
938.483	9690.82
938.659	9103.05
938.834	9070.28
939.009	8861.39
939.185	8967.88
939.36	8822.48
939.535	8091.35
939.71	8689.36
939.886	8982.22
940.061	8677.07
940.236	8273.62
940.411	8324.82
940.586	8601.3
940.761	8472.28
940.937	8111.83
941.112	7737.06
941.287	8283.86
941.462	7913.18
941.637	7788.25
941.812	7821.02
941.987	7984.86
942.162	7798.49
942.337	7653.09
942.512	7696.1
942.687	8027.87
942.862	8011.48
943.037	7376.61
943.212	6989.55
943.386	7573.22
943.561	7614.18
943.736	7247.59
943.911	7864.03
944.086	7581.41
944.26	7571.17
944.435	7102.18
944.61	7184.1
944.785	7739.1
944.959	7839.45
945.134	7487.2
945.309	7165.67
945.483	7132.9
945.658	7839.45
945.833	7087.85
946.007	6989.55
946.182	7868.13
946.357	7192.3
946.531	7243.49
946.706	7210.73
946.88	7171.82
947.055	7569.12
947.229	7249.64
947.404	7374.56
947.578	7859.93
947.752	7462.63
947.927	7208.68
948.101	7263.97
948.276	7573.22
948.45	7628.51
948.624	7761.63
948.799	7247.59
948.973	7831.26
949.147	7395.04
949.321	7522.02
949.496	7360.23
949.67	7968.48
949.844	7587.55
950.018	7528.16
950.193	7665.38
950.367	8382.17
950.541	7544.55
950.715	7911.13
950.889	7763.68
951.063	7726.82
951.237	8017.63
951.411	7323.37
951.585	7614.18
951.759	8177.37
951.933	7931.61
952.107	7696.1
952.281	7904.99
952.455	8203.99
952.629	8324.82
952.803	7870.17
952.977	7923.42
953.151	8285.91
953.325	8120.03
953.499	8107.74
953.672	7829.21
953.846	7894.75
954.02	8191.7
954.194	7810.78
954.368	7829.21
954.541	8322.77
954.715	8079.07
954.889	8099.55
955.062	8093.4
955.236	8062.68
955.41	8318.68
955.583	8142.55
955.757	8138.46
955.93	8132.31
956.104	7943.9
956.278	8058.59
956.451	8158.94
956.625	8398.55
956.798	8820.43
956.972	8621.78
957.145	8212.18
957.319	8449.75
957.492	8169.18
957.665	8539.86
957.839	8318.68
958.012	8378.07
958.185	8488.66
958.359	8183.51
958.532	8425.17
958.705	8691.41
958.879	8593.11
959.052	8253.14
959.225	8013.53
959.398	8390.36
959.572	8455.89
959.745	8152.79
959.918	8306.39
960.091	8531.67
960.264	8740.56
960.438	8244.95
960.611	8273.62
960.784	8623.83
960.957	8431.32
961.13	8634.07
961.303	8255.19
961.476	8294.1
961.649	8492.76
961.822	8126.17
961.995	8138.46
962.168	8660.69
962.341	8566.48
962.514	8171.22
962.686	8326.87
962.859	8570.58
963.032	8517.33
963.205	8138.46
963.378	8040.15
963.551	8625.87
963.723	8572.63
963.896	8406.74
964.069	8193.75
964.242	8445.65
964.414	8390.36
964.587	8132.31
964.76	8099.55
964.932	8312.53
965.105	8304.34
965.278	7900.89
965.45	8171.22
965.623	8378.07
965.795	8556.24
965.968	8146.65
966.14	8074.97
966.313	8234.71
966.485	8224.47
966.658	8091.35
966.83	8099.55
967.003	8722.13
967.175	8462.04
967.348	7952.09
967.52	8224.47
967.692	8660.69
967.865	8265.43
968.037	8228.57
968.209	8275.67
968.382	8283.86
968.554	8406.74
968.726	8142.55
968.898	8013.53
969.071	8191.7
969.243	8290.01
969.415	7966.43
969.587	7939.8
969.759	8541.91
969.932	8294.1
970.104	8003.29
970.276	7497.44
970.448	7999.2
970.62	7804.64
970.792	8027.87
970.964	8160.98
971.136	8398.55
971.308	8122.07
971.48	7841.5
971.652	7728.86
971.824	8392.41
971.996	7554.79
972.168	7974.62
972.339	7796.45
972.511	7978.72
972.683	7708.38
972.855	7855.84
973.027	7626.46
973.199	7702.24
973.37	8050.39
973.542	7765.73
973.714	7737.06
973.886	7634.66
974.057	7851.74
974.229	7298.79
974.401	7644.9
974.572	7341.8
974.744	7089.9
974.915	7397.09
975.087	7288.55
975.259	7718.62
975.43	7509.73
975.602	7448.29
975.773	7300.84
975.945	7393
976.116	7538.4
976.288	7399.14
976.459	7485.16
976.63	7364.32
976.802	7657.18
976.973	7188.2
977.145	7362.28
977.316	7888.6
977.487	7476.96
977.659	7300.84
977.83	7216.87
978.001	7726.82
978.172	7282.41
978.344	7003.88
978.515	7057.13
978.686	7218.92
978.857	7601.89
979.028	7028.46
979.2	6991.59
979.371	7513.83
979.542	7065.32
979.713	7225.06
979.884	6461.17
980.055	6819.57
980.226	6909.68
980.397	6887.15
980.568	6641.39
980.739	7497.44
980.91	6934.25
981.081	7065.32
981.252	6747.89
981.423	7024.36
981.594	7102.18
981.765	6711.02
981.936	6852.33
982.106	6870.76
982.277	7268.07
982.448	6424.31
982.619	6848.24
982.79	6790.89
982.96	6952.68
983.131	6813.42
983.302	6385.4
983.472	6735.6
983.643	6719.21
983.814	6743.79
983.984	6405.88
984.155	6543.09
984.326	6754.03
984.496	6579.95
984.667	6319.86
984.837	6041.34
985.008	6924.01
985.178	6739.69
985.349	6354.68
985.519	6248.18
985.69	6139.64
985.86	6221.56
986.031	6182.65
986.201	6541.04
986.371	6541.04
986.542	6168.31
986.712	6184.69
986.882	6276.85
987.053	6508.27
987.223	5983.99
987.393	6434.55
987.563	5998.33
987.734	6319.86
987.904	6268.66
988.074	5932.79
988.244	6108.92
988.414	6151.93
988.585	5838.59
988.755	5854.97
988.925	5981.95
989.095	6491.89
989.265	5803.77
989.435	5981.95
989.605	6207.22
989.775	6113.02
989.945	6043.39
990.115	5531.39
990.285	6029.05
990.455	5785.34
990.625	5799.68
990.795	5486.34
990.965	6125.3
991.134	5519.11
991.304	5656.32
991.474	5564.16
991.644	5947.13
991.814	6223.61
991.984	5410.56
992.153	5426.95
992.323	5560.06
992.493	5670.65
992.662	5240.58
992.832	5551.87
993.002	5725.95
993.171	5533.44
993.341	5123.85
993.511	5515.01
993.68	5299.97
993.85	5824.25
994.019	5183.24
994.189	5029.64
994.358	5598.98
994.528	5308.16
994.697	4912.91
994.867	5070.6
995.036	5578.5
995.206	5226.25
995.375	5199.62
995.544	5455.62
995.714	5232.39
995.883	5127.94
996.052	5095.18
996.222	4773.64
996.391	5775.1
996.56	5068.55
996.73	4970.25
996.899	4863.76
997.068	5431.04
997.237	5220.1
997.406	4843.28
997.576	4689.68
997.745	5166.85
997.914	5095.18
998.083	4458.26
998.252	4642.57
998.421	5009.16
998.59	4810.51
998.759	4558.61
998.928	4560.66
999.097	5160.71
999.266	4898.57
999.435	4730.64
999.604	4470.55
999.773	5281.54
999.942	4658.96
1000.111	4366.1
1000.28	4235.03
1000.448	4488.98
1000.617	4443.92
1000.786	4595.47
1000.955	4458.26
1001.124	4808.46
1001.292	5414.66
1001.461	4386.58
1001.63	4257.56
1001.798	5117.7
1001.967	4929.29
1002.136	4132.63
1002.304	4171.54
1002.473	4648.72
1002.642	4544.27
1002.81	4128.53
1002.979	4044.57
1003.147	4480.78
1003.316	4902.67
1003.484	4187.93
1003.653	4081.43
1003.821	4538.13
1003.99	4366.1
1004.158	4224.79
1004.327	4073.24
1004.495	4577.04
1004.663	4144.92
1004.832	4130.58
1005	3954.46
1005.168	4388.63
1005.337	4280.08
1005.505	3716.89
1005.673	4069.14
1005.842	4382.48
1006.01	4271.89
1006.178	3778.33
1006.346	3841.82
1006.514	4149.01
1006.683	4513.55
1006.851	3733.28
1007.019	3843.87
1007.187	3817.24
1007.355	3616.54
1007.523	3612.45
1007.691	3548.96
1007.859	3653.41
1008.027	4257.56
1008.195	3573.53
1008.363	3555.1
1008.531	4136.73
1008.699	3858.2
1008.867	3438.37
1009.035	3520.29
1009.203	4106.01
1009.37	3770.14
1009.538	3614.49
1009.706	3768.09
1009.874	3858.2
1010.042	3755.8
1010.209	3290.92
1010.377	3356.45
1010.545	3962.65
1010.713	3802.91
1010.88	3387.17
1011.048	3450.66
1011.216	3561.25
1011.383	3899.16
1011.551	3206.95
1011.718	3270.44
1011.886	3788.57
1012.054	3540.77
1012.221	3194.66
1012.389	3217.19
1012.556	3235.62
1012.724	4007.7
1012.891	3340.07
1013.058	2875.18
1013.226	3563.29
1013.393	3522.34
1013.561	2883.37
1013.728	2887.47
1013.895	3559.2
1014.063	3524.38
1014.23	2946.86
1014.397	3067.69
1014.565	3483.42
1014.732	3030.82
1014.899	2873.13
1015.066	2762.54
1015.233	3180.32
1015.401	3311.39
1015.568	3039.01
1015.735	2912.04
1015.902	3059.49
1016.069	3245.86
1016.236	2809.64
1016.403	2719.53
1016.57	2907.94
1016.737	3284.77
1016.904	2801.45
1017.071	2713.39
1017.238	2789.16
1017.405	3155.75
1017.572	2758.44
1017.739	2783.02
1017.906	3145.51
1018.073	3188.52
1018.24	2531.12
1018.407	2598.7
1018.573	3194.66
1018.74	2844.46
1018.907	2496.3
1019.074	2332.47
1019.241	3055.4
1019.407	2883.37
1019.574	2434.86
1019.741	2252.59
1019.907	2838.31
1020.074	2694.96
1020.241	2271.03
1020.407	2320.18
1020.574	2926.38
1020.74	2883.37
1020.907	2400.05
1021.073	2252.59
1021.24	3108.65
1021.406	3030.82
1021.573	2240.31
1021.739	2219.83
1021.906	2764.59
1022.072	2610.99
1022.239	2371.38
1022.405	2332.47
1022.571	2559.79
1022.738	2432.82
1022.904	2293.55
1023.07	2332.47
1023.237	2535.21
1023.403	2803.5
1023.569	2254.64
1023.735	2246.45
1023.902	2608.94
1024.068	2502.45
1024.234	2119.48
1024.4	2273.07
1024.566	2445.1
1024.732	2703.15
1024.898	2084.66
1025.065	1904.44
1025.231	2543.41
1025.397	2359.09
1025.563	2055.99
1025.729	2025.27
1025.895	1943.35
1026.061	2115.38
1026.227	1875.77
1026.392	1888.06
1026.558	2551.6
1026.724	2340.66
1026.89	1843
1027.056	1992.5
1027.222	2328.37
1027.388	2150.2
1027.553	1795.9
1027.719	1898.3
1027.885	2576.17
1028.051	2475.82
1028.216	1707.84
1028.382	1900.34
1028.548	2160.44
1028.713	2070.33
1028.879	1728.31
1029.045	2084.66
1029.21	2447.15
1029.376	2459.44
1029.541	1791.8
1029.707	1765.18
1029.873	2258.74
1030.038	2311.99
1030.204	1781.56
1030.369	1871.67
1030.534	2277.17
1030.7	1961.78
1030.865	1804.09
1031.031	1630.01
1031.196	2029.37
1031.361	2049.85
1031.527	1576.77
1031.692	1699.64
1031.857	1554.24
1032.023	2176.82
1032.188	1562.43
1032.353	1703.74
1032.518	2367.28
1032.684	2047.8
1032.849	1490.75
1033.014	1546.05
1033.179	2205.49
1033.344	2072.37
1033.509	1775.42
1033.674	1580.86
1033.839	1978.17
1034.004	2041.65
1034.17	1496.89
1034.335	1382.21
1034.5	1716.03
1034.664	1734.46
1034.829	1509.18
1034.994	1623.87
1035.159	1988.41
1035.324	1812.28
1035.489	1408.83
1035.654	1492.8
1035.819	2137.91
1035.984	1797.95
1036.148	1544
1036.313	1427.26
1036.478	1982.26
1036.643	1750.84
1036.807	1320.77
1036.972	1433.41
1037.137	2019.13
1037.301	1752.89
1037.466	1257.28
1037.631	1478.46
1037.795	1912.63
1037.96	1789.75
1038.124	1548.09
1038.289	1191.75
1038.454	1744.7
1038.618	1785.66
1038.783	1324.87
1038.947	1429.31
1039.111	1617.72
1039.276	1509.18
1039.44	1171.27
1039.605	1658.68
1039.769	1572.67
1039.933	1605.44
1040.098	1357.63
1040.262	1460.03
1040.426	1703.74
1040.591	1701.69
1040.755	1130.31
1040.919	1238.85
1041.083	1730.36
1041.248	1519.42
1041.412	1044.29
1041.576	1128.26
1041.74	1507.13
1041.904	1785.66
1042.068	1146.69
1042.232	1208.13
1042.397	1756.99
1042.561	1562.43
1042.725	954.18
1042.889	1292.1
1043.053	1595.2
1043.217	1593.15
1043.381	1226.56
1043.544	1025.86
1043.708	1781.56
1043.872	1238.85
1044.036	843.59
1044.2	905.03
1044.364	1634.11
1044.528	1853.24
1044.691	5373.7
1044.855	1019.72
1045.019	1771.32
1045.183	1470.27
1045.346	1101.64
1045.51	984.9
1045.674	1410.88
1045.837	1523.52
1046.001	993.09
1046.165	1032.01
1046.328	1822.52
1046.492	1519.42
1046.655	1142.6
1046.819	923.46
1046.983	1085.25
1047.146	1333.06
1047.31	1050.44
1047.473	769.87
1047.636	1259.33
1047.8	1115.97
1047.963	964.42
1048.127	806.73
1048.29	1111.88
