Data from Hydrogel_Ink_Intensity_Test_1_USB4F045381__78__00078.txt Node

Date: Mon Jul 31 10:56:53 EDT 2023
User: mmckonesweet
Spectrometer: USB4F04538
Trigger mode: 4
Integration Time (sec): 9.000000E-1
Scans to average: 1
Electric dark correction enabled: true
Nonlinearity correction enabled: false
Boxcar width: 0
XAxis mode: Wavelengths
Number of Pixels in Spectrum: 3648
>>>>>Begin Spectral Data<<<<<
345.52	-945.48
345.736	-945.48
345.952	-945.48
346.168	-1019.21
346.384	-1011.01
346.6	-165.2
346.816	-232.79
347.032	-202.07
347.248	357.03
347.464	-214.35
347.68	-138.58
347.896	70.31
348.112	340.65
348.328	-66.9
348.544	-89.43
348.76	98.99
348.975	242.34
349.191	-269.65
349.407	-224.59
349.623	33.45
349.839	-101.72
350.055	-144.72
350.27	43.69
350.486	146.09
350.702	311.97
350.918	225.96
351.133	-216.4
351.349	146.09
351.565	377.51
351.781	-243.03
351.996	-64.85
352.212	287.4
352.428	-130.39
352.644	-222.55
352.859	-220.5
353.075	254.63
353.291	21.16
353.506	-171.35
353.722	-240.98
353.938	-60.76
354.153	447.14
354.369	139.94
354.584	-232.79
354.8	240.3
355.016	-349.52
355.231	-230.74
355.447	-136.53
355.662	225.96
355.878	764.57
356.093	-417.1
356.309	-25.94
356.524	-179.54
356.74	217.77
356.955	-146.77
357.171	-73.04
357.386	150.18
357.602	-245.07
357.817	-109.91
358.033	-208.21
358.248	344.74
358.464	119.46
358.679	-148.82
358.895	-337.23
359.11	53.93
359.325	287.4
359.541	152.23
359.756	80.55
359.972	-265.55
360.187	219.82
360.402	-193.87
360.618	-136.53
360.833	930.46
361.048	180.9
361.264	-179.54
361.479	-66.9
361.694	-44.37
361.909	307.88
362.125	-130.39
362.34	-56.66
362.555	342.69
362.77	168.62
362.986	-302.42
363.201	-173.39
363.416	211.62
363.631	82.6
363.847	-247.12
364.062	-249.17
364.277	209.58
364.492	123.56
364.707	-202.07
364.922	-413.01
365.138	307.88
365.353	414.37
365.568	-247.12
365.783	-208.21
365.998	82.6
366.213	651.94
366.428	-310.61
366.643	10.92
366.858	211.62
367.073	244.39
367.288	-126.29
367.503	-286.03
367.718	135.85
367.933	389.8
368.148	-374.1
368.363	-23.89
368.578	-23.89
368.793	455.33
369.008	-116.05
369.223	-281.94
369.438	234.15
369.653	414.37
369.868	-191.83
370.083	-269.65
370.298	119.46
370.513	361.13
370.728	141.99
370.943	-222.55
371.157	-181.59
371.372	481.96
371.587	-320.85
371.802	-269.65
372.017	121.51
372.232	422.56
372.446	-81.24
372.661	-300.37
372.876	236.2
373.091	221.86
373.306	-46.42
373.52	-185.68
373.735	-234.83
373.95	434.85
374.165	-165.2
374.379	-163.15
374.594	-89.43
374.809	119.46
375.023	64.17
375.238	-245.07
375.453	230.06
375.667	-154.96
375.882	-54.61
376.097	-271.7
376.311	47.79
376.526	-81.24
376.741	-167.25
376.955	96.94
377.17	580.26
377.384	561.83
377.599	-130.39
377.813	-277.84
378.028	520.87
378.242	154.28
378.457	-93.52
378.672	-306.51
378.886	117.42
379.101	-42.32
379.315	-359.76
379.53	-118.1
379.744	193.19
379.958	234.15
380.173	-165.2
380.387	-161.11
380.602	225.96
380.816	-75.09
381.031	-124.24
381.245	-97.62
381.459	207.53
381.674	2775.68
381.888	-157.01
382.103	70.31
382.317	-181.59
382.531	459.43
382.746	-25.94
382.96	-204.11
383.174	12.97
383.388	451.24
383.603	53.93
383.817	-290.13
384.031	160.42
384.246	418.47
384.46	66.22
384.674	350.89
384.888	53.93
385.103	84.65
385.317	-195.92
385.531	-30.04
385.745	361.13
385.959	252.58
386.174	-195.92
386.388	-220.5
386.602	-15.7
386.816	-83.28
387.03	-120.15
387.244	-79.19
387.458	170.66
387.672	418.47
387.887	-279.89
388.101	-216.4
388.315	373.41
388.529	187.05
388.743	-159.06
388.957	-236.88
389.171	334.5
389.385	-171.35
389.599	-191.83
389.813	41.64
390.027	123.56
390.241	635.55
390.455	-89.43
390.669	-54.61
390.883	-73.04
391.097	481.96
391.311	154.28
391.525	-140.63
391.738	232.1
391.952	217.77
392.166	-11.61
392.38	-187.73
392.594	404.13
392.808	342.69
393.022	-81.24
393.236	-89.43
393.449	180.9
393.663	252.58
393.877	-226.64
394.091	-60.76
394.305	-42.32
394.518	-91.48
394.732	-279.89
394.946	-36.18
395.16	502.43
395.373	135.85
395.587	-167.25
395.801	-216.4
396.015	365.22
396.228	242.34
396.442	-240.98
396.656	-351.57
396.869	463.52
397.083	432.8
397.297	-15.7
397.51	-66.9
397.724	305.83
397.938	82.6
398.151	-277.84
398.365	-259.41
398.578	344.74
398.792	441
399.005	12.97
399.219	-68.95
399.433	215.72
399.646	211.62
399.86	66.22
400.073	8.87
400.287	260.77
400.5	107.18
400.714	45.74
400.927	51.88
401.141	250.53
401.354	1249.94
401.567	260.77
401.781	-310.61
401.994	260.77
402.208	725.66
402.421	-105.81
402.635	-77.14
402.848	160.42
403.061	430.76
403.275	-23.89
403.488	-134.48
403.701	567.97
403.915	363.17
404.128	37.55
404.341	-77.14
404.555	307.88
404.768	76.46
404.981	64.17
405.195	-79.19
405.408	574.11
405.621	307.88
405.834	121.51
406.048	-232.79
406.261	479.91
406.474	498.34
406.687	-99.67
406.9	21.16
407.114	172.71
407.327	303.78
407.54	-171.35
407.753	-179.54
407.966	-54.61
408.179	318.12
408.392	-122.2
408.605	-222.55
408.819	262.82
409.032	291.49
409.245	-101.72
409.458	148.14
409.671	385.7
409.884	377.51
410.097	-298.32
410.31	88.75
410.523	406.18
410.736	135.85
410.949	12.97
411.162	2.73
411.375	516.77
411.588	418.47
411.801	78.51
412.014	-79.19
412.227	119.46
412.44	29.35
412.653	-42.32
412.865	41.64
413.078	461.48
413.291	348.84
413.504	103.08
413.717	-128.34
413.93	352.93
414.143	-93.52
414.356	-56.66
414.568	-267.6
414.781	373.41
414.994	258.73
415.207	12.97
415.42	39.59
415.632	393.89
415.845	617.12
416.058	-200.02
416.271	-169.3
416.483	172.71
416.696	633.51
416.909	-150.87
417.121	-89.43
417.334	320.17
417.547	623.27
417.759	-105.81
417.972	-60.76
418.185	-3.41
418.397	397.99
418.61	-3.41
418.823	21.16
419.035	602.79
419.248	219.82
419.46	-36.18
419.673	39.59
419.885	379.56
420.098	174.76
420.311	4.78
420.523	-208.21
420.736	295.59
420.948	234.15
421.161	-34.13
421.373	-142.68
421.586	250.53
421.798	76.46
422.01	-105.81
422.223	72.36
422.435	92.84
422.648	406.18
422.86	45.74
423.073	-142.68
423.285	469.67
423.497	-60.76
423.71	-116.05
423.922	-62.8
424.134	424.61
424.347	588.45
424.559	127.66
424.771	264.87
424.984	139.94
425.196	322.21
425.408	-146.77
425.621	-193.87
425.833	535.2
426.045	549.54
426.257	-126.29
426.47	62.12
426.682	289.45
426.894	338.6
427.106	12.97
427.318	72.36
427.531	29.35
427.743	479.91
427.955	-64.85
428.167	498.34
428.379	377.51
428.591	187.05
428.804	170.66
429.016	-85.33
429.228	123.56
429.44	441
429.652	246.44
429.864	-187.73
430.076	135.85
430.288	248.49
430.5	66.22
430.712	168.62
430.924	496.29
431.136	225.96
431.348	-109.91
431.56	35.5
431.772	254.63
431.984	211.62
432.196	-9.56
432.408	-25.94
432.62	191.14
432.832	385.7
433.044	391.84
433.256	129.7
433.468	416.42
433.679	-114
433.891	-19.8
434.103	256.68
434.315	623.27
434.527	467.62
434.739	123.56
434.95	178.86
435.162	504.48
435.374	225.96
435.586	96.94
435.798	82.6
436.009	-3.41
436.221	234.15
436.433	60.07
436.645	39.59
436.856	127.66
437.068	604.83
437.28	98.99
437.491	324.26
437.703	553.63
437.915	375.46
438.126	156.33
438.338	314.02
438.55	287.4
438.761	455.33
438.973	135.85
439.184	162.47
439.396	291.49
439.608	488.1
439.819	27.31
440.031	221.86
440.242	533.15
440.454	547.49
440.665	148.14
440.877	250.53
441.088	514.72
441.3	307.88
441.511	-83.28
441.723	88.75
441.934	303.78
442.146	389.8
442.357	225.96
442.569	420.52
442.78	369.32
442.991	729.76
443.203	434.85
443.414	62.12
443.626	729.76
443.837	156.33
444.048	131.75
444.26	45.74
444.471	481.96
444.682	504.48
444.894	-71
445.105	-58.71
445.316	623.27
445.528	500.39
445.739	221.86
445.95	191.14
446.161	473.76
446.373	512.67
446.584	180.9
446.795	135.85
447.006	578.21
447.217	836.25
447.429	31.4
447.64	103.08
447.851	733.86
448.062	406.18
448.273	72.36
448.484	94.89
448.695	543.39
448.907	422.56
449.118	256.68
449.329	416.42
449.54	297.64
449.751	258.73
449.962	219.82
450.173	131.75
450.384	639.65
450.595	760.48
450.806	94.89
451.017	309.93
451.228	799.39
451.439	678.56
451.65	211.62
451.861	-5.46
452.072	268.97
452.283	430.76
452.494	404.13
452.705	219.82
452.915	766.62
453.126	496.29
453.337	240.3
453.548	131.75
453.759	770.72
453.97	1000.09
454.181	481.96
454.391	258.73
454.602	512.67
454.813	699.04
455.024	199.34
455.235	195.24
455.445	520.87
455.656	631.46
455.867	406.18
456.078	287.4
456.288	430.76
456.499	676.51
456.71	264.87
456.921	557.73
457.131	627.36
457.342	504.48
457.553	383.65
457.763	314.02
457.974	651.94
458.184	750.24
458.395	189.1
458.606	254.63
458.816	905.88
459.027	1039
459.237	373.41
459.448	164.52
459.659	793.25
459.869	1139.35
460.08	72.36
460.29	479.91
460.501	1020.57
460.711	420.52
460.922	176.81
461.132	316.07
461.343	1301.14
461.553	357.03
461.764	258.73
461.974	314.02
462.184	686.75
462.395	678.56
462.605	410.28
462.816	260.77
463.026	651.94
463.236	873.12
463.447	332.45
463.657	303.78
463.867	891.55
464.078	580.26
464.288	455.33
464.498	311.97
464.709	631.46
464.919	561.83
465.129	512.67
465.339	410.28
465.55	744.1
465.76	887.45
465.97	522.91
466.18	365.22
466.391	934.56
466.601	742.05
466.811	594.59
467.021	352.93
467.231	883.36
467.441	1088.15
467.651	522.91
467.862	185
468.072	797.34
468.282	1163.93
468.492	549.54
468.702	592.55
468.912	875.17
469.122	1467.03
469.332	873.12
469.542	512.67
469.752	965.28
469.962	946.84
470.172	594.59
470.382	598.69
470.592	1129.11
470.802	1082.01
471.012	719.52
471.222	604.83
471.432	1131.16
471.642	1030.81
471.852	770.72
472.062	656.03
472.272	850.59
472.482	721.57
472.691	549.54
472.901	643.74
473.111	1092.25
473.321	1573.52
473.531	744.1
473.741	821.92
473.95	1116.83
474.16	1137.31
474.37	834.21
474.58	621.22
474.79	1489.56
474.999	1340.05
475.209	735.9
475.419	783.01
475.628	981.66
475.838	1403.54
476.048	864.93
476.258	717.47
476.467	1407.64
476.677	1018.52
476.886	1096.35
477.096	973.47
477.306	1014.43
477.515	1503.89
477.725	1020.57
477.935	987.8
478.144	1567.38
478.354	1090.2
478.563	907.93
478.773	946.84
478.982	1426.07
479.192	1540.76
479.401	1112.73
479.611	979.61
479.82	1221.27
480.03	1448.6
480.239	993.95
480.449	1077.91
480.658	1811.09
480.868	1309.33
481.077	1192.6
481.287	1192.6
481.496	1673.87
481.705	1817.23
481.915	1434.26
482.124	1518.23
482.333	1553.04
482.543	1919.63
482.752	1421.97
482.961	1170.07
483.171	1702.54
483.38	1421.97
483.589	1378.97
483.799	1237.66
484.008	1520.28
484.217	1845.9
484.426	1360.53
484.636	1159.83
484.845	1774.22
485.054	1315.48
485.263	1665.68
485.472	1311.38
485.682	1999.5
485.891	1798.8
486.1	1342.1
486.309	1393.3
486.518	1856.14
486.727	2124.43
486.936	1516.18
487.146	1614.48
487.355	2110.09
487.564	1637.01
487.773	1571.47
487.982	1479.32
488.191	1716.88
488.4	1921.68
488.609	1618.58
488.818	1594
489.027	2409.09
489.236	2284.17
489.445	1757.84
489.654	1544.85
489.863	2112.14
490.072	2030.22
490.281	2001.55
490.49	1743.5
490.698	2327.18
490.907	2251.4
491.116	1706.64
491.325	1647.25
491.534	2431.62
491.743	2003.6
491.952	1893.01
492.16	1860.24
492.369	2192.01
492.578	2265.74
492.787	1974.92
492.996	1755.79
493.204	1950.35
493.413	2593.41
493.622	1630.87
493.831	1673.87
494.039	2521.73
494.248	1794.7
494.457	1827.47
494.665	1712.78
494.874	2341.51
495.083	2835.07
495.291	2036.36
495.5	1864.33
495.709	2480.77
495.917	2228.87
496.126	2028.17
496.335	1983.12
496.543	2183.82
496.752	2257.54
496.96	2290.31
497.169	1800.85
497.377	2192.01
497.586	2534.02
497.794	2204.3
498.003	1741.46
498.211	2304.65
498.42	2759.3
498.628	2273.93
498.837	1974.92
499.045	2577.03
499.254	2538.12
499.462	2177.67
499.671	2030.22
499.879	2908.8
500.087	2718.34
500.296	1909.39
500.504	2114.19
500.713	2667.14
500.921	3072.64
501.129	2085.51
501.338	2247.3
501.546	2577.03
501.754	2536.07
501.962	2128.52
502.171	2081.42
502.379	2701.95
502.587	2935.42
502.795	2323.08
503.004	2298.5
503.212	2574.98
503.42	2701.95
503.628	2327.18
503.837	2456.2
504.045	2822.78
504.253	3056.25
504.461	2249.35
504.669	2249.35
504.877	2837.12
505.085	3043.96
505.294	2275.98
505.502	2660.99
505.71	2787.97
505.918	2771.58
506.126	2388.61
506.334	2292.36
506.542	2779.78
506.75	2873.98
506.958	2570.88
507.166	2593.41
507.374	2708.1
507.582	3203.71
507.79	2556.55
507.998	2398.85
508.206	2839.17
508.414	2966.14
508.622	2443.91
508.83	2529.92
509.037	3011.2
509.245	2660.99
509.453	2351.75
509.661	2443.91
509.869	3238.52
510.077	2986.62
510.285	2718.34
510.492	2175.63
510.7	3582.58
510.908	2847.36
511.116	2587.27
511.324	2482.82
511.531	2689.67
511.739	2921.09
511.947	2785.92
512.155	2945.66
512.362	2906.75
512.57	2671.23
512.778	2585.22
512.985	2560.64
513.193	3134.07
513.401	3330.68
513.608	2644.61
513.816	2695.81
514.024	3160.7
514.231	3394.17
514.439	2708.1
514.646	2579.08
514.854	3312.25
515.061	3191.42
515.269	2773.63
515.477	2650.75
515.684	2968.19
515.892	3273.34
516.099	2624.13
516.307	2579.08
516.514	3203.71
516.722	3488.37
516.929	2884.22
517.136	2787.97
517.344	3494.52
517.551	3187.32
517.759	2892.41
517.966	2863.74
518.173	3129.98
518.381	3129.98
518.588	2976.38
518.796	2847.36
519.003	3445.37
519.21	3220.09
519.418	2749.06
519.625	3179.13
519.832	3273.34
520.039	3304.06
520.247	2777.73
520.454	3013.24
520.661	3629.68
520.868	3375.74
521.076	2972.29
521.283	3054.2
521.49	3908.21
521.697	3431.03
521.904	3220.09
522.112	2970.24
522.319	3431.03
522.526	3312.25
522.733	2978.43
522.94	3125.88
523.147	3529.33
523.354	3654.26
523.561	2970.24
523.768	3215.99
523.975	3730.03
524.183	3408.5
524.39	3205.75
524.597	2986.62
524.804	3500.66
525.011	3293.82
525.218	3121.79
525.425	3121.79
525.632	3904.11
525.838	3373.69
526.045	3183.23
526.252	3158.65
526.459	4747.87
526.666	4506.21
526.873	3222.14
527.08	3117.69
527.287	3973.74
527.494	3652.21
527.701	3224.19
527.907	3267.19
528.114	3674.74
528.321	3545.72
528.528	3285.62
528.735	3228.28
528.941	3455.61
529.148	3459.7
529.355	3435.13
529.562	3089.02
529.768	4043.37
529.975	3609.2
530.182	3474.04
530.388	3308.15
530.595	4043.37
530.802	3349.11
531.008	3492.47
531.215	3527.28
531.422	4375.14
531.628	4502.12
531.835	3498.61
532.042	3404.41
532.248	3674.74
532.455	3879.54
532.661	3422.84
532.868	3584.63
533.074	3834.48
533.281	3986.03
533.487	3535.48
533.694	3506.81
533.9	3707.51
534.107	3951.21
534.313	3480.18
534.52	3330.68
534.726	3988.08
534.933	4657.76
535.139	3512.95
535.345	3431.03
535.552	4086.38
535.758	3897.97
535.965	3619.44
536.171	3644.02
536.377	4092.52
536.584	4299.37
536.79	3594.87
536.996	3793.52
537.203	4020.85
537.409	4110.96
537.615	3734.13
537.821	3830.38
538.028	4315.75
538.234	4219.5
538.44	3637.88
538.646	3830.38
538.853	4205.16
539.059	4076.14
539.265	4072.04
539.471	3572.34
539.677	4323.94
539.883	3912.3
540.09	3717.75
540.296	4342.38
540.502	4053.61
540.708	4061.8
540.914	3957.36
541.12	3889.78
541.326	4258.41
541.532	4252.27
541.738	3895.92
541.944	4010.61
542.15	4538.98
542.356	4102.76
542.562	3885.68
542.768	3940.97
542.974	4803.17
543.18	4733.54
543.386	3910.25
543.592	3838.58
543.798	4596.32
544.004	4641.38
544.21	3981.93
544.415	3936.88
544.621	4459.11
544.827	4682.34
545.033	3793.52
545.239	4297.32
545.445	4182.63
545.651	4516.45
545.856	4045.42
546.062	4217.45
546.268	4313.7
546.474	4303.47
546.679	4029.04
546.885	4084.33
547.091	4344.42
547.297	4954.72
547.502	4211.31
547.708	3986.03
547.914	4072.04
548.119	4485.73
548.325	4153.96
548.531	4002.41
548.736	4833.89
548.942	4321.9
549.147	4076.14
549.353	4446.82
549.559	4700.77
549.764	4565.6
549.97	4039.28
550.175	4244.07
550.381	4633.19
550.586	4260.46
550.792	4262.51
550.997	4229.74
551.203	4749.92
551.408	4575.84
551.614	4182.63
551.819	4258.41
552.025	5028.45
552.23	4874.85
552.435	4160.11
552.641	4452.97
552.846	4293.23
553.052	5055.07
553.257	4596.32
553.462	4379.24
553.668	4493.93
553.873	4952.67
554.078	4299.37
554.283	4387.43
554.489	4848.22
554.694	4700.77
554.899	4395.62
555.105	4504.17
555.31	4973.15
555.515	4903.52
555.72	4739.68
555.925	4459.11
556.131	5069.41
556.336	4674.15
556.541	4450.92
556.746	4446.82
556.951	5216.86
557.156	5108.32
557.361	4618.85
557.567	4680.29
557.772	5343.83
557.977	4772.45
558.182	4532.84
558.387	4528.74
558.592	4758.11
558.797	5098.08
559.002	4756.07
559.207	4788.83
559.412	4911.71
559.617	5337.69
559.822	4541.03
560.027	4538.98
560.232	4973.15
560.437	5081.69
560.642	4510.31
560.847	4518.5
561.051	4895.33
561.256	4926.05
561.461	4663.91
561.666	4489.83
561.871	4999.77
562.076	5290.59
562.281	4741.73
562.485	4573.8
562.69	5100.12
562.895	5169.76
563.1	4618.85
563.305	4569.7
563.509	5132.89
563.714	5618.26
563.919	4733.54
564.123	4848.22
564.328	4977.25
564.533	5433.94
564.737	4661.86
564.942	4702.82
565.147	5446.23
565.351	5528.15
565.556	4921.95
565.761	4833.89
565.965	5167.71
566.17	4766.31
566.374	4835.94
566.579	4708.96
566.784	5196.38
566.988	5075.55
567.193	4616.8
567.397	4848.22
567.602	4958.82
567.806	5077.6
568.011	4901.47
568.215	4852.32
568.42	5225.05
568.624	4866.66
568.828	4817.51
569.033	5050.97
569.237	5407.32
569.442	5364.31
569.646	4756.07
569.85	4817.51
570.055	5280.35
570.259	5200.48
570.463	5198.43
570.668	4913.76
570.872	5190.24
571.076	5245.53
571.281	5059.17
571.485	5112.41
571.689	5263.96
571.893	5362.26
572.098	5225.05
572.302	5073.5
572.506	5622.36
572.71	5280.35
572.914	5147.23
573.119	5214.81
573.323	5696.08
573.527	5612.12
573.731	5055.07
573.935	4928.1
574.139	5435.99
574.343	5235.29
574.547	5067.36
574.751	5112.41
574.955	5735
575.159	5778
575.364	5136.99
575.568	4993.63
575.772	5325.4
575.976	5562.97
576.18	5122.65
576.383	4878.94
576.587	5534.29
576.791	5724.76
576.995	4971.1
577.199	5003.87
577.403	5696.08
577.607	5874.26
577.811	5055.07
578.015	5356.12
578.219	5771.86
578.422	5644.88
578.626	5153.37
578.83	5487.19
579.034	5868.11
579.238	5599.83
579.442	5257.82
579.645	5595.73
579.849	5605.97
580.053	5696.08
580.257	5268.06
580.46	5251.67
580.664	5681.75
580.868	5755.47
581.071	5552.73
581.275	5376.6
581.479	5272.15
581.682	5767.76
581.886	5194.33
582.09	5380.7
582.293	5704.28
582.497	5704.28
582.7	5691.99
582.904	5374.55
583.107	5702.23
583.311	5517.91
583.515	5372.5
583.718	5479
583.922	5788.24
584.125	6195.79
584.329	5288.54
584.532	5495.38
584.735	6195.79
584.939	5671.51
585.142	5372.5
585.346	5212.76
585.549	5767.76
585.753	5464.66
585.956	5364.31
586.159	5653.08
586.363	6232.65
586.566	6070.86
586.769	5272.15
586.973	5567.06
587.176	6109.77
587.379	6181.45
587.582	6017.61
587.786	5778
587.989	5771.86
588.192	6529.61
588.395	5550.68
588.599	6005.33
588.802	6072.91
589.005	6324.81
589.208	5794.39
589.411	5714.52
589.615	6109.77
589.818	6511.18
590.021	5913.17
590.224	5839.44
590.427	6091.34
590.63	6093.39
590.833	5444.18
591.036	5702.23
591.239	5939.79
591.442	6017.61
591.645	5997.14
591.848	5722.71
592.051	6191.69
592.254	6287.95
592.457	5843.54
592.66	5573.21
592.863	6017.61
593.066	6298.19
593.269	5802.58
593.472	5829.2
593.675	5796.43
593.878	6289.99
594.081	5878.35
594.284	5665.36
594.486	6339.15
594.689	5993.04
594.892	6077.01
595.095	5775.95
595.298	6220.36
595.5	5923.41
595.703	5964.37
595.906	6034
596.109	6474.31
596.311	6306.38
596.514	5657.17
596.717	6093.39
596.92	6670.92
597.122	6586.95
597.325	5661.27
597.528	6034
597.73	6662.72
597.933	6232.65
598.136	6089.29
598.338	5778
598.541	6550.09
598.743	6732.36
598.946	6089.29
599.148	6011.47
599.351	6406.73
599.554	6611.53
599.756	6081.1
599.959	6203.98
600.161	6644.29
600.363	6861.38
600.566	6400.58
600.768	6265.42
600.971	6799.94
601.173	6586.95
601.376	6079.05
601.578	6197.84
601.78	6578.76
601.983	6971.97
602.185	5982.8
602.388	6281.8
602.59	6388.3
602.792	6324.81
602.995	6275.66
603.197	6277.71
603.399	6484.55
603.601	6543.94
603.804	6222.41
604.006	6140.49
604.208	6296.14
604.41	6189.64
604.613	6476.36
604.815	6179.4
605.017	7023.17
605.219	6267.47
605.421	6539.85
605.623	6206.03
605.826	6709.83
606.028	6994.5
606.23	6249.04
606.432	6212.17
606.634	6937.15
606.836	6824.51
607.038	5972.56
607.24	6406.73
607.442	6509.13
607.644	6515.27
607.846	6353.48
608.048	6230.6
608.25	7010.88
608.452	6361.67
608.654	6285.9
608.856	6044.24
609.058	6328.91
609.26	6808.13
609.462	6521.42
609.664	6183.5
609.866	6941.25
610.067	6857.28
610.269	6392.39
610.471	6265.42
610.673	6476.36
610.875	6730.31
611.077	6244.94
611.278	6314.57
611.48	6621.77
611.682	7051.84
611.884	6294.09
612.085	6292.04
612.287	6333
612.489	6890.05
612.69	6140.49
612.892	6396.49
613.094	6883.91
613.295	6664.77
613.497	6212.17
613.699	6363.72
613.9	6906.43
614.102	6869.57
614.304	6371.91
614.505	6077.01
614.707	6617.67
614.908	6799.94
615.11	6163.02
615.311	6335.05
615.513	6951.49
615.714	6726.21
615.916	6234.7
616.117	6474.31
616.319	6552.13
616.52	6781.51
616.722	6459.98
616.923	6345.29
617.124	6918.72
617.326	6795.84
617.527	6451.78
617.729	6525.51
617.93	6951.49
618.131	6931.01
618.333	6545.99
618.534	6621.77
618.735	6333
618.937	7033.41
619.138	6183.5
619.339	6249.04
619.54	6804.03
619.742	6711.88
619.943	6595.14
620.144	6478.41
620.345	6935.1
620.546	6961.73
620.748	6234.7
620.949	6525.51
621.15	6818.37
621.351	6742.6
621.552	6394.44
621.753	6165.07
621.954	6359.63
622.155	7213.63
622.356	6320.71
622.558	6494.79
622.759	6763.08
622.96	6869.57
623.161	6351.43
623.362	6416.97
623.563	6791.75
623.764	6922.82
623.965	6455.88
624.166	6672.96
624.366	6691.4
624.567	6709.83
624.768	6357.58
624.969	6496.84
625.17	6521.42
625.371	6873.67
625.572	6586.95
625.773	6419.02
625.973	7107.13
626.174	7055.93
626.375	6650.44
626.576	6746.69
626.777	7029.31
626.977	7270.97
627.178	6533.7
627.379	6560.33
627.58	6758.98
627.78	6877.76
627.981	6535.75
628.182	6615.62
628.382	7043.65
628.583	6640.2
628.784	6519.37
628.984	6758.98
629.185	7164.48
629.386	7084.61
629.586	6636.1
629.787	6613.57
629.987	7062.08
630.188	7115.33
630.388	6752.84
630.589	6541.89
630.79	7477.82
630.99	6943.3
631.191	6715.97
631.391	6660.68
631.591	7221.82
631.792	7311.93
631.992	6883.91
632.193	6580.81
632.393	7240.25
632.594	6797.89
632.794	6650.44
632.994	6730.31
633.195	7033.41
633.395	6971.97
633.595	6574.66
633.796	6844.99
633.996	6785.6
634.196	7356.99
634.397	6644.29
634.597	6713.92
634.797	6758.98
634.997	7393.85
635.198	6941.25
635.398	6658.63
635.598	6871.62
635.798	7277.12
635.998	7129.66
636.199	6668.87
636.399	7021.12
636.599	6705.73
636.799	6724.16
636.999	6951.49
637.199	7053.89
637.399	7164.48
637.599	6777.41
637.799	6951.49
637.999	6906.43
638.199	7533.11
638.399	6752.84
638.599	6828.61
638.799	7246.4
638.999	7445.05
639.199	7045.7
639.399	6875.71
639.599	7309.88
639.799	7086.65
639.999	6713.92
640.199	6675.01
640.399	7057.98
640.599	7164.48
640.799	6769.22
640.998	6916.67
641.198	7270.97
641.398	7287.36
641.598	6996.54
641.798	6978.11
641.997	8012.34
642.197	7197.24
642.397	7111.23
642.597	6896.19
642.796	7131.71
642.996	7410.23
643.196	7090.75
643.395	6898.24
643.595	7512.63
643.795	6754.88
643.994	6912.58
644.194	7082.56
644.394	7535.16
644.593	7330.36
644.793	6812.23
644.992	7168.57
645.192	7258.68
645.392	6865.47
645.591	7064.13
645.791	6971.97
645.99	7270.97
646.19	7213.63
646.389	7195.2
646.589	6939.2
646.788	7414.33
646.987	7408.19
647.187	7242.3
647.386	7057.98
647.586	7379.51
647.785	7563.83
647.984	6996.54
648.184	7187
648.383	7207.48
648.582	7195.2
648.782	7187
648.981	6994.5
649.18	7094.85
649.38	7338.55
649.579	7012.93
649.778	7004.74
649.977	7404.09
650.177	7486.01
650.376	7019.07
650.575	6953.54
650.774	7774.77
650.973	7201.34
651.173	6855.23
651.372	7078.46
651.571	7113.28
651.77	7746.1
651.969	7234.11
652.168	7307.84
652.367	7193.15
652.566	7422.52
652.765	7051.84
652.964	7512.63
653.163	7936.56
653.362	7299.64
653.561	6992.45
653.76	7199.29
653.959	7279.16
654.158	7547.45
654.357	7266.88
654.556	7045.7
654.755	7447.1
654.954	7463.48
655.153	7322.17
655.352	7348.79
655.551	7600.69
655.749	7283.26
655.948	7250.49
656.147	7262.78
656.346	7551.54
656.545	7371.32
656.743	7090.75
656.942	7316.03
657.141	7490.1
657.34	7260.73
657.538	7273.02
657.737	7115.33
657.936	7111.23
658.135	7414.33
658.333	7074.37
658.532	7473.72
658.731	7959.09
658.929	7709.24
659.128	7369.27
659.326	7154.24
659.525	7746.1
659.724	7553.59
659.922	6965.82
660.121	6877.76
660.319	7477.82
660.518	7182.91
660.716	7156.29
660.915	7189.05
661.113	8000.05
661.312	7301.69
661.51	7328.31
661.709	7467.58
661.907	7602.74
662.105	7975.47
662.304	7324.22
662.502	7418.43
662.701	7809.59
662.899	7381.56
663.097	7731.76
663.296	6750.79
663.494	7766.58
663.692	7993.9
663.891	7055.93
664.089	7012.93
664.287	7504.44
664.485	7944.75
664.684	7152.19
664.882	7131.71
665.08	7463.48
665.278	7672.37
665.476	6949.44
665.675	7483.96
665.873	7879.22
666.071	7705.14
666.269	7285.31
666.467	7393.85
666.665	7549.5
666.863	7612.98
667.061	7436.86
667.259	7299.64
667.457	7672.37
667.655	7647.8
667.853	7207.48
668.051	7504.44
668.249	7299.64
668.447	7819.83
668.645	7172.67
668.843	7498.3
669.041	7506.49
669.239	7197.24
669.437	7381.56
669.635	7344.7
669.833	7305.79
670.031	7696.95
670.229	7115.33
670.426	7551.54
670.624	7297.6
670.822	7133.76
671.02	7246.4
671.218	7248.44
671.415	7219.77
671.613	7639.61
671.811	7502.39
672.009	7338.55
672.206	7785.01
672.404	7422.52
672.602	7461.43
672.799	7268.92
672.997	7594.55
673.195	7688.76
673.392	7252.54
673.59	6900.29
673.788	7373.37
673.985	6951.49
674.183	7324.22
674.38	7060.03
674.578	7655.99
674.775	7238.2
674.973	7111.23
675.17	6918.72
675.368	7776.82
675.565	7604.79
675.763	7037.5
675.96	7125.57
676.158	7795.25
676.355	7418.43
676.553	7240.25
676.75	7299.64
676.947	7541.3
677.145	7379.51
677.342	7340.6
677.539	7105.09
677.737	7414.33
677.934	7907.89
678.131	7412.28
678.329	7230.01
678.526	7789.11
678.723	7557.69
678.92	7133.76
679.118	7144
679.315	7053.89
679.512	7844.4
679.709	7119.42
679.906	7158.33
680.104	7600.69
680.301	7502.39
680.498	6945.34
680.695	7119.42
680.892	7090.75
681.089	7144
681.286	7270.97
681.483	6816.32
681.68	7529.02
681.877	7510.58
682.075	7121.47
682.272	7426.62
682.469	7371.32
682.665	7311.93
682.862	7004.74
683.059	6910.53
683.256	7469.62
683.453	7393.85
683.65	7166.53
683.847	7176.77
684.044	7399.99
684.241	7111.23
684.438	7305.79
684.635	7053.89
684.831	7995.95
685.028	7666.23
685.225	7094.85
685.422	7170.62
685.619	7199.29
685.815	7299.64
686.012	7205.44
686.209	7131.71
686.405	7084.61
686.602	7602.74
686.799	6752.84
686.996	6928.96
687.192	6933.06
687.389	7807.54
687.586	7000.64
687.782	7094.85
687.979	7795.25
688.175	7428.67
688.372	7156.29
688.568	7053.89
688.765	7117.37
688.962	7510.58
689.158	7098.94
689.355	6912.58
689.551	7391.8
689.748	7078.46
689.944	7039.55
690.14	6920.77
690.337	7553.59
690.533	6951.49
690.73	6961.73
690.926	7078.46
691.123	7281.21
691.319	7078.46
691.515	6689.35
691.712	7027.26
691.908	7420.47
692.104	7160.38
692.301	7051.84
692.497	7051.84
692.693	7356.99
692.889	7438.91
693.086	7086.65
693.282	6756.93
693.478	7100.99
693.674	7547.45
693.87	7025.22
694.067	6777.41
694.263	7258.68
694.459	7160.38
694.655	7156.29
694.851	7227.96
695.047	7352.89
695.243	7377.47
695.439	7113.28
695.635	6658.63
695.831	7223.87
696.027	7199.29
696.224	6863.43
696.42	7387.71
696.615	7492.15
696.811	7273.02
697.007	6900.29
697.203	7023.17
697.399	7168.57
697.595	7457.34
697.791	6912.58
697.987	6888
698.183	6836.8
698.379	6937.15
698.575	6869.57
698.77	6971.97
698.966	7164.48
699.162	7443
699.358	6908.48
699.554	6804.03
699.749	7438.91
699.945	7021.12
700.141	6951.49
700.337	6990.4
700.532	6957.63
700.728	6789.7
700.924	6756.93
701.119	6806.08
701.315	7266.88
701.511	6992.45
701.706	6951.49
701.902	6640.2
702.097	7182.91
702.293	7346.75
702.489	6861.38
702.684	6980.16
702.88	7131.71
703.075	7064.13
703.271	6570.57
703.466	6617.67
703.662	6992.45
703.857	7281.21
704.053	6967.87
704.248	6953.54
704.443	7191.1
704.639	7111.23
704.834	6888
705.03	6775.36
705.225	7234.11
705.42	7178.81
705.616	6818.37
705.811	6754.88
706.006	6804.03
706.202	6814.27
706.397	6892.1
706.592	6509.13
706.787	7174.72
706.983	7045.7
707.178	6986.3
707.373	6865.47
707.568	7115.33
707.763	7160.38
707.959	6726.21
708.154	6568.52
708.349	6748.74
708.544	7107.13
708.739	6914.63
708.934	6640.2
709.129	7141.95
709.324	7365.18
709.519	6787.65
709.714	6652.49
709.909	7361.08
710.104	7045.7
710.299	6582.85
710.494	6847.04
710.689	7184.96
710.884	7012.93
711.079	6902.34
711.274	6974.02
711.469	7168.57
711.664	6894.15
711.859	6832.71
712.054	6806.08
712.249	6924.86
712.443	7166.53
712.638	6642.25
712.833	6746.69
713.028	6990.4
713.223	6869.57
713.417	6855.23
713.612	6586.95
713.807	7230.01
714.002	7479.86
714.196	6931.01
714.391	6519.37
714.586	7045.7
714.78	7004.74
714.975	6480.46
715.17	6545.99
715.364	6777.41
715.559	7156.29
715.754	6281.8
715.948	6396.49
716.143	7352.89
716.337	6986.3
716.532	6931.01
716.726	6711.88
716.921	7000.64
717.115	7266.88
717.31	6351.43
717.504	7064.13
717.699	6783.56
717.893	6955.58
718.088	6414.92
718.282	6492.74
718.476	6982.21
718.671	6974.02
718.865	6582.85
719.059	6431.3
719.254	6642.25
719.448	7078.46
719.642	7746.1
719.837	6316.62
720.031	6992.45
720.225	7170.62
720.419	6556.23
720.614	6400.58
720.808	6933.06
721.002	6816.32
721.196	6541.89
721.39	6451.78
721.585	6992.45
721.779	6738.5
721.973	6578.76
722.167	6330.95
722.361	6982.21
722.555	7115.33
722.749	6441.54
722.943	6459.98
723.137	6320.71
723.331	6687.3
723.525	6394.44
723.719	6527.56
723.913	6859.33
724.107	6890.05
724.301	6144.59
724.495	6591.05
724.689	7129.66
724.883	6820.42
725.077	6378.06
725.271	6543.94
725.465	7084.61
725.659	6699.59
725.853	6644.29
726.046	6263.37
726.24	6437.45
726.434	6801.99
726.628	6386.25
726.822	6521.42
727.015	6863.43
727.209	6808.13
727.403	6388.3
727.596	6230.6
727.79	6844.99
727.984	6777.41
728.177	6490.7
728.371	6529.61
728.565	6961.73
728.758	6314.57
728.952	6322.76
729.146	6300.23
729.339	7000.64
729.533	6404.68
729.726	6488.65
729.92	6390.35
730.113	7049.79
730.307	6586.95
730.5	6382.15
730.694	6337.1
730.887	6781.51
731.081	6689.35
731.274	6427.21
731.468	6388.3
731.661	6543.94
731.854	6543.94
732.048	6345.29
732.241	6142.54
732.435	6349.39
732.628	6703.68
732.821	6400.58
733.014	6326.86
733.208	6339.15
733.401	6593.09
733.594	6191.69
733.788	6353.48
733.981	7017.02
734.174	6625.86
734.367	6535.75
734.56	6468.17
734.754	6828.61
734.947	6515.27
735.14	6255.18
735.333	6363.72
735.526	6918.72
735.719	6373.96
735.912	6173.26
736.105	6208.08
736.298	6715.97
736.491	6574.66
736.684	6283.85
736.877	6289.99
737.07	6568.52
737.263	6820.42
737.456	6261.32
737.649	6077.01
737.842	6392.39
738.035	6586.95
738.228	6238.8
738.421	6617.67
738.614	6804.03
738.807	6787.65
739	5995.09
739.192	6148.68
739.385	6660.68
739.578	6435.4
739.771	6625.86
739.964	6173.26
740.156	6550.09
740.349	6654.53
740.542	6466.12
740.735	6181.45
740.927	6214.22
741.12	6156.88
741.313	6126.16
741.505	6390.35
741.698	6773.32
741.891	6642.25
742.083	6333
742.276	6255.18
742.468	6554.18
742.661	6406.73
742.854	6287.95
743.046	6226.51
743.239	6883.91
743.431	6478.41
743.624	6261.32
743.816	5960.27
744.009	6365.77
744.201	6623.81
744.393	6328.91
744.586	6152.78
744.778	6771.27
744.971	6361.67
745.163	6251.08
745.355	6457.93
745.548	6558.28
745.74	6234.7
745.932	6208.08
746.125	6363.72
746.317	6980.16
746.509	6267.47
746.702	6300.23
746.894	6234.7
747.086	6490.7
747.278	6806.08
747.471	6357.58
747.663	6312.52
747.855	6419.02
748.047	6791.75
748.239	6265.42
748.431	6099.53
748.623	6810.18
748.815	6810.18
749.008	6027.85
749.2	6230.6
749.392	6601.29
749.584	6402.63
749.776	6228.56
749.968	6318.67
750.16	6949.44
750.352	6459.98
750.544	6212.17
750.736	6068.81
750.928	6550.09
751.12	6357.58
751.311	6052.43
751.503	6142.54
751.695	6558.28
751.887	6484.55
752.079	5814.87
752.271	6169.16
752.463	7365.18
752.654	6390.35
752.846	6333
753.038	6255.18
753.23	6304.33
753.421	6429.26
753.613	6240.84
753.805	6269.51
753.997	6632.01
754.188	6580.81
754.38	5956.18
754.572	6117.97
754.763	6384.2
754.955	6273.61
755.146	6132.3
755.338	6060.62
755.53	6345.29
755.721	6275.66
755.913	5956.18
756.104	5886.54
756.296	6058.57
756.487	6457.93
756.679	6077.01
756.87	5749.33
757.062	6214.22
757.253	6283.85
757.445	6050.38
757.636	6066.77
757.827	6249.04
758.019	6781.51
758.21	5739.09
758.401	5939.79
758.593	6763.08
758.784	6572.61
758.975	5743.19
759.167	5864.02
759.358	6275.66
759.549	6312.52
759.74	5732.95
759.932	5849.68
760.123	6439.5
760.314	6064.72
760.505	6158.92
760.696	5917.26
760.888	6715.97
761.079	6124.11
761.27	5833.3
761.461	5648.98
761.652	6552.13
761.843	5937.74
762.034	6152.78
762.225	6103.63
762.416	6058.57
762.607	6146.64
762.798	5861.97
762.989	5683.8
763.18	6758.98
763.371	5919.31
763.562	5722.71
763.753	5763.67
763.944	6300.23
764.135	6304.33
764.326	6050.38
764.517	5691.99
764.708	6066.77
764.899	6195.79
765.089	5732.95
765.28	5526.1
765.471	6027.85
765.662	6070.86
765.853	5612.12
766.043	5634.64
766.234	6296.14
766.425	6273.61
766.615	5808.72
766.806	5603.93
766.997	6271.56
767.187	6046.29
767.378	5642.84
767.569	5458.52
767.759	6081.1
767.95	5939.79
768.141	5812.82
768.331	5599.83
768.522	5888.59
768.712	6115.92
768.903	5544.53
769.093	5319.26
769.284	6187.6
769.474	5884.5
769.665	5431.9
769.855	5464.66
770.046	6058.57
770.236	5882.45
770.426	5608.02
770.617	5479
770.807	5997.14
770.998	5651.03
771.188	5321.31
771.378	5352.02
771.569	5886.54
771.759	5954.13
771.949	5288.54
772.139	5294.68
772.33	5757.52
772.52	6017.61
772.71	5513.81
772.9	5280.35
773.09	6150.73
773.281	6093.39
773.471	5149.28
773.661	5382.74
773.851	5767.76
774.041	5481.05
774.231	5294.68
774.421	5501.53
774.611	5988.94
774.802	5612.12
774.992	5405.27
775.182	5038.69
775.372	5616.21
775.562	5841.49
775.752	5356.12
775.942	5392.98
776.131	5866.07
776.321	5735
776.511	5444.18
776.701	5216.86
776.891	5763.67
777.081	5276.25
777.271	5366.36
777.461	5294.68
777.651	5685.84
777.84	5759.57
778.03	5362.26
778.22	5257.82
778.41	5663.32
778.599	5556.82
778.789	5329.5
778.979	5202.52
779.169	5745.24
779.358	5605.97
779.548	5440.09
779.738	4909.66
779.927	5601.88
780.117	5159.52
780.307	5196.38
780.496	4967.01
780.686	5608.02
780.875	5849.68
781.065	5231.19
781.254	5182.04
781.444	5407.32
781.633	5487.19
781.823	4993.63
782.012	4977.25
782.202	5169.76
782.391	5384.79
782.581	4985.44
782.77	5278.3
782.96	5526.1
783.149	5317.21
783.338	5272.15
783.528	4784.74
783.717	5630.55
783.906	5663.32
784.096	5157.47
784.285	5042.78
784.474	5157.47
784.663	5042.78
784.853	5046.88
785.042	5001.82
785.231	5151.32
785.42	5503.57
785.61	5161.56
785.799	4711.01
785.988	5292.63
786.177	5182.04
786.366	5130.84
786.555	5089.89
786.744	5468.76
786.933	5272.15
787.122	4897.38
787.312	5001.82
787.501	5141.08
787.69	5274.2
787.879	5059.17
788.068	4964.96
788.257	4850.27
788.445	5134.94
788.634	4899.42
788.823	5036.64
789.012	5945.94
789.201	5513.81
789.39	5012.06
789.579	4674.15
789.768	5163.61
789.957	5202.52
790.145	4952.67
790.334	4549.22
790.523	5042.78
790.712	5012.06
790.9	4903.52
791.089	4649.57
791.278	5380.7
791.467	5347.93
791.655	5108.32
791.844	5313.11
792.033	5010.01
792.221	4997.73
792.41	4907.62
792.599	4661.86
792.787	5325.4
792.976	5284.44
793.164	4590.18
793.353	4786.79
793.541	5360.22
793.73	5284.44
793.918	4835.94
794.107	4688.48
794.295	4995.68
794.484	5134.94
794.672	4725.35
794.861	4747.87
795.049	5169.76
795.238	5517.91
795.426	4534.89
795.614	4743.78
795.803	5253.72
795.991	5460.57
796.179	4602.47
796.368	4756.07
796.556	5292.63
796.744	4749.92
796.932	4706.91
797.121	4563.56
797.309	5059.17
797.497	5134.94
797.685	4809.31
797.874	4604.52
798.062	4917.86
798.25	5329.5
798.438	4545.13
798.626	4620.9
798.814	4999.77
799.002	5370.46
799.19	4969.05
799.378	4747.87
799.566	5149.28
799.755	5259.87
799.943	4856.42
800.131	4625
800.318	5159.52
800.506	5220.95
800.694	4801.12
800.882	4930.14
801.07	5321.31
801.258	4848.22
801.446	4641.38
801.634	4586.08
801.822	4979.29
802.01	4907.62
802.197	4618.85
802.385	4936.29
802.573	5040.73
802.761	4797.03
802.949	4739.68
803.136	4465.25
803.324	5182.04
803.512	5069.41
803.699	4831.84
803.887	4489.83
804.075	5341.79
804.262	4938.34
804.45	4463.21
804.638	4659.81
804.825	4614.76
805.013	4706.91
805.201	4751.97
805.388	4561.51
805.576	4756.07
805.763	5386.84
805.951	4815.46
806.138	4799.07
806.326	5411.42
806.513	5124.7
806.701	4731.49
806.888	4606.56
807.075	5124.7
807.263	5345.88
807.45	4510.31
807.638	4874.85
807.825	5380.7
808.012	5286.49
808.2	4782.69
808.387	5108.32
808.574	5223
808.761	5362.26
808.949	4729.44
809.136	4768.35
809.323	4872.8
809.51	4952.67
809.698	5208.67
809.885	5030.49
810.072	5157.47
810.259	5354.07
810.446	4815.46
810.633	4751.97
810.82	5399.13
811.008	5427.8
811.195	5053.02
811.382	5018.21
811.569	5098.08
811.756	4786.79
811.943	4964.96
812.13	4774.5
812.317	4758.11
812.504	4872.8
812.691	5014.11
812.878	4928.1
813.064	5493.33
813.251	5096.03
813.438	4670.05
813.625	4819.55
813.812	4909.66
813.999	5081.69
814.186	4903.52
814.372	4837.98
814.559	5048.93
814.746	5509.72
814.933	4809.31
815.12	5046.88
815.306	4811.36
815.493	4866.66
815.68	4641.38
815.866	4815.46
816.053	5411.42
816.24	5456.47
816.426	5050.97
816.613	4616.8
816.799	5223
816.986	5376.6
817.173	4772.45
817.359	4706.91
817.546	5073.5
817.732	4747.87
817.919	4510.31
818.105	4952.67
818.292	4840.03
818.478	5110.36
818.665	4854.37
818.851	4643.43
819.037	5378.65
819.224	5048.93
819.41	4616.8
819.597	4661.86
819.783	5464.66
819.969	5169.76
820.156	4756.07
820.342	4737.63
820.528	5767.76
820.714	4827.74
820.901	4909.66
821.087	4659.81
821.273	5374.55
821.459	5044.83
821.646	4690.53
821.832	4555.37
822.018	5022.3
822.204	5038.69
822.39	4764.26
822.576	4493.93
822.762	5253.72
822.948	5130.84
823.134	4985.44
823.32	4657.76
823.507	4641.38
823.693	4948.58
823.879	4983.39
824.065	4616.8
824.25	4848.22
824.436	4889.18
824.622	4700.77
824.808	4590.18
824.994	4805.22
825.18	4584.04
825.366	4446.82
825.552	4567.65
825.738	4930.14
825.923	5149.28
826.109	4729.44
826.295	4418.15
826.481	4538.98
826.667	4799.07
826.852	4854.37
827.038	4346.47
827.224	5120.6
827.409	5268.06
827.595	4317.8
827.781	4780.64
827.966	5024.35
828.152	5116.51
828.338	4608.61
828.523	4317.8
828.709	4547.17
828.894	5096.03
829.08	4416.1
829.266	4321.9
829.451	4639.33
829.637	4858.46
829.822	4614.76
830.008	4532.84
830.193	4954.72
830.378	5196.38
830.564	4510.31
830.749	4334.18
830.935	4878.94
831.12	4924
831.305	4336.23
831.491	4493.93
831.676	4338.28
831.861	4880.99
832.047	4436.58
832.232	4371.05
832.417	4960.86
832.602	4680.29
832.788	4303.47
832.973	4440.68
833.158	4754.02
833.343	4743.78
833.528	4506.21
833.714	4559.46
833.899	4704.87
834.084	5216.86
834.269	4524.65
834.454	4319.85
834.639	4805.22
834.824	4608.61
835.009	4510.31
835.194	4495.97
835.379	5014.11
835.564	4936.29
835.749	4561.51
835.934	4358.76
836.119	4874.85
836.304	4639.33
836.489	4342.38
836.674	4592.23
836.859	4430.44
837.044	4985.44
837.228	4385.38
837.413	4276.84
837.598	4676.2
837.783	4729.44
837.968	4280.94
838.152	4199.02
838.337	4110.96
838.522	4928.1
838.707	4782.69
838.891	4547.17
839.076	4604.52
839.261	4743.78
839.445	4268.65
839.63	4375.14
839.815	4893.28
839.999	4541.03
840.184	4289.13
840.368	4305.51
840.553	4706.91
840.737	4803.17
840.922	4141.68
841.106	4192.87
841.291	4184.68
841.475	4600.42
841.66	4299.37
841.844	4239.98
842.029	5315.16
842.213	4215.4
842.397	4231.79
842.582	3957.36
842.766	4715.11
842.951	4616.8
843.135	4186.73
843.319	4166.25
843.504	4403.82
843.688	4581.99
843.872	3930.73
844.056	4184.68
844.241	4608.61
844.425	4219.5
844.609	4469.35
844.793	4031.09
844.977	4659.81
845.161	4670.05
845.346	4043.37
845.53	4221.55
845.714	4319.85
845.898	4711.01
846.082	3965.55
846.266	4184.68
846.45	4481.64
846.634	4491.88
846.818	4043.37
847.002	4149.87
847.186	4444.77
847.37	4059.76
847.554	3945.07
847.738	4063.85
847.922	4649.57
848.106	4364.9
848.29	3973.74
848.473	4035.18
848.657	4530.79
848.841	4364.9
849.025	4078.19
849.209	3824.24
849.392	4534.89
849.576	4092.52
849.76	3805.81
849.944	4090.48
850.127	4612.71
850.311	4018.8
850.495	3814
850.678	3781.23
850.862	4436.58
851.046	4643.43
851.229	4289.13
851.413	3797.62
851.596	4280.94
851.78	4270.7
851.964	4053.61
852.147	3871.34
852.331	4837.98
852.514	4428.39
852.698	3891.82
852.881	3721.84
853.065	4348.52
853.248	4123.24
853.431	4084.33
853.615	3920.49
853.798	4715.11
853.982	4305.51
854.165	4016.75
854.348	3750.51
854.532	3830.38
854.715	3838.58
854.898	3885.68
855.081	3768.95
855.265	4319.85
855.448	4489.83
855.631	3734.13
855.814	3699.31
855.997	4217.45
856.181	4153.96
856.364	3836.53
856.547	3605.11
856.73	4135.53
856.913	4084.33
857.096	3721.84
857.279	3871.34
857.462	3920.49
857.645	4227.69
857.828	4045.42
858.011	3895.92
858.194	3951.21
858.377	4276.84
858.56	3654.26
858.743	3789.42
858.926	3758.71
859.109	4119.15
859.292	3564.15
859.475	3576.44
859.658	4192.87
859.841	4280.94
860.023	3650.16
860.206	3644.02
860.389	4053.61
860.572	4289.13
860.755	3570.29
860.937	3627.64
861.12	3838.58
861.303	3846.77
861.486	3658.35
861.668	3703.41
861.851	4072.04
862.034	4147.82
862.216	3881.58
862.399	3461.75
862.581	3967.6
862.764	4325.99
862.947	3644.02
863.129	3529.33
863.312	3609.2
863.494	4299.37
863.677	3824.24
863.859	3342.97
864.042	4080.24
864.224	4303.47
864.406	3801.71
864.589	3404.41
864.771	3910.25
864.954	3525.24
865.136	3537.52
865.318	3314.3
865.501	3803.76
865.683	3265.14
865.865	3547.76
866.048	3482.23
866.23	3744.37
866.412	3754.61
866.594	3273.34
866.777	3605.11
866.959	3768.95
867.141	3674.74
867.323	3867.25
867.505	3515
867.687	3734.13
867.869	3742.32
868.052	3560.05
868.234	3371.64
868.416	3848.82
868.598	4072.04
868.78	3431.03
868.962	3439.22
869.144	4006.51
869.326	4010.61
869.508	3400.31
869.69	3465.85
869.872	3523.19
870.054	4047.47
870.236	3154.55
870.417	3420.79
870.599	3551.86
870.781	4088.43
870.963	3533.43
871.145	3418.74
871.327	3465.85
871.508	3912.3
871.69	3465.85
871.872	3469.94
872.054	3615.35
872.235	3877.49
872.417	3390.07
872.599	3162.75
872.78	4057.71
872.962	3594.87
873.144	3265.14
873.325	3469.94
873.507	3940.97
873.689	3578.48
873.87	3306.1
874.052	3515
874.233	3502.71
874.415	3920.49
874.596	3488.37
874.778	3254.91
874.959	3596.92
875.141	3938.93
875.322	3347.06
875.503	3166.84
875.685	3793.52
875.866	3166.84
876.048	3273.34
876.229	3281.53
876.41	3564.15
876.592	3758.71
876.773	3369.59
876.954	3228.28
877.136	4029.04
877.317	3674.74
877.498	3191.42
877.679	3406.45
877.86	3801.71
878.042	3676.79
878.223	3496.57
878.404	3574.39
878.585	3789.42
878.766	4063.85
878.947	3543.67
879.128	3644.02
879.309	3895.92
879.49	3861.1
879.672	3459.7
879.853	3345.02
880.034	3486.33
880.215	3422.84
880.396	3541.62
880.576	3465.85
880.757	3641.97
880.938	4104.81
881.119	3297.91
881.3	3367.54
881.481	3502.71
881.662	4469.35
881.843	3363.45
882.023	3371.64
882.204	3799.66
882.385	3756.66
882.566	3357.3
882.747	3404.41
882.927	3846.77
883.108	3758.71
883.289	3441.27
883.469	3826.29
883.65	3641.97
883.831	3764.85
884.011	3695.22
884.192	3453.56
884.373	3973.74
884.553	3965.55
884.734	3723.89
884.914	3971.69
885.095	4526.69
885.275	4219.5
885.456	3893.87
885.636	3449.46
885.817	3889.78
885.997	3844.72
886.178	3314.3
886.358	3545.72
886.538	3979.89
886.719	4866.66
886.899	3543.67
887.08	3619.44
887.26	4194.92
887.44	3650.16
887.621	3480.18
887.801	3760.75
887.981	4405.86
888.161	3986.03
888.342	3641.97
888.522	3687.03
888.702	4168.3
888.882	4147.82
889.062	3633.78
889.242	3490.42
889.423	4301.42
889.603	4094.57
889.783	3678.83
889.963	3639.92
890.143	4151.92
890.323	4309.61
890.503	3641.97
890.683	3670.64
890.863	4002.41
891.043	4010.61
891.223	3758.71
891.403	3773.04
891.583	3936.88
891.763	3846.77
891.943	3811.95
892.122	3537.52
892.302	3818.1
892.482	3799.66
892.662	3746.42
892.842	3809.9
893.022	4018.8
893.201	3695.22
893.381	3793.52
893.561	3512.95
893.741	4149.87
893.92	4076.14
894.1	3617.4
894.28	3711.6
894.459	4110.96
894.639	4049.52
894.819	3408.5
894.998	3848.82
895.178	3943.02
895.357	4106.86
895.537	3433.08
895.716	3330.68
895.896	3846.77
896.075	4199.02
896.255	3615.35
896.434	3424.89
896.614	4211.31
896.793	4051.56
896.973	3678.83
897.152	3629.68
897.331	3814
897.511	3918.45
897.69	3355.26
897.87	3510.9
898.049	3957.36
898.228	3920.49
898.407	3816.05
898.587	3838.58
898.766	3609.2
898.945	3881.58
899.124	3641.97
899.304	3547.76
899.483	3961.45
899.662	4295.27
899.841	3369.59
900.02	3474.04
900.199	3988.08
900.378	3750.51
900.557	3494.52
900.737	3271.29
900.916	3715.7
901.095	3803.76
901.274	3650.16
901.453	3224.19
901.632	3455.61
901.811	3476.09
901.989	3302.01
902.168	3224.19
902.347	3828.34
902.526	3400.31
902.705	3342.97
902.884	3326.58
903.063	3887.73
903.242	3904.11
903.42	3187.32
903.599	3506.81
903.778	3947.12
903.957	4010.61
904.135	3367.54
904.314	3289.72
904.493	3621.49
904.672	3740.27
904.85	3246.71
905.029	3215.99
905.207	3521.14
905.386	4166.25
905.565	3046.01
905.743	3011.2
905.922	3218.04
906.1	3500.66
906.279	2925.18
906.457	2820.74
906.636	3265.14
906.814	3185.27
906.993	2919.04
907.171	3021.44
907.35	3584.63
907.528	3435.13
907.707	3224.19
907.885	2886.27
908.063	3695.22
908.242	2916.99
908.42	2949.76
908.598	2812.54
908.777	3342.97
908.955	3138.17
909.133	3097.21
909.311	2814.59
909.49	3074.68
909.668	3046.01
909.846	3023.48
910.024	2663.04
910.202	3213.95
910.38	3385.97
910.559	2878.08
910.737	2890.37
910.915	3302.01
911.093	3250.81
911.271	3013.24
911.449	3211.9
911.627	3506.81
911.805	3902.06
911.983	3060.35
912.161	2957.95
912.339	3426.93
912.517	3768.95
912.695	3127.93
912.872	3134.07
913.05	3074.68
913.228	3428.98
913.406	3111.55
913.584	3021.44
913.762	3488.37
913.939	3215.99
914.117	2929.28
914.295	2960
914.473	3392.12
914.65	3287.67
914.828	3170.94
915.006	2914.94
915.184	3043.96
915.361	3375.74
915.539	3134.07
915.716	3248.76
915.894	3461.75
916.072	3562.1
916.249	3297.91
916.427	3187.32
916.604	3086.97
916.782	3396.21
916.959	2878.08
917.137	3109.5
917.314	3259
917.492	3326.58
917.669	3058.3
917.847	3078.78
918.024	3560.05
918.201	3013.24
918.379	3039.87
918.556	3056.25
918.733	3381.88
918.911	3125.88
919.088	3242.62
919.265	2951.81
919.442	3324.54
919.62	3263.1
919.797	2962.05
919.974	2910.85
920.151	3349.11
920.328	3203.71
920.506	2953.85
920.683	3228.28
920.86	3056.25
921.037	2996.86
921.214	3013.24
921.391	2830.98
921.568	3283.58
921.745	3050.11
921.922	3048.06
922.099	2896.51
922.276	3351.16
922.453	3215.99
922.63	2785.92
922.807	3140.22
922.984	3240.57
923.161	2943.61
923.338	2898.56
923.514	2839.17
923.691	3175.03
923.868	3263.1
924.045	2847.36
924.222	2716.29
924.399	3154.55
924.575	3304.06
924.752	2968.19
924.929	3039.87
925.105	3093.12
925.282	2761.34
925.459	2974.33
925.635	2898.56
925.812	3095.16
925.989	2966.14
926.165	2984.57
926.342	2675.33
926.518	2689.67
926.695	3185.27
926.871	2736.77
927.048	2724.48
927.224	3195.51
927.401	2921.09
927.577	2753.15
927.754	2689.67
927.93	3328.63
928.107	3084.92
928.283	2638.47
928.459	2783.87
928.636	3068.54
928.812	2806.4
928.988	2652.8
929.165	2601.6
929.341	2986.62
929.517	2857.6
929.693	2931.33
929.87	2409.09
930.046	2994.81
930.222	2617.99
930.398	2593.41
930.574	2712.19
930.751	2785.92
930.927	2601.6
931.103	2597.51
931.279	2456.2
931.455	2534.02
931.631	2882.17
931.807	2392.71
931.983	2380.42
932.159	2282.12
932.335	2753.15
932.511	2531.97
932.687	2509.44
932.863	2800.26
933.039	2587.27
933.215	2257.54
933.391	2261.64
933.566	2726.53
933.742	2753.15
933.918	2437.77
934.094	2220.68
934.27	2699.91
934.445	2699.91
934.621	2509.44
934.797	2259.59
934.973	2767.49
935.148	2585.22
935.324	2042.51
935.5	2024.08
935.675	2654.85
935.851	2413.19
936.027	2153.1
936.202	2167.43
936.378	2321.03
936.553	2228.87
936.729	2417.29
936.904	1804.94
937.08	1854.09
937.255	1987.21
937.431	1749.65
937.606	1583.76
937.782	1874.57
937.957	1979.02
938.133	1940.11
938.308	1583.76
938.483	1880.72
938.659	1768.08
938.834	1741.46
939.009	1563.28
939.185	1778.32
939.36	1585.81
939.535	1389.21
939.71	1675.92
939.886	2130.57
940.061	2081.42
940.236	1735.31
940.411	1514.13
940.586	1940.11
940.761	1831.57
940.937	1561.23
941.112	1352.34
941.287	1634.96
941.462	1653.39
941.637	1299.09
941.812	1381.01
941.987	1749.65
942.162	1684.11
942.337	1516.18
942.512	1432.21
942.687	1811.09
942.862	1704.59
943.037	1260.18
943.212	926.36
943.386	1471.12
943.561	1651.35
943.736	1546.9
943.911	1667.73
944.086	1620.63
944.26	1622.67
944.435	1204.89
944.61	1454.74
944.785	1827.47
944.959	2003.6
945.134	1335.96
945.309	1225.37
945.483	1286.81
945.658	1825.42
945.833	1024.67
946.007	1245.85
946.182	1921.68
946.357	1364.63
946.531	1274.52
946.706	1098.39
946.88	1176.22
947.055	1692.3
947.229	1338.01
947.404	1200.79
947.578	1876.62
947.752	1559.19
947.927	1219.22
948.101	1196.7
948.276	1569.43
948.45	1507.99
948.624	1446.55
948.799	1223.32
948.973	1675.92
949.147	1340.05
949.321	1299.09
949.496	1221.27
949.67	1925.77
949.844	1553.04
950.018	1352.34
950.193	1342.1
950.367	2038.41
950.541	1567.38
950.715	1565.33
950.889	1507.99
951.063	1501.84
951.237	1774.22
951.411	1192.6
951.585	1118.87
951.759	1749.65
951.933	1596.05
952.107	1266.33
952.281	1651.35
952.455	1983.12
952.629	1946.25
952.803	1292.95
952.977	1381.01
953.151	1901.2
953.325	1706.64
953.499	1567.38
953.672	1290.9
953.846	1512.08
954.02	1665.68
954.194	1264.28
954.368	1475.22
954.541	1815.18
954.715	1507.99
954.889	1532.56
955.062	1473.17
955.236	1630.87
955.41	1626.77
955.583	1581.71
955.757	1311.38
955.93	1653.39
956.104	1428.12
956.278	1516.18
956.451	1438.36
956.625	1778.32
956.798	2134.67
956.972	1776.27
957.145	1362.58
957.319	1763.98
957.492	1618.58
957.665	1641.11
957.839	1405.59
958.012	1714.83
958.185	1649.3
958.359	1331.86
958.532	1692.3
958.705	1864.33
958.879	1866.38
959.052	1585.81
959.225	1389.21
959.398	1798.8
959.572	1735.31
959.745	1426.07
959.918	1499.8
960.091	1680.02
960.264	1964.68
960.438	1290.9
960.611	1364.63
960.784	1960.59
960.957	1628.82
961.13	1888.91
961.303	1450.64
961.476	1780.37
961.649	1876.62
961.822	1436.31
961.995	1487.51
962.168	1798.8
962.341	1792.66
962.514	1499.8
962.686	1442.45
962.859	1692.3
963.032	1768.08
963.205	1460.88
963.378	1348.25
963.551	1811.09
963.723	1696.4
963.896	1557.14
964.069	1708.69
964.242	1692.3
964.414	1899.15
964.587	1594
964.76	1651.35
964.932	1827.47
965.105	1602.19
965.278	1473.17
965.45	1469.08
965.623	1798.8
965.795	1778.32
965.968	1518.23
966.14	1356.44
966.313	1694.35
966.485	1835.66
966.658	1424.02
966.83	1393.3
967.003	2048.65
967.175	1815.18
967.348	1436.31
967.52	1518.23
967.692	2015.88
967.865	1806.99
968.037	1565.33
968.209	1737.36
968.382	1618.58
968.554	1847.95
968.726	1571.47
968.898	1348.25
969.071	1710.74
969.243	1782.42
969.415	1444.5
969.587	1426.07
969.759	2028.17
969.932	1811.09
970.104	1419.93
970.276	1168.02
970.448	1561.23
970.62	1448.6
970.792	1497.75
970.964	1505.94
971.136	2054.8
971.308	1725.07
971.48	1331.86
971.652	1530.52
971.824	1983.12
971.996	1481.36
972.168	1385.11
972.339	1487.51
972.511	1878.67
972.683	1557.14
972.855	1594
973.027	1372.82
973.199	1634.96
973.37	1786.51
973.542	1499.8
973.714	1471.12
973.886	1561.23
974.057	1856.14
974.229	1274.52
974.401	1317.53
974.572	1421.97
974.744	1168.02
974.915	1258.14
975.087	1272.47
975.259	1966.73
975.43	1462.93
975.602	1274.52
975.773	1303.19
975.945	1301.14
976.116	1782.42
976.288	1174.17
976.459	1503.89
976.63	1448.6
976.802	1671.83
976.973	1211.03
977.145	1477.27
977.316	1983.12
977.487	1802.9
977.659	1413.78
977.83	1327.77
978.001	1864.33
978.172	1680.02
978.344	1313.43
978.515	1227.42
978.686	1331.86
978.857	1886.86
979.028	1290.9
979.2	1208.98
979.371	1671.83
979.542	1501.84
979.713	1393.3
979.884	803.49
980.055	1331.86
980.226	1481.36
980.397	1161.88
980.568	971.42
980.739	1680.02
980.91	1430.16
981.081	1409.69
981.252	1206.94
981.423	1430.16
981.594	1659.54
981.765	1118.87
981.936	1239.7
982.106	1446.55
982.277	1712.78
982.448	1213.08
982.619	1426.07
982.79	1372.82
982.96	1770.13
983.131	1297.05
983.302	973.47
983.472	1268.38
983.643	1393.3
983.814	1317.53
983.984	1133.21
984.155	1256.09
984.326	1532.56
984.496	1221.27
984.667	1200.79
984.837	1268.38
985.008	1667.73
985.178	1430.16
985.349	1172.12
985.519	1348.25
985.69	1127.07
985.86	1202.84
986.031	1075.87
986.201	1454.74
986.371	1397.4
986.542	993.95
986.712	922.27
986.882	1350.29
987.053	1577.62
987.223	993.95
987.393	1184.41
987.563	1163.93
987.734	1438.36
987.904	1368.73
988.074	1053.34
988.244	1327.77
988.414	1122.97
988.585	967.32
988.755	1151.64
988.925	1182.36
989.095	1538.71
989.265	973.47
989.435	1159.83
989.605	1444.5
989.775	1391.25
989.945	1270.42
990.115	897.69
990.285	1260.18
990.455	1290.9
990.625	1020.57
990.795	924.32
990.965	1507.99
991.134	952.99
991.304	813.73
991.474	860.83
991.644	1200.79
991.814	1499.8
991.984	799.39
992.153	879.26
992.323	1129.11
992.493	1192.6
992.662	725.66
992.832	1024.67
993.002	1237.66
993.171	1274.52
993.341	778.91
993.511	942.75
993.68	1039
993.85	1372.82
994.019	793.25
994.189	731.81
994.358	1217.18
994.528	1004.19
994.697	516.77
994.867	705.18
995.036	1319.57
995.206	1012.38
995.375	795.29
995.544	875.17
995.714	1227.42
995.883	932.51
996.052	864.93
996.222	623.27
996.391	1409.69
996.56	1168.02
996.73	719.52
996.899	619.17
997.068	1460.88
997.237	1104.54
997.406	701.09
997.576	670.37
997.745	1098.39
997.914	1131.16
998.083	529.06
998.252	803.49
998.421	1075.87
998.59	793.25
998.759	561.83
998.928	455.33
999.097	1397.4
999.266	1098.39
999.435	860.83
999.604	510.63
999.773	1520.28
999.942	922.27
1000.111	537.25
1000.28	516.77
1000.448	727.71
1000.617	856.73
1000.786	770.72
1000.955	578.21
1001.124	1147.55
1001.292	1561.23
1001.461	615.07
1001.63	625.31
1001.798	1258.14
1001.967	1196.7
1002.136	563.87
1002.304	633.51
1002.473	1000.09
1002.642	987.8
1002.81	627.36
1002.979	643.74
1003.147	1084.06
1003.316	1436.31
1003.484	619.17
1003.653	580.26
1003.821	1135.26
1003.99	733.86
1004.158	623.27
1004.327	670.37
1004.495	975.52
1004.663	793.25
1004.832	666.27
1005	393.89
1005.168	926.36
1005.337	830.11
1005.505	416.42
1005.673	686.75
1005.842	1030.81
1006.01	967.32
1006.178	348.84
1006.346	508.58
1006.514	969.37
1006.683	1057.43
1006.851	426.66
1007.019	637.6
1007.187	594.59
1007.355	365.22
1007.523	277.16
1007.691	381.6
1007.859	490.15
1008.027	1147.55
1008.195	469.67
1008.363	365.22
1008.531	1045.15
1008.699	619.17
1008.867	357.03
1009.035	447.14
1009.203	1086.11
1009.37	774.81
1009.538	504.48
1009.706	807.58
1009.874	750.24
1010.042	725.66
1010.209	289.45
1010.377	447.14
1010.545	862.88
1010.713	680.61
1010.88	326.31
1011.048	443.04
1011.216	733.86
1011.383	1036.95
1011.551	467.62
1011.718	336.55
1011.886	850.59
1012.054	735.9
1012.221	348.84
1012.389	379.56
1012.556	688.8
1012.724	1133.21
1012.891	379.56
1013.058	185
1013.226	791.2
1013.393	942.75
1013.561	258.73
1013.728	103.08
1013.895	965.28
1014.063	850.59
1014.23	158.38
1014.397	266.92
1014.565	912.03
1014.732	598.69
1014.899	230.06
1015.066	256.68
1015.233	635.55
1015.401	807.58
1015.568	342.69
1015.735	475.81
1015.902	735.9
1016.069	701.09
1016.236	301.73
1016.403	246.44
1016.57	369.32
1016.737	823.97
1016.904	352.93
1017.071	180.9
1017.238	488.1
1017.405	920.22
1017.572	289.45
1017.739	447.14
1017.906	740
1018.073	801.44
1018.24	201.38
1018.407	307.88
1018.573	920.22
1018.74	529.06
1018.907	178.86
1019.074	103.08
1019.241	780.96
1019.407	567.97
1019.574	197.29
1019.741	31.4
1019.907	584.35
1020.074	711.33
1020.241	10.92
1020.407	6.83
1020.574	672.42
1020.74	756.38
1020.907	189.1
1021.073	168.62
1021.24	1127.07
1021.406	821.92
1021.573	86.7
1021.739	199.34
1021.906	799.39
1022.072	637.6
1022.239	141.99
1022.405	150.18
1022.571	606.88
1022.738	291.49
1022.904	96.94
1023.07	238.25
1023.237	508.58
1023.403	819.87
1023.569	209.58
1023.735	238.25
1023.902	619.17
1024.068	674.46
1024.234	64.17
1024.4	187.05
1024.566	522.91
1024.732	758.43
1024.898	225.96
1025.065	-32.08
1025.231	703.14
1025.397	322.21
1025.563	129.7
1025.729	119.46
1025.895	29.35
1026.061	275.11
1026.227	0.68
1026.392	96.94
1026.558	783.01
1026.724	674.46
1026.89	72.36
1027.056	168.62
1027.222	582.31
1027.388	412.32
1027.553	53.93
1027.719	-15.7
1027.885	832.16
1028.051	639.65
1028.216	-58.71
1028.382	133.8
1028.548	684.7
1028.713	418.47
1028.879	-3.41
1029.045	236.2
1029.21	791.2
1029.376	727.71
1029.541	127.66
1029.707	90.79
1029.873	633.51
1030.038	684.7
1030.204	154.28
1030.369	45.74
1030.534	588.45
1030.7	348.84
1030.865	221.86
1031.031	31.4
1031.196	545.44
1031.361	510.63
1031.527	47.79
1031.692	23.21
1031.857	53.93
1032.023	590.5
1032.188	-109.91
1032.353	72.36
1032.518	864.93
1032.684	434.85
1032.849	-77.14
1033.014	84.65
1033.179	598.69
1033.344	565.92
1033.509	168.62
1033.674	-36.18
1033.839	699.04
1034.004	522.91
1034.17	-15.7
1034.335	-95.57
1034.5	309.93
1034.664	160.42
1034.829	4.78
1034.994	101.03
1035.159	510.63
1035.324	522.91
1035.489	156.33
1035.654	-15.7
1035.819	692.9
1035.984	580.26
1036.148	168.62
1036.313	25.26
1036.478	598.69
1036.643	463.52
1036.807	-25.94
1036.972	-132.44
1037.137	653.98
1037.301	422.56
1037.466	-134.48
1037.631	170.66
1037.795	633.51
1037.96	428.71
1038.124	193.19
1038.289	-77.14
1038.454	522.91
1038.618	541.35
1038.783	41.64
1038.947	47.79
1039.111	524.96
1039.276	404.13
1039.44	-9.56
1039.605	479.91
1039.769	209.58
1039.933	361.13
1040.098	103.08
1040.262	279.21
1040.426	557.73
1040.591	590.5
1040.755	-150.87
1040.919	62.12
1041.083	565.92
1041.248	408.23
1041.412	-101.72
1041.576	-109.91
1041.74	354.98
1041.904	604.83
1042.068	-154.96
1042.232	15.02
1042.397	539.3
1042.561	463.52
1042.725	-175.44
1042.889	187.05
1043.053	500.39
1043.217	561.83
1043.381	113.32
1043.544	-187.73
1043.708	703.14
1043.872	154.28
1044.036	-302.42
1044.2	-111.96
1044.364	635.55
1044.528	696.99
1044.691	4960.86
1044.855	-154.96
1045.019	604.83
1045.183	502.43
1045.346	33.45
1045.51	-23.89
1045.674	449.19
1045.837	424.61
1046.001	12.97
1046.165	4.78
1046.328	856.73
1046.492	486.05
1046.655	156.33
1046.819	64.17
1046.983	209.58
1047.146	455.33
1047.31	66.22
1047.473	-243.03
1047.636	357.03
1047.8	187.05
1047.963	-19.8
1048.127	-89.43
1048.29	211.62
