Data from Hydrogel_Ink_Intensity_Test_1_USB4F045381__39__00039.txt Node

Date: Mon Jul 31 10:46:12 EDT 2023
User: mmckonesweet
Spectrometer: USB4F04538
Trigger mode: 4
Integration Time (sec): 9.000000E-1
Scans to average: 1
Electric dark correction enabled: true
Nonlinearity correction enabled: false
Boxcar width: 0
XAxis mode: Wavelengths
Number of Pixels in Spectrum: 3648
>>>>>Begin Spectral Data<<<<<
345.52	-1036.1
345.736	-1036.1
345.952	-1036.1
346.168	-993.09
346.384	-1050.44
346.6	-106.32
346.816	-245.59
347.032	-241.49
347.248	260.26
347.464	-182.1
347.68	-114.52
347.896	145.58
348.112	379.04
348.328	-20.31
348.544	-100.18
348.76	-63.32
348.975	288.93
349.191	-235.35
349.407	-102.23
349.623	41.13
349.839	-55.12
350.055	-175.95
350.27	10.41
350.486	215.21
350.702	377
350.918	258.21
351.133	-247.63
351.349	264.36
351.565	432.29
351.781	-171.86
351.996	-3.93
352.212	333.99
352.428	-126.8
352.644	-190.29
352.859	-153.43
353.075	211.11
353.291	6.31
353.506	-114.52
353.722	-223.06
353.938	-32.6
354.153	430.24
354.369	-16.21
354.584	-296.78
354.8	237.74
355.016	-243.54
355.231	-253.78
355.447	-18.26
355.662	86.19
355.878	839.84
356.093	-317.26
356.309	47.27
356.524	-122.71
356.74	164.01
356.955	-165.71
357.171	-5.97
357.386	63.66
357.602	-210.77
357.817	-48.98
358.033	-120.66
358.248	342.18
358.464	178.34
358.679	-116.56
358.895	-333.65
359.11	-3.93
359.325	325.8
359.541	231.59
359.756	16.55
359.972	-235.35
360.187	204.97
360.402	-198.48
360.618	-116.56
360.833	956.57
361.048	129.19
361.264	-135
361.479	-128.85
361.694	-10.07
361.909	182.44
362.125	-108.37
362.34	-38.74
362.555	243.88
362.77	172.2
362.986	-180.05
363.201	-120.66
363.416	288.93
363.631	94.38
363.847	-163.67
364.062	-98.13
364.277	190.63
364.492	209.06
364.707	-36.69
364.922	-388.94
365.138	280.74
365.353	331.94
365.568	-198.48
365.783	-108.37
365.998	133.29
366.213	626.85
366.428	-147.28
366.643	-5.97
366.858	319.65
367.073	282.79
367.288	-157.52
367.503	-225.11
367.718	106.67
367.933	274.6
368.148	-276.31
368.363	-36.69
368.578	-73.56
368.793	401.57
369.008	-67.41
369.223	-173.91
369.438	157.86
369.653	387.24
369.868	-210.77
370.083	-202.58
370.298	202.92
370.513	475.3
370.728	10.41
370.943	-124.76
371.157	-149.33
371.372	551.07
371.587	-327.5
371.802	-218.96
372.017	16.55
372.232	460.96
372.446	-30.55
372.661	-223.06
372.876	196.78
373.091	260.26
373.306	10.41
373.52	-227.15
373.735	-124.76
373.95	444.58
374.165	-61.27
374.379	-100.18
374.594	-67.41
374.809	63.66
375.023	157.86
375.238	-261.97
375.453	221.35
375.667	-182.1
375.882	-85.84
376.097	-128.85
376.311	82.09
376.526	26.79
376.741	-100.18
376.955	121
377.17	577.7
377.384	528.55
377.599	-10.07
377.813	-206.67
378.028	571.55
378.242	178.34
378.457	-73.56
378.672	-268.11
378.886	200.87
379.101	28.84
379.315	-276.31
379.53	-71.51
379.744	260.26
379.958	180.39
380.173	-61.27
380.387	-63.32
380.602	237.74
380.816	-94.04
381.031	-69.46
381.245	-20.31
381.459	252.07
381.674	2705.54
381.888	-100.18
382.103	168.1
382.317	-96.08
382.531	501.92
382.746	-22.36
382.96	-30.55
383.174	16.55
383.388	442.53
383.603	96.43
383.817	-169.81
384.031	266.41
384.246	522.4
384.46	16.55
384.674	293.03
384.888	108.71
385.103	159.91
385.317	-173.91
385.531	4.27
385.745	444.58
385.959	411.81
386.174	-120.66
386.388	-161.62
386.602	86.19
386.816	-36.69
387.03	26.79
387.244	65.71
387.458	159.91
387.672	483.49
387.887	-245.59
388.101	-198.48
388.315	428.2
388.529	188.58
388.743	-67.41
388.957	-149.33
389.171	460.96
389.385	-61.27
389.599	-69.46
389.813	174.25
390.027	166.06
390.241	751.78
390.455	-8.02
390.669	100.52
390.883	-46.93
391.097	575.65
391.311	123.05
391.525	-5.97
391.738	254.12
391.952	209.06
392.166	131.24
392.38	-169.81
392.594	354.47
392.808	444.58
393.022	26.79
393.236	-32.6
393.449	301.22
393.663	227.5
393.877	-175.95
394.091	12.46
394.305	18.6
394.518	41.13
394.732	-116.56
394.946	45.23
395.16	610.47
395.373	188.58
395.587	-79.7
395.801	-71.51
396.015	391.33
396.228	315.56
396.442	-141.14
396.656	-214.87
396.869	374.95
397.083	592.03
397.297	43.18
397.51	-42.84
397.724	407.72
397.938	329.89
398.151	-192.34
398.365	-85.84
398.578	280.74
398.792	508.07
399.005	118.95
399.219	-48.98
399.433	270.5
399.646	313.51
399.86	176.3
400.073	176.3
400.287	346.28
400.5	73.9
400.714	221.35
400.927	131.24
401.141	379.04
401.354	1198.23
401.567	368.81
401.781	-173.91
401.994	432.29
402.208	772.25
402.421	55.47
402.635	157.86
402.848	188.58
403.061	440.48
403.275	137.38
403.488	-46.93
403.701	643.23
403.915	344.23
404.128	215.21
404.341	-79.7
404.555	315.56
404.768	133.29
404.981	98.47
405.195	-18.26
405.408	694.43
405.621	358.57
405.834	202.92
406.048	-98.13
406.261	549.03
406.474	632.99
406.687	-61.27
406.9	159.91
407.114	219.3
407.327	344.23
407.54	-71.51
407.753	-112.47
407.966	34.99
408.179	436.39
408.392	75.95
408.605	-67.41
408.819	374.95
409.032	383.14
409.245	-59.22
409.458	262.31
409.671	444.58
409.884	551.07
410.097	43.18
410.31	243.88
410.523	413.86
410.736	239.78
410.949	121
411.162	61.61
411.375	630.95
411.588	553.12
411.801	309.41
412.014	102.57
412.227	247.97
412.44	301.22
412.653	116.9
412.865	239.78
413.078	549.03
413.291	487.59
413.504	161.96
413.717	47.27
413.93	485.54
414.143	86.19
414.356	123.05
414.568	-89.94
414.781	514.21
414.994	397.48
415.207	153.77
415.42	184.49
415.632	575.65
415.845	776.35
416.058	14.51
416.271	2.22
416.483	344.23
416.696	684.19
416.909	92.33
417.121	90.28
417.334	522.4
417.547	780.45
417.759	96.43
417.972	63.66
418.185	254.12
418.397	534.69
418.61	164.01
418.823	161.96
419.035	764.06
419.248	395.43
419.46	235.69
419.673	233.64
419.885	487.59
420.098	321.7
420.311	172.2
420.523	-59.22
420.736	587.94
420.948	395.43
421.161	123.05
421.373	-79.7
421.586	481.44
421.798	235.69
422.01	26.79
422.223	231.59
422.435	209.06
422.648	526.5
422.86	168.1
423.073	90.28
423.285	610.47
423.497	143.53
423.71	104.62
423.922	125.1
424.134	600.23
424.347	678.05
424.559	485.54
424.771	432.29
424.984	368.81
425.196	528.55
425.408	-22.36
425.621	-98.13
425.833	741.54
426.045	659.62
426.257	59.56
426.47	100.52
426.682	501.92
426.894	493.73
427.106	217.26
427.318	256.17
427.531	401.57
427.743	542.88
427.955	237.74
428.167	645.28
428.379	538.79
428.591	424.1
428.804	342.18
429.016	104.62
429.228	301.22
429.44	514.21
429.652	465.06
429.864	116.9
430.076	446.63
430.288	395.43
430.5	280.74
430.712	422.05
430.924	600.23
431.136	551.07
431.348	80.04
431.56	321.7
431.772	436.39
431.984	399.52
432.196	204.97
432.408	243.88
432.62	503.97
432.832	561.31
433.044	497.83
433.256	432.29
433.468	727.2
433.679	211.11
433.891	288.93
434.103	465.06
434.315	878.75
434.527	733.34
434.739	424.1
434.95	475.3
435.162	772.25
435.374	321.7
435.586	409.76
435.798	274.6
436.009	309.41
436.221	536.74
436.433	342.18
436.645	428.2
436.856	465.06
437.068	809.12
437.28	272.55
437.491	694.43
437.703	839.84
437.915	696.48
438.126	436.39
438.338	585.89
438.55	559.27
438.761	731.3
438.973	422.05
439.184	456.87
439.396	569.51
439.608	848.03
439.819	329.89
440.031	538.79
440.242	706.72
440.454	864.41
440.665	518.31
440.877	598.18
441.088	751.78
441.3	561.31
441.511	303.27
441.723	436.39
441.934	606.37
442.146	678.05
442.357	602.27
442.569	659.62
442.78	739.49
442.991	1022.11
443.203	712.86
443.414	348.33
443.626	981.15
443.837	465.06
444.048	485.54
444.26	315.56
444.471	764.06
444.682	913.56
444.894	268.45
445.105	411.81
445.316	987.29
445.528	862.37
445.739	688.29
445.95	555.17
446.161	848.03
446.373	1030.3
446.584	641.18
446.795	477.35
447.006	907.42
447.217	1110.17
447.429	403.62
447.64	508.07
447.851	1101.98
448.062	757.92
448.273	325.8
448.484	522.4
448.695	968.86
448.907	669.86
449.118	614.56
449.329	766.11
449.54	661.66
449.751	604.32
449.962	534.69
450.173	571.55
450.384	1101.98
450.595	1079.45
450.806	522.4
451.017	587.94
451.228	1153.18
451.439	1108.12
451.65	534.69
451.861	327.85
452.072	727.2
452.283	893.09
452.494	753.82
452.705	569.51
452.915	1341.59
453.126	995.48
453.337	641.18
453.548	630.95
453.759	1112.22
453.97	1355.93
454.181	948.38
454.391	723.1
454.602	901.28
454.813	1132.7
455.024	776.35
455.235	833.69
455.445	975
455.656	999.58
455.867	829.6
456.078	663.71
456.288	903.32
456.499	1108.12
456.71	682.14
456.921	1001.63
457.131	1163.42
457.342	1079.45
457.553	780.45
457.763	745.63
457.974	1136.79
458.184	1153.18
458.395	727.2
458.606	655.52
458.816	1280.15
459.027	1620.11
459.237	895.13
459.448	712.86
459.659	1353.88
459.869	1611.92
460.08	721.06
460.29	1065.11
460.501	1659.03
460.711	1009.82
460.922	682.14
461.132	1032.35
461.343	1792.14
461.553	891.04
461.764	981.15
461.974	946.33
462.184	1437.84
462.395	1378.45
462.605	1116.31
462.816	880.8
463.026	1265.82
463.236	1450.13
463.447	942.24
463.657	968.86
463.867	1443.99
464.078	1222.81
464.288	1128.6
464.498	1124.51
464.709	1388.69
464.919	1235.1
465.129	1097.88
465.339	1058.97
465.55	1542.29
465.76	1507.48
465.97	1271.96
466.18	1235.1
466.391	1740.94
466.601	1556.63
466.811	1323.16
467.021	1110.17
467.231	1669.27
467.441	1699.98
467.651	1343.64
467.862	915.61
468.072	1540.24
468.282	1872.01
468.492	1218.71
468.702	1376.41
468.912	1517.72
469.122	2207.88
469.332	1650.83
469.542	1233.05
469.752	1878.16
469.962	1562.77
470.172	1325.21
470.382	1419.41
470.592	1978.51
470.802	2082.95
471.012	1656.98
471.222	1452.18
471.432	2066.57
471.642	1910.93
471.852	1677.46
472.062	1589.39
472.272	1783.95
472.482	1579.15
472.691	1542.29
472.901	1593.49
473.111	1886.35
473.321	2531.46
473.531	1607.83
473.741	1816.72
473.95	2050.19
474.16	2105.48
474.37	1933.45
474.58	1679.51
474.79	2787.46
474.999	2418.82
475.209	1792.14
475.419	1984.65
475.628	2121.87
475.838	2488.45
476.048	2109.58
476.258	1833.1
476.467	2631.81
476.677	2234.5
476.886	2228.36
477.096	2254.98
477.306	2291.85
477.515	2660.48
477.725	2291.85
477.935	2246.79
478.144	2732.16
478.354	2343.05
478.563	2232.46
478.773	2363.53
478.982	2762.88
479.192	2920.57
479.401	2418.82
479.611	2257.03
479.82	2486.4
480.03	2607.23
480.239	2453.64
480.449	2510.98
480.658	3098.75
480.868	2566.28
481.077	2633.86
481.287	2586.76
481.496	2920.57
481.705	3205.24
481.915	2916.48
482.124	2947.2
482.333	2959.49
482.543	3283.06
482.752	2865.28
482.961	2752.64
483.171	3238.01
483.38	2873.47
483.589	3039.36
483.799	2781.31
484.008	3057.79
484.217	3401.85
484.426	3135.61
484.636	2914.43
484.845	3281.02
485.054	3022.97
485.263	3369.08
485.472	3111.04
485.682	3774.58
485.891	3326.07
486.1	3027.07
486.309	3197.05
486.518	3471.48
486.727	3729.52
486.936	3162.23
487.146	3332.22
487.355	3876.98
487.564	3217.53
487.773	3324.02
487.982	3373.18
488.191	3588.21
488.4	3690.61
488.609	3428.47
488.818	3426.42
489.027	4243.56
489.236	4106.35
489.445	3600.5
489.654	3537.01
489.863	3983.47
490.072	3811.44
490.281	3860.59
490.49	3723.38
490.698	4337.77
490.907	4221.03
491.116	3704.95
491.325	3692.66
491.534	4321.38
491.743	4141.16
491.952	3960.94
492.16	3870.83
492.369	4147.31
492.578	4325.48
492.787	3952.75
492.996	3860.59
493.204	4085.87
493.413	4653.16
493.622	3772.53
493.831	3868.78
494.039	4749.41
494.248	4034.67
494.457	4171.88
494.665	3962.99
494.874	4491.37
495.083	4909.15
495.291	4100.2
495.5	4151.4
495.709	4796.51
495.917	4515.94
496.126	4345.96
496.335	4161.64
496.543	4528.23
496.752	4694.12
496.96	4276.33
497.169	4323.43
497.377	4423.78
497.586	4907.1
497.794	4442.21
498.003	4139.12
498.211	4569.19
498.42	5173.34
498.628	4517.99
498.837	4456.55
499.045	4880.48
499.254	4855.9
499.462	4474.98
499.671	4548.71
499.879	5304.41
500.087	5034.08
500.296	4583.52
500.504	4749.41
500.713	5081.18
500.921	5447.77
501.129	4730.98
501.338	4683.88
501.546	5050.46
501.754	5150.81
501.962	4905.06
502.171	4724.83
502.379	5310.55
502.587	5625.94
502.795	5111.9
503.004	4769.89
503.212	5202.01
503.42	5263.45
503.628	4876.38
503.837	5316.7
504.045	5341.27
504.253	5750.87
504.461	4978.78
504.669	4984.93
504.877	5421.14
505.085	5744.72
505.294	4851.81
505.502	5363.8
505.71	5429.34
505.918	5599.32
506.126	5099.61
506.334	5132.38
506.542	5515.35
506.75	5681.24
506.958	5320.79
507.166	5253.21
507.374	5539.93
507.582	5984.34
507.79	5464.15
507.998	5191.77
508.206	5781.59
508.414	5714
508.622	5406.81
508.83	5380.18
509.037	6064.21
509.245	5503.06
509.453	5302.36
509.661	5273.69
509.869	5875.79
510.077	5666.9
510.285	5576.79
510.492	5175.39
510.7	6455.37
510.908	5722.2
511.116	5562.45
511.324	5744.72
511.531	5695.57
511.739	5957.71
511.947	5750.87
512.155	5814.35
512.362	6072.4
512.57	5679.19
512.778	5517.4
512.985	5607.51
513.193	6170.7
513.401	6426.7
513.608	5802.07
513.816	5779.54
514.024	6092.88
514.231	6252.62
514.439	5599.32
514.646	5580.89
514.854	6211.66
515.061	6217.8
515.269	5816.4
515.477	5857.36
515.684	5863.51
515.892	6408.26
516.099	5785.68
516.307	5750.87
516.514	6498.38
516.722	6629.45
516.929	5998.67
517.136	5671
517.344	6531.14
517.551	6408.26
517.759	5972.05
517.966	5908.56
518.173	6133.84
518.381	6228.04
518.588	6234.19
518.796	5955.66
519.003	6486.09
519.21	6371.4
519.418	6027.34
519.625	6404.17
519.832	6369.35
520.039	6402.12
520.247	6094.93
520.454	6232.14
520.661	6858.82
520.868	6750.28
521.076	6322.25
521.283	6297.67
521.49	7170.11
521.697	6781
521.904	6443.08
522.112	6418.5
522.319	7051.33
522.526	6860.87
522.733	6481.99
522.94	6375.5
523.147	6629.45
523.354	6916.16
523.561	6334.54
523.768	6623.3
523.975	7065.66
524.183	6807.62
524.39	6635.59
524.597	6449.22
524.804	6889.54
525.011	6770.76
525.218	6547.53
525.425	6592.58
525.632	7272.51
525.838	6828.1
526.045	6639.69
526.252	6760.52
526.459	8120.37
526.666	8048.69
526.873	6664.26
527.08	6893.63
527.287	7405.63
527.494	7272.51
527.701	6748.23
527.907	6678.6
528.114	7174.21
528.321	7196.73
528.528	6928.45
528.735	6981.7
528.941	7204.92
529.148	7082.05
529.355	6907.97
529.562	6860.87
529.768	7639.09
529.975	7350.33
530.182	6940.74
530.388	6924.35
530.595	7692.34
530.802	6989.89
531.008	7501.88
531.215	7272.51
531.422	8124.46
531.628	8304.68
531.835	7333.95
532.042	7325.75
532.248	7397.43
532.455	7434.3
532.661	7475.26
532.868	7395.39
533.074	7694.39
533.281	7784.5
533.487	7383.1
533.694	7278.65
533.9	7467.06
534.107	7702.58
534.313	7200.83
534.52	7284.8
534.726	8122.41
534.933	8138.8
535.139	7587.89
535.345	7305.28
535.552	7847.99
535.758	7759.92
535.965	7639.09
536.171	7551.03
536.377	7997.49
536.584	8132.65
536.79	7671.86
536.996	7796.79
537.203	7712.82
537.409	7970.87
537.615	7741.49
537.821	7870.51
538.028	8204.33
538.234	8009.78
538.44	7616.57
538.646	7856.18
538.853	8210.48
539.059	8103.98
539.265	8185.9
539.471	7673.91
539.677	8329.26
539.883	8146.99
540.09	7784.5
540.296	8327.21
540.502	8177.71
540.708	7958.58
540.914	8235.05
541.12	8036.4
541.326	8353.84
541.532	8382.51
541.738	8271.92
541.944	7847.99
542.15	8620.07
542.356	8392.75
542.562	8185.9
542.768	8233.01
542.974	8949.79
543.18	8982.56
543.386	8286.25
543.592	8030.26
543.798	8833.06
544.004	8917.03
544.21	8261.68
544.415	8314.92
544.621	8656.93
544.827	8898.59
545.033	8333.36
545.239	8597.54
545.445	8552.49
545.651	8685.61
545.856	8460.33
546.062	8495.15
546.268	8548.39
546.474	8804.39
546.679	8497.19
546.885	8427.56
547.091	8552.49
547.297	9207.84
547.502	8609.83
547.708	8202.29
547.914	8656.93
548.119	9007.14
548.325	8454.19
548.531	8353.84
548.736	9324.57
548.942	8431.66
549.147	8472.62
549.353	8849.44
549.559	9127.97
549.764	8874.02
549.97	8384.55
550.175	8843.3
550.381	9324.57
550.586	8704.04
550.792	8884.26
550.997	8792.1
551.203	9232.41
551.408	9349.15
551.614	8638.5
551.819	8785.96
552.025	9373.72
552.23	9775.13
552.435	8722.47
552.641	9314.33
552.846	9168.93
553.052	9594.9
553.257	9113.63
553.462	8925.22
553.668	9113.63
553.873	9646.1
554.078	8882.21
554.283	9168.93
554.489	9386.01
554.694	9586.71
554.899	9205.79
555.105	9271.33
555.31	9445.4
555.515	9775.13
555.72	9261.09
555.925	9250.85
556.131	9650.2
556.336	9414.68
556.541	9160.73
556.746	9084.96
556.951	9838.61
557.156	9797.65
557.361	9191.45
557.567	9443.35
557.772	9994.26
557.977	9871.38
558.182	9353.24
558.387	9318.43
558.592	9453.59
558.797	10008.59
559.002	9355.29
559.207	9410.59
559.412	9517.08
559.617	10139.66
559.822	9308.19
560.027	9482.27
560.232	9695.25
560.437	10061.84
560.642	9287.71
560.847	9601.05
561.051	9914.39
561.256	9881.62
561.461	9701.4
561.666	9457.69
561.871	9912.34
562.076	10119.18
562.281	9496.6
562.485	9316.38
562.69	10037.27
562.895	10178.58
563.1	9613.34
563.305	9529.37
563.509	10063.89
563.714	10487.82
563.919	9601.05
564.123	9588.76
564.328	9977.87
564.533	10127.38
564.737	9838.61
564.942	9701.4
565.147	10469.39
565.351	10430.48
565.556	9783.32
565.761	9758.74
565.965	10291.21
566.17	9820.18
566.374	9975.83
566.579	9697.3
566.784	9857.04
566.988	10096.66
567.193	9668.63
567.397	9836.56
567.602	9979.92
567.806	9994.26
568.011	10008.59
568.215	9951.25
568.42	10278.93
568.624	9990.16
568.828	10014.74
569.033	10135.57
569.237	10668.04
569.442	10477.58
569.646	9826.32
569.85	9908.24
570.055	10364.94
570.259	10407.95
570.463	10430.48
570.668	10151.95
570.872	10479.63
571.076	10254.35
571.281	10039.31
571.485	10256.4
571.689	10436.62
571.893	10709
572.098	10348.56
572.302	10231.82
572.506	10561.55
572.71	10463.24
572.914	10362.89
573.119	10350.6
573.323	10973.19
573.527	11001.86
573.731	10358.8
573.935	10344.46
574.139	10622.98
574.343	10342.41
574.547	10473.48
574.751	10315.79
574.955	11034.63
575.159	10962.95
575.364	10457.1
575.568	10405.9
575.772	10631.18
575.976	11083.78
576.18	10348.56
576.383	10549.26
576.587	11182.08
576.791	11169.79
576.995	10348.56
577.199	10399.76
577.403	11014.15
577.607	11307.01
577.811	10635.27
578.015	10719.24
578.219	11040.77
578.422	11169.79
578.626	10893.32
578.83	11044.87
579.034	11100.16
579.238	11192.32
579.442	10780.68
579.645	11143.17
579.849	11012.1
580.053	11067.39
580.257	10911.75
580.46	10893.32
580.664	11223.04
580.868	11198.46
581.071	11010.05
581.275	10983.43
581.479	10629.13
581.682	11266.05
581.886	10790.92
582.09	10878.98
582.293	11200.51
582.497	11495.42
582.7	11073.54
582.904	11087.87
583.107	11227.14
583.311	11321.34
583.515	11155.46
583.718	10946.56
583.922	11468.8
584.125	11939.83
584.329	10854.41
584.532	11141.12
584.735	11741.18
584.939	11388.92
585.142	11094.02
585.346	10995.71
585.549	11628.54
585.753	11350.01
585.956	11393.02
586.159	11405.31
586.363	11948.02
586.566	11687.93
586.769	11223.04
586.973	11245.57
587.176	11714.55
587.379	11888.63
587.582	11958.26
587.786	11460.6
587.989	11442.17
588.192	12132.34
588.395	11735.03
588.599	11642.87
588.802	11673.59
589.005	12048.37
589.208	11384.83
589.411	11481.08
589.615	12023.8
589.818	12249.07
590.021	11671.54
590.224	11569.15
590.427	12089.33
590.63	11999.22
590.833	11472.89
591.036	11390.97
591.239	11626.49
591.442	11556.86
591.645	11653.11
591.848	11542.52
592.051	12228.59
592.254	11896.82
592.457	11718.65
592.66	11757.56
592.863	12240.88
593.066	12259.31
593.269	11960.31
593.472	11765.75
593.675	11997.17
593.878	12423.15
594.081	11919.35
594.284	11489.28
594.486	12287.98
594.689	12128.24
594.892	11956.21
595.095	11941.88
595.298	12304.37
595.5	12072.95
595.703	12066.8
595.906	12290.03
596.109	12539.88
596.311	12431.34
596.514	11679.74
596.717	12011.51
596.92	12382.19
597.122	12580.84
597.325	11939.83
597.528	11849.72
597.73	12912.61
597.933	12333.04
598.136	12148.72
598.338	12056.56
598.541	12539.88
598.743	12734.44
598.946	12097.52
599.148	12206.06
599.351	12736.49
599.554	12748.78
599.756	12474.35
599.959	12543.98
600.161	12636.14
600.363	13219.81
600.566	12523.5
600.768	12267.5
600.971	12673
601.173	12730.34
601.376	12521.45
601.578	12330.99
601.78	12601.32
601.983	13393.89
602.185	12347.37
602.388	12636.14
602.59	12730.34
602.792	12881.89
602.995	12421.1
603.197	12425.2
603.399	13146.08
603.601	12650.47
603.804	12365.81
604.006	12580.84
604.208	12521.45
604.41	12419.05
604.613	12597.23
604.815	12355.57
605.017	13359.07
605.219	12558.32
605.421	12539.88
605.623	12560.36
605.826	12859.37
606.028	13174.75
606.23	12423.15
606.432	12218.35
606.634	13199.33
606.836	13037.54
607.038	12421.1
607.24	12912.61
607.442	12896.23
607.644	13101.03
607.846	12853.22
608.048	12824.55
608.25	13428.7
608.452	12808.17
608.654	12634.09
608.856	12265.46
609.058	12871.65
609.26	12865.51
609.462	12814.31
609.664	12824.55
609.866	13436.89
610.067	13383.65
610.269	12863.46
610.471	12687.34
610.673	12972
610.875	13144.03
611.077	12570.6
611.278	13154.27
611.48	13160.42
611.682	13322.21
611.884	13074.4
612.085	12537.84
612.287	12750.82
612.489	13035.49
612.69	12642.28
612.892	12597.23
613.094	13289.44
613.295	13133.79
613.497	12584.94
613.699	12564.46
613.9	13455.33
614.102	13314.02
614.304	12990.44
614.505	12851.17
614.707	13332.45
614.908	12750.82
615.11	12734.44
615.311	13348.83
615.513	13066.21
615.714	13389.79
615.916	12632.04
616.117	13010.92
616.319	12853.22
616.52	13266.91
616.722	12931.05
616.923	12750.82
617.124	13354.97
617.326	13242.34
617.527	13012.96
617.729	13215.71
617.93	13440.99
618.131	13465.57
618.333	12806.12
618.534	12881.89
618.735	12969.96
618.937	13641.69
619.138	12947.43
619.339	12965.86
619.54	13281.25
619.742	13273.06
619.943	12855.27
620.144	13228
620.345	13432.8
620.546	13490.14
620.748	13008.87
620.949	13068.26
621.15	13522.91
621.351	13141.99
621.552	12963.81
621.753	12795.88
621.954	13021.16
622.155	13563.87
622.356	12994.53
622.558	13047.78
622.759	13381.6
622.96	13615.07
623.161	12769.26
623.362	12666.86
623.563	13580.25
623.764	13232.1
623.965	13209.57
624.166	13328.35
624.366	13182.95
624.567	13537.24
624.768	13103.07
624.969	13019.11
625.17	13238.24
625.371	13463.52
625.572	13191.14
625.773	13060.07
625.973	13973.46
626.174	13578.2
626.375	13101.03
626.576	13236.19
626.777	13557.72
626.977	13995.99
627.178	13090.79
627.379	13045.73
627.58	13453.28
627.78	13555.68
627.981	13213.67
628.182	13551.58
628.382	13653.98
628.583	12939.24
628.784	13236.19
628.984	13205.47
629.185	13694.94
629.386	13471.71
629.586	13584.35
629.787	13279.2
629.987	13475.81
630.188	13543.39
630.388	13146.08
630.589	13254.62
630.79	14366.67
630.99	13488.09
631.191	13492.19
631.391	13475.81
631.591	13748.18
631.792	13838.3
631.992	13459.42
632.193	13369.31
632.393	13920.21
632.594	13428.7
632.794	13334.5
632.994	13606.88
633.195	13563.87
633.395	13742.04
633.595	13404.13
633.796	13404.13
633.996	13436.89
634.196	14032.85
634.397	13244.38
634.597	13311.97
634.797	13432.8
634.997	13979.61
635.198	13496.28
635.398	13191.14
635.598	13963.22
635.798	14018.52
635.998	13807.58
636.199	13252.58
636.399	13764.57
636.599	13543.39
636.799	13582.3
636.999	13647.83
637.199	13678.55
637.399	14161.87
637.599	13508.57
637.799	13635.55
637.999	13500.38
638.199	14174.16
638.399	13402.08
638.599	13490.14
638.799	14215.12
638.999	14469.07
639.199	13830.1
639.399	13666.27
639.599	14030.8
639.799	13731.8
639.999	13518.81
640.199	13539.29
640.399	13711.32
640.599	13789.14
640.799	13701.08
640.998	13866.97
641.198	13920.21
641.398	14196.69
641.598	13686.75
641.798	13858.78
641.997	14876.62
642.197	13787.1
642.397	14030.8
642.597	13813.72
642.796	14524.37
642.996	14264.27
643.196	13811.67
643.395	13494.24
643.595	14084.05
643.795	13475.81
643.994	13684.7
644.194	13625.31
644.394	14274.51
644.593	13969.37
644.793	13821.91
644.992	14084.05
645.192	14151.63
645.392	13608.92
645.591	14141.39
645.791	13844.44
645.99	14170.07
646.19	13995.99
646.389	14000.09
646.589	13893.59
646.788	14344.14
646.987	14143.44
647.187	14139.35
647.386	14043.09
647.586	14231.51
647.785	14542.8
647.984	13752.28
648.184	14262.23
648.383	13922.26
648.582	13993.94
648.782	14047.19
648.981	13957.08
649.18	13803.48
649.38	14395.34
649.579	13957.08
649.778	13887.45
649.977	14340.05
650.177	14483.41
650.376	13672.41
650.575	13938.65
650.774	14530.51
650.973	14082
651.173	13774.81
651.372	14024.66
651.571	14559.18
651.77	14338
651.969	14098.39
652.168	14256.08
652.367	14104.53
652.566	14452.69
652.765	14272.46
652.964	14149.59
653.163	14684.11
653.362	14438.35
653.561	13840.34
653.76	14327.76
653.959	14235.6
654.158	14598.09
654.357	14464.97
654.556	14200.79
654.755	14464.97
654.954	14686.15
655.153	14278.61
655.352	14215.12
655.551	14747.59
655.749	14297.04
655.948	14057.43
656.147	14243.79
656.346	14526.41
656.545	14450.64
656.743	14084.05
656.942	14241.75
657.141	14448.59
657.34	14225.36
657.538	13969.37
657.737	14391.25
657.936	14299.09
658.135	14372.82
658.333	14266.32
658.532	14217.17
658.731	14915.53
658.929	14436.3
659.128	14649.29
659.326	14294.99
659.525	14893
659.724	14624.72
659.922	14104.53
660.121	14270.42
660.319	14370.77
660.518	14360.53
660.716	14116.82
660.915	14378.96
661.113	14993.35
661.312	14424.01
661.51	14217.17
661.709	14335.95
661.907	14637
662.105	15013.83
662.304	14340.05
662.502	14217.17
662.701	14911.43
662.899	14268.37
663.097	14784.46
663.296	14329.81
663.494	14682.06
663.692	14802.89
663.891	14409.68
664.089	14251.99
664.287	14641.1
664.485	15042.5
664.684	14258.13
664.882	14591.95
665.08	14442.45
665.278	14647.24
665.476	14172.11
665.675	14561.23
665.873	14979.01
666.071	14905.29
666.269	14405.58
666.467	14524.37
666.665	14815.18
666.863	14557.13
667.061	14436.3
667.259	14208.98
667.457	14499.79
667.655	14729.16
667.853	14090.2
668.051	14358.48
668.249	14137.3
668.447	14444.49
668.645	14325.71
668.843	14714.83
669.041	14831.56
669.239	14559.18
669.437	14600.14
669.635	14727.11
669.833	14526.41
670.031	14755.79
670.229	14280.66
670.426	14464.97
670.624	14421.97
670.822	14485.45
671.02	14516.17
671.218	14288.85
671.415	14417.87
671.613	14524.37
671.811	14467.02
672.009	14143.44
672.206	14825.42
672.404	14030.8
672.602	14458.83
672.799	14624.72
672.997	14450.64
673.195	14411.73
673.392	14419.92
673.59	14161.87
673.788	14823.37
673.985	13846.49
674.183	14225.36
674.38	14489.55
674.578	14555.08
674.775	14430.16
674.973	14045.14
675.17	14190.55
675.368	14923.72
675.565	14763.98
675.763	14098.39
675.96	14264.27
676.158	14587.85
676.355	14071.76
676.553	14368.72
676.75	14151.63
676.947	14411.73
677.145	14034.9
677.342	14329.81
677.539	14516.17
677.737	14391.25
677.934	14899.14
678.131	14403.53
678.329	14206.93
678.526	14864.33
678.723	14352.34
678.92	14301.14
679.118	14215.12
679.315	14071.76
679.512	14825.42
679.709	14012.37
679.906	14104.53
680.104	14632.91
680.301	14399.44
680.498	13907.93
680.695	14047.19
680.892	13846.49
681.089	14485.45
681.286	14282.7
681.483	14000.09
681.68	14639.05
681.877	14616.52
682.075	14225.36
682.272	14321.62
682.469	14469.07
682.665	14245.84
682.862	14061.52
683.059	13918.17
683.256	14280.66
683.453	14233.55
683.65	14426.06
683.847	14229.46
684.044	14360.53
684.241	14014.42
684.438	14381.01
684.635	13887.45
684.831	14630.86
685.028	14573.52
685.225	13778.9
685.422	13946.84
685.619	14233.55
685.815	14041.04
686.012	14094.29
686.209	13887.45
686.405	13862.87
686.602	14407.63
686.799	13774.81
686.996	13559.77
687.192	13512.67
687.389	14927.81
687.586	13752.28
687.782	13977.56
687.979	14450.64
688.175	14354.38
688.372	14022.61
688.568	14051.28
688.765	14075.86
688.962	14211.03
689.158	13850.58
689.355	13787.1
689.551	14084.05
689.748	13848.54
689.944	14008.28
690.14	13479.9
690.337	14489.55
690.533	13969.37
690.73	13844.44
690.926	13920.21
691.123	13932.5
691.319	13987.8
691.515	13434.85
691.712	13756.38
691.908	13948.89
692.104	14075.86
692.301	13696.99
692.497	13656.03
692.693	13938.65
692.889	14004.18
693.086	13860.82
693.282	13553.63
693.478	13893.59
693.674	14428.11
693.87	13613.02
694.067	13543.39
694.263	14000.09
694.459	13754.33
694.655	13815.77
694.851	13762.52
695.047	13797.34
695.243	13879.25
695.439	13535.2
695.635	13520.86
695.831	14034.9
696.027	14018.52
696.224	13727.71
696.42	14114.77
696.615	14061.52
696.811	13959.13
697.007	13449.18
697.203	13508.57
697.399	13989.85
697.595	14125.01
697.791	13375.45
697.987	13666.27
698.183	13371.36
698.379	13281.25
698.575	13486.04
698.77	13604.83
698.966	13754.33
699.162	13936.6
699.358	13641.69
699.554	13582.3
699.749	13912.02
699.945	13774.81
700.141	13324.26
700.337	13725.66
700.532	13627.35
700.728	13477.85
700.924	13588.44
701.119	13187.04
701.315	13758.42
701.511	13834.2
701.706	13533.15
701.902	13160.42
702.097	13715.42
702.293	13842.39
702.489	13635.55
702.684	13488.09
702.88	13567.96
703.075	13469.66
703.271	13391.84
703.466	13162.47
703.662	13354.97
703.857	13813.72
704.053	13461.47
704.248	13328.35
704.443	13694.94
704.639	13635.55
704.834	13275.1
705.03	13555.68
705.225	13787.1
705.42	13858.78
705.616	13629.4
705.811	13549.53
706.006	13563.87
706.202	13764.57
706.397	13467.61
706.592	13273.06
706.787	13527
706.983	13436.89
707.178	13729.75
707.373	13496.28
707.568	13715.42
707.763	13551.58
707.959	13115.36
708.154	13113.31
708.349	13582.3
708.544	13606.88
708.739	13436.89
708.934	12974.05
709.129	13875.16
709.324	13559.77
709.519	13314.02
709.714	13172.71
709.909	13864.92
710.104	13610.97
710.299	12834.79
710.494	12976.1
710.689	13389.79
710.884	13289.44
711.079	13092.83
711.274	13041.64
711.469	13494.24
711.664	13293.54
711.859	13316.06
712.054	13201.38
712.249	13498.33
712.443	13371.36
712.638	13103.07
712.833	12990.44
713.028	13309.92
713.223	13328.35
713.417	13449.18
713.612	13246.43
713.807	13625.31
714.002	14008.28
714.196	13512.67
714.391	13029.35
714.586	13490.14
714.78	12924.9
714.975	13064.16
715.17	12789.74
715.364	13080.55
715.559	13613.02
715.754	12658.67
715.948	12849.13
716.143	13680.6
716.337	13383.65
716.532	13242.34
716.726	12900.33
716.921	13232.1
717.115	13756.38
717.31	12711.91
717.504	13453.28
717.699	13133.79
717.893	13158.37
718.088	12961.76
718.282	12621.8
718.476	12922.85
718.671	13162.47
718.865	12705.77
719.059	12642.28
719.254	13000.68
719.448	13342.69
719.642	13033.44
719.837	12431.34
720.031	13182.95
720.225	13182.95
720.419	12883.94
720.614	12820.46
720.808	13060.07
721.002	13111.27
721.196	12695.53
721.39	12707.82
721.585	13058.02
721.779	12838.89
721.973	12664.81
722.167	12412.91
722.361	13064.16
722.555	13207.52
722.749	12650.47
722.943	12691.43
723.137	12910.57
723.331	13119.46
723.525	12797.93
723.719	12783.59
723.913	13000.68
724.107	12937.19
724.301	12298.22
724.495	12513.26
724.689	13039.59
724.883	12945.38
725.077	12552.17
725.271	12601.32
725.465	13291.49
725.659	12892.13
725.853	12972
726.046	12711.91
726.24	12730.34
726.434	12949.48
726.628	12509.16
726.822	12505.07
727.015	12871.65
727.209	12834.79
727.403	12378.09
727.596	12324.85
727.79	13131.75
727.984	13090.79
728.177	12541.93
728.371	12781.54
728.565	13207.52
728.758	12529.64
728.952	12492.78
729.146	12648.43
729.339	12904.42
729.533	12732.39
729.726	12417.01
729.92	12591.08
730.113	13354.97
730.307	13105.12
730.5	12580.84
730.694	12582.89
730.887	12666.86
731.081	12926.95
731.274	12744.68
731.468	12574.7
731.661	12773.35
731.854	12855.27
732.048	12513.26
732.241	12533.74
732.435	12769.26
732.628	13109.22
732.821	12603.37
733.014	12304.37
733.208	12474.35
733.401	13133.79
733.594	12468.2
733.788	12527.6
733.981	12953.57
734.174	12871.65
734.367	12369.9
734.56	12632.04
734.754	12863.46
734.947	12685.29
735.14	12593.13
735.333	12488.68
735.526	12818.41
735.719	12591.08
735.912	12304.37
736.105	12498.92
736.298	12791.78
736.491	12808.17
736.684	12351.47
736.877	12335.09
737.07	12728.3
737.263	13010.92
737.456	12462.06
737.649	12591.08
737.842	12359.66
738.035	12838.89
738.228	12478.44
738.421	12347.37
738.614	12914.66
738.807	12802.02
739	12064.75
739.192	12103.67
739.385	12406.77
739.578	12656.62
739.771	12654.57
739.964	12374
740.156	12640.23
740.349	12312.56
740.542	12513.26
740.735	12195.82
740.927	12287.98
741.12	12224.5
741.313	12124.15
741.505	12427.25
741.698	12607.47
741.891	12500.97
742.083	12335.09
742.276	12296.18
742.468	12339.18
742.661	12308.46
742.854	12353.52
743.046	12337.13
743.239	12736.49
743.431	12652.52
743.624	12101.62
743.816	12124.15
744.009	12558.32
744.201	12660.71
744.393	12314.61
744.586	12003.32
744.778	12777.45
744.971	12474.35
745.163	12318.7
745.355	12402.67
745.548	12374
745.74	12224.5
745.932	12181.49
746.125	12191.73
746.317	13098.98
746.509	12421.1
746.702	11984.88
746.894	12036.08
747.086	12453.87
747.278	12533.74
747.471	12097.52
747.663	12171.25
747.855	12328.94
748.047	12736.49
748.239	11814.9
748.431	12011.51
748.623	12883.94
748.815	12623.85
749.008	12134.39
749.2	11919.35
749.392	12597.23
749.584	12263.41
749.776	12470.25
749.968	12148.72
750.16	12828.65
750.352	12296.18
750.544	12247.02
750.736	11980.79
750.928	12404.72
751.12	12429.29
751.311	11937.78
751.503	12279.79
751.695	12310.51
751.887	12050.42
752.079	12113.91
752.271	11970.55
752.463	13043.68
752.654	12341.23
752.846	12089.33
753.038	12120.05
753.23	12050.42
753.421	12472.3
753.613	11880.44
753.805	12298.22
753.997	12378.09
754.188	12371.95
754.38	11964.4
754.572	11900.92
754.763	12341.23
754.955	12369.9
755.146	11878.39
755.338	12060.66
755.53	11911.16
755.721	12095.47
755.913	11583.48
756.104	11843.57
756.296	12005.36
756.487	12335.09
756.679	11550.71
756.87	11698.17
757.062	11718.65
757.253	12118
757.445	11624.44
757.636	12009.46
757.827	12142.58
758.019	12595.18
758.21	11847.67
758.401	11886.58
758.593	12677.1
758.784	12378.09
758.975	11429.88
759.167	11487.23
759.358	11962.36
759.549	12154.87
759.74	11384.83
759.932	11247.62
760.123	11978.74
760.314	11669.5
760.505	11575.29
760.696	11341.82
760.888	12333.04
761.079	11454.46
761.27	11390.97
761.461	11319.29
761.652	11993.08
761.843	11507.71
762.034	11575.29
762.225	11888.63
762.416	11655.16
762.607	11431.93
762.798	11343.87
762.989	11356.16
763.18	12564.46
763.371	11526.14
763.562	11323.39
763.753	11489.28
763.944	11698.17
764.135	11642.87
764.326	11485.18
764.517	11194.37
764.708	11757.56
764.899	11581.43
765.089	11153.41
765.28	11055.11
765.471	11569.15
765.662	11745.27
765.853	11096.07
766.043	11333.63
766.234	11919.35
766.425	11618.3
766.615	11470.84
766.806	11087.87
766.997	11642.87
767.187	11259.9
767.378	11057.15
767.569	10872.84
767.759	11603.96
767.95	11483.13
768.141	11069.44
768.331	11141.12
768.522	11634.68
768.712	11493.37
768.903	11134.98
769.093	10942.47
769.284	11651.06
769.474	11552.76
769.665	10676.23
769.855	10731.53
770.046	11331.58
770.236	11077.63
770.426	11339.77
770.617	10956.8
770.807	11251.71
770.998	11012.1
771.188	11024.39
771.378	10639.37
771.569	11233.28
771.759	11098.11
771.949	10715.14
772.139	10696.71
772.33	10956.8
772.52	11395.07
772.71	10520.59
772.9	10369.04
773.09	11251.71
773.281	11370.49
773.471	10602.5
773.661	10704.9
773.851	11126.78
774.041	10838.02
774.231	10512.39
774.421	10610.7
774.611	11390.97
774.802	10973.19
774.992	10770.44
775.182	10496.01
775.372	10786.82
775.562	11012.1
775.752	10508.3
775.942	10305.55
776.131	10778.63
776.321	10731.53
776.511	10352.65
776.701	10412.04
776.891	10778.63
777.081	10219.53
777.271	10481.67
777.461	10287.12
777.651	10717.19
777.84	10797.06
778.03	10194.96
778.22	10260.49
778.41	10975.24
778.599	10307.6
778.789	10391.56
778.979	10272.78
779.169	10665.99
779.358	10647.56
779.548	10498.06
779.738	10303.5
779.927	10510.35
780.117	10305.55
780.307	10233.87
780.496	9902.1
780.686	10647.56
780.875	10723.34
781.065	9889.81
781.254	9969.68
781.444	10172.43
781.633	10455.05
781.823	10110.99
782.012	10106.9
782.202	10131.47
782.391	10137.62
782.581	9887.76
782.77	10278.93
782.96	10319.89
783.149	10096.66
783.338	9918.48
783.528	9945.11
783.717	10414.09
783.906	10436.62
784.096	9918.48
784.285	9621.53
784.474	9762.84
784.663	10057.75
784.853	9902.1
785.042	9961.49
785.231	9955.35
785.42	10037.27
785.61	10039.31
785.799	9742.36
785.988	9891.86
786.177	9979.92
786.366	9732.12
786.555	10031.12
786.744	10215.44
786.933	9766.93
787.122	9754.65
787.312	9678.87
787.501	9996.31
787.69	9951.25
787.879	9701.4
788.068	9521.18
788.257	9621.53
788.445	9998.35
788.634	9781.27
788.823	9527.32
789.012	10563.59
789.201	10190.86
789.39	9625.62
789.579	9259.04
789.768	9711.64
789.957	9932.82
790.145	9510.94
790.334	9381.92
790.523	9689.11
790.712	9797.65
790.9	9615.38
791.089	9256.99
791.278	10156.05
791.467	9664.54
791.655	9662.49
791.844	9988.11
792.033	9572.38
792.221	9687.06
792.41	9517.08
792.599	9275.42
792.787	9998.35
792.976	9984.02
793.164	9310.24
793.353	9252.89
793.541	9855
793.73	9830.42
793.918	9490.46
794.107	9537.56
794.295	9590.81
794.484	9547.8
794.672	9396.25
794.861	9328.67
795.049	9746.45
795.238	9883.67
795.426	9125.92
795.614	9193.5
795.803	9451.55
795.991	9932.82
796.179	8927.27
796.368	9173.02
796.556	9826.32
796.744	9312.28
796.932	9170.97
797.121	9103.39
797.309	9365.53
797.497	9379.87
797.685	8970.27
797.874	9052.19
798.062	9457.69
798.25	9709.59
798.438	9283.61
798.626	9308.19
798.814	9814.04
799.002	9961.49
799.19	9402.4
799.378	9351.2
799.566	9846.8
799.755	9867.28
799.943	9191.45
800.131	9216.03
800.318	9383.96
800.506	9531.42
800.694	9232.41
800.882	9320.48
801.07	9678.87
801.258	9580.57
801.446	9119.78
801.634	9011.23
801.822	9302.04
802.01	9490.46
802.197	9256.99
802.385	9381.92
802.573	9297.95
802.761	9062.43
802.949	9250.85
803.136	9115.68
803.324	9648.15
803.512	9623.58
803.699	9240.61
803.887	9084.96
804.075	9664.54
804.262	9363.48
804.45	9064.48
804.638	9285.66
804.825	9517.08
805.013	9132.06
805.201	9222.17
805.388	8949.79
805.576	9418.78
805.763	9836.56
805.951	9326.62
806.138	9490.46
806.326	9998.35
806.513	9674.78
806.701	9300
806.888	9097.25
807.075	10012.69
807.263	10008.59
807.45	9244.7
807.638	9650.2
807.825	10057.75
808.012	9795.61
808.2	9345.05
808.387	9760.79
808.574	9885.72
808.761	9836.56
808.949	9226.27
809.136	9332.76
809.323	9582.62
809.51	9492.51
809.698	9660.44
809.885	9467.93
810.072	9629.72
810.259	9928.72
810.446	9293.85
810.633	9500.7
810.82	9967.63
811.008	10194.96
811.195	9740.31
811.382	9469.98
811.569	9711.64
811.756	9375.77
811.943	9451.55
812.13	9373.72
812.317	9551.9
812.504	9504.79
812.691	9625.62
812.878	9756.69
813.064	9838.61
813.251	9664.54
813.438	9455.64
813.625	9426.97
813.812	9414.68
813.999	9685.01
814.186	9619.48
814.372	9512.99
814.559	9803.8
814.746	10020.88
814.933	9273.37
815.12	9670.68
815.306	9498.65
815.493	9480.22
815.68	9424.92
815.866	9629.72
816.053	9773.08
816.24	10176.53
816.426	9451.55
816.613	9476.12
816.799	9920.53
816.986	9787.41
817.173	9383.96
817.359	9205.79
817.546	9746.45
817.732	9191.45
817.919	9203.74
818.105	9392.16
818.292	9531.42
818.478	9811.99
818.665	9541.66
818.851	9132.06
819.037	10369.04
819.224	9529.37
819.41	9185.31
819.597	9234.46
819.783	9785.37
819.969	9707.54
820.156	9314.33
820.342	9066.53
820.528	10250.25
820.714	9457.69
820.901	9525.27
821.087	9326.62
821.273	9838.61
821.459	9357.34
821.646	9283.61
821.832	9078.82
822.018	9332.76
822.204	9457.69
822.39	9312.28
822.576	9035.81
822.762	9390.11
822.948	9412.64
823.134	9250.85
823.32	8968.23
823.507	9224.22
823.693	9136.16
823.879	9326.62
824.065	9046.05
824.25	9482.27
824.436	9093.15
824.622	9111.58
824.808	8857.64
824.994	9076.77
825.18	9213.98
825.366	8925.22
825.552	9072.67
825.738	9379.87
825.923	9723.93
826.109	9265.18
826.295	8976.42
826.481	9062.43
826.667	9076.77
826.852	8992.8
827.038	8945.7
827.224	9652.25
827.409	9738.26
827.595	8794.15
827.781	9134.11
827.966	9730.07
828.152	9443.35
828.338	8968.23
828.523	8560.68
828.709	9015.33
828.894	9330.72
829.08	8814.63
829.266	8935.46
829.451	8917.03
829.637	9246.75
829.822	8804.39
830.008	8644.65
830.193	9314.33
830.378	9504.79
830.564	8824.87
830.749	8820.77
830.935	9146.4
831.12	9289.76
831.305	8730.66
831.491	8779.81
831.676	8734.76
831.861	9056.29
832.047	8710.18
832.232	8613.93
832.417	9189.41
832.602	9115.68
832.788	8734.76
832.973	8790.05
833.158	9125.92
833.343	8843.3
833.528	8695.85
833.714	8972.32
833.899	8937.51
834.084	9265.18
834.269	8798.24
834.454	8513.58
834.639	8957.99
834.824	8886.31
835.009	8638.5
835.194	8828.96
835.379	9062.43
835.564	9093.15
835.749	8554.54
835.934	8235.05
836.119	8822.82
836.304	8745
836.489	8464.43
836.674	8685.61
836.859	8511.53
837.044	9095.2
837.228	8437.8
837.413	8286.25
837.598	8736.81
837.783	8921.12
837.968	8468.52
838.152	8167.47
838.337	8388.65
838.522	8931.36
838.707	8886.31
838.891	8572.97
839.076	8658.98
839.261	8890.4
839.445	8435.75
839.63	8456.23
839.815	8931.36
839.999	8577.06
840.184	8452.14
840.368	8435.75
840.553	8685.61
840.737	8769.57
840.922	8110.13
841.106	8218.67
841.291	8202.29
841.475	8615.98
841.66	8144.94
841.844	8433.71
842.029	9089.06
842.213	8103.98
842.397	8017.97
842.582	8149.04
842.766	8863.78
842.951	8644.65
843.135	8038.45
843.319	8161.33
843.504	8402.99
843.688	8448.04
843.872	7802.93
844.056	8124.46
844.241	8388.65
844.425	8200.24
844.609	8280.11
844.793	7960.63
844.977	8607.78
845.161	8513.58
845.346	7936.05
845.53	7907.38
845.714	8306.73
845.898	8710.18
846.082	7768.12
846.266	7843.89
846.45	8103.98
846.634	8263.72
846.818	7856.18
847.002	8294.44
847.186	8161.33
847.37	8003.63
847.554	7825.46
847.738	7899.19
847.922	8192.05
848.106	8347.69
848.29	7524.41
848.473	7936.05
848.657	8144.94
848.841	8001.58
849.025	8015.92
849.209	7540.79
849.392	8112.17
849.576	7882.8
849.76	7460.92
849.944	7745.59
850.127	8222.77
850.311	7890.99
850.495	7663.67
850.678	7630.9
850.862	8443.95
851.046	8224.81
851.229	7798.84
851.413	7518.26
851.596	8058.93
851.78	7866.42
851.964	7809.08
852.147	7669.81
852.331	8474.67
852.514	8091.7
852.698	7747.64
852.881	7333.95
853.065	8177.71
853.248	7874.61
853.431	7573.56
853.615	7694.39
853.798	8495.15
853.982	7999.54
854.165	7755.83
854.348	7522.36
854.532	7790.64
854.715	7809.08
854.898	7489.59
855.081	7618.61
855.265	7999.54
855.448	8044.59
855.631	7618.61
855.814	7471.16
855.997	7991.34
856.181	7743.54
856.364	7483.45
856.547	7272.51
856.73	7798.84
856.913	7768.12
857.096	7348.28
857.279	7583.8
857.462	7440.44
857.645	7901.23
857.828	7491.64
858.011	7534.65
858.194	7379
858.377	7890.99
858.56	7403.58
858.743	7391.29
858.926	7227.45
859.109	7800.88
859.292	7278.65
859.475	7206.97
859.658	7960.63
859.841	7753.78
860.023	7161.92
860.206	7006.27
860.389	7477.3
860.572	7841.84
860.755	7315.52
860.937	7297.08
861.12	7366.71
861.303	7598.13
861.486	7153.73
861.668	7110.72
861.851	7614.52
862.034	7635
862.216	7249.98
862.399	6914.11
862.581	7573.56
862.764	7591.99
862.947	7157.82
863.129	7057.47
863.312	7088.19
863.494	7678.01
863.677	7196.73
863.859	6979.65
864.042	7583.8
864.224	7583.8
864.406	7264.32
864.589	6828.1
864.771	7376.95
864.954	7002.18
865.136	7026.75
865.318	6703.17
865.501	7108.67
865.683	6703.17
865.865	6740.04
866.048	6936.64
866.23	7047.23
866.412	6957.12
866.594	6420.55
866.777	6795.33
866.959	7129.15
867.141	6852.67
867.323	6936.64
867.505	6910.02
867.687	7014.46
867.869	7075.9
868.052	7075.9
868.234	6598.73
868.416	7002.18
868.598	7358.52
868.78	6662.21
868.962	6887.49
869.144	7428.15
869.326	7137.34
869.508	6594.63
869.69	6838.34
869.872	6819.91
870.054	7153.73
870.236	6416.46
870.417	6725.7
870.599	6737.99
870.781	7413.82
870.963	6719.56
871.145	6570.05
871.327	6903.87
871.508	7139.39
871.69	6772.8
871.872	6871.11
872.054	6961.22
872.235	7186.49
872.417	6834.24
872.599	6586.44
872.78	7350.33
872.962	6848.58
873.144	6434.89
873.325	6629.45
873.507	7395.39
873.689	6930.5
873.87	6619.21
874.052	6756.42
874.233	6869.06
874.415	7180.35
874.596	6635.59
874.778	6469.7
874.959	6944.83
875.141	7168.06
875.322	6688.84
875.503	6535.24
875.685	7043.14
875.866	6604.87
876.048	6570.05
876.229	6639.69
876.41	6617.16
876.592	6963.26
876.773	6576.2
876.954	6422.6
877.136	7286.84
877.317	6920.26
877.498	6488.14
877.679	6692.93
877.86	6809.67
878.042	6912.07
878.223	6694.98
878.404	6881.35
878.585	7108.67
878.766	7366.71
878.947	6991.94
879.128	6713.41
879.309	7159.87
879.49	7178.3
879.672	6629.45
879.853	6805.57
880.034	6914.11
880.215	6920.26
880.396	6826.05
880.576	6586.44
880.757	6787.14
880.938	7200.83
881.119	6639.69
881.3	6719.56
881.481	6733.89
881.662	7784.5
881.843	6637.64
882.023	6596.68
882.204	7096.38
882.385	7075.9
882.566	6705.22
882.747	6955.07
882.927	7034.94
883.108	7241.79
883.289	6731.84
883.469	7149.63
883.65	7045.18
883.831	7194.68
884.011	7047.23
884.192	6805.57
884.373	7514.17
884.553	7276.6
884.734	7086.14
884.914	7211.07
885.095	7936.05
885.275	7583.8
885.456	7219.26
885.636	6688.84
885.817	7241.79
885.997	7329.85
886.178	7006.27
886.358	7006.27
886.538	7243.84
886.719	8288.3
886.899	6901.83
887.08	7100.48
887.26	7415.87
887.44	7082.05
887.621	6926.4
887.801	7151.68
887.981	7968.82
888.161	7544.89
888.342	7125.05
888.522	7215.16
888.702	7481.4
888.882	7540.79
889.062	7098.43
889.242	6991.94
889.423	7733.3
889.603	7528.5
889.783	7239.74
889.963	7032.9
890.143	7405.63
890.323	7530.55
890.503	7321.66
890.683	7049.28
890.863	7301.18
891.043	7430.2
891.223	7245.88
891.403	7319.61
891.583	7491.64
891.763	7262.27
891.943	7006.27
892.122	7045.18
892.302	7362.62
892.482	7534.65
892.662	7200.83
892.842	7204.92
893.022	7245.88
893.201	7092.29
893.381	7325.75
893.561	7123.01
893.741	7581.75
893.92	7419.96
894.1	7182.4
894.28	7137.34
894.459	7602.23
894.639	7221.31
894.819	7057.47
894.998	7157.82
895.178	7399.48
895.357	7323.71
895.537	6993.98
895.716	7061.57
895.896	7346.23
896.075	7618.61
896.255	6918.21
896.434	6613.06
896.614	7575.61
896.793	7673.91
896.973	7262.27
897.152	6869.06
897.331	7206.97
897.511	7376.95
897.69	6692.93
897.87	6846.53
898.049	7299.13
898.228	7266.36
898.407	6856.77
898.587	6932.54
898.766	6864.96
898.945	7110.72
899.124	6942.78
899.304	6993.98
899.483	7155.77
899.662	7397.43
899.841	6645.83
900.02	6838.34
900.199	7159.87
900.378	7100.48
900.557	6772.8
900.737	6438.98
900.916	7063.61
901.095	7104.57
901.274	6840.39
901.453	6479.94
901.632	6660.17
901.811	6555.72
901.989	6471.75
902.168	6529.1
902.347	7026.75
902.526	6957.12
902.705	6404.17
902.884	6557.77
903.063	7022.66
903.242	7024.7
903.42	6400.07
903.599	6645.83
903.778	6864.96
903.957	7108.67
904.135	6502.47
904.314	6305.87
904.493	6654.02
904.672	6768.71
904.85	6203.47
905.029	6283.34
905.207	6461.51
905.386	7233.6
905.565	6047.82
905.743	5974.1
905.922	6158.41
906.1	6611.01
906.279	5965.9
906.457	6170.7
906.636	6246.48
906.814	6105.17
906.993	5926.99
907.171	5818.45
907.35	6254.67
907.528	6516.81
907.707	6191.18
907.885	5900.37
908.063	6596.68
908.242	5896.27
908.42	5869.65
908.598	5478.49
908.777	6234.19
908.955	5789.78
909.133	5904.46
909.311	5507.16
909.49	5849.17
909.668	6023.25
909.846	5582.93
910.024	5689.43
910.202	5890.13
910.38	6238.28
910.559	5431.38
910.737	5584.98
910.915	6152.27
911.093	6332.49
911.271	5959.76
911.449	5963.86
911.627	6338.63
911.805	6746.18
911.983	6158.41
912.161	5926.99
912.339	6285.39
912.517	6613.06
912.695	6342.73
912.872	6021.2
913.05	6213.71
913.228	6508.62
913.406	5945.42
913.584	5965.9
913.762	6449.22
913.939	6221.9
914.117	6031.44
914.295	5929.04
914.473	6330.44
914.65	6275.15
914.828	6049.87
915.006	5886.03
915.184	5816.4
915.361	6242.38
915.539	6195.28
915.716	6127.69
915.894	6410.31
916.072	6330.44
916.249	6203.47
916.427	6295.63
916.604	5877.84
916.782	6250.57
916.959	5738.58
917.137	5861.46
917.314	6029.39
917.492	6383.69
917.669	5812.31
917.847	5888.08
918.024	6232.14
918.201	6043.73
918.379	5986.38
918.556	5769.3
918.733	6207.56
918.911	6115.41
919.088	6080.59
919.265	5765.2
919.442	6058.06
919.62	5820.5
919.797	5779.54
919.974	5587.03
920.151	6131.79
920.328	6051.92
920.506	5740.63
920.683	5892.18
920.86	5935.18
921.037	5709.91
921.214	5838.93
921.391	5650.52
921.568	6211.66
921.745	5736.53
921.922	5789.78
922.099	5660.76
922.276	6139.98
922.453	6082.64
922.63	5591.13
922.807	5871.7
922.984	5926.99
923.161	5728.34
923.338	5582.93
923.514	5404.76
923.691	5834.83
923.868	5947.47
924.045	5515.35
924.222	5288.03
924.399	5703.76
924.575	5822.55
924.752	5658.71
924.929	5630.04
925.105	5900.37
925.282	5611.61
925.459	5433.43
925.635	5423.19
925.812	5847.12
925.989	5371.99
926.165	5453.91
926.342	5230.68
926.518	5279.83
926.695	5689.43
926.871	5171.29
927.048	5242.97
927.224	5843.03
927.401	5314.65
927.577	5382.23
927.754	5128.28
927.93	5627.99
928.107	5636.18
928.283	4962.4
928.459	5404.76
928.636	5609.56
928.812	5197.92
928.988	5087.33
929.165	5064.8
929.341	5277.79
929.517	5441.62
929.693	5427.29
929.87	4819.04
930.046	5589.08
930.222	5109.85
930.398	5034.08
930.574	5228.63
930.751	5185.63
930.927	4876.38
931.103	5097.56
931.279	5023.84
931.455	5058.65
931.631	5120.09
931.807	4634.72
931.983	4724.83
932.159	4595.81
932.335	5038.17
932.511	4716.64
932.687	4683.88
932.863	4941.92
933.039	4886.62
933.215	4606.05
933.391	4454.5
933.566	4722.79
933.742	4892.77
933.918	4548.71
934.094	4321.38
934.27	4741.22
934.445	4696.16
934.621	4489.32
934.797	4327.53
934.973	4800.61
935.148	4649.06
935.324	4075.63
935.5	3997.81
935.675	4614.24
935.851	4397.16
936.027	4006
936.202	4003.95
936.378	4491.37
936.553	4063.34
936.729	4307.05
936.904	3618.93
937.08	3639.41
937.255	3795.06
937.431	3672.18
937.606	3577.97
937.782	3735.67
937.957	3774.58
938.133	3651.7
938.308	3278.97
938.483	3526.77
938.659	3295.35
938.834	3373.18
939.009	3166.33
939.185	3276.92
939.36	3233.91
939.535	2769.02
939.71	3117.18
939.886	3577.97
940.061	3303.54
940.236	3121.28
940.411	2908.29
940.586	3172.47
940.761	3221.63
940.937	2953.34
941.112	2662.53
941.287	3082.36
941.462	2973.82
941.637	2586.76
941.812	2873.47
941.987	3022.97
942.162	2846.85
942.337	2769.02
942.512	2707.59
942.687	3113.08
942.862	3147.9
943.037	2629.76
943.212	2406.53
943.386	2834.56
943.561	3020.92
943.736	2881.66
943.911	3037.31
944.086	2830.46
944.26	2908.29
944.435	2609.28
944.61	2795.65
944.785	3065.98
944.959	3143.8
945.134	2691.2
945.309	2429.06
945.483	2672.77
945.658	3006.59
945.833	2142.35
946.007	2404.49
946.182	3276.92
946.357	2447.49
946.531	2490.5
946.706	2424.97
946.88	2347.14
947.055	2871.42
947.229	2576.52
947.404	2535.56
947.578	3047.55
947.752	2754.69
947.927	2510.98
948.101	2484.36
948.276	2863.23
948.45	2840.7
948.624	2914.43
948.799	2607.23
948.973	2848.9
949.147	2490.5
949.321	2754.69
949.496	2697.35
949.67	3207.29
949.844	2857.09
950.018	2721.92
950.193	2678.91
950.367	3455.09
950.541	2906.24
950.715	2812.03
950.889	2848.9
951.063	2967.68
951.237	3125.37
951.411	2619.52
951.585	2607.23
951.759	3061.88
951.933	3016.83
952.107	2570.37
952.281	2947.2
952.455	3373.18
952.629	3225.72
952.803	2738.3
952.977	2744.45
953.151	3119.23
953.325	3121.28
953.499	3065.98
953.672	2689.15
953.846	2863.23
954.02	3090.56
954.194	2795.65
954.368	2957.44
954.541	3164.28
954.715	2971.77
954.889	3002.49
955.062	2865.28
955.236	3176.57
955.41	3010.68
955.583	2779.26
955.757	2740.35
955.93	2975.87
956.104	2906.24
956.278	3016.83
956.451	2961.53
956.625	3283.06
956.798	3481.72
956.972	3186.81
957.145	2795.65
957.319	3096.7
957.492	3229.82
957.665	3070.08
957.839	3074.17
958.012	3326.07
958.185	3061.88
958.359	2988.16
958.532	3045.5
958.705	3364.98
958.879	3223.67
959.052	2967.68
959.225	2721.92
959.398	3117.18
959.572	3235.96
959.745	2979.97
959.918	2971.77
960.091	3037.31
960.264	3418.23
960.438	2820.22
960.611	2777.22
960.784	3397.75
960.957	2957.44
961.13	3467.38
961.303	2740.35
961.476	3213.43
961.649	3401.85
961.822	2924.67
961.995	3035.26
962.168	3362.94
962.341	3258.49
962.514	2996.35
962.686	2984.06
962.859	3139.71
963.032	3278.97
963.205	2992.25
963.378	2848.9
963.551	3313.78
963.723	3207.29
963.896	2986.11
964.069	3068.03
964.242	3270.78
964.414	3356.79
964.587	2971.77
964.76	3043.45
964.932	3281.02
965.105	3139.71
965.278	2865.28
965.45	2723.97
965.623	3227.77
965.795	3305.59
965.968	2920.57
966.14	2918.53
966.313	2939.01
966.485	3090.56
966.658	2992.25
966.83	2865.28
967.003	3395.7
967.175	3227.77
967.348	2934.91
967.52	2988.16
967.692	3397.75
967.865	3307.64
968.037	3045.5
968.209	3248.25
968.382	2910.33
968.554	3295.35
968.726	2834.56
968.898	2705.54
969.071	3149.95
969.243	3139.71
969.415	2861.18
969.587	3012.73
969.759	3567.73
969.932	3158.14
970.104	2965.63
970.276	2562.18
970.448	3037.31
970.62	2910.33
970.792	2914.43
970.964	2807.94
971.136	3410.04
971.308	3082.36
971.48	2693.25
971.652	2730.11
971.824	3334.26
971.996	2846.85
972.168	2898.05
972.339	2928.77
972.511	3143.8
972.683	2979.97
972.855	3016.83
973.027	2734.21
973.199	2779.26
973.37	3184.76
973.542	2932.86
973.714	2822.27
973.886	2836.61
974.057	3235.96
974.229	2558.08
974.401	2660.48
974.572	2660.48
974.744	2486.4
974.915	2605.19
975.087	2652.29
975.259	3195
975.43	2734.21
975.602	2633.86
975.773	2500.74
975.945	2705.54
976.116	3125.37
976.288	2687.11
976.459	2660.48
976.63	2648.19
976.802	2762.88
976.973	2570.37
977.145	2764.93
977.316	3305.59
977.487	3004.54
977.659	2703.49
977.83	2515.08
978.001	3293.3
978.172	2844.8
978.344	2517.12
978.515	2633.86
978.686	2640
978.857	3090.56
979.028	2510.98
979.2	2457.73
979.371	2979.97
979.542	2734.21
979.713	2697.35
979.884	2230.41
980.055	2418.82
980.226	2625.67
980.397	2549.89
980.568	2320.52
980.739	2996.35
980.91	2623.62
981.081	2668.67
981.252	2459.78
981.423	2640
981.594	3010.68
981.765	2459.78
981.936	2437.25
982.106	2746.5
982.277	2863.23
982.448	2320.52
982.619	2463.88
982.79	2541.7
982.96	2852.99
983.131	2320.52
983.302	2136.2
983.472	2431.11
983.643	2572.42
983.814	2457.73
983.984	2177.16
984.155	2558.08
984.326	2650.24
984.496	2523.27
984.667	2281.61
984.837	2345.09
985.008	2644.1
985.178	2449.54
985.349	2361.48
985.519	2416.77
985.69	2310.28
985.86	2259.08
986.031	2017.42
986.201	2435.21
986.371	2582.66
986.542	1966.22
986.712	1953.93
986.882	2377.86
987.053	2459.78
987.223	2029.71
987.393	2265.22
987.563	2267.27
987.734	2486.4
987.904	2470.02
988.074	2070.67
988.244	2400.39
988.414	2164.87
988.585	1980.56
988.755	2168.97
988.925	2265.22
989.095	2830.46
989.265	2015.37
989.435	2158.73
989.605	2474.12
989.775	2418.82
989.945	2326.66
990.115	1978.51
990.285	2248.84
990.455	2271.37
990.625	2097.29
990.795	2037.9
990.965	2601.09
991.134	2080.91
991.304	1970.32
991.474	2019.47
991.644	2326.66
991.814	2513.03
991.984	1861.77
992.153	1867.92
992.323	2064.52
992.493	2211.98
992.662	1675.41
992.832	2009.23
993.002	2205.83
993.171	2271.37
993.341	1726.61
993.511	2009.23
993.68	1986.7
993.85	2349.19
994.019	1712.27
994.189	1755.28
994.358	2181.26
994.528	1988.75
994.697	1487
994.867	1577.11
995.036	2162.83
995.206	1906.83
995.375	1722.51
995.544	1931.41
995.714	2078.86
995.883	1958.03
996.052	1788.05
996.222	1566.87
996.391	2517.12
996.56	1994.89
996.73	1595.54
996.899	1552.53
997.068	2271.37
997.237	1974.41
997.406	1652.88
997.576	1501.33
997.745	2013.32
997.914	1908.88
998.083	1384.6
998.252	1663.12
998.421	1908.88
998.59	1884.3
998.759	1550.48
998.928	1462.42
999.097	2162.83
999.266	2027.66
999.435	1679.51
999.604	1407.13
999.773	2410.63
999.942	1806.48
1000.111	1458.32
1000.28	1310.87
1000.448	1687.7
1000.617	1593.49
1000.786	1597.59
1000.955	1335.45
1001.124	1915.02
1001.292	2398.34
1001.461	1314.97
1001.63	1351.83
1001.798	2013.32
1001.967	2048.14
1002.136	1308.82
1002.304	1409.17
1002.473	1656.98
1002.642	1745.04
1002.81	1513.62
1002.979	1372.31
1003.147	1910.93
1003.316	2228.36
1003.484	1253.53
1003.653	1267.86
1003.821	1898.64
1003.99	1620.11
1004.158	1386.65
1004.327	1452.18
1004.495	1710.22
1004.663	1380.5
1004.832	1474.71
1005	1089.69
1005.168	1704.08
1005.337	1570.96
1005.505	1187.99
1005.673	1538.2
1005.842	1708.18
1006.01	1728.66
1006.178	1118.36
1006.346	1245.34
1006.514	1716.37
1006.683	1783.95
1006.851	1142.94
1007.019	1190.04
1007.187	1333.4
1007.355	1038.49
1007.523	1058.97
1007.691	1124.51
1007.859	1153.18
1008.027	1753.23
1008.195	1124.51
1008.363	1009.82
1008.531	1671.31
1008.699	1351.83
1008.867	972.96
1009.035	1204.38
1009.203	1736.85
1009.37	1513.62
1009.538	1097.88
1009.706	1570.96
1009.874	1484.95
1010.042	1343.64
1010.209	1067.16
1010.377	1112.22
1010.545	1710.22
1010.713	1384.6
1010.88	1075.35
1011.048	1020.06
1011.216	1245.34
1011.383	1536.15
1011.551	1009.82
1011.718	1020.06
1011.886	1663.12
1012.054	1333.4
1012.221	938.14
1012.389	958.62
1012.556	1167.51
1012.724	1765.52
1012.891	1034.39
1013.058	823.45
1013.226	1472.66
1013.393	1468.56
1013.561	841.89
1013.728	800.93
1013.895	1452.18
1014.063	1271.96
1014.23	813.21
1014.397	901.28
1014.565	1503.38
1014.732	1112.22
1014.899	979.1
1015.066	641.18
1015.233	1206.42
1015.401	1331.35
1015.568	878.75
1015.735	968.86
1015.902	1294.49
1016.069	1314.97
1016.236	919.71
1016.403	962.72
1016.57	905.37
1016.737	1317.01
1016.904	907.42
1017.071	698.53
1017.238	981.15
1017.405	1378.45
1017.572	786.59
1017.739	1013.92
1017.906	1288.34
1018.073	1319.06
1018.24	665.76
1018.407	813.21
1018.573	1427.6
1018.74	960.67
1018.907	673.95
1019.074	577.7
1019.241	1212.57
1019.407	1138.84
1019.574	632.99
1019.741	665.76
1019.907	1093.79
1020.074	1173.66
1020.241	508.07
1020.407	635.04
1020.574	1138.84
1020.74	1196.18
1020.907	643.23
1021.073	632.99
1021.24	1511.57
1021.406	1292.44
1021.573	534.69
1021.739	743.58
1021.906	1196.18
1022.072	989.34
1022.239	657.57
1022.405	719.01
1022.571	989.34
1022.738	868.51
1022.904	604.32
1023.07	692.38
1023.237	1044.63
1023.403	1231
1023.569	565.41
1023.735	626.85
1023.902	1007.77
1024.068	944.28
1024.234	534.69
1024.4	592.03
1024.566	1020.06
1024.732	1106.07
1024.898	583.84
1025.065	503.97
1025.231	1144.99
1025.397	841.89
1025.563	710.82
1025.729	473.25
1025.895	448.68
1026.061	755.87
1026.227	440.48
1026.392	661.66
1026.558	1128.6
1026.724	1024.16
1026.89	549.03
1027.056	620.71
1027.222	1101.98
1027.388	743.58
1027.553	501.92
1027.719	454.82
1027.885	1218.71
1028.051	1009.82
1028.216	387.24
1028.382	594.08
1028.548	1087.64
1028.713	802.97
1028.879	481.44
1029.045	669.86
1029.21	1163.42
1029.376	1083.55
1029.541	567.46
1029.707	528.55
1029.873	993.44
1030.038	1130.65
1030.204	456.87
1030.369	510.11
1030.534	1020.06
1030.7	839.84
1030.865	542.88
1031.031	428.2
1031.196	921.76
1031.361	884.89
1031.527	356.52
1031.692	374.95
1031.857	395.43
1032.023	897.18
1032.188	420
1032.353	452.77
1032.518	1222.81
1032.684	809.12
1032.849	321.7
1033.014	422.05
1033.179	991.39
1033.344	886.94
1033.509	469.16
1033.674	465.06
1033.839	956.57
1034.004	936.09
1034.17	395.43
1034.335	272.55
1034.5	739.49
1034.664	596.13
1034.829	432.29
1034.994	356.52
1035.159	805.02
1035.324	807.07
1035.489	415.91
1035.654	354.47
1035.819	1050.78
1035.984	874.65
1036.148	352.42
1036.313	389.28
1036.478	956.57
1036.643	757.92
1036.807	338.09
1036.972	329.89
1037.137	1054.87
1037.301	788.64
1037.466	276.65
1037.631	456.87
1037.795	1093.79
1037.96	745.63
1038.124	522.4
1038.289	231.59
1038.454	843.93
1038.618	831.65
1038.783	333.99
1038.947	350.37
1039.111	708.77
1039.276	579.75
1039.44	243.88
1039.605	768.16
1039.769	563.36
1039.933	624.8
1040.098	426.15
1040.262	610.47
1040.426	845.98
1040.591	798.88
1040.755	278.69
1040.919	258.21
1041.083	725.15
1041.248	614.56
1041.412	143.53
1041.576	170.15
1041.74	553.12
1041.904	823.45
1042.068	239.78
1042.232	319.65
1042.397	858.27
1042.561	802.97
1042.725	-14.17
1042.889	467.11
1043.053	788.64
1043.217	729.25
1043.381	344.23
1043.544	108.71
1043.708	921.76
1043.872	325.8
1044.036	51.37
1044.2	92.33
1044.364	700.58
1044.528	993.44
1044.691	1573.01
1044.855	168.1
1045.019	856.22
1045.183	741.54
1045.346	282.79
1045.51	194.73
1045.674	682.14
1045.837	860.32
1046.001	305.32
1046.165	176.3
1046.328	1202.33
1046.492	673.95
1046.655	393.38
1046.819	321.7
1046.983	471.2
1047.146	676
1047.31	227.5
1047.473	55.47
1047.636	485.54
1047.8	346.28
1047.963	239.78
1048.127	157.86
1048.29	346.28
