Data from Hydrogel_Ink_Intensity_Test_1_USB4F045381__30__00030.txt Node

Date: Mon Jul 31 10:42:48 EDT 2023
User: mmckonesweet
Spectrometer: USB4F04538
Trigger mode: 4
Integration Time (sec): 9.000000E-1
Scans to average: 1
Electric dark correction enabled: true
Nonlinearity correction enabled: false
Boxcar width: 0
XAxis mode: Wavelengths
Number of Pixels in Spectrum: 3648
>>>>>Begin Spectral Data<<<<<
345.52	-951.45
345.736	-951.45
345.952	-951.45
346.168	-1014.94
346.384	-955.55
346.6	-70.83
346.816	-199.85
347.032	-265.38
347.248	271.19
347.464	-208.04
347.68	-91.31
347.896	74.58
348.112	406.35
348.328	-89.26
348.544	-66.73
348.76	-46.25
348.975	285.52
349.191	-277.67
349.407	-160.94
349.623	82.77
349.839	0.85
350.055	-62.63
350.27	33.62
350.486	250.71
350.702	410.45
350.918	293.71
351.133	-154.79
351.349	176.98
351.565	457.55
351.781	-140.46
351.996	45.91
352.212	408.4
352.428	-76.97
352.644	-154.79
352.859	-138.41
353.075	396.11
353.291	50
353.506	-60.59
353.722	-208.04
353.938	-9.39
354.153	478.03
354.369	82.77
354.584	-50.35
354.8	316.24
355.016	-306.34
355.231	-236.71
355.447	-11.43
355.662	176.98
355.878	881.48
356.093	-265.38
356.309	41.81
356.524	-212.14
356.74	271.19
356.955	-124.07
357.171	13.14
357.386	262.99
357.602	-124.07
357.817	-5.29
358.033	-105.64
358.248	396.11
358.464	191.31
358.679	-40.11
358.895	-283.81
359.11	90.96
359.325	453.45
359.541	258.9
359.756	95.06
359.972	-310.44
360.187	228.18
360.402	-165.03
360.618	-64.68
360.833	985.93
361.048	148.31
361.264	-113.83
361.479	4.95
361.694	31.57
361.909	234.32
362.125	-107.69
362.34	4.95
362.555	328.53
362.77	93.01
362.986	-87.21
363.201	-60.59
363.416	265.04
363.631	97.11
363.847	-142.5
364.062	-89.26
364.277	185.17
364.492	164.69
364.707	-56.49
364.922	-341.16
365.138	285.52
365.353	412.5
365.568	-173.22
365.783	-15.53
365.998	170.83
366.213	590.67
366.428	-83.11
366.643	164.69
366.858	336.72
367.073	256.85
367.288	-3.24
367.503	-144.55
367.718	230.23
367.933	422.73
368.148	-199.85
368.363	-46.25
368.578	60.24
368.793	502.61
369.008	-64.68
369.223	-179.37
369.438	238.42
369.653	420.69
369.868	-119.98
370.083	-124.07
370.298	215.89
370.513	418.64
370.728	205.65
370.943	-119.98
371.157	-87.21
371.372	699.21
371.587	-199.85
371.802	-117.93
372.017	258.9
372.232	580.43
372.446	90.96
372.661	-89.26
372.876	324.43
373.091	408.4
373.306	-3.24
373.52	-95.4
373.735	-93.35
373.95	527.18
374.165	35.67
374.379	-15.53
374.594	-58.54
374.809	267.09
375.023	99.16
375.238	-140.46
375.453	371.54
375.667	-124.07
375.882	11.09
376.097	-74.92
376.311	197.46
376.526	82.77
376.741	-119.98
376.955	269.14
377.17	666.44
377.384	793.42
377.599	146.26
377.813	-144.55
378.028	697.16
378.242	222.03
378.457	93.01
378.672	-216.23
378.886	246.61
379.101	125.78
379.315	-169.13
379.53	45.91
379.744	293.71
379.958	361.3
380.173	54.1
380.387	43.86
380.602	306
380.816	136.02
381.031	21.33
381.245	109.4
381.459	367.44
381.674	2693.93
381.888	11.09
382.103	312.14
382.317	-25.77
382.531	684.87
382.746	70.48
382.96	-15.53
383.174	35.67
383.388	623.44
383.603	236.37
383.817	-76.97
384.031	336.72
384.246	619.34
384.46	248.66
384.674	469.84
384.888	291.66
385.103	254.8
385.317	-56.49
385.531	183.12
385.745	553.8
385.959	432.97
386.174	33.62
386.388	-72.87
386.602	148.31
386.816	88.92
387.03	86.87
387.244	236.37
387.458	197.46
387.672	605
387.887	0.85
388.101	-21.67
388.315	572.24
388.529	318.29
388.743	43.86
388.957	31.57
389.171	572.24
389.385	33.62
389.599	125.78
389.813	371.54
390.027	371.54
390.241	836.42
390.455	111.44
390.669	187.22
390.883	228.18
391.097	693.07
391.311	299.86
391.525	60.24
391.738	500.56
391.952	432.97
392.166	271.19
392.38	66.39
392.594	529.23
392.808	598.86
393.022	244.56
393.236	213.84
393.449	478.03
393.663	457.55
393.877	15.19
394.091	242.51
394.305	183.12
394.518	93.01
394.732	9.05
394.946	176.98
395.16	693.07
395.373	324.43
395.587	97.11
395.801	88.92
396.015	508.75
396.228	529.23
396.442	121.68
396.656	-21.67
396.869	633.68
397.083	723.79
397.297	340.82
397.51	160.59
397.724	709.45
397.938	508.75
398.151	101.2
398.365	99.16
398.578	639.82
398.792	711.5
399.005	330.58
399.219	303.95
399.433	463.69
399.646	504.65
399.86	455.5
400.073	369.49
400.287	615.24
400.5	377.68
400.714	377.68
400.927	308.05
401.141	478.03
401.354	1346.37
401.567	586.57
401.781	107.35
401.994	680.78
402.208	1055.56
402.421	285.52
402.635	392.02
402.848	422.73
403.061	709.45
403.275	416.59
403.488	191.31
403.701	910.15
403.915	635.72
404.128	455.5
404.341	361.3
404.555	639.82
404.768	459.6
404.981	465.74
405.195	332.62
405.408	1010.5
405.621	707.4
405.834	525.13
406.048	281.43
406.261	881.48
406.474	934.73
406.687	328.53
406.9	445.26
407.114	516.94
407.327	639.82
407.54	256.85
407.753	201.55
407.966	383.82
408.179	836.42
408.392	283.47
408.605	238.42
408.819	709.45
409.032	676.68
409.245	312.14
409.458	605
409.671	701.26
409.884	987.97
410.097	230.23
410.31	478.03
410.523	734.03
410.736	535.37
410.949	426.83
411.162	500.56
411.375	955.21
411.588	861
411.801	590.67
412.014	408.4
412.227	666.44
412.44	482.13
412.653	428.88
412.865	721.74
413.078	899.91
413.291	779.08
413.504	480.08
413.717	488.27
413.93	865.1
414.143	478.03
414.356	518.99
414.568	428.88
414.781	955.21
414.994	664.4
415.207	547.66
415.42	592.72
415.632	887.62
415.845	1147.72
416.058	435.02
416.271	404.3
416.483	711.5
416.696	1110.85
416.909	594.76
417.121	539.47
417.334	975.69
417.547	1209.15
417.759	510.8
417.972	506.7
418.185	578.38
418.397	983.88
418.61	506.7
418.823	664.4
419.035	1073.99
419.248	867.14
419.46	697.16
419.673	744.27
419.885	920.39
420.098	631.63
420.311	699.21
420.523	398.16
420.736	985.93
420.948	869.19
421.161	686.92
421.373	455.5
421.586	949.06
421.798	742.22
422.01	441.17
422.223	822.09
422.435	783.18
422.648	1041.22
422.86	701.26
423.073	609.1
423.285	1221.44
423.497	629.58
423.71	744.27
423.922	688.97
424.134	1141.57
424.347	1260.35
424.559	1078.08
424.771	1098.56
424.984	895.82
425.196	1049.41
425.408	615.24
425.621	643.92
425.833	1225.54
426.045	1246.02
426.257	736.07
426.47	617.29
426.682	1086.28
426.894	1198.92
427.106	750.41
427.318	938.82
427.531	815.94
427.743	1317.7
427.955	901.96
428.167	1383.23
428.379	1160
428.591	1053.51
428.804	1010.5
429.016	867.14
429.228	957.25
429.44	1299.27
429.652	1088.32
429.864	764.75
430.076	1000.26
430.288	1119.04
430.5	1069.89
430.712	1051.46
430.924	1477.44
431.136	1213.25
431.348	830.28
431.56	1018.69
431.772	1160
431.984	1121.09
432.196	863.05
432.408	1102.66
432.62	1225.54
432.832	1297.22
433.044	1297.22
433.256	1172.29
433.468	1553.21
433.679	1004.36
433.891	969.54
434.103	1317.7
434.315	1610.56
434.527	1426.24
434.739	1221.44
434.95	1266.5
435.162	1526.59
435.374	1268.55
435.586	1112.9
435.798	1258.31
436.009	1071.94
436.221	1409.86
436.433	1211.2
436.645	1235.78
436.856	1299.27
437.068	1657.66
437.28	1221.44
437.491	1528.64
437.703	1631.04
437.915	1372.99
438.126	1303.36
438.338	1495.87
438.55	1491.77
438.761	1649.47
438.973	1334.08
439.184	1192.77
439.396	1565.5
439.608	1715
439.819	1217.35
440.031	1499.97
440.242	1823.55
440.454	1674.04
440.665	1370.94
440.877	1551.17
441.088	1614.65
441.3	1512.25
441.511	1327.94
441.723	1393.47
441.934	1698.62
442.146	1676.09
442.357	1655.61
442.569	1710.91
442.78	1633.08
442.991	2081.59
443.203	1801.02
443.414	1375.04
443.626	1942.33
443.837	1510.21
444.048	1444.67
444.26	1325.89
444.471	1698.62
444.682	1983.29
444.894	1262.4
445.105	1350.46
445.316	1987.38
445.528	1874.74
445.739	1616.7
445.95	1741.63
446.161	1889.08
446.373	2069.3
446.584	1663.8
446.795	1647.42
447.006	1917.75
447.217	2188.08
447.429	1411.9
447.64	1467.2
447.851	2173.75
448.062	1794.87
448.273	1446.72
448.484	1534.78
448.695	1946.42
448.907	1839.93
449.118	1823.55
449.329	1866.55
449.54	1868.6
449.751	1794.87
449.962	1663.8
450.173	1516.35
450.384	2157.36
450.595	2231.09
450.806	1807.16
451.017	1811.26
451.228	2327.35
451.439	2216.76
451.65	1803.07
451.861	1534.78
452.072	1762.11
452.283	2054.97
452.494	1940.28
452.705	1745.72
452.915	2331.44
453.126	2220.85
453.337	1858.36
453.548	1803.07
453.759	2411.31
453.97	2794.28
454.181	2198.32
454.391	2067.25
454.602	2376.5
454.813	2220.85
455.024	2118.45
455.235	1997.62
455.445	2431.79
455.656	2380.59
455.867	2253.62
456.078	2132.79
456.288	2200.37
456.499	2585.39
456.71	2196.28
456.921	2341.68
457.131	2599.73
457.342	2448.18
457.553	2267.95
457.763	2147.12
457.974	2589.49
458.184	2624.3
458.395	2274.1
458.606	2245.43
458.816	2773.8
459.027	3119.91
459.237	2444.08
459.448	2417.46
459.659	2820.91
459.869	3281.7
460.08	2157.36
460.29	2556.72
460.501	3099.43
460.711	2560.81
460.922	2413.36
461.132	2671.4
461.343	3470.11
461.553	2499.38
461.764	2749.23
461.974	2612.01
462.184	3097.38
462.395	3019.56
462.605	2779.95
462.816	2616.11
463.026	2982.7
463.236	3287.84
463.447	2861.87
463.657	2843.43
463.867	3289.89
464.078	3062.57
464.288	2951.98
464.498	2945.83
464.709	3134.25
464.919	3054.37
465.129	3019.56
465.339	3027.75
465.55	3441.44
465.76	3451.68
465.97	2999.08
466.18	3009.32
466.391	3664.67
466.601	3506.98
466.811	3357.47
467.021	3044.13
467.231	3699.48
467.441	3717.92
467.651	3431.2
467.862	3009.32
468.072	3826.46
468.282	4145.94
468.492	3482.4
468.702	3760.92
468.912	3851.03
469.122	4260.63
469.332	3982.1
469.542	3533.6
469.752	4104.98
469.962	4092.69
470.172	3877.66
470.382	3945.24
470.592	4391.7
470.802	4463.38
471.012	4186.9
471.222	3980.06
471.432	4555.54
471.642	4539.15
471.852	4326.16
472.062	4256.53
472.272	4387.6
472.482	4371.22
472.691	4430.61
472.901	4203.29
473.111	4709.13
473.321	5290.76
473.531	4584.21
473.741	4567.82
473.95	5055.24
474.16	5153.54
474.37	4795.15
474.58	4707.09
474.79	5380.87
474.999	5401.35
475.209	4676.37
475.419	5071.62
475.628	5384.96
475.838	5460.74
476.048	5200.65
476.258	5171.97
476.467	5821.18
476.677	5610.24
476.886	5573.38
477.096	5526.27
477.306	5567.23
477.515	6081.27
477.725	5636.86
477.935	5821.18
478.144	6363.89
478.354	5753.6
478.563	5966.59
478.773	5843.71
478.982	6345.46
479.192	6527.73
479.401	6208.25
479.611	5866.24
479.82	6275.83
480.03	6595.31
480.239	6169.34
480.449	6468.34
480.658	7154.41
480.868	6746.86
481.077	6697.71
481.287	6550.26
481.496	7045.87
481.705	7271.14
481.915	7097.07
482.124	7086.83
482.333	7469.8
482.543	7572.19
482.752	7037.67
482.961	7119.59
483.171	7619.3
483.38	7324.39
483.589	7336.68
483.799	7426.79
484.008	7588.58
484.217	7953.12
484.426	7494.37
484.636	7504.61
484.845	8045.27
485.054	7576.29
485.263	7967.45
485.472	7918.3
485.682	8413.91
485.891	8159.96
486.1	7715.55
486.309	7981.79
486.518	8340.18
486.727	8606.42
486.936	8075.99
487.146	8461.01
487.355	9065.16
487.564	8356.57
487.773	8391.38
487.982	8534.74
488.191	8536.79
488.4	8817.36
488.609	8549.07
488.818	8651.47
489.027	9609.92
489.236	9448.13
489.445	8784.59
489.654	8817.36
489.863	9401.03
490.072	9190.09
490.281	9421.51
490.49	9216.71
490.698	9800.38
490.907	9978.56
491.116	9444.04
491.325	9403.08
491.534	9732.8
491.743	9851.58
491.952	9685.7
492.16	9700.03
492.369	10087.1
492.578	10252.98
492.787	9833.15
492.996	9591.49
493.204	9888.45
493.413	10709.68
493.622	9857.73
493.831	9761.47
494.039	10795.7
494.248	10070.72
494.457	10371.77
494.665	10068.67
494.874	10568.37
495.083	11197.1
495.291	10429.11
495.5	10306.23
495.709	10752.69
495.917	10717.87
496.126	10642.1
496.335	10554.04
496.543	10816.18
496.752	11129.52
496.96	11162.28
497.169	10693.3
497.377	11193
497.586	11307.69
497.794	11125.42
498.003	10752.69
498.211	11424.42
498.42	11645.6
498.628	11408.04
498.837	11201.19
499.045	11489.96
499.254	11702.95
499.462	11410.09
499.671	11532.97
499.879	12161.69
500.087	12071.58
500.296	11338.41
500.504	11674.28
500.713	12122.78
500.921	12454.55
501.129	11633.32
501.338	11639.46
501.546	12401.3
501.754	12243.61
501.962	11758.24
502.171	11844.26
502.379	12612.24
502.587	12817.04
502.795	12161.69
503.004	12169.88
503.212	12397.21
503.42	12667.54
503.628	12645.01
503.837	12479.13
504.045	12915.34
504.253	13036.17
504.461	12532.37
504.669	12188.32
504.877	13120.14
505.085	13279.88
505.294	12599.96
505.502	12784.27
505.71	12962.45
505.918	13005.45
506.126	12714.64
506.334	12636.82
506.542	13097.61
506.75	13081.23
506.958	12937.87
507.166	13025.93
507.374	13036.17
507.582	13867.65
507.79	13347.47
507.998	13122.19
508.206	13468.3
508.414	13472.39
508.622	13499.02
508.83	13218.44
509.037	13957.76
509.245	13472.39
509.453	13271.69
509.661	13525.64
509.869	14115.45
510.077	13527.69
510.285	13392.52
510.492	13214.35
510.7	14668.41
510.908	13621.89
511.116	13705.86
511.324	13718.15
511.531	13884.03
511.739	14099.07
511.947	13931.14
512.155	14246.52
512.362	14340.73
512.57	13849.22
512.778	13791.87
512.985	13888.13
513.193	14318.2
513.401	14586.49
513.608	14088.83
513.816	14187.13
514.024	14533.24
514.231	14828.15
514.439	14107.26
514.646	14432.89
514.854	14887.54
515.061	14926.45
515.269	14504.57
515.477	14510.71
515.684	14600.82
515.892	15207.02
516.099	14264.96
516.307	14283.39
516.514	15104.62
516.722	15413.87
516.929	14815.86
517.136	14838.39
517.344	15286.89
517.551	15360.62
517.759	14779
517.966	15104.62
518.173	15288.94
518.381	15229.55
518.588	14998.13
518.796	14955.12
519.003	15606.38
519.21	15182.45
519.418	14987.89
519.625	15585.9
519.832	15520.36
520.039	15575.66
520.247	15198.83
520.454	15379.05
520.661	15884.9
520.868	15831.65
521.076	15710.82
521.283	15727.21
521.49	16448.09
521.697	15962.72
521.904	15727.21
522.112	15663.72
522.319	16263.77
522.526	16067.17
522.733	15813.22
522.94	15653.48
523.147	16046.69
523.354	16497.24
523.561	16061.02
523.768	16124.51
523.975	16673.37
524.183	16538.2
524.39	16417.37
524.597	16167.52
524.804	16515.67
525.011	16417.37
525.218	16112.22
525.425	16288.35
525.632	16978.51
525.838	16829.01
526.045	16183.9
526.252	16415.32
526.459	18037.31
526.666	17945.16
526.873	16634.46
527.08	16683.61
527.287	17482.31
527.494	16980.56
527.701	17105.49
527.907	16699.99
528.114	17332.81
528.321	17361.48
528.528	17226.32
528.735	17304.14
528.941	17121.87
529.148	17025.62
529.355	16976.47
529.562	16929.36
529.768	17881.67
529.975	17189.46
530.182	17125.97
530.388	17173.07
530.595	17607.24
530.802	17369.68
531.008	17666.63
531.215	17484.36
531.422	18448.96
531.628	18604.6
531.835	17769.03
532.042	17941.06
532.248	17930.82
532.455	17998.4
532.661	17795.65
532.868	17832.52
533.074	17965.64
533.281	18420.28
533.487	18098.75
533.694	17893.96
533.9	18231.87
534.107	18518.59
534.313	18321.98
534.52	18139.71
534.726	18942.52
534.933	18899.51
535.139	18152
535.345	18178.62
535.552	18590.27
535.758	18862.65
535.965	18745.91
536.171	18524.73
536.377	18973.24
536.584	19243.57
536.79	18518.59
536.996	19206.7
537.203	19065.39
537.409	18788.92
537.615	18772.53
537.821	18620.99
538.028	19399.21
538.234	19288.62
538.44	18842.17
538.646	19063.35
538.853	19890.73
539.059	18876.98
539.265	19946.02
539.471	18973.24
539.677	19661.35
539.883	19569.19
540.09	19360.3
540.296	19755.56
540.502	19518
540.708	19255.86
540.914	19706.41
541.12	19536.43
541.326	20054.56
541.532	19937.83
541.738	19954.21
541.944	20062.76
542.15	20435.49
542.356	20152.87
542.562	20245.02
542.768	19911.21
542.974	20869.65
543.18	20638.23
543.386	20161.06
543.592	20103.71
543.798	20896.28
544.004	20810.26
544.21	20367.9
544.415	20513.31
544.621	20851.22
544.827	20591.13
545.033	20251.17
545.239	20554.27
545.445	20703.77
545.651	20873.75
545.856	20343.33
546.062	20683.29
546.268	20931.09
546.474	20955.67
546.679	20382.24
546.885	20793.88
547.091	20918.81
547.297	21441.04
547.502	20709.91
547.708	20320.8
547.914	20556.32
548.119	21352.98
548.325	20785.69
548.531	20503.07
548.736	21352.98
548.942	20900.37
549.147	20783.64
549.353	21357.07
549.559	21504.53
549.764	21252.63
549.97	20998.68
550.175	20759.06
550.381	21561.87
550.586	21004.82
550.792	21297.68
550.997	21111.32
551.203	21758.47
551.408	21875.21
551.614	21406.22
551.819	21533.2
552.025	22135.3
552.23	22309.38
552.435	21518.86
552.641	22249.99
552.846	22039.05
553.052	22585.85
553.257	21746.19
553.462	21799.43
553.668	21912.07
553.873	22538.75
554.078	22143.49
554.283	22020.61
554.489	22526.46
554.694	22733.31
554.899	22077.96
555.105	22557.18
555.31	22682.11
555.515	22569.47
555.72	22426.11
555.925	22057.48
556.131	22589.95
556.336	22381.06
556.541	22493.69
556.746	22374.91
556.951	22825.47
557.156	22921.72
557.361	22397.44
557.567	22936.06
557.772	23357.94
557.977	22847.99
558.182	22299.14
558.387	22659.58
558.592	22811.13
558.797	23194.1
559.002	22856.18
559.207	23077.37
559.412	23161.33
559.617	23747.05
559.822	22968.82
560.027	22995.45
560.232	23300.59
560.437	23620.08
560.642	22665.72
560.847	22977.01
561.051	23167.48
561.256	23142.9
561.461	23263.73
561.666	22991.35
561.871	23382.51
562.076	23423.47
562.281	23110.13
562.485	22960.63
562.69	23839.21
562.895	23726.57
563.1	23153.14
563.305	23364.08
563.509	23843.31
563.714	24371.68
563.919	23280.11
564.123	23273.97
564.328	23718.38
564.533	23988.71
564.737	23415.28
564.942	23228.91
565.147	24185.32
565.351	24517.09
565.556	23499.25
565.761	23704.04
565.965	24084.97
566.17	23806.44
566.374	23771.63
566.579	23808.49
566.784	23925.22
566.988	24156.64
567.193	23914.98
567.397	24062.44
567.602	23931.37
567.806	24189.41
568.011	23949.8
568.215	24426.98
568.42	23962.09
568.624	24506.85
568.828	23964.14
569.033	24392.16
569.237	24658.4
569.442	24768.99
569.646	24009.19
569.85	24320.48
570.055	24936.92
570.259	24762.84
570.463	24803.8
570.668	24404.45
570.872	24459.74
571.076	24748.51
571.281	24447.46
571.485	24928.73
571.689	24758.75
571.893	25164.25
572.098	24750.56
572.302	24502.75
572.506	25049.56
572.71	25209.3
572.914	24599.01
573.119	24791.52
573.323	25264.6
573.527	25397.71
573.731	25018.84
573.935	25264.6
574.139	25340.37
574.343	24902.11
574.547	25018.84
574.751	25317.84
574.955	25657.81
575.159	25721.29
575.364	25213.4
575.568	24947.16
575.772	24977.88
575.976	25815.5
576.18	24971.74
576.383	25192.92
576.587	26014.15
576.791	25870.79
576.995	25250.26
577.199	25139.67
577.403	25887.18
577.607	26237.38
577.811	25575.89
578.015	25491.92
578.219	26036.68
578.422	25897.42
578.626	25627.09
578.83	25823.69
579.034	26059.21
579.238	26100.17
579.442	25817.55
579.645	25887.18
579.849	26094.02
580.053	26456.51
580.257	25618.89
580.46	25989.58
580.664	26182.09
580.868	26601.92
581.071	26048.97
581.275	26182.09
581.479	25706.96
581.682	26366.4
581.886	26008.01
582.09	26347.97
582.293	26667.45
582.497	26583.49
582.7	26360.26
582.904	26440.13
583.107	26466.75
583.311	26429.89
583.515	26558.91
583.718	26495.43
583.922	27062.71
584.125	27066.81
584.329	26132.93
584.532	26655.17
584.735	27177.4
584.939	27285.94
585.142	26284.48
585.346	26597.82
585.549	27165.11
585.753	27122.1
585.956	27240.89
586.159	27298.23
586.363	27808.17
586.566	27670.96
586.769	26896.83
586.973	26829.24
587.176	27623.86
587.379	27820.46
587.582	27290.04
587.786	27208.12
587.989	27425.2
588.192	28119.46
588.395	27371.96
588.599	27568.56
588.802	27929
589.005	27627.95
589.208	27371.96
589.411	27576.75
589.615	27812.27
589.818	28187.05
590.021	27810.22
590.224	27740.59
590.427	28203.43
590.63	28195.24
590.833	27650.48
591.036	27773.36
591.239	27955.63
591.442	27937.2
591.645	27910.57
591.848	27912.62
592.051	28522.91
592.254	28316.07
592.457	28240.29
592.66	28045.74
592.863	28326.31
593.066	28711.33
593.269	27935.15
593.472	28019.11
593.675	28514.72
593.878	28596.64
594.081	28254.63
594.284	28062.12
594.486	28768.67
594.689	28656.03
594.892	28361.12
595.095	28754.33
595.298	28737.95
595.5	28514.72
595.703	28840.35
595.906	28936.6
596.109	29268.37
596.311	29419.92
596.514	28742.05
596.717	28836.25
596.92	29516.18
597.122	29440.4
597.325	28459.43
597.528	28836.25
597.73	29555.09
597.933	28871.07
598.136	28883.36
598.338	28783.01
598.541	29618.58
598.743	29784.46
598.946	29030.81
599.148	29333.91
599.351	29960.59
599.554	29575.57
599.756	29735.31
599.959	29505.94
600.161	29503.89
600.363	30253.45
600.566	29516.18
600.768	29421.97
600.971	30263.69
601.173	29933.96
601.376	29542.8
601.578	29643.15
601.78	30206.34
601.983	30269.83
602.185	29249.94
602.388	29831.57
602.59	29985.16
602.792	29856.14
602.995	29757.84
603.197	29370.77
603.399	30245.26
603.601	30130.57
603.804	29446.55
604.006	29731.22
604.208	29563.28
604.41	29327.77
604.613	29852.05
604.815	29993.36
605.017	30587.27
605.219	29956.49
605.421	30122.38
605.623	29628.82
605.826	30595.46
606.028	30583.17
606.23	29960.59
606.432	29616.53
606.634	30488.96
606.836	30599.55
607.038	29850
607.24	30259.59
607.442	30513.54
607.644	30634.37
607.846	30171.53
608.048	29852.05
608.25	30577.03
608.452	30122.38
608.654	30310.79
608.856	30118.28
609.058	30331.27
609.26	30505.35
609.462	30134.67
609.664	30478.72
609.866	30771.58
610.067	30781.82
610.269	30636.42
610.471	30114.19
610.673	30560.64
610.875	30767.49
611.077	29964.68
611.278	30527.88
611.48	30429.57
611.682	30878.08
611.884	30708.1
612.085	30275.98
612.287	30607.75
612.489	30515.59
612.69	30245.26
612.892	30560.64
613.094	31023.48
613.295	30822.78
613.497	30318.98
613.699	30427.53
613.9	31003
614.102	31011.2
614.304	30364.04
614.505	30144.91
614.707	30908.8
614.908	30749.06
615.11	30288.26
615.311	30515.59
615.513	30738.82
615.714	31426.93
615.916	30515.59
616.117	30585.22
616.319	30908.8
616.52	30888.32
616.722	30810.5
616.923	30843.26
617.124	31021.44
617.326	30665.09
617.527	30654.85
617.729	31109.5
617.93	30722.43
618.131	31150.46
618.333	30556.55
618.534	30988.67
618.735	30572.93
618.937	31402.36
619.138	30294.41
619.339	30310.79
619.54	30980.48
619.742	30818.69
619.943	30734.72
620.144	30609.79
620.345	31459.7
620.546	31207.8
620.748	30798.21
620.949	30720.38
621.15	31379.83
621.351	30957.95
621.552	31195.51
621.753	30826.88
621.954	31277.43
622.155	31209.85
622.356	30986.62
622.558	30962.04
622.759	31537.52
622.96	31658.35
623.161	31244.66
623.362	30638.47
623.563	31228.28
623.764	31191.42
623.965	31117.69
624.166	31418.74
624.366	30896.51
624.567	31486.32
624.768	30859.65
624.969	30986.62
625.17	31316.34
625.371	31482.23
625.572	30798.21
625.773	30962.04
625.973	31641.97
626.174	31818.1
626.375	31269.24
626.576	31113.59
626.777	31596.92
626.977	31666.55
627.178	31134.07
627.379	31058.3
627.58	31033.72
627.78	31752.56
627.981	31461.75
628.182	31359.35
628.382	31531.38
628.583	31158.65
628.784	31058.3
628.984	30914.94
629.185	31625.59
629.386	31703.41
629.586	31496.56
629.787	31377.78
629.987	31703.41
630.188	31465.85
630.388	31259
630.589	31515
630.79	32385.38
630.99	31584.63
631.191	31623.54
631.391	31617.39
631.591	31715.7
631.792	32024.94
631.992	31754.61
632.193	31719.79
632.393	32344.42
632.594	31682.93
632.794	31422.84
632.994	31869.3
633.195	31930.73
633.395	31918.45
633.595	31551.86
633.796	31979.89
633.996	31940.97
634.196	32084.33
634.397	31568.24
634.597	31670.64
634.797	31936.88
634.997	32446.82
635.198	31834.48
635.398	31492.47
635.598	32364.9
635.798	32446.82
635.998	32078.19
636.199	31486.32
636.399	32178.54
636.599	31658.35
636.799	32143.72
636.999	31752.56
637.199	32465.25
637.399	32899.42
637.599	31799.66
637.799	31871.34
637.999	31900.01
638.199	32672.1
638.399	31969.65
638.599	31787.38
638.799	32559.46
638.999	33069.4
639.199	32686.43
639.399	32524.65
639.599	32698.72
639.799	32072.04
639.999	32498.02
640.199	32147.82
640.399	32645.48
640.599	31920.49
640.799	32227.69
640.998	32526.69
641.198	32514.41
641.398	32229.74
641.598	32702.82
641.798	32534.88
641.997	33362.26
642.197	32504.17
642.397	32645.48
642.597	32387.43
642.796	32668
642.996	32999.77
643.196	32756.07
643.395	32141.67
643.595	32885.09
643.795	32336.23
643.994	32418.15
644.194	32719.2
644.394	33171.8
644.593	32987.49
644.793	32782.69
644.992	33184.09
645.192	32684.39
645.392	32412.01
645.591	33053.02
645.791	33161.56
645.99	33059.16
646.19	33161.56
646.389	32934.24
646.589	32518.5
646.788	33065.31
646.987	33143.13
647.187	32930.14
647.386	32917.86
647.586	32932.19
647.785	33304.92
647.984	33065.31
648.184	32979.29
648.383	32813.41
648.582	33098.08
648.782	33208.67
648.981	32629.09
649.18	32797.02
649.38	33261.91
649.579	33083.74
649.778	33024.35
649.977	33479
650.177	33349.98
650.376	32870.75
650.575	32551.27
650.774	33294.68
650.973	32856.42
651.173	32643.43
651.372	32903.52
651.571	33358.17
651.77	33526.1
651.969	32993.63
652.168	33339.74
652.367	33093.98
652.566	33677.65
652.765	32885.09
652.964	33444.18
653.163	33450.33
653.362	33544.53
653.561	33104.22
653.76	33626.45
653.959	33292.63
654.158	33866.06
654.357	33653.08
654.556	33114.46
654.755	33593.68
654.954	33505.62
655.153	33223
655.352	33366.36
655.551	33919.31
655.749	33464.66
655.948	33440.09
656.147	33677.65
656.346	33859.92
656.545	33659.22
656.743	33534.29
656.942	33180
657.141	33653.08
657.34	33419.61
657.538	33517.91
657.737	33595.73
657.936	34099.53
658.135	33681.75
658.333	33241.43
658.532	33655.12
658.731	34269.51
658.929	34009.42
659.128	33583.44
659.326	33605.97
659.525	33780.05
659.724	33495.38
659.922	33284.44
660.121	33237.34
660.319	33737.04
660.518	33433.94
660.716	33077.6
660.915	33782.1
661.113	34199.88
661.312	33497.43
661.51	33730.9
661.709	33823.06
661.907	33984.85
662.105	34103.63
662.304	33939.79
662.502	33927.5
662.701	34697.54
662.899	33829.2
663.097	34056.53
663.296	33841.49
663.494	34457.93
663.692	34502.98
663.891	33739.09
664.089	33268.06
664.287	33702.23
664.485	34007.37
664.684	33788.24
664.882	33702.23
665.08	33907.02
665.278	34064.72
665.476	33784.15
665.675	33679.7
665.873	33970.51
666.071	34367.82
666.269	33804.63
666.467	33739.09
666.665	33784.15
666.863	33687.89
667.061	34333
667.259	33640.79
667.457	34019.66
667.655	34316.62
667.853	33360.22
668.051	33575.25
668.249	33724.75
668.447	34179.4
668.645	33331.54
668.843	33720.66
669.041	34146.64
669.239	33798.48
669.437	33857.87
669.635	33702.23
669.833	33886.54
670.031	34068.81
670.229	33644.88
670.426	33710.42
670.624	33558.87
670.822	33407.32
671.02	33675.6
671.218	33636.69
671.415	33632.6
671.613	33827.15
671.811	33544.53
672.009	33661.27
672.206	33945.94
672.404	33929.55
672.602	33397.08
672.799	33704.28
672.997	34423.11
673.195	33837.39
673.392	33749.33
673.59	33225.05
673.788	33845.58
673.985	33358.17
674.183	33339.74
674.38	33096.03
674.578	33933.65
674.775	33315.16
674.973	32956.77
675.17	33216.86
675.368	33616.21
675.565	33956.18
675.763	33239.39
675.96	33157.47
676.158	33761.62
676.355	33026.4
676.553	33378.65
676.75	33298.78
676.947	33925.46
677.145	33304.92
677.342	33526.1
677.539	33392.98
677.737	33081.69
677.934	33530.2
678.131	33231.19
678.329	33237.34
678.526	33509.72
678.723	33796.43
678.92	33544.53
679.118	33114.46
679.315	32858.46
679.512	33952.08
679.709	33435.99
679.906	32934.24
680.104	33395.03
680.301	33732.95
680.498	32991.58
680.695	33124.7
680.892	32971.1
681.089	33161.56
681.286	33317.21
681.483	32739.68
681.68	33225.05
681.877	33167.71
682.075	33053.02
682.272	33364.31
682.469	33309.02
682.665	33354.07
682.862	32530.79
683.059	32874.85
683.256	33102.17
683.453	32934.24
683.65	32919.9
683.847	32897.38
684.044	33005.92
684.241	32594.28
684.438	32876.9
684.635	32414.05
684.831	33825.11
685.028	33366.36
685.225	32577.89
685.422	32555.36
685.619	32940.38
685.815	33016.16
686.012	32694.63
686.209	32397.67
686.405	32641.38
686.602	33286.49
686.799	32201.07
686.996	32508.26
687.192	32299.37
687.389	32921.95
687.586	32477.54
687.782	32762.21
687.979	33102.17
688.175	32973.15
688.372	32878.94
688.568	32371.05
688.765	31918.45
688.962	33085.79
689.158	32387.43
689.355	32119.15
689.551	32913.76
689.748	32493.93
689.944	32502.12
690.14	32205.16
690.337	32471.4
690.533	32522.6
690.73	32346.47
690.926	32565.6
691.123	32516.45
691.319	32352.62
691.515	32440.68
691.712	32080.24
691.908	32377.19
692.104	32084.33
692.301	32235.88
692.497	31916.4
692.693	32555.36
692.889	32674.15
693.086	32467.3
693.282	31525.24
693.478	32391.53
693.674	32598.37
693.87	31596.92
694.067	31676.79
694.263	32059.76
694.459	32405.86
694.655	32252.27
694.851	31969.65
695.047	32274.79
695.243	32831.84
695.439	32125.29
695.635	31828.34
695.831	32033.13
696.027	31971.69
696.224	31920.49
696.42	32104.81
696.615	32149.87
696.811	32113
697.007	31355.25
697.203	31811.95
697.399	31529.33
697.595	31953.26
697.791	31377.78
697.987	31283.58
698.183	31693.17
698.379	31480.18
698.575	31768.94
698.77	31697.27
698.966	31818.1
699.162	32203.11
699.358	31607.16
699.554	31646.07
699.749	31977.84
699.945	32121.2
700.141	31181.18
700.337	31584.63
700.532	31494.52
700.728	31457.65
700.924	31254.9
701.119	31099.26
701.315	31582.58
701.511	31453.56
701.706	31568.24
701.902	30798.21
702.097	31164.79
702.293	31476.09
702.489	31496.56
702.684	31109.5
702.88	31140.22
703.075	31369.59
703.271	31338.87
703.466	31242.62
703.662	31197.56
703.857	31592.82
704.053	31277.43
704.248	31404.41
704.443	31494.52
704.639	31725.94
704.834	31332.73
705.03	31334.78
705.225	31385.97
705.42	31611.25
705.616	31295.86
705.811	31224.18
706.006	31215.99
706.202	31265.14
706.397	30964.09
706.592	31146.36
706.787	31209.85
706.983	31046.01
707.178	31496.56
707.373	31125.88
707.568	31097.21
707.763	31414.65
707.959	30849.41
708.154	30974.33
708.349	31138.17
708.544	31390.07
708.739	31095.16
708.934	30429.57
709.129	31152.51
709.324	31019.39
709.519	30527.88
709.714	30480.77
709.909	31314.3
710.104	30765.44
710.299	30794.11
710.494	30609.79
710.689	31287.67
710.884	30828.93
711.079	30964.09
711.274	30478.72
711.469	31074.68
711.664	30759.3
711.859	30644.61
712.054	30904.7
712.249	30574.98
712.443	30994.81
712.638	30531.97
712.833	30036.36
713.028	30863.74
713.223	30534.02
713.417	30513.54
713.612	30345.61
713.807	31064.44
714.002	31302.01
714.196	30753.15
714.391	30312.84
714.586	30744.96
714.78	30210.44
714.975	30241.16
715.17	30196.1
715.364	30304.65
715.559	31050.11
715.754	29829.52
715.948	30001.55
716.143	30822.78
716.337	30593.41
716.532	30488.96
716.726	30185.86
716.921	30523.78
717.115	30767.49
717.31	30046.6
717.504	30824.83
717.699	30359.94
717.893	30564.74
718.088	29675.92
718.282	29968.78
718.476	30132.62
718.671	29915.53
718.865	29962.64
719.059	29639.06
719.254	29991.31
719.448	30345.61
719.642	30083.47
719.837	29565.33
720.031	30306.69
720.225	30003.6
720.419	30026.12
720.614	29548.95
720.808	30138.76
721.002	29878.67
721.196	29505.94
721.39	29723.02
721.585	30159.24
721.779	29520.27
721.973	29503.89
722.167	29067.67
722.361	29864.33
722.555	29700.5
722.749	29405.59
722.943	29325.72
723.137	29106.59
723.331	29718.93
723.525	29616.53
723.719	29452.69
723.913	30099.85
724.107	29907.34
724.301	29043.1
724.495	29333.91
724.689	29997.45
724.883	29612.43
725.077	29378.97
725.271	29211.03
725.465	29383.06
725.659	29295
725.853	29069.72
726.046	28891.55
726.24	29051.29
726.434	29270.42
726.628	29145.5
726.822	28979.61
727.015	29798.8
727.209	29479.32
727.403	29403.54
727.596	28885.4
727.79	29614.48
727.984	29847.95
728.177	29049.24
728.371	29366.68
728.565	29538.71
728.758	29090.2
728.952	29303.19
729.146	28975.52
729.339	29856.14
729.533	29331.86
729.726	29362.58
729.92	29264.28
730.113	29673.87
730.307	29575.57
730.5	29184.41
730.694	29045.15
730.887	29178.26
731.081	29454.74
731.274	29161.88
731.468	29049.24
731.661	29053.34
731.854	28905.88
732.048	28694.94
732.241	28764.57
732.435	29276.57
732.628	29624.72
732.821	29170.07
733.014	29051.29
733.208	28938.65
733.401	29870.48
733.594	29055.39
733.788	28727.71
733.981	29499.8
734.174	29153.69
734.367	29065.63
734.56	29184.41
734.754	29729.17
734.947	29073.82
735.14	29039
735.333	29368.73
735.526	29456.79
735.719	28885.4
735.912	28995.99
736.105	28989.85
736.298	29254.04
736.491	29217.18
736.684	28572.07
736.877	29053.34
737.07	29155.74
737.263	29147.54
737.456	28766.62
737.649	28592.55
737.842	28871.07
738.035	29176.22
738.228	28594.59
738.421	28776.86
738.614	29397.4
738.807	28991.9
739	28606.88
739.192	28367.27
739.385	28930.46
739.578	28952.99
739.771	28963.23
739.964	28318.12
740.156	29098.39
740.349	28555.68
740.542	28979.61
740.735	28490.15
740.927	28758.43
741.12	28533.15
741.313	28324.26
741.505	28748.19
741.698	28441
741.891	28852.64
742.083	28414.37
742.276	28563.87
742.468	28832.16
742.661	28586.4
742.854	28441
743.046	28348.84
743.239	29059.48
743.431	28527.01
743.624	28354.98
743.816	28551.59
744.009	28826.01
744.201	28785.05
744.393	28492.19
744.586	28397.99
744.778	28801.44
744.971	28361.12
745.163	28156.33
745.355	28479.91
745.548	28383.65
745.74	28383.65
745.932	28449.19
746.125	28361.12
746.317	29174.17
746.509	28281.25
746.702	28326.31
746.894	28004.78
747.086	28379.56
747.278	28950.94
747.471	28369.32
747.663	28297.64
747.855	28524.96
748.047	28731.81
748.239	28033.45
748.431	28215.72
748.623	28903.84
748.815	28643.74
749.008	28287.4
749.2	28215.72
749.392	28481.95
749.584	28185
749.776	28385.7
749.968	28123.56
750.16	28711.33
750.352	28211.62
750.544	27888.04
750.736	27838.89
750.928	28694.94
751.12	28412.32
751.311	27552.18
751.503	28168.62
751.695	28406.18
751.887	28094.89
752.079	27546.03
752.271	27597.23
752.463	28717.47
752.654	28174.76
752.846	28115.37
753.038	27679.15
753.23	27693.49
753.421	27924.91
753.613	27586.99
753.805	28033.45
753.997	28221.86
754.188	28019.11
754.38	27392.44
754.572	27572.66
754.763	27599.28
754.955	27947.43
755.146	27398.58
755.338	27693.49
755.53	27359.67
755.721	27666.86
755.913	27310.52
756.104	27165.11
756.296	27529.65
756.487	27697.58
756.679	27318.71
756.87	26894.78
757.062	27412.92
757.253	27560.37
757.445	27128.25
757.636	27210.17
757.827	27396.53
758.019	28350.88
758.21	26843.58
758.401	26966.46
758.593	27546.03
758.784	27421.11
758.975	26737.09
759.167	26694.08
759.358	27369.91
759.549	27353.52
759.74	26780.09
759.932	27003.32
760.123	27265.46
760.314	27046.33
760.505	26720.7
760.696	26081.74
760.888	27218.36
761.079	26995.13
761.27	26321.35
761.461	26378.69
761.652	27421.11
761.843	26778.04
762.034	26526.14
762.225	26823.1
762.416	26825.15
762.607	26501.57
762.798	26096.07
762.989	26323.4
763.18	27107.77
763.371	26341.83
763.562	26051.02
763.753	26268.1
763.944	27031.99
764.135	26620.35
764.326	26507.71
764.517	25915.85
764.708	26567.1
764.899	26165.7
765.089	26124.74
765.28	25713.1
765.471	26304.96
765.662	26188.23
765.853	25651.66
766.043	25893.32
766.234	26698.17
766.425	26151.37
766.615	26038.73
766.806	25760.2
766.997	26364.36
767.187	25608.65
767.378	25616.85
767.569	25358.8
767.759	25711.05
767.95	26081.74
768.141	25762.25
768.331	25461.2
768.522	25543.12
768.712	26261.96
768.903	25774.54
769.093	25442.77
769.284	25928.14
769.474	25344.47
769.665	25227.73
769.855	25031.13
770.046	25674.19
770.236	25412.05
770.426	25272.79
770.617	25135.57
770.807	25436.63
770.998	25422.29
771.188	25061.85
771.378	25029.08
771.569	25459.15
771.759	25180.63
771.949	24619.49
772.139	24797.66
772.33	25244.12
772.52	25545.17
772.71	24361.44
772.9	24799.71
773.09	25274.84
773.281	25145.81
773.471	24721.88
773.661	24633.82
773.851	25323.99
774.041	24748.51
774.231	24619.49
774.421	24703.45
774.611	24945.11
774.802	24584.67
774.992	24523.23
775.182	24238.56
775.372	24826.33
775.562	25133.53
775.752	24119.78
775.942	24105.45
776.131	24994.26
776.321	24488.42
776.511	24275.43
776.701	24087.01
776.891	24678.88
777.081	24224.23
777.271	23970.28
777.461	24228.32
777.651	24449.5
777.84	24596.96
778.03	23988.71
778.22	23802.35
778.41	24609.25
778.599	23962.09
778.789	23775.72
778.979	23970.28
779.169	24426.98
779.358	23849.45
779.548	24412.64
779.738	23839.21
779.927	23826.92
780.117	23855.59
780.307	23478.77
780.496	23437.81
780.686	23937.51
780.875	24179.17
781.065	23517.68
781.254	23230.96
781.444	23517.68
781.633	23716.33
781.823	23220.72
782.012	23093.75
782.202	23593.45
782.391	23433.71
782.581	23060.98
782.77	23521.77
782.96	23814.63
783.149	23001.59
783.338	22827.51
783.528	23013.88
783.717	23781.87
783.906	23695.85
784.096	23040.5
784.285	23071.22
784.474	23101.94
784.663	22995.45
784.853	23063.03
785.042	22974.97
785.231	23009.78
785.42	23497.2
785.61	22927.86
785.799	22991.35
785.988	23194.1
786.177	22956.54
786.366	23046.65
786.555	22753.79
786.744	23048.69
786.933	22880.76
787.122	22700.54
787.312	22508.03
787.501	22690.3
787.69	23013.88
787.879	22620.67
788.068	22258.18
788.257	22569.47
788.445	22485.5
788.634	22501.89
788.823	22229.51
789.012	23271.92
789.201	23081.46
789.39	22143.49
789.579	22008.33
789.768	22391.3
789.957	22391.3
790.145	22233.6
790.334	22020.61
790.523	22309.38
790.712	22131.2
790.9	22460.93
791.089	21887.5
791.278	22645.24
791.467	22184.45
791.655	22479.36
791.844	22700.54
792.033	21774.86
792.221	21987.85
792.41	22262.27
792.599	21578.25
792.787	22213.12
792.976	22262.27
793.164	21551.63
793.353	22186.5
793.541	22219.27
793.73	22374.91
793.918	22082.05
794.107	22020.61
794.295	21967.37
794.484	22178.31
794.672	21297.68
794.861	21494.29
795.049	21867.02
795.238	22219.27
795.426	21449.23
795.614	21766.67
795.803	21680.65
795.991	22004.23
796.179	21492.24
796.368	21627.4
796.556	22032.9
796.744	21213.71
796.932	21279.25
797.121	21418.51
797.309	21586.44
797.497	21883.4
797.685	21598.73
797.874	21375.5
798.062	21488.14
798.25	21357.07
798.438	21570.06
798.626	21166.61
798.814	21568.01
799.002	22041.09
799.19	21271.06
799.378	21148.18
799.566	21627.4
799.755	21635.6
799.943	21303.82
800.131	21338.64
800.318	21402.13
800.506	21723.66
800.694	21117.46
800.882	21211.67
801.07	21737.99
801.258	21477.9
801.446	21254.67
801.634	21400.08
801.822	21494.29
802.01	21750.28
802.197	21293.58
802.385	21576.2
802.573	21475.85
802.761	21473.81
802.949	21525
803.136	21217.81
803.324	21897.74
803.512	21860.87
803.699	21539.34
803.887	21490.19
804.075	22012.42
804.262	21533.2
804.45	21185.04
804.638	21504.53
804.825	21682.7
805.013	21750.28
805.201	21559.82
805.388	21371.41
805.576	21715.47
805.763	22292.99
805.951	21269.01
806.138	21420.56
806.326	22030.85
806.513	21801.48
806.701	21422.61
806.888	21447.18
807.075	21840.39
807.263	22372.86
807.45	21408.27
807.638	21285.39
807.825	22743.55
808.012	22063.62
808.2	21438.99
808.387	22018.57
808.574	22088.2
808.761	22401.54
808.949	21832.2
809.136	21889.54
809.323	21819.91
809.51	21750.28
809.698	21795.34
809.885	21729.8
810.072	22047.24
810.259	22249.99
810.446	21611.02
810.633	21545.48
810.82	22231.55
811.008	22407.68
811.195	21801.48
811.382	21555.72
811.569	22039.05
811.756	21510.67
811.943	22100.48
812.13	21834.25
812.317	21660.17
812.504	21731.85
812.691	21879.3
812.878	22055.43
813.064	22176.26
813.251	21981.7
813.438	21787.14
813.625	21772.81
813.812	21672.46
813.999	21862.92
814.186	21666.31
814.372	21942.79
814.559	21748.23
814.746	21965.32
814.933	21641.74
815.12	22147.59
815.306	22145.54
815.493	21678.6
815.68	21830.15
815.866	21717.51
816.053	22254.08
816.24	22426.11
816.426	21664.27
816.613	21531.15
816.799	21996.04
816.986	22233.6
817.173	21465.61
817.359	21406.22
817.546	21981.7
817.732	21643.79
817.919	21463.57
818.105	21901.83
818.292	21600.78
818.478	21922.31
818.665	21862.92
818.851	21817.86
819.037	22307.33
819.224	21848.58
819.41	21467.66
819.597	21510.67
819.783	22182.4
819.969	21891.59
820.156	21600.78
820.342	21338.64
820.528	22403.58
820.714	21324.3
820.901	21555.72
821.087	21352.98
821.273	22022.66
821.459	21357.07
821.646	21246.48
821.832	21144.08
822.018	21817.86
822.204	21531.15
822.39	21316.11
822.576	21279.25
822.762	21430.8
822.948	21484.05
823.134	21135.89
823.32	20869.65
823.507	21086.74
823.693	21877.26
823.879	21588.49
824.065	21264.91
824.25	21340.69
824.436	21082.64
824.622	20959.77
824.808	21029.4
824.994	21303.82
825.18	20771.35
825.366	21142.03
825.552	20982.29
825.738	21199.38
825.923	21305.87
826.109	21002.77
826.295	20873.75
826.481	20847.13
826.667	21137.94
826.852	21060.12
827.038	20636.19
827.224	21608.97
827.409	21418.51
827.595	20863.51
827.781	20894.23
827.966	21191.19
828.152	21045.78
828.338	20920.85
828.523	20255.26
828.709	20806.17
828.894	21121.56
829.08	20945.43
829.266	20505.12
829.451	20609.56
829.637	20998.68
829.822	20541.98
830.008	20257.31
830.193	20859.42
830.378	20937.24
830.564	20365.85
830.749	20322.85
830.935	20738.58
831.12	20564.51
831.305	20255.26
831.491	20331.04
831.676	20089.38
831.861	20562.46
832.047	20437.53
832.232	20283.94
832.417	20904.47
832.602	20122.15
832.788	20326.94
832.973	20107.81
833.158	20304.42
833.343	20267.55
833.528	20171.3
833.714	20415.01
833.899	20472.35
834.084	20716.06
834.269	20218.4
834.454	19968.55
834.639	20458.01
834.824	20363.81
835.009	19941.93
835.194	19917.35
835.379	20171.3
835.564	20032.04
835.749	20017.7
835.934	19687.98
836.119	19597.87
836.304	19702.31
836.489	19614.25
836.674	19724.84
836.859	19407.41
837.044	20224.54
837.228	19481.13
837.413	19126.83
837.598	20019.75
837.783	19970.6
837.968	19561
838.152	19251.76
838.337	19292.72
838.522	20025.89
838.707	20107.81
838.891	19579.43
839.076	19804.71
839.261	20023.84
839.445	19157.55
839.63	19241.52
839.815	19536.43
839.999	19302.96
840.184	18985.52
840.368	19049.01
840.553	19429.93
840.737	19685.93
840.922	19032.63
841.106	18975.28
841.291	18983.48
841.475	19319.34
841.66	18983.48
841.844	18991.67
842.029	20085.28
842.213	18833.97
842.397	18719.29
842.582	18432.57
842.766	19470.89
842.951	19034.67
843.135	18760.25
843.319	18969.14
843.504	18872.89
843.688	19124.79
843.872	18428.48
844.056	18524.73
844.241	19110.45
844.425	18922.04
844.609	18727.48
844.793	18612.79
844.977	19348.01
845.161	18756.15
845.346	18248.25
845.53	18637.37
845.714	18948.66
845.898	19221.04
846.082	18577.98
846.266	18588.22
846.45	18786.87
846.634	18618.94
846.818	18258.49
847.002	18502.2
847.186	18823.73
847.37	18399.8
847.554	18178.62
847.738	18455.1
847.922	18565.69
848.106	18752.06
848.29	17687.11
848.473	17984.07
848.657	18389.56
848.841	18358.85
849.025	17863.24
849.209	17998.4
849.392	18448.96
849.576	18508.35
849.76	17726.02
849.944	18031.17
850.127	18635.32
850.311	17629.77
850.495	17365.58
850.678	17601.1
850.862	18463.29
851.046	18649.66
851.229	17781.32
851.413	17875.52
851.596	18129.47
851.78	18131.52
851.964	17623.62
852.147	17764.93
852.331	18711.1
852.514	18059.84
852.698	17680.97
852.881	17392.2
853.065	18168.38
853.248	17797.7
853.431	17492.55
853.615	17619.53
853.798	18508.35
853.982	18080.32
854.165	17613.38
854.348	17357.39
854.532	17441.36
854.715	17683.02
854.898	17541.71
855.081	17320.53
855.265	17783.37
855.448	17705.54
855.631	16990.8
855.814	17238.61
855.997	17592.9
856.181	17433.16
856.364	17609.29
856.547	16943.7
856.73	17330.76
856.913	17662.54
857.096	17166.93
857.279	17177.17
857.462	17265.23
857.645	17472.07
857.828	17042
858.011	17093.2
858.194	17162.83
858.377	17183.31
858.56	16634.46
858.743	17087.06
858.926	16693.85
859.109	17252.94
859.292	16781.91
859.475	16503.39
859.658	17263.18
859.841	16829.01
860.023	16616.02
860.206	16390.75
860.389	16841.3
860.572	17308.24
860.755	16437.85
860.937	16489.05
861.12	16736.85
861.303	16892.5
861.486	16564.82
861.668	16290.4
861.851	16882.26
862.034	16912.98
862.216	16484.95
862.399	16104.03
862.581	16622.17
862.764	16734.81
862.947	16218.72
863.129	16423.51
863.312	16466.52
863.494	16859.73
863.677	16188
863.859	16026.21
864.042	16519.77
864.224	16786.01
864.406	16362.08
864.589	15741.54
864.771	16357.98
864.954	15899.23
865.136	15831.65
865.318	15700.58
865.501	16278.11
865.683	15553.13
865.865	16101.98
866.048	15870.56
866.23	15893.09
866.412	16024.16
866.594	15379.05
866.777	15860.32
866.959	16378.46
867.141	15702.63
867.323	15794.79
867.505	15704.68
867.687	16007.78
867.869	15837.8
868.052	15663.72
868.234	15600.23
868.416	15970.91
868.598	16007.78
868.78	15526.5
868.962	15344.24
869.144	16231.01
869.326	15975.01
869.508	15352.43
869.69	15633
869.872	15407.72
870.054	16081.5
870.236	15315.56
870.417	15483.5
870.599	15563.37
870.781	15987.3
870.963	15923.81
871.145	15286.89
871.327	15489.64
871.508	15856.23
871.69	15493.74
871.872	15501.93
872.054	15553.13
872.235	15891.04
872.417	15440.49
872.599	15366.76
872.78	16114.27
872.962	15829.6
873.144	15260.27
873.325	15475.31
873.507	15917.67
873.689	15528.55
873.87	15385.19
874.052	15655.53
874.233	15676.01
874.415	15774.31
874.596	15411.82
874.778	15321.71
874.959	15630.95
875.141	15633
875.322	15288.94
875.503	15086.19
875.685	15719.01
875.866	15172.21
876.048	15211.12
876.229	15276.65
876.41	15481.45
876.592	15694.44
876.773	15280.75
876.954	15051.38
877.136	15751.78
877.317	15370.86
877.498	15229.55
877.679	15290.99
877.86	15884.9
878.042	15573.61
878.223	15184.49
878.404	15600.23
878.585	15706.73
878.766	15921.76
878.947	15764.07
879.128	15381.1
879.309	15702.63
879.49	15915.62
879.672	15204.97
879.853	15483.5
880.034	15422.06
880.215	15784.55
880.396	15774.31
880.576	15366.76
880.757	15538.79
880.938	15905.38
881.119	15618.66
881.3	15506.02
881.481	15696.49
881.662	16501.34
881.843	15633
882.023	15753.83
882.204	16239.2
882.385	16210.53
882.566	15587.94
882.747	15616.62
882.927	16034.4
883.108	16108.13
883.289	15778.4
883.469	15833.7
883.65	15950.43
883.831	16134.75
884.011	16073.31
884.192	15948.39
884.373	16282.2
884.553	16355.93
884.734	15944.29
884.914	16292.44
885.095	16839.25
885.275	16738.9
885.456	16222.81
885.636	15917.67
885.817	16208.48
885.997	16403.04
886.178	16190.05
886.358	16183.9
886.538	16360.03
886.719	17388.11
886.899	16208.48
887.08	16271.97
887.26	16767.57
887.44	16341.6
887.621	16020.06
887.801	16003.68
887.981	16915.03
888.161	16558.68
888.342	16394.84
888.522	16591.45
888.702	16953.94
888.882	16818.77
889.062	16622.17
889.242	16169.57
889.423	16869.97
889.603	16722.52
889.783	16587.35
889.963	16351.84
890.143	16794.2
890.323	16824.92
890.503	16507.48
890.683	16306.78
890.863	16812.63
891.043	16513.63
891.223	16456.28
891.403	16583.26
891.583	16536.15
891.763	16540.25
891.943	16319.07
892.122	16497.24
892.302	16468.57
892.482	16515.67
892.662	16427.61
892.842	16575.06
893.022	16638.55
893.201	16357.98
893.381	16626.26
893.561	16190.05
893.741	16747.09
893.92	16667.22
894.1	16257.63
894.28	16429.66
894.459	16618.07
894.639	16556.63
894.819	16212.57
894.998	16114.27
895.178	16603.74
895.357	16464.47
895.537	16075.36
895.716	16081.5
895.896	16323.16
896.075	16708.18
896.255	16321.12
896.434	16335.45
896.614	16874.07
896.793	16697.94
896.973	16560.73
897.152	16370.27
897.331	16454.23
897.511	16573.02
897.69	15809.12
897.87	16040.54
898.049	16079.46
898.228	15936.1
898.407	15944.29
898.587	16026.21
898.766	15731.3
898.945	15958.63
899.124	15678.05
899.304	15907.43
899.483	15958.63
899.662	16259.68
899.841	15393.39
900.02	15364.71
900.199	16091.74
900.378	15694.44
900.557	15501.93
900.737	15192.69
900.916	15798.88
901.095	15708.77
901.274	15663.72
901.453	14852.72
901.632	15252.08
901.811	15237.74
901.989	15037.04
902.168	15012.46
902.347	15477.35
902.526	14987.89
902.705	14889.59
902.884	15137.39
903.063	15600.23
903.242	15596.14
903.42	14760.56
903.599	14895.73
903.778	15250.03
903.957	15204.97
904.135	14928.5
904.314	14613.11
904.493	14817.91
904.672	14922.35
904.85	14332.54
905.029	14230.14
905.207	14580.34
905.386	15372.91
905.565	14000.77
905.743	13945.47
905.922	14137.98
906.1	14160.51
906.279	13593.22
906.457	13972.1
906.636	14004.86
906.814	13965.95
906.993	13509.26
907.171	13800.07
907.35	13914.75
907.528	14123.65
907.707	13697.67
907.885	13009.55
908.063	14043.78
908.242	13159.05
908.42	13369.99
908.598	13097.61
908.777	13894.27
908.955	13419.14
909.133	13339.27
909.311	13279.88
909.49	13460.1
909.668	13443.72
909.846	13339.27
910.024	13120.14
910.202	13669
910.38	13795.97
910.559	13337.23
910.737	13169.29
910.915	13773.44
911.093	13875.84
911.271	13445.77
911.449	13853.31
911.627	14008.96
911.805	14299.77
911.983	13732.48
912.161	13615.75
912.339	14115.45
912.517	14256.76
912.695	13712
912.872	13478.54
913.05	13959.81
913.228	14054.01
913.406	13685.38
913.584	13931.14
913.762	14197.37
913.939	13965.95
914.117	13777.54
914.295	13718.15
914.473	13945.47
914.65	14074.49
914.828	13619.85
915.006	13628.04
915.184	13865.6
915.361	13974.14
915.539	13877.89
915.716	13720.2
915.894	14066.3
916.072	14246.52
916.249	13881.99
916.427	14037.63
916.604	13775.49
916.782	14013.06
916.959	13308.55
917.137	13875.84
917.314	13984.38
917.492	13759.11
917.669	13427.34
917.847	13472.39
918.024	13816.45
918.201	13349.51
918.379	13429.38
918.556	13408.9
918.733	13816.45
918.911	13419.14
919.088	13685.38
919.265	13251.21
919.442	13589.13
919.62	13435.53
919.797	13070.99
919.974	13197.96
920.151	13552.26
920.328	13386.38
920.506	13243.02
920.683	13492.87
920.86	13222.54
921.037	13200.01
921.214	13042.32
921.391	12976.78
921.568	13509.26
921.745	13017.74
921.922	13122.19
922.099	12763.79
922.276	13607.56
922.453	13259.4
922.63	13046.41
922.807	13132.43
922.984	12931.73
923.161	12974.74
923.338	12784.27
923.514	12769.94
923.691	13132.43
923.868	13243.02
924.045	12780.18
924.222	12616.34
924.399	13214.35
924.575	13187.72
924.752	12755.6
924.929	12993.17
925.105	12939.92
925.282	12563.09
925.459	12591.77
925.635	12698.26
925.812	12612.24
925.989	12532.37
926.165	12436.12
926.342	11920.03
926.518	12296.86
926.695	12315.29
926.871	12149.4
927.048	12098.2
927.224	12585.62
927.401	12122.78
927.577	12139.16
927.754	11776.67
927.93	12372.63
928.107	12376.73
928.283	11885.22
928.459	12075.68
928.636	12096.16
928.812	12016.29
928.988	11715.23
929.165	11530.92
929.341	11975.33
929.517	12036.77
929.693	12071.58
929.87	11221.67
930.046	11713.19
930.222	11524.77
930.398	11496.1
930.574	11633.32
930.751	11584.16
930.927	11416.23
931.103	11430.57
931.279	11342.5
931.455	11358.89
931.631	11385.51
931.807	11154.09
931.983	10992.3
932.159	11147.95
932.335	10867.38
932.511	11184.81
932.687	10836.66
932.863	11113.13
933.039	10810.03
933.215	10736.31
933.391	10250.94
933.566	10689.2
933.742	10392.25
933.918	10308.28
934.094	10056.38
934.27	10482.36
934.445	10508.98
934.621	10263.22
934.797	9849.54
934.973	10261.18
935.148	10123.96
935.324	9525.96
935.5	9632.45
935.675	9720.51
935.851	9642.69
936.027	9274.06
936.202	9366.21
936.378	9323.21
936.553	9265.86
936.729	9130.7
936.904	8788.69
937.08	8710.86
937.255	8342.23
937.431	8401.62
937.606	7865.05
937.782	8256.22
937.957	8239.83
938.133	8012.51
938.308	7551.71
938.483	8028.89
938.659	7695.07
938.834	7631.58
939.009	7322.34
939.185	7537.38
939.36	7142.12
939.535	7031.53
939.71	7109.35
939.886	7322.34
940.061	7299.81
940.236	7017.19
940.411	7092.97
940.586	7236.33
940.761	6947.56
940.937	6705.9
941.112	6669.04
941.287	6796.01
941.462	6654.7
941.637	6322.93
941.812	6365.94
941.987	6570.74
942.162	6335.22
942.337	6255.35
942.512	6310.65
942.687	6595.31
942.862	6574.83
943.037	6134.52
943.212	5796.6
943.386	6261.49
943.561	6449.91
943.736	6243.06
943.911	6331.12
944.086	6251.25
944.26	6378.23
944.435	6042.36
944.61	6202.1
944.785	6562.55
944.959	6613.74
945.134	6079.22
945.309	5974.78
945.483	6011.64
945.658	6458.1
945.833	5706.49
946.007	5686.01
946.182	6634.22
946.357	5917.44
946.531	5948.15
946.706	5917.44
946.88	5995.26
947.055	6195.96
947.229	5976.83
947.404	6128.38
947.578	6521.59
947.752	6236.92
947.927	5993.21
948.101	5931.77
948.276	6333.17
948.45	6232.82
948.624	6216.44
948.799	6089.46
948.973	6333.17
949.147	6052.6
949.321	6257.4
949.496	6365.94
949.67	6644.46
949.844	6574.83
950.018	6411
950.193	6134.52
950.367	6769.39
950.541	6482.67
950.715	6494.96
950.889	6544.11
951.063	6529.78
951.237	6748.91
951.411	6169.34
951.585	6267.64
951.759	6656.75
951.933	6595.31
952.107	6339.32
952.281	6755.05
952.455	7123.69
952.629	7076.59
952.803	6423.28
952.977	6425.33
953.151	6892.27
953.325	6816.49
953.499	6677.23
953.672	6394.61
953.846	6621.94
954.02	6896.36
954.194	6476.53
954.368	6714.09
954.541	7017.19
954.715	6705.9
954.889	6929.13
955.062	6544.11
955.236	6791.92
955.41	6791.92
955.583	6759.15
955.757	6666.99
955.93	6906.6
956.104	6683.38
956.278	6757.1
956.451	6769.39
956.625	6959.85
956.798	7445.22
956.972	7039.72
957.145	6691.57
957.319	7060.2
957.492	6982.38
957.665	6830.83
957.839	6683.38
958.012	7144.17
958.185	7162.6
958.359	6976.23
958.532	7009
958.705	7387.88
958.879	7250.66
959.052	6818.54
959.225	6781.68
959.398	7148.26
959.572	7156.46
959.745	6957.8
959.918	7049.96
960.091	6957.8
960.264	7412.45
960.438	6812.4
960.611	6671.09
960.784	7338.73
960.957	6892.27
961.13	7185.13
961.303	6726.38
961.476	7017.19
961.649	7291.62
961.822	6695.66
961.995	6851.31
962.168	7185.13
962.341	7183.08
962.514	6980.33
962.686	6812.4
962.859	7181.03
963.032	7219.94
963.205	6904.56
963.378	6607.6
963.551	7240.42
963.723	7045.87
963.896	7047.91
964.069	6820.59
964.242	6996.71
964.414	6949.61
964.587	7049.96
964.76	6861.55
964.932	7092.97
965.105	6830.83
965.278	6779.63
965.45	6808.3
965.623	7058.15
965.795	7213.8
965.968	6865.64
966.14	6779.63
966.313	6890.22
966.485	6892.27
966.658	6658.8
966.83	6554.35
967.003	7084.78
967.175	7002.86
967.348	6660.85
967.52	6617.84
967.692	7373.54
967.865	6951.66
968.037	6664.94
968.209	6847.21
968.382	6941.42
968.554	6922.99
968.726	6652.66
968.898	6685.42
969.071	6961.9
969.243	6982.38
969.415	6621.94
969.587	6769.39
969.759	7242.47
969.932	6773.49
970.104	6646.51
970.276	6304.5
970.448	6517.49
970.62	6589.17
970.792	6347.51
970.964	6572.79
971.136	7076.59
971.308	6867.69
971.48	6482.67
971.652	6470.39
971.824	6879.98
971.996	6402.8
972.168	6492.91
972.339	6394.61
972.511	6718.19
972.683	6554.35
972.855	6587.12
973.027	6570.74
973.199	6378.23
973.37	6648.56
973.542	6345.46
973.714	6472.43
973.886	6269.69
974.057	6689.52
974.229	6241.01
974.401	6324.98
974.572	6105.85
974.744	5944.06
974.915	6126.33
975.087	6103.8
975.259	6843.12
975.43	6267.64
975.602	6255.35
975.773	6130.42
975.945	6157.05
976.116	6527.73
976.288	5954.3
976.459	6230.77
976.63	6124.28
976.802	6271.73
976.973	5909.24
977.145	6204.15
977.316	6488.82
977.487	6458.1
977.659	6148.86
977.83	6140.66
978.001	6623.98
978.172	6032.12
978.344	5788.41
978.515	5929.72
978.686	5874.43
978.857	6161.14
979.028	5833.47
979.2	5874.43
979.371	6255.35
979.542	6101.75
979.713	5962.49
979.884	5315.33
980.055	5763.84
980.226	5767.93
980.397	5595.9
980.568	5626.62
980.739	6152.95
980.91	5792.51
981.081	5624.58
981.252	5743.36
981.423	6120.18
981.594	6040.31
981.765	5434.11
981.936	5708.54
982.106	5890.81
982.277	6122.23
982.448	5518.08
982.619	5718.78
982.79	5579.52
982.96	5907.2
983.131	5608.19
983.302	5356.29
983.472	5616.38
983.643	5749.5
983.814	5606.14
983.984	5307.14
984.155	5403.39
984.326	5718.78
984.496	5516.03
984.667	5430.02
984.837	5415.68
985.008	5708.54
985.178	5409.54
985.349	5169.93
985.519	5237.51
985.69	5311.24
985.86	5114.63
986.031	5112.58
986.201	5419.78
986.371	5548.8
986.542	4858.64
986.712	4885.26
986.882	5444.35
987.053	5513.99
987.223	4952.84
987.393	5141.25
987.563	5221.13
987.734	5384.96
987.904	5317.38
988.074	5001.99
988.244	5157.64
988.414	5214.98
988.585	4913.93
988.755	4879.11
988.925	5012.23
989.095	5370.63
989.265	4776.72
989.435	4797.2
989.605	5180.17
989.775	5251.85
989.945	4975.37
990.115	4789
990.285	4842.25
990.455	4909.83
990.625	4616.97
990.795	4481.81
990.965	4987.66
991.134	4641.55
991.304	4592.4
991.474	4584.21
991.644	4963.08
991.814	5204.74
991.984	4453.14
992.153	4526.86
992.323	4676.37
992.493	4832.01
992.662	4209.43
992.832	4690.7
993.002	4737.81
993.171	4655.89
993.341	4412.18
993.511	4612.88
993.68	4612.88
993.85	4686.61
994.019	4135.7
994.189	4205.33
994.358	4449.04
994.528	4414.23
994.697	4045.59
994.867	4100.89
995.036	4641.55
995.206	4326.16
995.375	4240.15
995.544	4428.56
995.714	4463.38
995.883	4348.69
996.052	4311.83
996.222	4117.27
996.391	4893.45
996.56	4555.54
996.73	4004.63
996.899	3875.61
997.068	4664.08
997.237	4236.05
997.406	4131.61
997.576	3949.34
997.745	4334.36
997.914	4291.35
998.083	3881.75
998.252	3769.12
998.421	4326.16
998.59	3906.33
998.759	3689.25
998.928	3687.2
999.097	4573.97
999.266	4195.09
999.435	3932.95
999.604	3576.61
999.773	4512.53
999.942	3904.28
1000.111	3519.26
1000.28	3599.13
1000.448	3902.23
1000.617	3701.53
1000.786	3814.17
1000.955	3525.41
1001.124	3939.1
1001.292	4315.92
1001.461	3586.85
1001.63	3590.94
1001.798	4090.65
1001.967	4201.24
1002.136	3431.2
1002.304	3504.93
1002.473	3787.55
1002.642	3937.05
1002.81	3574.56
1002.979	3525.41
1003.147	3908.38
1003.316	4279.06
1003.484	3451.68
1003.653	3300.13
1003.821	3793.69
1003.99	3586.85
1004.158	3515.17
1004.327	3336.99
1004.495	3730.2
1004.663	3349.28
1004.832	3373.86
1005	3062.57
1005.168	3631.9
1005.337	3492.64
1005.505	3095.33
1005.673	3435.3
1005.842	3584.8
1006.01	3568.41
1006.178	3160.87
1006.346	2978.6
1006.514	3642.14
1006.683	3795.74
1006.851	3087.14
1007.019	3250.98
1007.187	3277.6
1007.355	3048.23
1007.523	2970.41
1007.691	2829.1
1007.859	2999.08
1008.027	3568.41
1008.195	3083.05
1008.363	2880.3
1008.531	3572.51
1008.699	2954.02
1008.867	2802.47
1009.035	2800.43
1009.203	3517.22
1009.37	3146.53
1009.538	2800.43
1009.706	3312.42
1009.874	3150.63
1010.042	3076.9
1010.209	2575.15
1010.377	2708.27
1010.545	3355.43
1010.713	3025.7
1010.88	2870.06
1011.048	2714.41
1011.216	3011.37
1011.383	3341.09
1011.551	2679.6
1011.718	2573.1
1011.886	3238.69
1012.054	2945.83
1012.221	2573.1
1012.389	2593.58
1012.556	2769.71
1012.724	3322.66
1012.891	2630.45
1013.058	2439.98
1013.226	3103.53
1013.393	3040.04
1013.561	2405.17
1013.728	2282.29
1013.895	3115.81
1014.063	2859.82
1014.23	2333.49
1014.397	2454.32
1014.565	2855.72
1014.732	2685.74
1014.899	2380.59
1015.066	2216.76
1015.233	2618.16
1015.401	2822.95
1015.568	2370.35
1015.735	2552.62
1015.902	2679.6
1016.069	2704.17
1016.236	2143.03
1016.403	2274.1
1016.57	2370.35
1016.737	2687.79
1016.904	2415.41
1017.071	2104.12
1017.238	2431.79
1017.405	2585.39
1017.572	2220.85
1017.739	2239.28
1017.906	2605.87
1018.073	2628.4
1018.24	1942.33
1018.407	2157.36
1018.573	2695.98
1018.74	2372.4
1018.907	2020.15
1019.074	1870.65
1019.241	2515.76
1019.407	2319.15
1019.574	2038.58
1019.741	1884.98
1019.907	2353.97
1020.074	2372.4
1020.241	1821.5
1020.407	1962.81
1020.574	2345.78
1020.74	2425.65
1020.907	1966.9
1021.073	1844.03
1021.24	2747.18
1021.406	2591.53
1021.573	1745.72
1021.739	1860.41
1021.906	2327.35
1022.072	2147.12
1022.239	1760.06
1022.405	1848.12
1022.571	2151.22
1022.738	1936.18
1022.904	1725.24
1023.07	1686.33
1023.237	2069.3
1023.403	2327.35
1023.569	1790.78
1023.735	1790.78
1023.902	2171.7
1024.068	2147.12
1024.234	1569.6
1024.4	1729.34
1024.566	2089.78
1024.732	2208.56
1024.898	1715
1025.065	1594.17
1025.231	2257.71
1025.397	1946.42
1025.563	1723.2
1025.729	1416
1025.895	1631.04
1026.061	1770.3
1026.227	1497.92
1026.392	1624.89
1026.558	2143.03
1026.724	2155.32
1026.89	1536.83
1027.056	1567.55
1027.222	2048.82
1027.388	1669.95
1027.553	1491.77
1027.719	1422.14
1027.885	2267.95
1028.051	1942.33
1028.216	1276.74
1028.382	1456.96
1028.548	1897.27
1028.713	1817.4
1028.879	1391.42
1029.045	1653.56
1029.21	2151.22
1029.376	1975.1
1029.541	1514.3
1029.707	1418.05
1029.873	2016.05
1030.038	1880.89
1030.204	1346.37
1030.369	1524.54
1030.534	1882.94
1030.7	1553.21
1030.865	1342.27
1031.031	1291.07
1031.196	1807.16
1031.361	1841.98
1031.527	1395.52
1031.692	1352.51
1031.857	1293.12
1032.023	1878.84
1032.188	1114.95
1032.353	1370.94
1032.518	2122.55
1032.684	1667.9
1032.849	1135.43
1033.014	1260.35
1033.179	1798.97
1033.344	1622.84
1033.509	1332.03
1033.674	1147.72
1033.839	1747.77
1034.004	1796.92
1034.17	1190.72
1034.335	1108.8
1034.5	1538.88
1034.664	1446.72
1034.829	1127.24
1034.994	1233.73
1035.159	1596.22
1035.324	1575.74
1035.489	1151.81
1035.654	1188.68
1035.819	1786.68
1035.984	1547.07
1036.148	1071.94
1036.313	1145.67
1036.478	1733.43
1036.643	1528.64
1036.807	1119.04
1036.972	1049.41
1037.137	1624.89
1037.301	1483.58
1037.466	920.39
1037.631	1196.87
1037.795	1825.59
1037.96	1493.82
1038.124	1188.68
1038.289	947.01
1038.454	1528.64
1038.618	1581.89
1038.783	1119.04
1038.947	1135.43
1039.111	1293.12
1039.276	1248.07
1039.44	891.72
1039.605	1452.86
1039.769	1225.54
1039.933	1266.5
1040.098	1063.75
1040.262	1162.05
1040.426	1520.45
1040.591	1467.2
1040.755	861
1040.919	922.44
1041.083	1454.91
1041.248	1188.68
1041.412	742.22
1041.576	940.87
1041.74	1112.9
1041.904	1424.19
1042.068	873.29
1042.232	811.85
1042.397	1422.14
1042.561	1327.94
1042.725	738.12
1042.889	1006.41
1043.053	1428.29
1043.217	1418.05
1043.381	1006.41
1043.544	756.55
1043.708	1483.58
1043.872	922.44
1044.036	664.4
1044.2	682.83
1044.364	1413.95
1044.528	1567.55
1044.691	2048.82
1044.855	820.04
1045.019	1497.92
1045.183	1411.9
1045.346	856.9
1045.51	811.85
1045.674	1299.27
1045.837	1379.14
1046.001	813.9
1046.165	727.88
1046.328	1598.27
1046.492	1334.08
1046.655	953.16
1046.819	850.76
1046.983	963.4
1047.146	1227.59
1047.31	838.47
1047.473	475.98
1047.636	1086.28
1047.8	924.49
1047.963	762.7
1048.127	695.11
1048.29	895.82
