Data from Hydrogel_Ink_Intensity_Test_1_USB4F045381__64__00064.txt Node

Date: Mon Jul 31 10:52:53 EDT 2023
User: mmckonesweet
Spectrometer: USB4F04538
Trigger mode: 4
Integration Time (sec): 9.000000E-1
Scans to average: 1
Electric dark correction enabled: true
Nonlinearity correction enabled: false
Boxcar width: 0
XAxis mode: Wavelengths
Number of Pixels in Spectrum: 3648
>>>>>Begin Spectral Data<<<<<
345.52	-1039.86
345.736	-1039.86
345.952	-1039.86
346.168	-962.03
346.384	-962.03
346.6	-95.74
346.816	-185.85
347.032	-259.58
347.248	297.47
347.464	-257.53
347.68	-142.85
347.896	135.68
348.112	358.91
348.328	-132.61
348.544	-75.26
348.76	61.95
348.975	295.42
349.191	-347.64
349.407	-128.51
349.623	84.48
349.839	12.8
350.055	-36.35
350.27	82.43
350.486	254.46
350.702	313.85
350.918	272.89
351.133	-128.51
351.349	195.07
351.565	475.64
351.781	-144.89
351.996	-60.93
352.212	350.71
352.428	-81.41
352.644	-136.7
352.859	-206.33
353.075	274.94
353.291	35.33
353.506	-89.6
353.722	-200.19
353.938	-67.07
354.153	428.54
354.369	109.05
354.584	-110.08
354.8	252.41
355.016	-298.49
355.231	-222.72
355.447	-103.93
355.662	80.38
355.878	860.66
356.093	-316.92
356.309	20.99
356.524	-169.47
356.74	324.09
356.955	-146.94
357.171	43.52
357.386	199.16
357.602	-110.08
357.817	-62.98
358.033	-134.65
358.248	403.96
358.464	174.59
358.679	-83.45
358.895	-220.67
359.11	31.23
359.325	305.66
359.541	272.89
359.756	35.33
359.972	-214.52
360.187	182.78
360.402	-163.33
360.618	-103.93
360.833	1026.54
361.048	227.84
361.264	-161.28
361.479	-50.69
361.694	76.29
361.909	209.4
362.125	-151.04
362.34	-79.36
362.555	270.84
362.77	92.67
362.986	-177.66
363.201	-103.93
363.416	268.8
363.631	84.48
363.847	-175.61
364.062	-177.66
364.277	301.56
364.492	233.98
364.707	-32.26
364.922	-306.68
365.138	373.24
365.353	424.44
365.568	-208.38
365.783	-48.64
365.998	143.87
366.213	635.38
366.428	-269.82
366.643	78.33
366.858	315.9
367.073	301.56
367.288	-103.93
367.503	-210.43
367.718	178.69
367.933	363
368.148	-210.43
368.363	4.61
368.578	27.14
368.793	436.73
369.008	-142.85
369.223	-114.17
369.438	272.89
369.653	535.03
369.868	-169.47
370.083	-163.33
370.298	166.4
370.513	451.07
370.728	49.66
370.943	-73.21
371.157	-126.46
371.372	487.93
371.587	-126.46
371.802	-218.62
372.017	61.95
372.232	500.22
372.446	43.52
372.661	-194.05
372.876	315.9
373.091	309.76
373.306	-65.02
373.52	-294.4
373.735	-46.59
373.95	420.35
374.165	-120.32
374.379	-38.4
374.594	-52.74
374.809	131.58
375.023	10.75
375.238	-140.8
375.453	274.94
375.667	-218.62
375.882	-161.28
376.097	-177.66
376.311	82.43
376.526	-11.78
376.741	-161.28
376.955	129.53
377.17	604.66
377.384	641.53
377.599	23.04
377.813	-224.76
378.028	606.71
378.242	317.95
378.457	-17.92
378.672	-284.16
378.886	76.29
379.101	-11.78
379.315	-306.68
379.53	-54.78
379.744	276.99
379.958	240.12
380.173	-46.59
380.387	-198.14
380.602	172.54
380.816	-48.64
381.031	-118.27
381.245	-124.41
381.459	254.46
381.674	2615.77
381.888	-169.47
382.103	102.91
382.317	-206.33
382.531	545.27
382.746	90.62
382.96	-73.21
383.174	-105.98
383.388	647.67
383.603	150.01
383.817	-210.43
384.031	223.74
384.246	598.52
384.46	39.42
384.674	385.53
384.888	92.67
385.103	156.16
385.317	-206.33
385.531	-26.11
385.745	479.74
385.959	381.43
386.174	-126.46
386.388	-210.43
386.602	125.44
386.816	-19.97
387.03	-36.35
387.244	20.99
387.458	147.97
387.672	530.94
387.887	-218.62
388.101	-284.16
388.315	436.73
388.529	139.77
388.743	-79.36
388.957	-103.93
389.171	440.83
389.385	-134.65
389.599	-65.02
389.813	72.19
390.027	168.45
390.241	741.88
390.455	-40.45
390.669	-17.92
390.883	-26.11
391.097	487.93
391.311	121.34
391.525	-36.35
391.738	356.86
391.952	270.84
392.166	12.8
392.38	-153.09
392.594	442.87
392.808	385.53
393.022	14.85
393.236	-58.88
393.449	317.95
393.663	268.8
393.877	-204.28
394.091	-13.82
394.305	72.19
394.518	27.14
394.732	-93.69
394.946	-44.54
395.16	524.79
395.373	154.11
395.587	-169.47
395.801	-67.07
396.015	430.59
396.228	219.64
396.442	-169.47
396.656	-196.09
396.869	514.55
397.083	518.65
397.297	-15.87
397.51	-136.7
397.724	387.58
397.938	170.49
398.151	-278.01
398.365	-185.85
398.578	276.99
398.792	494.07
399.005	64
399.219	-42.5
399.433	262.65
399.646	338.43
399.86	55.81
400.073	147.97
400.287	383.48
400.5	123.39
400.714	109.05
400.927	55.81
401.141	389.63
401.354	1239.53
401.567	371.19
401.781	-183.81
401.994	401.91
402.208	659.96
402.421	35.33
402.635	-101.89
402.848	137.73
403.061	465.4
403.275	100.86
403.488	-116.22
403.701	539.13
403.915	399.87
404.128	117.25
404.341	-130.56
404.555	262.65
404.768	166.4
404.981	76.29
405.195	-110.08
405.408	625.14
405.621	379.39
405.834	131.58
406.048	-138.75
406.261	518.65
406.474	535.03
406.687	-105.98
406.9	98.81
407.114	223.74
407.327	328.19
407.54	-204.28
407.753	-71.17
407.966	-34.3
408.179	385.53
408.392	-22.02
408.605	-177.66
408.819	350.71
409.032	350.71
409.245	41.47
409.458	49.66
409.671	379.39
409.884	483.83
410.097	-157.18
410.31	115.2
410.523	326.14
410.736	193.02
410.949	43.52
411.162	-36.35
411.375	541.18
411.588	461.3
411.801	238.08
412.014	10.75
412.227	219.64
412.44	178.69
412.653	4.61
412.865	166.4
413.078	412.15
413.291	356.86
413.504	39.42
413.717	-5.63
413.93	479.74
414.143	51.71
414.356	43.52
414.568	-130.56
414.781	438.78
414.994	305.66
415.207	133.63
415.42	33.28
415.632	354.81
415.845	735.73
416.058	-83.45
416.271	-99.84
416.483	125.44
416.696	676.34
416.909	-52.74
417.121	10.75
417.334	350.71
417.547	713.21
417.759	-60.93
417.972	-58.88
418.185	139.77
418.397	541.18
418.61	6.66
418.823	4.61
419.035	590.33
419.248	205.31
419.46	37.38
419.673	193.02
419.885	387.58
420.098	143.87
420.311	45.57
420.523	-79.36
420.736	453.11
420.948	231.93
421.161	35.33
421.373	-181.76
421.586	266.75
421.798	125.44
422.01	-134.65
422.223	201.21
422.435	156.16
422.648	500.22
422.86	100.86
423.073	0.51
423.285	500.22
423.497	-101.89
423.71	-22.02
423.922	-11.78
424.134	496.12
424.347	633.33
424.559	227.84
424.771	227.84
424.984	227.84
425.196	420.35
425.408	-167.42
425.621	0.51
425.833	592.37
426.045	657.91
426.257	-13.82
426.47	43.52
426.682	408.06
426.894	434.68
427.106	10.75
427.318	162.3
427.531	111.1
427.743	352.76
427.955	143.87
428.167	582.14
428.379	455.16
428.591	328.19
428.804	164.35
429.016	6.66
429.228	186.88
429.44	532.98
429.652	281.08
429.864	-58.88
430.076	236.03
430.288	276.99
430.5	143.87
430.712	227.84
430.924	506.36
431.136	367.1
431.348	-46.59
431.56	72.19
431.772	346.62
431.984	313.85
432.196	47.62
432.408	88.57
432.62	276.99
432.832	453.11
433.044	363
433.256	281.08
433.468	504.31
433.679	78.33
433.891	-1.54
434.103	342.52
434.315	690.68
434.527	428.54
434.739	213.5
434.95	291.32
435.162	528.89
435.374	217.6
435.586	86.53
435.798	80.38
436.009	182.78
436.221	293.37
436.433	80.38
436.645	150.01
436.856	268.8
437.068	600.57
437.28	82.43
437.491	389.63
437.703	502.26
437.915	469.5
438.126	223.74
438.338	320
438.55	303.61
438.761	537.08
438.973	223.74
439.184	125.44
439.396	416.25
439.608	551.42
439.819	127.49
440.031	285.18
440.242	584.18
440.454	649.72
440.665	217.6
440.877	309.76
441.088	582.14
441.3	276.99
441.511	-3.58
441.723	190.97
441.934	422.39
442.146	469.5
442.357	377.34
442.569	543.22
442.78	557.56
442.991	838.13
443.203	487.93
443.414	174.59
443.626	760.31
443.837	313.85
444.048	64
444.26	31.23
444.471	426.49
444.682	637.43
444.894	16.9
445.105	109.05
445.316	649.72
445.528	569.85
445.739	317.95
445.95	186.88
446.161	588.28
446.373	666.1
446.584	276.99
446.795	215.55
447.006	625.14
447.217	813.56
447.429	141.82
447.64	70.14
447.851	821.75
448.062	436.73
448.273	10.75
448.484	190.97
448.695	604.66
448.907	532.98
449.118	260.6
449.329	442.87
449.54	416.25
449.751	358.91
449.962	219.64
450.173	262.65
450.384	741.88
450.595	793.08
450.806	311.8
451.017	297.47
451.228	879.09
451.439	715.25
451.65	264.7
451.861	10.75
452.072	289.28
452.283	477.69
452.494	332.28
452.705	190.97
452.915	874.99
453.126	662.01
453.337	297.47
453.548	231.93
453.759	952.82
453.97	1001.97
454.181	657.91
454.391	340.47
454.602	627.19
454.813	731.64
455.024	408.06
455.235	301.56
455.445	633.33
455.656	584.18
455.867	487.93
456.078	215.55
456.288	492.02
456.499	682.49
456.71	291.32
456.921	487.93
457.131	657.91
457.342	764.4
457.553	455.16
457.763	260.6
457.974	770.55
458.184	737.78
458.395	264.7
458.606	246.27
458.816	920.05
459.027	1137.13
459.237	543.22
459.448	168.45
459.659	924.15
459.869	1262.06
460.08	301.56
460.29	522.74
460.501	1192.43
460.711	555.51
460.922	317.95
461.132	358.91
461.343	1319.4
461.553	387.58
461.764	444.92
461.974	440.83
462.184	954.87
462.395	793.08
462.605	582.14
462.816	430.59
463.026	889.33
463.236	1018.35
463.447	446.97
463.657	416.25
463.867	1057.26
464.078	680.44
464.288	553.46
464.498	528.89
464.709	760.31
464.919	766.45
465.129	547.32
465.339	514.55
465.55	803.32
465.76	1049.07
465.97	557.56
466.18	530.94
466.391	1092.08
466.601	881.14
466.811	664.05
467.021	422.39
467.231	985.58
467.441	1206.77
467.651	647.67
467.862	346.62
468.072	903.67
468.282	1214.96
468.492	621.05
468.702	715.25
468.912	895.47
469.122	1516.01
469.332	1014.26
469.542	635.38
469.752	1092.08
469.962	1085.94
470.172	735.73
470.382	580.09
470.592	1225.2
470.802	1298.92
471.012	850.42
471.222	795.12
471.432	1284.59
471.642	1167.85
471.852	887.28
472.062	664.05
472.272	1038.83
472.482	782.84
472.691	768.5
472.901	795.12
473.111	1143.28
473.321	1755.62
473.531	870.9
473.741	985.58
473.95	1288.68
474.16	1370.6
474.37	938.48
474.58	842.23
474.79	1649.13
474.999	1493.48
475.209	905.71
475.419	969.2
475.628	1286.64
475.838	1563.11
476.048	1057.26
476.258	854.51
476.467	1573.35
476.677	1153.52
476.886	1284.59
477.096	1155.57
477.306	1255.92
477.515	1675.75
477.725	1339.88
477.935	1212.91
478.144	1784.29
478.354	1378.79
478.563	1251.82
478.773	1180.14
478.982	1624.55
479.192	1737.19
479.401	1243.63
479.611	1225.2
479.82	1415.66
480.03	1612.26
480.239	1257.96
480.449	1311.21
480.658	2036.19
480.868	1452.52
481.077	1403.37
481.287	1313.26
481.496	1712.61
481.705	2130.4
481.915	1657.32
482.124	1776.1
482.333	1843.68
482.543	2081.25
482.752	1448.43
482.961	1479.15
483.171	1862.12
483.38	1679.85
483.589	1642.98
483.799	1491.43
484.008	1778.15
484.217	1993.19
484.426	1608.17
484.636	1454.57
484.845	1896.93
485.054	1509.86
485.263	1923.55
485.472	1577.45
485.682	2214.37
485.891	1984.99
486.1	1569.26
486.309	1743.33
486.518	2116.06
486.727	2312.67
486.936	1653.22
487.146	1939.94
487.355	2355.68
487.564	1772
487.773	1788.39
487.982	1872.36
488.191	1964.51
488.4	2073.06
488.609	1901.03
488.818	1853.92
489.027	2648.54
489.236	2619.86
489.445	2083.3
489.654	1870.31
489.863	2443.74
490.072	2202.08
490.281	2286.05
490.49	2056.67
490.698	2652.63
490.907	2533.85
491.116	2071.01
491.325	1829.35
491.534	2603.48
491.743	2277.85
491.952	2105.82
492.16	2073.06
492.369	2552.28
492.578	2687.45
492.787	2148.83
492.996	2073.06
493.204	2337.24
493.413	2902.48
493.622	2001.38
493.831	1960.42
494.039	2804.18
494.248	2243.04
494.457	2126.3
494.665	2079.2
494.874	2707.93
495.083	2992.59
495.291	2171.36
495.5	2279.9
495.709	2660.82
495.917	2746.84
496.126	2466.27
496.335	2226.65
496.543	2521.56
496.752	2566.62
496.96	2492.89
497.169	2148.83
497.377	2554.33
497.586	2986.45
497.794	2492.89
498.003	2095.58
498.211	2589.14
498.42	3015.12
498.628	2441.69
498.837	2288.09
499.045	2832.85
499.254	2855.38
499.462	2451.93
499.671	2394.59
499.879	3279.31
500.087	3008.98
500.296	2478.55
500.504	2558.42
500.713	2748.89
500.921	3410.38
501.129	2535.9
501.338	2447.83
501.546	3033.55
501.754	2857.43
501.962	2535.9
502.171	2431.45
502.379	2867.67
502.587	3279.31
502.795	2671.06
503.004	2603.48
503.212	2898.39
503.42	3174.86
503.628	2626.01
503.837	2845.14
504.045	3045.84
504.253	3582.41
504.461	2626.01
504.669	2574.81
504.877	3109.33
505.085	3355.08
505.294	2605.53
505.502	2998.74
505.71	3197.39
505.918	3234.25
506.126	2552.28
506.334	2802.13
506.542	3076.56
506.75	3086.8
506.958	2912.72
507.166	2894.29
507.374	3000.79
507.582	3649.99
507.79	2798.04
507.998	2736.6
508.206	3279.31
508.414	3365.32
508.622	2740.69
508.83	2795.99
509.037	3568.07
509.245	3158.48
509.453	3013.07
509.661	2800.09
509.869	3385.8
510.077	3148.24
510.285	3168.72
510.492	2638.3
510.7	3758.53
510.908	3201.49
511.116	3004.88
511.324	2955.73
511.531	3174.86
511.739	3176.91
511.947	3154.38
512.155	3344.84
512.362	3373.52
512.57	3217.87
512.778	3090.9
512.985	2920.92
513.193	3549.64
513.401	3770.82
513.608	3103.18
513.816	3054.03
514.024	3580.36
514.231	3719.62
514.439	3101.14
514.646	3215.82
514.854	3697.1
515.061	3598.79
515.269	3271.12
515.477	3224.01
515.684	3252.69
515.892	3752.39
516.099	2955.73
516.307	3051.99
516.514	3662.28
516.722	3953.09
516.929	3402.19
517.136	3070.42
517.344	3899.84
517.551	3615.18
517.759	3271.12
517.966	3402.19
518.173	3510.73
518.381	3525.07
518.588	3394
518.796	3168.72
519.003	3770.82
519.21	3631.56
519.418	3181.01
519.625	3672.52
519.832	3760.58
520.039	3803.59
520.247	3201.49
520.454	3371.47
520.661	4063.68
520.868	3828.17
521.076	3396.04
521.283	3527.11
521.49	4221.38
521.697	3819.97
521.904	3428.81
522.112	3559.88
522.319	4024.77
522.526	3881.41
522.733	3494.35
522.94	3414.48
523.147	3862.98
523.354	4061.63
523.561	3437
523.768	3537.35
523.975	4114.88
524.183	3805.64
524.39	3682.76
524.597	3500.49
524.804	3912.13
525.011	3733.96
525.218	3561.93
525.425	3506.63
525.632	4360.64
525.838	3693
526.045	3510.73
526.252	3541.45
526.459	5249.46
526.666	4852.15
526.873	3680.71
527.08	3672.52
527.287	4354.49
527.494	4082.11
527.701	3695.05
527.907	3705.29
528.114	4233.66
528.321	4082.11
528.528	3783.11
528.735	3733.96
528.941	4026.82
529.148	3772.87
529.355	3819.97
529.562	3719.62
529.768	4436.41
529.975	3992
530.182	3897.8
530.388	3756.49
530.595	4401.6
530.802	3912.13
531.008	4065.73
531.215	3901.89
531.422	4911.54
531.628	4907.45
531.835	3813.83
532.042	4010.43
532.248	4155.84
532.455	4149.7
532.661	4016.58
532.868	3914.18
533.074	4331.97
533.281	4465.08
533.487	4084.16
533.694	3869.12
533.9	4209.09
534.107	4471.23
534.313	3959.24
534.52	3916.23
534.726	4557.24
534.933	4772.28
535.139	3946.95
535.345	3899.84
535.552	4592.06
535.758	4475.32
535.965	4166.08
536.171	4098.5
536.377	4612.54
536.584	4790.71
536.79	4223.42
536.996	4270.53
537.203	4538.81
537.409	4534.71
537.615	4164.03
537.821	4450.75
538.028	4602.3
538.234	4721.08
538.44	4174.27
538.646	4262.33
538.853	4557.24
539.059	4395.45
539.265	4669.88
539.471	4082.11
539.677	4682.17
539.883	4489.66
540.09	4213.18
540.296	4628.92
540.502	4690.36
540.708	4475.32
540.914	4452.8
541.12	4393.4
541.326	4807.09
541.532	4686.26
541.738	4614.59
541.944	4477.37
542.15	5106.1
542.356	4522.43
542.562	4348.35
542.768	4483.52
542.974	5343.66
543.18	5222.83
543.386	4516.28
543.592	4301.25
543.798	5302.7
544.004	5128.63
544.21	4602.3
544.415	4630.97
544.621	4850.1
544.827	5024.18
545.033	4471.23
545.239	4749.75
545.445	4714.94
545.651	4860.34
545.856	4577.72
546.062	4616.63
546.268	4864.44
546.474	4768.18
546.679	4671.93
546.885	4647.35
547.091	4831.67
547.297	5527.98
547.502	4729.27
547.708	4440.51
547.914	4727.22
548.119	5136.82
548.325	4622.78
548.531	4626.87
548.736	5532.08
548.942	4860.34
549.147	4571.58
549.353	4989.36
549.559	5409.2
549.764	5110.19
549.97	4639.16
550.175	4741.56
550.381	5233.07
550.586	4862.39
550.792	4866.49
550.997	4897.21
551.203	5345.71
551.408	5226.93
551.614	4565.43
551.819	4788.66
552.025	5636.52
552.23	5622.19
552.435	4676.02
552.641	5138.87
552.846	5124.53
553.052	5466.54
553.257	5110.19
553.462	5018.04
553.668	5140.91
553.873	5482.92
554.078	4831.67
554.283	4909.49
554.489	5116.34
554.694	5355.95
554.899	4901.3
555.105	5218.74
555.31	5499.31
555.515	5601.71
555.72	5054.9
555.925	4848.05
556.131	5581.23
556.336	5089.71
556.541	4938.16
556.746	4940.21
556.951	5632.43
557.156	5814.7
557.361	5145.01
557.567	5237.17
557.772	5798.31
557.977	5423.53
558.182	5102
558.387	5083.57
558.592	5286.32
558.797	5810.6
559.002	5190.06
559.207	5122.48
559.412	5343.66
559.617	5953.96
559.822	5048.75
560.027	5188.02
560.232	5413.29
560.437	5749.16
560.642	5054.9
560.847	5237.17
561.051	5476.78
561.256	5562.8
561.461	5444.01
561.666	4905.4
561.871	5700.01
562.076	5478.83
562.281	5208.5
562.485	5233.07
562.69	5865.89
562.895	5757.35
563.1	5257.65
563.305	5159.35
563.509	5935.53
563.714	6156.71
563.919	5245.36
564.123	5298.61
564.328	5495.21
564.533	5872.04
564.737	5263.79
564.942	5317.04
565.147	6113.7
565.351	6064.55
565.556	5407.15
565.761	5452.2
565.965	5761.45
566.17	5368.24
566.374	5284.27
566.579	5128.63
566.784	5749.16
566.988	5743.02
567.193	5128.63
567.397	5468.59
567.602	5609.9
567.806	5544.36
568.011	5515.69
568.215	5411.25
568.42	5638.57
568.624	5736.87
568.828	5446.06
569.033	5605.8
569.237	5921.19
569.442	5929.38
569.646	5384.62
569.85	5401.01
570.055	5794.22
570.259	5943.72
570.463	5659.05
570.668	5585.32
570.872	5613.99
571.076	5788.07
571.281	5679.53
571.485	5616.04
571.689	5931.43
571.893	6279.58
572.098	5677.48
572.302	5544.36
572.506	5927.33
572.71	5939.62
572.914	5720.49
573.119	5636.52
573.323	6269.34
573.527	6349.22
573.731	5507.5
573.935	5589.42
574.139	5904.81
574.343	5779.88
574.547	5665.19
574.751	5673.39
574.955	6085.03
575.159	6349.22
575.364	5767.59
575.568	5788.07
575.772	6039.97
575.976	6140.32
576.18	5452.2
576.383	5534.12
576.587	6232.48
576.791	6052.26
576.995	5640.62
577.199	5624.23
577.403	6287.78
577.607	6330.78
577.811	5687.72
578.015	5814.7
578.219	6220.19
578.422	6193.57
578.626	5921.19
578.83	5992.87
579.034	6400.41
579.238	6240.67
579.442	5839.27
579.645	6027.68
579.849	6181.28
580.053	6373.79
580.257	6101.41
580.46	6015.4
580.664	6377.89
580.868	6310.3
581.071	6042.02
581.275	6107.55
581.479	6095.27
581.682	6179.23
581.886	5857.7
582.09	6070.69
582.293	6332.83
582.497	6711.71
582.7	6203.81
582.904	5972.39
583.107	6279.58
583.311	6449.57
583.515	5972.39
583.718	5974.44
583.922	6435.23
584.125	6814.1
584.329	5941.67
584.532	6168.99
584.735	6736.28
584.939	6359.45
585.142	6052.26
585.346	6017.44
585.549	6586.78
585.753	6162.85
585.956	6199.71
586.159	6375.84
586.363	6869.4
586.566	6588.83
586.769	6187.43
586.973	5935.53
587.176	6715.8
587.379	6721.95
587.582	6609.31
587.786	6437.28
587.989	6543.77
588.192	7088.53
588.395	6261.15
588.599	6582.68
588.802	6664.6
589.005	6699.42
589.208	6384.03
589.411	6209.95
589.615	6846.87
589.818	7059.86
590.021	6472.09
590.224	6416.8
590.427	6883.73
590.63	6764.95
590.833	6191.52
591.036	6406.56
591.239	6637.98
591.442	6592.92
591.645	6652.31
591.848	6406.56
592.051	6662.55
592.254	7049.62
592.457	6496.67
592.66	6443.42
592.863	6789.53
593.066	6752.66
593.269	6490.52
593.472	6660.51
593.675	6599.07
593.878	6918.55
594.081	6488.48
594.284	6298.02
594.486	7192.98
594.689	6893.97
594.892	6500.76
595.095	6650.27
595.298	7055.76
595.5	6637.98
595.703	6605.21
595.906	6723.99
596.109	7233.94
596.311	7338.38
596.514	6156.71
596.717	6558.11
596.92	7082.39
597.122	6822.3
597.325	6355.36
597.528	6640.03
597.73	7219.6
597.933	6924.69
598.136	6646.17
598.338	6363.55
598.541	7178.64
598.743	7213.46
598.946	6543.77
599.148	6703.51
599.351	7260.56
599.554	7401.87
599.756	6961.56
599.959	7033.24
600.161	7211.41
600.363	7610.76
600.566	6881.69
600.768	6824.34
600.971	7487.89
601.173	7207.31
601.376	6914.45
601.578	6826.39
601.78	7129.49
601.983	7590.28
602.185	6629.79
602.388	7039.38
602.59	7195.03
602.792	6861.21
602.995	7002.52
603.197	6764.95
603.399	7358.86
603.601	7074.2
603.804	6762.9
604.006	6990.23
604.208	6879.64
604.41	6629.79
604.613	6879.64
604.815	6920.6
605.017	7629.2
605.219	6998.42
605.421	7190.93
605.623	6697.37
605.826	7434.64
606.028	7416.21
606.23	6902.17
606.432	6957.46
606.634	7432.59
606.836	7463.31
607.038	6955.41
607.24	7135.64
607.442	7145.87
607.644	7315.86
607.846	7025.04
608.048	6916.5
608.25	7514.51
608.452	7139.73
608.654	6986.13
608.856	6826.39
609.058	7203.22
609.26	7367.06
609.462	7250.32
609.664	6994.33
609.866	7707.02
610.067	7324.05
610.269	7162.26
610.471	7014.8
610.673	7272.85
610.875	7448.97
611.077	6906.26
611.278	7137.68
611.48	7201.17
611.682	7723.4
611.884	7227.79
612.085	7104.92
612.287	7080.34
612.489	7360.91
612.69	6945.17
612.892	7168.4
613.094	7557.52
613.295	7299.47
613.497	6818.2
613.699	6879.64
613.9	7739.79
614.102	7575.95
614.304	7313.81
614.505	6810.01
614.707	7403.92
614.908	7295.38
615.11	6926.74
615.311	7182.74
615.513	7563.66
615.714	7342.48
615.916	6871.45
616.117	6955.41
616.319	7342.48
616.52	7590.28
616.722	6893.97
616.923	7018.9
617.124	7541.13
617.326	7551.37
617.527	7367.06
617.729	7344.53
617.93	7590.28
618.131	7635.34
618.333	6992.28
618.534	7377.3
618.735	7303.57
618.937	7723.4
619.138	6941.08
619.339	7125.4
619.54	7483.79
619.742	7375.25
619.943	7229.84
620.144	7010.71
620.345	7602.57
620.546	7614.86
620.748	7199.12
620.949	7119.25
621.15	7465.36
621.351	7500.17
621.552	7088.53
621.753	6853.02
621.954	7227.79
622.155	7764.36
622.356	7076.24
622.558	7248.27
622.759	7414.16
622.96	7866.76
623.161	7055.76
623.362	7190.93
623.563	7195.03
623.764	7588.24
623.965	7350.67
624.166	7373.2
624.366	7434.64
624.567	7461.26
624.768	7131.54
624.969	7215.51
625.17	7494.03
625.371	7606.67
625.572	7322
625.773	7080.34
625.973	7592.33
626.174	7561.61
626.375	7199.12
626.576	7231.89
626.777	7625.1
626.977	8006.02
627.178	7262.61
627.379	7401.87
627.58	7446.93
627.78	7651.72
627.981	7307.66
628.182	7215.51
628.382	7762.31
628.583	7168.4
628.784	7137.68
628.984	7207.31
629.185	7795.08
629.386	7743.88
629.586	7467.41
629.787	7225.75
629.987	7733.64
630.188	7625.1
630.388	7442.83
630.589	7299.47
630.79	8104.32
630.99	7524.75
631.191	7408.01
631.391	7272.85
631.591	7567.76
631.792	7885.19
631.992	7485.84
632.193	7451.02
632.393	7995.78
632.594	7698.83
632.794	7309.71
632.994	7418.25
633.195	7737.74
633.395	7657.87
633.595	7471.5
633.796	7530.89
633.996	7553.42
634.196	7965.06
634.397	7358.86
634.597	7446.93
634.797	7408.01
634.997	7913.86
635.198	7635.34
635.398	7414.16
635.598	7838.09
635.798	7928.2
635.998	7668.11
636.199	7446.93
636.399	7811.46
636.599	7467.41
636.799	7621
636.999	7700.87
637.199	7623.05
637.399	7928.2
637.599	7332.24
637.799	7647.63
637.999	7559.56
638.199	8102.28
638.399	7240.08
638.599	7485.84
638.799	8022.41
638.999	8186.24
639.199	7621
639.399	7694.73
639.599	8253.83
639.799	7461.26
639.999	7500.17
640.199	7369.1
640.399	7877
640.599	7770.51
640.799	7532.94
640.998	7819.66
641.198	8133
641.398	7940.49
641.598	7563.66
641.798	7610.76
641.997	8704.38
642.197	7917.96
642.397	7844.23
642.597	7760.27
642.796	7911.82
642.996	8128.9
643.196	7772.55
643.395	7481.74
643.595	8163.72
643.795	7338.38
643.994	7485.84
644.194	7729.55
644.394	8133
644.593	7891.34
644.793	7588.24
644.992	7723.4
645.192	8018.31
645.392	7424.4
645.591	7670.15
645.791	7827.85
645.99	8067.46
646.19	7631.24
646.389	7754.12
646.589	7610.76
646.788	8075.65
646.987	8116.61
647.187	7940.49
647.386	7846.28
647.586	7977.35
647.785	8153.48
647.984	7688.59
648.184	7915.91
648.383	7725.45
648.582	7815.56
648.782	7719.31
648.981	7825.8
649.18	7784.84
649.38	7899.53
649.579	7670.15
649.778	7694.73
649.977	8302.98
650.177	8186.24
650.376	7836.04
650.575	7616.91
650.774	8356.22
650.973	7782.79
651.173	7606.67
651.372	7633.29
651.571	7958.92
651.77	8083.84
651.969	7670.15
652.168	8028.55
652.367	7803.27
652.566	7934.34
652.765	7762.31
652.964	8118.66
653.163	8688
653.362	8077.7
653.561	7629.2
653.76	7901.58
653.959	8006.02
654.158	8173.96
654.357	7944.58
654.556	7967.11
654.755	8186.24
654.954	8106.37
655.153	7747.98
655.352	7874.95
655.551	8388.99
655.749	7731.59
655.948	7844.23
656.147	7944.58
656.346	8266.11
656.545	7934.34
656.743	7846.28
656.942	7983.49
657.141	8108.42
657.34	7764.36
657.538	7901.58
657.737	7844.23
657.936	8135.04
658.135	8423.81
658.333	7915.91
658.532	7999.88
658.731	8638.84
658.929	8208.77
659.128	8151.43
659.326	7954.82
659.525	8411.52
659.724	8124.8
659.922	7825.8
660.121	7815.56
660.319	8173.96
660.518	8098.18
660.716	7913.86
660.915	7702.92
661.113	8499.58
661.312	7979.4
661.51	7977.35
661.709	7774.6
661.907	8462.72
662.105	8642.94
662.304	7977.35
662.502	7940.49
662.701	8407.42
662.899	8153.48
663.097	8345.98
663.296	7797.13
663.494	8554.88
663.692	8677.76
663.891	7739.79
664.089	7684.49
664.287	8225.15
664.485	8497.53
664.684	7940.49
664.882	7948.68
665.08	8120.71
665.278	8071.56
665.476	7856.52
665.675	8223.11
665.873	8661.37
666.071	8399.23
666.269	7883.14
666.467	8065.41
666.665	8200.58
666.863	7985.54
667.061	7971.21
667.259	7756.17
667.457	8264.07
667.655	8425.86
667.853	7670.15
668.051	7913.86
668.249	8077.7
668.447	8341.89
668.645	7639.44
668.843	8077.7
669.041	8216.96
669.239	8077.7
669.437	8012.17
669.635	8046.98
669.833	8046.98
670.031	8309.12
670.229	7831.94
670.426	7997.83
670.624	8067.46
670.822	8063.36
671.02	7866.76
671.218	7883.14
671.415	7936.39
671.613	8212.87
671.811	8032.65
672.009	7786.89
672.206	8321.41
672.404	8192.39
672.602	8165.76
672.799	8020.36
672.997	8292.74
673.195	8421.76
673.392	7895.43
673.59	7526.8
673.788	8577.41
673.985	7801.22
674.183	8108.42
674.38	7827.85
674.578	8288.64
674.775	7905.67
674.973	7682.44
675.17	7920.01
675.368	8561.02
675.565	8366.46
675.763	7762.31
675.96	7717.26
676.158	8448.38
676.355	7844.23
676.553	7911.82
676.75	7897.48
676.947	8171.91
677.145	8188.29
677.342	7940.49
677.539	7936.39
677.737	8003.97
677.934	8675.71
678.131	8102.28
678.329	7778.7
678.526	8614.27
678.723	8251.78
678.92	8008.07
679.118	7897.48
679.315	7815.56
679.512	8524.16
679.709	7803.27
679.906	7983.49
680.104	8153.48
680.301	8028.55
680.498	7721.35
680.695	7723.4
680.892	7948.68
681.089	7936.39
681.286	7909.77
681.483	7522.7
681.68	8268.16
681.877	8391.04
682.075	7829.9
682.272	7911.82
682.469	7879.05
682.665	8065.41
682.862	7569.8
683.059	7534.99
683.256	8176
683.453	8034.69
683.65	7770.51
683.847	7743.88
684.044	8075.65
684.241	7844.23
684.438	7725.45
684.635	7563.66
684.831	8388.99
685.028	8229.25
685.225	7700.87
685.422	7621
685.619	7864.71
685.815	7788.94
686.012	7680.39
686.209	7682.44
686.405	7580.04
686.602	8233.35
686.799	7661.96
686.996	7729.55
687.192	7618.96
687.389	8589.69
687.586	7645.58
687.782	7676.3
687.979	8182.15
688.175	7977.35
688.372	7752.07
688.568	7719.31
688.765	7678.35
688.962	8212.87
689.158	7922.06
689.355	7414.16
689.551	8051.08
689.748	7547.28
689.944	7821.7
690.14	7512.46
690.337	8030.6
690.533	7774.6
690.73	7745.93
690.926	7803.27
691.123	8079.75
691.319	7805.32
691.515	7504.27
691.712	7776.65
691.908	7952.77
692.104	7852.42
692.301	7766.41
692.497	7575.95
692.693	8077.7
692.889	7971.21
693.086	7725.45
693.282	7442.83
693.478	7747.98
693.674	8231.3
693.87	7420.3
694.067	7481.74
694.263	7930.25
694.459	7719.31
694.655	7737.74
694.851	7498.13
695.047	7848.33
695.243	7809.42
695.439	7651.72
695.635	7563.66
695.831	7829.9
696.027	7768.46
696.224	7465.36
696.42	7924.1
696.615	8001.93
696.811	7868.81
697.007	7455.12
697.203	7612.81
697.399	7942.53
697.595	8038.79
697.791	7268.75
697.987	7557.52
698.183	7661.96
698.379	7565.71
698.575	7473.55
698.77	7455.12
698.966	8049.03
699.162	8190.34
699.358	7598.48
699.554	7555.47
699.749	7848.33
699.945	7850.38
700.141	7575.95
700.337	7661.96
700.532	7672.2
700.728	7387.54
700.924	7197.07
701.119	7408.01
701.315	7711.11
701.511	7678.35
701.706	7418.25
701.902	7405.97
702.097	7543.18
702.293	7661.96
702.489	7475.6
702.684	7416.21
702.88	7743.88
703.075	7655.82
703.271	7473.55
703.466	7242.13
703.662	7555.47
703.857	7827.85
704.053	7334.29
704.248	7469.45
704.443	7883.14
704.639	7645.58
704.834	7256.47
705.03	7371.15
705.225	7780.75
705.42	7801.22
705.616	7586.19
705.811	7250.32
706.006	7621
706.202	7399.82
706.397	7508.37
706.592	7227.79
706.787	7573.9
706.983	7717.26
707.178	7526.8
707.373	7438.73
707.568	7903.62
707.763	7854.47
707.959	7436.69
708.154	7426.45
708.349	7524.75
708.544	7592.33
708.739	7508.37
708.934	7252.37
709.129	7618.96
709.324	7879.05
709.519	7307.66
709.714	7266.71
709.909	7936.39
710.104	7637.39
710.299	7272.85
710.494	7272.85
710.689	7633.29
710.884	7694.73
711.079	7500.17
711.274	7270.8
711.469	7647.63
711.664	7463.31
711.859	7192.98
712.054	7393.68
712.249	7375.25
712.443	7731.59
712.638	7074.2
712.833	7059.86
713.028	7399.82
713.223	7711.11
713.417	7588.24
713.612	7268.75
713.807	7707.02
714.002	8204.67
714.196	7444.88
714.391	7256.47
714.586	7612.81
714.78	7311.76
714.975	7295.38
715.17	7195.03
715.364	7559.56
715.559	7727.5
715.754	6754.71
715.948	7119.25
716.143	8006.02
716.337	7498.13
716.532	7489.93
716.726	7141.78
716.921	7647.63
717.115	7850.38
717.31	7010.71
717.504	7760.27
717.699	7362.96
717.893	7465.36
718.088	7057.81
718.282	7043.48
718.476	7477.65
718.671	7537.04
718.865	7143.83
719.059	7154.07
719.254	7227.79
719.448	7612.81
719.642	8462.72
719.837	6975.89
720.031	7481.74
720.225	7496.08
720.419	6994.33
720.614	6904.21
720.808	7391.63
721.002	7307.66
721.196	6943.13
721.39	7027.09
721.585	7340.43
721.779	7467.41
721.973	7092.63
722.167	6875.54
722.361	7260.56
722.555	7766.41
722.749	6941.08
722.943	6902.17
723.137	6994.33
723.331	7469.45
723.525	7012.76
723.719	6920.6
723.913	7291.28
724.107	7434.64
724.301	6705.56
724.495	7115.16
724.689	7633.29
724.883	7551.37
725.077	6965.65
725.271	7051.67
725.465	7504.27
725.659	7420.3
725.853	7147.92
726.046	6730.14
726.24	6871.45
726.434	7319.95
726.628	7137.68
726.822	6969.75
727.015	7356.82
727.209	7371.15
727.403	7043.48
727.596	6783.38
727.79	7227.79
727.984	7311.76
728.177	6814.1
728.371	7121.3
728.565	7354.77
728.758	7102.87
728.952	6885.78
729.146	7053.72
729.339	7491.98
729.533	7240.08
729.726	6928.79
729.92	6873.5
730.113	7350.67
730.307	7278.99
730.5	7154.07
730.694	7016.85
730.887	7100.82
731.081	7383.44
731.274	6875.54
731.468	7006.61
731.661	7158.16
731.854	7129.49
732.048	6930.84
732.241	6977.94
732.435	6949.27
732.628	7205.27
732.821	6889.88
733.014	6896.02
733.208	7014.8
733.401	7563.66
733.594	7109.01
733.788	7037.33
733.981	7489.93
734.174	7373.2
734.367	6986.13
734.56	7055.76
734.754	7309.71
734.947	7139.73
735.14	6936.98
735.333	6916.5
735.526	7190.93
735.719	6939.03
735.912	6820.25
736.105	6752.66
736.298	7229.84
736.491	6885.78
736.684	6781.34
736.877	6717.85
737.07	7213.46
737.263	7338.38
737.456	6855.06
737.649	6732.19
737.842	6961.56
738.035	7158.16
738.228	6830.49
738.421	7049.62
738.614	7104.92
738.807	7209.36
739	6664.6
739.192	6605.21
739.385	7129.49
739.578	7246.23
739.771	6871.45
739.964	6728.09
740.156	7041.43
740.349	7221.65
740.542	7057.81
740.735	6547.87
740.927	6801.82
741.12	6744.47
741.313	6709.66
741.505	6926.74
741.698	7102.87
741.891	7123.35
742.083	6920.6
742.276	6830.49
742.468	7068.05
742.661	6912.41
742.854	6779.29
743.046	6805.91
743.239	7420.3
743.431	6965.65
743.624	6949.27
743.816	6574.49
744.009	7014.8
744.201	6961.56
744.393	6959.51
744.586	6607.26
744.778	7260.56
744.971	6949.27
745.163	6756.76
745.355	6842.78
745.548	6943.13
745.74	7000.47
745.932	6709.66
746.125	6730.14
746.317	7506.32
746.509	7041.43
746.702	6617.5
746.894	6828.44
747.086	7088.53
747.278	7174.55
747.471	6914.45
747.663	6797.72
747.855	7047.57
748.047	7313.81
748.239	6793.62
748.431	6793.62
748.623	7379.34
748.815	7350.67
749.008	6541.72
749.2	6750.62
749.392	7121.3
749.584	7170.45
749.776	6750.62
749.968	6885.78
750.16	7502.22
750.352	6865.3
750.544	6664.6
750.736	6687.13
750.928	7002.52
751.12	7084.44
751.311	6658.46
751.503	6656.41
751.695	7086.48
751.887	7070.1
752.079	6605.21
752.271	6683.03
752.463	7608.72
752.654	6959.51
752.846	6668.7
753.038	6615.45
753.23	6685.08
753.421	6932.89
753.613	6650.27
753.805	6885.78
753.997	7145.87
754.188	7190.93
754.38	6533.53
754.572	6631.83
754.763	6789.53
754.955	6947.22
755.146	6541.72
755.338	6582.68
755.53	6941.08
755.721	6883.73
755.913	6400.41
756.104	6484.38
756.296	6603.16
756.487	6990.23
756.679	6263.2
756.87	6506.91
757.062	6488.48
757.253	7156.11
757.445	6488.48
757.636	6615.45
757.827	6758.81
758.019	7211.41
758.21	6334.88
758.401	6298.02
758.593	7250.32
758.784	7029.14
758.975	6302.11
759.167	6384.03
759.358	6650.27
759.549	6916.5
759.74	6365.6
759.932	6314.4
760.123	7061.91
760.314	6490.52
760.505	6580.64
760.696	6437.28
760.888	6965.65
761.079	6734.23
761.27	6052.26
761.461	6273.44
761.652	6990.23
761.843	6531.48
762.034	6255.01
762.225	6453.66
762.416	6453.66
762.607	6527.39
762.798	6314.4
762.989	6203.81
763.18	7219.6
763.371	6519.2
763.562	6181.28
763.753	6285.73
763.944	6801.82
764.135	6695.32
764.326	6353.31
764.517	6367.65
764.708	6353.31
764.899	6609.31
765.089	6027.68
765.28	5982.63
765.471	6273.44
765.662	6525.34
765.853	6115.75
766.043	5917.09
766.234	6674.84
766.425	6646.17
766.615	6107.55
766.806	6109.6
766.997	6541.72
767.187	6433.18
767.378	6007.2
767.569	5884.33
767.759	6513.05
767.95	6361.5
768.141	6209.95
768.331	6121.89
768.522	6212
768.712	6427.04
768.903	6046.12
769.093	6048.16
769.284	6642.07
769.474	6439.33
769.665	5853.61
769.855	5798.31
770.046	6472.09
770.236	6404.51
770.426	6082.98
770.617	5968.29
770.807	6449.57
770.998	6257.06
771.188	6113.7
771.378	5902.76
771.569	6375.84
771.759	6459.81
771.949	5835.17
772.139	5607.85
772.33	6111.65
772.52	6412.7
772.71	6021.54
772.9	5702.06
773.09	6468
773.281	6349.22
773.471	5826.98
773.661	5913
773.851	6302.11
774.041	6091.17
774.231	5872.04
774.421	5962.15
774.611	6496.67
774.802	6191.52
774.992	5837.22
775.182	5740.97
775.372	6009.25
775.562	6361.5
775.752	5876.13
775.942	5839.27
776.131	6410.65
776.321	6017.44
776.511	5736.87
776.701	5724.58
776.891	6226.34
777.081	5913
777.271	5720.49
777.461	5761.45
777.651	6064.55
777.84	6205.86
778.03	5798.31
778.22	5765.54
778.41	6355.36
778.599	5835.17
778.789	5745.06
778.979	5644.71
779.169	6025.64
779.358	5896.61
779.548	5925.29
779.738	5398.96
779.927	5847.46
780.117	5706.15
780.307	5607.85
780.496	5271.98
780.686	6111.65
780.875	6218.15
781.065	5519.79
781.254	5544.36
781.444	6005.16
781.633	5939.62
781.823	5710.25
782.012	5568.94
782.202	5687.72
782.391	5790.12
782.581	5327.28
782.77	5773.74
782.96	5976.48
783.149	5689.77
783.338	5503.4
783.528	5282.22
783.717	5917.09
783.906	6001.06
784.096	5380.53
784.285	5347.76
784.474	5761.45
784.663	5581.23
784.853	5581.23
785.042	5314.99
785.231	5691.82
785.42	6091.17
785.61	5527.98
785.799	5429.68
785.988	5503.4
786.177	5607.85
786.366	5462.44
786.555	5544.36
786.744	5902.76
786.933	5685.67
787.122	5325.23
787.312	5329.33
787.501	5409.2
787.69	5888.42
787.879	5450.16
788.068	5241.26
788.257	5267.89
788.445	5419.44
788.634	5343.66
788.823	5206.45
789.012	6179.23
789.201	5925.29
789.39	5378.48
789.579	5331.37
789.768	5511.6
789.957	5720.49
790.145	5284.27
790.334	4985.27
790.523	5355.95
790.712	5484.97
790.9	5321.13
791.089	5157.3
791.278	5708.2
791.467	5546.41
791.655	5695.91
791.844	5794.22
792.033	5304.75
792.221	5532.08
792.41	5247.41
792.599	5040.56
792.787	5704.1
792.976	5566.89
793.164	5075.38
793.353	5192.11
793.541	5532.08
793.73	5638.57
793.918	5208.5
794.107	5323.18
794.295	5368.24
794.484	5573.03
794.672	5245.36
794.861	5081.52
795.049	5482.92
795.238	5796.26
795.426	5089.71
795.614	5118.39
795.803	5476.78
795.991	5849.51
796.179	4917.68
796.368	4966.84
796.556	5560.75
796.744	5018.04
796.932	5013.94
797.121	4921.78
797.309	5251.5
797.497	5636.52
797.685	5185.97
797.874	4927.92
798.062	5081.52
798.25	5583.27
798.438	5079.47
798.626	5075.38
798.814	5392.81
799.002	5638.57
799.19	5204.4
799.378	5163.44
799.566	5525.93
799.755	5679.53
799.943	5177.78
800.131	4903.35
800.318	5390.77
800.506	5497.26
800.694	5040.56
800.882	5263.79
801.07	5642.67
801.258	5179.82
801.446	5069.23
801.634	5134.77
801.822	5253.55
802.01	5362.09
802.197	5085.62
802.385	5171.63
802.573	5401.01
802.761	5091.76
802.949	5052.85
803.136	4929.97
803.324	5622.19
803.512	5497.26
803.699	5181.87
803.887	4909.49
804.075	5607.85
804.262	5282.22
804.45	5030.32
804.638	5269.94
804.825	5138.87
805.013	5136.82
805.201	5245.36
805.388	4997.56
805.576	5339.57
805.763	5800.36
805.951	5099.95
806.138	5138.87
806.326	5839.27
806.513	5421.49
806.701	5179.82
806.888	5079.47
807.075	5351.85
807.263	5749.16
807.45	4923.83
807.638	5335.47
807.825	5786.02
808.012	5548.46
808.2	5097.91
808.387	5429.68
808.574	5515.69
808.761	5618.09
808.949	5153.2
809.136	5136.82
809.323	5163.44
809.51	5364.14
809.698	5372.33
809.885	5351.85
810.072	5499.31
810.259	5542.32
810.446	5175.73
810.633	4995.51
810.82	5786.02
811.008	5843.37
811.195	5380.53
811.382	5235.12
811.569	5372.33
811.756	5204.4
811.943	5308.85
812.13	5222.83
812.317	5292.46
812.504	5429.68
812.691	5159.35
812.878	5325.23
813.064	5818.79
813.251	5652.91
813.438	5034.42
813.625	5290.42
813.812	5464.49
813.999	5501.36
814.186	5300.66
814.372	5296.56
814.559	5368.24
814.746	5790.12
814.933	5147.06
815.12	5257.65
815.306	5276.08
815.493	5288.37
815.68	5022.13
815.866	5145.01
816.053	5669.29
816.24	5894.57
816.426	5249.46
816.613	5028.28
816.799	5478.83
816.986	5779.88
817.173	5116.34
817.359	5132.72
817.546	5454.25
817.732	5181.87
817.919	4893.11
818.105	5323.18
818.292	5138.87
818.478	5663.15
818.665	5249.46
818.851	5089.71
819.037	5763.5
819.224	5556.65
819.41	4962.74
819.597	5284.27
819.783	5745.06
819.969	5478.83
820.156	5239.22
820.342	4942.26
820.528	6130.08
820.714	5329.33
820.901	5360.05
821.087	5128.63
821.273	5869.99
821.459	5245.36
821.646	5046.71
821.832	4907.45
822.018	5298.61
822.204	5298.61
822.39	5020.08
822.576	4934.07
822.762	5482.92
822.948	5261.74
823.134	5245.36
823.32	4913.59
823.507	4893.11
823.693	5243.31
823.879	5499.31
824.065	4905.4
824.25	5321.13
824.436	5013.94
824.622	4860.34
824.808	5058.99
824.994	5263.79
825.18	5038.52
825.366	4751.8
825.552	4862.39
825.738	5280.18
825.923	5517.74
826.109	5134.77
826.295	5036.47
826.481	5085.62
826.667	5202.35
826.852	5175.73
827.038	4884.92
827.224	5683.63
827.409	5753.26
827.595	4958.64
827.781	4987.32
827.966	5474.73
828.152	5564.84
828.338	5026.23
828.523	4692.41
828.709	5065.14
828.894	5468.59
829.08	4704.7
829.266	5026.23
829.451	5046.71
829.637	5351.85
829.822	4755.9
830.008	4786.61
830.193	5257.65
830.378	5540.27
830.564	4927.92
830.749	4708.79
830.935	5358
831.12	5310.89
831.305	4706.74
831.491	4815.29
831.676	4688.31
831.861	5261.74
832.047	4757.94
832.232	4624.83
832.417	5409.2
832.602	5097.91
832.788	4600.25
832.973	4676.02
833.158	5153.2
833.343	5132.72
833.528	4823.48
833.714	4968.88
833.899	5233.07
834.084	5505.45
834.269	5124.53
834.454	4725.18
834.639	5267.89
834.824	5003.7
835.009	4895.16
835.194	5073.33
835.379	5351.85
835.564	5511.6
835.749	4784.57
835.934	4551.1
836.119	5120.43
836.304	4905.4
836.489	4708.79
836.674	4919.73
836.859	4753.85
837.044	5204.4
837.228	4704.7
837.413	4590.01
837.598	5202.35
837.783	5286.32
837.968	4782.52
838.152	4399.55
838.337	4415.93
838.522	5243.31
838.707	4911.54
838.891	4755.9
839.076	4985.27
839.261	5112.24
839.445	4770.23
839.63	4819.38
839.815	5159.35
839.999	4725.18
840.184	4555.19
840.368	4620.73
840.553	5056.95
840.737	5011.89
840.922	4604.35
841.106	4303.29
841.291	4571.58
841.475	4958.64
841.66	4487.61
841.844	4520.38
842.029	5616.04
842.213	4413.88
842.397	4362.69
842.582	4299.2
842.766	5114.29
842.951	5007.8
843.135	4520.38
843.319	4508.09
843.504	4815.29
843.688	4938.16
843.872	4356.54
844.056	4557.24
844.241	4903.35
844.425	4665.78
844.609	4700.6
844.793	4379.07
844.977	4899.25
845.161	4786.61
845.346	4280.77
845.53	4508.09
845.714	4454.84
845.898	4995.51
846.082	4182.46
846.266	4399.55
846.45	4661.69
846.634	4667.83
846.818	4336.06
847.002	4385.21
847.186	4876.73
847.37	4303.29
847.554	4458.94
847.738	4602.3
847.922	4587.96
848.106	4772.28
848.29	4276.67
848.473	4325.82
848.657	4737.46
848.841	4606.39
849.025	4274.62
849.209	3983.81
849.392	4829.62
849.576	4563.39
849.76	3983.81
849.944	4491.71
850.127	4868.53
850.311	4254.14
850.495	4135.36
850.678	4084.16
850.862	4897.21
851.046	4968.88
851.229	4493.76
851.413	4057.54
851.596	4692.41
851.78	4622.78
851.964	4348.35
852.147	4182.46
852.331	5212.59
852.514	4811.19
852.698	4387.26
852.881	4106.69
853.065	4633.02
853.248	4520.38
853.431	4317.63
853.615	4303.29
853.798	5114.29
853.982	4657.59
854.165	4415.93
854.348	4098.5
854.532	4215.23
854.715	4336.06
854.898	4190.66
855.081	4127.17
855.265	4594.11
855.448	4667.83
855.631	4114.88
855.814	4225.47
855.997	4757.94
856.181	4358.59
856.364	4307.39
856.547	3840.45
856.73	4354.49
856.913	4303.29
857.096	3942.85
857.279	4047.3
857.462	4207.04
857.645	4508.09
857.828	4190.66
858.011	4131.26
858.194	4161.98
858.377	4508.09
858.56	3938.76
858.743	4198.85
858.926	4176.32
859.109	4389.31
859.292	3979.72
859.475	3834.31
859.658	4585.91
859.841	4417.98
860.023	3930.56
860.206	3803.59
860.389	4331.97
860.572	4600.25
860.755	3922.37
860.937	4041.15
861.12	3996.1
861.303	4233.66
861.486	4041.15
861.668	3819.97
861.851	4303.29
862.034	4303.29
862.216	4092.35
862.399	3705.29
862.581	4176.32
862.764	4389.31
862.947	3901.89
863.129	3807.69
863.312	3846.6
863.494	4579.77
863.677	4192.7
863.859	3633.61
864.042	4387.26
864.224	4602.3
864.406	3852.74
864.589	3703.24
864.771	4207.04
864.954	3957.19
865.136	3805.64
865.318	3471.82
865.501	4213.18
865.683	3709.38
865.865	3676.62
866.048	3580.36
866.23	4299.2
866.412	3959.24
866.594	3623.37
866.777	3942.85
866.959	4059.59
867.141	3752.39
867.323	3987.91
867.505	3877.32
867.687	3977.67
867.869	4069.83
868.052	3813.83
868.234	3617.22
868.416	4147.65
868.598	4309.44
868.78	3770.82
868.962	3670.47
869.144	4192.7
869.326	4061.63
869.508	3613.13
869.69	3701.19
869.872	3742.15
870.054	4233.66
870.236	3557.83
870.417	3611.08
870.599	3803.59
870.781	4395.45
870.963	3840.45
871.145	3588.55
871.327	3742.15
871.508	4264.38
871.69	3615.18
871.872	3729.86
872.054	3996.1
872.235	4069.83
872.417	3615.18
872.599	3529.16
872.78	4278.72
872.962	3897.8
873.144	3473.87
873.325	3805.64
873.507	4286.91
873.689	3975.62
873.87	3518.92
874.052	3703.24
874.233	3828.17
874.415	4147.65
874.596	3758.53
874.778	3545.55
874.959	3920.32
875.141	4125.12
875.322	3688.9
875.503	3426.76
875.685	3975.62
875.866	3451.34
876.048	3516.87
876.229	3457.48
876.41	3877.32
876.592	4018.63
876.773	3701.19
876.954	3441.1
877.136	4188.61
877.317	3916.23
877.498	3428.81
877.679	3682.76
877.86	4071.87
878.042	3895.75
878.223	3676.62
878.404	3969.48
878.585	4209.09
878.766	4352.45
878.947	4010.43
879.128	3795.4
879.309	4114.88
879.49	4151.74
879.672	3639.75
879.853	3574.22
880.034	3764.68
880.215	4018.63
880.396	3748.29
880.576	3719.62
880.757	3838.41
880.938	4196.8
881.119	3639.75
881.3	3719.62
881.481	3887.56
881.662	4805.05
881.843	3660.23
882.023	3668.42
882.204	4020.67
882.385	4004.29
882.566	3709.38
882.747	3643.85
882.927	4080.07
883.108	4047.3
883.289	3688.9
883.469	4010.43
883.65	3836.36
883.831	3938.76
884.011	3942.85
884.192	3791.3
884.373	4532.67
884.553	4213.18
884.734	3936.71
884.914	4032.96
885.095	4839.86
885.275	4450.75
885.456	4049.35
885.636	3682.76
885.817	4123.07
885.997	4022.72
886.178	3746.25
886.358	3977.67
886.538	4170.18
886.719	5134.77
886.899	3682.76
887.08	4051.39
887.26	4446.65
887.44	3817.93
887.621	3811.78
887.801	4082.11
887.981	4671.93
888.161	4344.25
888.342	3891.65
888.522	4098.5
888.702	4336.06
888.882	4444.6
889.062	4043.2
889.242	3629.51
889.423	4413.88
889.603	4184.51
889.783	3955.14
889.963	3883.46
890.143	4305.34
890.323	4403.64
890.503	4002.24
890.683	3951.04
890.863	4157.89
891.043	4172.22
891.223	3963.33
891.403	4141.5
891.583	4127.17
891.763	4280.77
891.943	3963.33
892.122	3885.51
892.302	4227.52
892.482	4010.43
892.662	4118.98
892.842	3865.03
893.022	4172.22
893.201	4172.22
893.381	4106.69
893.561	3838.41
893.741	4395.45
893.92	4278.72
894.1	4037.06
894.28	4008.39
894.459	4264.38
894.639	4116.93
894.819	3725.77
894.998	3926.47
895.178	4245.95
895.357	4250.05
895.537	3670.47
895.716	3629.51
895.896	3891.65
896.075	4354.49
896.255	3770.82
896.434	3557.83
896.614	4452.8
896.793	4499.9
896.973	3977.67
897.152	3873.22
897.331	4129.22
897.511	4262.33
897.69	3621.32
897.87	3815.88
898.049	4141.5
898.228	3961.28
898.407	4006.34
898.587	3803.59
898.766	3824.07
898.945	4227.52
899.124	4065.73
899.304	3819.97
899.483	4186.56
899.662	4422.08
899.841	3715.53
900.02	3748.29
900.199	4192.7
900.378	4039.11
900.557	3578.31
900.737	3590.6
900.916	4139.46
901.095	4155.84
901.274	3942.85
901.453	3453.39
901.632	3656.14
901.811	3684.81
901.989	3697.1
902.168	3496.39
902.347	4008.39
902.526	3635.66
902.705	3510.73
902.884	3699.14
903.063	4143.55
903.242	4164.03
903.42	3508.68
903.599	3748.29
903.778	4086.21
903.957	4121.03
904.135	3557.83
904.314	3625.42
904.493	3805.64
904.672	3854.79
904.85	3475.91
905.029	3312.08
905.207	3748.29
905.386	4387.26
905.565	3148.24
905.743	3267.02
905.922	3486.15
906.1	3742.15
906.279	3156.43
906.457	3150.29
906.636	3477.96
906.814	3455.44
906.993	3205.58
907.171	3152.34
907.35	3613.13
907.528	3705.29
907.707	3486.15
907.885	3156.43
908.063	3762.63
908.242	3201.49
908.42	3000.79
908.598	2990.55
908.777	3529.16
908.955	3238.35
909.133	3346.89
909.311	2970.07
909.49	3373.52
909.668	3447.24
909.846	3070.42
910.024	3072.47
910.202	3502.54
910.38	3674.57
910.559	2976.21
910.737	3148.24
910.915	3441.1
911.093	3574.22
911.271	3269.07
911.449	3459.53
911.627	3561.93
911.805	3979.72
911.983	3322.32
912.161	3094.99
912.339	3619.27
912.517	3881.41
912.695	3328.46
912.872	3324.37
913.05	3361.23
913.228	3676.62
913.406	3168.72
913.584	3303.89
913.762	3762.63
913.939	3508.68
914.117	3318.22
914.295	3113.42
914.473	3772.87
914.65	3660.23
914.828	3373.52
915.006	3209.68
915.184	3201.49
915.361	3467.72
915.539	3330.51
915.716	3396.04
915.894	3668.42
916.072	3680.71
916.249	3443.15
916.427	3373.52
916.604	3350.99
916.782	3652.04
916.959	3221.97
917.137	3164.62
917.314	3582.41
917.492	3584.46
917.669	3322.32
917.847	3271.12
918.024	3660.23
918.201	3269.07
918.379	3334.61
918.556	3267.02
918.733	3580.36
918.911	3477.96
919.088	3445.2
919.265	3285.45
919.442	3551.69
919.62	3389.9
919.797	3088.85
919.974	3039.7
920.151	3516.87
920.328	3529.16
920.506	3131.86
920.683	3396.04
920.86	3152.34
921.037	3215.82
921.214	3148.24
921.391	3017.17
921.568	3615.18
921.745	3160.53
921.922	3164.62
922.099	3228.11
922.276	3654.09
922.453	3541.45
922.63	3140.05
922.807	3375.56
922.984	3357.13
923.161	3283.41
923.338	3172.82
923.514	3000.79
923.691	3367.37
923.868	3467.72
924.045	3082.7
924.222	2781.65
924.399	3377.61
924.575	3582.41
924.752	3013.07
924.929	3199.44
925.105	3412.43
925.282	3148.24
925.459	3105.23
925.635	3058.13
925.812	3277.26
925.989	3011.03
926.165	3054.03
926.342	2763.22
926.518	2886.1
926.695	3160.53
926.871	2892.24
927.048	2767.32
927.224	3305.93
927.401	3115.47
927.577	2910.68
927.754	2859.48
927.93	3320.27
928.107	3303.89
928.283	2814.42
928.459	3041.75
928.636	3090.9
928.812	3017.17
928.988	2716.12
929.165	2648.54
929.341	3006.93
929.517	3142.1
929.693	3166.67
929.87	2613.72
930.046	3121.62
930.222	2873.81
930.398	2644.44
930.574	2890.2
930.751	2849.24
930.927	2781.65
931.103	2804.18
931.279	2593.24
931.455	2656.73
931.631	2955.73
931.807	2441.69
931.983	2505.18
932.159	2410.97
932.335	2902.48
932.511	2619.86
932.687	2509.27
932.863	2830.8
933.039	2763.22
933.215	2335.2
933.391	2361.82
933.566	2664.92
933.742	2705.88
933.918	2435.55
934.094	2365.92
934.27	2720.21
934.445	2697.69
934.621	2443.74
934.797	2329.05
934.973	2752.98
935.148	2615.77
935.324	2173.41
935.5	1950.18
935.675	2804.18
935.851	2566.62
936.027	2251.23
936.202	2240.99
936.378	2578.9
936.553	2316.76
936.729	2537.95
936.904	2085.34
937.08	2140.64
937.255	2226.65
937.431	1956.32
937.606	1968.61
937.782	2107.87
937.957	2165.21
938.133	1929.7
938.308	1804.77
938.483	2128.35
938.659	1837.54
938.834	1948.13
939.009	1731.05
939.185	1954.27
939.36	1714.66
939.535	1423.85
939.71	1833.44
939.886	2097.63
940.061	1960.42
940.236	1927.65
940.411	1733.09
940.586	2101.73
940.761	1991.14
940.937	1673.7
941.112	1452.52
941.287	1858.02
941.462	1841.64
941.637	1397.23
941.812	1542.63
941.987	1837.54
942.162	1745.38
942.337	1673.7
942.512	1434.09
942.687	1872.36
942.862	1829.35
943.037	1333.74
943.212	1167.85
943.386	1571.3
943.561	1747.43
943.736	1634.79
943.911	1716.71
944.086	1726.95
944.26	1804.77
944.435	1274.35
944.61	1552.87
944.785	2003.43
944.959	2046.43
945.134	1548.78
945.309	1440.23
945.483	1440.23
945.658	1978.85
945.833	1120.75
946.007	1343.98
946.182	1989.09
946.357	1460.71
946.531	1339.88
946.706	1364.46
946.88	1296.88
947.055	1661.41
947.229	1389.03
947.404	1333.74
947.578	1991.14
947.752	1614.31
947.927	1276.4
948.101	1155.57
948.276	1702.37
948.45	1694.18
948.624	1628.65
948.799	1403.37
948.973	1806.82
949.147	1429.99
949.321	1458.67
949.496	1391.08
949.67	1968.61
949.844	1675.75
950.018	1366.51
950.193	1436.14
950.367	2157.02
950.541	1579.5
950.715	1655.27
950.889	1581.54
951.063	1595.88
951.237	1927.65
951.411	1292.78
951.585	1346.03
951.759	1851.88
951.933	1718.76
952.107	1454.57
952.281	1675.75
952.455	2017.76
952.629	1958.37
952.803	1354.22
952.977	1460.71
953.151	1911.27
953.325	1825.25
953.499	1642.98
953.672	1411.56
953.846	1604.07
954.02	1735.14
954.194	1475.05
954.368	1419.75
954.541	1919.46
954.715	1616.36
954.889	1591.78
955.062	1579.5
955.236	1595.88
955.41	1679.85
955.583	1640.93
955.757	1567.21
955.93	1819.11
956.104	1501.67
956.278	1526.25
956.451	1573.35
956.625	1966.56
956.798	2165.21
956.972	1894.88
957.145	1460.71
957.319	1817.06
957.492	1733.09
957.665	1757.67
957.839	1522.15
958.012	2066.91
958.185	1690.09
958.359	1536.49
958.532	1774.05
958.705	2050.53
958.879	1831.4
959.052	1700.33
959.225	1423.85
959.398	1722.85
959.572	1858.02
959.745	1585.64
959.918	1608.17
960.091	1776.1
960.264	2044.38
960.438	1470.95
960.611	1534.44
960.784	2005.47
960.957	1751.53
961.13	1993.19
961.303	1567.21
961.476	1712.61
961.649	1925.6
961.822	1495.53
961.995	1550.82
962.168	1917.41
962.341	1903.07
962.514	1595.88
962.686	1628.65
962.859	1905.12
963.032	1944.03
963.205	1587.69
963.378	1493.48
963.551	1858.02
963.723	1845.73
963.896	1749.48
964.069	1714.66
964.242	1802.72
964.414	2017.76
964.587	1501.67
964.76	1587.69
964.932	1968.61
965.105	1675.75
965.278	1499.63
965.45	1505.77
965.623	1806.82
965.795	1984.99
965.968	1552.87
966.14	1575.4
966.313	1812.96
966.485	1901.03
966.658	1554.92
966.83	1575.4
967.003	1970.66
967.175	2054.62
967.348	1550.82
967.52	1505.77
967.692	2224.61
967.865	1984.99
968.037	1657.32
968.209	1841.64
968.382	1851.88
968.554	1987.04
968.726	1690.09
968.898	1444.33
969.071	1849.83
969.243	1841.64
969.415	1602.02
969.587	1556.97
969.759	2322.91
969.932	1939.94
970.104	1423.85
970.276	1315.31
970.448	1602.02
970.62	1692.13
970.792	1636.84
970.964	1593.83
971.136	2218.46
971.308	1726.95
971.48	1419.75
971.652	1405.42
971.824	2046.43
971.996	1579.5
972.168	1628.65
972.339	1507.82
972.511	1976.8
972.683	1681.89
972.855	1706.47
973.027	1499.63
973.199	1772
973.37	1790.44
973.542	1630.7
973.714	1737.19
973.886	1683.94
974.057	1935.84
974.229	1395.18
974.401	1522.15
974.572	1450.47
974.744	1358.32
974.915	1409.51
975.087	1485.29
975.259	2036.19
975.43	1626.6
975.602	1419.75
975.773	1323.5
975.945	1520.1
976.116	1948.13
976.288	1333.74
976.459	1628.65
976.63	1583.59
976.802	1677.8
976.973	1374.7
977.145	1489.39
977.316	1987.04
977.487	1667.56
977.659	1548.78
977.83	1460.71
978.001	2122.21
978.172	1624.55
978.344	1311.21
978.515	1386.99
978.686	1505.77
978.857	1792.48
979.028	1464.81
979.2	1364.46
979.371	1794.53
979.542	1546.73
979.713	1481.19
979.884	965.11
980.055	1350.12
980.226	1436.14
980.397	1362.41
980.568	1350.12
980.739	1776.1
980.91	1583.59
981.081	1468.91
981.252	1227.25
981.423	1595.88
981.594	1763.81
981.765	1294.83
981.936	1386.99
982.106	1559.02
982.277	1862.12
982.448	1300.97
982.619	1335.79
982.79	1376.75
982.96	1712.61
983.131	1309.16
983.302	1034.74
983.472	1300.97
983.643	1571.3
983.814	1389.03
983.984	1194.48
984.155	1460.71
984.326	1708.52
984.496	1378.79
984.667	1161.71
984.837	1292.78
985.008	1825.25
985.178	1470.95
985.349	1296.88
985.519	1470.95
985.69	1260.01
985.86	1356.27
986.031	1081.84
986.201	1464.81
986.371	1516.01
986.542	1130.99
986.712	993.78
986.882	1518.06
987.053	1346.03
987.223	1108.46
987.393	1292.78
987.563	1354.22
987.734	1477.1
987.904	1485.29
988.074	1038.83
988.244	1374.7
988.414	1210.86
988.585	1008.11
988.755	1198.57
988.925	1403.37
989.095	1731.05
989.265	1104.37
989.435	1229.29
989.605	1450.47
989.775	1534.44
989.945	1278.44
990.115	961.01
990.285	1307.12
990.455	1419.75
990.625	1202.67
990.795	1026.54
990.965	1677.8
991.134	1124.85
991.304	1028.59
991.474	1022.45
991.644	1444.33
991.814	1751.53
991.984	825.84
992.153	981.49
992.323	1235.44
992.493	1276.4
992.662	764.4
992.832	1184.24
993.002	1321.45
993.171	1378.79
993.341	877.04
993.511	1108.46
993.68	1038.83
993.85	1386.99
994.019	844.28
994.189	856.56
994.358	1366.51
994.528	1128.94
994.697	768.5
994.867	911.86
995.036	1505.77
995.206	1085.94
995.375	909.81
995.544	1063.41
995.714	1214.96
995.883	1016.3
996.052	1051.12
996.222	686.58
996.391	1788.39
996.56	1288.68
996.73	885.23
996.899	748.02
997.068	1497.58
997.237	1155.57
997.406	752.12
997.576	756.21
997.745	1114.61
997.914	1233.39
998.083	610.81
998.252	735.73
998.421	1182.19
998.59	889.33
998.759	616.95
998.928	586.23
999.097	1358.32
999.266	1235.44
999.435	901.62
999.604	633.33
999.773	1489.39
999.942	1042.93
1000.111	590.33
1000.28	600.57
1000.448	854.51
1000.617	797.17
1000.786	936.43
1000.955	715.25
1001.124	1280.49
1001.292	1833.44
1001.461	764.4
1001.63	639.48
1001.798	1399.27
1001.967	1386.99
1002.136	532.98
1002.304	662.01
1002.473	1077.74
1002.642	969.2
1002.81	729.59
1002.979	700.92
1003.147	1214.96
1003.316	1452.52
1003.484	756.21
1003.653	600.57
1003.821	1262.06
1003.99	965.11
1004.158	815.6
1004.327	760.31
1004.495	1081.84
1004.663	768.5
1004.832	870.9
1005	438.78
1005.168	1059.31
1005.337	1055.22
1005.505	539.13
1005.673	881.14
1005.842	1059.31
1006.01	1030.64
1006.178	506.36
1006.346	526.84
1006.514	1065.46
1006.683	1110.51
1006.851	514.55
1007.019	717.3
1007.187	739.83
1007.355	408.06
1007.523	487.93
1007.691	406.01
1007.859	588.28
1008.027	1069.55
1008.195	606.71
1008.363	436.73
1008.531	1143.28
1008.699	584.18
1008.867	354.81
1009.035	438.78
1009.203	1217.01
1009.37	811.51
1009.538	522.74
1009.706	1047.02
1009.874	907.76
1010.042	776.69
1010.209	451.07
1010.377	397.82
1010.545	913.91
1010.713	766.45
1010.88	467.45
1011.048	471.54
1011.216	668.15
1011.383	1163.76
1011.551	412.15
1011.718	389.63
1011.886	1036.78
1012.054	803.32
1012.221	426.49
1012.389	307.71
1012.556	680.44
1012.724	1124.85
1012.891	494.07
1013.058	268.8
1013.226	846.32
1013.393	1004.02
1013.561	229.88
1013.728	215.55
1013.895	893.43
1014.063	842.23
1014.23	342.52
1014.397	315.9
1014.565	860.66
1014.732	561.66
1014.899	266.75
1015.066	307.71
1015.233	752.12
1015.401	866.8
1015.568	432.63
1015.735	489.98
1015.902	743.92
1016.069	874.99
1016.236	293.37
1016.403	309.76
1016.57	434.68
1016.737	852.47
1016.904	363
1017.071	268.8
1017.238	512.5
1017.405	924.15
1017.572	320
1017.739	537.08
1017.906	739.83
1018.073	907.76
1018.24	174.59
1018.407	365.05
1018.573	889.33
1018.74	596.47
1018.907	332.28
1019.074	207.36
1019.241	911.86
1019.407	707.06
1019.574	307.71
1019.741	244.22
1019.907	694.77
1020.074	750.07
1020.241	104.96
1020.407	184.83
1020.574	750.07
1020.74	754.16
1020.907	260.6
1021.073	266.75
1021.24	1219.05
1021.406	1018.35
1021.573	123.39
1021.739	236.03
1021.906	856.56
1022.072	641.53
1022.239	162.3
1022.405	262.65
1022.571	707.06
1022.738	422.39
1022.904	199.16
1023.07	305.66
1023.237	625.14
1023.403	737.78
1023.569	303.61
1023.735	289.28
1023.902	670.2
1024.068	639.48
1024.234	256.51
1024.4	203.26
1024.566	666.1
1024.732	799.22
1024.898	217.6
1025.065	111.1
1025.231	829.94
1025.397	526.84
1025.563	225.79
1025.729	147.97
1025.895	150.01
1026.061	360.95
1026.227	23.04
1026.392	229.88
1026.558	772.6
1026.724	801.27
1026.89	152.06
1027.056	199.16
1027.222	707.06
1027.388	420.35
1027.553	160.25
1027.719	145.92
1027.885	965.11
1028.051	582.14
1028.216	131.58
1028.382	244.22
1028.548	764.4
1028.713	434.68
1028.879	14.85
1029.045	336.38
1029.21	926.19
1029.376	727.54
1029.541	225.79
1029.707	266.75
1029.873	631.29
1030.038	727.54
1030.204	166.4
1030.369	172.54
1030.534	776.69
1030.7	379.39
1030.865	174.59
1031.031	125.44
1031.196	594.42
1031.361	588.28
1031.527	94.72
1031.692	135.68
1031.857	182.78
1032.023	680.44
1032.188	82.43
1032.353	160.25
1032.518	829.94
1032.684	522.74
1032.849	-58.88
1033.014	264.7
1033.179	696.82
1033.344	592.37
1033.509	180.73
1033.674	76.29
1033.839	707.06
1034.004	653.81
1034.17	88.57
1034.335	84.48
1034.5	358.91
1034.664	297.47
1034.829	33.28
1034.994	195.07
1035.159	571.9
1035.324	567.8
1035.489	109.05
1035.654	23.04
1035.819	778.74
1035.984	586.23
1036.148	201.21
1036.313	70.14
1036.478	743.92
1036.643	487.93
1036.807	64
1036.972	76.29
1037.137	813.56
1037.301	592.37
1037.466	-79.36
1037.631	111.1
1037.795	760.31
1037.96	522.74
1038.124	195.07
1038.289	6.66
1038.454	575.99
1038.618	610.81
1038.783	70.14
1038.947	217.6
1039.111	504.31
1039.276	338.43
1039.44	66.05
1039.605	610.81
1039.769	297.47
1039.933	428.54
1040.098	190.97
1040.262	352.76
1040.426	639.48
1040.591	522.74
1040.755	27.14
1040.919	137.73
1041.083	670.2
1041.248	354.81
1041.412	-30.21
1041.576	-75.26
1041.74	379.39
1041.904	604.66
1042.068	-7.68
1042.232	84.48
1042.397	629.24
1042.561	561.66
1042.725	-153.09
1042.889	256.51
1043.053	586.23
1043.217	565.75
1043.381	115.2
1043.544	-60.93
1043.708	733.68
1043.872	276.99
1044.036	-267.77
1044.2	-103.93
1044.364	678.39
1044.528	815.6
1044.691	1436.14
1044.855	-140.8
1045.019	530.94
1045.183	575.99
1045.346	166.4
1045.51	43.52
1045.674	547.32
1045.837	551.42
1046.001	82.43
1046.165	-9.73
1046.328	944.63
1046.492	571.9
1046.655	174.59
1046.819	182.78
1046.983	256.51
1047.146	514.55
1047.31	129.53
1047.473	-116.22
1047.636	453.11
1047.8	190.97
1047.963	119.29
1048.127	-9.73
1048.29	201.21
