Data from Hydrogel_Ink_Intensity_Test_1_USB4F045381__24__00024.txt Node

Date: Mon Jul 31 10:40:28 EDT 2023
User: mmckonesweet
Spectrometer: USB4F04538
Trigger mode: 4
Integration Time (sec): 9.000000E-1
Scans to average: 1
Electric dark correction enabled: true
Nonlinearity correction enabled: false
Boxcar width: 0
XAxis mode: Wavelengths
Number of Pixels in Spectrum: 3648
>>>>>Begin Spectral Data<<<<<
345.52	-961.86
345.736	-961.86
345.952	-961.86
346.168	-1000.77
346.384	-937.29
346.6	-99.67
346.816	-214.35
347.032	-298.32
347.248	305.83
347.464	-218.45
347.68	-97.62
347.896	92.84
348.112	385.7
348.328	-101.72
348.544	-87.38
348.76	117.42
348.975	215.72
349.191	-300.37
349.407	-118.1
349.623	37.55
349.839	47.79
350.055	-46.42
350.27	84.65
350.486	248.49
350.702	385.7
350.918	309.93
351.133	-71
351.349	228.01
351.565	453.28
351.781	-101.72
351.996	51.88
352.212	324.26
352.428	-191.83
352.644	-142.68
352.859	-71
353.075	346.79
353.291	43.69
353.506	-60.76
353.722	-136.53
353.938	-17.75
354.153	600.74
354.369	185
354.584	-118.1
354.8	256.68
355.016	-298.32
355.231	-152.91
355.447	-3.41
355.662	133.8
355.878	944.8
356.093	-191.83
356.309	21.16
356.524	-124.24
356.74	287.4
356.955	-75.09
357.171	8.87
357.386	168.62
357.602	-128.34
357.817	-5.46
358.033	-95.57
358.248	441
358.464	166.57
358.679	-42.32
358.895	-220.5
359.11	45.74
359.325	371.37
359.541	367.27
359.756	31.4
359.972	-249.17
360.187	311.97
360.402	-120.15
360.618	-91.48
360.833	1030.81
361.048	180.9
361.264	-85.33
361.479	55.98
361.694	135.85
361.909	266.92
362.125	-140.63
362.34	-32.08
362.555	352.93
362.77	117.42
362.986	-195.92
363.201	-81.24
363.416	223.91
363.631	58.03
363.847	-54.61
364.062	-62.8
364.277	293.54
364.492	211.62
364.707	-13.65
364.922	-249.17
365.138	402.08
365.353	498.34
365.568	-116.05
365.783	-73.04
365.998	152.23
366.213	664.22
366.428	-124.24
366.643	133.8
366.858	381.6
367.073	318.12
367.288	25.26
367.503	-64.85
367.718	217.77
367.933	342.69
368.148	-169.3
368.363	90.79
368.578	64.17
368.793	555.68
369.008	12.97
369.223	-64.85
369.438	285.35
369.653	479.91
369.868	-177.49
370.083	-159.06
370.298	234.15
370.513	547.49
370.728	174.76
370.943	12.97
371.157	-148.82
371.372	606.88
371.587	-230.74
371.802	-87.38
372.017	144.04
372.232	527.01
372.446	133.8
372.661	-40.28
372.876	402.08
373.091	305.83
373.306	68.27
373.52	-25.94
373.735	6.83
373.95	535.2
374.165	-32.08
374.379	62.12
374.594	35.5
374.809	230.06
375.023	103.08
375.238	-95.57
375.453	271.01
375.667	-62.8
375.882	35.5
376.097	-13.65
376.311	139.94
376.526	78.51
376.741	-19.8
376.955	344.74
377.17	713.38
377.384	635.55
377.599	131.75
377.813	-122.2
378.028	633.51
378.242	410.28
378.457	31.4
378.672	-163.15
378.886	287.4
379.101	174.76
379.315	-204.11
379.53	58.03
379.744	418.47
379.958	311.97
380.173	21.16
380.387	-3.41
380.602	256.68
380.816	33.45
381.031	-17.75
381.245	64.17
381.459	346.79
381.674	2714.24
381.888	-19.8
382.103	240.3
382.317	43.69
382.531	637.6
382.746	131.75
382.96	51.88
383.174	96.94
383.388	670.37
383.603	414.37
383.817	-71
384.031	275.11
384.246	703.14
384.46	246.44
384.674	473.76
384.888	223.91
385.103	262.82
385.317	-25.94
385.531	64.17
385.745	522.91
385.959	613.03
386.174	58.03
386.388	17.07
386.602	172.71
386.816	94.89
387.03	152.23
387.244	146.09
387.458	338.6
387.672	586.4
387.887	-101.72
388.101	-103.76
388.315	613.03
388.529	352.93
388.743	123.56
388.957	176.81
389.171	631.46
389.385	17.07
389.599	162.47
389.813	344.74
390.027	373.41
390.241	809.63
390.455	154.28
390.669	185
390.883	201.38
391.097	707.23
391.311	363.17
391.525	164.52
391.738	414.37
391.952	492.2
392.166	234.15
392.38	162.47
392.594	553.63
392.808	596.64
393.022	228.01
393.236	207.53
393.449	496.29
393.663	391.84
393.877	21.16
394.091	252.58
394.305	244.39
394.518	176.81
394.732	172.71
394.946	266.92
395.16	766.62
395.373	322.21
395.587	105.13
395.801	168.62
396.015	674.46
396.228	535.2
396.442	141.99
396.656	-11.61
396.869	668.32
397.083	807.58
397.297	275.11
397.51	148.14
397.724	680.61
397.938	436.9
398.151	109.23
398.365	146.09
398.578	596.64
398.792	785.05
399.005	354.98
399.219	228.01
399.433	529.06
399.646	551.59
399.86	381.6
400.073	271.01
400.287	668.32
400.5	410.28
400.714	410.28
400.927	391.84
401.141	637.6
401.354	1460.88
401.567	584.35
401.781	187.05
401.994	600.74
402.208	1008.28
402.421	391.84
402.635	373.41
402.848	426.66
403.061	793.25
403.275	430.76
403.488	187.05
403.701	932.51
403.915	694.94
404.128	516.77
404.341	344.74
404.555	631.46
404.768	424.61
404.981	520.87
405.195	383.65
405.408	1065.63
405.621	627.36
405.834	465.57
406.048	373.41
406.261	838.3
406.474	1059.48
406.687	301.73
406.9	539.3
407.114	582.31
407.327	770.72
407.54	297.64
407.753	223.91
407.966	486.05
408.179	807.58
408.392	533.15
408.605	275.11
408.819	821.92
409.032	776.86
409.245	287.4
409.458	641.7
409.671	742.05
409.884	1016.48
410.097	354.98
410.31	633.51
410.523	791.2
410.736	615.07
410.949	565.92
411.162	600.74
411.375	1043.1
411.588	907.93
411.801	744.1
412.014	492.2
412.227	621.22
412.44	576.16
412.653	416.42
412.865	711.33
413.078	932.51
413.291	735.9
413.504	615.07
413.717	486.05
413.93	879.26
414.143	553.63
414.356	565.92
414.568	318.12
414.781	975.52
414.994	754.34
415.207	641.7
415.42	735.9
415.632	1022.62
415.845	1292.95
416.058	512.67
416.271	459.43
416.483	871.07
416.696	1186.46
416.909	590.5
417.121	617.12
417.334	934.56
417.547	1280.66
417.759	617.12
417.972	510.63
418.185	701.09
418.397	1034.91
418.61	588.45
418.823	666.27
419.035	1227.42
419.248	864.93
419.46	717.47
419.673	715.42
419.885	1057.43
420.098	811.68
420.311	711.33
420.523	373.41
420.736	1090.2
420.948	895.64
421.161	709.28
421.373	615.07
421.586	889.5
421.798	768.67
422.01	555.68
422.223	895.64
422.435	893.6
422.648	1161.88
422.86	785.05
423.073	768.67
423.285	1176.22
423.497	666.27
423.71	719.52
423.922	748.19
424.134	1225.37
424.347	1356.44
424.559	1049.24
424.771	1149.59
424.984	883.36
425.196	1067.67
425.408	623.27
425.621	754.34
425.833	1278.62
426.045	1348.25
426.257	756.38
426.47	846.49
426.682	1170.07
426.894	1227.42
427.106	903.84
427.318	961.18
427.531	973.47
427.743	1368.73
427.955	909.98
428.167	1346.2
428.379	1335.96
428.591	1159.83
428.804	1065.63
429.016	930.46
429.228	1073.82
429.44	1225.37
429.652	1178.26
429.864	936.6
430.076	1131.16
430.288	1335.96
430.5	1026.72
430.712	1092.25
430.924	1557.14
431.136	1280.66
431.348	985.76
431.56	1043.1
431.772	1286.81
431.984	1161.88
432.196	971.42
432.408	1165.98
432.62	1217.18
432.832	1411.73
433.044	1260.18
433.256	1299.09
433.468	1518.23
433.679	1190.55
433.891	1036.95
434.103	1424.02
434.315	1755.79
434.527	1667.73
434.739	1239.7
434.95	1450.64
435.162	1700.5
435.374	1395.35
435.586	1231.51
435.798	1258.14
436.009	1141.4
436.221	1395.35
436.433	1340.05
436.645	1354.39
436.856	1464.98
437.068	1829.52
437.28	1299.09
437.491	1540.76
437.703	1743.5
437.915	1608.34
438.126	1391.25
438.338	1682.07
438.55	1610.39
438.761	1637.01
438.973	1489.56
439.184	1405.59
439.396	1663.63
439.608	1749.65
439.819	1321.62
440.031	1610.39
440.242	1852.05
440.454	1747.6
440.665	1606.29
440.877	1628.82
441.088	1874.57
441.3	1594
441.511	1489.56
441.723	1479.32
441.934	1694.35
442.146	1731.22
442.357	1694.35
442.569	1854.09
442.78	1776.27
442.991	2130.57
443.203	1925.77
443.414	1403.54
443.626	2065.04
443.837	1598.1
444.048	1559.19
444.26	1467.03
444.471	1942.16
444.682	2062.99
444.894	1411.73
445.105	1436.31
445.316	2110.09
445.528	2001.55
445.739	1790.61
445.95	1708.69
446.161	2013.84
446.373	2189.96
446.584	1761.94
446.795	1675.92
447.006	2144.91
447.217	2413.19
447.429	1557.14
447.64	1747.6
447.851	2235.02
448.062	2015.88
448.273	1587.86
448.484	1739.41
448.695	2259.59
448.907	1929.87
449.118	1936.01
449.329	2054.8
449.54	1870.48
449.751	1843.85
449.962	1895.05
450.173	1882.77
450.384	2353.8
450.595	2380.42
450.806	1921.68
451.017	1970.83
451.228	2515.59
451.439	2437.77
451.65	1841.81
451.861	1690.26
452.072	1940.11
452.283	2132.62
452.494	2288.26
452.705	1864.33
452.915	2644.61
453.126	2484.87
453.337	1960.59
453.548	1979.02
453.759	2505.35
453.97	2853.5
454.181	2384.52
454.391	2149
454.602	2456.2
454.813	2617.99
455.024	2245.26
455.235	2179.72
455.445	2382.47
455.656	2574.98
455.867	2454.15
456.078	2259.59
456.288	2454.15
456.499	2681.47
456.71	2173.58
456.921	2517.64
457.131	2716.29
457.342	2562.69
457.553	2318.98
457.763	2443.91
457.974	2898.56
458.184	2763.39
458.395	2462.34
458.606	2249.35
458.816	2943.61
459.027	3271.29
459.237	2683.52
459.448	2488.96
459.659	3080.83
459.869	3381.88
460.08	2441.86
460.29	2824.83
460.501	3293.82
460.711	2964.09
460.922	2630.27
461.132	2699.91
461.343	3603.06
461.553	2779.78
461.764	2769.54
461.974	2882.17
462.184	3211.9
462.395	3271.29
462.605	3005.05
462.816	2697.86
463.026	3125.88
463.236	3484.28
463.447	2949.76
463.657	2988.67
463.867	3461.75
464.078	3162.75
464.288	3293.82
464.498	3246.71
464.709	3412.6
464.919	3265.14
465.129	3256.95
465.339	3306.1
465.55	3768.95
465.76	3633.78
465.97	3400.31
466.18	3277.43
466.391	3873.39
466.601	3805.81
466.811	3603.06
467.021	3357.3
467.231	3887.73
467.441	4061.8
467.651	3814
467.862	3451.51
468.072	3883.63
468.282	4336.23
468.492	3719.79
468.702	3924.59
468.912	4008.56
469.122	4657.76
469.332	4282.99
469.542	3928.69
469.752	4344.42
469.962	4366.95
470.172	4031.09
470.382	4119.15
470.592	4567.65
470.802	4924
471.012	4364.9
471.222	4362.86
471.432	4831.84
471.642	4940.38
471.852	4674.15
472.062	4518.5
472.272	4770.4
472.482	4452.97
472.691	4647.52
472.901	4688.48
473.111	4995.68
473.321	5599.83
473.531	4899.42
473.741	5055.07
473.95	5438.04
474.16	5374.55
474.37	5261.91
474.58	5057.12
474.79	5868.11
474.999	5655.12
475.209	5327.45
475.419	5278.3
475.628	5681.75
475.838	5907.02
476.048	5599.83
476.258	5524.05
476.467	6226.51
476.677	5825.11
476.886	6181.45
477.096	5984.85
477.306	6070.86
477.515	6464.07
477.725	6031.95
477.935	6173.26
478.144	6722.12
478.354	6199.88
478.563	6431.3
478.773	6384.2
478.982	6822.47
479.192	7094.85
479.401	6621.77
479.611	6535.75
479.82	6709.83
480.03	7084.61
480.239	6707.78
480.449	6808.13
480.658	7399.99
480.868	7184.96
481.077	7203.39
481.287	7232.06
481.496	7518.78
481.705	7877.17
481.915	7545.4
482.124	7537.21
482.333	7772.72
482.543	8098.35
482.752	7531.06
482.961	7666.23
483.171	8157.74
483.38	8047.15
483.589	7991.86
483.799	7762.48
484.008	8241.71
484.217	8428.07
484.426	7993.9
484.636	8024.62
484.845	8538.66
485.054	7981.62
485.263	8614.44
485.472	8366.64
485.682	8858.15
485.891	8548.9
486.1	8397.35
486.309	8692.26
486.518	9009.7
486.727	9282.08
486.936	8714.79
487.146	8847.91
487.355	9300.51
487.564	9030.18
487.773	9005.6
487.982	9056.8
488.191	9173.53
488.4	9318.94
488.609	9261.6
488.818	9316.89
489.027	10172.94
489.236	9984.53
489.445	9607.7
489.654	9572.89
489.863	10062.35
490.072	10021.39
490.281	10123.79
490.49	9796.12
490.698	10349.07
490.907	10428.94
491.116	10308.11
491.325	9955.86
491.534	10787.33
491.743	10299.92
491.952	10228.24
492.16	10445.32
492.369	10625.54
492.578	10906.12
492.787	10560.01
492.996	10600.97
493.204	10621.45
493.413	11420.16
493.622	10568.2
493.831	10572.3
494.039	11336.19
494.248	10848.77
494.457	10963.46
494.665	10768.9
494.874	11373.05
495.083	11819.51
495.291	11180.54
495.5	11328
495.709	11538.94
495.917	11403.77
496.126	11506.17
496.335	11536.89
496.543	11532.79
496.752	11821.56
496.96	11764.22
497.169	11368.96
497.377	11934.2
497.586	11987.44
497.794	11975.16
498.003	11379.2
498.211	12022.26
498.42	12497.39
498.628	12030.45
498.837	11915.76
499.045	12487.15
499.254	12222.96
499.462	12169.71
499.671	12517.87
499.879	12997.09
500.087	12835.3
500.296	12429.81
500.504	12468.72
500.713	12978.66
500.921	13335.01
501.129	12247.54
501.338	12861.93
501.546	13066.72
501.754	13277.66
501.962	12806.63
502.171	12833.25
502.379	13205.99
502.587	13535.71
502.795	12958.18
503.004	12947.94
503.212	13310.43
503.42	13619.67
503.628	13050.34
503.837	13220.32
504.045	13386.21
504.253	13951.45
504.461	13269.47
504.669	13175.27
504.877	13742.55
505.085	14113.24
505.294	13369.82
505.502	13691.35
505.71	13943.25
505.918	14047.7
506.126	13578.72
506.334	13580.76
506.542	13955.54
506.75	14103
506.958	13937.11
507.166	13883.86
507.374	14143.95
507.582	14703.05
507.79	14166.48
507.998	14213.59
508.206	14389.71
508.414	14635.47
508.622	14029.27
508.83	14186.96
509.037	14776.78
509.245	14215.63
509.453	14371.28
509.661	14348.75
509.869	15000.01
510.077	14490.06
510.285	14721.48
510.492	14133.72
510.7	15577.53
510.908	14813.64
511.116	14688.71
511.324	14692.81
511.531	14959.05
511.739	15040.97
511.947	15010.25
512.155	14862.79
512.362	15104.45
512.57	14977.48
512.778	14924.23
512.985	14815.69
513.193	15468.99
513.401	15966.65
513.608	15014.34
513.816	15225.28
514.024	15677.88
514.231	16003.51
514.439	15225.28
514.646	15391.17
514.854	15878.58
515.061	15755.71
515.269	15354.3
515.477	15505.85
515.684	15550.91
515.892	16163.25
516.099	15196.61
516.307	15446.46
516.514	16177.59
516.722	16488.88
516.929	15952.31
517.136	15600.06
517.344	16202.16
517.551	16196.02
517.759	15571.39
517.966	16288.18
518.173	16116.15
518.381	16251.31
518.588	16308.66
518.796	16153.01
519.003	16677.29
519.21	16112.05
519.418	16140.72
519.625	16380.34
519.832	16734.64
520.039	16810.41
520.247	16136.63
520.454	16525.74
520.661	17121.7
520.868	16699.82
521.076	16517.55
521.283	16531.89
521.49	17248.68
521.697	17039.78
521.904	16791.98
522.112	16556.46
522.319	17254.82
522.526	16947.62
522.733	17041.83
522.94	16861.61
523.147	16912.81
523.354	17250.72
523.561	17174.95
523.768	17242.53
523.975	17983.9
524.183	17582.49
524.39	17394.08
524.597	17349.03
524.804	17498.53
525.011	17760.67
525.218	17658.27
525.425	17602.97
525.632	17951.13
525.838	18014.62
526.045	17736.09
526.252	17619.36
526.459	19069.32
526.666	18622.86
526.873	17727.9
527.08	17822.11
527.287	18604.43
527.494	18213.27
527.701	17824.15
527.907	18008.47
528.114	18321.81
528.321	18334.1
528.528	18186.65
528.735	18274.71
528.941	18381.2
529.148	18332.05
529.355	18354.58
529.562	18221.46
529.768	18680.21
529.975	18639.25
530.182	18645.39
530.388	18497.94
530.595	19007.88
530.802	18330
531.008	19110.28
531.215	18721.17
531.422	19888.51
531.628	19612.03
531.835	18805.13
532.042	18932.11
532.248	18868.62
532.455	19278.21
532.661	19171.72
532.868	19108.23
533.074	19155.33
533.281	19470.72
533.487	19227.01
533.694	19204.49
533.9	19515.78
534.107	19614.08
534.313	19138.95
534.52	19077.51
534.726	19927.42
534.933	20222.33
535.139	19310.98
535.345	19339.65
535.552	19771.77
535.758	19935.61
535.965	20128.12
536.171	19704.19
536.377	20365.68
536.584	20365.68
536.79	19763.58
536.996	20056.44
537.203	20212.09
537.409	20541.81
537.615	20003.19
537.821	20031.86
538.028	20842.86
538.234	20672.88
538.44	20105.59
538.646	20232.57
538.853	20552.05
539.059	20308.34
539.265	20703.6
539.471	20412.79
539.677	20916.59
539.883	20517.23
540.09	20990.31
540.296	21317.99
540.502	21127.53
540.708	20482.42
540.914	20963.69
541.12	21107.05
541.326	21578.08
541.532	21410.15
541.738	21211.49
541.944	21240.17
542.15	21703.01
542.356	21604.7
542.562	21481.83
542.768	21393.76
542.974	21973.34
543.18	22110.55
543.386	21588.32
543.592	21588.32
543.798	22065.5
544.004	22034.78
544.21	21559.65
544.415	21707.1
544.621	21922.14
544.827	22104.41
545.033	21838.17
545.239	22081.88
545.445	22149.46
545.651	22323.54
545.856	21989.72
546.062	21924.19
546.268	22309.21
546.474	22124.89
546.679	21823.84
546.885	21993.82
547.091	22341.97
547.297	22745.42
547.502	22341.97
547.708	21916
547.914	22137.18
548.119	22339.93
548.325	22055.26
548.531	21887.32
548.736	23071.05
548.942	22307.16
549.147	22364.5
549.353	22573.39
549.559	23169.35
549.764	22825.29
549.97	22270.29
550.175	22364.5
550.381	22847.82
550.586	22401.36
550.792	22726.99
550.997	22862.16
551.203	23050.57
551.408	23382.34
551.614	22528.34
551.819	22583.63
552.025	23255.37
552.23	23695.68
552.435	23048.52
552.641	23679.3
552.846	23468.36
553.052	24203.58
553.257	23646.53
553.462	23613.76
553.668	23509.32
553.873	24092.99
554.078	23368.01
554.283	23484.74
554.489	23941.44
554.694	23877.95
554.899	23576.9
555.105	23613.76
555.31	24084.8
555.515	24185.15
555.72	24002.88
555.925	23769.41
556.131	24316.22
556.336	23994.68
556.541	24117.56
556.746	24172.86
556.951	24539.44
557.156	24488.24
557.361	24256.82
557.567	24482.1
557.772	24963.37
557.977	24566.07
558.182	24383.8
558.387	24238.39
558.592	24467.77
558.797	24564.02
559.002	24592.69
559.207	24285.5
559.412	24811.82
559.617	24977.71
559.822	24344.89
560.027	24338.74
560.232	24457.53
560.437	24764.72
560.642	24441.14
560.847	24449.33
561.051	24906.03
561.256	24750.38
561.461	25022.76
561.666	24330.55
561.871	24961.33
562.076	25313.58
562.281	24805.68
562.485	24574.26
562.69	25157.93
562.895	25520.42
563.1	24805.68
563.305	25053.48
563.509	25248.04
563.714	25743.65
563.919	25053.48
564.123	24987.95
564.328	25176.36
564.533	25743.65
564.737	24635.7
564.942	24946.99
565.147	26009.89
565.351	25944.35
565.556	25119.02
565.761	25368.87
565.965	25499.94
566.17	25299.24
566.374	25073.96
566.579	25229.61
566.784	25583.91
566.988	25940.25
567.193	25340.2
567.397	25624.87
567.602	25844
567.806	25678.11
568.011	25436.45
568.215	25643.3
568.42	25944.35
568.624	25882.91
568.828	25942.3
569.033	25708.83
569.237	26003.74
569.442	26556.69
569.646	25477.41
569.85	26061.08
570.055	26237.21
570.259	26308.89
570.463	26249.5
570.668	25983.26
570.872	26024.22
571.076	26235.16
571.281	26226.97
571.485	26423.58
571.689	26564.89
571.893	26781.97
572.098	26521.88
572.302	26339.61
572.506	26517.78
572.71	26374.42
572.914	26558.74
573.119	26822.93
573.323	26876.18
573.527	27267.34
573.731	26673.43
573.935	26562.84
574.139	26796.31
574.343	26734.87
574.547	26687.76
574.751	26681.62
574.955	27617.54
575.159	26954
575.364	26716.43
575.568	26525.97
575.772	27330.83
575.976	27519.24
576.18	26687.76
576.383	26876.18
576.587	27726.08
576.791	27035.92
576.995	26724.63
577.199	26515.73
577.403	27578.63
577.607	27742.47
577.811	27275.53
578.015	27136.27
578.219	27846.91
578.422	27691.27
578.626	27463.94
578.83	27564.29
579.034	27906.3
579.238	27859.2
579.442	27371.78
579.645	27973.89
579.849	27975.94
580.053	28420.34
580.257	27603.21
580.46	27713.8
580.664	28109.05
580.868	27939.07
581.071	28029.18
581.275	27758.85
581.479	27754.76
581.682	28025.09
581.886	27683.08
582.09	27932.93
582.293	28279.04
582.497	28580.09
582.7	28242.17
582.904	28338.43
583.107	28334.33
583.311	28209.4
583.515	28406.01
583.718	28340.47
583.922	28686.58
584.125	29268.2
584.329	28082.43
584.532	28858.61
584.735	29130.99
584.939	28526.84
585.142	28340.47
585.346	28446.97
585.549	29042.93
585.753	28737.78
585.956	28811.51
586.159	28918
586.363	29288.68
586.566	29077.74
586.769	29155.57
586.973	28725.49
587.176	29167.85
587.379	29346.03
587.582	29221.1
587.786	28961.01
587.989	29264.11
588.192	29872.35
588.395	29044.98
588.599	29481.19
588.802	29622.5
589.005	29595.88
589.208	29331.69
589.411	29380.84
589.615	29370.6
589.818	30036.19
590.021	29896.93
590.224	29534.44
590.427	29780.2
590.63	29956.32
590.833	29452.52
591.036	29483.24
591.239	30077.15
591.442	29567.21
591.645	29831.4
591.848	29552.87
592.051	30363.87
592.254	30439.64
592.457	30062.82
592.66	29954.27
592.863	30249.18
593.066	30314.72
593.269	30058.72
593.472	30208.22
593.675	30132.45
593.878	30615.77
594.081	30142.69
594.284	30165.21
594.486	30929.11
594.689	30671.06
594.892	30103.78
595.095	30365.92
595.298	30572.76
595.5	30789.84
595.703	30871.76
595.906	30462.17
596.109	31281.36
596.311	31250.64
596.514	30347.48
596.717	30697.69
596.92	31195.34
597.122	31086.8
597.325	30599.38
597.528	30705.88
597.73	31557.83
597.933	31101.14
598.136	30906.58
598.338	30644.44
598.541	31559.88
598.743	31658.18
598.946	31129.81
599.148	31217.87
599.351	31381.71
599.554	31922.37
599.756	31097.04
599.959	31764.68
600.161	31441.1
600.363	32440.51
600.566	31379.66
600.768	31314.12
600.971	31914.18
601.173	31631.56
601.376	31303.88
601.578	31688.9
601.78	31574.22
601.983	32084.16
602.185	31443.15
602.388	31656.14
602.59	31756.49
602.792	31754.44
602.995	31879.36
603.197	31508.68
603.399	32172.22
603.601	32254.14
603.804	31568.07
604.006	31256.78
604.208	31625.42
604.41	31615.18
604.613	32278.72
604.815	31846.6
605.017	32422.08
605.219	31754.44
605.421	32198.85
605.623	32090.3
605.826	32563.39
606.028	32485.56
606.23	32092.35
606.432	31434.95
606.634	33081.52
606.836	32841.91
607.038	32002.24
607.24	31733.96
607.442	32331.97
607.644	32174.27
607.846	32594.11
608.048	31875.27
608.25	32481.47
608.452	32329.92
608.654	32360.64
608.856	31631.56
609.058	32190.66
609.26	32520.38
609.462	32409.79
609.664	32342.21
609.866	32714.94
610.067	32653.5
610.269	32676.02
610.471	32460.99
610.673	32415.93
610.875	32831.67
611.077	32075.97
611.278	32170.18
611.48	32647.35
611.682	33050.8
611.884	32733.37
612.085	32493.75
612.287	32532.67
612.489	32925.88
612.69	32344.25
612.892	32454.84
613.094	32739.51
613.295	32766.13
613.497	31899.84
613.699	32241.85
613.9	33061.04
614.102	32962.74
614.304	32313.53
614.505	32020.67
614.707	32770.23
614.908	32667.83
615.11	32135.36
615.311	32778.42
615.513	32946.36
615.714	33368.24
615.916	32673.98
616.117	32426.17
616.319	32520.38
616.52	32882.87
616.722	32374.97
616.923	32835.77
617.124	33065.14
617.326	32807.09
617.527	32700.6
617.729	32893.11
617.93	33466.54
618.131	33165.49
618.333	32372.92
618.534	32983.22
618.735	32796.85
618.937	33314.99
619.138	32749.75
619.339	32733.37
619.54	33231.02
619.742	32880.82
619.943	32815.29
620.144	32977.08
620.345	33441.96
620.546	33231.02
620.748	32647.35
620.949	32731.32
621.15	32852.15
621.351	33122.48
621.552	32899.25
621.753	32852.15
621.954	33347.76
622.155	33439.92
622.356	32759.99
622.558	33306.8
622.759	33337.52
622.96	33687.72
623.161	33171.63
623.362	32876.72
623.563	33355.95
623.764	33040.56
623.965	32876.72
624.166	33153.2
624.366	32999.6
624.567	33355.95
624.768	32942.26
624.969	32796.85
625.17	33253.55
625.371	33415.34
625.572	33233.07
625.773	32954.55
625.973	33939.62
626.174	33624.23
626.375	33613.99
626.576	33403.05
626.777	33624.23
626.977	33859.75
627.178	33298.61
627.379	33140.91
627.58	33114.29
627.78	33382.57
627.981	33175.73
628.182	33804.45
628.382	33534.12
628.583	33505.45
628.784	33470.64
628.984	33618.09
629.185	34001.06
629.386	33566.89
629.586	33284.27
629.787	33714.34
629.987	33949.86
630.188	33902.76
630.388	33960.1
630.589	33620.14
630.79	33972.39
630.99	33796.26
631.191	33538.22
631.391	33853.61
631.591	33843.37
631.792	33843.37
631.992	34224.29
632.193	33927.33
632.393	34506.91
632.594	33358
632.794	33560.75
632.994	33984.68
633.195	33767.59
633.395	33994.92
633.595	33290.41
633.796	34103.46
633.996	33943.72
634.196	34302.11
634.397	34199.71
634.597	33720.49
634.797	33925.28
634.997	34541.72
635.198	33956
635.398	33542.31
635.598	34603.16
635.798	34783.38
635.998	34050.21
636.199	33945.76
636.399	33974.44
636.599	34214.05
636.799	33890.47
636.999	34009.25
637.199	34076.83
637.399	34449.56
637.599	34046.12
637.799	33886.37
637.999	34551.96
638.199	34902.17
638.399	33763.5
638.599	34052.26
638.799	34650.27
638.999	35244.18
639.199	34658.46
639.399	34560.16
639.599	35129.49
639.799	34451.61
639.999	34037.92
640.199	34324.64
640.399	34295.97
640.599	33945.76
640.799	34496.67
640.998	34637.98
641.198	35074.2
641.398	34418.85
641.598	34740.38
641.798	34576.54
641.997	35594.38
642.197	34736.28
642.397	34648.22
642.597	34308.26
642.796	35182.74
642.996	35147.92
643.196	34513.05
643.395	34359.45
643.595	35090.58
643.795	34556.06
643.994	34838.68
644.194	34433.18
644.394	35301.52
644.593	35242.13
644.793	34603.16
644.992	34873.49
645.192	34947.22
645.392	34359.45
645.591	35354.77
645.791	34896.02
645.99	35274.9
646.19	35063.96
646.389	34832.54
646.589	34994.32
646.788	35496.08
646.987	35205.27
647.187	35297.42
647.386	34881.69
647.586	34984.08
647.785	35661.96
647.984	34775.19
648.184	35424.4
648.383	35209.36
648.582	35342.48
648.782	35195.03
648.981	35309.71
649.18	34723.99
649.38	35152.02
649.579	35254.42
649.778	35342.48
649.977	35621
650.177	35428.49
650.376	35033.24
650.575	35063.96
650.774	35821.7
650.973	35539.08
651.173	35133.59
651.372	35311.76
651.571	35281.04
651.77	35547.28
651.969	35551.37
652.168	35664.01
652.367	35162.26
652.566	35555.47
652.765	35491.98
652.964	35786.89
653.163	36110.47
653.362	35864.71
653.561	35176.59
653.76	34965.65
653.959	35666.06
654.158	36069.51
654.357	35778.7
654.556	35133.59
654.755	36036.74
654.954	36104.32
655.153	35543.18
655.352	35643.53
655.551	35727.5
655.749	35612.81
655.948	35156.11
656.147	36006.02
656.346	35915.91
656.545	35956.87
656.743	35696.78
656.942	35446.93
657.141	35678.35
657.34	35782.79
657.538	35672.2
657.737	35678.35
657.936	35967.11
658.135	36075.65
658.333	35147.92
658.532	35582.09
658.731	36589.69
658.929	36067.46
659.128	35590.28
659.326	35588.24
659.525	36036.74
659.724	36145.28
659.922	35561.61
660.121	35522.7
660.319	35956.87
660.518	35580.04
660.716	35612.81
660.915	35827.85
661.113	36563.07
661.312	35821.7
661.51	35780.74
661.709	35838.09
661.907	36397.18
662.105	36253.83
662.304	35913.86
662.502	36296.83
662.701	36323.46
662.899	35715.21
663.097	36186.24
663.296	35575.95
663.494	36358.27
663.692	36386.94
663.891	35655.82
664.089	35405.97
664.287	36167.81
664.485	36141.19
664.684	36061.32
664.882	36077.7
665.08	36206.72
665.278	36120.71
665.476	35713.16
665.675	36370.56
665.873	36616.32
666.071	36587.64
666.269	35770.5
666.467	35979.4
666.665	36194.43
666.863	35858.57
667.061	35938.44
667.259	36253.83
667.457	36268.16
667.655	36272.26
667.853	35621
668.051	35848.33
668.249	35842.18
668.447	36026.5
668.645	35598.48
668.843	36012.17
669.041	36409.47
669.239	36302.98
669.437	36227.2
669.635	36112.52
669.833	35664.01
670.031	36073.6
670.229	35868.81
670.426	36292.74
670.624	36194.43
670.822	35885.19
671.02	36040.84
671.218	36100.23
671.415	36030.6
671.613	35825.8
671.811	35952.77
672.009	36337.79
672.206	36358.27
672.404	36057.22
672.602	35823.75
672.799	35944.58
672.997	35920.01
673.195	36253.83
673.392	35721.35
673.59	35442.83
673.788	36200.58
673.985	35385.49
674.183	35840.14
674.38	35917.96
674.578	35915.91
674.775	35754.12
674.973	35463.31
675.17	35496.08
675.368	35756.17
675.565	35887.24
675.763	35489.93
675.96	35432.59
676.158	36167.81
676.355	35129.49
676.553	35360.91
676.75	35674.25
676.947	35983.49
677.145	35913.86
677.342	35526.8
677.539	35707.02
677.737	35899.53
677.934	35975.3
678.131	35922.05
678.329	35483.79
678.526	36051.08
678.723	35672.2
678.92	35852.42
679.118	35274.9
679.315	35299.47
679.512	35942.53
679.709	35494.03
679.906	35297.42
680.104	35838.09
680.301	35457.17
680.498	34896.02
680.695	34973.84
680.892	35178.64
681.089	35330.19
681.286	35477.65
681.483	34924.69
681.68	35215.51
681.877	35739.79
682.075	34877.59
682.272	35326.1
682.469	35168.4
682.665	35485.84
682.862	35025.04
683.059	35182.74
683.256	35039.38
683.453	35399.82
683.65	34633.88
683.847	35252.37
684.044	34926.74
684.241	34736.28
684.438	35096.72
684.635	34781.34
684.831	35678.35
685.028	35803.27
685.225	34719.9
685.422	34961.56
685.619	35264.66
685.815	35164.31
686.012	35145.87
686.209	34441.37
686.405	34678.94
686.602	35530.89
686.799	34457.76
686.996	34756.76
687.192	34502.81
687.389	35403.92
687.586	34846.87
687.782	34764.95
687.979	35174.55
688.175	34734.23
688.372	34547.87
688.568	35055.76
688.765	34623.64
688.962	35278.99
689.158	34470.04
689.355	34379.93
689.551	34599.07
689.748	34498.72
689.944	34263.2
690.14	34338.97
690.337	34848.92
690.533	34793.62
690.73	34252.96
690.926	34822.3
691.123	34453.66
691.319	34896.02
691.515	34062.5
691.712	34234.53
691.908	34539.68
692.104	34384.03
692.301	34173.09
692.497	33738.92
692.693	34914.45
692.889	34486.43
693.086	34097.31
693.282	34291.87
693.478	34332.83
693.674	34586.78
693.87	33945.76
694.067	34267.3
694.263	34511
694.459	34218.14
694.655	34328.73
694.851	34152.61
695.047	34111.65
695.243	34506.91
695.439	34168.99
695.635	33857.7
695.831	34001.06
696.027	34095.27
696.224	33544.36
696.42	33980.58
696.615	34541.72
696.811	34121.89
697.007	33478.83
697.203	33929.38
697.399	33939.62
697.595	34150.56
697.791	33548.46
697.987	33712.3
698.183	33663.14
698.379	33493.16
698.575	33548.46
698.77	33929.38
698.966	33886.37
699.162	34035.88
699.358	33730.73
699.554	33523.88
699.749	34480.28
699.945	33931.43
700.141	33757.35
700.337	33822.89
700.532	33601.71
700.728	33958.05
700.924	33282.22
701.119	33296.56
701.315	33278.13
701.511	33603.75
701.706	33757.35
701.902	33134.77
702.097	33646.76
702.293	33753.26
702.489	33599.66
702.684	33605.8
702.88	33591.47
703.075	33577.13
703.271	32850.1
703.466	33257.65
703.662	33527.98
703.857	33603.75
704.053	33345.71
704.248	33067.19
704.443	33773.74
704.639	33491.12
704.834	33433.77
705.03	33167.54
705.225	33474.73
705.42	33501.36
705.616	33093.81
705.811	33231.02
706.006	33165.49
706.202	33040.56
706.397	32944.31
706.592	33028.27
706.787	33269.93
706.983	33280.17
707.178	33525.93
707.373	33237.17
707.568	33345.71
707.763	33282.22
707.959	32909.49
708.154	32821.43
708.349	32827.57
708.544	33251.5
708.739	33274.03
708.934	32786.61
709.129	33110.19
709.324	32987.32
709.519	32731.32
709.714	32821.43
709.909	33464.49
710.104	33159.34
710.299	32921.78
710.494	32827.57
710.689	32987.32
710.884	32962.74
711.079	33194.16
711.274	32932.02
711.469	32958.64
711.664	33081.52
711.859	32678.07
712.054	32708.79
712.249	32653.5
712.443	32856.25
712.638	32483.51
712.833	32307.39
713.028	33153.2
713.223	32553.15
713.417	32895.16
713.612	32577.72
713.807	32803
714.002	33263.79
714.196	32909.49
714.391	32137.41
714.586	32788.66
714.78	32594.11
714.975	32426.17
715.17	31824.07
715.364	32766.13
715.559	32680.12
715.754	31676.62
715.948	32012.48
716.143	32516.28
716.337	32420.03
716.532	32370.88
716.726	32221.37
716.921	32395.45
717.115	32344.25
717.31	31826.12
717.504	32870.58
717.699	32213.18
717.893	32417.98
718.088	32073.92
718.282	31840.45
718.476	32225.47
718.671	31951.04
718.865	31533.26
719.059	31559.88
719.254	31883.46
719.448	32585.91
719.642	33145.01
719.837	31539.4
720.031	31582.41
720.225	31652.04
720.419	31854.79
720.614	31166.67
720.808	32098.5
721.002	31705.29
721.196	31281.36
721.39	31215.82
721.585	32069.83
721.779	31598.79
721.973	31402.19
722.167	31172.81
722.361	31404.24
722.555	31918.28
722.749	31350.99
722.943	31307.98
723.137	31119.57
723.331	31615.18
723.525	31480.01
723.719	31006.93
723.913	31693
724.107	31473.87
724.301	31303.88
724.495	31301.84
724.689	31641.8
724.883	31385.8
725.077	31176.91
725.271	31281.36
725.465	31606.98
725.659	31414.48
725.853	31394
726.046	30769.37
726.24	30845.14
726.434	30974.16
726.628	31033.55
726.822	30859.48
727.015	31879.36
727.209	31078.61
727.403	30982.35
727.596	30925.01
727.79	31609.03
727.984	31301.84
728.177	31047.89
728.371	30884.05
728.565	31361.23
728.758	31109.33
728.952	30912.72
729.146	31297.74
729.339	31387.85
729.533	31066.32
729.726	31023.31
729.92	31133.9
730.113	31922.37
730.307	31566.02
730.5	31172.81
730.694	30609.62
730.887	31101.14
731.081	31537.35
731.274	31051.98
731.468	30822.61
731.661	31453.39
731.854	31416.52
732.048	30976.21
732.241	30943.44
732.435	31279.31
732.628	31094.99
732.821	31121.62
733.014	30914.77
733.208	31043.79
733.401	31443.15
733.594	31103.18
733.788	31189.2
733.981	31582.41
734.174	31244.49
734.367	31101.14
734.56	31203.53
734.754	31412.43
734.947	31588.55
735.14	30656.73
735.333	31410.38
735.526	31453.39
735.719	31008.98
735.912	30988.5
736.105	30865.62
736.298	30867.67
736.491	30947.54
736.684	30499.03
736.877	30634.2
737.07	30935.25
737.263	31240.4
737.456	30720.21
737.649	30855.38
737.842	31021.27
738.035	31279.31
738.228	30279.9
738.421	31060.18
738.614	31434.95
738.807	31176.91
739	30445.79
739.192	30316.76
739.385	30943.44
739.578	31066.32
739.771	30802.13
739.964	30011.62
740.156	31004.88
740.349	30662.87
740.542	30685.4
740.735	30292.19
740.927	30453.98
741.12	30699.73
741.313	30234.85
741.505	30634.2
741.698	30247.13
741.891	30613.72
742.083	30501.08
742.276	30560.47
742.468	30822.61
742.661	30585.05
742.854	30208.22
743.046	30322.91
743.239	31043.79
743.431	30732.5
743.624	30159.07
743.816	29968.61
744.009	30585.05
744.201	30398.68
744.393	30458.07
744.586	29800.68
744.778	30501.08
744.971	30308.57
745.163	30523.61
745.355	30296.28
745.548	30247.13
745.74	30204.13
745.932	30327
746.125	30253.28
746.317	30871.76
746.509	30421.21
746.702	29948.13
746.894	29884.64
747.086	30347.48
747.278	30828.76
747.471	29980.9
747.663	30058.72
747.855	30587.1
748.047	30044.38
748.239	30236.89
748.431	30238.94
748.623	30931.15
748.815	30288.09
749.008	29952.23
749.2	30060.77
749.392	30415.07
749.584	30134.49
749.776	30099.68
749.968	30390.49
750.16	30820.56
750.352	29888.74
750.544	29579.5
750.736	29722.85
750.928	30642.39
751.12	30150.88
751.311	29806.82
751.503	29921.51
751.695	30245.09
751.887	30009.57
752.079	29587.69
752.271	29329.64
752.463	30781.65
752.654	29976.8
752.846	29884.64
753.038	29667.56
753.23	29513.96
753.421	29997.28
753.613	29260.01
753.805	29911.27
753.997	29802.72
754.188	29921.51
754.38	29671.65
754.572	29567.21
754.763	29628.65
754.955	29788.39
755.146	29589.74
755.338	29569.26
755.53	29401.32
755.721	29466.86
755.913	29458.67
756.104	29049.07
756.296	29286.64
756.487	29632.74
756.679	29249.77
756.87	28946.67
757.062	28866.8
757.253	29245.68
757.445	28680.44
757.636	29264.11
757.827	29477.1
758.019	29896.93
758.21	28872.95
758.401	29229.29
758.593	29429.99
758.784	29040.88
758.975	28514.55
759.167	28877.04
759.358	29253.87
759.549	29255.92
759.74	28291.32
759.932	28508.41
760.123	28926.19
760.314	28451.06
760.505	28467.45
760.696	28248.32
760.888	29446.38
761.079	28766.45
761.27	28156.16
761.461	28344.57
761.652	29339.88
761.843	28459.26
762.034	28537.08
762.225	28410.11
762.416	28256.51
762.607	27998.46
762.798	28215.55
762.989	28174.59
763.18	29133.04
763.371	28113.15
763.562	28096.77
763.753	27883.78
763.944	28463.35
764.135	28436.73
764.326	27939.07
764.517	27552.01
764.708	27894.02
764.899	28225.79
765.089	27355.4
765.28	27455.75
765.471	27945.22
765.662	27668.74
765.853	27638.02
766.043	27502.85
766.234	28010.75
766.425	27869.44
766.615	27638.02
766.806	27451.66
766.997	28027.13
767.187	27758.85
767.378	27531.53
767.569	26976.53
767.759	27666.69
767.95	27853.06
768.141	27365.64
768.331	27130.12
768.522	27455.75
768.712	27382.02
768.903	27232.52
769.093	27083.02
769.284	27779.33
769.474	27465.99
769.665	26599.7
769.855	27105.55
770.046	27480.33
770.236	27128.08
770.426	26808.59
770.617	27228.43
770.807	27187.47
770.998	27013.39
771.188	26841.36
771.378	26665.24
771.569	27119.88
771.759	26951.95
771.949	26425.62
772.139	26810.64
772.33	27046.16
772.52	27236.62
772.71	26302.75
772.9	26171.68
773.09	27144.46
773.281	26870.03
773.471	26145.05
773.661	26335.51
773.851	26380.57
774.041	26267.93
774.231	26116.38
774.421	26319.13
774.611	26347.8
774.802	26255.64
774.992	26220.83
775.182	26028.32
775.372	26376.47
775.562	26206.49
775.752	26231.07
775.942	25610.53
776.131	26661.14
776.321	26331.42
776.511	25628.96
776.701	25741.6
776.891	26423.58
777.081	25676.07
777.271	25819.42
777.461	25676.07
777.651	26116.38
777.84	26130.72
778.03	25829.66
778.22	25499.94
778.41	26063.13
778.599	25452.84
778.789	25671.97
778.979	25436.45
779.169	25678.11
779.358	25524.52
779.548	25946.4
779.738	24869.17
779.927	25696.55
780.117	25594.15
780.307	25205.03
780.496	24873.26
780.686	25604.39
780.875	25465.13
781.065	25194.79
781.254	24893.74
781.444	25252.14
781.633	25227.56
781.823	24944.94
782.012	24860.98
782.202	25219.37
782.391	25092.4
782.581	24838.45
782.77	24875.31
782.96	25332.01
783.149	24717.62
783.338	24912.17
783.528	24635.7
783.717	24924.46
783.906	25432.36
784.096	24656.18
784.285	24451.38
784.474	24592.69
784.663	24934.7
784.853	24447.29
785.042	24549.68
785.231	24631.6
785.42	25080.11
785.61	24561.97
785.799	24342.84
785.988	24754.48
786.177	24271.16
786.366	24019.26
786.555	24604.98
786.744	24576.31
786.933	24779.06
787.122	23992.64
787.312	23968.06
787.501	24283.45
787.69	24521.01
787.879	24312.12
788.068	23869.76
788.257	23585.09
788.445	23923.01
788.634	23970.11
788.823	23900.48
789.012	24820.02
789.201	24318.26
789.39	24158.52
789.579	23621.95
789.768	24004.92
789.957	24047.93
790.145	23662.91
790.334	23978.3
790.523	24068.41
790.712	23785.79
790.9	23740.74
791.089	23624
791.278	24219.96
791.467	23755.07
791.655	23994.68
791.844	23892.29
792.033	23732.54
792.221	23517.51
792.41	23470.4
792.599	22993.23
792.787	23683.39
792.976	23646.53
793.164	23089.48
793.353	23099.72
793.541	23824.7
793.73	23464.26
793.918	23292.23
794.107	23083.34
794.295	23114.06
794.484	23451.97
794.672	23179.59
794.861	23028.04
795.049	23568.71
795.238	23425.35
795.426	23204.17
795.614	23189.83
795.803	23249.22
795.991	23466.31
796.179	22917.45
796.368	22753.62
796.556	23454.02
796.744	22798.67
796.932	23091.53
797.121	22802.77
797.309	22950.22
797.497	23095.63
797.685	22626.64
797.874	23060.81
798.062	22931.79
798.25	23294.28
798.438	23345.48
798.626	22948.17
798.814	23116.11
799.002	23488.84
799.19	22972.75
799.378	22612.31
799.566	23136.59
799.755	23261.51
799.943	22743.38
800.131	22868.3
800.318	22987.08
800.506	23011.66
800.694	22432.08
800.882	22767.95
801.07	23193.93
801.258	22698.32
801.446	22563.15
801.634	22575.44
801.822	22694.22
802.01	22616.4
802.197	22579.54
802.385	22864.21
802.573	22862.16
802.761	22802.77
802.949	22894.93
803.136	22632.79
803.324	23517.51
803.512	23155.02
803.699	22782.29
803.887	22698.32
804.075	23353.67
804.262	23085.39
804.45	22511.96
804.638	23071.05
804.825	23017.8
805.013	22827.34
805.201	22780.24
805.388	22649.17
805.576	22995.28
805.763	23679.3
805.951	22892.88
806.138	22987.08
806.326	23640.39
806.513	23499.08
806.701	22878.54
806.888	23179.59
807.075	23472.45
807.263	23970.11
807.45	23038.28
807.638	22849.87
807.825	23724.35
808.012	23468.36
808.2	22858.06
808.387	23400.77
808.574	23417.16
808.761	23714.11
808.949	23066.95
809.136	22950.22
809.323	23327.05
809.51	23673.15
809.698	23169.35
809.885	23042.38
810.072	23480.64
810.259	23812.42
810.446	23427.4
810.633	23261.51
810.82	23916.86
811.008	23982.4
811.195	23615.81
811.382	23439.68
811.569	23642.43
811.756	23177.54
811.943	23589.19
812.13	23128.39
812.317	23460.16
812.504	23570.76
812.691	23386.44
812.878	23337.29
813.064	23845.18
813.251	23726.4
813.438	23337.29
813.625	23339.33
813.812	23259.46
813.999	23556.42
814.186	23490.88
814.372	23193.93
814.559	23281.99
814.746	23511.36
814.933	22960.46
815.12	23484.74
815.306	23294.28
815.493	23064.91
815.68	23105.87
815.866	23269.7
816.053	23882.05
816.24	23894.33
816.426	23296.33
816.613	23255.37
816.799	23417.16
816.986	23763.26
817.173	23128.39
817.359	22982.99
817.546	23353.67
817.732	23097.67
817.919	23011.66
818.105	23226.7
818.292	23499.08
818.478	23507.27
818.665	23159.11
818.851	23001.42
819.037	23484.74
819.224	23128.39
819.41	23236.94
819.597	22931.79
819.783	23466.31
819.969	23353.67
820.156	22991.18
820.342	22974.8
820.528	23693.63
820.714	23306.57
820.901	23030.09
821.087	22753.62
821.273	23646.53
821.459	22767.95
821.646	22823.25
821.832	22874.45
822.018	23140.68
822.204	23064.91
822.39	22358.36
822.576	22653.26
822.762	23236.94
822.948	22571.35
823.134	22540.63
823.32	22477.14
823.507	22724.94
823.693	23015.76
823.879	23056.71
824.065	22495.57
824.25	22284.63
824.436	22675.79
824.622	22589.78
824.808	22610.26
824.994	22571.35
825.18	22468.95
825.366	22337.88
825.552	22333.78
825.738	22167.9
825.923	22640.98
826.109	22759.76
826.295	21989.72
826.481	22319.45
826.667	22817.1
826.852	22663.5
827.038	22489.43
827.224	22690.13
827.409	23093.58
827.595	22075.74
827.781	22192.47
827.966	22473.04
828.152	22440.28
828.338	22157.66
828.523	21723.49
828.709	22135.13
828.894	22368.6
829.08	21944.67
829.266	21760.35
829.451	21938.52
829.637	22071.64
829.822	21893.47
830.008	21866.85
830.193	22133.08
830.378	22075.74
830.564	21999.96
830.749	21717.34
830.935	21930.33
831.12	22053.21
831.305	21401.96
831.491	21885.28
831.676	21608.8
831.861	22079.83
832.047	21674.34
832.232	21432.68
832.417	21852.51
832.602	21803.36
832.788	21449.06
832.973	21463.4
833.158	21584.23
833.343	21616.99
833.528	21377.38
833.714	21479.78
833.899	21844.32
834.084	21926.24
834.269	21219.69
834.454	21272.93
834.639	21881.18
834.824	21578.08
835.009	21524.83
835.194	21444.96
835.379	21494.11
835.564	21444.96
835.749	21115.24
835.934	21178.73
836.119	21494.11
836.304	21348.71
836.489	21227.88
836.674	21217.64
836.859	21125.48
837.044	21625.18
837.228	21199.21
837.413	20877.68
837.598	21350.76
837.783	21447.01
837.968	21129.58
838.152	20613.49
838.337	20547.95
838.522	21014.89
838.707	21424.48
838.891	21127.53
839.076	21002.6
839.261	21164.39
839.445	20439.41
839.63	20679.02
839.815	21156.2
839.999	20846.96
840.184	20347.25
840.368	20382.07
840.553	21234.02
840.737	20957.55
840.922	20502.9
841.106	20343.16
841.291	20171.13
841.475	20801.9
841.66	20439.41
841.844	20199.8
842.029	21336.42
842.213	20056.44
842.397	20142.46
842.582	20246.9
842.766	20838.76
842.951	20638.06
843.135	20445.55
843.319	19976.57
843.504	20339.06
843.688	20732.27
843.872	19829.12
844.056	20160.89
844.241	20527.47
844.425	20345.2
844.609	20433.27
844.793	19822.97
844.977	20363.64
845.161	20056.44
845.346	19935.61
845.53	19734.91
845.714	20058.49
845.898	20492.66
846.082	19667.33
846.266	20089.21
846.45	19759.49
846.634	20070.78
846.818	19532.16
847.002	19859.84
847.186	20152.7
847.37	19855.74
847.554	19491.2
847.738	19982.71
847.922	19706.24
848.106	19929.47
848.29	19380.61
848.473	19327.36
848.657	19700.09
848.841	19710.33
849.025	19333.51
849.209	19024.26
849.392	19671.42
849.576	19270.02
849.76	19202.44
849.944	19450.24
850.127	19675.52
850.311	18962.83
850.495	19263.88
850.678	18821.52
850.862	19808.64
851.046	19769.72
851.229	19243.4
851.413	19016.07
851.596	19487.11
851.78	19118.47
851.964	19143.05
852.147	19075.46
852.331	19988.86
852.514	19505.54
852.698	18885
852.881	18684.3
853.065	19628.42
853.248	18887.05
853.431	18663.82
853.615	19009.93
853.798	19374.47
853.982	18946.44
854.165	18846.09
854.348	18639.25
854.532	18764.17
854.715	18762.12
854.898	18712.97
855.081	18495.89
855.265	19204.49
855.448	18938.25
855.631	18516.37
855.814	18499.98
855.997	18766.22
856.181	18678.16
856.364	18289.04
856.547	18373.01
856.73	18637.2
856.913	18569.62
857.096	18391.44
857.279	18301.33
857.462	18114.97
857.645	18647.44
857.828	18299.28
858.011	18088.34
858.194	18133.4
858.377	18553.23
858.56	17863.07
858.743	18272.66
858.926	18033.05
859.109	18317.72
859.292	18041.24
859.475	18074.01
859.658	18680.21
859.841	18291.09
860.023	17863.07
860.206	17801.63
860.389	18289.04
860.572	18385.3
860.755	17775
860.937	17748.38
861.12	18184.6
861.303	17777.05
861.486	17768.86
861.668	17828.25
861.851	17822.11
862.034	17738.14
862.216	17576.35
862.399	17340.83
862.581	17840.54
862.764	17852.83
862.947	17236.39
863.129	17330.59
863.312	16951.72
863.494	18037.14
863.677	17340.83
863.859	17029.54
864.042	17508.77
864.224	17813.91
864.406	17564.06
864.589	17054.12
864.771	17488.29
864.954	16910.76
865.136	17138.09
865.318	16961.96
865.501	17123.75
865.683	16890.28
865.865	17039.78
866.048	17007.02
866.23	17326.5
866.412	17144.23
866.594	16665
866.777	17177
866.959	17211.81
867.141	16822.7
867.323	17090.98
867.505	16644.52
867.687	16755.11
867.869	17045.93
868.052	16826.79
868.234	16660.91
868.416	16931.24
868.598	17158.56
868.78	16406.96
868.962	16640.43
869.144	16988.58
869.326	17004.97
869.508	16593.33
869.69	16626.09
869.872	16523.69
870.054	17144.23
870.236	16413.1
870.417	16642.48
870.599	16800.17
870.781	17254.82
870.963	16519.6
871.145	16601.52
871.327	16517.55
871.508	16761.26
871.69	16382.38
871.872	16810.41
872.054	16923.05
872.235	16826.79
872.417	16495.02
872.599	16427.44
872.78	17189.28
872.962	16656.81
873.144	16140.72
873.325	16187.83
873.507	16726.44
873.689	16808.36
873.87	16347.57
874.052	16597.42
874.233	16519.6
874.415	16839.08
874.596	16396.72
874.778	16488.88
874.959	16488.88
875.141	16980.39
875.322	16343.47
875.503	16294.32
875.685	16896.42
875.866	16261.55
876.048	16214.45
876.229	16261.55
876.41	16329.14
876.592	16572.85
876.773	16329.14
876.954	16208.31
877.136	17060.26
877.317	16378.29
877.498	16298.42
877.679	16419.25
877.86	16734.64
878.042	16763.31
878.223	16368.05
878.404	16689.58
878.585	16798.12
878.766	16773.55
878.947	16904.62
879.128	16693.68
879.309	16871.85
879.49	16828.84
879.672	16552.37
879.853	16611.76
880.034	16576.94
880.215	16867.75
880.396	16740.78
880.576	16501.17
880.757	16585.13
880.938	17144.23
881.119	16812.46
881.3	16615.85
881.481	16869.8
881.662	17873.31
881.843	16503.21
882.023	16554.41
882.204	17287.59
882.385	17252.77
882.566	16728.49
882.747	16857.51
882.927	17152.42
883.108	17228.2
883.289	17050.02
883.469	17156.52
883.65	17322.4
883.831	17029.54
884.011	17301.92
884.192	17000.87
884.373	17600.93
884.553	17209.76
884.734	17177
884.914	17351.07
885.095	18186.65
885.275	18010.52
885.456	17736.09
885.636	17027.49
885.817	17623.45
885.997	17492.38
886.178	17230.24
886.358	17308.07
886.538	17609.12
886.719	18629.01
886.899	17211.81
887.08	17342.88
887.26	17840.54
887.44	17238.44
887.621	17224.1
887.801	17215.91
887.981	18299.28
888.161	17994.14
888.342	17639.84
888.522	17531.3
888.702	17879.45
888.882	17908.12
889.062	17691.04
889.242	17312.16
889.423	18055.58
889.603	17809.82
889.783	17732
889.963	17480.1
890.143	17813.91
890.323	18055.58
890.503	17625.5
890.683	17496.48
890.863	17861.02
891.043	17639.84
891.223	17586.59
891.403	17666.46
891.583	17830.3
891.763	17723.8
891.943	17740.19
892.122	17328.55
892.302	17811.87
892.482	17578.4
892.662	17383.84
892.842	17705.37
893.022	17861.02
893.201	17592.73
893.381	17750.43
893.561	17572.25
893.741	17836.44
893.92	17807.77
894.1	17627.55
894.28	17500.58
894.459	17594.78
894.639	17764.76
894.819	17330.59
894.998	17656.22
895.178	17760.67
895.357	17854.87
895.537	17107.37
895.716	17164.71
895.896	17336.74
896.075	18033.05
896.255	17197.48
896.434	17090.98
896.614	17910.17
896.793	17744.28
896.973	17295.78
897.152	16865.71
897.331	17488.29
897.511	17660.32
897.69	16800.17
897.87	16990.63
898.049	17201.57
898.228	17267.11
898.407	16851.37
898.587	17064.36
898.766	17109.41
898.945	17392.03
899.124	16689.58
899.304	17013.16
899.483	17084.84
899.662	17521.06
899.841	16484.78
900.02	16615.85
900.199	16986.54
900.378	17007.02
900.557	16722.35
900.737	16331.19
900.916	16787.88
901.095	16695.72
901.274	16826.79
901.453	16423.34
901.632	16155.06
901.811	16269.75
901.989	16124.34
902.168	15978.93
902.347	16599.47
902.526	15966.65
902.705	15935.93
902.884	16144.82
903.063	16697.77
903.242	16570.8
903.42	15858.1
903.599	15876.54
903.778	16120.24
903.957	16322.99
904.135	15694.27
904.314	15698.36
904.493	15987.13
904.672	15796.67
904.85	15305.15
905.029	15387.07
905.207	15669.69
905.386	16253.36
905.565	15100.36
905.743	15221.19
905.922	15217.09
906.1	15206.85
906.279	14936.52
906.457	15043.01
906.636	15114.69
906.814	14815.69
906.993	14404.05
907.171	14776.78
907.35	14827.98
907.528	14893.51
907.707	14653.9
907.885	14254.55
908.063	14637.52
908.242	14289.36
908.42	14371.28
908.598	14303.7
908.777	14617.04
908.955	14162.39
909.133	14426.57
909.311	14029.27
909.49	14361.04
909.668	14555.6
909.846	14133.72
910.024	13935.06
910.202	14494.16
910.38	14813.64
910.559	14076.37
910.737	14152.15
910.915	14852.55
911.093	14633.42
911.271	14422.48
911.449	14860.74
911.627	14957
911.805	15325.63
911.983	14651.85
912.161	14434.77
912.339	14895.56
912.517	15516.09
912.695	14932.42
912.872	14729.67
913.05	14897.61
913.228	15053.25
913.406	14692.81
913.584	14842.31
913.762	15161.8
913.939	14723.53
914.117	14750.15
914.295	14608.84
914.473	15055.3
914.65	14963.14
914.828	14635.47
915.006	14379.47
915.184	14711.24
915.361	14881.22
915.539	15079.88
915.716	14883.27
915.894	14973.38
916.072	15126.98
916.249	14858.7
916.427	14670.28
916.604	14668.23
916.782	14952.9
916.959	14604.75
917.137	14445.01
917.314	14938.57
917.492	14897.61
917.669	14510.54
917.847	14606.8
918.024	14479.82
918.201	14418.38
918.379	14547.4
918.556	14221.78
918.733	14862.79
918.911	14352.85
919.088	14432.72
919.265	14133.72
919.442	14504.4
919.62	14434.77
919.797	14328.27
919.974	13986.26
920.151	14383.57
920.328	14377.42
920.506	14211.54
920.683	14383.57
920.86	14180.82
921.037	14166.48
921.214	14184.91
921.391	13890.01
921.568	14670.28
921.745	14244.31
921.922	13689.31
922.099	13890.01
922.276	14436.81
922.453	14135.76
922.63	13715.93
922.807	13949.4
922.984	14023.12
923.161	13629.91
923.338	13842.9
923.514	13717.98
923.691	13898.2
923.868	13765.08
924.045	13771.22
924.222	13533.66
924.399	13851.1
924.575	14225.87
924.752	13285.86
924.929	13656.54
925.105	13656.54
925.282	13396.45
925.459	13478.36
925.635	13459.93
925.812	13496.8
925.989	13449.69
926.165	13277.66
926.342	12982.76
926.518	13089.25
926.695	13554.14
926.871	12892.65
927.048	12767.72
927.224	13566.43
927.401	13150.69
927.577	13046.24
927.754	12751.34
927.93	13132.26
928.107	13097.44
928.283	12814.82
928.459	12743.14
928.636	13066.72
928.812	12730.86
928.988	12456.43
929.165	12300.78
929.341	12493.29
929.517	12714.47
929.693	12569.07
929.87	11880.95
930.046	12671.47
930.222	12190.19
930.398	12198.38
930.574	12372.46
930.751	12325.36
930.927	12038.64
931.103	12005.88
931.279	11956.72
931.455	11876.85
931.631	11909.62
931.807	11817.46
931.983	11866.61
932.159	11633.15
932.335	12126.71
932.511	11782.65
932.687	11606.52
932.863	12032.5
933.039	11717.11
933.215	11371.01
933.391	11436.54
933.566	11407.87
933.742	11588.09
933.918	11135.49
934.094	10799.62
934.27	11219.46
934.445	11344.38
934.621	10945.03
934.797	10613.26
934.973	10985.99
935.148	10912.26
935.324	10408.46
935.5	10082.83
935.675	10725.9
935.851	10437.13
936.027	10091.02
936.202	9886.23
936.378	10091.02
936.553	9832.98
936.729	9935.38
936.904	9382.43
937.08	9108
937.255	9017.89
937.431	9015.84
937.606	8663.59
937.782	8856.1
937.957	8948.26
938.133	8614.44
938.308	8348.2
938.483	8587.82
938.659	8147.5
938.834	8024.62
939.009	7785.01
939.185	7897.65
939.36	7758.39
939.535	7524.92
939.71	7676.47
939.886	8210.99
940.061	7887.41
940.236	7311.93
940.411	7461.43
940.586	7594.55
940.761	7619.13
940.937	7148.09
941.112	7037.5
941.287	7354.94
941.462	7092.8
941.637	6744.64
941.812	6806.08
941.987	7221.82
942.162	7088.7
942.337	6828.61
942.512	6664.77
942.687	7080.51
942.862	7098.94
943.037	6388.3
943.212	6306.38
943.386	6586.95
943.561	6738.5
943.736	6586.95
943.911	6804.03
944.086	6703.68
944.26	6914.63
944.435	6347.34
944.61	6431.3
944.785	6892.1
944.959	7180.86
945.134	6496.84
945.309	6505.03
945.483	6484.55
945.658	7010.88
945.833	5970.51
946.007	6392.39
946.182	6955.58
946.357	6240.84
946.531	6466.12
946.706	6507.08
946.88	6240.84
947.055	6545.99
947.229	6462.02
947.404	6560.33
947.578	6953.54
947.752	6449.74
947.927	6337.1
948.101	6462.02
948.276	6799.94
948.45	6761.03
948.624	6814.27
948.799	6603.33
948.973	6840.9
949.147	6490.7
949.321	6615.62
949.496	6681.16
949.67	7090.75
949.844	6699.59
950.018	6740.55
950.193	6718.02
950.367	7334.46
950.541	6959.68
950.715	6797.89
950.889	7064.13
951.063	6951.49
951.237	7203.39
951.411	6675.01
951.585	6824.51
951.759	7141.95
951.933	7074.37
952.107	6916.67
952.281	6984.26
952.455	7553.59
952.629	7500.34
952.803	6978.11
952.977	6898.24
953.151	7195.2
953.325	7428.67
953.499	7279.16
953.672	6806.08
953.846	7090.75
954.02	7055.93
954.194	7041.6
954.368	7209.53
954.541	7701.05
954.715	7275.07
954.889	7133.76
955.062	7008.83
955.236	7498.3
955.41	7268.92
955.583	7414.33
955.757	6904.39
955.93	7598.65
956.104	7354.94
956.278	7066.17
956.451	7293.5
956.625	7512.63
956.798	7883.31
956.972	7492.15
957.145	7268.92
957.319	7752.24
957.492	7481.91
957.665	7604.79
957.839	7264.83
958.012	7625.27
958.185	7563.83
958.359	7381.56
958.532	7529.02
958.705	7817.78
958.879	7567.93
959.052	7432.76
959.225	7217.72
959.398	7836.21
959.572	7596.6
959.745	7381.56
959.918	7703.09
960.091	7510.58
960.264	7670.33
960.438	7191.1
960.611	7449.15
960.784	7699
960.957	7449.15
961.13	7725.62
961.303	7150.14
961.476	7522.87
961.649	7623.22
961.822	7219.77
961.995	7412.28
962.168	7873.07
962.341	7733.81
962.514	7322.17
962.686	7146.05
962.859	7486.01
963.032	7707.19
963.205	7303.74
963.378	7137.85
963.551	7830.07
963.723	7549.5
963.896	7486.01
964.069	7404.09
964.242	7539.26
964.414	7578.17
964.587	7369.27
964.76	7211.58
964.932	7709.24
965.105	7258.68
965.278	7395.9
965.45	7017.02
965.623	7422.52
965.795	7461.43
965.968	7191.1
966.14	7377.47
966.313	7219.77
966.485	7580.22
966.658	7289.4
966.83	7031.36
967.003	7746.1
967.175	7610.93
967.348	7221.82
967.52	7244.35
967.692	7553.59
967.865	7410.23
968.037	7334.46
968.209	7459.38
968.382	7612.98
968.554	7735.86
968.726	7037.5
968.898	7088.7
969.071	7344.7
969.243	7424.57
969.415	7078.46
969.587	7215.68
969.759	7684.66
969.932	7402.04
970.104	7252.54
970.276	6781.51
970.448	6906.43
970.62	7010.88
970.792	7100.99
970.964	6912.58
971.136	7465.53
971.308	7268.92
971.48	6978.11
971.652	7033.41
971.824	7645.75
971.996	6822.47
972.168	6808.13
972.339	6861.38
972.511	7256.64
972.683	6994.5
972.855	7047.74
973.027	7002.69
973.199	6826.56
973.37	7166.53
973.542	6914.63
973.714	6941.25
973.886	7084.61
974.057	7232.06
974.229	6449.74
974.401	6638.15
974.572	6660.68
974.744	6361.67
974.915	6482.5
975.087	6525.51
975.259	7293.5
975.43	6627.91
975.602	6320.71
975.773	6611.53
975.945	6681.16
976.116	6816.32
976.288	6464.07
976.459	6695.49
976.63	6605.38
976.802	6773.32
976.973	6466.12
977.145	6699.59
977.316	7129.66
977.487	6677.06
977.659	6431.3
977.83	6416.97
978.001	7133.76
978.172	6744.64
978.344	6443.59
978.515	6527.56
978.686	6496.84
978.857	6816.32
979.028	6302.28
979.2	6212.17
979.371	6787.65
979.542	6378.06
979.713	6421.06
979.884	5798.48
980.055	6199.88
980.226	6261.32
980.397	6064.72
980.568	6132.3
980.739	6728.26
980.91	6193.74
981.081	6306.38
981.252	6025.81
981.423	6459.98
981.594	6490.7
981.765	5931.6
981.936	5911.12
982.106	6230.6
982.277	6353.48
982.448	5821.01
982.619	5898.83
982.79	6085.2
982.96	6349.39
983.131	5915.22
983.302	5597.78
983.472	5929.55
983.643	6036.05
983.814	5982.8
983.984	5501.53
984.155	6023.76
984.326	6251.08
984.496	5788.24
984.667	5673.56
984.837	5646.93
985.008	6267.47
985.178	5800.53
985.349	5597.78
985.519	5898.83
985.69	5560.92
985.86	5438.04
986.031	5474.9
986.201	5782.1
986.371	5927.5
986.542	5286.49
986.712	5347.93
986.882	5964.37
987.053	5837.39
987.223	5417.56
987.393	5653.08
987.563	5636.69
987.734	5673.56
987.904	5829.2
988.074	5552.73
988.244	5626.45
988.414	5628.5
988.585	5315.16
988.755	5360.22
988.925	5593.69
989.095	5757.52
989.265	5112.41
989.435	5204.57
989.605	5464.66
989.775	5485.14
989.945	5347.93
990.115	5085.79
990.285	5384.79
990.455	5356.12
990.625	5175.9
990.795	5014.11
990.965	5507.67
991.134	4833.89
991.304	4919.9
991.474	4917.86
991.644	5354.07
991.814	5435.99
991.984	4825.7
992.153	4866.66
992.323	4975.2
992.493	5139.04
992.662	4688.48
992.832	4891.23
993.002	5231.19
993.171	5161.56
993.341	4612.71
993.511	5010.01
993.68	4991.58
993.85	5206.62
994.019	4512.36
994.189	4665.96
994.358	4805.22
994.528	4835.94
994.697	4371.05
994.867	4463.21
995.036	5155.42
995.206	4907.62
995.375	4594.28
995.544	4674.15
995.714	4702.82
995.883	4696.67
996.052	4764.26
996.222	4143.72
996.391	5155.42
996.56	4637.28
996.73	4348.52
996.899	4250.22
997.068	4938.34
997.237	4592.23
997.406	4346.47
997.576	4346.47
997.745	4526.69
997.914	4774.5
998.083	4051.56
998.252	4153.96
998.421	4401.77
998.59	4211.31
998.759	4137.58
998.928	3969.65
999.097	4645.48
999.266	4305.51
999.435	4106.86
999.604	3734.13
999.773	4749.92
999.942	4434.53
1000.111	3914.35
1000.28	3799.66
1000.448	4078.19
1000.617	3994.22
1000.786	4219.5
1000.955	3836.53
1001.124	4303.47
1001.292	4864.61
1001.461	3865.2
1001.63	3768.95
1001.798	4450.92
1001.967	4504.17
1002.136	3625.59
1002.304	3828.34
1002.473	4061.8
1002.642	4100.72
1002.81	3816.05
1002.979	3770.99
1003.147	4213.35
1003.316	4581.99
1003.484	3631.73
1003.653	3601.01
1003.821	4303.47
1003.99	3781.23
1004.158	3748.47
1004.327	3666.55
1004.495	4029.04
1004.663	3672.69
1004.832	3668.59
1005	3431.03
1005.168	3971.69
1005.337	3717.75
1005.505	3388.02
1005.673	3576.44
1005.842	3852.91
1006.01	3807.86
1006.178	3433.08
1006.346	3302.01
1006.514	3756.66
1006.683	3930.73
1006.851	3334.78
1007.019	3422.84
1007.187	3508.85
1007.355	3168.89
1007.523	3076.73
1007.691	2943.61
1007.859	3177.08
1008.027	3682.93
1008.195	3238.52
1008.363	3138.17
1008.531	3680.88
1008.699	3150.46
1008.867	3084.92
1009.035	3175.03
1009.203	3627.64
1009.37	3412.6
1009.538	3127.93
1009.706	3474.04
1009.874	3332.73
1010.042	3324.54
1010.209	2816.64
1010.377	3000.96
1010.545	3474.04
1010.713	3199.61
1010.88	2882.17
1011.048	3007.1
1011.216	3050.11
1011.383	3519.09
1011.551	2880.13
1011.718	2904.7
1011.886	3381.88
1012.054	3127.93
1012.221	2759.3
1012.389	2785.92
1012.556	3060.35
1012.724	3478.13
1012.891	2747.01
1013.058	2484.87
1013.226	3166.84
1013.393	3115.64
1013.561	2626.18
1013.728	2538.12
1013.895	3162.75
1014.063	3013.24
1014.23	2507.4
1014.397	2525.83
1014.565	3105.4
1014.732	2775.68
1014.899	2554.5
1015.066	2427.53
1015.233	2859.65
1015.401	3017.34
1015.568	2611.84
1015.735	2663.04
1015.902	2792.06
1016.069	2812.54
1016.236	2398.85
1016.403	2415.24
1016.57	2419.33
1016.737	2802.3
1016.904	2458.25
1017.071	2206.34
1017.238	2538.12
1017.405	2876.03
1017.572	2228.87
1017.739	2640.51
1017.906	2671.23
1018.073	2802.3
1018.24	2251.4
1018.407	2302.6
1018.573	2943.61
1018.74	2425.48
1018.907	2230.92
1019.074	2085.51
1019.241	2722.43
1019.407	2398.85
1019.574	2157.19
1019.741	2011.79
1019.907	2495.11
1020.074	2445.96
1020.241	1966.73
1020.407	2038.41
1020.574	2513.54
1020.74	2505.35
1020.907	2052.75
1021.073	2038.41
1021.24	2767.49
1021.406	2804.35
1021.573	1997.45
1021.739	1989.26
1021.906	2540.16
1022.072	2318.98
1022.239	1981.07
1022.405	1870.48
1022.571	2304.65
1022.738	2146.95
1022.904	1899.15
1023.07	1972.88
1023.237	2280.07
1023.403	2714.24
1023.569	1850
1023.735	1940.11
1023.902	2339.46
1024.068	2259.59
1024.234	1806.99
1024.4	1858.19
1024.566	2269.83
1024.732	2343.56
1024.898	1845.9
1025.065	1688.21
1025.231	2308.74
1025.397	2083.47
1025.563	1847.95
1025.729	1561.23
1025.895	1708.69
1026.061	1862.29
1026.227	1669.78
1026.392	1813.14
1026.558	2388.61
1026.724	2116.23
1026.89	1698.45
1027.056	1753.74
1027.222	2212.49
1027.388	1991.31
1027.553	1614.48
1027.719	1526.42
1027.885	2394.76
1028.051	2187.91
1028.216	1368.73
1028.382	1575.57
1028.548	2075.28
1028.713	1837.71
1028.879	1489.56
1029.045	1694.35
1029.21	2214.54
1029.376	2261.64
1029.541	1624.72
1029.707	1548.95
1029.873	2040.46
1030.038	2171.53
1030.204	1522.32
1030.369	1630.87
1030.534	2085.51
1030.7	1800.85
1030.865	1538.71
1031.031	1487.51
1031.196	1938.06
1031.361	1837.71
1031.527	1428.12
1031.692	1346.2
1031.857	1407.64
1032.023	1950.35
1032.188	1329.81
1032.353	1583.76
1032.518	2151.05
1032.684	1829.52
1032.849	1307.29
1033.014	1442.45
1033.179	1979.02
1033.344	1821.33
1033.509	1501.84
1033.674	1395.35
1033.839	1913.49
1034.004	1835.66
1034.17	1247.9
1034.335	1247.9
1034.5	1569.43
1034.664	1475.22
1034.829	1268.38
1034.994	1327.77
1035.159	1772.18
1035.324	1585.81
1035.489	1286.81
1035.654	1247.9
1035.819	1999.5
1035.984	1712.78
1036.148	1235.61
1036.313	1196.7
1036.478	1915.53
1036.643	1626.77
1036.807	1137.31
1036.972	1157.79
1037.137	1802.9
1037.301	1530.52
1037.466	1002.14
1037.631	1229.46
1037.795	1786.51
1037.96	1651.35
1038.124	1231.51
1038.289	1075.87
1038.454	1706.64
1038.618	1614.48
1038.783	1129.11
1038.947	1114.78
1039.111	1557.14
1039.276	1350.29
1039.44	1084.06
1039.605	1362.58
1039.769	1340.05
1039.933	1378.97
1040.098	1122.97
1040.262	1321.62
1040.426	1632.91
1040.591	1493.65
1040.755	977.56
1040.919	1151.64
1041.083	1493.65
1041.248	1362.58
1041.412	963.23
1041.576	973.47
1041.74	1313.43
1041.904	1503.89
1042.068	914.08
1042.232	1002.14
1042.397	1553.04
1042.561	1464.98
1042.725	746.14
1042.889	1032.86
1043.053	1542.8
1043.217	1391.25
1043.381	1041.05
1043.544	879.26
1043.708	1473.17
1043.872	1077.91
1044.036	778.91
1044.2	764.58
1044.364	1475.22
1044.528	1716.88
1044.691	2198.15
1044.855	817.82
1045.019	1405.59
1045.183	1387.16
1045.346	922.27
1045.51	887.45
1045.674	1333.91
1045.837	1428.12
1046.001	871.07
1046.165	785.05
1046.328	1720.98
1046.492	1411.73
1046.655	1075.87
1046.819	848.54
1046.983	1086.11
1047.146	1303.19
1047.31	774.81
1047.473	662.18
1047.636	1084.06
1047.8	975.52
1047.963	805.53
1048.127	731.81
1048.29	985.76
