Data from Hydrogel_Ink_Intensity_Test_1_USB4F045381__71__00071.txt Node

Date: Mon Jul 31 10:54:16 EDT 2023
User: mmckonesweet
Spectrometer: USB4F04538
Trigger mode: 4
Integration Time (sec): 9.000000E-1
Scans to average: 1
Electric dark correction enabled: true
Nonlinearity correction enabled: false
Boxcar width: 0
XAxis mode: Wavelengths
Number of Pixels in Spectrum: 3648
>>>>>Begin Spectral Data<<<<<
345.52	-1034.22
345.736	-1034.22
345.952	-1034.22
346.168	-1030.13
346.384	-966.64
346.6	-149.5
346.816	-163.84
347.032	-331.77
347.248	305.15
347.464	-264.19
347.68	-67.58
347.896	141.31
348.112	399.35
348.328	-124.93
348.544	-63.49
348.76	-6.14
348.975	325.63
349.191	-241.66
349.407	-141.31
349.623	49.15
349.839	-30.72
350.055	-126.97
350.27	131.07
350.486	264.19
350.702	354.3
350.918	219.13
351.133	-192.51
351.349	196.61
351.565	370.68
351.781	-182.27
351.996	161.79
352.212	329.72
352.428	-161.79
352.644	-157.69
352.859	-178.17
353.075	223.23
353.291	-26.62
353.506	-73.73
353.722	-219.13
353.938	-139.26
354.153	481.27
354.369	124.93
354.584	-262.14
354.8	256
355.016	-315.39
355.231	-258.04
355.447	-67.58
355.662	165.89
355.878	882.67
356.093	-393.21
356.309	28.67
356.524	-184.32
356.74	223.23
356.955	-229.37
357.171	-65.53
357.386	215.04
357.602	-182.27
357.817	-86.01
358.033	-157.69
358.248	296.96
358.464	159.74
358.679	-55.3
358.895	-323.58
359.11	4.1
359.325	268.28
359.541	247.8
359.756	-22.53
359.972	-262.14
360.187	229.37
360.402	-194.56
360.618	-163.84
360.833	1103.86
361.048	141.31
361.264	-174.08
361.479	-108.54
361.694	26.62
361.909	292.86
362.125	-157.69
362.34	-102.4
362.555	260.09
362.77	47.1
362.986	-174.08
363.201	-129.02
363.416	319.48
363.631	100.35
363.847	-188.41
364.062	-212.99
364.277	192.51
364.492	135.17
364.707	-137.21
364.922	-342.01
365.138	342.01
365.353	370.68
365.568	-262.14
365.783	-108.54
365.998	182.27
366.213	641.01
366.428	-198.65
366.643	92.16
366.858	362.49
367.073	249.85
367.288	-98.3
367.503	-305.15
367.718	200.7
367.933	387.07
368.148	-223.23
368.363	-38.91
368.578	-30.72
368.793	374.78
369.008	-172.03
369.223	-225.28
369.438	155.65
369.653	368.63
369.868	-217.08
370.083	-260.09
370.298	131.07
370.513	440.31
370.728	24.58
370.943	-163.84
371.157	-149.5
371.372	573.43
371.587	-227.32
371.802	-294.91
372.017	59.39
372.232	430.07
372.446	-26.62
372.661	-200.7
372.876	247.8
373.091	192.51
373.306	-43.01
373.52	-153.6
373.735	-122.88
373.95	452.6
374.165	-112.64
374.379	-94.21
374.594	-116.73
374.809	112.64
375.023	55.3
375.238	-251.9
375.453	274.43
375.667	-186.37
375.882	-67.58
376.097	-102.4
376.311	63.49
376.526	-24.58
376.741	-145.41
376.955	104.45
377.17	542.71
377.384	536.57
377.599	6.14
377.813	-225.28
378.028	536.57
378.242	290.81
378.457	-36.86
378.672	-249.85
378.886	112.64
379.101	-22.53
379.315	-219.13
379.53	-90.11
379.744	215.04
379.958	270.33
380.173	-145.41
380.387	-129.02
380.602	169.98
380.816	-86.01
381.031	-110.59
381.245	-86.01
381.459	249.85
381.674	2803.67
381.888	-108.54
382.103	149.5
382.317	-180.22
382.531	409.59
382.746	-77.82
382.96	-129.02
383.174	-45.06
383.388	415.74
383.603	141.31
383.817	-253.95
384.031	219.13
384.246	555
384.46	34.82
384.674	405.5
384.888	26.62
385.103	106.49
385.317	-251.9
385.531	-75.77
385.745	452.6
385.959	413.69
386.174	-176.13
386.388	-227.32
386.602	122.88
386.816	-36.86
387.03	-63.49
387.244	-20.48
387.458	155.65
387.672	432.12
387.887	-200.7
388.101	-233.47
388.315	397.31
388.529	186.37
388.743	-159.74
388.957	-215.04
389.171	329.72
389.385	-88.06
389.599	-53.25
389.813	126.97
390.027	133.12
390.241	690.17
390.455	-79.87
390.669	-18.43
390.883	12.29
391.097	481.27
391.311	77.82
391.525	-65.53
391.738	231.42
391.952	294.91
392.166	-30.72
392.38	-180.22
392.594	358.39
392.808	399.35
393.022	-129.02
393.236	-137.21
393.449	296.96
393.663	342.01
393.877	-206.84
394.091	-104.45
394.305	83.97
394.518	4.1
394.732	-206.84
394.946	-51.2
395.16	497.66
395.373	114.69
395.587	-133.12
395.801	-96.25
396.015	399.35
396.228	272.38
396.442	-305.15
396.656	-284.67
396.869	362.49
397.083	493.56
397.297	-49.15
397.51	-145.41
397.724	364.54
397.938	161.79
398.151	-231.42
398.365	-258.04
398.578	299
398.792	458.75
399.005	-14.34
399.219	-6.14
399.433	239.61
399.646	325.63
399.86	155.65
400.073	-16.38
400.287	399.35
400.5	133.12
400.714	43.01
400.927	-24.58
401.141	233.47
401.354	1153.01
401.567	272.38
401.781	-186.37
401.994	368.63
402.208	653.3
402.421	-45.06
402.635	-149.5
402.848	157.69
403.061	452.6
403.275	79.87
403.488	-186.37
403.701	595.96
403.915	460.79
404.128	139.26
404.341	-69.63
404.555	317.44
404.768	124.93
404.981	155.65
405.195	-102.4
405.408	520.18
405.621	344.06
405.834	157.69
406.048	-92.16
406.261	520.18
406.474	608.25
406.687	-16.38
406.9	36.86
407.114	59.39
407.327	296.96
407.54	-153.6
407.753	-243.71
407.966	-34.82
408.179	380.92
408.392	-57.34
408.605	-272.38
408.819	206.84
409.032	241.66
409.245	-133.12
409.458	202.75
409.671	358.39
409.884	456.7
410.097	-188.41
410.31	161.79
410.523	366.59
410.736	104.45
410.949	-24.58
411.162	-14.34
411.375	511.99
411.588	393.21
411.801	223.23
412.014	-30.72
412.227	151.55
412.44	96.25
412.653	-6.14
412.865	63.49
413.078	428.03
413.291	323.58
413.504	20.48
413.717	-124.93
413.93	337.91
414.143	65.54
414.356	-8.19
414.568	-96.25
414.781	405.5
414.994	239.61
415.207	40.96
415.42	36.86
415.632	342.01
415.845	661.49
416.058	-167.93
416.271	-151.55
416.483	231.42
416.696	673.78
416.909	-30.72
417.121	-116.73
417.334	301.05
417.547	698.36
417.759	-65.53
417.972	-67.58
418.185	53.25
418.397	419.83
418.61	-40.96
418.823	86.01
419.035	653.3
419.248	301.05
419.46	45.06
419.673	88.06
419.885	327.68
420.098	145.41
420.311	32.77
420.523	-251.9
420.736	366.59
420.948	174.08
421.161	-59.39
421.373	-186.37
421.586	268.28
421.798	57.34
422.01	-186.37
422.223	51.2
422.435	133.12
422.648	389.11
422.86	-75.77
423.073	-24.58
423.285	520.18
423.497	-59.39
423.71	-20.48
423.922	-45.06
424.134	391.16
424.347	632.82
424.559	315.39
424.771	288.76
424.984	157.69
425.196	356.35
425.408	-215.04
425.621	-65.53
425.833	423.93
426.045	436.22
426.257	-106.49
426.47	8.19
426.682	223.23
426.894	491.51
427.106	94.21
427.318	100.35
427.531	55.3
427.743	524.28
427.955	92.16
428.167	362.49
428.379	456.7
428.591	194.56
428.804	135.17
429.016	-6.14
429.228	167.93
429.44	393.21
429.652	223.23
429.864	-86.01
430.076	69.63
430.288	215.04
430.5	34.82
430.712	81.92
430.924	485.37
431.136	366.59
431.348	-190.46
431.56	-10.24
431.772	223.23
431.984	141.31
432.196	38.91
432.408	63.49
432.62	280.57
432.832	428.03
433.044	317.44
433.256	223.23
433.468	542.71
433.679	-38.91
433.891	-18.43
434.103	280.57
434.315	589.82
434.527	503.8
434.739	227.32
434.95	163.84
435.162	452.6
435.374	143.36
435.586	86.01
435.798	55.3
436.009	-14.34
436.221	243.71
436.433	108.54
436.645	43.01
436.856	223.23
437.068	626.68
437.28	30.72
437.491	286.72
437.703	509.94
437.915	348.15
438.126	129.02
438.338	305.15
438.55	331.77
438.761	415.74
438.973	106.49
439.184	100.35
439.396	407.55
439.608	509.94
439.819	-22.53
440.031	208.89
440.242	491.51
440.454	475.13
440.665	215.04
440.877	157.69
441.088	550.9
441.3	260.09
441.511	-129.02
441.723	65.54
441.934	432.12
442.146	395.26
442.357	217.08
442.569	436.22
442.78	317.44
442.991	763.89
443.203	415.74
443.414	-45.06
443.626	714.74
443.837	174.08
444.048	38.91
444.26	-104.45
444.471	333.82
444.682	575.48
444.894	-114.69
445.105	94.21
445.316	557.05
445.528	524.28
445.739	227.32
445.95	223.23
446.161	462.84
446.373	591.86
446.584	133.12
446.795	161.79
447.006	536.57
447.217	655.35
447.429	-38.91
447.64	22.53
447.851	821.24
448.062	415.74
448.273	-65.53
448.484	75.77
448.695	526.33
448.907	372.73
449.118	229.37
449.329	360.44
449.54	264.19
449.751	280.57
449.962	126.97
450.173	124.93
450.384	600.05
450.595	747.51
450.806	120.83
451.017	219.13
451.228	737.27
451.439	616.44
451.65	172.03
451.861	-112.64
452.072	157.69
452.283	350.2
452.494	309.24
452.705	120.83
452.915	839.67
453.126	548.86
453.337	278.52
453.548	129.02
453.759	653.3
453.97	983.03
454.181	423.93
454.391	176.13
454.602	503.8
454.813	645.11
455.024	245.76
455.235	167.93
455.445	528.38
455.656	618.49
455.867	407.55
456.078	182.27
456.288	319.48
456.499	649.21
456.71	131.07
456.921	532.47
457.131	522.23
457.342	479.22
457.553	309.24
457.763	215.04
457.974	552.95
458.184	651.25
458.395	176.13
458.606	137.21
458.816	751.6
459.027	919.54
459.237	430.07
459.448	147.45
459.659	753.65
459.869	1038.32
460.08	200.7
460.29	440.31
460.501	987.12
460.711	438.27
460.922	198.65
461.132	276.48
461.343	1189.87
461.553	258.04
461.764	280.57
461.974	309.24
462.184	829.43
462.395	665.59
462.605	374.78
462.816	204.8
463.026	714.74
463.236	911.35
463.447	288.76
463.657	276.48
463.867	843.76
464.078	620.53
464.288	401.4
464.498	366.59
464.709	636.92
464.919	628.73
465.129	385.02
465.339	309.24
465.55	729.08
465.76	882.67
465.97	417.79
466.18	272.38
466.391	921.59
466.601	774.13
466.811	595.96
467.021	241.66
467.231	749.56
467.441	956.4
467.651	497.66
467.862	124.93
468.072	657.4
468.282	1110
468.492	430.07
468.702	604.15
468.912	722.93
469.122	1355.76
469.332	800.76
469.542	452.6
469.752	1062.9
469.962	794.61
470.172	385.02
470.382	487.42
470.592	997.36
470.802	1107.95
471.012	804.85
471.222	452.6
471.432	974.83
471.642	1075.18
471.852	626.68
472.062	555
472.272	872.43
472.482	589.82
472.691	538.62
472.901	514.04
473.111	985.07
473.321	1361.9
473.531	546.81
473.741	714.74
473.95	1132.53
474.16	1009.65
474.37	714.74
474.58	632.82
474.79	1406.95
474.999	1183.73
475.209	616.44
475.419	698.36
475.628	919.54
475.838	1310.7
476.048	808.95
476.258	618.49
476.467	1404.91
476.677	1026.03
476.886	1034.22
477.096	897.01
477.306	976.88
477.515	1454.06
477.725	989.17
477.935	917.49
478.144	1443.82
478.354	1099.76
478.563	987.12
478.773	806.9
478.982	1355.76
479.192	1560.55
479.401	1044.46
479.611	843.76
479.82	1026.03
480.03	1300.46
480.239	968.69
480.449	1077.23
480.658	1607.66
480.868	1130.48
481.077	1142.77
481.287	1032.18
481.496	1349.61
481.705	1652.71
481.915	1253.36
482.124	1292.27
482.333	1462.25
482.543	1693.67
482.752	1140.72
482.961	1079.28
483.171	1554.41
483.38	1382.38
483.589	1218.54
483.799	1165.29
484.008	1359.85
484.217	1525.74
484.426	1284.08
484.636	1044.46
484.845	1538.02
485.054	1153.01
485.263	1574.89
485.472	1370.09
485.682	1855.46
485.891	1370.09
486.1	1040.37
486.309	1363.95
486.518	1656.81
486.727	1839.08
486.936	1214.45
487.146	1468.39
487.355	1959.91
487.564	1423.34
487.773	1460.2
487.982	1447.91
488.191	1542.12
488.4	1693.67
488.609	1335.28
488.818	1454.06
489.027	2297.82
489.236	2074.59
489.445	1439.72
489.654	1411.05
489.863	2099.17
490.072	1910.75
490.281	1859.56
490.49	1488.87
490.698	2136.03
490.907	2074.59
491.116	1589.22
491.325	1427.43
491.534	2107.36
491.743	1920.99
491.952	1689.57
492.16	1628.14
492.369	2025.44
492.578	2164.7
492.787	1697.77
492.996	1535.98
493.204	1687.53
493.413	2338.78
493.622	1357.8
493.831	1413.1
494.039	2275.29
494.248	1634.28
494.457	1777.64
494.665	1509.35
494.874	2037.73
495.083	2424.8
495.291	1736.68
495.5	1683.43
495.709	2297.82
495.917	2062.3
496.126	1867.75
496.335	1722.34
496.543	1927.14
496.752	2174.94
496.96	1972.19
497.169	1570.79
497.377	2131.94
497.586	2510.81
497.794	2033.63
498.003	1775.59
498.211	2105.31
498.42	2521.05
498.628	2011.11
498.837	1779.68
499.045	2234.33
499.254	2392.03
499.462	1779.68
499.671	1882.08
499.879	2658.26
500.087	2389.98
500.296	1910.75
500.504	1916.9
500.713	2330.59
500.921	2766.81
501.129	1886.18
501.338	1884.13
501.546	2203.61
501.754	2224.09
501.962	1910.75
502.171	1781.73
502.379	2381.79
502.587	2787.29
502.795	2004.96
503.004	1968.1
503.212	2314.2
503.42	2346.97
503.628	2152.42
503.837	2273.25
504.045	2525.15
504.253	2863.06
504.461	2095.07
504.669	1882.08
504.877	2600.92
505.085	2740.18
505.294	2017.25
505.502	2279.39
505.71	2512.86
505.918	2613.21
506.126	1980.39
506.334	2045.92
506.542	2404.32
506.75	2574.3
506.958	2283.49
507.166	2156.51
507.374	2289.63
507.582	3074
507.79	2396.12
507.998	2070.5
508.206	2586.58
508.414	2678.74
508.622	2197.47
508.83	2308.06
509.037	2953.17
509.245	2502.62
509.453	2160.61
509.661	2064.35
509.869	2705.37
510.077	2607.06
510.285	2426.84
510.492	2060.26
510.7	3112.91
510.908	2598.87
511.116	2396.12
511.324	2191.33
511.531	2533.34
511.739	2764.76
511.947	2506.71
512.155	2688.98
512.362	2611.16
512.57	2498.52
512.778	2310.11
512.985	2172.89
513.193	2881.49
513.401	2996.18
513.608	2559.96
513.816	2432.99
514.024	2834.39
514.231	2981.84
514.439	2301.92
514.646	2365.4
514.854	2992.08
515.061	3176.4
515.269	2418.65
515.477	2607.06
515.684	2424.8
515.892	3043.28
516.099	2459.61
516.307	2357.21
516.514	2994.13
516.722	3168.21
516.929	2725.85
517.136	2371.55
517.344	3045.33
517.551	2787.29
517.759	2607.06
517.966	2746.33
518.173	2664.41
518.381	2879.44
518.588	2562.01
518.796	2506.71
519.003	2940.88
519.21	2787.29
519.418	2658.26
519.625	2809.81
519.832	2854.87
520.039	3094.48
520.247	2361.31
520.454	2521.05
520.661	3160.02
520.868	2977.75
521.076	2691.03
521.283	2660.31
521.49	3545.03
521.697	3112.91
521.904	2742.23
522.112	2707.41
522.319	3100.62
522.526	3057.62
522.733	2607.06
522.94	2678.74
523.147	3053.52
523.354	3137.49
523.561	2535.39
523.768	2977.75
523.975	3274.7
524.183	3071.95
524.39	2848.72
524.597	2787.29
524.804	3121.1
525.011	2928.6
525.218	2717.65
525.425	2852.82
525.632	3454.92
525.838	2961.36
526.045	2764.76
526.252	2832.34
526.459	4308.93
526.666	3930.05
526.873	2861.01
527.08	2828.24
527.287	3551.18
527.494	3205.07
527.701	2836.44
527.907	2680.79
528.114	3336.14
528.321	3239.89
528.528	2889.68
528.735	2987.99
528.941	3188.69
529.148	3114.96
529.355	2975.7
529.562	2828.24
529.768	3633.1
529.975	3219.41
530.182	2996.18
530.388	2738.13
530.595	3553.23
530.802	2965.46
531.008	3106.77
531.215	3235.79
531.422	4165.57
531.628	4134.85
531.835	3114.96
532.042	3188.69
532.248	3246.03
532.455	3336.14
532.661	3129.3
532.868	3037.14
533.074	3387.34
533.281	3641.29
533.487	3117.01
533.694	3119.06
533.9	3254.22
534.107	3618.76
534.313	3057.62
534.52	3037.14
534.726	3702.73
534.933	3880.9
535.139	3090.38
535.345	3160.02
535.552	3608.52
535.758	3542.99
535.965	3248.08
536.171	3108.82
536.377	3762.12
536.584	3854.28
536.79	3256.27
536.996	3334.09
537.203	3678.15
537.409	3747.78
537.615	3248.08
537.821	3588.04
538.028	3848.13
538.234	3710.92
538.44	3303.37
538.646	3409.87
538.853	3755.97
539.059	3450.83
539.265	3790.79
539.471	3106.77
539.677	3975.11
539.883	3606.47
540.09	3336.14
540.296	3796.93
540.502	3610.57
540.708	3536.84
540.914	3663.82
541.12	3375.05
541.326	3860.42
541.532	3731.4
541.738	3467.21
541.944	3559.37
542.15	3975.11
542.356	3745.73
542.562	3491.79
542.768	3495.88
542.974	4251.58
543.18	4263.87
543.386	3497.93
543.592	3313.61
543.798	4272.06
544.004	4102.08
544.21	3477.45
544.415	3637.19
544.621	3979.2
544.827	4165.57
545.033	3512.27
545.239	3798.98
545.445	3643.34
545.651	3993.54
545.856	3622.86
546.062	3530.7
546.268	3805.13
546.474	3903.43
546.679	3545.03
546.885	3708.87
547.091	3817.41
547.297	4487.1
547.502	3811.27
547.708	3540.94
547.914	3821.51
548.119	4140.99
548.325	3565.51
548.531	3506.12
548.736	4261.82
548.942	3700.68
549.147	3631.05
549.353	3829.7
549.559	4200.38
549.764	4089.79
549.97	3549.13
550.175	3626.95
550.381	4239.3
550.586	3737.54
550.792	3643.34
550.997	3919.81
551.203	4104.13
551.408	4173.76
551.614	3631.05
551.819	3547.08
552.025	4511.68
552.23	4401.08
552.435	3721.16
552.641	4192.19
552.846	4009.92
553.052	4503.48
553.257	4114.37
553.462	4016.07
553.668	3837.89
553.873	4374.46
554.078	3733.45
554.283	3801.03
554.489	4259.77
554.694	4407.23
554.899	3647.43
555.105	4175.81
555.31	4321.21
555.515	4368.32
555.72	4042.69
555.925	3852.23
556.131	4310.97
556.336	4251.58
556.541	4097.99
556.746	3796.93
556.951	4655.03
557.156	4618.17
557.361	3975.11
557.567	4155.33
557.772	4757.43
557.977	4306.88
558.182	3913.67
558.387	4026.31
558.592	4100.03
558.797	4597.69
559.002	4011.97
559.207	4169.66
559.412	4349.89
559.617	4980.66
559.822	4054.98
560.027	3925.96
560.232	4460.48
560.437	4532.15
560.642	3948.48
560.847	3971.01
561.051	4528.06
561.256	4399.04
561.461	4196.29
561.666	4097.99
561.871	4493.24
562.076	4634.55
562.281	4196.29
562.485	3936.2
562.69	4538.3
562.895	4700.09
563.1	4044.74
563.305	4018.11
563.509	4878.26
563.714	5052.34
563.919	4081.6
564.123	4110.27
564.328	4343.74
564.533	4777.91
564.737	4077.51
564.942	4122.56
565.147	4843.45
565.351	5035.96
565.556	4392.89
565.761	4392.89
565.965	4491.2
566.17	4366.27
566.374	4198.34
566.579	4122.56
566.784	4597.69
566.988	4417.47
567.193	4071.36
567.397	4263.87
567.602	4143.04
567.806	4509.63
568.011	4319.17
568.215	4376.51
568.42	4511.68
568.624	4544.44
568.828	4319.17
569.033	4353.98
569.237	4601.79
569.442	4761.53
569.646	4214.72
569.85	4407.23
570.055	4542.39
570.259	4620.22
570.463	4554.68
570.668	4351.93
570.872	4679.61
571.076	4732.86
571.281	4556.73
571.485	4401.08
571.689	4773.82
571.893	4874.17
572.098	4478.91
572.302	4317.12
572.506	4878.26
572.71	4691.9
572.914	4536.25
573.119	4450.24
573.323	5105.59
573.527	4949.94
573.731	4280.25
573.935	4523.96
574.139	4837.3
574.343	4544.44
574.547	4616.12
574.751	4622.27
574.955	5099.44
575.159	5091.25
575.364	4317.12
575.568	4413.37
575.772	4818.87
575.976	5101.49
576.18	4583.35
576.383	4353.98
576.587	5212.08
576.791	4968.37
576.995	4392.89
577.199	4372.41
577.403	5072.82
577.607	5230.51
577.811	4554.68
578.015	4571.07
578.219	4956.08
578.422	5015.48
578.626	4718.52
578.83	4835.25
579.034	5228.46
579.238	4999.09
579.442	4532.15
579.645	5064.63
579.849	4902.84
580.053	4978.61
580.257	4755.38
580.46	4782.01
580.664	5154.74
580.868	5031.86
581.071	4960.18
581.275	4667.32
581.479	5027.76
581.682	5115.83
581.886	4534.2
582.09	4820.92
582.293	5179.31
582.497	5369.77
582.7	4827.06
582.904	4652.99
583.107	4976.56
583.311	5019.57
583.515	4861.88
583.718	4800.44
583.922	5193.65
584.125	5506.99
584.329	4736.95
584.532	4984.76
584.735	5521.32
584.939	5210.03
585.142	4456.38
585.346	4814.77
585.549	5281.71
585.753	4870.07
585.956	4775.86
586.159	4939.7
586.363	5601.19
586.566	5273.52
586.769	4886.45
586.973	4872.12
587.176	5271.47
587.379	5515.18
587.582	5173.17
587.786	5191.6
587.989	5216.18
588.192	5769.13
588.395	5048.24
588.599	5164.98
588.802	5185.46
589.005	5457.84
589.208	4825.01
589.411	5054.39
589.615	5420.97
589.818	5709.74
590.021	5210.03
590.224	5162.93
590.427	5449.64
590.63	5513.13
590.833	4945.84
591.036	4956.08
591.239	5218.22
591.442	5187.5
591.645	5105.59
591.848	5015.48
592.051	5191.6
592.254	5636.01
592.457	5185.46
592.66	4886.45
592.863	5285.81
593.066	5388.21
593.269	5156.79
593.472	5253.04
593.675	5199.79
593.878	5521.32
594.081	5103.54
594.284	5269.42
594.486	5578.67
594.689	5459.88
594.892	5310.38
595.095	5216.18
595.298	5502.89
595.5	5349.29
595.703	5302.19
595.906	5085.11
596.109	5648.3
596.311	5900.2
596.514	4949.94
596.717	5220.27
596.92	5875.62
597.122	5582.76
597.325	4962.23
597.528	5029.81
597.73	6027.17
597.933	5492.65
598.136	5322.67
598.338	4974.52
598.541	5726.12
598.743	5668.78
598.946	5332.91
599.148	5343.15
599.351	5867.43
599.554	5920.68
599.756	5318.57
599.959	5398.45
600.161	5967.78
600.363	6131.62
600.566	5633.96
600.768	5390.25
600.971	6088.61
601.173	5726.12
601.376	5302.19
601.578	5302.19
601.78	5853.09
601.983	6293.41
602.185	5365.68
602.388	5572.52
602.59	5787.56
602.792	5453.74
602.995	5570.48
603.197	5390.25
603.399	5935.01
603.601	5793.7
603.804	5433.26
604.006	5250.99
604.208	5857.19
604.41	5281.71
604.613	5590.95
604.815	5427.12
605.017	6207.39
605.219	5492.65
605.421	5679.02
605.623	5402.54
605.826	6104.99
606.028	6143.91
606.23	5377.97
606.432	5429.17
606.634	6117.28
606.836	6121.38
607.038	5535.66
607.24	5666.73
607.442	5851.05
607.644	5883.81
607.846	5730.22
608.048	5334.96
608.25	6082.47
608.452	5695.4
608.654	5537.71
608.856	5386.16
609.058	5838.76
609.26	5953.45
609.462	5562.28
609.664	5406.64
609.866	6207.39
610.067	6000.55
610.269	5762.98
610.471	5558.19
610.673	5644.2
610.875	6059.94
611.077	5463.98
611.278	5621.67
611.48	5810.09
611.682	6291.36
611.884	5670.83
612.085	5623.72
612.287	5726.12
612.489	6076.32
612.69	5470.12
612.892	5558.19
613.094	6148
613.295	6016.93
613.497	5380.01
613.699	5504.94
613.9	6256.54
614.102	6100.9
614.304	5558.19
614.505	5439.41
614.707	5859.24
614.908	5957.54
615.11	5386.16
615.311	5826.47
615.513	5920.68
615.714	6080.42
615.916	5519.28
616.117	5670.83
616.319	5808.04
616.52	6150.05
616.722	5453.74
616.923	5621.67
617.124	6180.77
617.326	6158.24
617.527	5660.59
617.729	5918.63
617.93	6123.43
618.131	6199.2
618.333	5482.41
618.534	5777.32
618.735	5840.81
618.937	6320.03
619.138	5509.04
619.339	5621.67
619.54	6018.98
619.742	5820.33
619.943	5818.28
620.144	5539.76
620.345	6123.43
620.546	6268.83
620.748	5617.58
620.949	5685.16
621.15	6119.33
621.351	5969.83
621.552	5574.57
621.753	5502.89
621.954	5593
622.155	6381.47
622.356	5697.45
622.558	5844.9
622.759	6104.99
622.96	6498.2
623.161	5597.1
623.362	5670.83
623.563	5701.55
623.764	6049.7
623.965	5607.34
624.166	5975.97
624.366	5648.3
624.567	6107.04
624.768	5509.04
624.969	5705.64
625.17	6066.08
625.371	6221.73
625.572	5912.49
625.773	5638.06
625.973	6248.35
626.174	6123.43
626.375	5849
626.576	5912.49
626.777	6055.84
626.977	6674.33
627.178	5803.94
627.379	5939.11
627.58	5836.71
627.78	6135.71
627.981	5844.9
628.182	5855.14
628.382	6172.58
628.583	5646.25
628.784	5535.66
628.984	5781.42
629.185	6285.22
629.386	6315.94
629.586	6113.19
629.787	5760.94
629.987	6510.49
630.188	6143.91
630.388	5803.94
630.589	6000.55
630.79	6621.08
630.99	6168.48
631.191	6006.69
631.391	5971.88
631.591	6320.03
631.792	6453.15
631.992	5971.88
632.193	5724.07
632.393	6444.96
632.594	6107.04
632.794	5820.33
632.994	5928.87
633.195	6158.24
633.395	6246.3
633.595	5758.89
633.796	6061.99
633.996	5939.11
634.196	6420.38
634.397	5732.26
634.597	6043.56
634.797	6072.23
634.997	6659.99
635.198	5986.21
635.398	5892.01
635.598	6299.55
635.798	6600.6
635.998	6299.55
636.199	5896.1
636.399	6084.52
636.599	5973.92
636.799	5887.91
636.999	6209.44
637.199	6299.55
637.399	6440.86
637.599	6051.75
637.799	5978.02
637.999	6031.27
638.199	6596.51
638.399	5900.2
638.599	5822.38
638.799	6375.33
638.999	6981.53
639.199	6244.26
639.399	6133.67
639.599	6631.32
639.799	6100.9
639.999	5894.05
640.199	5869.48
640.399	6303.65
640.599	6172.58
640.799	6014.88
640.998	6174.63
641.198	6573.98
641.398	6344.61
641.598	6164.39
641.798	6084.52
641.997	7335.82
642.197	6395.81
642.397	6223.78
642.597	5910.44
642.796	6473.63
642.996	6614.94
643.196	6139.81
643.395	5883.81
643.595	6631.32
643.795	5982.12
643.994	5951.4
644.194	6006.69
644.394	6490.01
644.593	6551.45
644.793	5971.88
644.992	6113.19
645.192	6567.84
645.392	5760.94
645.591	6369.18
645.791	6109.09
645.99	6543.26
646.19	6215.59
646.389	6061.99
646.589	6145.95
646.788	6637.47
646.987	6535.07
647.187	6434.72
647.386	6420.38
647.586	6414.24
647.785	6604.7
647.984	6205.35
648.184	6363.04
648.383	6268.83
648.582	6229.92
648.782	6195.11
648.981	6354.85
649.18	6068.13
649.38	6551.45
649.579	6113.19
649.778	6166.43
649.977	6569.88
650.177	6514.59
650.376	6076.32
650.575	6002.6
650.774	6651.8
650.973	6356.89
651.173	5996.45
651.372	6317.98
651.571	6424.48
651.77	6686.62
651.969	6082.47
652.168	6367.13
652.367	6166.43
652.566	6393.76
652.765	6209.44
652.964	6616.99
653.163	6991.77
653.362	6401.95
653.561	6076.32
653.76	6182.82
653.959	6455.2
654.158	6653.85
654.357	6563.74
654.556	6360.99
654.755	6731.67
654.954	6596.51
655.153	6303.65
655.352	6461.34
655.551	6731.67
655.749	6348.7
655.948	6309.79
656.147	6371.23
656.346	6676.38
656.545	6481.82
656.743	6377.37
656.942	6301.6
657.141	6410.14
657.34	6123.43
657.538	6279.07
657.737	6059.94
657.936	6393.76
658.135	6485.92
658.333	6242.21
658.532	6264.74
658.731	6926.23
658.929	6737.82
659.128	6541.21
659.326	6231.97
659.525	6875.03
659.724	6522.78
659.922	6131.62
660.121	6246.3
660.319	6590.36
660.518	6406.05
660.716	6264.74
660.915	6268.83
661.113	6887.32
661.312	6320.03
661.51	6254.5
661.709	6178.72
661.907	6698.91
662.105	6922.13
662.304	6381.47
662.502	6467.49
662.701	6866.84
662.899	6522.78
663.097	6637.47
663.296	6064.04
663.494	6895.51
663.692	6866.84
663.891	6211.49
664.089	6195.11
664.287	6721.43
664.485	6918.04
664.684	6199.2
664.882	6487.97
665.08	6492.06
665.278	6729.63
665.476	6145.95
665.675	6645.66
665.873	7260.05
666.071	6754.2
666.269	6182.82
666.467	6537.12
666.665	6598.56
666.863	6526.88
667.061	6408.09
667.259	6133.67
667.457	6473.63
667.655	6764.44
667.853	6272.93
668.051	6543.26
668.249	6399.9
668.447	6915.99
668.645	6066.08
668.843	6614.94
669.041	6741.91
669.239	6348.7
669.437	6453.15
669.635	6539.16
669.833	6518.68
670.031	6850.46
670.229	6514.59
670.426	6498.2
670.624	6451.1
670.822	6512.54
671.02	6301.6
671.218	6328.22
671.415	6418.33
671.613	6610.84
671.811	6295.46
672.009	6412.19
672.206	6786.97
672.404	6406.05
672.602	6473.63
672.799	6393.76
672.997	6776.73
673.195	6854.55
673.392	6584.22
673.59	6262.69
673.788	6870.94
673.985	6066.08
674.183	6354.85
674.38	6350.75
674.578	6672.28
674.775	6277.02
674.973	6281.12
675.17	6213.54
675.368	7083.92
675.565	6762.39
675.763	6289.31
675.96	6309.79
676.158	6784.92
676.355	6393.76
676.553	6449.05
676.75	6348.7
676.947	6465.44
677.145	6549.4
677.342	6348.7
677.539	6367.13
677.737	6504.35
677.934	7098.26
678.131	6670.23
678.329	6369.18
678.526	6832.02
678.723	6752.15
678.92	6340.51
679.118	6481.82
679.315	6213.54
679.512	6903.7
679.709	6322.08
679.906	6199.2
680.104	6641.56
680.301	6565.79
680.498	6090.66
680.695	6113.19
680.892	6307.74
681.089	6272.93
681.286	6379.42
681.483	6006.69
681.68	6518.68
681.877	6647.71
682.075	6309.79
682.272	6664.09
682.469	6596.51
682.665	6436.77
682.862	6129.57
683.059	5998.5
683.256	6487.97
683.453	6481.82
683.65	6373.28
683.847	6244.26
684.044	6328.22
684.241	6266.78
684.438	6236.06
684.635	6139.81
684.831	7030.68
685.028	6961.05
685.225	6317.98
685.422	6399.9
685.619	6399.9
685.815	6481.82
686.012	6250.4
686.209	6301.6
686.405	6125.47
686.602	6569.88
686.799	6055.84
686.996	6098.85
687.192	6072.23
687.389	7055.25
687.586	6066.08
687.782	6049.7
687.979	6821.78
688.175	6805.4
688.372	6160.29
688.568	6252.45
688.765	6242.21
688.962	6760.34
689.158	6424.48
689.355	6246.3
689.551	6639.51
689.748	6205.35
689.944	6195.11
690.14	6135.71
690.337	6352.8
690.533	6178.72
690.73	6213.54
690.926	6217.63
691.123	6553.5
691.319	6348.7
691.515	5988.26
691.712	6410.14
691.908	6381.47
692.104	6387.61
692.301	6137.76
692.497	5953.45
692.693	6625.18
692.889	6582.17
693.086	6211.49
693.282	5902.25
693.478	6363.04
693.674	6774.68
693.87	6203.3
694.067	6074.28
694.263	6404
694.459	6217.63
694.655	6397.85
694.851	6092.71
695.047	6360.99
695.243	6479.77
695.439	6180.77
695.635	6070.18
695.831	6506.4
696.027	6080.42
696.224	6117.28
696.42	6461.34
696.615	6653.85
696.811	6506.4
697.007	5941.16
697.203	6090.66
697.399	6367.13
697.595	6487.97
697.791	6061.99
697.987	5980.07
698.183	6053.8
698.379	5994.4
698.575	5988.26
698.77	6066.08
698.966	6338.46
699.162	6590.36
699.358	6217.63
699.554	6092.71
699.749	6377.37
699.945	6395.81
700.141	6123.43
700.337	6090.66
700.532	6219.68
700.728	6064.04
700.924	5904.29
701.119	5744.55
701.315	6254.5
701.511	6178.72
701.706	6135.71
701.902	5511.08
702.097	6051.75
702.293	6371.23
702.489	6000.55
702.684	5945.25
702.88	6090.66
703.075	6111.14
703.271	5777.32
703.466	5787.56
703.662	6113.19
703.857	6469.53
704.053	5871.53
704.248	5853.09
704.443	6342.56
704.639	6369.18
704.834	6078.37
705.03	5926.82
705.225	6311.84
705.42	6350.75
705.616	6121.38
705.811	5883.81
706.006	6064.04
706.202	6195.11
706.397	5978.02
706.592	5935.01
706.787	6272.93
706.983	6188.96
707.178	6109.09
707.373	6012.84
707.568	6231.97
707.763	6377.37
707.959	5859.24
708.154	5920.68
708.349	6193.06
708.544	6258.59
708.739	6244.26
708.934	5740.46
709.129	6334.37
709.324	6461.34
709.519	5826.47
709.714	5824.42
709.909	6485.92
710.104	6334.37
710.299	5992.36
710.494	5916.58
710.689	6404
710.884	6129.57
711.079	5967.78
711.274	5973.92
711.469	6315.94
711.664	6260.64
711.859	5963.68
712.054	6025.12
712.249	6186.91
712.443	6514.59
712.638	5738.41
712.833	5922.73
713.028	6041.51
713.223	5982.12
713.417	5885.86
713.612	5738.41
713.807	6283.17
714.002	6735.77
714.196	6115.23
714.391	5576.62
714.586	6311.84
714.78	6027.17
714.975	6023.08
715.17	5793.7
715.364	5994.4
715.559	6213.54
715.754	5492.65
715.948	5625.77
716.143	6524.83
716.337	6123.43
716.532	6008.74
716.726	5787.56
716.921	6195.11
717.115	6481.82
717.31	5650.35
717.504	6133.67
717.699	5803.94
717.893	6021.03
718.088	5722.02
718.282	5707.69
718.476	6193.06
718.671	6080.42
718.865	5838.76
719.059	5631.91
719.254	6000.55
719.448	6223.78
719.642	7120.79
719.837	5619.63
720.031	6215.59
720.225	6055.84
720.419	5900.2
720.614	5656.49
720.808	6088.61
721.002	5810.09
721.196	5574.57
721.39	5552.04
721.585	6137.76
721.779	5945.25
721.973	5582.76
722.167	5461.93
722.361	5873.57
722.555	6193.06
722.749	5578.67
722.943	5636.01
723.137	5564.33
723.331	5939.11
723.525	5599.15
723.719	5683.11
723.913	6104.99
724.107	6215.59
724.301	5365.68
724.495	5535.66
724.689	6207.39
724.883	6184.87
725.077	5627.82
725.271	5580.71
725.465	6066.08
725.659	5826.47
725.853	5484.46
726.046	5521.32
726.24	5814.18
726.434	6076.32
726.628	5638.06
726.822	5584.81
727.015	6191.01
727.209	6231.97
727.403	5754.79
727.596	5449.64
727.79	6008.74
727.984	6082.47
728.177	5584.81
728.371	5715.88
728.565	6006.69
728.758	5679.02
728.952	5490.6
729.146	5492.65
729.339	6244.26
729.533	5830.57
729.726	5541.8
729.92	5541.8
730.113	6168.48
730.307	5849
730.5	5500.84
730.694	5431.21
730.887	5773.22
731.081	5906.34
731.274	5539.76
731.468	5625.77
731.661	5793.7
731.854	5914.53
732.048	5547.95
732.241	5388.21
732.435	5687.21
732.628	5756.84
732.821	5808.04
733.014	5470.12
733.208	5537.71
733.401	5822.38
733.594	5545.9
733.788	5519.28
733.981	6148
734.174	5953.45
734.367	5408.69
734.56	5724.07
734.754	5889.96
734.947	5994.4
735.14	5529.52
735.333	5646.25
735.526	6148
735.719	5656.49
735.912	5593
736.105	5488.56
736.298	5824.42
736.491	5754.79
736.684	5605.29
736.877	5586.86
737.07	5885.86
737.263	6074.28
737.456	5398.45
737.649	5369.77
737.842	5828.52
738.035	5730.22
738.228	5654.44
738.421	5654.44
738.614	5980.07
738.807	6066.08
739	5228.46
739.192	5388.21
739.385	5963.68
739.578	5871.53
739.771	5709.74
739.964	5443.5
740.156	5805.99
740.349	5556.14
740.542	5638.06
740.735	5179.31
740.927	5480.36
741.12	5648.3
741.313	5439.41
741.505	5574.57
741.698	5638.06
741.891	5785.51
742.083	5832.61
742.276	5404.59
742.468	5775.27
742.661	5762.98
742.854	5590.95
743.046	5398.45
743.239	6029.22
743.431	5586.86
743.624	5572.52
743.816	5113.78
744.009	5527.47
744.201	5783.46
744.393	5482.41
744.586	5214.13
744.778	5904.29
744.971	5590.95
745.163	5359.53
745.355	5500.84
745.548	5625.77
745.74	5629.87
745.932	5523.37
746.125	5396.4
746.317	6186.91
746.509	5664.68
746.702	5556.14
746.894	5384.11
747.086	5724.07
747.278	6061.99
747.471	5580.71
747.663	5552.04
747.855	5748.65
748.047	6164.39
748.239	5316.53
748.431	5314.48
748.623	5920.68
748.815	5937.06
749.008	5310.38
749.2	5367.73
749.392	5724.07
749.584	5750.7
749.776	5324.72
749.968	5584.81
750.16	6104.99
750.352	5488.56
750.544	5363.63
750.736	5267.38
750.928	5767.08
751.12	5662.63
751.311	5498.8
751.503	5433.26
751.695	5742.5
751.887	5666.73
752.079	5115.83
752.271	5285.81
752.463	6311.84
752.654	5734.31
752.846	5339.05
753.038	5316.53
753.23	5343.15
753.421	5738.41
753.613	5250.99
753.805	5617.58
753.997	5826.47
754.188	5840.81
754.38	5119.92
754.572	5337.01
754.763	5631.91
754.955	5758.89
755.146	5298.1
755.338	5449.64
755.53	5531.56
755.721	5543.85
755.913	5187.5
756.104	5207.98
756.296	5410.73
756.487	5463.98
756.679	5322.67
756.87	5420.97
757.062	5423.02
757.253	5529.52
757.445	5216.18
757.636	5185.46
757.827	5552.04
758.019	6254.5
758.21	5179.31
758.401	5146.55
758.593	5906.34
758.784	5814.18
758.975	5064.63
759.167	4976.56
759.358	5494.7
759.549	5638.06
759.74	5117.87
759.932	5076.91
760.123	5695.4
760.314	5351.34
760.505	5287.86
760.696	4904.89
760.888	5892.01
761.079	5345.2
761.27	5115.83
761.461	4853.69
761.652	5695.4
761.843	5253.04
762.034	5132.21
762.225	5537.71
762.416	5425.07
762.607	5361.58
762.798	5046.19
762.989	4947.89
763.18	6160.29
763.371	5189.55
763.562	5058.48
763.753	5021.62
763.944	5617.58
764.135	5521.32
764.326	5285.81
764.517	4976.56
764.708	5461.93
764.899	5365.68
765.089	4902.84
765.28	4892.6
765.471	5236.66
765.662	5382.06
765.853	4988.85
766.043	4708.28
766.234	5382.06
766.425	5416.88
766.615	5054.39
766.806	4736.95
766.997	5586.86
767.187	5236.66
767.378	4820.92
767.569	4908.98
767.759	5212.08
767.95	5326.77
768.141	5150.64
768.331	4777.91
768.522	5240.75
768.712	5363.63
768.903	4880.31
769.093	4917.17
769.284	5494.7
769.474	5312.43
769.665	4732.86
769.855	4698.04
770.046	5357.49
770.236	4958.13
770.426	5072.82
770.617	4874.17
770.807	5203.89
770.998	5011.38
771.188	5031.86
771.378	4679.61
771.569	5332.91
771.759	5197.74
771.949	4607.93
772.139	4528.06
772.33	5035.96
772.52	5423.02
772.71	4720.57
772.9	4566.97
773.09	5361.58
773.281	5394.35
773.471	4810.68
773.661	4663.22
773.851	5091.25
774.041	4802.49
774.231	4632.51
774.421	4839.35
774.611	5210.03
774.802	4999.09
774.992	4849.59
775.182	4655.03
775.372	5162.93
775.562	5265.33
775.752	4874.17
775.942	4612.03
776.131	5193.65
776.321	5171.12
776.511	4747.19
776.701	4507.58
776.891	5185.46
777.081	4632.51
777.271	4806.58
777.461	4638.65
777.651	5029.81
777.84	5210.03
778.03	4622.27
778.22	4569.02
778.41	5167.03
778.599	4743.1
778.789	4661.18
778.979	4544.44
779.169	5027.76
779.358	4794.29
779.548	4878.26
779.738	4347.84
779.927	4863.93
780.117	4571.07
780.307	4646.84
780.496	4368.32
780.686	4954.04
780.875	5339.05
781.065	4564.92
781.254	4534.2
781.444	4739
781.633	4861.88
781.823	4437.95
782.012	4358.08
782.202	4585.4
782.391	4757.43
782.581	4476.86
782.77	4700.09
782.96	4880.31
783.149	4634.55
783.338	4548.54
783.528	4128.7
783.717	4992.95
783.906	5095.35
784.096	4634.55
784.285	4204.48
784.474	4609.98
784.663	4442.04
784.853	4417.47
785.042	4417.47
785.231	4689.85
785.42	4911.03
785.61	4499.39
785.799	4231.1
785.988	4657.08
786.177	4499.39
786.366	4415.42
786.555	4603.83
786.744	4794.29
786.933	4704.18
787.122	4237.25
787.312	4069.31
787.501	4464.57
787.69	4868.02
787.879	4294.59
788.068	4343.74
788.257	4298.69
788.445	4302.78
788.634	4358.08
788.823	4313.02
789.012	5146.55
789.201	4966.32
789.39	4204.48
789.579	4220.86
789.768	4528.06
789.957	4538.3
790.145	4288.45
790.334	4114.37
790.523	4315.07
790.712	4519.87
790.9	4403.13
791.089	4048.83
791.278	4671.42
791.467	4476.86
791.655	4298.69
791.844	4974.52
792.033	4364.22
792.221	4462.52
792.41	4280.25
792.599	3977.16
792.787	4513.72
792.976	4673.46
793.164	3917.76
793.353	4190.14
793.541	4646.84
793.73	4605.88
793.918	4093.89
794.107	4179.9
794.295	4497.34
794.484	4335.55
794.672	4116.42
794.861	4087.75
795.049	4558.78
795.238	4788.15
795.426	4110.27
795.614	4032.45
795.803	4528.06
795.991	4739
796.179	4061.12
796.368	4167.62
796.556	4650.94
796.744	4155.33
796.932	4087.75
797.121	3985.35
797.309	4407.23
797.497	4640.7
797.685	4073.41
797.874	4044.74
798.062	4409.28
798.25	4491.2
798.438	3932.1
798.626	4050.88
798.814	4546.49
799.002	4773.82
799.19	4274.11
799.378	4048.83
799.566	4628.41
799.755	4687.8
799.943	4241.34
800.131	4130.75
800.318	4294.59
800.506	4388.8
800.694	3964.87
800.882	4091.84
801.07	4648.89
801.258	4335.55
801.446	4036.55
801.634	3995.59
801.822	4384.7
802.01	4220.86
802.197	3991.49
802.385	4143.04
802.573	4427.71
802.761	4241.34
802.949	4003.78
803.136	3868.61
803.324	4630.46
803.512	4519.87
803.699	4067.27
803.887	3846.09
804.075	4509.63
804.262	4202.43
804.45	3952.58
804.638	4167.62
804.825	4200.38
805.013	4192.19
805.201	4028.35
805.388	3901.38
805.576	4360.13
805.763	4691.9
805.951	4083.65
806.138	4116.42
806.326	4853.69
806.513	4489.15
806.701	4126.66
806.888	4110.27
807.075	4480.96
807.263	4745.14
807.45	4038.59
807.638	4315.07
807.825	4908.98
808.012	4528.06
808.2	4073.41
808.387	4370.37
808.574	4425.66
808.761	4628.41
808.949	4110.27
809.136	4171.71
809.323	4286.4
809.51	4333.5
809.698	4437.95
809.885	4138.94
810.072	4394.94
810.259	4679.61
810.446	4327.36
810.633	4116.42
810.82	4718.52
811.008	4769.72
811.195	4409.28
811.382	4075.46
811.569	4519.87
811.756	4218.82
811.943	4261.82
812.13	4167.62
812.317	4360.13
812.504	4485.05
812.691	4171.71
812.878	4319.17
813.064	4669.37
813.251	4446.14
813.438	3985.35
813.625	4345.79
813.812	4505.53
813.999	4343.74
814.186	4310.97
814.372	4192.19
814.559	4427.71
814.746	4712.38
814.933	4018.11
815.12	4401.08
815.306	4245.44
815.493	4114.37
815.68	4151.23
815.866	4276.16
816.053	4620.22
816.24	4782.01
816.426	4270.01
816.613	4061.12
816.799	4683.7
816.986	4753.34
817.173	4155.33
817.359	4120.51
817.546	4593.59
817.732	4038.59
817.919	3944.39
818.105	4196.29
818.292	4315.07
818.478	4515.77
818.665	4433.85
818.851	4048.83
819.037	5081.01
819.224	4515.77
819.41	3997.63
819.597	4186.05
819.783	4831.16
819.969	4548.54
820.156	4075.46
820.342	3936.2
820.528	5093.3
820.714	4356.03
820.901	4286.4
821.087	4063.17
821.273	4849.59
821.459	4308.93
821.646	4059.07
821.832	4040.64
822.018	4315.07
822.204	4265.92
822.39	4313.02
822.576	4136.9
822.762	4532.15
822.948	4534.2
823.134	4255.68
823.32	4222.91
823.507	4077.51
823.693	4298.69
823.879	4609.98
824.065	4014.02
824.25	4458.43
824.436	4057.03
824.622	4038.59
824.808	3987.4
824.994	4321.21
825.18	4130.75
825.366	4028.35
825.552	3917.76
825.738	4188.1
825.923	4601.79
826.109	4233.15
826.295	3950.53
826.481	3950.53
826.667	4128.7
826.852	4229.06
827.038	3997.63
827.224	4624.31
827.409	4573.11
827.595	3841.99
827.781	3971.01
827.966	4472.76
828.152	4519.87
828.338	3860.42
828.523	3827.65
828.709	4059.07
828.894	4452.28
829.08	3985.35
829.266	3807.17
829.451	4100.03
829.637	4313.02
829.822	4050.88
830.008	3868.61
830.193	4509.63
830.378	4458.43
830.564	4022.21
830.749	3729.35
830.935	4339.65
831.12	4241.34
831.305	3835.85
831.491	4009.92
831.676	3891.14
831.861	4401.08
832.047	3790.79
832.232	3606.47
832.417	4253.63
832.602	4155.33
832.788	3885
832.973	3841.99
833.158	4147.14
833.343	4327.36
833.528	3889.09
833.714	3872.71
833.899	4233.15
834.084	4562.87
834.269	4040.64
834.454	3768.26
834.639	4237.25
834.824	4188.1
835.009	3790.79
835.194	3958.72
835.379	4396.99
835.564	4526.01
835.749	3885
835.934	3747.78
836.119	4214.72
836.304	4016.07
836.489	3715.02
836.674	3897.28
836.859	3833.8
837.044	4323.26
837.228	3817.41
837.413	3807.17
837.598	4204.48
837.783	4108.23
837.968	3844.04
838.152	3706.82
838.337	3614.66
838.522	4390.84
838.707	4188.1
838.891	3952.58
839.076	4061.12
839.261	4306.88
839.445	3813.32
839.63	3786.69
839.815	4394.94
839.999	3819.46
840.184	3760.07
840.368	3659.72
840.553	4112.32
840.737	4065.22
840.922	3706.82
841.106	3536.84
841.291	3688.39
841.475	4048.83
841.66	3602.38
841.844	3712.97
842.029	4712.38
842.213	3553.23
842.397	3516.36
842.582	3479.5
842.766	4306.88
842.951	4097.99
843.135	3684.3
843.319	3669.96
843.504	3815.37
843.688	4138.94
843.872	3301.33
844.056	3440.59
844.241	4179.9
844.425	3764.17
844.609	3770.31
844.793	3446.73
844.977	4032.45
845.161	4122.56
845.346	3469.26
845.53	3542.99
845.714	3823.56
845.898	4147.14
846.082	3377.1
846.266	3424.2
846.45	3854.28
846.634	3878.85
846.818	3450.83
847.002	3856.33
847.186	4108.23
847.37	3643.34
847.554	3581.9
847.738	3739.59
847.922	3891.14
848.106	3882.95
848.29	3338.19
848.473	3518.41
848.657	3864.52
848.841	3788.74
849.025	3532.75
849.209	3344.33
849.392	3942.34
849.576	3590.09
849.76	3334.09
849.944	3622.86
850.127	4075.46
850.311	3577.8
850.495	3280.85
850.678	3196.88
850.862	4177.86
851.046	4097.99
851.229	3688.39
851.413	3286.99
851.596	3798.98
851.78	3635.14
851.964	3442.64
852.147	3401.68
852.331	4374.46
852.514	3895.24
852.698	3499.98
852.881	3254.22
853.065	3725.26
853.248	3502.03
853.431	3467.21
853.615	3420.11
853.798	4278.21
853.982	3745.73
854.165	3495.88
854.348	3360.72
854.532	3465.16
854.715	3364.81
854.898	3405.77
855.081	3401.68
855.265	3868.61
855.448	3977.16
855.631	3344.33
855.814	3495.88
855.997	3739.59
856.181	3551.18
856.364	3262.41
856.547	3370.96
856.73	3608.52
856.913	3559.37
857.096	3319.76
857.279	3262.41
857.462	3342.29
857.645	3917.76
857.828	3461.07
858.011	3391.44
858.194	3342.29
858.377	3612.62
858.56	3051.47
858.743	3233.74
858.926	3248.08
859.109	3577.8
859.292	3286.99
859.475	3106.77
859.658	3850.18
859.841	3737.54
860.023	3264.46
860.206	3084.24
860.389	3549.13
860.572	3745.73
860.755	3162.06
860.937	3223.5
861.12	3295.18
861.303	3598.28
861.486	3268.56
861.668	3313.61
861.851	3604.42
862.034	3567.56
862.216	3243.98
862.399	2957.27
862.581	3645.38
862.764	3737.54
862.947	3172.3
863.129	2996.18
863.312	3137.49
863.494	3641.29
863.677	3330
863.859	2818.01
864.042	3600.33
864.224	3667.91
864.406	3227.6
864.589	3008.47
864.771	3471.31
864.954	3069.91
865.136	2981.84
865.318	2877.4
865.501	3442.64
865.683	2811.86
865.865	3053.52
866.048	2957.27
866.23	3395.53
866.412	3344.33
866.594	2914.26
866.777	3129.3
866.959	3520.46
867.141	3184.59
867.323	3190.74
867.505	3147.73
867.687	3323.85
867.869	3270.61
868.052	3086.29
868.234	2811.86
868.416	3254.22
868.598	3413.96
868.78	3026.9
868.962	2918.36
869.144	3665.86
869.326	3401.68
869.508	2904.02
869.69	2932.69
869.872	3160.02
870.054	3456.97
870.236	2803.67
870.417	2828.24
870.599	3196.88
870.781	3710.92
870.963	3164.11
871.145	2881.49
871.327	2961.36
871.508	3375.05
871.69	2963.41
871.872	2998.23
872.054	3258.32
872.235	3274.7
872.417	3090.38
872.599	2838.48
872.78	3608.52
872.962	3278.8
873.144	2736.09
873.325	2973.65
873.507	3573.71
873.689	3190.74
873.87	2736.09
874.052	2996.18
874.233	3176.4
874.415	3442.64
874.596	2885.59
874.778	2803.67
874.959	3262.41
875.141	3481.55
875.322	2848.72
875.503	2789.33
875.685	3231.69
875.866	2936.79
876.048	2904.02
876.229	2820.05
876.41	3162.06
876.592	3313.61
876.773	2957.27
876.954	2752.47
877.136	3530.7
877.317	3133.39
877.498	2666.46
877.679	3071.95
877.86	3217.36
878.042	3035.09
878.223	2996.18
878.404	3305.42
878.585	3434.44
878.766	3751.88
878.947	3262.41
879.128	2850.77
879.309	3350.48
879.49	3385.29
879.672	3059.67
879.853	3020.75
880.034	3043.28
880.215	3233.74
880.396	3088.34
880.576	2987.99
880.757	3016.66
880.938	3547.08
881.119	2863.06
881.3	3000.27
881.481	3305.42
881.662	4153.28
881.843	2877.4
882.023	2772.95
882.204	3426.25
882.385	3196.88
882.566	2889.68
882.747	2955.22
882.927	3172.3
883.108	3313.61
883.289	2977.75
883.469	3129.3
883.65	3063.76
883.831	3307.47
884.011	3137.49
884.192	3149.78
884.373	3465.16
884.553	3381.2
884.734	3340.24
884.914	3442.64
885.095	4069.31
885.275	3682.25
885.456	3311.57
885.636	2906.07
885.817	3381.2
885.997	3399.63
886.178	3022.8
886.358	3155.92
886.538	3364.81
886.719	4423.61
886.899	3065.81
887.08	3282.89
887.26	3626.95
887.44	3282.89
887.621	2930.64
887.801	3162.06
887.981	3966.92
888.161	3610.57
888.342	3131.34
888.522	3213.26
888.702	3684.3
888.882	3692.49
889.062	3235.79
889.242	3012.56
889.423	3758.02
889.603	3577.8
889.783	3178.45
889.963	3012.56
890.143	3459.02
890.323	3557.32
890.503	3139.54
890.683	3028.95
890.863	3479.5
891.043	3493.83
891.223	3223.5
891.403	3196.88
891.583	3307.47
891.763	3438.54
891.943	3121.1
892.122	2987.99
892.302	3471.31
892.482	3405.77
892.662	3330
892.842	3299.28
893.022	3459.02
893.201	3254.22
893.381	3319.76
893.561	3160.02
893.741	3639.24
893.92	3508.17
894.1	3289.04
894.28	3168.21
894.459	3604.42
894.639	3604.42
894.819	3002.32
894.998	3233.74
895.178	3448.78
895.357	3346.38
895.537	3063.76
895.716	3002.32
895.896	3352.52
896.075	3653.58
896.255	3055.57
896.434	2883.54
896.614	3614.66
896.793	3614.66
896.973	3131.34
897.152	3336.14
897.331	3545.03
897.511	3614.66
897.69	3045.33
897.87	3104.72
898.049	3401.68
898.228	3385.29
898.407	3428.3
898.587	3151.82
898.766	3143.63
898.945	3434.44
899.124	3340.24
899.304	3207.12
899.483	3516.36
899.662	3694.54
899.841	3014.61
900.02	2947.03
900.199	3616.71
900.378	3450.83
900.557	2852.82
900.737	2828.24
900.916	3356.62
901.095	3418.06
901.274	3420.11
901.453	2863.06
901.632	2926.55
901.811	3102.67
901.989	2961.36
902.168	2840.53
902.347	3426.25
902.526	3164.11
902.705	3018.71
902.884	2926.55
903.063	3426.25
903.242	3512.27
903.42	2746.33
903.599	2887.64
903.778	3403.72
903.957	3444.68
904.135	2918.36
904.314	2924.5
904.493	3258.32
904.672	3119.06
904.85	2721.75
905.029	2721.75
905.207	3139.54
905.386	3798.98
905.565	2525.15
905.743	2721.75
905.922	2908.12
906.1	3143.63
906.279	2592.73
906.457	2586.58
906.636	2904.02
906.814	2936.79
906.993	2615.26
907.171	2680.79
907.35	3063.76
907.528	3133.39
907.707	2865.11
907.885	2453.47
908.063	3094.48
908.242	2574.3
908.42	2623.45
908.598	2318.3
908.777	2926.55
908.955	2623.45
909.133	2826.2
909.311	2482.14
909.49	2531.29
909.668	2875.35
909.846	2453.47
910.024	2363.36
910.202	2852.82
910.38	3016.66
910.559	2361.31
910.737	2521.05
910.915	2951.12
911.093	2906.07
911.271	2736.09
911.449	2893.78
911.627	3037.14
911.805	3321.81
911.983	2711.51
912.161	2557.91
912.339	3041.23
912.517	3274.7
912.695	2815.96
912.872	2699.22
913.05	2815.96
913.228	2983.89
913.406	2643.93
913.584	2576.34
913.762	3110.86
913.939	2848.72
914.117	2772.95
914.295	2564.06
914.473	3000.27
914.65	3014.61
914.828	2648.02
915.006	2656.22
915.184	2609.11
915.361	3151.82
915.539	2721.75
915.716	2975.7
915.894	2967.51
916.072	3037.14
916.249	2920.4
916.427	2764.76
916.604	2713.56
916.782	2961.36
916.959	2623.45
917.137	2607.06
917.314	2957.27
917.492	2891.73
917.669	2684.89
917.847	2650.07
918.024	2813.91
918.201	2809.81
918.379	2709.46
918.556	2592.73
918.733	3231.69
918.911	2738.13
919.088	2822.1
919.265	2447.32
919.442	2926.55
919.62	2734.04
919.797	2449.37
919.974	2451.42
920.151	2975.7
920.328	2895.83
920.506	2432.99
920.683	2783.19
920.86	2525.15
921.037	2664.41
921.214	2764.76
921.391	2492.38
921.568	3037.14
921.745	2641.88
921.922	2508.76
922.099	2480.09
922.276	3061.71
922.453	2928.6
922.63	2492.38
922.807	2985.94
922.984	2787.29
923.161	2564.06
923.338	2488.28
923.514	2254.81
923.691	2746.33
923.868	2764.76
924.045	2496.47
924.222	2420.7
924.399	2836.44
924.575	2877.4
924.752	2496.47
924.929	2537.43
925.105	3014.61
925.282	2402.27
925.459	2553.82
925.635	2451.42
925.812	2740.18
925.989	2471.9
926.165	2559.96
926.342	2297.82
926.518	2459.61
926.695	2701.27
926.871	2334.68
927.048	2162.66
927.224	2934.74
927.401	2635.74
927.577	2332.64
927.754	2215.9
927.93	2795.48
928.107	2779.09
928.283	2209.76
928.459	2541.53
928.636	2748.37
928.812	2588.63
928.988	2230.24
929.165	2041.82
929.341	2463.71
929.517	2607.06
929.693	2461.66
929.87	1947.62
930.046	2701.27
930.222	2283.49
930.398	2064.35
930.574	2369.5
930.751	2492.38
930.927	2234.33
931.103	2289.63
931.279	2293.72
931.455	2162.66
931.631	2504.67
931.807	2082.78
931.983	1937.38
932.159	2097.12
932.335	2342.88
932.511	2238.43
932.687	2168.8
932.863	2400.22
933.039	2316.25
933.215	1816.55
933.391	1927.14
933.566	2240.48
933.742	2351.07
933.918	2185.18
934.094	1841.12
934.27	2260.96
934.445	2277.34
934.621	2127.84
934.797	1853.41
934.973	2392.03
935.148	2246.62
935.324	1783.78
935.5	1658.85
935.675	2355.16
935.851	2080.74
936.027	1837.03
936.202	1943.52
936.378	2172.89
936.553	1980.39
936.729	2152.42
936.904	1712.1
937.08	1605.61
937.255	1771.49
937.431	1652.71
937.606	1347.56
937.782	1691.62
937.957	1779.68
938.133	1488.87
938.308	1460.2
938.483	1656.81
938.659	1572.84
938.834	1581.03
939.009	1329.13
939.185	1492.97
939.36	1587.18
939.535	1083.38
939.71	1499.11
939.886	1814.5
940.061	1671.14
940.236	1605.61
940.411	1271.79
940.586	1734.63
940.761	1744.87
940.937	1296.36
941.112	1320.94
941.287	1447.91
941.462	1560.55
941.637	1161.2
941.812	1218.54
941.987	1431.53
942.162	1378.28
942.337	1419.24
942.512	1232.88
942.687	1591.27
942.862	1585.13
943.037	1001.46
943.212	911.35
943.386	1308.65
943.561	1390.57
943.736	1427.43
943.911	1413.1
944.086	1548.26
944.26	1527.78
944.435	1140.72
944.61	1255.4
944.785	1714.15
944.959	1830.88
945.134	1142.77
945.309	1087.47
945.483	1183.73
945.658	1581.03
945.833	1026.03
946.007	960.5
946.182	1697.77
946.357	1173.49
946.531	950.26
946.706	1058.8
946.88	1032.18
947.055	1431.53
947.229	1046.51
947.404	1046.51
947.578	1599.46
947.752	1257.45
947.927	1030.13
948.101	1021.94
948.276	1409
948.45	1372.14
948.624	1378.28
948.799	1169.39
948.973	1550.31
949.147	1034.22
949.321	1112.05
949.496	1212.4
949.67	1720.29
949.844	1421.29
950.018	1120.24
950.193	1230.83
950.367	1875.94
950.541	1372.14
950.715	1284.08
950.889	1337.32
951.063	1353.71
951.237	1638.38
951.411	1040.37
951.585	1083.38
951.759	1540.07
951.933	1417.19
952.107	1159.15
952.281	1396.71
952.455	1820.64
952.629	1550.31
952.803	1191.92
952.977	1331.18
953.151	1574.89
953.325	1427.43
953.499	1347.56
953.672	1075.18
953.846	1169.39
954.02	1521.64
954.194	1198.06
954.368	1218.54
954.541	1755.11
954.715	1466.35
954.889	1361.9
955.062	1259.5
955.236	1546.22
955.41	1552.36
955.583	1560.55
955.757	1075.18
955.93	1396.71
956.104	1243.12
956.278	1294.32
956.451	1288.17
956.625	1585.13
956.798	1873.89
956.972	1589.22
957.145	1337.32
957.319	1542.12
957.492	1566.7
957.665	1394.67
957.839	1255.4
958.012	1650.66
958.185	1345.52
958.359	1345.52
958.532	1511.4
958.705	1699.81
958.879	1593.32
959.052	1300.46
959.225	1009.65
959.398	1554.41
959.572	1611.75
959.745	1296.36
959.918	1372.14
960.091	1464.3
960.264	1650.66
960.438	1253.36
960.611	1251.31
960.784	1636.33
960.957	1482.73
961.13	1718.25
961.303	1167.34
961.476	1503.21
961.649	1785.83
961.822	1075.18
961.995	1376.24
962.168	1714.15
962.341	1556.46
962.514	1312.75
962.686	1206.25
962.859	1585.13
963.032	1642.47
963.205	1226.73
963.378	1130.48
963.551	1640.42
963.723	1544.17
963.896	1353.71
964.069	1556.46
964.242	1515.5
964.414	1773.54
964.587	1249.26
964.76	1382.38
964.932	1556.46
965.105	1538.02
965.278	1263.6
965.45	1116.14
965.623	1525.74
965.795	1810.4
965.968	1222.64
966.14	1230.83
966.313	1417.19
966.485	1572.84
966.658	1286.12
966.83	1105.9
967.003	1742.82
967.175	1665
967.348	1271.79
967.52	1257.45
967.692	1929.19
967.865	1505.26
968.037	1298.41
968.209	1505.26
968.382	1462.25
968.554	1722.34
968.726	1210.35
968.898	1069.04
969.071	1562.6
969.243	1452.01
969.415	1298.41
969.587	1384.43
969.759	1906.66
969.932	1619.94
970.104	1302.51
970.276	1089.52
970.448	1327.08
970.62	1327.08
970.792	1378.28
970.964	1263.6
971.136	2035.68
971.308	1495.02
971.48	1150.96
971.652	1155.05
971.824	1757.16
971.996	1241.07
972.168	1259.5
972.339	1222.64
972.511	1525.74
972.683	1347.56
972.855	1437.67
973.027	1255.4
973.199	1402.86
973.37	1568.74
973.542	1351.66
973.714	1325.04
973.886	1400.81
974.057	1599.46
974.229	1101.81
974.401	1132.53
974.572	1185.77
974.744	948.21
974.915	1101.81
975.087	1286.12
975.259	1791.97
975.43	1298.41
975.602	1187.82
975.773	985.07
975.945	1206.25
976.116	1564.65
976.288	1046.51
976.459	1290.22
976.63	1327.08
976.802	1439.72
976.973	1048.56
977.145	1337.32
977.316	1853.41
977.487	1742.82
977.659	1308.65
977.83	1103.86
978.001	1802.21
978.172	1466.35
978.344	1030.13
978.515	1075.18
978.686	1267.69
978.857	1726.44
979.028	1089.52
979.2	1021.94
979.371	1531.88
979.542	1390.57
979.713	1355.76
979.884	782.32
980.055	1208.3
980.226	1353.71
980.397	1038.32
980.568	970.74
980.739	1572.84
980.91	1273.84
981.081	1198.06
981.252	1107.95
981.423	1329.13
981.594	1462.25
981.765	915.44
981.936	1132.53
982.106	1458.15
982.277	1656.81
982.448	946.16
982.619	1226.73
982.79	1169.39
982.96	1495.02
983.131	1146.86
983.302	696.31
983.472	1040.37
983.643	1224.69
983.814	1085.42
983.984	962.55
984.155	1206.25
984.326	1492.97
984.496	1081.33
984.667	1062.9
984.837	1060.85
985.008	1427.43
985.178	1300.46
985.349	1128.43
985.519	1157.1
985.69	1036.27
985.86	915.44
986.031	854
986.201	1363.95
986.371	1304.56
986.542	800.76
986.712	749.56
986.882	1341.42
987.053	1253.36
987.223	825.33
987.393	962.55
987.563	1087.47
987.734	1370.09
987.904	1318.89
988.074	944.11
988.244	1193.97
988.414	1005.55
988.585	858.1
988.755	989.17
988.925	1071.09
989.095	1542.12
989.265	901.11
989.435	919.54
989.605	1312.75
989.775	1290.22
989.945	1200.11
990.115	702.45
990.285	1042.42
990.455	1279.98
990.625	948.21
990.795	753.65
990.965	1390.57
991.134	854
991.304	747.51
991.474	784.37
991.644	1173.49
991.814	1439.72
991.984	739.32
992.153	757.75
992.323	905.2
992.493	1054.7
992.662	585.72
992.832	940.02
993.002	1079.28
993.171	1138.67
993.341	708.6
993.511	864.24
993.68	903.15
993.85	1200.11
994.019	686.07
994.189	692.21
994.358	1069.04
994.528	921.59
994.697	522.23
994.867	651.25
995.036	1155.05
995.206	995.31
995.375	567.29
995.544	854
995.714	1155.05
995.883	839.67
996.052	831.48
996.222	522.23
996.391	1423.34
996.56	927.73
996.73	616.44
996.899	518.14
997.068	1378.28
997.237	993.26
997.406	534.52
997.576	632.82
997.745	1091.57
997.914	956.4
998.083	417.79
998.252	600.05
998.421	985.07
998.59	825.33
998.759	589.82
998.928	477.18
999.097	1230.83
999.266	1034.22
999.435	782.32
999.604	442.36
999.773	1452.01
999.942	948.21
1000.111	497.66
1000.28	436.22
1000.448	595.96
1000.617	636.92
1000.786	706.55
1000.955	438.27
1001.124	948.21
1001.292	1521.64
1001.461	569.34
1001.63	524.28
1001.798	1234.93
1001.967	1241.07
1002.136	337.91
1002.304	487.42
1002.473	835.57
1002.642	878.58
1002.81	622.58
1002.979	587.77
1003.147	1001.46
1003.316	1361.9
1003.484	485.37
1003.653	436.22
1003.821	1148.91
1003.99	778.23
1004.158	649.21
1004.327	575.48
1004.495	1046.51
1004.663	681.97
1004.832	610.29
1005	313.34
1005.168	968.69
1005.337	706.55
1005.505	344.06
1005.673	735.22
1005.842	944.11
1006.01	901.11
1006.178	311.29
1006.346	331.77
1006.514	890.87
1006.683	999.41
1006.851	421.88
1007.019	376.83
1007.187	624.63
1007.355	348.15
1007.523	329.72
1007.691	315.39
1007.859	516.09
1008.027	960.5
1008.195	452.6
1008.363	274.43
1008.531	917.49
1008.699	638.97
1008.867	327.68
1009.035	342.01
1009.203	1066.99
1009.37	696.31
1009.538	374.78
1009.706	845.81
1009.874	767.99
1010.042	616.44
1010.209	237.56
1010.377	319.48
1010.545	858.1
1010.713	577.53
1010.88	274.43
1011.048	356.35
1011.216	616.44
1011.383	1030.13
1011.551	346.11
1011.718	167.93
1011.886	948.21
1012.054	567.29
1012.221	348.15
1012.389	325.63
1012.556	608.25
1012.724	1116.14
1012.891	448.51
1013.058	165.89
1013.226	761.84
1013.393	724.98
1013.561	16.38
1013.728	149.5
1013.895	915.44
1014.063	825.33
1014.23	256
1014.397	264.19
1014.565	815.09
1014.732	534.52
1014.899	256
1015.066	231.42
1015.233	659.45
1015.401	743.41
1015.568	368.63
1015.735	444.41
1015.902	620.53
1016.069	677.88
1016.236	256
1016.403	188.41
1016.57	378.87
1016.737	819.19
1016.904	268.28
1017.071	100.35
1017.238	423.93
1017.405	724.98
1017.572	208.89
1017.739	397.31
1017.906	759.8
1018.073	839.67
1018.24	75.77
1018.407	382.97
1018.573	911.35
1018.74	544.76
1018.907	321.53
1019.074	32.77
1019.241	819.19
1019.407	575.48
1019.574	145.41
1019.741	71.68
1019.907	528.38
1020.074	724.98
1020.241	-92.16
1020.407	86.01
1020.574	632.82
1020.74	643.06
1020.907	256
1021.073	157.69
1021.24	1128.43
1021.406	796.66
1021.573	108.54
1021.739	36.86
1021.906	702.45
1022.072	546.81
1022.239	149.5
1022.405	100.35
1022.571	583.67
1022.738	292.86
1022.904	196.61
1023.07	245.76
1023.237	444.41
1023.403	825.33
1023.569	153.6
1023.735	100.35
1023.902	546.81
1024.068	641.01
1024.234	49.15
1024.4	114.69
1024.566	528.38
1024.732	720.89
1024.898	129.02
1025.065	-24.58
1025.231	739.32
1025.397	481.27
1025.563	73.73
1025.729	83.97
1025.895	194.56
1026.061	157.69
1026.227	18.43
1026.392	135.17
1026.558	698.36
1026.724	595.96
1026.89	106.49
1027.056	135.17
1027.222	577.53
1027.388	362.49
1027.553	57.34
1027.719	18.43
1027.885	835.57
1028.051	602.1
1028.216	-104.45
1028.382	86.01
1028.548	606.2
1028.713	299
1028.879	2.05
1029.045	258.04
1029.21	837.62
1029.376	759.8
1029.541	151.55
1029.707	155.65
1029.873	573.43
1030.038	620.53
1030.204	110.59
1030.369	65.54
1030.534	655.35
1030.7	405.5
1030.865	96.25
1031.031	-2.05
1031.196	524.28
1031.361	552.95
1031.527	112.64
1031.692	14.34
1031.857	47.1
1032.023	657.4
1032.188	14.34
1032.353	135.17
1032.518	837.62
1032.684	534.52
1032.849	-16.38
1033.014	98.3
1033.179	595.96
1033.344	559.1
1033.509	75.77
1033.674	124.93
1033.839	595.96
1034.004	532.47
1034.17	51.2
1034.335	-75.77
1034.5	319.48
1034.664	317.44
1034.829	14.34
1034.994	14.34
1035.159	460.79
1035.324	501.75
1035.489	92.16
1035.654	53.25
1035.819	636.92
1035.984	483.32
1036.148	188.41
1036.313	116.73
1036.478	698.36
1036.643	507.9
1036.807	-45.06
1036.972	-6.14
1037.137	804.85
1037.301	411.64
1037.466	-112.64
1037.631	100.35
1037.795	647.16
1037.96	471.03
1038.124	182.27
1038.289	-14.34
1038.454	528.38
1038.618	571.38
1038.783	102.4
1038.947	26.62
1039.111	487.42
1039.276	258.04
1039.44	-30.72
1039.605	497.66
1039.769	337.91
1039.933	366.59
1040.098	67.58
1040.262	268.28
1040.426	561.14
1040.591	624.63
1040.755	-69.63
1040.919	-26.62
1041.083	538.62
1041.248	272.38
1041.412	-186.37
1041.576	-102.4
1041.74	319.48
1041.904	641.01
1042.068	-49.15
1042.232	22.53
1042.397	585.72
1042.561	432.12
1042.725	-253.95
1042.889	260.09
1043.053	661.49
1043.217	522.23
1043.381	137.21
1043.544	-112.64
1043.708	616.44
1043.872	186.37
1044.036	-176.13
1044.2	-141.31
1044.364	567.29
1044.528	796.66
1044.691	2996.18
1044.855	-133.12
1045.019	548.86
1045.183	493.56
1045.346	104.45
1045.51	-92.16
1045.674	530.42
1045.837	501.75
1046.001	100.35
1046.165	-51.2
1046.328	927.73
1046.492	485.37
1046.655	186.37
1046.819	65.54
1046.983	274.43
1047.146	419.83
1047.31	112.64
1047.473	-198.65
1047.636	342.01
1047.8	88.06
1047.963	49.15
1048.127	-137.21
1048.29	290.81
