Data from Hydrogel_Ink_Intensity_Test_1_USB4F045381__56__00056.txt Node

Date: Mon Jul 31 10:50:35 EDT 2023
User: mmckonesweet
Spectrometer: USB4F04538
Trigger mode: 4
Integration Time (sec): 9.000000E-1
Scans to average: 1
Electric dark correction enabled: true
Nonlinearity correction enabled: false
Boxcar width: 0
XAxis mode: Wavelengths
Number of Pixels in Spectrum: 3648
>>>>>Begin Spectral Data<<<<<
345.52	-963.57
345.736	-963.57
345.952	-963.57
346.168	-1053.68
346.384	-943.09
346.6	-134.14
346.816	-197.63
347.032	-175.1
347.248	265.21
347.464	-257.02
347.68	-201.72
347.896	152.57
348.112	396.28
348.328	-134.14
348.544	-56.32
348.76	44.03
348.975	297.98
349.191	-142.33
349.407	-177.15
349.623	72.7
349.839	-87.04
350.055	-60.42
350.27	68.61
350.486	175.1
350.702	406.52
350.918	246.78
351.133	-140.29
351.349	216.06
351.565	429.05
351.781	-246.78
351.996	68.61
352.212	351.23
352.428	-128
352.644	-189.44
352.859	-214.01
353.075	297.98
353.291	84.99
353.506	-82.94
353.722	-246.78
353.938	19.46
354.153	527.35
354.369	136.19
354.584	-152.57
354.8	238.59
355.016	-345.08
355.231	-300.03
355.447	-29.7
355.662	179.2
355.878	871.41
356.093	-345.08
356.309	-15.36
356.524	-195.58
356.74	248.83
356.955	-242.68
357.171	50.18
357.386	201.72
357.602	-181.25
357.817	-19.46
358.033	-123.9
358.248	488.44
358.464	216.06
358.679	-125.95
358.895	-287.74
359.11	93.18
359.325	357.37
359.541	287.74
359.756	48.13
359.972	-240.64
360.187	160.77
360.402	-226.3
360.618	-150.53
360.833	994.29
361.048	209.92
361.264	-134.14
361.479	-50.18
361.694	58.37
361.909	257.02
362.125	-146.43
362.34	-123.9
362.555	363.51
362.77	70.65
362.986	-222.2
363.201	-66.56
363.416	257.02
363.631	76.8
363.847	-179.2
364.062	-93.18
364.277	185.34
364.492	121.85
364.707	-117.76
364.922	-293.88
365.138	209.92
365.353	445.43
365.568	-148.48
365.783	-113.66
365.998	154.62
366.213	664.57
366.428	-193.53
366.643	121.85
366.858	297.98
367.073	293.88
367.288	-93.18
367.503	-263.16
367.718	125.95
367.933	308.22
368.148	-148.48
368.363	-9.22
368.578	46.08
368.793	508.92
369.008	-44.03
369.223	-228.35
369.438	263.16
369.653	490.49
369.868	-209.92
370.083	-201.72
370.298	195.58
370.513	482.3
370.728	68.61
370.943	-66.56
371.157	-193.53
371.372	631.8
371.587	-263.16
371.802	-158.72
372.017	121.85
372.232	535.54
372.446	74.75
372.661	-246.78
372.876	271.36
373.091	224.25
373.306	-80.89
373.52	-187.39
373.735	-111.61
373.95	465.91
374.165	-97.28
374.379	-25.6
374.594	60.42
374.809	175.1
375.023	35.84
375.238	-205.82
375.453	312.32
375.667	-148.48
375.882	-117.76
376.097	-58.37
376.311	78.85
376.526	48.13
376.741	-99.33
376.955	211.96
377.17	635.89
377.384	584.7
377.599	-13.31
377.813	-234.49
378.028	642.04
378.242	216.06
378.457	31.74
378.672	-291.84
378.886	80.89
379.101	-33.79
379.315	-226.3
379.53	-134.14
379.744	211.96
379.958	244.73
380.173	-29.7
380.387	-136.19
380.602	238.59
380.816	-158.72
381.031	-21.5
381.245	-5.12
381.459	328.7
381.674	2827.22
381.888	-70.65
382.103	181.25
382.317	-111.61
382.531	519.16
382.746	11.26
382.96	-52.22
383.174	-29.7
383.388	545.78
383.603	150.53
383.817	-128
384.031	195.58
384.246	535.54
384.46	44.03
384.674	390.14
384.888	162.81
385.103	99.33
385.317	-193.53
385.531	5.12
385.745	437.24
385.959	422.91
386.174	-101.37
386.388	-130.05
386.602	158.72
386.816	-72.7
387.03	27.65
387.244	76.8
387.458	136.19
387.672	439.29
387.887	-154.62
388.101	-144.38
388.315	416.76
388.529	203.77
388.743	-70.65
388.957	-146.43
389.171	386.04
389.385	-78.85
389.599	-21.5
389.813	123.9
390.027	308.22
390.241	801.78
390.455	-33.79
390.669	35.84
390.883	-17.41
391.097	592.89
391.311	201.72
391.525	-70.65
391.738	267.26
391.952	314.36
392.166	7.17
392.38	-148.48
392.594	457.72
392.808	400.38
393.022	91.13
393.236	-41.98
393.449	390.14
393.663	300.03
393.877	-138.24
394.091	21.5
394.305	60.42
394.518	-21.5
394.732	-189.44
394.946	39.94
395.16	650.23
395.373	138.24
395.587	-95.23
395.801	-95.23
396.015	453.63
396.228	353.27
396.442	-162.81
396.656	-181.25
396.869	449.53
397.083	625.65
397.297	23.55
397.51	39.94
397.724	476.15
397.938	306.17
398.151	-164.86
398.365	-128
398.578	326.65
398.792	496.63
399.005	115.71
399.219	-11.26
399.433	326.65
399.646	392.19
399.86	191.49
400.073	154.62
400.287	338.94
400.5	101.37
400.714	97.28
400.927	60.42
401.141	379.9
401.354	1246.19
401.567	334.84
401.781	-74.75
401.994	429.05
402.208	766.96
402.421	93.18
402.635	119.81
402.848	199.68
403.061	510.97
403.275	109.57
403.488	-97.28
403.701	740.34
403.915	396.28
404.128	142.33
404.341	-21.5
404.555	287.74
404.768	252.92
404.981	269.31
405.195	68.61
405.408	701.43
405.621	361.47
405.834	220.16
406.048	-37.89
406.261	639.99
406.474	664.57
406.687	-44.03
406.9	201.72
407.114	257.02
407.327	437.24
407.54	-78.85
407.753	-132.09
407.966	60.42
408.179	504.82
408.392	-23.55
408.605	-113.66
408.819	416.76
409.032	427
409.245	46.08
409.458	291.84
409.671	433.15
409.884	560.12
410.097	-80.89
410.31	312.32
410.523	338.94
410.736	226.3
410.949	207.87
411.162	175.1
411.375	605.17
411.588	594.93
411.801	318.46
412.014	64.51
412.227	263.16
412.44	216.06
412.653	84.99
412.865	230.4
413.078	578.55
413.291	445.43
413.504	154.62
413.717	13.31
413.93	551.93
414.143	150.53
414.356	277.5
414.568	-80.89
414.781	547.83
414.994	355.32
415.207	146.43
415.42	162.81
415.632	551.93
415.845	766.96
416.058	-37.89
416.271	-41.98
416.483	422.91
416.696	828.4
416.909	119.81
417.121	70.65
417.334	543.74
417.547	803.83
417.759	48.13
417.972	119.81
418.185	281.6
418.397	478.2
418.61	191.49
418.823	113.66
419.035	709.62
419.248	457.72
419.46	322.56
419.673	289.79
419.885	564.22
420.098	355.32
420.311	64.51
420.523	-5.12
420.736	592.89
420.948	449.53
421.161	154.62
421.373	-58.37
421.586	420.86
421.798	191.49
422.01	54.27
422.223	306.17
422.435	297.98
422.648	568.31
422.86	117.76
423.073	156.67
423.285	658.42
423.497	125.95
423.71	175.1
423.922	138.24
424.134	635.89
424.347	816.12
424.559	465.91
424.771	427
424.984	379.9
425.196	474.1
425.408	3.07
425.621	84.99
425.833	777.2
426.045	707.57
426.257	101.37
426.47	306.17
426.682	535.54
426.894	576.5
427.106	279.55
427.318	283.64
427.531	328.7
427.743	613.37
427.955	199.68
428.167	629.75
428.379	515.06
428.591	343.03
428.804	318.46
429.016	179.2
429.228	373.75
429.44	592.89
429.652	441.34
429.864	93.18
430.076	498.68
430.288	418.81
430.5	293.88
430.712	445.43
430.924	783.35
431.136	558.07
431.348	15.36
431.56	257.02
431.772	654.33
431.984	427
432.196	254.97
432.408	359.42
432.62	359.42
432.832	662.52
433.044	576.5
433.256	433.15
433.468	664.57
433.679	302.08
433.891	267.26
434.103	629.75
434.315	826.36
434.527	809.97
434.739	412.67
434.95	416.76
435.162	834.55
435.374	404.47
435.586	412.67
435.798	420.86
436.009	379.9
436.221	537.59
436.433	361.47
436.645	457.72
436.856	482.3
437.068	895.99
437.28	336.89
437.491	697.33
437.703	764.92
437.915	685.05
438.126	422.91
438.338	658.42
438.55	568.31
438.761	805.88
438.973	541.69
439.184	431.1
439.396	637.94
439.608	818.16
439.819	324.6
440.031	652.28
440.242	857.07
440.454	814.07
440.665	482.3
440.877	521.21
441.088	857.07
441.3	740.34
441.511	306.17
441.723	496.63
441.934	588.79
442.146	797.68
442.357	639.99
442.569	744.44
442.78	766.96
442.991	1190.89
443.203	793.59
443.414	482.3
443.626	1072.11
443.837	484.34
444.048	461.82
444.26	420.86
444.471	691.19
444.682	1049.58
444.894	355.32
445.105	412.67
445.316	928.75
445.528	779.25
445.739	588.79
445.95	494.58
446.161	828.4
446.373	971.76
446.584	523.26
446.795	510.97
447.006	1033.2
447.217	1225.71
447.429	424.95
447.64	482.3
447.851	1158.13
448.062	920.56
448.273	332.79
448.484	494.58
448.695	941.04
448.907	766.96
449.118	701.43
449.329	850.93
449.54	683
449.751	654.33
449.962	502.78
450.173	607.22
450.384	1072.11
450.595	1235.95
450.806	594.93
451.017	695.29
451.228	1053.68
451.439	1164.27
451.65	523.26
451.861	373.75
452.072	707.57
452.283	793.59
452.494	836.6
452.705	646.13
452.915	1276.91
453.126	1063.92
453.337	791.54
453.548	625.65
453.759	1266.67
453.97	1340.4
454.181	977.91
454.391	732.15
454.602	982
454.813	1158.13
455.024	775.16
455.235	703.48
455.445	1119.21
455.656	1049.58
455.867	922.61
456.078	842.74
456.288	900.08
456.499	1180.65
456.71	701.43
456.921	1002.48
457.131	1043.44
457.342	1135.6
457.553	850.93
457.763	723.96
457.974	1244.14
458.184	1252.33
458.395	728.05
458.606	740.34
458.816	1338.35
459.027	1577.96
459.237	898.03
459.448	723.96
459.659	1367.02
459.869	1702.89
460.08	736.24
460.29	1100.78
460.501	1584.1
460.711	1006.58
460.922	803.83
461.132	887.79
461.343	1770.47
461.553	959.47
461.764	969.71
461.974	887.79
462.184	1389.55
462.395	1457.13
462.605	1029.1
462.816	961.52
463.026	1326.06
463.236	1541.1
463.447	930.8
463.657	1051.63
463.867	1559.53
464.078	1356.78
464.288	1158.13
464.498	1125.36
464.709	1301.48
464.919	1340.4
465.129	1053.68
465.339	1133.55
465.55	1604.58
465.76	1612.78
465.97	1229.81
466.18	1129.45
466.391	1676.26
466.601	1399.79
466.811	1326.06
467.021	1151.98
467.231	1604.58
467.441	1731.56
467.651	1297.39
467.862	1027.06
468.072	1555.43
468.282	1870.82
468.492	1272.81
468.702	1362.92
468.912	1657.83
469.122	2241.5
469.332	1711.08
469.542	1303.53
469.752	1981.41
469.962	1809.38
470.172	1393.64
470.382	1473.51
470.592	1885.16
470.802	1981.41
471.012	1659.88
471.222	1498.09
471.432	2059.23
471.642	1993.7
471.852	1715.17
472.062	1561.58
472.272	1944.55
472.482	1678.31
472.691	1584.1
472.901	1555.43
473.111	1967.07
473.321	2417.63
473.531	1623.02
473.741	1774.56
473.95	2206.69
474.16	2202.59
474.37	2032.61
474.58	1559.53
474.79	2423.77
474.999	2378.72
475.209	1760.23
475.419	1879.01
475.628	2130.91
475.838	2448.35
476.048	2149.34
476.258	1885.16
476.467	2638.81
476.677	2274.27
476.886	2286.56
477.096	2231.26
477.306	2161.63
477.515	2714.58
477.725	2325.47
477.935	2356.19
478.144	2784.21
478.354	2409.44
478.563	2249.69
478.773	2290.65
478.982	2681.82
479.192	2943.96
479.401	2540.51
479.611	2493.4
479.82	2591.7
480.03	2741.21
480.239	2438.11
480.449	2497.5
480.658	3206.1
480.868	2651.1
481.077	2708.44
481.287	2575.32
481.496	3046.35
481.705	3365.84
481.915	2989.01
482.124	2835.41
482.333	2935.76
482.543	3376.08
482.752	2784.21
482.961	2726.87
483.171	3228.62
483.38	3120.08
483.589	2900.95
483.799	2892.76
484.008	3144.66
484.217	3380.17
484.426	3142.61
484.636	2972.63
484.845	3142.61
485.054	3068.88
485.263	3414.99
485.472	3034.07
485.682	3777.48
485.891	3492.81
486.1	3062.74
486.309	3144.66
486.518	3548.11
486.727	3650.5
486.936	3240.91
487.146	3283.92
487.355	3959.75
487.564	3406.8
487.773	3507.15
487.982	3306.45
488.191	3619.78
488.4	3834.82
488.609	3519.43
488.818	3531.72
489.027	4215.74
489.236	4131.78
489.445	3662.79
489.654	3517.39
489.863	4074.43
490.072	3871.68
490.281	3963.84
490.49	3693.51
490.698	4205.5
490.907	4469.69
491.116	3953.6
491.325	3609.54
491.534	4385.73
491.743	4027.33
491.952	3984.32
492.16	3771.33
492.369	4346.81
492.578	4303.81
492.787	4051.91
492.996	3933.12
493.204	4029.38
493.413	4621.24
493.622	3853.25
493.831	3738.57
494.039	4699.06
494.248	4090.82
494.457	4066.24
494.665	3990.47
494.874	4465.6
495.083	4805.56
495.291	4256.7
495.5	4033.47
495.709	4588.47
495.917	4707.26
496.126	4389.82
496.335	4203.46
496.543	4361.15
496.752	4719.54
496.96	4486.08
497.169	4221.89
497.377	4723.64
497.586	4934.58
497.794	4561.85
498.003	4238.27
498.211	4686.78
498.42	5147.57
498.628	4572.09
498.837	4447.16
499.045	4897.72
499.254	4799.41
499.462	4678.58
499.671	4375.49
499.879	5372.85
500.087	5106.61
500.296	4596.67
500.504	4731.83
500.713	4996.02
500.921	5477.29
501.129	4703.16
501.338	4789.17
501.546	5174.19
501.754	5247.92
501.962	4826.04
502.171	4885.43
502.379	5245.87
502.587	5514.16
502.795	5024.69
503.004	4877.24
503.212	5249.97
503.42	5286.83
503.628	5036.98
503.837	5045.17
504.045	5424.05
504.253	5649.32
504.461	5073.84
504.669	4953.01
504.877	5503.92
505.085	5790.63
505.294	5034.93
505.502	5206.96
505.71	5444.52
505.918	5602.22
506.126	5086.13
506.334	5034.93
506.542	5436.33
506.75	5370.8
506.958	5383.09
507.166	5385.13
507.374	5495.72
507.582	6073.25
507.79	5356.46
507.998	5161.91
508.206	5706.66
508.414	5663.66
508.622	5426.09
508.83	5407.66
509.037	5940.13
509.245	5473.2
509.453	5233.58
509.661	5297.07
509.869	5815.21
510.077	5761.96
510.285	5628.84
510.492	5213.1
510.7	6441.89
510.908	5723.05
511.116	5397.42
511.324	5522.35
511.531	5673.9
511.739	5968.8
511.947	5643.18
512.155	6065.06
512.362	5981.09
512.57	5626.79
512.778	5655.47
512.985	5360.56
513.193	6075.3
513.401	6466.46
513.608	5686.19
513.816	5675.95
514.024	6181.79
514.231	6097.83
514.439	5872.55
514.646	5508.01
514.854	6198.18
515.061	6161.31
515.269	5759.91
515.477	5909.41
515.684	5991.33
515.892	6364.06
516.099	5827.5
516.307	5774.25
516.514	6470.56
516.722	6658.97
516.929	6050.72
517.136	6040.48
517.344	6835.1
517.551	6427.55
517.759	6138.79
517.966	6171.55
518.173	6214.56
518.381	6394.78
518.588	6228.9
518.796	6151.07
519.003	6679.45
519.21	6411.17
519.418	6165.41
519.625	6429.6
519.832	6409.12
520.039	6646.68
520.247	6042.53
520.454	6138.79
520.661	6761.37
520.868	6810.52
521.076	6302.62
521.283	6441.89
521.49	7195.54
521.697	6775.7
521.904	6370.21
522.112	6280.1
522.319	6808.47
522.526	6753.18
522.733	6357.92
522.94	6415.26
523.147	6652.83
523.354	7003.03
523.561	6359.97
523.768	6646.68
523.975	7213.97
524.183	6994.84
524.39	6722.46
524.597	6503.32
524.804	6939.54
525.011	6753.18
525.218	6464.41
525.425	6652.83
525.632	7369.62
525.838	6704.03
526.045	6644.63
526.252	6656.92
526.459	8153.99
526.666	8020.87
526.873	6724.51
527.08	6818.71
527.287	7529.36
527.494	7199.63
527.701	6900.63
527.907	6818.71
528.114	7416.72
528.321	7148.43
528.528	6953.88
528.735	6943.64
528.941	7302.03
529.148	7093.14
529.355	6970.26
529.562	6953.88
529.768	7582.6
529.975	7160.72
530.182	6994.84
530.388	6876.06
530.595	7441.29
530.802	6910.87
531.008	7318.42
531.215	7146.39
531.422	8229.76
531.628	8256.39
531.835	7230.35
532.042	7287.7
532.248	7519.12
532.455	7623.56
532.661	7351.18
532.868	7381.9
533.074	7725.96
533.281	7691.15
533.487	7506.83
533.694	7304.08
533.9	7541.64
534.107	7807.88
534.313	7447.44
534.52	7406.48
534.726	8002.44
534.933	8059.78
535.139	7322.51
535.345	7519.12
535.552	7912.33
535.758	7738.25
535.965	7463.82
536.171	7582.6
536.377	8084.36
536.584	8285.06
536.79	7424.91
536.996	7801.74
537.203	8014.73
537.409	8016.77
537.615	7854.98
537.821	8049.54
538.028	8129.41
538.234	8008.58
538.44	7914.38
538.646	7541.64
538.853	8070.02
539.059	8129.41
539.265	8203.14
539.471	7621.52
539.677	8399.74
539.883	8178.56
540.09	7814.02
540.296	8414.08
540.502	8516.48
540.708	8166.28
540.914	8289.15
541.12	7992.2
541.326	8397.7
541.532	8350.59
541.738	8010.63
541.944	8180.61
542.15	8682.36
542.356	8489.85
542.562	8061.83
542.768	8156.04
542.974	8952.7
543.18	9137.01
543.386	8045.45
543.592	8176.52
543.798	8930.17
544.004	8741.75
544.21	8403.84
544.415	8440.7
544.621	8670.08
544.827	8899.45
545.033	8459.13
545.239	8835.96
545.445	8530.81
545.651	8827.77
545.856	8330.11
546.062	8520.57
546.268	8809.34
546.474	8768.38
546.679	8508.29
546.885	8387.46
547.091	8758.14
547.297	9165.68
547.502	8649.6
547.708	8397.7
547.914	8682.36
548.119	8774.52
548.325	8260.48
548.531	8500.09
548.736	9290.61
548.942	8688.51
549.147	8565.63
549.353	8852.34
549.559	9288.56
549.764	8956.79
549.97	8371.07
550.175	8706.94
550.381	9300.85
550.586	8711.04
550.792	8838.01
550.997	8663.93
551.203	9372.53
551.408	9210.74
551.614	8815.48
551.819	8807.29
552.025	9542.51
552.23	9706.35
552.435	8934.26
552.641	9325.43
552.846	9180.02
553.052	9802.6
553.257	9225.08
553.462	9169.78
553.668	9042.81
553.873	9515.89
554.078	9059.19
554.283	9100.15
554.489	9573.23
554.694	9384.82
554.899	9069.43
555.105	9366.39
555.31	9571.18
555.515	9507.69
555.72	9177.97
555.925	9114.48
556.131	9628.53
556.336	9358.19
556.541	9180.02
556.746	9173.88
556.951	9909.1
557.156	9796.46
557.361	9245.55
557.567	9446.26
557.772	10257.25
557.977	9919.34
558.182	9288.56
558.387	9429.87
558.592	9603.95
558.797	10042.21
559.002	9599.85
559.207	9456.5
559.412	9655.15
559.617	10230.63
559.822	9524.08
560.027	9505.65
560.232	9775.98
560.437	10048.36
560.642	9407.34
560.847	9456.5
561.051	9851.75
561.256	9763.69
561.461	9587.57
561.666	9382.77
561.871	9769.83
562.076	10044.26
562.281	9704.3
562.485	9358.19
562.69	10087.27
562.895	10283.88
563.1	9722.73
563.305	9581.42
563.509	10386.27
563.714	10361.7
563.919	9757.55
564.123	9655.15
564.328	9829.23
564.533	10283.88
564.737	9782.12
564.942	9751.4
565.147	10599.26
565.351	10650.46
565.556	9837.42
565.761	10007.4
565.965	10279.78
566.17	9962.34
566.374	9841.51
566.579	9704.3
566.784	10216.29
566.988	10216.29
567.193	9880.43
567.397	9773.93
567.602	9878.38
567.806	10177.38
568.011	9925.48
568.215	9982.82
568.42	10318.69
568.624	10193.76
568.828	9984.87
569.033	10017.64
569.237	10621.79
569.442	10707.8
569.646	9669.48
569.85	10122.09
570.055	10378.08
570.259	10386.27
570.463	10343.27
570.668	10161
570.872	10435.42
571.076	10503.01
571.281	10220.39
571.485	10353.51
571.689	10386.27
571.893	10867.55
572.098	10333.03
572.302	10228.58
572.506	10683.23
572.71	10650.46
572.914	10195.81
573.119	10326.88
573.323	11010.9
573.527	10894.17
573.731	10662.75
573.935	10320.74
574.139	10662.75
574.343	10533.73
574.547	10554.21
574.751	10511.2
574.955	10802.01
575.159	10982.23
575.364	10455.9
575.568	10529.63
575.772	10933.08
575.976	11119.45
576.18	10416.99
576.383	10566.49
576.587	11144.02
576.791	11101.01
576.995	10158.95
577.199	10566.49
577.403	10931.03
577.607	11205.46
577.811	10556.25
578.015	10664.8
578.219	11371.35
578.422	11047.77
578.626	10724.19
578.83	11017.05
579.034	11262.8
579.238	11021.14
579.442	10933.08
579.645	11287.38
579.849	11094.87
580.053	11141.97
580.257	10855.26
580.46	10771.29
580.664	11539.28
580.868	11318.1
581.071	11078.49
581.275	10937.18
581.479	10982.23
581.682	11242.32
581.886	10965.85
582.09	10953.56
582.293	11615.05
582.497	11606.86
582.7	11107.16
582.904	10978.14
583.107	11266.9
583.311	10998.62
583.515	11058.01
583.718	11111.25
583.922	11533.14
584.125	11791.18
584.329	11103.06
584.532	11283.28
584.735	11846.48
584.939	11488.08
585.142	10982.23
585.346	11285.33
585.549	11508.56
585.753	11455.31
585.956	11404.11
586.159	11295.57
586.363	12041.03
586.566	11842.38
586.769	11197.27
586.973	11121.49
587.176	11826
587.379	11889.48
587.582	11578.19
587.786	11463.51
587.989	11848.52
588.192	12407.62
588.395	11641.68
588.599	11717.45
588.802	11791.18
589.005	12045.13
589.208	11639.63
589.411	11586.38
589.615	12069.7
589.818	12372.8
590.021	11840.33
590.224	11948.87
590.427	12188.49
590.63	12172.1
590.833	11518.8
591.036	11457.36
591.239	12036.94
591.442	11615.05
591.645	11875.15
591.848	11662.16
592.051	12104.52
592.254	12251.97
592.457	11942.73
592.66	11836.24
592.863	12041.03
593.066	12401.47
593.269	11912.01
593.472	11791.18
593.675	12170.05
593.878	12303.17
594.081	12090.18
594.284	11846.48
594.486	12370.76
594.689	12190.53
594.892	11995.98
595.095	11873.1
595.298	12327.75
595.5	12204.87
595.703	12292.93
595.906	12225.35
596.109	12559.17
596.311	12755.77
596.514	11752.27
596.717	12272.45
596.92	12626.75
597.122	12512.07
597.325	11815.76
597.528	11957.07
597.73	12854.08
597.933	12430.15
598.136	11998.02
598.338	11981.64
598.541	12536.64
598.743	13128.5
598.946	12176.2
599.148	12467.01
599.351	12835.64
599.554	13007.67
599.756	12315.46
599.959	12405.57
600.161	13022.01
600.363	13079.35
600.566	12653.37
600.768	12389.19
600.971	12991.29
601.173	12837.69
601.376	12405.57
601.578	12387.14
601.78	12778.3
601.983	13128.5
602.185	12360.52
602.388	12399.43
602.59	12712.77
602.792	12780.35
602.995	12735.29
603.197	12452.67
603.399	13116.22
603.601	12792.64
603.804	12514.11
604.006	12360.52
604.208	12692.29
604.41	12596.03
604.613	12907.32
604.815	12397.38
605.017	13302.58
605.219	12708.67
605.421	12901.18
605.623	12591.94
605.826	13433.65
606.028	13226.81
606.23	12464.96
606.432	12546.88
606.634	13386.55
606.836	13237.05
607.038	12577.6
607.24	13038.39
607.442	13077.3
607.644	13128.5
607.846	13009.72
608.048	12587.84
608.25	13302.58
608.452	12956.47
608.654	12831.55
608.856	12503.87
609.058	13075.26
609.26	13171.51
609.462	12704.57
609.664	13019.96
609.866	13300.53
610.067	13062.97
610.269	12745.53
610.471	12806.97
610.673	13095.74
610.875	13349.68
611.077	12716.86
611.278	12931.9
611.48	13030.2
611.682	13775.66
611.884	13165.37
612.085	13044.54
612.287	13007.67
612.489	13251.38
612.69	12622.66
612.892	13007.67
613.094	13499.19
613.295	13122.36
613.497	12634.94
613.699	12880.7
613.9	13568.82
614.102	13460.27
614.304	12929.85
614.505	12745.53
614.707	13376.31
614.908	13161.27
615.11	12684.09
615.311	13097.78
615.513	13421.36
615.714	13370.16
615.916	12837.69
616.117	13019.96
616.319	13343.54
616.52	13433.65
616.722	13216.57
616.923	12997.43
617.124	13525.81
617.326	13239.09
617.527	13220.66
617.729	13259.57
617.93	13228.85
618.131	13372.21
618.333	12938.04
618.534	13159.22
618.735	12981.05
618.937	13626.16
619.138	12817.21
619.339	13054.78
619.54	13527.86
619.742	13130.55
619.943	13067.06
620.144	13259.57
620.345	13615.92
620.546	13820.72
620.748	13073.21
620.949	13189.94
621.15	13579.06
621.351	13314.87
621.552	12950.33
621.753	12946.23
621.954	13050.68
622.155	13935.4
622.356	12970.81
622.558	13187.89
622.759	13476.66
622.96	13761.33
623.161	13118.26
623.362	13142.84
623.563	13200.18
623.764	13249.33
623.965	13144.89
624.166	13503.28
624.366	13343.54
624.567	13564.72
624.768	13069.11
624.969	13198.13
625.17	13280.05
625.371	13757.23
625.572	13230.9
625.773	13159.22
625.973	13671.22
626.174	13660.98
626.375	13200.18
626.576	13341.49
626.777	13761.33
626.977	14066.47
627.178	13112.12
627.379	13390.64
627.58	13402.93
627.78	13470.51
627.981	13208.37
628.182	13675.31
628.382	13884.2
628.583	13384.5
628.784	13271.86
628.984	13515.57
629.185	14017.32
629.386	13687.6
629.586	13601.58
629.787	13179.7
629.987	13871.92
630.188	13794.09
630.388	13490.99
630.589	13355.83
630.79	14398.24
630.99	13792.05
631.191	13433.65
631.391	13640.5
631.591	13640.5
631.792	14265.13
631.992	13726.51
632.193	13480.75
632.393	13982.51
632.594	13687.6
632.794	13370.16
632.994	13638.45
633.195	13769.52
633.395	13828.91
633.595	13241.14
633.796	13738.8
633.996	13771.57
634.196	13976.36
634.397	13605.68
634.597	13716.27
634.797	13556.53
634.997	14074.67
635.198	13927.21
635.398	13550.39
635.598	14027.56
635.798	14160.68
635.998	13894.44
636.199	13484.85
636.399	13720.37
636.599	13325.11
636.799	13636.4
636.999	13855.53
637.199	14222.12
637.399	14461.73
637.599	13523.76
637.799	13599.54
637.999	13712.17
638.199	14185.26
638.399	13447.99
638.599	13675.31
638.799	14150.44
638.999	14650.14
639.199	13931.31
639.399	13822.77
639.599	14312.23
639.799	13876.01
639.999	13892.4
640.199	13527.86
640.399	14033.71
640.599	13679.41
640.799	13976.36
640.998	14095.14
641.198	14439.2
641.398	14349.09
641.598	13943.6
641.798	14005.03
641.997	14963.48
642.197	13906.73
642.397	13943.6
642.597	13790
642.796	14465.83
642.996	14400.29
643.196	13880.11
643.395	13826.86
643.595	14314.28
643.795	13867.82
643.994	13916.97
644.194	14150.44
644.394	14365.48
644.593	14205.74
644.793	13892.4
644.992	14183.21
645.192	14422.82
645.392	13843.24
645.591	14322.47
645.791	14142.25
645.99	14291.75
646.19	14256.93
646.389	14277.41
646.589	14064.43
646.788	14535.46
646.987	14242.6
647.187	14443.3
647.386	14076.71
647.586	14324.52
647.785	14451.49
647.984	14089
648.184	14074.67
648.383	14156.58
648.582	14144.3
648.782	14220.07
648.981	14285.61
649.18	14244.65
649.38	14328.61
649.579	14224.17
649.778	14189.35
649.977	14738.21
650.177	14322.47
650.376	14209.83
650.575	14041.9
650.774	14912.28
650.973	14201.64
651.173	13849.39
651.372	14250.79
651.571	14646.05
651.77	14600.99
651.969	14093.1
652.168	14301.99
652.367	14162.73
652.566	14463.78
652.765	14062.38
652.964	14611.23
653.163	14787.36
653.362	14355.24
653.561	14207.78
653.76	14447.4
653.959	14580.51
654.158	14846.75
654.357	14541.6
654.556	14142.25
654.755	14738.21
654.954	14725.92
655.153	14203.69
655.352	14340.9
655.551	14750.49
655.749	14258.98
655.948	14095.14
656.147	14615.33
656.346	14660.38
656.545	14654.24
656.743	14377.76
656.942	14756.64
657.141	14525.22
657.34	14652.19
657.538	14367.52
657.737	14308.13
657.936	14605.09
658.135	14578.47
658.333	14471.97
658.532	14314.28
658.731	14943
658.929	14885.66
659.128	15004.44
659.326	14185.26
659.525	15020.83
659.724	14625.57
659.922	14197.54
660.121	14355.24
660.319	14764.83
660.518	14469.92
660.716	14308.13
660.915	14240.55
661.113	15164.18
661.312	14338.85
661.51	14660.38
661.709	14480.16
661.907	14840.61
662.105	14959.39
662.304	14398.24
662.502	14658.34
662.701	15211.29
662.899	14795.55
663.097	15002.4
663.296	14351.14
663.494	15149.85
663.692	15264.54
663.891	14525.22
664.089	14705.44
664.287	14867.23
664.485	15092.51
664.684	14596.9
664.882	14600.99
665.08	14674.72
665.278	15006.49
665.476	14508.83
665.675	14742.3
665.873	15158.04
666.071	15041.31
666.269	14455.59
666.467	14975.77
666.665	14914.33
666.863	14586.66
667.061	14699.3
667.259	14363.43
667.457	14668.58
667.655	14881.56
667.853	14301.99
668.051	14512.93
668.249	14383.91
668.447	14701.34
668.645	14416.68
668.843	14887.71
669.041	15057.69
669.239	14646.05
669.437	14633.76
669.635	14457.64
669.833	14600.99
670.031	14785.31
670.229	14463.78
670.426	14615.33
670.624	14754.59
670.822	14435.11
671.02	14498.59
671.218	14856.99
671.415	14717.73
671.613	14502.69
671.811	14711.58
672.009	14627.62
672.206	15031.07
672.404	14799.65
672.602	14584.61
672.799	14633.76
672.997	14850.85
673.195	15125.27
673.392	14830.37
673.59	14471.97
673.788	15098.65
673.985	14332.71
674.183	14822.17
674.38	14660.38
674.578	14793.5
674.775	14357.28
674.973	14230.31
675.17	14461.73
675.368	14957.34
675.565	15002.4
675.763	14603.04
675.96	14519.07
676.158	15088.41
676.355	14609.19
676.553	14508.83
676.75	14361.38
676.947	14664.48
677.145	14605.09
677.342	14701.34
677.539	14644
677.737	14631.71
677.934	14932.76
678.131	14598.95
678.329	14355.24
678.526	14957.34
678.723	14930.72
678.92	14695.2
679.118	14459.68
679.315	14486.31
679.512	14965.53
679.709	14258.98
679.906	14375.72
680.104	14752.54
680.301	14873.37
680.498	14322.47
680.695	14134.06
680.892	14271.27
681.089	14508.83
681.286	14570.27
681.483	14041.9
681.68	14654.24
681.877	14926.62
682.075	14125.86
682.272	14283.56
682.469	14629.66
682.665	14596.9
682.862	14220.07
683.059	14215.98
683.256	14754.59
683.453	14574.37
683.65	14222.12
683.847	14373.67
684.044	14371.62
684.241	13955.88
684.438	14428.96
684.635	13726.51
684.831	14859.04
685.028	14893.85
685.225	14058.28
685.422	14433.06
685.619	14314.28
685.815	14230.31
686.012	14316.33
686.209	14045.99
686.405	14138.15
686.602	14707.49
686.799	14134.06
686.996	14127.91
687.192	14117.67
687.389	14795.55
687.586	14095.14
687.782	13996.84
687.979	14760.73
688.175	14476.07
688.372	14009.13
688.568	14283.56
688.765	14109.48
688.962	14514.98
689.158	14007.08
689.355	13787.95
689.551	14340.9
689.748	14062.38
689.944	14218.02
690.14	13718.32
690.337	14363.43
690.533	14369.57
690.73	14193.45
690.926	14103.34
691.123	14183.21
691.319	14015.27
691.515	13910.83
691.712	14301.99
691.908	14453.54
692.104	13978.41
692.301	13949.74
692.497	13773.61
692.693	14273.32
692.889	14289.7
693.086	13939.5
693.282	13749.04
693.478	13994.79
693.674	14326.57
693.87	13847.34
694.067	13642.54
694.263	14234.41
694.459	14009.13
694.655	13996.84
694.851	14060.33
695.047	14080.81
695.243	14306.09
695.439	14191.4
695.635	13675.31
695.831	14340.9
696.027	13736.75
696.224	13544.24
696.42	14375.72
696.615	14498.59
696.811	14121.77
697.007	13488.95
697.203	14095.14
697.399	14170.92
697.595	14228.26
697.791	13658.93
697.987	14107.43
698.183	13790
698.379	13630.26
698.575	13628.21
698.77	13751.09
698.966	14023.47
699.162	14248.74
699.358	13736.75
699.554	13599.54
699.749	14256.93
699.945	13951.79
700.141	13339.44
700.337	13548.34
700.532	13775.66
700.728	13529.91
700.924	13497.14
701.119	13404.98
701.315	13972.27
701.511	13710.13
701.706	14019.37
701.902	13550.39
702.097	13857.58
702.293	13974.31
702.489	13626.16
702.684	13523.76
702.88	13845.29
703.075	13505.33
703.271	13744.94
703.466	13527.86
703.662	13767.47
703.857	14113.58
704.053	13607.73
704.248	13646.64
704.443	14136.1
704.639	13949.74
704.834	13499.19
705.03	13484.85
705.225	13931.31
705.42	14117.67
705.616	13552.43
705.811	13310.77
706.006	13683.5
706.202	13462.32
706.397	13501.23
706.592	13419.32
706.787	13474.61
706.983	13806.38
707.178	13957.93
707.373	13654.83
707.568	13904.68
707.763	13894.44
707.959	13486.9
708.154	13364.02
708.349	13687.6
708.544	13833
708.739	13558.58
708.934	13382.45
709.129	13792.05
709.324	13767.47
709.519	13310.77
709.714	13341.49
709.909	13976.36
710.104	13620.02
710.299	13364.02
710.494	13230.9
710.689	13835.05
710.884	13683.5
711.079	13431.6
711.274	13646.64
711.469	13835.05
711.664	13407.03
711.859	13202.23
712.054	13310.77
712.249	13695.79
712.443	13908.78
712.638	13118.26
712.833	13171.51
713.028	13439.79
713.223	13447.99
713.417	13394.74
713.612	13138.74
713.807	13777.71
714.002	14086.95
714.196	13536.05
714.391	13214.52
714.586	13685.55
714.78	13562.67
714.975	13570.86
715.17	13239.09
715.364	13415.22
715.559	13724.46
715.754	12874.56
715.948	13028.15
716.143	13736.75
716.337	13536.05
716.532	13531.95
716.726	13366.07
716.921	13474.61
717.115	13818.67
717.31	12888.89
717.504	13552.43
717.699	13339.44
717.893	13683.5
718.088	12690.24
718.282	13069.11
718.476	13351.73
718.671	13206.33
718.865	13048.63
719.059	12821.31
719.254	13359.92
719.448	13534
719.642	14363.43
719.837	12505.92
720.031	13445.94
720.225	13343.54
720.419	13062.97
720.614	12911.42
720.808	13443.89
721.002	12802.88
721.196	12833.6
721.39	12976.95
721.585	13314.87
721.779	13191.99
721.973	12886.84
722.167	12520.26
722.361	13159.22
722.555	13542.19
722.749	12958.52
722.943	12909.37
723.137	12776.25
723.331	13251.38
723.525	12757.82
723.719	12833.6
723.913	13083.45
724.107	13460.27
724.301	12565.31
724.495	12995.39
724.689	13507.38
724.883	13384.5
725.077	12774.21
725.271	12907.32
725.465	13372.21
725.659	12983.1
725.853	13122.36
726.046	12759.87
726.24	12686.14
726.434	13028.15
726.628	12690.24
726.822	12856.12
727.015	13245.24
727.209	13110.07
727.403	12663.61
727.596	12507.97
727.79	13099.83
727.984	13144.89
728.177	12882.75
728.371	12798.78
728.565	13208.37
728.758	12704.57
728.952	12397.38
729.146	12770.11
729.339	13339.44
729.533	12831.55
729.726	12647.23
729.92	12454.72
730.113	13361.97
730.307	13220.66
730.5	12520.26
730.694	12581.7
730.887	12753.73
731.081	13490.99
731.274	12950.33
731.468	12516.16
731.661	12938.04
731.854	12876.6
732.048	12495.68
732.241	12479.3
732.435	12641.09
732.628	13038.39
732.821	12536.64
733.014	12487.49
733.208	12581.7
733.401	12956.47
733.594	12505.92
733.788	12688.19
733.981	13177.65
734.174	12946.23
734.367	12602.18
734.56	12874.56
734.754	13069.11
734.947	12880.7
735.14	12604.22
735.333	12475.2
735.526	13245.24
735.719	12583.74
735.912	12436.29
736.105	12292.93
736.298	13011.77
736.491	12671.81
736.684	12557.12
736.877	12616.51
737.07	12854.08
737.263	13042.49
737.456	12632.9
737.649	12438.34
737.842	12579.65
738.035	12954.43
738.228	12538.69
738.421	12909.37
738.614	13099.83
738.807	13083.45
739	12403.52
739.192	12403.52
739.385	12919.61
739.578	12858.17
739.771	13034.3
739.964	12477.25
740.156	12991.29
740.349	12884.8
740.542	12772.16
740.735	12495.68
740.927	12727.1
741.12	12723.01
741.313	12237.64
741.505	12675.9
741.698	12690.24
741.891	12766.01
742.083	12673.85
742.276	12579.65
742.468	12821.31
742.661	12815.16
742.854	12331.84
743.046	12471.11
743.239	12921.66
743.431	12665.66
743.624	12327.75
743.816	12276.55
744.009	12725.05
744.201	12602.18
744.393	12585.79
744.586	12077.9
744.778	13105.98
744.971	12550.98
745.163	12450.63
745.355	12510.02
745.548	12704.57
745.74	12636.99
745.932	12499.78
746.125	12268.36
746.317	13124.41
746.509	12540.74
746.702	12292.93
746.894	12348.23
747.086	12421.95
747.278	12823.36
747.471	12333.89
747.663	12409.67
747.855	12821.31
748.047	12923.71
748.239	12337.99
748.431	12284.74
748.623	13019.96
748.815	12905.28
749.008	12309.32
749.2	12249.93
749.392	12708.67
749.584	12557.12
749.776	12469.06
749.968	12274.5
750.16	13003.58
750.352	12538.69
750.544	12215.11
750.736	12147.53
750.928	12522.3
751.12	12536.64
751.311	12155.72
751.503	12350.28
751.695	12569.41
751.887	12239.69
752.079	11991.88
752.271	11985.74
752.463	13146.94
752.654	12626.75
752.846	12426.05
753.038	12174.15
753.23	12483.39
753.421	12401.47
753.613	11995.98
753.805	12315.46
753.997	12526.4
754.188	12329.8
754.38	11826
754.572	12198.73
754.763	12432.19
754.955	12317.51
755.146	12010.31
755.338	12055.37
755.53	12350.28
755.721	12178.25
755.913	11819.85
756.104	11836.24
756.296	12219.21
756.487	12446.53
756.679	11965.26
756.87	11789.13
757.062	11959.11
757.253	12192.58
757.445	11920.2
757.636	12122.95
757.827	12188.49
758.019	12757.82
758.21	11889.48
758.401	11813.71
758.593	12596.03
758.784	12333.89
758.975	11682.64
759.167	11776.84
759.358	11912.01
759.549	12348.23
759.74	11684.69
759.932	11752.27
760.123	12102.47
760.314	11672.4
760.505	11731.79
760.696	11860.81
760.888	12587.84
761.079	11744.08
761.27	11793.23
761.461	11531.09
761.652	12278.6
761.843	11860.81
762.034	11557.71
762.225	11756.36
762.416	11889.48
762.607	11707.21
762.798	11531.09
762.989	11668.3
763.18	12354.37
763.371	11729.74
763.562	11551.57
763.753	11498.32
763.944	11914.06
764.135	11772.75
764.326	11692.88
764.517	11582.29
764.708	11690.83
764.899	11680.59
765.089	11127.64
765.28	11178.84
765.471	11680.59
765.662	11608.91
765.853	11383.63
766.043	11170.65
766.234	11703.12
766.425	11549.52
766.615	11215.7
766.806	11058.01
766.997	11940.68
767.187	11320.15
767.378	11295.57
767.569	11127.64
767.759	11729.74
767.95	11582.29
768.141	11305.81
768.331	11051.86
768.522	11461.46
768.712	11623.25
768.903	10933.08
769.093	11041.62
769.284	11754.32
769.474	11393.87
769.665	10808.16
769.855	11064.15
770.046	11436.88
770.236	11209.56
770.426	11246.42
770.617	10902.36
770.807	11410.26
770.998	11189.08
771.188	11295.57
771.378	10822.49
771.569	11260.76
771.759	11295.57
771.949	10627.93
772.139	10607.45
772.33	10992.47
772.52	11586.38
772.71	10797.92
772.9	10797.92
773.09	11572.05
773.281	11492.18
773.471	10718.04
773.661	10931.03
773.851	11096.92
774.041	10881.88
774.231	10603.36
774.421	10881.88
774.611	11352.91
774.802	10980.18
774.992	10480.48
775.182	10513.25
775.372	10754.91
775.562	11094.87
775.752	10492.77
775.942	10527.58
776.131	11107.16
776.321	11111.25
776.511	10799.96
776.701	10593.12
776.891	11010.9
777.081	10564.45
777.271	10736.48
777.461	10720.09
777.651	11113.3
777.84	11025.24
778.03	10490.72
778.22	10328.93
778.41	11107.16
778.599	10392.42
778.789	10376.03
778.979	10527.58
779.169	10668.89
779.358	10718.04
779.548	10859.35
779.738	10134.37
779.927	10716
780.117	10564.45
780.307	10691.42
780.496	10165.09
780.686	10799.96
780.875	11139.93
781.065	10197.86
781.254	10242.92
781.444	10548.06
781.633	10541.92
781.823	10158.95
782.012	10212.2
782.202	10421.09
782.391	10529.63
782.581	9997.16
782.77	10251.11
782.96	10806.11
783.149	10464.1
783.338	10349.41
783.528	10081.13
783.717	10537.82
783.906	10746.72
784.096	10376.03
784.285	10074.98
784.474	10244.96
784.663	10087.27
784.853	10234.72
785.042	9982.82
785.231	10181.48
785.42	10650.46
785.61	10177.38
785.799	9671.53
785.988	10253.16
786.177	9907.05
786.366	9868.14
786.555	10124.13
786.744	10468.19
786.933	10261.35
787.122	9988.97
787.312	10031.97
787.501	10058.6
787.69	10359.65
787.879	10017.64
788.068	9851.75
788.257	9892.71
788.445	9864.04
788.634	9945.96
788.823	9898.86
789.012	10713.95
789.201	10474.34
789.39	9923.43
789.579	9730.92
789.768	10009.45
789.957	10091.37
790.145	9665.39
790.334	9732.97
790.523	10036.07
790.712	9923.43
790.9	9958.25
791.089	9632.62
791.278	10298.21
791.467	10011.5
791.655	9982.82
791.844	10234.72
792.033	9808.75
792.221	9415.54
792.41	9540.46
792.599	9466.74
792.787	10107.75
792.976	10134.37
793.164	9476.98
793.353	9450.35
793.541	10107.75
793.73	10074.98
793.918	9661.29
794.107	9429.87
794.295	9843.56
794.484	9966.44
794.672	9532.27
794.861	9210.74
795.049	10025.83
795.238	10034.02
795.426	9378.67
795.614	9440.11
795.803	9816.94
795.991	10259.3
796.179	9487.22
796.368	9489.26
796.556	9935.72
796.744	9505.65
796.932	9393.01
797.121	9182.07
797.309	9438.06
797.497	9816.94
797.685	9542.51
797.874	9317.23
798.062	9696.11
798.25	9909.1
798.438	9382.77
798.626	9255.79
798.814	9843.56
799.002	10201.96
799.19	9616.24
799.378	9581.42
799.566	9722.73
799.755	9993.06
799.943	9665.39
800.131	9317.23
800.318	9841.51
800.506	9649
800.694	9169.78
800.882	9382.77
801.07	9909.1
801.258	9622.38
801.446	9311.09
801.634	9255.79
801.822	9716.59
802.01	9821.03
802.197	9311.09
802.385	9614.19
802.573	9769.83
802.761	9347.95
802.949	9169.78
803.136	9227.12
803.324	9747.31
803.512	9874.28
803.699	9352.05
803.887	9194.36
804.075	9917.29
804.262	9558.89
804.45	9263.99
804.638	9460.59
804.825	9546.61
805.013	9409.39
805.201	9558.89
805.388	9530.22
805.576	9769.83
805.763	10142.57
805.951	9440.11
806.138	9505.65
806.326	10287.97
806.513	9798.51
806.701	9595.76
806.888	9327.47
807.075	9913.19
807.263	10122.09
807.45	9225.08
807.638	9591.66
807.825	10187.62
808.012	9913.19
808.2	9393.01
808.387	9821.03
808.574	10124.13
808.761	10025.83
808.949	9374.58
809.136	9694.06
809.323	9577.33
809.51	9716.59
809.698	10064.74
809.885	9663.34
810.072	9761.64
810.259	10201.96
810.446	9501.55
810.633	9495.41
810.82	10163.04
811.008	10347.36
811.195	9788.27
811.382	9694.06
811.569	9853.8
811.756	9464.69
811.943	10031.97
812.13	9880.43
812.317	9784.17
812.504	9966.44
812.691	9749.36
812.878	9679.72
813.064	10230.63
813.251	9980.78
813.438	9685.87
813.625	9683.82
813.812	9900.9
813.999	9794.41
814.186	9644.91
814.372	9718.64
814.559	9798.51
814.746	9999.21
814.933	9507.69
815.12	9790.31
815.306	9827.18
815.493	9515.89
815.68	9501.55
815.866	9532.27
816.053	10140.52
816.24	10349.41
816.426	9694.06
816.613	9571.18
816.799	10132.33
816.986	10101.61
817.173	9462.64
817.359	9413.49
817.546	9851.75
817.732	9526.13
817.919	9370.48
818.105	10021.74
818.292	9800.55
818.478	9788.27
818.665	9730.92
818.851	9397.1
819.037	10113.89
819.224	9728.88
819.41	9456.5
819.597	9350
819.783	10132.33
819.969	9960.3
820.156	9558.89
820.342	9401.2
820.528	10357.6
820.714	9618.29
820.901	9960.3
821.087	9421.68
821.273	9898.86
821.459	9503.6
821.646	9335.67
821.832	9288.56
822.018	9601.9
822.204	9726.83
822.39	9415.54
822.576	9141.11
822.762	9661.29
822.948	9657.2
823.134	9411.44
823.32	9147.25
823.507	9034.61
823.693	9626.48
823.879	9583.47
824.065	9493.36
824.25	9628.53
824.436	9487.22
824.622	9370.48
824.808	9302.9
824.994	9393.01
825.18	9409.39
825.366	9237.36
825.552	9177.97
825.738	9397.1
825.923	9708.4
826.109	9431.92
826.295	9161.59
826.481	9296.75
826.667	9259.89
826.852	9374.58
827.038	9182.07
827.224	9698.16
827.409	9778.03
827.595	8948.6
827.781	9542.51
827.966	9468.78
828.152	9530.22
828.338	9048.95
828.523	8782.71
828.709	9147.25
828.894	9466.74
829.08	8858.49
829.266	8938.36
829.451	9147.25
829.637	9261.94
829.822	9208.69
830.008	8876.92
830.193	9552.75
830.378	9591.66
830.564	9302.9
830.749	8747.9
830.935	9495.41
831.12	9366.39
831.305	9055.09
831.491	9059.19
831.676	8889.21
831.861	9214.84
832.047	8792.95
832.232	8850.3
832.417	9386.86
832.602	9188.21
832.788	8932.22
832.973	8700.8
833.158	8964.98
833.343	9046.9
833.528	8844.15
833.714	9046.9
833.899	9147.25
834.084	9505.65
834.269	9028.47
834.454	8700.8
834.639	9268.08
834.824	9079.67
835.009	8821.63
835.194	8862.58
835.379	9202.55
835.564	9292.66
835.749	8928.12
835.934	8641.4
836.119	9155.44
836.304	8844.15
836.489	8840.06
836.674	8983.41
836.859	8637.31
837.044	9165.68
837.228	8584.06
837.413	8784.76
837.598	8852.34
837.783	9108.34
837.968	8653.69
838.152	8444.8
838.337	8555.39
838.522	9192.31
838.707	9016.18
838.891	8622.97
839.076	9094.01
839.261	8997.75
839.445	8508.29
839.63	8422.27
839.815	9132.92
839.999	8571.77
840.184	8348.54
840.368	8668.03
840.553	8870.78
840.737	8831.87
840.922	8254.34
841.106	8295.3
841.291	8270.72
841.475	8590.2
841.66	8307.59
841.844	8350.59
842.029	9341.81
842.213	8489.85
842.397	8430.46
842.582	8127.36
842.766	9044.85
842.951	8911.74
843.135	8338.3
843.319	8244.1
843.504	8762.23
843.688	8844.15
843.872	8205.19
844.056	8221.57
844.241	8811.39
844.425	8541.05
844.609	8434.56
844.793	8207.23
844.977	8713.08
845.161	8428.42
845.346	7986.05
845.53	8053.64
845.714	8436.61
845.898	8739.71
846.082	7879.56
846.266	8219.52
846.45	8291.2
846.634	8315.78
846.818	7895.94
847.002	8225.67
847.186	8436.61
847.37	7984.01
847.554	7934.85
847.738	8256.39
847.922	8377.22
848.106	8313.73
848.29	7924.62
848.473	7867.27
848.657	8541.05
848.841	8227.71
849.025	8010.63
849.209	7713.67
849.392	8473.47
849.576	8184.71
849.76	7689.1
849.944	8061.83
850.127	8473.47
850.311	8014.73
850.495	7691.15
850.678	7801.74
850.862	8377.22
851.046	8354.69
851.229	8244.1
851.413	7646.09
851.596	8219.52
851.78	8041.35
851.964	8006.53
852.147	7609.23
852.331	8807.29
852.514	8285.06
852.698	8014.73
852.881	7730.06
853.065	8252.29
853.248	7947.14
853.431	7783.31
853.615	7904.14
853.798	8600.44
853.982	8039.3
854.165	7875.46
854.348	7752.59
854.532	7740.3
854.715	7699.34
854.898	7728.01
855.081	7527.31
855.265	8147.84
855.448	8330.11
855.631	7555.98
855.814	7490.45
855.997	8139.65
856.181	7703.43
856.364	7787.4
856.547	7549.84
856.73	8012.68
856.913	7889.8
857.096	7416.72
857.279	7691.15
857.462	7586.7
857.645	8229.76
857.828	7820.17
858.011	7623.56
858.194	7740.3
858.377	7789.45
858.56	7484.3
858.743	7629.71
858.926	7525.26
859.109	7822.22
859.292	7418.77
859.475	7386
859.658	7943.05
859.841	7601.04
860.023	7248.79
860.206	7209.87
860.389	7656.33
860.572	7928.71
860.755	7363.47
860.937	7318.42
861.12	7541.64
861.303	7527.31
861.486	7406.48
861.668	7246.74
861.851	7539.6
862.034	7596.94
862.216	7130
862.399	6908.82
862.581	7486.35
862.764	7705.48
862.947	7228.31
863.129	7134.1
863.312	7183.25
863.494	7969.67
863.677	7443.34
863.859	6882.2
864.042	7441.29
864.224	7736.2
864.406	7125.91
864.589	6855.58
864.771	7408.53
864.954	7087
865.136	6984.6
865.318	6632.35
865.501	7340.94
865.683	6787.99
865.865	6888.34
866.048	6910.87
866.23	7418.77
866.412	7326.61
866.594	6720.41
866.777	7250.83
866.959	7334.8
867.141	7179.15
867.323	7248.79
867.505	7060.37
867.687	7183.25
867.869	7328.66
868.052	7033.75
868.234	6824.86
868.416	7084.95
868.598	7445.39
868.78	6865.82
868.962	6679.45
869.144	7285.65
869.326	7281.55
869.508	6822.81
869.69	6865.82
869.872	6964.12
870.054	7394.19
870.236	6718.36
870.417	6732.7
870.599	7025.56
870.781	7414.67
870.963	6974.36
871.145	6691.74
871.327	6755.22
871.508	7269.27
871.69	6810.52
871.872	6855.58
872.054	7125.91
872.235	7152.53
872.417	6929.3
872.599	6642.59
872.78	7408.53
872.962	7226.26
873.144	6585.24
873.325	7123.86
873.507	7261.07
873.689	6933.4
873.87	6548.38
874.052	6859.67
874.233	6923.16
874.415	7158.67
874.596	6804.38
874.778	6837.14
874.959	7080.85
875.141	7293.84
875.322	6804.38
875.503	6675.35
875.685	7207.83
875.866	6611.87
876.048	6611.87
876.229	6495.13
876.41	6773.66
876.592	7156.63
876.773	6757.27
876.954	6476.7
877.136	7383.95
877.317	6826.9
877.498	6529.95
877.679	6822.81
877.86	7074.71
878.042	7058.32
878.223	6863.77
878.404	7107.48
878.585	7070.61
878.766	7216.02
878.947	6972.31
879.128	6917.01
879.309	7259.03
879.49	7336.85
879.672	6843.29
879.853	6933.4
880.034	6835.1
880.215	6910.87
880.396	6884.25
880.576	6767.51
880.757	6802.33
880.938	7441.29
881.119	6820.76
881.3	6876.06
881.481	7109.52
881.662	8133.51
881.843	6939.54
882.023	6785.94
882.204	7209.87
882.385	6970.26
882.566	6910.87
882.747	6878.1
882.927	7263.12
883.108	7250.83
883.289	6886.29
883.469	7183.25
883.65	7195.54
883.831	7220.11
884.011	7136.15
884.192	7017.36
884.373	7674.76
884.553	7457.68
884.734	7187.35
884.914	7232.4
885.095	7945.09
885.275	7854.98
885.456	7408.53
885.636	7039.89
885.817	7441.29
885.997	7340.94
886.178	6904.73
886.358	7326.61
886.538	7404.43
886.719	8276.87
886.899	7220.11
887.08	7302.03
887.26	7793.55
887.44	7173.01
887.621	6957.97
887.801	7254.93
887.981	8039.3
888.161	7705.48
888.342	7277.46
888.522	7238.55
888.702	7814.02
888.882	7992.2
889.062	7326.61
889.242	6996.89
889.423	7988.1
889.603	7701.39
889.783	7582.6
889.963	7185.3
890.143	7658.38
890.323	7598.99
890.503	7189.39
890.683	7150.48
890.863	7709.58
891.043	7668.62
891.223	7320.46
891.403	7541.64
891.583	7330.7
891.763	7467.92
891.943	7404.43
892.122	7234.45
892.302	7529.36
892.482	7535.5
892.662	7545.74
892.842	7304.08
893.022	7592.84
893.201	7226.26
893.381	7498.64
893.561	7308.18
893.741	7699.34
893.92	7555.98
894.1	7234.45
894.28	7482.25
894.459	7662.48
894.639	7586.7
894.819	7177.11
894.998	7306.13
895.178	7654.28
895.357	7490.45
895.537	7295.89
895.716	6917.01
895.896	7254.93
896.075	7865.22
896.255	7078.8
896.434	7017.36
896.614	7586.7
896.793	7689.1
896.973	7318.42
897.152	7150.48
897.331	7320.46
897.511	7517.07
897.69	6826.9
897.87	7062.42
898.049	7465.87
898.228	7275.41
898.407	7232.4
898.587	7308.18
898.766	7084.95
898.945	7463.82
899.124	7121.81
899.304	7078.8
899.483	7297.94
899.662	7760.78
899.841	6896.53
900.02	6853.53
900.199	7406.48
900.378	7177.11
900.557	6744.99
900.737	6466.46
900.916	7115.67
901.095	7244.69
901.274	6904.73
901.453	6728.6
901.632	6761.37
901.811	6882.2
901.989	6724.51
902.168	6642.59
902.347	7023.51
902.526	6779.8
902.705	6724.51
902.884	6597.53
903.063	7152.53
903.242	7230.35
903.42	6466.46
903.599	6663.07
903.778	6968.21
903.957	7121.81
904.135	6532
904.314	6503.32
904.493	6701.98
904.672	6908.82
904.85	6271.9
905.029	6448.03
905.207	6646.68
905.386	7228.31
905.565	6081.44
905.743	6159.27
905.922	6476.7
906.1	6560.67
906.279	5929.89
906.457	6099.87
906.636	6370.21
906.814	6316.96
906.993	6046.63
907.171	6024.1
907.35	6497.18
907.528	6394.78
907.707	6230.94
907.885	5807.02
908.063	6732.7
908.242	5870.5
908.42	5811.11
908.598	5637.03
908.777	6196.13
908.955	5888.93
909.133	5940.13
909.311	5819.3
909.49	5972.9
909.668	6013.86
909.846	5931.94
910.024	5669.8
910.202	6020
910.38	6192.03
910.559	5684.14
910.737	5888.93
910.915	6529.95
911.093	6214.56
911.271	6165.41
911.449	6204.32
911.627	6423.45
911.805	6955.93
911.983	6296.48
912.161	5919.65
912.339	6450.08
912.517	6787.99
912.695	6331.3
912.872	6024.1
913.05	6177.7
913.228	6462.37
913.406	6134.69
913.584	6151.07
913.762	6724.51
913.939	6212.51
914.117	6140.83
914.295	6120.35
914.473	6507.42
914.65	6425.5
914.828	6171.55
915.006	6216.61
915.184	6179.75
915.361	6396.83
915.539	6357.92
915.716	6290.34
915.894	6488.99
916.072	6560.67
916.249	6216.61
916.427	6265.76
916.604	5960.61
916.782	6398.88
916.959	5915.56
917.137	6146.98
917.314	6239.14
917.492	6319.01
917.669	6106.02
917.847	5942.18
918.024	6349.73
918.201	6048.68
918.379	6081.44
918.556	5925.8
918.733	6513.56
918.911	6210.47
919.088	6155.17
919.265	6042.53
919.442	6370.21
919.62	6067.11
919.797	5901.22
919.974	5778.34
920.151	6230.94
920.328	5999.52
920.506	6001.57
920.683	6036.39
920.86	5868.45
921.037	6097.83
921.214	5753.77
921.391	5667.75
921.568	6087.59
921.745	5837.73
921.922	5684.14
922.099	5845.93
922.276	6366.11
922.453	6175.65
922.63	5579.69
922.807	6017.96
922.984	5970.85
923.161	5958.57
923.338	5790.63
923.514	5696.43
923.691	5966.76
923.868	6093.73
924.045	5614.51
924.222	5548.97
924.399	5796.78
924.575	6073.25
924.752	5809.06
924.929	5540.78
925.105	5974.95
925.282	5718.95
925.459	5409.71
925.635	5516.2
925.812	5915.56
925.989	5557.16
926.165	5628.84
926.342	5188.53
926.518	5393.33
926.695	5665.71
926.871	5393.33
927.048	5272.5
927.224	5936.04
927.401	5594.03
927.577	5483.44
927.754	5198.77
927.93	5667.75
928.107	5716.9
928.283	5225.39
928.459	5333.93
928.636	5571.5
928.812	5430.19
928.988	5254.06
929.165	5274.54
929.341	5442.48
929.517	5483.44
929.693	5530.54
929.87	4981.68
930.046	5393.33
930.222	5401.52
930.398	5073.84
930.574	5292.98
930.751	5297.07
930.927	5237.68
931.103	5145.52
931.279	4979.64
931.455	5178.29
931.631	5292.98
931.807	4721.59
931.983	4922.29
932.159	4760.5
932.335	5184.43
932.511	5028.79
932.687	4797.37
932.863	5129.14
933.039	5010.36
933.215	4719.54
933.391	4627.39
933.566	4834.23
933.742	4856.76
933.918	4660.15
934.094	4529.08
934.27	4766.65
934.445	4873.14
934.621	4699.06
934.797	4365.25
934.973	4950.96
935.148	4717.5
935.324	4289.47
935.5	3996.61
935.675	4815.8
935.851	4418.49
936.027	4268.99
936.202	4113.35
936.378	4391.87
936.553	4072.39
936.729	4434.88
936.904	3767.24
937.08	3787.72
937.255	3849.16
937.431	3580.87
937.606	3505.1
937.782	3675.08
937.957	3832.77
938.133	3603.4
938.308	3421.13
938.483	3648.46
938.659	3406.8
938.834	3380.17
939.009	3279.82
939.185	3357.64
939.36	3247.05
939.535	2905.04
939.71	3290.06
939.886	3625.93
940.061	3398.6
940.236	3208.14
940.411	2939.86
940.586	3339.21
940.761	3455.95
940.937	3095.5
941.112	2819.03
941.287	3163.09
941.462	3167.18
941.637	2798.55
941.812	2952.15
941.987	3158.99
942.162	2980.82
942.337	2921.43
942.512	2765.78
942.687	3144.66
942.862	3109.84
943.037	2550.75
943.212	2429.91
943.386	2808.79
943.561	2993.11
943.736	2665.43
943.911	2931.67
944.086	2933.72
944.26	2989.01
944.435	2591.7
944.61	2849.75
944.785	3228.62
944.959	3341.26
945.134	2722.77
945.309	2579.42
945.483	2771.93
945.658	3087.31
945.833	2446.3
946.007	2520.03
946.182	3228.62
946.357	2655.19
946.531	2616.28
946.706	2528.22
946.88	2526.17
947.055	2978.77
947.229	2681.82
947.404	2522.07
947.578	3236.81
947.752	2755.54
947.927	2620.38
948.101	2591.7
948.276	3054.55
948.45	2933.72
948.624	2819.03
948.799	2692.05
948.973	3113.94
949.147	2718.68
949.321	2780.12
949.496	2655.19
949.67	3308.49
949.844	3029.97
950.018	2751.45
950.193	2915.28
950.367	3484.62
950.541	3101.65
950.715	2995.15
950.889	3009.49
951.063	3023.83
951.237	3306.45
951.411	2595.8
951.585	2552.79
951.759	3193.81
951.933	3181.52
952.107	2835.41
952.281	3068.88
952.455	3367.88
952.629	3124.18
952.803	2665.43
952.977	2724.82
953.151	3279.82
953.325	2874.32
953.499	3109.84
953.672	2675.67
953.846	2825.17
954.02	3103.7
954.194	2882.52
954.368	2816.98
954.541	3281.87
954.715	3042.26
954.889	3079.12
955.062	2927.57
955.236	3083.22
955.41	3156.94
955.583	3038.16
955.757	2788.31
955.93	3150.8
956.104	2759.64
956.278	2976.72
956.451	2952.15
956.625	3431.37
956.798	3718.09
956.972	3318.73
957.145	2739.16
957.319	3191.76
957.492	3273.68
957.665	3245.01
957.839	2970.58
958.012	3277.77
958.185	3232.72
958.359	2999.25
958.532	3232.72
958.705	3316.69
958.879	3204.05
959.052	3052.5
959.225	2894.8
959.398	3294.16
959.572	3378.12
959.745	3062.74
959.918	3023.83
960.091	3220.43
960.264	3572.68
960.438	2810.84
960.611	2929.62
960.784	3509.19
960.957	3113.94
961.13	3443.66
961.303	2956.24
961.476	3318.73
961.649	3554.25
961.822	2946
961.995	3222.48
962.168	3343.31
962.341	3322.83
962.514	3132.37
962.686	2841.56
962.859	3486.67
963.032	3410.89
963.205	2964.43
963.378	2946
963.551	3288.01
963.723	3136.46
963.896	3175.38
964.069	3228.62
964.242	3269.58
964.414	3425.23
964.587	2986.96
964.76	2976.72
964.932	3339.21
965.105	3115.98
965.278	3046.35
965.45	3001.3
965.623	3267.53
965.795	3306.45
965.968	3052.5
966.14	2984.91
966.313	3156.94
966.485	3312.59
966.658	3019.73
966.83	2915.28
967.003	3509.19
967.175	3249.1
967.348	3017.68
967.52	2986.96
967.692	3501
967.865	3335.12
968.037	2935.76
968.209	3181.52
968.382	3058.64
968.554	3419.08
968.726	2989.01
968.898	2927.57
969.071	3300.3
969.243	3265.49
969.415	3001.3
969.587	3007.44
969.759	3611.59
969.932	3345.36
970.104	2874.32
970.276	2644.95
970.448	3099.6
970.62	2935.76
970.792	2968.53
970.964	2964.43
971.136	3425.23
971.308	3236.81
971.48	2868.18
971.652	2804.69
971.824	3359.69
971.996	3013.59
972.168	2763.73
972.339	2833.36
972.511	3232.72
972.683	2943.96
972.855	3056.59
973.027	2859.99
973.199	2995.15
973.37	3158.99
973.542	2923.48
973.714	2935.76
973.886	2984.91
974.057	3154.9
974.229	2649.05
974.401	2690.01
974.572	2812.89
974.744	2540.51
974.915	2663.38
975.087	2747.35
975.259	3283.92
975.43	2935.76
975.602	2730.97
975.773	2585.56
975.945	2722.77
976.116	3038.16
976.288	2544.6
976.459	2911.19
976.63	2999.25
976.802	2919.38
976.973	2692.05
977.145	2776.02
977.316	3392.46
977.487	2939.86
977.659	2886.61
977.83	2591.7
978.001	3386.32
978.172	3048.4
978.344	2657.24
978.515	2616.28
978.686	2644.95
978.857	3140.56
979.028	2603.99
979.2	2522.07
979.371	3156.94
979.542	2681.82
979.713	2757.59
979.884	2194.4
980.055	2493.4
980.226	2671.58
980.397	2575.32
980.568	2431.96
980.739	2886.61
980.91	2733.01
981.081	2726.87
981.252	2534.36
981.423	2911.19
981.594	2984.91
981.765	2335.71
981.936	2640.86
982.106	2751.45
982.277	3025.87
982.448	2503.64
982.619	2698.2
982.79	2560.98
982.96	2921.43
983.131	2520.03
983.302	2145.25
983.472	2640.86
983.643	2767.83
983.814	2532.31
983.984	2360.28
984.155	2565.08
984.326	2831.32
984.496	2415.58
984.667	2431.96
984.837	2468.83
985.008	2792.41
985.178	2477.02
985.349	2231.26
985.519	2526.17
985.69	2382.81
985.86	2313.18
986.031	2178.01
986.201	2556.89
986.371	2632.66
986.542	2280.41
986.712	2137.06
986.882	2577.37
987.053	2556.89
987.223	2184.16
987.393	2378.72
987.563	2429.91
987.734	2524.12
987.904	2642.9
988.074	2141.15
988.244	2474.97
988.414	2446.3
988.585	2067.42
988.755	2266.08
988.925	2354.14
989.095	2728.92
989.265	1969.12
989.435	2192.35
989.605	2505.69
989.775	2552.79
989.945	2417.63
990.115	1973.22
990.285	2343.9
990.455	2444.25
990.625	1987.55
990.795	2178.01
990.965	2599.9
991.134	2194.4
991.304	1983.46
991.474	2053.09
991.644	2296.8
991.814	2563.03
991.984	1948.64
992.153	1928.16
992.323	2153.44
992.493	2223.07
992.662	1829.86
992.832	2075.62
993.002	2218.97
993.171	2311.13
993.341	1797.09
993.511	2016.23
993.68	2120.67
993.85	2313.18
994.019	1749.99
994.189	1768.42
994.358	2188.25
994.528	1891.3
994.697	1653.73
994.867	1700.84
995.036	2405.34
995.206	2132.96
995.375	1768.42
995.544	1924.07
995.714	2198.49
995.883	1893.35
996.052	1917.92
996.222	1514.47
996.391	2577.37
996.56	2104.29
996.73	1727.46
996.899	1514.47
997.068	2358.24
997.237	2030.56
997.406	1645.54
997.576	1504.23
997.745	2075.62
997.914	1973.22
998.083	1506.28
998.252	1698.79
998.421	2061.28
998.59	1895.4
998.759	1623.02
998.928	1444.84
999.097	2196.45
999.266	2014.18
999.435	1715.17
999.604	1436.65
999.773	2350.04
999.942	1854.44
1000.111	1381.35
1000.28	1422.31
1000.448	1672.17
1000.617	1625.06
1000.786	1704.93
1000.955	1389.55
1001.124	1973.22
1001.292	2595.8
1001.461	1481.71
1001.63	1508.33
1001.798	2059.23
1001.967	1985.51
1002.136	1301.48
1002.304	1446.89
1002.473	1885.16
1002.642	1801.19
1002.81	1481.71
1002.979	1461.23
1003.147	1983.46
1003.316	2188.25
1003.484	1412.07
1003.653	1383.4
1003.821	2116.58
1003.99	1586.15
1004.158	1467.37
1004.327	1491.95
1004.495	1803.24
1004.663	1481.71
1004.832	1608.68
1005	1080.3
1005.168	1862.63
1005.337	1674.21
1005.505	1229.81
1005.673	1442.79
1005.842	1641.45
1006.01	1780.71
1006.178	1244.14
1006.346	1250.28
1006.514	1825.76
1006.683	1829.86
1006.851	1362.92
1007.019	1364.97
1007.187	1334.25
1007.355	1096.69
1007.523	1080.3
1007.691	1166.32
1007.859	1182.7
1008.027	1831.91
1008.195	1268.72
1008.363	1111.02
1008.531	1704.93
1008.699	1410.03
1008.867	1068.02
1009.035	1176.56
1009.203	1745.89
1009.37	1485.8
1009.538	1174.51
1009.706	1653.73
1009.874	1571.82
1010.042	1522.66
1010.209	1002.48
1010.377	1127.41
1010.545	1678.31
1010.713	1483.75
1010.88	1164.27
1011.048	1129.45
1011.216	1412.07
1011.383	1752.04
1011.551	945.14
1011.718	920.56
1011.886	1594.34
1012.054	1315.82
1012.221	936.95
1012.389	1045.49
1012.556	1434.6
1012.724	1756.13
1012.891	1207.28
1013.058	912.37
1013.226	1504.23
1013.393	1444.84
1013.561	885.75
1013.728	803.83
1013.895	1453.03
1014.063	1467.37
1014.23	785.4
1014.397	842.74
1014.565	1414.12
1014.732	1299.44
1014.899	863.22
1015.066	816.12
1015.233	1293.29
1015.401	1405.93
1015.568	998.38
1015.735	1059.82
1015.902	1235.95
1016.069	1295.34
1016.236	818.16
1016.403	861.17
1016.57	1037.3
1016.737	1416.17
1016.904	947.19
1017.071	662.52
1017.238	998.38
1017.405	1414.12
1017.572	764.92
1017.739	1072.11
1017.906	1330.16
1018.073	1530.86
1018.24	697.33
1018.407	916.47
1018.573	1422.31
1018.74	1135.6
1018.907	850.93
1019.074	605.17
1019.241	1389.55
1019.407	1121.26
1019.574	687.09
1019.741	551.93
1019.907	1238
1020.074	1221.61
1020.241	496.63
1020.407	633.85
1020.574	1219.57
1020.74	1188.85
1020.907	750.58
1021.073	637.94
1021.24	1563.62
1021.406	1362.92
1021.573	594.93
1021.739	762.87
1021.906	1102.83
1022.072	1016.82
1022.239	758.77
1022.405	775.16
1022.571	1043.44
1022.738	805.88
1022.904	592.89
1023.07	711.67
1023.237	1059.82
1023.403	1356.78
1023.569	721.91
1023.735	656.37
1023.902	1166.32
1024.068	1096.69
1024.234	637.94
1024.4	613.37
1024.566	1027.06
1024.732	1213.42
1024.898	662.52
1025.065	437.24
1025.231	1233.9
1025.397	891.89
1025.563	625.65
1025.729	644.09
1025.895	580.6
1026.061	721.91
1026.227	461.82
1026.392	607.22
1026.558	1362.92
1026.724	984.05
1026.89	631.8
1027.056	746.48
1027.222	977.91
1027.388	742.39
1027.553	596.98
1027.719	422.91
1027.885	1305.58
1028.051	1049.58
1028.216	424.95
1028.382	625.65
1028.548	1104.88
1028.713	777.2
1028.879	402.43
1029.045	711.67
1029.21	1186.8
1029.376	1119.21
1029.541	637.94
1029.707	539.64
1029.873	1063.92
1030.038	1156.08
1030.204	529.4
1030.369	521.21
1030.534	1092.59
1030.7	795.64
1030.865	517.11
1031.031	427
1031.196	957.43
1031.361	988.14
1031.527	412.67
1031.692	431.1
1031.857	502.78
1032.023	1006.58
1032.188	390.14
1032.353	453.63
1032.518	1231.85
1032.684	871.41
1032.849	302.08
1033.014	556.02
1033.179	961.52
1033.344	1022.96
1033.509	564.22
1033.674	363.51
1033.839	1002.48
1034.004	1049.58
1034.17	383.99
1034.335	347.13
1034.5	672.76
1034.664	603.13
1034.829	420.86
1034.994	394.23
1035.159	775.16
1035.324	795.64
1035.489	492.54
1035.654	334.84
1035.819	1151.98
1035.984	793.59
1036.148	457.72
1036.313	449.53
1036.478	994.29
1036.643	734.2
1036.807	275.45
1036.972	224.25
1037.137	1043.44
1037.301	740.34
1037.466	228.35
1037.631	398.33
1037.795	955.38
1037.96	812.02
1038.124	529.4
1038.289	285.69
1038.454	953.33
1038.618	787.44
1038.783	408.57
1038.947	455.67
1039.111	758.77
1039.276	703.48
1039.44	367.61
1039.605	844.79
1039.769	621.56
1039.933	740.34
1040.098	392.19
1040.262	523.26
1040.426	842.74
1040.591	859.12
1040.755	177.15
1040.919	302.08
1041.083	814.07
1041.248	613.37
1041.412	130.05
1041.576	263.16
1041.74	574.46
1041.904	814.07
1042.068	224.25
1042.232	306.17
1042.397	875.51
1042.561	730.1
1042.725	101.37
1042.889	371.71
1043.053	820.21
1043.217	758.77
1043.381	345.08
1043.544	263.16
1043.708	867.31
1043.872	334.84
1044.036	-17.41
1044.2	91.13
1044.364	850.93
1044.528	1047.54
1044.691	3496.91
1044.855	138.24
1045.019	988.14
1045.183	795.64
1045.346	203.77
1045.51	265.21
1045.674	738.29
1045.837	785.4
1046.001	318.46
1046.165	222.2
1046.328	1240.05
1046.492	781.3
1046.655	439.29
1046.819	261.12
1046.983	515.06
1047.146	711.67
1047.31	363.51
1047.473	13.31
1047.636	625.65
1047.8	490.49
1047.963	246.78
1048.127	146.43
1048.29	383.99
