Data from Hydrogel_Ink_Intensity_Test_1_USB4F045381__29__00029.txt Node

Date: Mon Jul 31 10:41:37 EDT 2023
User: mmckonesweet
Spectrometer: USB4F04538
Trigger mode: 4
Integration Time (sec): 9.000000E-1
Scans to average: 1
Electric dark correction enabled: true
Nonlinearity correction enabled: false
Boxcar width: 0
XAxis mode: Wavelengths
Number of Pixels in Spectrum: 3648
>>>>>Begin Spectral Data<<<<<
345.52	-979.1
345.736	-979.1
345.952	-979.1
346.168	-948.38
346.384	-909.47
346.6	-127.14
346.816	-301.22
347.032	-168.1
347.248	245.59
347.464	-164.01
347.68	-108.71
347.896	151.38
348.112	413.52
348.328	-133.29
348.544	-90.28
348.76	28.5
348.975	253.78
349.191	-282.79
349.407	-94.38
349.623	69.46
349.839	28.5
350.055	-135.34
350.27	110.42
350.486	202.58
350.702	360.27
350.918	321.36
351.133	-202.92
351.349	147.28
351.565	393.04
351.781	-135.34
351.996	114.52
352.212	454.48
352.428	-63.66
352.644	-194.73
352.859	-172.2
353.075	298.83
353.291	75.6
353.506	-86.19
353.722	-164.01
353.938	-43.18
354.153	491.34
354.369	169.81
354.584	-168.1
354.8	329.55
355.016	-313.51
355.231	-188.58
355.447	12.12
355.662	155.47
355.878	866.12
356.093	-168.1
356.309	1.88
356.524	-184.49
356.74	257.87
356.955	-118.95
357.171	69.46
357.386	225.11
357.602	-131.24
357.817	20.31
358.033	-41.13
358.248	499.53
358.464	221.01
358.679	-92.33
358.895	-258.21
359.11	-4.27
359.325	380.75
359.541	350.03
359.756	96.08
359.972	-159.91
360.187	200.53
360.402	-39.08
360.618	-67.75
360.833	937.8
361.048	159.57
361.264	-102.57
361.479	-8.36
361.694	85.84
361.909	278.35
362.125	-112.81
362.34	-71.85
362.555	196.43
362.77	135
362.986	-155.82
363.201	-67.75
363.416	214.87
363.631	77.65
363.847	-28.84
364.062	-12.46
364.277	311.12
364.492	128.85
364.707	-86.19
364.922	-241.83
365.138	311.12
365.353	343.89
365.568	-65.71
365.783	-2.22
365.998	51.03
366.213	653.13
366.428	-63.66
366.643	98.13
366.858	370.51
367.073	356.18
367.288	-16.55
367.503	-82.09
367.718	169.81
367.933	444.24
368.148	-223.4
368.363	-0.17
368.578	77.65
368.793	616.27
369.008	-37.03
369.223	-75.95
369.438	407.38
369.653	536.4
369.868	-172.2
370.083	-100.52
370.298	182.1
370.513	444.24
370.728	178
370.943	-53.42
371.157	34.64
371.372	622.41
371.587	-180.39
371.802	-184.49
372.017	180.05
372.232	538.45
372.446	171.86
372.661	-151.72
372.876	417.61
373.091	307.02
373.306	20.31
373.52	-106.67
373.735	32.6
373.95	544.59
374.165	57.17
374.379	48.98
374.594	-63.66
374.809	290.64
375.023	175.95
375.238	-82.09
375.453	380.75
375.667	-104.62
375.882	-18.6
376.097	-45.23
376.311	151.38
376.526	188.24
376.741	-112.81
376.955	218.96
377.17	726.86
377.384	700.23
377.599	61.27
377.813	-131.24
378.028	702.28
378.242	395.09
378.457	40.79
378.672	-145.58
378.886	276.31
379.101	145.24
379.315	-110.76
379.53	24.4
379.744	360.27
379.958	347.98
380.173	30.55
380.387	-65.71
380.602	319.31
380.816	-24.75
381.031	-30.89
381.245	44.88
381.459	347.98
381.674	2752.3
381.888	-43.18
382.103	257.87
382.317	-24.75
382.531	653.13
382.746	163.67
382.96	-39.08
383.174	112.47
383.388	573.26
383.603	307.02
383.817	-77.99
384.031	335.7
384.246	716.62
384.46	188.24
384.674	458.57
384.888	350.03
385.103	223.06
385.317	5.97
385.531	221.01
385.745	544.59
385.959	515.92
386.174	24.4
386.388	-8.36
386.602	249.68
386.816	98.13
387.03	102.23
387.244	167.76
387.458	259.92
387.672	530.25
387.887	-10.41
388.101	-41.13
388.315	651.08
388.529	380.75
388.743	173.91
388.957	-20.65
389.171	556.88
389.385	48.98
389.599	151.38
389.813	300.88
390.027	399.18
390.241	843.59
390.455	249.68
390.669	225.11
390.883	167.76
391.097	747.34
391.311	311.12
391.525	89.94
391.738	489.29
391.952	294.74
392.166	298.83
392.38	102.23
392.594	724.81
392.808	589.64
393.022	225.11
393.236	206.67
393.449	438.09
393.663	452.43
393.877	-2.22
394.091	296.78
394.305	190.29
394.518	198.48
394.732	87.89
394.946	198.48
395.16	720.71
395.373	403.28
395.587	126.8
395.801	200.53
396.015	665.42
396.228	495.44
396.442	108.37
396.656	-96.43
396.869	634.7
397.083	786.25
397.297	251.73
397.51	208.72
397.724	671.56
397.938	411.47
398.151	18.26
398.365	102.23
398.578	587.6
398.792	683.85
399.005	356.18
399.219	284.5
399.433	491.34
399.646	581.45
399.86	483.15
400.073	358.22
400.287	679.75
400.5	364.37
400.714	452.43
400.927	288.59
401.141	651.08
401.354	1396.54
401.567	606.03
401.781	139.09
401.994	798.54
402.208	982.85
402.421	364.37
402.635	386.9
402.848	466.77
403.061	812.87
403.275	413.52
403.488	184.15
403.701	962.37
403.915	687.95
404.128	448.33
404.341	282.45
404.555	599.88
404.768	517.97
404.981	460.62
405.195	364.37
405.408	931.66
405.621	687.95
405.834	511.82
406.048	239.44
406.261	859.98
406.474	1003.33
406.687	315.22
406.9	505.68
407.114	434
407.327	724.81
407.54	257.87
407.753	216.91
407.966	470.86
408.179	753.48
408.392	397.14
408.605	198.48
408.819	804.68
409.032	741.19
409.245	327.5
409.458	597.84
409.671	780.11
409.884	952.13
410.097	325.46
410.31	587.6
410.523	784.2
410.736	501.58
410.949	651.08
411.162	560.97
411.375	978.76
411.588	892.74
411.801	667.47
412.014	505.68
412.227	554.83
412.44	642.89
412.653	442.19
412.865	673.61
413.078	851.78
413.291	792.39
413.504	567.12
413.717	522.06
413.93	847.69
414.143	479.05
414.356	540.49
414.568	370.51
414.781	921.42
414.994	841.54
415.207	571.21
415.42	630.6
415.632	943.94
415.845	1171.27
416.058	440.14
416.271	409.42
416.483	786.25
416.696	1124.16
416.909	565.07
417.121	505.68
417.334	931.66
417.547	1247.04
417.759	554.83
417.972	440.14
418.185	624.46
418.397	1017.67
418.61	646.99
418.823	603.98
419.035	1288
419.248	788.3
419.46	737.1
419.673	733
419.885	1015.62
420.098	829.26
420.311	630.6
420.523	409.42
420.736	1075.01
420.948	900.94
421.161	642.89
421.373	499.53
421.586	950.09
421.798	728.91
422.01	513.87
422.223	841.54
422.435	765.77
422.648	1081.16
422.86	765.77
423.073	716.62
423.285	1154.88
423.497	626.51
423.71	735.05
423.922	700.23
424.134	1122.12
424.347	1273.67
424.559	1054.53
424.771	991.05
424.984	827.21
425.196	1056.58
425.408	560.97
425.621	603.98
425.833	1234.75
426.045	1310.53
426.257	636.75
426.47	839.5
426.682	1097.54
426.894	1167.17
427.106	868.17
427.318	960.33
427.531	913.22
427.743	1269.57
427.955	950.09
428.167	1351.49
428.379	1158.98
428.591	937.8
428.804	1015.62
429.016	958.28
429.228	1062.73
429.44	1181.51
429.652	1050.44
429.864	835.4
430.076	1169.22
430.288	1210.18
430.5	1027.91
430.712	1081.16
430.924	1457.98
431.136	1253.19
431.348	888.65
431.56	980.81
431.772	1318.72
431.984	1199.94
432.196	1040.2
432.408	1128.26
432.62	1218.37
432.832	1400.64
433.044	1326.91
433.256	1240.9
433.468	1519.42
433.679	1003.33
433.891	1015.62
434.103	1292.1
434.315	1687.36
434.527	1580.86
434.739	1179.46
434.95	1214.27
435.162	1572.67
435.374	1206.08
435.586	1386.3
435.798	1232.71
436.009	1148.74
436.221	1408.83
436.433	1214.27
436.645	1296.19
436.856	1367.87
437.068	1785.66
437.28	1214.27
437.491	1615.68
437.703	1732.41
437.915	1572.67
438.126	1394.5
438.338	1494.85
438.55	1453.89
438.761	1613.63
438.973	1257.28
439.184	1378.11
439.396	1607.48
439.608	1779.51
439.819	1251.14
440.031	1472.32
440.242	1693.5
440.454	1619.77
440.665	1310.53
440.877	1482.56
441.088	1670.97
441.3	1517.37
441.511	1302.34
441.723	1386.3
441.934	1646.4
442.146	1644.35
442.357	1556.29
442.569	1722.17
442.78	1656.64
442.991	1996.6
443.203	1703.74
443.414	1460.03
443.626	2168.63
443.837	1580.86
444.048	1306.43
444.26	1431.36
444.471	1879.86
444.682	1953.59
444.894	1273.67
445.105	1466.17
445.316	1976.12
445.528	1906.49
445.739	1724.22
445.95	1574.72
446.161	1722.17
446.373	2133.81
446.584	1613.63
446.795	1695.55
447.006	2066.23
447.217	2207.54
447.429	1556.29
447.64	1552.19
447.851	2180.92
448.062	1658.68
448.273	1611.58
448.484	1625.92
448.695	2041.65
448.907	1814.33
449.118	1793.85
449.329	1941.3
449.54	1838.91
449.751	1730.36
449.962	1703.74
450.173	1847.1
450.384	2228.02
450.595	2391.86
450.806	1843
451.017	1793.85
451.228	2354.99
451.439	2338.61
451.65	1781.56
451.861	1544
452.072	1877.82
452.283	2160.44
452.494	1992.5
452.705	1787.71
452.915	2453.3
453.126	2445.1
453.337	1949.5
453.548	1920.82
453.759	2391.86
453.97	2813.74
454.181	2225.97
454.391	1982.26
454.602	2387.76
454.813	2541.36
455.024	2199.35
455.235	2049.85
455.445	2285.36
455.656	2445.1
455.867	2287.41
456.078	2101.05
456.288	2228.02
456.499	2582.32
456.71	2215.73
456.921	2371.38
457.131	2639.66
457.342	2389.81
457.553	2273.07
457.763	2213.68
457.974	2670.38
458.184	2846.51
458.395	2277.17
458.606	2301.75
458.816	2864.94
459.027	3084.07
459.237	2402.1
459.448	2301.75
459.659	2877.23
459.869	3151.65
460.08	2242.36
460.29	2772.78
460.501	3176.23
460.711	2651.95
460.922	2490.16
461.132	2582.32
461.343	3530.53
461.553	2488.11
461.764	2656.04
461.974	2756.4
462.184	3182.37
462.395	3098.41
462.605	2785.07
462.816	2688.81
463.026	3024.68
463.236	3346.21
463.447	2930.47
463.657	2744.11
463.867	3477.28
464.078	3098.41
464.288	3102.5
464.498	3034.92
464.709	3258.15
464.919	3178.28
465.129	3188.52
465.339	2901.8
465.55	3464.99
465.76	3551.01
465.97	3245.86
466.18	3096.36
466.391	3665.69
466.601	3471.14
466.811	3426.08
467.021	3168.04
467.231	3804.96
467.441	3905.31
467.651	3639.07
467.862	3219.24
468.072	3850.01
468.282	4134.68
468.492	3620.64
468.702	3557.15
468.912	3923.74
469.122	4656.91
469.332	4054.81
469.542	3731.23
469.752	4222.74
469.962	4157.21
470.172	3862.3
470.382	3917.59
470.592	4359.95
470.802	4701.97
471.012	4060.95
471.222	4155.16
471.432	4644.62
471.642	4818.7
471.852	4364.05
472.062	4210.45
472.272	4652.81
472.482	4480.78
472.691	4435.73
472.901	4239.12
473.111	4693.77
473.321	5377.8
473.531	4687.63
473.741	4634.38
473.95	5299.97
474.16	5201.67
474.37	4943.63
474.58	4869.9
474.79	5586.69
474.999	5449.47
475.209	4917
475.419	5093.13
475.628	5463.81
475.838	5754.62
476.048	5465.86
476.258	5207.81
476.467	5975.8
476.677	5639.94
476.886	5508.87
477.096	5820.16
477.306	5912.32
477.515	6278.9
477.725	5611.26
477.935	5846.78
478.144	6348.53
478.354	5967.61
478.563	6002.43
478.773	6022.91
478.982	6498.03
479.192	6655.73
479.401	6311.67
479.611	6070.01
479.82	6162.17
480.03	6676.21
480.239	6377.2
480.449	6551.28
480.658	7366.37
480.868	6594.29
481.077	6870.76
481.287	6794.99
481.496	7134.95
481.705	7427.81
481.915	7091.95
482.124	7159.53
482.333	7474.92
482.543	7692
482.752	7374.56
482.961	7292.65
483.171	7855.84
483.38	7483.11
483.589	7593.7
483.799	7413.48
484.008	7800.54
484.217	8052.44
484.426	7700.19
484.636	7810.78
484.845	7995.1
485.054	7761.63
485.263	8019.67
485.472	7974.62
485.682	8670.93
485.891	8365.78
486.1	7907.04
486.309	8074.97
486.518	8486.61
486.727	8789.71
486.936	8253.14
487.146	8402.65
487.355	8986.32
487.564	8556.24
487.773	8681.17
487.982	8591.06
488.191	8789.71
488.4	8945.36
488.609	9039.56
488.818	8879.82
489.027	9819.84
489.236	9604.8
489.445	9238.22
489.654	9092.81
489.863	9529.03
490.072	9422.53
490.281	9438.92
490.49	9291.46
490.698	9766.59
490.907	10026.68
491.116	9643.71
491.325	9381.57
491.534	10192.57
491.743	10069.69
491.952	9666.24
492.16	9924.29
492.369	10327.74
492.578	10393.27
492.787	9858.75
492.996	9711.3
493.204	10104.51
493.413	10802.86
493.622	9856.7
493.831	10022.59
494.039	10956.46
494.248	10507.96
494.457	10358.46
494.665	10391.22
494.874	10972.85
495.083	11312.81
495.291	10890.93
495.5	10387.13
495.709	11073.2
495.917	11255.47
496.126	10682.03
496.335	10970.8
496.543	11009.71
496.752	11351.72
496.96	11181.74
497.169	10847.92
497.377	11382.44
497.586	11753.12
497.794	11321
498.003	11075.24
498.211	11533.99
498.42	12144.28
498.628	11488.93
498.837	11366.06
499.045	11959.97
499.254	11912.86
499.462	11665.06
499.671	11767.46
499.879	12353.18
500.087	12383.9
500.296	11663.01
500.504	12007.07
500.713	12138.14
500.921	12803.73
501.129	11886.24
501.338	11882.14
501.546	12488.34
501.754	12168.86
501.962	12068.51
502.171	12205.72
502.379	12861.07
502.587	13002.38
502.795	12269.21
503.004	12193.44
503.212	12689.04
503.42	13010.57
503.628	12525.21
503.837	12406.42
504.045	12775.06
504.253	13510.28
504.461	12756.63
504.669	12545.69
504.877	13305.48
505.085	13346.44
505.294	12922.51
505.502	12969.62
505.71	13282.95
505.918	13252.24
506.126	13127.31
506.334	13164.17
506.542	13440.65
506.75	13385.35
506.958	13305.48
507.166	13323.91
507.374	13270.67
507.582	13872.77
507.79	13512.33
507.998	13362.83
508.206	13872.77
508.414	13778.56
508.622	13586.05
508.83	13414.02
509.037	14440.06
509.245	13786.75
509.453	13774.47
509.661	13522.57
509.869	14192.25
510.077	13891.2
510.285	14087.81
510.492	13651.59
510.7	14784.12
510.908	13880.96
511.116	14036.61
511.324	14001.79
511.531	14110.33
511.739	14268.03
511.947	14395
512.155	14286.46
512.362	14599.8
512.57	14155.39
512.778	14454.39
512.985	14286.46
513.193	14804.6
513.401	15056.5
513.608	14718.58
513.816	14732.92
514.024	15009.39
514.231	14956.15
514.439	14679.67
514.646	14497.4
514.854	15003.25
515.061	15054.45
515.269	14710.39
515.477	14702.2
515.684	14970.48
515.892	15347.31
516.099	15003.25
516.307	14763.64
516.514	15461.99
516.722	15713.89
516.929	14831.22
517.136	14726.77
517.344	15431.27
517.551	15466.09
517.759	14904.95
517.966	15332.97
518.173	15232.62
518.381	15521.38
518.588	15453.8
518.796	15310.44
519.003	15781.48
519.21	15816.29
519.418	15326.83
519.625	15887.97
519.832	15574.63
520.039	16137.82
520.247	15427.18
520.454	15875.68
520.661	16428.63
520.868	16072.29
521.076	15887.97
521.283	15795.81
521.49	16438.87
521.697	16332.38
521.904	16404.06
522.112	15877.73
522.319	16531.03
522.526	16285.28
522.733	16166.49
522.94	15992.42
523.147	16496.22
523.354	16588.38
523.561	16234.08
523.768	16242.27
523.975	16692.82
524.183	16660.06
524.39	16408.15
524.597	16330.33
524.804	16674.39
525.011	16850.52
525.218	16698.97
525.425	16688.73
525.632	17253.97
525.838	16684.63
526.045	16848.47
526.252	16957.01
526.459	18556.47
526.666	17843.78
526.873	16940.63
527.08	16840.28
527.287	17671.75
527.494	17237.58
527.701	17194.57
527.907	17040.98
528.114	17690.18
528.321	17483.34
528.528	17356.36
528.735	17391.18
528.941	17428.04
529.148	17270.35
529.355	17434.19
529.562	17325.64
529.768	18224.7
529.975	17417.8
530.182	17559.11
530.388	17401.42
530.595	18196.03
530.802	17598.02
531.008	18134.59
531.215	17950.28
531.422	18751.03
531.628	18839.09
531.835	17804.87
532.042	18220.61
532.248	18140.74
532.455	18409.02
532.661	18118.21
532.868	17956.42
533.074	18763.32
533.281	18966.07
533.487	18337.34
533.694	18378.3
533.9	18316.86
534.107	18882.1
534.313	18411.07
534.52	18406.97
534.726	19011.12
534.933	19342.89
535.139	18482.75
535.345	18613.82
535.552	19195.44
535.758	19471.92
535.965	18839.09
536.171	18703.93
536.377	19312.17
536.584	19658.28
536.79	18916.92
536.996	19078.71
537.203	19189.3
537.409	19381.81
537.615	19230.26
537.821	19269.17
538.028	19752.49
538.234	19555.88
538.44	19125.81
538.646	19465.77
538.853	19701.29
539.059	19736.1
539.265	19828.26
539.471	19283.5
539.677	20174.37
539.883	19942.95
540.09	19254.83
540.296	20239.9
540.502	19926.57
540.708	19723.82
540.914	19783.21
541.12	20045.35
541.326	20489.76
541.532	20330.02
541.738	20174.37
541.944	20250.14
542.15	20553.24
542.356	20471.32
542.562	20373.02
542.768	20160.03
542.974	21173.78
543.18	20944.41
543.386	20526.62
543.592	20131.36
543.798	21233.17
544.004	20973.08
544.21	20497.95
544.415	20487.71
544.621	21175.83
544.827	21370.38
545.033	20643.35
545.239	20995.6
545.445	21028.37
545.651	21046.8
545.856	20997.65
546.062	21132.82
546.268	21343.76
546.474	21157.39
546.679	20889.11
546.885	21091.86
547.091	20733.46
547.297	21427.73
547.502	20780.57
547.708	20790.81
547.914	21091.86
548.119	21779.98
548.325	21069.33
548.531	20792.86
548.736	21853.7
548.942	21239.31
549.147	21024.28
549.353	21863.94
549.559	21886.47
549.764	21511.69
549.97	21224.98
550.175	21538.32
550.381	22234.63
550.586	21667.34
550.792	21798.41
550.997	21716.49
551.203	21997.06
551.408	22498.81
551.614	21466.64
551.819	22076.93
552.025	22513.15
552.23	22607.36
552.435	22165
552.641	22670.84
552.846	22285.83
553.052	22646.27
553.257	22396.42
553.462	22113.8
553.668	22201.86
553.873	22803.96
554.078	22386.18
554.283	22312.45
554.489	22801.91
554.694	22810.11
554.899	22353.41
555.105	22832.63
555.31	22760.95
555.515	22799.87
555.72	22812.15
555.925	22580.73
556.131	23086.58
556.336	22887.93
556.541	23016.95
556.746	22996.47
556.951	23475.7
557.156	23375.34
557.361	23148.02
557.567	23231.99
557.772	24085.99
557.977	23348.72
558.182	23358.96
558.387	23215.6
558.592	23131.64
558.797	23537.13
559.002	23410.16
559.207	23512.56
559.412	23399.92
559.617	23885.29
559.822	23524.85
560.027	23234.03
560.232	23676.4
560.437	23815.66
560.642	23272.95
560.847	23451.12
561.051	23870.95
561.256	23426.54
561.461	23514.61
561.666	23639.53
561.871	23897.58
562.076	24169.96
562.281	24071.65
562.485	23430.64
562.69	24069.61
562.895	24167.91
563.1	23598.57
563.305	23574
563.509	24301.03
563.714	24673.76
563.919	24106.47
564.123	23965.16
564.328	24057.32
564.533	24724.96
564.737	23797.23
564.942	24061.41
565.147	24661.47
565.351	25052.63
565.556	23989.74
565.761	24159.72
565.965	24823.26
566.17	24354.27
566.374	24210.92
566.579	24505.82
566.784	24749.53
566.988	24518.11
567.193	24223.2
567.397	24169.96
567.602	24585.69
567.806	24460.77
568.011	24454.62
568.215	24659.42
568.42	24296.93
568.624	24911.32
568.828	24378.85
569.033	24800.73
569.237	24946.14
569.442	25286.1
569.646	24237.54
569.85	24804.83
570.055	24755.68
570.259	25050.58
570.463	24862.17
570.668	24595.93
570.872	25179.61
571.076	25126.36
571.281	25105.88
571.485	24921.56
571.689	25308.63
571.893	25464.27
572.098	25200.08
572.302	25249.24
572.506	25523.66
572.71	25423.31
572.914	25247.19
573.119	25126.36
573.323	25630.16
573.527	25697.74
573.731	25368.02
573.935	25320.91
574.139	25738.7
574.343	25296.34
574.547	25630.16
574.751	25953.74
574.955	26183.11
575.159	25908.68
575.364	25390.55
575.568	25521.62
575.772	25771.47
575.976	26070.47
576.18	25519.57
576.383	25837
576.587	26267.08
576.791	26258.88
576.995	25568.72
577.199	25349.59
577.403	26197.45
577.607	26351.04
577.811	25730.51
578.015	25968.07
578.219	26076.62
578.422	26385.86
578.626	25947.59
578.83	26326.47
579.034	26422.72
579.238	26590.66
579.442	26082.76
579.645	26381.76
579.849	26742.21
580.053	26637.76
580.257	26641.85
580.46	26193.35
580.664	26820.03
580.868	26656.19
581.071	26564.03
581.275	26967.48
581.479	26410.43
581.682	27000.25
581.886	26629.57
582.09	26924.47
582.293	27061.69
582.497	27131.32
582.7	26688.96
582.904	27024.82
583.107	27057.59
583.311	27086.26
583.515	26801.6
583.718	27143.61
583.922	27164.09
584.125	27493.81
584.329	26672.57
584.532	27356.6
584.735	27905.45
584.939	27444.66
585.142	26734.01
585.346	26971.58
585.549	27387.32
585.753	27319.73
585.956	27303.35
586.159	27256.25
586.363	27919.79
586.566	28095.91
586.769	27270.58
586.973	27397.56
587.176	27884.97
587.379	28065.19
587.582	28341.67
587.786	27450.8
587.989	27657.65
588.192	28562.85
588.395	27651.5
588.599	27854.25
588.802	28218.79
589.005	28245.41
589.208	28112.3
589.411	28071.34
589.615	28196.26
589.818	29101.47
590.021	28362.15
590.224	28286.37
590.427	28562.85
590.63	28689.82
590.833	28042.67
591.036	28257.7
591.239	28323.24
591.442	28485.03
591.645	28478.88
591.848	28419.49
592.051	28671.39
592.254	28994.97
592.457	28777.89
592.66	28681.63
592.863	29048.22
593.066	28720.54
593.269	28417.44
593.472	28515.75
593.675	29167
593.878	29207.96
594.081	28994.97
594.284	28659.1
594.486	29414.8
594.689	29451.67
594.892	28798.37
595.095	28999.07
595.298	29535.63
595.5	29404.56
595.703	29361.56
595.906	29111.71
596.109	29879.69
596.311	29695.38
596.514	28982.68
596.717	29248.92
596.92	29848.97
597.122	29588.88
597.325	29023.64
597.528	29242.78
597.73	29986.19
597.933	29445.52
598.136	29656.46
598.338	29334.93
598.541	29996.43
598.743	30104.97
598.946	29472.15
599.148	29724.05
599.351	29963.66
599.554	30467.46
599.756	29769.1
599.959	30188.94
600.161	30064.01
600.363	30530.95
600.566	29975.95
600.768	29916.56
600.971	30672.26
601.173	30426.5
601.376	29697.42
601.578	30016.91
601.78	30524.8
601.983	30985.6
602.185	29922.7
602.388	30393.73
602.59	30539.14
602.792	30457.22
602.995	30279.05
603.197	30156.17
603.399	30408.07
603.601	30760.32
603.804	29814.16
604.006	30195.08
604.208	29947.28
604.41	30283.14
604.613	30469.51
604.815	30520.71
605.017	30963.07
605.219	30758.27
605.421	30121.35
605.623	30563.71
605.826	31337.85
606.028	31030.65
606.23	30653.83
606.432	30737.79
606.634	31432.05
606.836	31188.35
607.038	30453.12
607.24	30860.67
607.442	30885.25
607.644	31108.47
607.846	31012.22
608.048	30590.34
608.25	31395.19
608.452	30745.98
608.654	30909.82
608.856	30207.37
609.058	30721.41
609.26	31071.61
609.462	30750.08
609.664	30889.34
609.866	31229.3
610.067	31337.85
610.269	30942.59
610.471	30834.05
610.673	30856.57
610.875	31094.14
611.077	30952.83
611.278	30985.6
611.48	31184.25
611.682	31876.46
611.884	31456.63
612.085	31110.52
612.287	30899.58
612.489	31108.47
612.69	30707.07
612.892	31360.37
613.094	31382.9
613.295	31004.03
613.497	30838.14
613.699	30958.97
613.9	31866.22
614.102	31257.98
614.304	30903.68
614.505	30784.9
614.707	31264.12
614.908	31022.46
615.11	30754.18
615.311	30963.07
615.513	31204.73
615.714	31270.26
615.916	31053.18
616.117	30721.41
616.319	31143.29
616.52	31319.42
616.722	31176.06
616.923	31051.13
617.124	31270.26
617.326	31387
617.527	31305.08
617.729	31440.25
617.93	31446.39
618.131	31614.32
618.333	31434.1
618.534	31147.39
618.735	31538.55
618.937	32013.68
619.138	31012.22
619.339	31401.33
619.54	31864.18
619.742	31337.85
619.943	31415.67
620.144	31321.46
620.345	31739.25
620.546	31962.48
620.748	31595.89
620.949	31577.46
621.15	31599.99
621.351	31659.38
621.552	30905.73
621.753	31251.83
621.954	31415.67
622.155	32052.59
622.356	31120.76
622.558	31350.13
622.759	31683.95
622.96	31802.74
623.161	31475.06
623.362	31241.59
623.563	31548.79
623.764	31544.69
623.965	31464.82
624.166	31954.29
624.366	31737.2
624.567	31788.4
624.768	31606.13
624.969	31356.28
625.17	31862.13
625.371	31702.39
625.572	31593.84
625.773	31389.05
625.973	32345.45
626.174	31862.13
626.375	31915.37
626.576	31843.7
626.777	31849.84
626.977	32605.54
627.178	31618.42
627.379	31837.55
627.58	31919.47
627.78	31827.31
627.981	31335.8
628.182	31507.83
628.382	32333.16
628.583	31624.56
628.784	31391.09
628.984	31886.7
629.185	32435.56
629.386	32179.56
629.586	32013.68
629.787	31673.71
629.987	32179.56
630.188	32040.3
630.388	32367.98
630.589	32050.54
630.79	32861.54
630.99	32173.42
631.191	32484.71
631.391	32294.25
631.591	32507.24
631.792	32709.99
631.992	32470.37
632.193	32505.19
632.393	32869.73
632.594	32431.46
632.794	31962.48
632.994	32449.89
633.195	32224.62
633.395	32335.21
633.595	32284.01
633.796	32316.78
633.996	32169.32
634.196	32716.13
634.397	32363.88
634.597	32324.97
634.797	32501.09
634.997	33070.43
635.198	32570.72
635.398	32015.72
635.598	32722.27
635.798	33219.93
635.998	32771.43
636.199	32707.94
636.399	32730.47
636.599	32415.08
636.799	32689.51
636.999	32353.64
637.199	32920.93
637.399	33250.65
637.599	32408.93
637.799	32519.53
637.999	32914.78
638.199	32927.07
638.399	32699.75
638.599	32636.26
638.799	32972.13
638.999	33574.23
639.199	32890.21
639.399	32990.56
639.599	33400.15
639.799	32626.02
639.999	32986.46
640.199	32453.99
640.399	33353.05
640.599	32128.36
640.799	33185.11
640.998	33052
641.198	33342.81
641.398	33115.48
641.598	33086.81
641.798	32910.69
641.997	33895.76
642.197	33201.5
642.397	32658.79
642.597	32818.53
642.796	33283.42
642.996	33383.77
643.196	33035.61
643.395	32447.85
643.595	33471.83
643.795	32877.92
643.994	32806.24
644.194	33156.44
644.394	33414.49
644.593	33527.13
644.793	33234.27
644.992	33072.48
645.192	33502.55
645.392	32806.24
645.591	33203.55
645.791	33312.09
645.99	33809.75
646.19	33596.76
646.389	33246.55
646.589	33217.88
646.788	33819.99
646.987	33566.04
647.187	33566.04
647.386	33238.36
647.586	33787.22
647.785	33881.42
647.984	33711.44
648.184	33908.05
648.383	33768.79
648.582	33434.97
648.782	33492.31
648.981	33549.65
649.18	33099.1
649.38	33844.56
649.579	33531.22
649.778	33426.78
649.977	34106.7
650.177	33727.83
650.376	33592.66
650.575	33557.85
650.774	34422.09
650.973	33690.96
651.173	33570.13
651.372	33799.51
651.571	33858.9
651.77	33834.32
651.969	33559.89
652.168	33633.62
652.367	33574.23
652.566	33914.19
652.765	33987.92
652.964	34303.31
653.163	34225.48
653.362	33875.28
653.561	33635.67
653.76	33647.96
653.959	34088.27
654.158	34528.58
654.357	34178.38
654.556	33480.02
654.755	34467.14
654.954	34630.98
655.153	34104.65
655.352	33865.04
655.551	34258.25
655.749	34454.86
655.948	33914.19
656.147	34258.25
656.346	34469.19
656.545	33901.9
656.743	33961.3
656.942	33942.86
657.141	33664.34
657.34	34465.1
657.538	34266.44
657.737	34219.34
657.936	34346.31
658.135	34403.66
658.333	34012.49
658.532	34452.81
658.731	34442.57
658.929	34479.43
659.128	34090.32
659.326	33992.01
659.525	34964.8
659.724	34364.74
659.922	33762.64
660.121	34153.8
660.319	34121.04
660.518	33879.38
660.716	34000.21
660.915	34456.9
661.113	35145.02
661.312	34137.42
661.51	34379.08
661.709	34106.7
661.907	34893.12
662.105	34798.91
662.304	34037.07
662.502	34387.27
662.701	34667.84
662.899	34223.44
663.097	34665.8
663.296	33920.34
663.494	34915.65
663.692	34600.26
663.891	34186.57
664.089	33940.82
664.287	34309.45
664.485	34626.88
664.684	34104.65
664.882	34055.5
665.08	33934.67
665.278	34512.2
665.476	33860.94
665.675	34364.74
665.873	34585.93
666.071	34616.65
666.269	34067.79
666.467	34452.81
666.665	34506.05
666.863	34014.54
667.061	34569.54
667.259	33959.25
667.457	34645.32
667.655	34510.15
667.853	34395.46
668.051	34176.33
668.249	34456.9
668.447	34538.82
668.645	34123.08
668.843	34850.11
669.041	34729.28
669.239	34407.75
669.437	34209.1
669.635	34456.9
669.833	34221.39
670.031	34571.59
670.229	34067.79
670.426	34446.66
670.624	34174.28
670.822	34043.21
671.02	34241.87
671.218	34061.65
671.415	33967.44
671.613	34377.03
671.811	34370.89
672.009	34426.18
672.206	34544.97
672.404	34620.74
672.602	34366.79
672.799	34858.31
672.997	34825.54
673.195	34731.33
673.392	34512.2
673.59	34151.76
673.788	34532.68
673.985	33553.75
674.183	34166.09
674.38	33965.39
674.578	34405.7
674.775	33758.55
674.973	33809.75
675.17	33908.05
675.368	34540.87
675.565	34309.45
675.763	33811.79
675.96	33758.55
676.158	34450.76
676.355	33627.48
676.553	33852.75
676.75	33510.74
676.947	34153.8
677.145	34315.59
677.342	34045.26
677.539	34168.14
677.737	34452.81
677.934	34573.64
678.131	34182.48
678.329	33871.18
678.526	34442.57
678.723	34479.43
678.92	34489.67
679.118	33660.24
679.315	33494.36
679.512	34479.43
679.709	33803.6
679.906	33834.32
680.104	34162
680.301	34252.11
680.498	33279.32
680.695	33488.21
680.892	33805.65
681.089	33785.17
681.286	33994.06
681.483	33232.22
681.68	33654.1
681.877	34313.55
682.075	33363.29
682.272	33287.51
682.469	33582.42
682.665	33518.93
682.862	33115.48
683.059	33244.51
683.256	34137.42
683.453	33717.59
683.65	33469.78
683.847	33733.97
684.044	33588.56
684.241	33228.12
684.438	33668.44
684.635	33170.78
684.831	33858.9
685.028	34051.41
685.225	33547.61
685.422	33389.91
685.619	33672.53
685.815	33232.22
686.012	33195.35
686.209	33232.22
686.405	32818.53
686.602	33824.08
686.799	33191.26
686.996	33129.82
687.192	33176.92
687.389	33477.97
687.586	32626.02
687.782	32939.36
687.979	33650
688.175	33385.82
688.372	32773.47
688.568	32980.32
688.765	32413.03
688.962	33154.4
689.158	32857.44
689.355	32781.67
689.551	33465.69
689.748	32925.02
689.944	32980.32
690.14	32865.63
690.337	33541.46
690.533	33013.09
690.73	32552.29
690.926	33090.91
691.123	33041.76
691.319	32998.75
691.515	32636.26
691.712	33156.44
691.908	32884.06
692.104	33340.76
692.301	32785.76
692.497	32476.52
692.693	33238.36
692.889	33238.36
693.086	32892.26
693.282	32292.2
693.478	33256.79
693.674	33535.32
693.87	32322.92
694.067	32636.26
694.263	32664.93
694.459	32802.14
694.655	32849.25
694.851	32687.46
695.047	32615.78
695.243	32990.56
695.439	32578.92
695.635	32867.68
695.831	32318.82
696.027	32560.48
696.224	32099.69
696.42	32566.63
696.615	32767.33
696.811	32832.86
697.007	31681.91
697.203	32290.15
697.399	32599.4
697.595	32701.79
697.791	32015.72
697.987	32185.71
698.183	32245.1
698.379	31972.72
698.575	32191.85
698.77	31903.09
698.966	32431.46
699.162	32556.39
699.358	32206.19
699.554	31968.62
699.749	32658.79
699.945	32587.11
700.141	32161.13
700.337	31714.67
700.532	32099.69
700.728	32212.33
700.924	32222.57
701.119	31710.58
701.315	32173.42
701.511	32296.3
701.706	32390.5
701.902	31950.19
702.097	32384.36
702.293	32357.74
702.489	31841.65
702.684	32208.23
702.88	32038.25
703.075	31700.34
703.271	31624.56
703.466	31516.02
703.662	31767.92
703.857	32163.18
704.053	31681.91
704.248	31542.64
704.443	32075.12
704.639	32030.06
704.834	31640.95
705.03	32062.83
705.225	32021.87
705.42	32011.63
705.616	31663.47
705.811	31513.97
706.006	31763.82
706.202	31638.9
706.397	31511.92
706.592	31217.02
706.787	31604.08
706.983	31786.35
707.178	31993.2
707.373	31702.39
707.568	31841.65
707.763	31616.37
707.959	31128.95
708.154	31288.7
708.349	31683.95
708.544	31968.62
708.739	31759.73
708.934	31624.56
709.129	31901.04
709.324	32017.77
709.519	31337.85
709.714	31563.12
709.909	32214.38
710.104	31645.04
710.299	31139.19
710.494	31483.25
710.689	31794.54
710.884	31468.92
711.079	31237.5
711.274	31102.33
711.469	31565.17
711.664	31395.19
711.859	31452.53
712.054	31466.87
712.249	31532.4
712.443	31843.7
712.638	31147.39
712.833	31235.45
713.028	31559.03
713.223	31186.3
713.417	31444.34
713.612	31221.11
713.807	31464.82
714.002	32091.5
714.196	31245.69
714.391	31028.6
714.586	31661.43
714.78	31131
714.975	31174.01
715.17	30901.63
715.364	31223.16
715.559	31524.21
715.754	30311.81
715.948	30899.58
716.143	31440.25
716.337	30991.74
716.532	31034.75
716.726	30580.1
716.921	31192.44
717.115	31053.18
717.31	30657.92
717.504	31346.04
717.699	30875.01
717.893	30848.38
718.088	30217.61
718.282	30459.27
718.476	30547.33
718.671	30510.47
718.865	30123.4
719.059	30258.57
719.254	30430.6
719.448	30496.13
719.642	31610.23
719.837	29916.56
720.031	30625.15
720.225	30510.47
720.419	30481.8
720.614	29758.86
720.808	30604.67
721.002	30264.71
721.196	30344.58
721.39	30109.07
721.585	30395.78
721.779	30485.89
721.973	30029.2
722.167	29646.22
722.361	30277
722.555	30530.95
722.749	29814.16
722.943	30197.13
723.137	30109.07
723.331	30365.06
723.525	29910.41
723.719	29728.14
723.913	30211.46
724.107	30184.84
724.301	29920.65
724.495	30029.2
724.689	30252.42
724.883	30096.78
725.077	29844.88
725.271	29912.46
725.465	30233.99
725.659	30068.11
725.853	29740.43
726.046	29699.47
726.24	29701.52
726.434	30350.73
726.628	29824.4
726.822	29861.26
727.015	30147.98
727.209	29863.31
727.403	29816.21
727.596	29580.69
727.79	30365.06
727.984	30080.39
728.177	29678.99
728.371	30377.35
728.565	30283.14
728.758	29529.49
728.952	29576.59
729.146	29566.35
729.339	30348.68
729.533	29736.34
729.726	29787.53
729.92	29552.02
730.113	30068.11
730.307	29961.61
730.5	29119.9
730.694	29732.24
730.887	29644.18
731.081	30195.08
731.274	29504.92
731.468	29384.08
731.661	29838.73
731.854	29670.8
732.048	29619.6
732.241	29210.01
732.435	30301.57
732.628	29734.29
732.821	29216.15
733.014	29642.13
733.208	29867.41
733.401	29687.18
733.594	29599.12
733.788	29693.33
733.981	29820.3
734.174	29896.08
734.367	29058.46
734.56	29549.97
734.754	29670.8
734.947	29738.38
735.14	29345.17
735.333	29709.71
735.526	30164.36
735.719	29476.24
735.912	29480.34
736.105	29736.34
736.298	29848.97
736.491	29351.32
736.684	29273.49
736.877	29287.83
737.07	29607.31
737.263	29803.92
737.456	29253.01
737.649	29023.64
737.842	29144.47
738.035	29998.48
738.228	28904.86
738.421	29588.88
738.614	29851.02
738.807	29969.8
739	28786.08
739.192	28859.8
739.385	29545.87
739.578	29351.32
739.771	29109.66
739.964	28898.72
740.156	29640.08
740.349	29244.82
740.542	29412.76
740.735	28810.65
740.927	28984.73
741.12	29066.65
741.313	28970.4
741.505	29261.21
741.698	29240.73
741.891	29633.94
742.083	29320.6
742.276	29285.78
742.468	29250.97
742.661	29060.51
742.854	28720.54
743.046	28738.97
743.239	29388.18
743.431	29494.68
743.624	28900.76
743.816	29144.47
744.009	29349.27
744.201	29138.33
744.393	29160.86
744.586	28632.48
744.778	29375.89
744.971	29162.9
745.163	28790.17
745.355	29089.18
745.548	28693.92
745.74	28673.44
745.932	28638.62
746.125	28700.06
746.317	29832.59
746.509	28644.77
746.702	28626.34
746.894	28775.84
747.086	28812.7
747.278	29238.68
747.471	28896.67
747.663	28734.88
747.855	28810.65
748.047	29347.22
748.239	28675.49
748.431	28417.44
748.623	29070.75
748.815	29318.55
749.008	28870.04
749.2	28327.33
749.392	29332.89
749.584	28714.4
749.776	28810.65
749.968	28609.95
750.16	29410.71
750.352	28593.57
750.544	28521.89
750.736	28532.13
750.928	29306.26
751.12	28523.94
751.311	28206.5
751.503	28640.67
751.695	28876.19
751.887	28601.76
752.079	28392.87
752.271	28335.52
752.463	29435.28
752.654	28614.05
752.846	28437.92
753.038	28294.57
753.23	28485.03
753.421	28519.84
753.613	28204.45
753.805	28485.03
753.997	28585.38
754.188	28759.45
754.38	28087.72
754.572	28442.02
754.763	28372.39
754.955	28306.85
755.146	28016.04
755.338	27772.33
755.53	27997.61
755.721	28241.32
755.913	27608.5
756.104	27723.18
756.296	27987.37
756.487	28376.48
756.679	27817.39
756.87	27592.11
757.062	27743.66
757.253	28368.29
757.445	27690.41
757.636	28050.86
757.827	28143.02
758.019	28648.86
758.21	27403.7
758.401	27729.33
758.593	28208.55
758.784	27989.42
758.975	27053.5
759.167	27149.75
759.358	27585.97
759.549	27596.21
759.74	26598.85
759.932	26951.1
760.123	27411.89
760.314	27184.57
760.505	27598.26
760.696	26957.24
760.888	27725.23
761.079	27155.89
761.27	26998.2
761.461	27008.44
761.652	27798.96
761.843	27391.41
762.034	27055.54
762.225	27659.7
762.416	27200.95
762.607	27045.3
762.798	26723.77
762.989	26770.88
763.18	27618.74
763.371	26738.11
763.562	26785.21
763.753	26879.42
763.944	27325.88
764.135	27235.77
764.326	26803.64
764.517	26754.49
764.708	26865.08
764.899	27133.37
765.089	26369.47
765.28	26363.33
765.471	26795.45
765.662	26686.91
765.853	26482.11
766.043	25949.64
766.234	26504.64
766.425	26748.35
766.615	26236.36
766.806	26344.9
766.997	26748.35
767.187	26252.74
767.378	26019.27
767.569	25695.69
767.759	26240.45
767.95	26097.1
768.141	26215.88
768.331	25908.68
768.522	26144.2
768.712	26609.09
768.903	25777.61
769.093	25775.56
769.284	26461.63
769.474	26113.48
769.665	25302.48
769.855	25513.42
770.046	26262.98
770.236	25810.38
770.426	25779.66
770.617	26011.08
770.807	25816.52
770.998	25724.36
771.188	25562.58
771.378	25159.13
771.569	25996.74
771.759	25824.72
771.949	25331.15
772.139	25099.73
772.33	25411.03
772.52	25841.1
772.71	25347.54
772.9	24913.37
773.09	26152.39
773.281	25658.83
773.471	25310.68
773.661	24944.09
773.851	25247.19
774.041	25109.97
774.231	24819.16
774.421	25118.17
774.611	25314.77
774.802	25140.69
774.992	25243.09
775.182	25136.6
775.372	25355.73
775.562	25208.28
775.752	24845.79
775.942	24729.05
776.131	25400.79
776.321	24784.35
776.511	24684
776.701	24724.96
776.891	24976.86
777.081	24739.29
777.271	24645.09
777.461	24841.69
777.651	25056.73
777.84	24827.35
778.03	24483.3
778.22	24319.46
778.41	24987.1
778.599	24559.07
778.789	24444.38
778.979	24153.57
779.169	24731.1
779.358	24380.9
779.548	24628.7
779.738	23885.29
779.927	24606.17
780.117	24305.12
780.307	24190.44
780.496	24116.71
780.686	24356.32
780.875	24575.45
781.065	24118.76
781.254	23815.66
781.444	23959.02
781.633	24231.4
781.823	23895.53
782.012	23672.3
782.202	23688.68
782.391	23891.43
782.581	23391.73
782.77	24196.58
782.96	24333.79
783.149	23526.89
783.338	23696.88
783.528	23731.69
783.717	24016.36
783.906	24161.76
784.096	23576.05
784.285	23438.83
784.474	23868.91
784.663	23756.27
784.853	23530.99
785.042	23606.77
785.231	24036.84
785.42	23930.34
785.61	23854.57
785.799	23203.32
785.988	23799.27
786.177	23582.19
786.366	23469.55
786.555	23829.99
786.744	23985.64
786.933	23305.71
787.122	22967.8
787.312	23078.39
787.501	23246.32
787.69	23477.74
787.879	23047.67
788.068	23109.11
788.257	22828.54
788.445	23129.59
788.634	22832.63
788.823	22556.16
789.012	23576.05
789.201	23387.63
789.39	22838.78
789.579	22715.9
789.768	22918.65
789.957	23049.72
790.145	22414.85
790.334	22283.78
790.523	22728.19
790.712	22765.05
790.9	22756.86
791.089	22425.09
791.278	23031.29
791.467	22846.97
791.655	22709.75
791.844	22660.6
792.033	22187.52
792.221	21913.09
792.41	22255.11
792.599	22156.8
792.787	22584.83
792.976	22789.63
793.164	22103.56
793.353	22054.4
793.541	22574.59
793.73	22359.55
793.918	22310.4
794.107	21663.24
794.295	22263.3
794.484	22515.2
794.672	22197.76
794.861	22124.04
795.049	22615.55
795.238	22679.04
795.426	21771.79
795.614	22246.91
795.803	22492.67
795.991	22916.6
796.179	21888.52
796.368	21935.62
796.556	22494.72
796.744	22042.12
796.932	21724.68
797.121	21880.33
797.309	21777.93
797.497	22294.02
797.685	22038.02
797.874	21845.51
798.062	21986.82
798.25	22523.39
798.438	21622.28
798.626	21865.99
798.814	22285.83
799.002	22392.32
799.19	21968.39
799.378	21878.28
799.566	22525.44
799.755	22482.43
799.943	21900.81
800.131	21716.49
800.318	22158.85
800.506	22388.22
800.694	21558.8
800.882	21829.13
801.07	22320.64
801.258	21818.89
801.446	21655.05
801.634	21659.15
801.822	21892.62
802.01	22072.84
802.197	21659.15
802.385	22031.88
802.573	21757.45
802.761	21505.55
802.949	21831.18
803.136	21691.91
803.324	22085.12
803.512	22089.22
803.699	21792.26
803.887	21745.16
804.075	22216.19
804.262	21583.37
804.45	21702.15
804.638	21765.64
804.825	22046.21
805.013	21661.19
805.201	21845.51
805.388	21634.57
805.576	21802.5
805.763	22365.7
805.951	21822.98
806.138	21995.01
806.326	22504.96
806.513	21999.11
806.701	22097.41
806.888	21855.75
807.075	22345.22
807.263	22789.63
807.45	21874.18
807.638	21909
807.825	22785.53
808.012	22089.22
808.2	21945.86
808.387	22214.15
808.574	22251.01
808.761	22556.16
808.949	22324.74
809.136	21956.1
809.323	22165
809.51	22173.19
809.698	21949.96
809.885	21906.95
810.072	22171.14
810.259	22509.05
810.446	22113.8
810.633	21820.94
810.82	22705.66
811.008	22935.03
811.195	22093.32
811.382	21921.29
811.569	22441.47
811.756	22066.69
811.943	22314.5
812.13	22279.68
812.317	22240.77
812.504	22306.3
812.691	22445.57
812.878	22119.94
813.064	22844.92
813.251	22439.42
813.438	21997.06
813.625	22042.12
813.812	22136.32
813.999	22517.25
814.186	22005.25
814.372	22365.7
814.559	22488.57
814.746	22423.04
814.933	22001.16
815.12	22304.26
815.306	22085.12
815.493	22011.4
815.68	22040.07
815.866	21968.39
816.053	22453.76
816.24	22498.81
816.426	21978.63
816.613	22052.36
816.799	22650.36
816.986	22646.27
817.173	21974.53
817.359	22033.93
817.546	22283.78
817.732	22001.16
817.919	21958.15
818.105	22160.9
818.292	22203.91
818.478	22371.84
818.665	21956.1
818.851	22478.33
819.037	22840.82
819.224	22504.96
819.41	22017.54
819.597	21833.22
819.783	22398.46
819.969	22238.72
820.156	21636.62
820.342	21947.91
820.528	22668.8
820.714	22070.79
820.901	22101.51
821.087	21712.39
821.273	22400.51
821.459	21945.86
821.646	21708.3
821.832	21788.17
822.018	22220.29
822.204	22216.19
822.39	21726.73
822.576	21632.52
822.762	21872.14
822.948	21626.38
823.134	21868.04
823.32	21384.72
823.507	21589.52
823.693	21945.86
823.879	21990.92
824.065	21284.37
824.25	21853.7
824.436	21370.38
824.622	21464.59
824.808	21542.41
824.994	21589.52
825.18	21151.25
825.366	21102.1
825.552	21417.49
825.738	21558.8
825.923	21822.98
826.109	21618.19
826.295	21126.67
826.481	21218.83
826.667	21798.41
826.852	21087.76
827.038	21126.67
827.224	21949.96
827.409	21538.32
827.595	21022.23
827.781	21179.92
827.966	21546.51
828.152	21761.55
828.338	21106.2
828.523	21034.52
828.709	21374.48
828.894	21501.45
829.08	21149.2
829.266	20588.06
829.451	21007.89
829.637	20817.43
829.822	20688.41
830.008	20592.16
830.193	21173.78
830.378	21073.43
830.564	20766.23
830.749	20534.81
830.935	21120.53
831.12	21030.42
831.305	20727.32
831.491	20645.4
831.676	20553.24
831.861	20973.08
832.047	20592.16
832.232	20260.38
832.417	21192.21
832.602	20825.62
832.788	20217.38
832.973	20321.82
833.158	20643.35
833.343	20647.45
833.528	20463.13
833.714	20495.9
833.899	20698.65
834.084	20932.12
834.269	20725.27
834.454	20338.21
834.639	20446.75
834.824	20250.14
835.009	20463.13
835.194	20131.36
835.379	20766.23
835.564	20422.17
835.749	20350.49
835.934	20094.5
836.119	20364.83
836.304	20305.44
836.489	19777.06
836.674	20438.56
836.859	20211.23
837.044	20891.16
837.228	20018.72
837.413	19975.72
837.598	20377.12
837.783	20330.02
837.968	20078.11
838.152	19682.86
838.337	19576.36
838.522	20266.53
838.707	20293.15
838.891	19897.89
839.076	20102.69
839.261	20258.34
839.445	19953.19
839.63	19738.15
839.815	20098.59
839.999	19680.81
840.184	19346.99
840.368	19486.25
840.553	19985.96
840.737	20006.44
840.922	19428.91
841.106	19390
841.291	19455.53
841.475	19746.34
841.66	19439.15
841.844	19326.51
842.029	20213.28
842.213	19478.06
842.397	19201.58
842.582	18605.63
842.766	19914.28
842.951	19551.79
843.135	19443.24
843.319	19287.6
843.504	19641.9
843.688	19734.06
843.872	18849.33
844.056	19303.98
844.241	19400.24
844.425	19424.81
844.609	19254.83
844.793	18976.31
844.977	19455.53
845.161	19054.13
845.346	18611.77
845.53	18847.29
845.714	18972.21
845.898	19418.67
846.082	18599.48
846.266	18990.64
846.45	19125.81
846.634	19095.09
846.818	18964.02
847.002	19144.24
847.186	19168.82
847.37	18914.87
847.554	18527.8
847.738	18705.98
847.922	18775.61
848.106	18759.22
848.29	18153.02
848.473	18611.77
848.657	18933.3
848.841	18728.5
849.025	18146.88
849.209	18177.6
849.392	18955.83
849.576	18480.7
849.76	18024
849.944	18310.72
850.127	18722.36
850.311	18067.01
850.495	18290.24
850.678	18034.24
850.862	18806.33
851.046	18505.27
851.229	18214.46
851.413	18062.91
851.596	18226.75
851.78	18349.63
851.964	18314.81
852.147	17804.87
852.331	19101.23
852.514	18470.46
852.698	17937.99
852.881	17387.08
853.065	18101.83
853.248	17966.66
853.431	17784.39
853.615	17866.31
853.798	18454.08
853.982	18200.13
854.165	18116.16
854.348	17892.93
854.532	17915.46
854.715	17851.97
854.898	17673.8
855.081	17598.02
855.265	17907.27
855.448	18013.76
855.631	17595.98
855.814	17403.47
855.997	17897.03
856.181	17638.98
856.364	17671.75
856.547	17344.08
856.73	17831.49
856.913	17573.45
857.096	17008.21
857.279	17454.67
857.462	17659.46
857.645	17741.38
857.828	17344.08
858.011	17348.17
858.194	17163.86
858.377	17628.74
858.56	17215.05
858.743	17276.49
858.926	17235.53
859.109	17577.55
859.292	17153.62
859.475	16967.25
859.658	17563.21
859.841	17452.62
860.023	16827.99
860.206	17075.79
860.389	17397.32
860.572	17309.26
860.755	16914
860.937	16809.56
861.12	17043.03
861.303	17014.35
861.486	17116.75
861.668	16801.36
861.851	17092.18
862.034	17036.88
862.216	16979.54
862.399	16223.84
862.581	16946.77
862.764	17028.69
862.947	16623.19
863.129	16377.44
863.312	16574.04
863.494	17026.64
863.677	16666.2
863.859	16334.43
864.042	16815.7
864.224	17022.55
864.406	16295.52
864.589	16066.14
864.771	16694.87
864.954	16207.45
865.136	16191.07
865.318	15717.99
865.501	16191.07
865.683	15707.75
865.865	15814.24
866.048	15849.06
866.23	15822.44
866.412	16119.39
866.594	15709.8
866.777	15863.4
866.959	16270.94
867.141	15924.83
867.323	16160.35
867.505	15928.93
867.687	16037.47
867.869	16586.33
868.052	16412.25
868.234	15804
868.416	16014.94
868.598	16391.77
868.78	15746.66
868.962	15840.87
869.144	16154.21
869.326	16109.15
869.508	15816.29
869.69	15572.58
869.872	15787.62
870.054	16193.12
870.236	15595.11
870.417	15416.94
870.599	15767.14
870.781	16203.36
870.963	15820.39
871.145	15625.83
871.327	15920.74
871.508	15990.37
871.69	15521.38
871.872	15840.87
872.054	15804
872.235	16143.97
872.417	15482.47
872.599	15505
872.78	16295.52
872.962	15838.82
873.144	15294.06
873.325	15539.82
873.507	15904.35
873.689	15425.13
873.87	15390.31
874.052	15773.28
874.233	15699.56
874.415	15965.79
874.596	15816.29
874.778	15398.51
874.959	15529.58
875.141	16076.38
875.322	15476.33
875.503	15402.6
875.685	15781.48
875.866	15003.25
876.048	15449.71
876.229	15087.22
876.41	15568.49
876.592	15677.03
876.773	15513.19
876.954	15490.66
877.136	15687.27
877.317	15871.59
877.498	15353.45
877.679	15568.49
877.86	15554.15
878.042	15818.34
878.223	15396.46
878.404	16072.29
878.585	15763.04
878.766	16416.35
878.947	16168.54
879.128	16135.78
879.309	16342.62
879.49	16389.72
879.672	15900.26
879.853	15787.62
880.034	15822.44
880.215	16307.8
880.396	16074.34
880.576	15885.92
880.757	15998.56
880.938	16387.68
881.119	15996.51
881.3	15904.35
881.481	16268.89
881.662	16905.81
881.843	15695.46
882.023	15930.98
882.204	16213.6
882.385	16477.79
882.566	16098.91
882.747	15904.35
882.927	16291.42
883.108	16678.49
883.289	16037.47
883.469	16408.15
883.65	16295.52
883.831	16477.79
884.011	16514.65
884.192	16127.58
884.373	16701.01
884.553	16471.64
884.734	16352.86
884.914	16557.66
885.095	17432.14
885.275	17098.32
885.456	16688.73
885.636	16186.97
885.817	16862.8
885.997	16672.34
886.178	16133.73
886.358	16408.15
886.538	16707.16
886.719	17765.96
886.899	16240.22
887.08	16725.59
887.26	16772.69
887.44	16619.1
887.621	16670.29
887.801	16342.62
887.981	17417.8
888.161	16905.81
888.342	16524.89
888.522	16864.85
888.702	17253.97
888.882	17124.94
889.062	16881.24
889.242	16539.22
889.423	17182.29
889.603	16981.59
889.783	17028.69
889.963	16848.47
890.143	17313.36
890.323	17358.41
890.503	16805.46
890.683	17045.07
890.863	17061.46
891.043	16905.81
891.223	16658.01
891.403	16805.46
891.583	16922.2
891.763	16889.43
891.943	16965.2
892.122	16518.75
892.302	16852.56
892.482	16674.39
892.662	16623.19
892.842	16602.71
893.022	16651.86
893.201	16502.36
893.381	16993.87
893.561	16768.6
893.741	17143.38
893.92	16952.91
894.1	16752.21
894.28	16862.8
894.459	17014.35
894.639	17108.56
894.819	16344.67
894.998	17057.36
895.178	17243.73
895.357	16672.34
895.537	16506.46
895.716	16535.13
895.896	16721.49
896.075	16879.19
896.255	16442.97
896.434	16217.69
896.614	16801.36
896.793	16817.75
896.973	16422.49
897.152	16338.52
897.331	16604.76
897.511	16514.65
897.69	16076.38
897.87	16346.72
898.049	16610.9
898.228	16481.88
898.407	16234.08
898.587	15847.01
898.766	16219.74
898.945	16301.66
899.124	15738.47
899.304	16014.94
899.483	16438.87
899.662	16698.97
899.841	16148.06
900.02	15875.68
900.199	16186.97
900.378	15949.41
900.557	15830.63
900.737	15543.91
900.916	15840.87
901.095	16119.39
901.274	15742.57
901.453	15435.37
901.632	15476.33
901.811	15312.49
901.989	15232.62
902.168	15285.87
902.347	15761
902.526	15312.49
902.705	15353.45
902.884	15228.52
903.063	16023.14
903.242	15781.48
903.42	14954.1
903.599	15326.83
903.778	15556.2
903.957	15599.21
904.135	15087.22
904.314	15199.85
904.493	15396.46
904.672	15318.64
904.85	14665.33
905.029	14847.6
905.207	15005.3
905.386	15537.77
905.565	14096
905.743	14298.75
905.922	14276.22
906.1	14777.97
906.279	13971.07
906.457	13993.6
906.636	14417.53
906.814	14245.5
906.993	14046.85
907.171	14136.96
907.35	14288.51
907.528	14175.87
907.707	14081.66
907.885	13647.49
908.063	14298.75
908.242	13571.72
908.42	13551.24
908.598	13659.78
908.777	13887.11
908.955	13743.75
909.133	13901.44
909.311	13479.56
909.49	13602.44
909.668	13796.99
909.846	13751.94
910.024	13692.55
910.202	13966.98
910.38	14061.18
910.559	13620.87
910.737	13727.36
910.915	14040.7
911.093	13966.98
911.271	13756.04
911.449	13952.64
911.627	13944.45
911.805	14425.72
911.983	13901.44
912.161	13762.18
912.339	14274.17
912.517	14126.72
912.695	14085.76
912.872	14009.98
913.05	14098.05
913.228	14235.26
913.406	13872.77
913.584	13774.47
913.762	14290.56
913.939	13911.68
914.117	14028.42
914.295	14122.62
914.473	14435.96
914.65	14474.87
914.828	13993.6
915.006	13911.68
915.184	13942.4
915.361	14458.49
915.539	14190.2
915.716	14425.72
915.894	14335.61
916.072	14263.93
916.249	14333.56
916.427	14364.28
916.604	14100.09
916.782	14110.33
916.959	13672.07
917.137	13844.1
917.314	14132.86
917.492	14040.7
917.669	13762.18
917.847	13684.36
918.024	13942.4
918.201	13700.74
918.379	13622.92
918.556	13541
918.733	14190.2
918.911	13541
919.088	13772.42
919.265	13655.68
919.442	13786.75
919.62	13813.38
919.797	13670.02
919.974	13518.47
920.151	13987.46
920.328	13749.89
920.506	13291.15
920.683	13825.67
920.86	13512.33
921.037	13637.25
921.214	13440.65
921.391	13334.15
921.568	13659.78
921.745	13397.64
921.922	13287.05
922.099	13125.26
922.276	13864.58
922.453	13756.04
922.63	13309.58
922.807	13461.13
922.984	13465.22
923.161	13354.63
923.338	13282.95
923.514	12942.99
923.691	13334.15
923.868	13459.08
924.045	13063.82
924.222	12983.95
924.399	13385.35
924.575	13534.85
924.752	12906.13
924.929	12840.59
925.105	13047.44
925.282	12955.28
925.459	12770.96
925.635	12687
925.812	12916.37
925.989	12482.2
926.165	12846.74
926.342	12271.26
926.518	12385.94
926.695	12572.31
926.871	12248.73
927.048	12279.45
927.224	12795.54
927.401	12394.14
927.577	12246.68
927.754	12132
927.93	12705.43
928.107	12701.33
928.283	12045.98
928.459	12273.31
928.636	12387.99
928.812	12134.04
928.988	11959.97
929.165	11837.09
929.341	12060.32
929.517	12248.73
929.693	12052.13
929.87	11423.4
930.046	11845.28
930.222	11523.75
930.398	11146.92
930.574	11509.41
930.751	11574.95
930.927	11525.8
931.103	11384.49
931.279	11355.82
931.455	11243.18
931.631	11579.04
931.807	11261.61
931.983	11347.62
932.159	11247.27
932.335	11521.7
932.511	11398.82
932.687	10974.89
932.863	11558.56
933.039	11050.67
933.215	10823.34
933.391	10800.82
933.566	10901.17
933.742	11077.29
933.918	10663.6
934.094	10380.98
934.27	10628.79
934.445	10530.48
934.621	10417.85
934.797	10084.03
934.973	10569.4
935.148	10454.71
935.324	10004.16
935.5	9594.56
935.675	10415.8
935.851	10305.21
936.027	9522.88
936.202	9625.28
936.378	9875.13
936.553	9754.3
936.729	9500.36
936.904	8912.59
937.08	8527.57
937.255	8634.07
937.431	8603.35
937.606	8189.66
937.782	8386.26
937.957	8527.57
938.133	8355.54
938.308	8087.26
938.483	7886.56
938.659	7804.64
938.834	7773.92
939.009	7743.2
939.185	7544.55
939.36	7429.86
939.535	6987.5
939.71	7274.21
939.886	7454.44
940.061	7343.85
940.236	7001.83
940.411	6938.35
940.586	7239.4
940.761	7061.23
940.937	6530.8
941.112	6495.99
941.287	6778.61
941.462	6770.41
941.637	6483.7
941.812	6516.47
941.987	6647.54
942.162	6553.33
942.337	6512.37
942.512	6356.72
942.687	6698.74
942.862	6575.86
943.037	6217.46
943.212	5940.99
943.386	6219.51
943.561	6461.17
943.736	6409.97
943.911	6422.26
944.086	6330.1
944.26	6387.44
944.435	6115.06
944.61	6344.44
944.785	6647.54
944.959	6760.17
945.134	6018.81
945.309	6029.05
945.483	6123.26
945.658	6491.89
945.833	5777.15
946.007	5842.68
946.182	6598.38
946.357	6131.45
946.531	5940.99
946.706	5967.61
946.88	5943.03
947.055	6528.75
947.229	6231.8
947.404	6104.82
947.578	6700.78
947.752	6405.88
947.927	6102.78
948.101	6196.98
948.276	6319.86
948.45	6739.69
948.624	6428.4
948.799	6274.81
948.973	6670.06
949.147	6213.37
949.321	6366.96
949.496	6346.48
949.67	6811.37
949.844	6690.54
950.018	6469.36
950.193	6444.79
950.367	7026.41
950.541	6704.88
950.715	6614.77
950.889	6596.34
951.063	6692.59
951.237	6842.09
951.411	6225.65
951.585	6364.92
951.759	6760.17
951.933	6692.59
952.107	6594.29
952.281	6760.17
952.455	7122.66
952.629	7042.79
952.803	6911.72
952.977	6751.98
953.151	7118.57
953.325	6926.06
953.499	7069.42
953.672	6661.87
953.846	6887.15
954.02	6803.18
954.194	6686.45
954.368	6809.33
954.541	7085.8
954.715	6842.09
954.889	6735.6
955.062	6891.24
955.236	6952.68
955.41	7010.03
955.583	7202.54
955.757	6731.5
955.93	6932.2
956.104	6881
956.278	6905.58
956.451	6907.63
956.625	7118.57
956.798	7536.35
956.972	7145.19
957.145	6885.1
957.319	7208.68
957.492	7251.69
957.665	6967.02
957.839	6825.71
958.012	7257.83
958.185	6975.21
958.359	6895.34
958.532	7132.9
958.705	7345.89
958.879	7388.9
959.052	7118.57
959.225	6909.68
959.398	7276.26
959.572	7311.08
959.745	6911.72
959.918	7061.23
960.091	7151.34
960.264	7462.63
960.438	7005.93
960.611	6807.28
960.784	7270.12
960.957	6950.64
961.13	7356.13
961.303	6993.64
961.476	7247.59
961.649	7532.26
961.822	6891.24
961.995	7141.1
962.168	7491.3
962.341	7311.08
962.514	6844.14
962.686	6993.64
962.859	7407.33
963.032	7466.72
963.205	6838
963.378	7102.18
963.551	7302.89
963.723	7360.23
963.896	6999.79
964.069	7266.02
964.242	7147.24
964.414	7433.96
964.587	7032.55
964.76	6938.35
964.932	7294.69
965.105	7155.43
965.278	7005.93
965.45	6905.58
965.623	7081.71
965.795	7216.87
965.968	6827.76
966.14	7075.56
966.313	7089.9
966.485	7220.97
966.658	6815.47
966.83	6907.63
967.003	7249.64
967.175	7356.13
967.348	6991.59
967.52	6817.52
967.692	7411.43
967.865	7247.59
968.037	6751.98
968.209	6915.82
968.382	6903.53
968.554	7114.47
968.726	6743.79
968.898	6512.37
969.071	7055.08
969.243	7053.03
969.415	6838
969.587	6803.18
969.759	7270.12
969.932	6964.97
970.104	6733.55
970.276	6459.12
970.448	6696.69
970.62	6768.37
970.792	6817.52
970.964	6323.96
971.136	7284.45
971.308	6870.76
971.48	6356.72
971.652	6369.01
971.824	6934.25
971.996	6659.82
972.168	6369.01
972.339	6541.04
972.511	6911.72
972.683	6567.67
972.855	6530.8
973.027	6233.85
973.199	6604.53
973.37	6692.59
973.542	6373.11
973.714	6579.95
973.886	6479.6
974.057	6665.97
974.229	6260.47
974.401	6495.99
974.572	6465.27
974.744	6170.36
974.915	6215.41
975.087	6358.77
975.259	6737.65
975.43	6403.83
975.602	6344.44
975.773	6147.83
975.945	6340.34
976.116	6702.83
976.288	6352.63
976.459	6412.02
976.63	6221.56
976.802	6477.55
976.973	6088.44
977.145	6119.16
977.316	6758.13
977.487	6393.59
977.659	6205.17
977.83	6123.26
978.001	6651.63
978.172	6190.84
978.344	5924.6
978.515	6012.67
978.686	6143.74
978.857	6461.17
979.028	5883.64
979.2	5797.63
979.371	6381.3
979.542	6264.57
979.713	6106.87
979.884	5512.96
980.055	5785.34
980.226	5965.56
980.397	5957.37
980.568	5771.01
980.739	6416.12
980.91	6020.86
981.081	6147.83
981.252	5795.58
981.423	6031.1
981.594	6176.5
981.765	5672.7
981.936	5705.47
982.106	5873.4
982.277	6121.21
982.448	5568.26
982.619	5834.49
982.79	5590.78
982.96	6127.35
983.131	5623.55
983.302	5365.51
983.472	5615.36
983.643	5736.19
983.814	5590.78
983.984	5459.71
984.155	5547.78
984.326	6004.47
984.496	5719.81
984.667	5342.98
984.837	5517.06
985.008	6151.93
985.178	5646.08
985.349	5357.32
985.519	5635.84
985.69	5406.47
985.86	5416.71
986.031	5400.32
986.201	5652.22
986.371	5719.81
986.542	5369.6
986.712	5082.89
986.882	5578.5
987.053	5558.02
987.223	4962.06
987.393	5345.03
987.563	5314.31
987.734	5406.47
987.904	5506.82
988.074	5170.95
988.244	5410.56
988.414	5199.62
988.585	5046.02
988.755	5066.5
988.925	5295.88
989.095	5609.22
989.265	4933.39
989.435	5207.81
989.605	5463.81
989.775	5281.54
989.945	5318.4
990.115	4894.47
990.285	5185.29
990.455	5232.39
990.625	4871.95
990.795	4722.45
990.965	5390.08
991.134	4892.43
991.304	4458.26
991.474	4609.81
991.644	5136.13
991.814	5353.22
991.984	4505.36
992.153	4572.94
992.323	4830.99
992.493	4728.59
992.662	4474.64
992.832	4747.02
993.002	4634.38
993.171	4865.8
993.341	4372.24
993.511	4661.01
993.68	4620.05
993.85	4679.44
994.019	4175.64
994.189	4353.81
994.358	4652.81
994.528	4292.37
994.697	4034.33
994.867	4228.88
995.036	4763.4
995.206	4452.11
995.375	4257.56
995.544	4495.12
995.714	4505.36
995.883	4523.79
996.052	4353.81
996.222	4116.25
996.391	4984.59
996.56	4419.35
996.73	4124.44
996.899	3907.35
997.068	4712.21
997.237	4294.42
997.406	4204.31
997.576	3841.82
997.745	4488.98
997.914	4452.11
998.083	3798.81
998.252	3911.45
998.421	4333.33
998.59	4132.63
998.759	3776.28
998.928	3667.74
999.097	4454.16
999.266	4183.83
999.435	4140.82
999.604	3634.97
999.773	4587.28
999.942	4099.86
1000.111	3661.6
1000.28	3493.66
1000.448	3780.38
1000.617	3772.19
1000.786	3972.89
1000.955	3645.21
1001.124	4165.4
1001.292	4618
1001.461	3669.79
1001.63	3698.46
1001.798	4337.43
1001.967	4177.69
1002.136	3397.41
1002.304	3540.77
1002.473	4087.57
1002.642	3903.26
1002.81	3538.72
1002.979	3561.25
1003.147	4097.81
1003.316	4480.78
1003.484	3444.51
1003.653	3479.33
1003.821	4106.01
1003.99	3884.83
1004.158	3694.36
1004.327	3581.73
1004.495	3819.29
1004.663	3383.07
1004.832	3501.86
1005	3221.28
1005.168	3751.71
1005.337	3604.25
1005.505	3153.7
1005.673	3397.41
1005.842	3567.39
1006.01	3575.58
1006.178	3135.27
1006.346	3215.14
1006.514	3614.49
1006.683	3770.14
1006.851	3159.85
1007.019	3333.92
1007.187	3235.62
1007.355	2991.91
1007.523	3018.54
1007.691	2875.18
1007.859	3045.16
1008.027	3727.13
1008.195	3114.79
1008.363	2821.93
1008.531	3561.25
1008.699	3100.45
1008.867	2819.88
1009.035	2977.58
1009.203	3458.85
1009.37	3149.61
1009.538	2801.45
1009.706	3231.52
1009.874	3211.04
1010.042	3106.6
1010.209	2744.11
1010.377	2703.15
1010.545	3452.7
1010.713	3127.08
1010.88	2707.24
1011.048	2858.79
1011.216	2932.52
1011.383	3401.51
1011.551	2823.98
1011.718	2606.89
1011.886	3260.2
1012.054	3020.58
1012.221	2594.61
1012.389	2676.52
1012.556	2961.19
1012.724	3395.36
1012.891	2682.67
1013.058	2477.87
1013.226	3131.17
1013.393	3163.94
1013.561	2395.95
1013.728	2488.11
1013.895	3026.73
1014.063	2881.32
1014.23	2332.47
1014.397	2426.67
1014.565	3014.44
1014.732	2627.37
1014.899	2461.49
1015.066	2303.79
1015.233	2789.16
1015.401	2785.07
1015.568	2432.82
1015.735	2426.67
1015.902	2578.22
1016.069	2684.72
1016.236	2242.36
1016.403	2209.59
1016.57	2512.69
1016.737	2654
1016.904	2301.75
1017.071	2193.2
1017.238	2225.97
1017.405	2740.01
1017.572	2047.8
1017.739	2346.8
1017.906	2576.17
1018.073	2658.09
1018.24	2123.57
1018.407	2074.42
1018.573	2699.05
1018.74	2320.18
1018.907	2033.46
1019.074	1871.67
1019.241	2658.09
1019.407	2520.88
1019.574	2002.74
1019.741	1845.05
1019.907	2367.28
1020.074	2305.84
1020.241	1855.29
1020.407	1902.39
1020.574	2420.53
1020.74	2373.43
1020.907	1926.97
1021.073	1818.43
1021.24	2684.72
1021.406	2510.64
1021.573	1787.71
1021.739	1918.78
1021.906	2432.82
1022.072	2178.87
1022.239	1888.06
1022.405	1859.38
1022.571	2146.1
1022.738	1881.91
1022.904	1836.86
1023.07	1945.4
1023.237	2139.96
1023.403	2295.6
1023.569	1865.53
1023.735	1824.57
1023.902	2199.35
1024.068	2228.02
1024.234	1736.51
1024.4	1681.21
1024.566	2154.29
1024.732	2225.97
1024.898	1673.02
1025.065	1556.29
1025.231	2207.54
1025.397	1920.82
1025.563	1716.03
1025.729	1570.62
1025.895	1589.05
1026.061	1761.08
1026.227	1439.55
1026.392	1523.52
1026.558	2314.03
1026.724	2084.66
1026.89	1646.4
1027.056	1507.13
1027.222	2076.47
1027.388	1814.33
1027.553	1568.57
1027.719	1445.7
1027.885	2301.75
1028.051	2039.61
1028.216	1386.3
1028.382	1529.66
1028.548	2023.22
1028.713	1648.44
1028.879	1435.46
1029.045	1718.08
1029.21	2121.52
1029.376	2121.52
1029.541	1388.35
1029.707	1572.67
1029.873	1941.3
1030.038	2047.8
1030.204	1468.22
1030.369	1324.87
1030.534	1929.02
1030.7	1580.86
1030.865	1425.22
1031.031	1320.77
1031.196	1828.67
1031.361	1806.14
1031.527	1328.96
1031.692	1396.54
1031.857	1283.91
1032.023	1867.58
1032.188	1234.75
1032.353	1320.77
1032.518	2004.79
1032.684	1666.88
1032.849	1154.88
1033.014	1308.48
1033.179	1896.25
1033.344	1847.1
1033.509	1371.97
1033.674	1296.19
1033.839	1881.91
1034.004	1804.09
1034.17	1220.42
1034.335	1300.29
1034.5	1546.05
1034.664	1441.6
1034.829	1210.18
1034.994	1281.86
1035.159	1597.24
1035.324	1675.07
1035.489	1179.46
1035.654	1169.22
1035.819	1795.9
1035.984	1523.52
1036.148	1140.55
1036.313	1158.98
1036.478	1736.51
1036.643	1523.52
1036.807	1118.02
1036.972	1122.12
1037.137	1740.6
1037.301	1443.65
1037.466	1027.91
1037.631	1314.63
1037.795	1681.21
1037.96	1486.65
1038.124	1290.05
1038.289	1056.58
1038.454	1623.87
1038.618	1683.26
1038.783	1054.53
1038.947	1169.22
1039.111	1474.37
1039.276	1277.76
1039.44	1097.54
1039.605	1466.17
1039.769	1314.63
1039.933	1333.06
1040.098	1107.78
1040.262	1171.27
1040.426	1617.72
1040.591	1494.85
1040.755	913.22
1040.919	999.24
1041.083	1488.7
1041.248	1275.71
1041.412	814.92
1041.576	782.15
1041.74	1189.7
1041.904	1519.42
1042.068	886.6
1042.232	986.95
1042.397	1513.28
1042.561	1396.54
1042.725	739.15
1042.889	1054.53
1043.053	1347.39
1043.217	1392.45
1043.381	1050.44
1043.544	763.72
1043.708	1529.66
1043.872	1056.58
1044.036	694.09
1044.2	651.08
1044.364	1376.06
1044.528	1640.25
1044.691	2096.95
1044.855	745.29
1045.019	1525.57
1045.183	1308.48
1045.346	874.31
1045.51	816.97
1045.674	1351.49
1045.837	1267.52
1046.001	724.81
1046.165	812.87
1046.328	1662.78
1046.492	1240.9
1046.655	978.76
1046.819	872.26
1046.983	919.37
1047.146	1218.37
1047.31	841.54
1047.473	599.88
1047.636	1066.82
1047.8	931.66
1047.963	765.77
1048.127	692.04
1048.29	825.16
