Data from Hydrogel_Ink_Intensity_Test_1_USB4F045381__31__00031.txt Node

Date: Mon Jul 31 10:42:49 EDT 2023
User: mmckonesweet
Spectrometer: USB4F04538
Trigger mode: 4
Integration Time (sec): 9.000000E-1
Scans to average: 1
Electric dark correction enabled: true
Nonlinearity correction enabled: false
Boxcar width: 0
XAxis mode: Wavelengths
Number of Pixels in Spectrum: 3648
>>>>>Begin Spectral Data<<<<<
345.52	-922.78
345.736	-922.78
345.952	-922.78
346.168	-990.36
346.384	-906.4
346.6	-187.56
346.816	-154.79
347.032	-208.04
347.248	195.41
347.464	-214.18
347.68	-89.26
347.896	97.11
348.112	406.35
348.328	-85.16
348.544	-42.15
348.76	78.68
348.975	203.6
349.191	-210.09
349.407	-48.3
349.623	11.09
349.839	13.14
350.055	-19.63
350.27	136.02
350.486	203.6
350.702	410.45
350.918	297.81
351.133	-122.02
351.349	273.23
351.565	408.4
351.781	-146.6
351.996	64.34
352.212	387.92
352.428	-5.29
352.644	-130.22
352.859	-179.37
353.075	318.29
353.291	74.58
353.506	-40.11
353.722	-119.98
353.938	45.91
354.153	490.32
354.369	154.45
354.584	-167.08
354.8	287.57
355.016	-314.53
355.231	-144.55
355.447	-42.15
355.662	191.31
355.878	881.48
356.093	-242.85
356.309	-19.63
356.524	-162.98
356.74	285.52
356.955	-208.04
357.171	99.16
357.386	228.18
357.602	-187.56
357.817	35.67
358.033	-79.02
358.248	428.88
358.464	213.84
358.679	-25.77
358.895	-173.22
359.11	45.91
359.325	408.4
359.541	344.91
359.756	47.96
359.972	-185.51
360.187	273.23
360.402	-68.78
360.618	-109.74
360.833	1106.76
361.048	271.19
361.264	-79.02
361.479	58.2
361.694	146.26
361.909	357.2
362.125	-85.16
362.34	-27.82
362.555	306
362.77	201.55
362.986	-171.18
363.201	-27.82
363.416	256.85
363.631	224.08
363.847	-76.97
364.062	-9.39
364.277	258.9
364.492	156.5
364.707	-31.91
364.922	-283.81
365.138	303.95
365.353	498.51
365.568	-117.93
365.783	-52.39
365.998	140.12
366.213	588.62
366.428	-66.73
366.643	260.95
366.858	387.92
367.073	336.72
367.288	-31.91
367.503	-175.27
367.718	174.93
367.933	398.16
368.148	-175.27
368.363	72.53
368.578	105.3
368.793	535.37
369.008	-1.19
369.223	-56.49
369.438	392.02
369.653	525.13
369.868	-109.74
370.083	-107.69
370.298	275.28
370.513	469.84
370.728	138.07
370.943	-38.06
371.157	-50.35
371.372	699.21
371.587	-122.02
371.802	-156.84
372.017	148.31
372.232	613.2
372.446	99.16
372.661	-117.93
372.876	375.63
373.091	203.6
373.306	123.73
373.52	-119.98
373.735	-11.43
373.95	480.08
374.165	43.86
374.379	45.91
374.594	-27.82
374.809	291.66
375.023	236.37
375.238	-99.5
375.453	342.86
375.667	-130.22
375.882	-13.48
376.097	-54.44
376.311	234.32
376.526	119.64
376.741	-79.02
376.955	152.4
377.17	684.87
377.384	711.5
377.599	123.73
377.813	-93.35
378.028	701.26
378.242	332.62
378.457	76.63
378.672	-148.65
378.886	267.09
379.101	136.02
379.315	-136.36
379.53	41.81
379.744	418.64
379.958	306
380.173	82.77
380.387	-29.87
380.602	389.97
380.816	115.54
381.031	56.15
381.245	90.96
381.459	514.89
381.674	2634.54
381.888	-74.92
382.103	279.38
382.317	35.67
382.531	701.26
382.746	101.2
382.96	-11.43
383.174	107.35
383.388	576.33
383.603	316.24
383.817	-60.59
384.031	408.4
384.246	680.78
384.46	183.12
384.674	553.8
384.888	224.08
385.103	203.6
385.317	-44.2
385.531	156.5
385.745	572.24
385.959	621.39
386.174	43.86
386.388	-21.67
386.602	275.28
386.816	88.92
387.03	207.7
387.244	211.79
387.458	273.23
387.672	582.48
387.887	-42.15
388.101	-11.43
388.315	543.57
388.529	457.55
388.743	103.25
388.957	-52.39
389.171	619.34
389.385	78.68
389.599	103.25
389.813	287.57
390.027	359.25
390.241	791.37
390.455	228.18
390.669	179.03
390.883	183.12
391.097	725.83
391.311	381.78
391.525	156.5
391.738	500.56
391.952	475.98
392.166	226.13
392.38	113.49
392.594	523.09
392.808	521.04
393.022	246.61
393.236	201.55
393.449	510.8
393.663	478.03
393.877	-17.58
394.091	314.19
394.305	277.33
394.518	174.93
394.732	88.92
394.946	170.83
395.16	750.41
395.373	432.97
395.587	115.54
395.801	187.22
396.015	637.77
396.228	500.56
396.442	179.03
396.656	13.14
396.869	713.55
397.083	815.94
397.297	312.14
397.51	160.59
397.724	809.8
397.938	451.41
398.151	25.43
398.365	99.16
398.578	656.2
398.792	801.61
399.005	439.12
399.219	254.8
399.433	541.52
399.646	498.51
399.86	426.83
400.073	373.58
400.287	635.72
400.5	334.67
400.714	381.78
400.927	371.54
401.141	582.48
401.354	1336.13
401.567	514.89
401.781	113.49
401.994	631.63
402.208	1131.33
402.421	320.34
402.635	377.68
402.848	498.51
403.061	740.17
403.275	445.26
403.488	189.27
403.701	891.72
403.915	656.2
404.128	457.55
404.341	371.54
404.555	623.44
404.768	572.24
404.981	531.28
405.195	365.39
405.408	1024.84
405.621	719.69
405.834	465.74
406.048	295.76
406.261	957.25
406.474	838.47
406.687	392.02
406.9	566.09
407.114	471.89
407.327	670.54
407.54	205.65
407.753	240.47
407.966	435.02
408.179	682.83
408.392	361.3
408.605	238.42
408.819	801.61
409.032	731.98
409.245	377.68
409.458	639.82
409.671	801.61
409.884	973.64
410.097	267.09
410.31	701.26
410.523	738.12
410.736	549.71
410.949	469.84
411.162	531.28
411.375	1035.08
411.588	1024.84
411.801	656.2
412.014	469.84
412.227	648.01
412.44	650.06
412.653	430.93
412.865	656.2
413.078	920.39
413.291	803.66
413.504	611.15
413.717	455.5
413.93	871.24
414.143	451.41
414.356	547.66
414.568	357.2
414.781	1016.65
414.994	764.75
415.207	635.72
415.42	635.72
415.632	949.06
415.845	1231.68
416.058	389.97
416.271	469.84
416.483	774.99
416.696	1178.44
416.909	525.13
417.121	498.51
417.334	977.73
417.547	1270.59
417.759	551.76
417.972	459.6
418.185	654.16
418.397	1084.23
418.61	596.81
418.823	572.24
419.035	1182.53
419.248	764.75
419.46	678.73
419.673	758.6
419.885	990.02
420.098	774.99
420.311	627.53
420.523	451.41
420.736	987.97
420.948	793.42
421.161	670.54
421.373	455.5
421.586	938.82
421.798	789.32
422.01	600.91
422.223	858.95
422.435	777.03
422.648	985.93
422.86	727.88
423.073	668.49
423.285	1160
423.497	607.05
423.71	668.49
423.922	717.64
424.134	1129.28
424.347	1311.55
424.559	1016.65
424.771	992.07
424.984	865.1
425.196	1020.74
425.408	611.15
425.621	783.18
425.833	1397.57
426.045	1315.65
426.257	734.03
426.47	824.14
426.682	1155.91
426.894	1184.58
427.106	787.27
427.318	893.77
427.531	910.15
427.743	1309.51
427.955	824.14
428.167	1221.44
428.379	1192.77
428.591	1067.85
428.804	924.49
429.016	844.62
429.228	1010.5
429.44	1291.07
429.652	1203.01
429.864	772.94
430.076	1037.13
430.288	1178.44
430.5	1045.32
430.712	1055.56
430.924	1477.44
431.136	1207.11
431.348	852.81
431.56	977.73
431.772	1243.97
431.984	1119.04
432.196	967.49
432.408	1106.76
432.62	1209.15
432.832	1336.13
433.044	1366.85
433.256	1205.06
433.468	1506.11
433.679	930.63
433.891	1012.55
434.103	1350.46
434.315	1755.96
434.527	1620.8
434.739	1266.5
434.95	1336.13
435.162	1559.36
435.374	1246.02
435.586	1114.95
435.798	1215.3
436.009	1221.44
436.221	1297.22
436.433	1196.87
436.645	1207.11
436.856	1274.69
437.068	1758.01
437.28	1243.97
437.491	1510.21
437.703	1577.79
437.915	1522.49
438.126	1348.42
438.338	1583.93
438.55	1569.6
438.761	1624.89
438.973	1356.61
439.184	1350.46
439.396	1594.17
439.608	1782.59
439.819	1323.84
440.031	1495.87
440.242	1708.86
440.454	1655.61
440.665	1506.11
440.877	1561.41
441.088	1788.73
441.3	1688.38
441.511	1299.27
441.723	1377.09
441.934	1680.19
442.146	1631.04
442.357	1610.56
442.569	1743.67
442.78	1655.61
442.991	2161.46
443.203	1790.78
443.414	1387.33
443.626	1940.28
443.837	1557.31
444.048	1319.75
444.26	1375.04
444.471	1753.91
444.682	1968.95
444.894	1422.14
445.105	1352.51
445.316	1995.57
445.528	1919.8
445.739	1721.15
445.95	1573.69
446.161	1942.33
446.373	2065.21
446.584	1645.37
446.795	1626.94
447.006	1981.24
447.217	2194.23
447.429	1399.62
447.64	1557.31
447.851	2173.75
448.062	2001.72
448.273	1510.21
448.484	1706.81
448.695	2081.59
448.907	1960.76
449.118	1676.09
449.329	1948.47
449.54	1770.3
449.751	1753.91
449.962	1745.72
450.173	1805.11
450.384	2270
450.595	2313.01
450.806	1860.41
451.017	1733.43
451.228	2368.31
451.439	2323.25
451.65	1870.65
451.861	1528.64
452.072	1803.07
452.283	1993.53
452.494	2192.18
452.705	1868.6
452.915	2327.35
453.126	2306.87
453.337	2038.58
453.548	1860.41
453.759	2433.84
453.97	2730.8
454.181	2179.89
454.391	1993.53
454.602	2427.7
454.813	2413.36
455.024	2153.27
455.235	2063.16
455.445	2411.31
455.656	2468.66
455.867	2251.57
456.078	2089.78
456.288	2206.52
456.499	2554.67
456.71	2130.74
456.921	2458.42
457.131	2450.22
457.342	2466.61
457.553	2224.95
457.763	2227
457.974	2667.31
458.184	2708.27
458.395	2188.08
458.606	2171.7
458.816	2949.93
459.027	2992.94
459.237	2390.83
459.448	2241.33
459.659	2847.53
459.869	3183.4
460.08	2290.48
460.29	2708.27
460.501	3222.31
460.711	2708.27
460.922	2331.44
461.132	2605.87
461.343	3509.02
461.553	2595.63
461.764	2640.69
461.974	2523.95
462.184	2982.7
462.395	2919.21
462.605	2956.07
462.816	2624.3
463.026	2947.88
463.236	3355.43
463.447	2689.84
463.657	2788.14
463.867	3373.86
464.078	3103.53
464.288	3011.37
464.498	2970.41
464.709	3273.51
464.919	3126.05
465.129	3199.78
465.339	3179.3
465.55	3488.54
465.76	3433.25
465.97	3224.36
466.18	3011.37
466.391	3664.67
466.601	3623.71
466.811	3289.89
467.021	3156.77
467.231	3722.01
467.441	3713.82
467.651	3562.27
467.862	3238.69
468.072	3719.96
468.282	4039.45
468.492	3529.5
468.702	3758.88
468.912	3865.37
469.122	4457.23
469.332	3953.43
469.542	3863.32
469.752	4315.92
469.962	4131.61
470.172	3803.93
470.382	3885.85
470.592	4326.16
470.802	4594.45
471.012	4160.28
471.222	4008.73
471.432	4653.84
471.642	4582.16
471.852	4367.12
472.062	4049.69
472.272	4576.02
472.482	4305.68
472.691	4342.55
472.901	4178.71
473.111	4762.38
473.321	5470.98
473.531	4528.91
473.741	4641.55
473.95	5006.09
474.16	5100.3
474.37	4979.47
474.58	4684.56
474.79	5456.64
474.999	5444.35
475.209	4780.81
475.419	5131.02
475.628	5419.78
475.838	5597.95
476.048	5378.82
476.258	5194.5
476.467	5819.13
476.677	5481.22
476.886	5690.11
477.096	5651.2
477.306	5681.92
477.515	6114.04
477.725	5720.83
477.935	5845.76
478.144	6427.38
478.354	5884.67
478.563	5921.53
478.773	5819.13
478.982	6456.05
479.192	6476.53
479.401	6126.33
479.611	6124.28
479.82	6284.02
480.03	6517.49
480.239	6277.88
480.449	6275.83
480.658	7201.51
480.868	6699.76
481.077	6714.09
481.287	6597.36
481.496	7052.01
481.705	7453.41
481.915	6986.47
482.124	7142.12
482.333	7131.88
482.543	7709.41
482.752	7031.53
482.961	7103.21
483.171	7604.96
483.38	7394.02
483.589	7580.39
483.799	7291.62
484.008	7578.34
484.217	7881.44
484.426	7449.32
484.636	7353.06
484.845	7854.81
485.054	7500.51
485.263	8004.32
485.472	7647.97
485.682	8630.99
485.891	8176.34
486.1	7852.77
486.309	8039.13
486.518	8485.59
486.727	8993.48
486.936	8123.1
487.146	8522.45
487.355	8932.05
487.564	8473.3
487.773	8549.07
487.982	8522.45
488.191	8936.14
488.4	8790.74
488.609	8694.48
488.818	8907.47
489.027	9519.81
489.236	9528
489.445	9175.75
489.654	8930
489.863	9501.38
490.072	9435.85
490.281	9417.41
490.49	9278.15
490.698	9859.77
490.907	9603.78
491.116	9358.02
491.325	9405.13
491.534	10119.87
491.743	9900.73
491.952	9786.05
492.16	9849.54
492.369	9892.54
492.578	10330.81
492.787	9886.4
492.996	9790.14
493.204	10052.28
493.413	10525.36
493.622	9867.97
493.831	9624.26
494.039	10777.26
494.248	10283.7
494.457	10177.21
494.665	10195.64
494.874	10920.62
495.083	11160.24
495.291	10431.16
495.5	10351.29
495.709	10869.42
495.917	10816.18
496.126	10402.49
496.335	10517.17
496.543	11084.46
496.752	11066.03
496.96	11195.05
497.169	10779.31
497.377	11115.18
497.586	11451.05
497.794	11287.21
498.003	10855.09
498.211	11512.49
498.42	11770.53
498.628	11229.87
498.837	11301.54
499.045	11709.09
499.254	11592.36
499.462	11489.96
499.671	11653.8
499.879	12018.33
500.087	12225.18
500.296	11422.38
500.504	11743.91
500.713	11903.65
500.921	12757.65
501.129	11682.47
501.338	11784.87
501.546	12178.08
501.754	12192.41
501.962	11969.18
502.171	11911.84
502.379	12468.89
502.587	12690.07
502.795	12360.34
503.004	12184.22
503.212	12391.06
503.42	12829.33
503.628	12241.56
503.837	12532.37
504.045	12870.29
504.253	13044.37
504.461	12292.76
504.669	12243.61
504.877	12858
505.085	13470.34
505.294	12526.23
505.502	12843.67
505.71	13116.05
505.918	13292.17
506.126	12806.8
506.334	12638.87
506.542	13083.28
506.75	13175.44
506.958	13169.29
507.166	13294.22
507.374	13392.52
507.582	13570.69
507.79	13296.27
507.998	13040.27
508.206	13732.48
508.414	13539.97
508.622	13363.85
508.83	13179.53
509.037	13959.81
509.245	13476.49
509.453	13566.6
509.661	13466.25
509.869	14137.98
510.077	13806.21
510.285	13777.54
510.492	13585.03
510.7	14531.19
510.908	13853.31
511.116	13496.97
511.324	13693.57
511.531	14080.64
511.739	14275.2
511.947	14045.82
512.155	14254.72
512.362	14582.39
512.57	13777.54
512.778	14176.89
512.985	14008.96
513.193	14545.53
513.401	14869.11
513.608	14166.65
513.816	14334.59
514.024	14643.83
514.231	14795.38
514.439	14410.36
514.646	14414.46
514.854	14948.98
515.061	14561.91
515.269	14357.11
515.477	14516.86
515.684	14692.98
515.892	14822
516.099	14740.08
516.307	14406.27
516.514	14977.65
516.722	15364.71
516.929	14817.91
517.136	14660.21
517.344	15508.07
517.551	15327.85
517.759	14715.51
517.966	14926.45
518.173	15032.94
518.381	15235.69
518.588	15010.42
518.796	14809.72
519.003	15639.14
519.21	15221.36
519.418	15215.21
519.625	15368.81
519.832	15690.34
520.039	15680.1
520.247	15139.44
520.454	15415.91
520.661	16013.92
520.868	15651.43
521.076	15657.57
521.283	15565.42
521.49	16396.89
521.697	15903.33
521.904	15577.7
522.112	15596.14
522.319	16280.16
522.526	16245.34
522.733	15714.92
522.94	15817.32
523.147	16022.11
523.354	16495.19
523.561	15938.15
523.768	16319.07
523.975	16669.27
524.183	16302.68
524.39	16241.25
524.597	16106.08
524.804	16609.88
525.011	16568.92
525.218	16415.32
525.425	16491.1
525.632	17048.15
525.838	16743
526.045	16345.69
526.252	16697.94
526.459	17912.39
526.666	17709.64
526.873	16822.87
527.08	16869.97
527.287	17369.68
527.494	17216.08
527.701	16949.84
527.907	16716.37
528.114	17617.48
528.321	17054.29
528.528	17007.19
528.735	17105.49
528.941	17103.44
529.148	17099.34
529.355	17115.73
529.562	16953.94
529.768	17838.66
529.975	17496.65
530.182	17437.26
530.388	17023.57
530.595	17826.37
530.802	17048.15
531.008	17687.11
531.215	17510.99
531.422	18539.07
531.628	18563.64
531.835	17674.82
532.042	17775.17
532.248	18029.12
532.455	18008.64
532.661	17879.62
532.868	17877.57
533.074	18453.05
533.281	18453.05
533.487	17902.15
533.694	18203.2
533.9	18190.91
534.107	18395.71
534.313	17996.35
534.52	18180.67
534.726	18657.85
534.933	19102.26
535.139	18412.09
535.345	18473.53
535.552	18760.25
535.758	18723.38
535.965	18700.86
536.171	18635.32
536.377	18977.33
536.584	19286.58
536.79	18661.94
536.996	18905.65
537.203	19247.66
537.409	19116.59
537.615	18917.94
537.821	18797.11
538.028	19448.36
538.234	19507.76
538.44	19049.01
538.646	19073.59
538.853	19477.04
539.059	19143.22
539.265	19397.17
539.471	18995.76
539.677	19485.23
539.883	19612.2
540.09	19366.45
540.296	19946.02
540.502	19538.48
540.708	19638.83
540.914	19827.24
541.12	19317.29
541.326	20349.47
541.532	20056.61
541.738	19704.36
541.944	19837.48
542.15	20544.03
542.356	20040.23
542.562	19857.96
542.768	20005.41
542.974	20748.82
543.18	20824.6
543.386	19952.16
543.592	20042.28
543.798	20883.99
544.004	20898.33
544.21	19862.05
544.415	20484.64
544.621	20890.13
544.827	20943.38
545.033	20412.96
545.239	20820.5
545.445	20679.19
545.651	20752.92
545.856	20408.86
546.062	20685.34
546.268	20806.17
546.474	20996.63
546.679	20705.82
546.885	20601.37
547.091	20558.36
547.297	20931.09
547.502	20666.91
547.708	20355.61
547.914	20927
548.119	21121.56
548.325	20691.48
548.531	20568.6
548.736	21400.08
548.942	20824.6
549.147	20763.16
549.353	21500.43
549.559	21525
549.764	21350.93
549.97	20816.41
550.175	21006.87
550.381	21735.95
550.586	21129.75
550.792	21434.89
550.997	21047.83
551.203	21848.58
551.408	22092.29
551.614	21166.61
551.819	21500.43
552.025	22512.13
552.23	22336
552.435	21572.11
552.641	22295.04
552.846	21940.74
553.052	22415.87
553.257	22123.01
553.462	22110.72
553.668	22161.92
553.873	22360.58
554.078	22206.98
554.283	22080
554.489	22368.77
554.694	22362.62
554.899	22114.82
555.105	22317.57
555.31	22657.53
555.515	22561.28
555.72	22618.62
555.925	22344.19
556.131	22800.89
556.336	22413.82
556.541	22426.11
556.746	22630.91
556.951	23167.48
557.156	23106.04
557.361	22725.11
557.567	23077.37
557.772	23454.19
557.977	22927.86
558.182	22823.42
558.387	22682.11
558.592	22796.79
558.797	23405.04
559.002	23224.82
559.207	22991.35
559.412	23081.46
559.617	23450.1
559.822	22985.21
560.027	22835.7
560.232	23314.93
560.437	23474.67
560.642	22974.97
560.847	23151.09
561.051	23200.24
561.256	23593.45
561.461	23235.06
561.666	23036.41
561.871	23466.48
562.076	23480.82
562.281	23493.1
562.485	23073.27
562.69	23931.37
562.895	23716.33
563.1	23355.89
563.305	23345.65
563.509	23826.92
563.714	24089.06
563.919	23591.41
564.123	23484.91
564.328	23828.97
564.533	24095.21
564.737	23534.06
564.942	23611.89
565.147	24226.28
565.351	24467.94
565.556	23507.44
565.761	24052.2
565.965	24048.1
566.17	23669.23
566.374	23742.96
566.579	23876.07
566.784	23808.49
566.988	23941.61
567.193	23843.31
567.397	24103.4
567.602	23826.92
567.806	24285.67
568.011	24267.24
568.215	24117.73
568.42	24138.21
568.624	24340.96
568.828	23919.08
569.033	24291.81
569.237	24510.94
569.442	24938.97
569.646	23890.41
569.85	24492.51
570.055	24590.81
570.259	24695.26
570.463	24547.81
570.668	24371.68
570.872	24713.69
571.076	24996.31
571.281	24857.05
571.485	24605.15
571.689	24637.92
571.893	24988.12
572.098	24809.95
572.302	24699.36
572.506	24797.66
572.71	25012.7
572.914	24703.45
573.119	24789.47
573.323	25446.87
573.527	25461.2
573.731	24941.02
573.935	25055.7
574.139	25172.44
574.343	24828.38
574.547	24924.63
574.751	25299.41
574.955	25731.53
575.159	25917.9
575.364	25117.14
575.568	25223.64
575.772	25209.3
575.976	25629.13
576.18	25209.3
576.383	25268.69
576.587	25743.82
576.791	25418.19
576.995	25094.61
577.199	25340.37
577.403	26112.45
577.607	26026.44
577.811	25428.43
578.015	25508.3
578.219	26264
578.422	26241.48
578.626	25856.46
578.83	25840.08
579.034	26202.57
579.238	26231.24
579.442	25684.43
579.645	26175.94
579.849	26132.93
580.053	26431.94
580.257	25915.85
580.46	25694.67
580.664	26878.4
580.868	26120.65
581.071	26388.93
581.275	26266.05
581.479	26208.71
581.682	26417.6
581.886	26026.44
582.09	26223.05
582.293	27101.62
582.497	26630.59
582.7	26261.96
582.904	26411.46
583.107	26548.67
583.311	26409.41
583.515	26636.73
583.718	26425.79
583.922	26952.12
584.125	27333.04
584.329	26646.97
584.532	26624.45
584.735	27242.93
584.939	26927.55
585.142	26423.75
585.346	26657.21
585.549	27103.67
585.753	27019.71
585.956	26796.48
586.159	27154.87
586.363	27611.57
586.566	27281.85
586.769	26739.13
586.973	26773.95
587.176	27156.92
587.379	27871.66
587.582	27527.6
587.786	27234.74
587.989	27589.04
588.192	28228.01
588.395	27433.39
588.599	27408.82
588.802	27931.05
589.005	27599.28
589.208	27388.34
589.411	27548.08
589.615	27689.39
589.818	28471.71
590.021	27961.77
590.224	27959.72
590.427	27877.8
590.63	27611.57
590.833	27533.75
591.036	27836.84
591.239	28219.81
591.442	27931.05
591.645	28156.33
591.848	27609.52
592.051	28457.38
592.254	28574.11
592.457	28252.58
592.66	28150.18
592.863	28314.02
593.066	28567.97
593.269	28287.4
593.472	28185
593.675	28344.74
593.878	28684.7
594.081	28475.81
594.284	28107.18
594.486	28946.84
594.689	28998.04
594.892	28891.55
595.095	28551.59
595.298	28952.99
595.5	28807.58
595.703	29161.88
595.906	28760.48
596.109	28770.72
596.311	29512.08
596.514	28551.59
596.717	28959.13
596.92	29370.77
597.122	29122.97
597.325	28715.42
597.528	28752.29
597.73	29727.12
597.933	29225.37
598.136	29055.39
598.338	28811.68
598.541	29831.57
598.743	30132.62
598.946	28903.84
599.148	29127.06
599.351	29864.33
599.554	29897.1
599.756	29219.22
599.959	29391.25
600.161	29661.58
600.363	30437.76
600.566	29374.87
600.768	29442.45
600.971	29847.95
601.173	29651.34
601.376	29581.71
601.578	29903.25
601.78	29946.25
601.983	30448
602.185	29677.97
602.388	29995.4
602.59	30146.95
602.792	29852.05
602.995	29655.44
603.197	29409.68
603.399	30321.03
603.601	30144.91
603.804	29512.08
604.006	29944.2
604.208	29796.75
604.41	29606.29
604.613	29768.08
604.815	29495.7
605.017	30738.82
605.219	29886.86
605.421	29782.41
605.623	29866.38
605.826	30677.38
606.028	30503.3
606.23	29847.95
606.432	29680.02
606.634	30595.46
606.836	30949.76
607.038	29845.9
607.24	30210.44
607.442	30124.43
607.644	30595.46
607.846	30417.29
608.048	29909.39
608.25	30486.92
608.452	30329.22
608.654	30198.15
608.856	29698.45
609.058	30443.91
609.26	30566.79
609.462	30261.64
609.664	30476.68
609.866	30658.95
610.067	30558.6
610.269	30525.83
610.471	30175.62
610.673	30486.92
610.875	30882.17
611.077	30169.48
611.278	30374.28
611.48	30464.39
611.682	30839.17
611.884	30620.03
612.085	30460.29
612.287	30605.7
612.489	30658.95
612.69	30179.72
612.892	30525.83
613.094	30900.61
613.295	30597.51
613.497	30183.82
613.699	30820.74
613.9	31013.24
614.102	31420.79
614.304	30376.33
614.505	30232.97
614.707	31000.96
614.908	30620.03
615.11	30282.12
615.311	30644.61
615.513	30876.03
615.714	31017.34
615.916	30327.17
616.117	30450.05
616.319	30718.34
616.52	30908.8
616.722	30534.02
616.923	30849.41
617.124	31263.1
617.326	30790.02
617.527	30798.21
617.729	31033.72
617.93	31232.38
618.131	31261.05
618.333	30716.29
618.534	31023.48
618.735	31017.34
618.937	31140.22
619.138	30546.31
619.339	30751.1
619.54	31121.79
619.742	31011.2
619.943	30798.21
620.144	30812.54
620.345	31330.68
620.546	31127.93
620.748	31191.42
620.949	30574.98
621.15	31259
621.351	30615.94
621.552	30798.21
621.753	30886.27
621.954	30960
622.155	31598.96
622.356	30798.21
622.558	30699.9
622.759	31295.86
622.96	31461.75
623.161	30687.62
623.362	30570.88
623.563	31152.51
623.764	30783.87
623.965	30898.56
624.166	31252.86
624.366	31259
624.567	31379.83
624.768	30876.03
624.969	31013.24
625.17	31345.02
625.371	31353.21
625.572	30669.19
625.773	30921.09
625.973	31678.83
626.174	31719.79
626.375	31148.41
626.576	31263.1
626.777	31482.23
626.977	31859.06
627.178	31551.86
627.379	31093.11
627.58	30970.24
627.78	31656.31
627.981	31058.3
628.182	31367.54
628.382	31611.25
628.583	30904.7
628.784	31234.42
628.984	31043.96
629.185	31646.07
629.386	31578.48
629.586	31807.86
629.787	31523.19
629.987	32168.3
630.188	31850.86
630.388	31660.4
630.589	31224.18
630.79	32362.86
630.99	31893.87
631.191	31875.44
631.391	31641.97
631.591	31969.65
631.792	32246.12
631.992	32002.41
632.193	32084.33
632.393	32190.83
632.594	31584.63
632.794	31336.82
632.994	31779.18
633.195	31885.68
633.395	31900.01
633.595	31857.01
633.796	32176.49
633.996	32135.53
634.196	32438.63
634.397	31887.73
634.597	31744.37
634.797	31983.98
634.997	32555.36
635.198	31879.53
635.398	31537.52
635.598	32059.76
635.798	32336.23
635.998	31940.97
636.199	31641.97
636.399	31910.25
636.599	31953.26
636.799	31887.73
636.999	32260.46
637.199	32336.23
637.399	32608.61
637.599	31893.87
637.799	31691.12
637.999	31998.32
638.199	32522.6
638.399	31711.6
638.599	31881.58
638.799	32282.98
638.999	32770.4
639.199	32205.16
639.399	32336.23
639.599	32885.09
639.799	31852.91
639.999	32377.19
640.199	32141.67
640.399	32477.54
640.599	31797.62
640.799	32500.07
640.998	32430.44
641.198	32506.21
641.398	32319.85
641.598	32545.12
641.798	32356.71
641.997	33591.64
642.197	32248.17
642.397	32459.11
642.597	32510.31
642.796	32743.78
642.996	32903.52
643.196	32473.45
643.395	32250.22
643.595	32481.64
643.795	32528.74
643.994	32471.4
644.194	32604.52
644.394	33012.06
644.593	33130.84
644.793	32567.65
644.992	32645.48
645.192	32817.5
645.392	32127.34
645.591	32418.15
645.791	32633.19
645.99	32852.32
646.19	32788.83
646.389	32577.89
646.589	32887.14
646.788	32909.66
646.987	32928.09
647.187	33403.22
647.386	32983.39
647.586	33249.63
647.785	33464.66
647.984	32840.03
648.184	32768.35
648.383	32794.98
648.582	32733.54
648.782	33044.83
648.981	33018.21
649.18	32706.91
649.38	33044.83
649.579	33044.83
649.778	32682.34
649.977	33237.34
650.177	33327.45
650.376	32872.8
650.575	33032.54
650.774	33505.62
650.973	33005.92
651.173	32551.27
651.372	33001.82
651.571	33134.94
651.77	33562.97
651.969	33313.11
652.168	33069.4
652.367	33010.01
652.566	33161.56
652.765	33460.57
652.964	33440.09
653.163	33644.88
653.362	33483.09
653.561	32911.71
653.76	33427.8
653.959	33065.31
654.158	34214.22
654.357	33470.81
654.556	33296.73
654.755	33614.16
654.954	33778
655.153	33386.84
655.352	33642.84
655.551	33984.85
655.749	33263.96
655.948	33479
656.147	34009.42
656.346	33548.63
656.545	33491.29
656.743	33124.7
656.942	33384.79
657.141	33821.01
657.34	33427.8
657.538	33567.06
657.737	33378.65
657.936	33909.07
658.135	33593.68
658.333	33319.26
658.532	33671.51
658.731	34390.34
658.929	33974.61
659.128	33821.01
659.326	33198.43
659.525	34144.59
659.724	33382.74
659.922	32905.57
660.121	33231.19
660.319	33767.76
660.518	33661.27
660.716	33448.28
660.915	33763.67
661.113	34074.96
661.312	33288.54
661.51	33706.32
661.709	33593.68
661.907	33823.06
662.105	34138.44
662.304	33917.26
662.502	34107.72
662.701	34586.95
662.899	33767.76
663.097	33802.58
663.296	33399.13
663.494	34124.11
663.692	34316.62
663.891	33554.77
664.089	33573.21
664.287	33917.26
664.485	34023.76
664.684	33698.13
664.882	33669.46
665.08	33827.15
665.278	34361.67
665.476	33794.39
665.675	33962.32
665.873	34394.44
666.071	33853.78
666.269	33571.16
666.467	33782.1
666.665	34320.71
666.863	34165.07
667.061	33753.43
667.259	33569.11
667.457	33718.61
667.655	33853.78
667.853	33495.38
668.051	33759.57
668.249	33493.33
668.447	34191.69
668.645	33270.11
668.843	34222.41
669.041	34246.99
669.239	33567.06
669.437	33859.92
669.635	33800.53
669.833	33821.01
670.031	33896.78
670.229	33595.73
670.426	33724.75
670.624	33714.51
670.822	33605.97
671.02	33620.31
671.218	34064.72
671.415	33440.09
671.613	33603.92
671.811	33620.31
672.009	33984.85
672.206	34179.4
672.404	33577.3
672.602	33788.24
672.799	33595.73
672.997	34136.4
673.195	34128.2
673.392	33612.12
673.59	33403.22
673.788	33687.89
673.985	32866.66
674.183	33892.69
674.38	33495.38
674.578	33538.39
674.775	33220.95
674.973	33329.5
675.17	33839.44
675.368	33802.58
675.565	33984.85
675.763	33333.59
675.96	33216.86
676.158	33767.76
676.355	33001.82
676.553	33263.96
676.75	33186.14
676.947	33851.73
677.145	33141.08
677.342	33159.52
677.539	33718.61
677.737	33872.21
677.934	33808.72
678.131	33472.85
678.329	33530.2
678.526	33538.39
678.723	33698.13
678.92	33651.03
679.118	33339.74
679.315	33343.83
679.512	33929.55
679.709	33288.54
679.906	33349.98
680.104	33782.1
680.301	33157.47
680.498	32860.51
680.695	33280.35
680.892	33286.49
681.089	32932.19
681.286	33278.3
681.483	32807.26
681.68	32883.04
681.877	33421.66
682.075	32643.43
682.272	33075.55
682.469	33118.56
682.665	33202.52
682.862	32696.67
683.059	32766.31
683.256	33319.26
683.453	32969.05
683.65	33038.69
683.847	33034.59
684.044	32774.5
684.241	32897.38
684.438	32960.86
684.635	32670.05
684.831	33620.31
685.028	33395.03
685.225	32897.38
685.422	32823.65
685.619	32493.93
685.815	32598.37
686.012	32995.68
686.209	32534.88
686.405	32825.7
686.602	33024.35
686.799	32227.69
686.996	32305.51
687.192	32141.67
687.389	32985.44
687.586	32323.94
687.782	32307.56
687.979	33161.56
688.175	33012.06
688.372	32379.24
688.568	32553.32
688.765	32747.87
688.962	32704.87
689.158	32424.29
689.355	32256.36
689.551	32960.86
689.748	32070
689.944	32366.95
690.14	32239.98
690.337	32754.02
690.533	32760.16
690.73	32184.68
690.926	32242.03
691.123	32485.73
691.319	32381.29
691.515	32119.15
691.712	32432.49
691.908	32469.35
692.104	32563.56
692.301	32272.74
692.497	31793.52
692.693	32627.04
692.889	32590.18
693.086	32039.28
693.282	31707.51
693.478	32369
693.674	32491.88
693.87	32020.84
694.067	31963.5
694.263	32237.93
694.459	32282.98
694.655	32227.69
694.851	32196.97
695.047	32305.51
695.243	32545.12
695.439	31861.1
695.635	31633.78
695.831	32199.02
696.027	32061.8
696.224	31922.54
696.42	32207.21
696.615	32422.25
696.811	32330.09
697.007	31488.37
697.203	31461.75
697.399	31775.09
697.595	32246.12
697.791	31336.82
697.987	31455.61
698.183	31748.46
698.379	31508.85
698.575	31809.9
698.77	31598.96
698.966	31834.48
699.162	32026.99
699.358	31336.82
699.554	31580.53
699.749	32145.77
699.945	31867.25
700.141	31674.74
700.337	31517.04
700.532	31332.73
700.728	31517.04
700.924	31271.29
701.119	31248.76
701.315	31388.02
701.511	31435.13
701.706	31852.91
701.902	30945.66
702.097	31263.1
702.293	31893.87
702.489	31113.59
702.684	31181.18
702.88	31379.83
703.075	31555.96
703.271	31160.7
703.466	31172.99
703.662	31390.07
703.857	31711.6
704.053	31160.7
704.248	31054.2
704.443	31619.44
704.639	31541.62
704.834	31041.92
705.03	31078.78
705.225	31302.01
705.42	31367.54
705.616	31046.01
705.811	30679.43
706.006	30839.17
706.202	31388.02
706.397	31228.28
706.592	30781.82
706.787	31013.24
706.983	31140.22
707.178	31342.97
707.373	31193.47
707.568	30914.94
707.763	31471.99
707.959	31005.05
708.154	30904.7
708.349	30882.17
708.544	31555.96
708.739	30767.49
708.934	30454.15
709.129	31185.27
709.324	30814.59
709.519	30525.83
709.714	30710.14
709.909	31428.98
710.104	31009.15
710.299	30597.51
710.494	30564.74
710.689	30972.28
710.884	30650.75
711.079	31048.06
711.274	30900.61
711.469	31330.68
711.664	30560.64
711.859	30822.78
712.054	30605.7
712.249	30630.27
712.443	31140.22
712.638	30822.78
712.833	30640.51
713.028	31093.11
713.223	30599.55
713.417	31105.4
713.612	30531.97
713.807	31197.56
714.002	31418.74
714.196	30910.85
714.391	30433.67
714.586	30841.21
714.78	30636.42
714.975	30325.13
715.17	29882.77
715.364	30523.78
715.559	30900.61
715.754	29983.12
715.948	30116.23
716.143	30876.03
716.337	30570.88
716.532	30392.71
716.726	29862.29
716.921	30560.64
717.115	30968.19
717.31	30126.47
717.504	30919.04
717.699	30380.42
717.893	30753.15
718.088	30034.32
718.282	30091.66
718.476	30239.11
718.671	29936.01
718.865	29497.75
719.059	30046.6
719.254	29905.29
719.448	30407.05
719.642	30161.29
719.837	29596.05
720.031	30458.24
720.225	29927.82
720.419	29852.05
720.614	29682.06
720.808	30405
721.002	29815.18
721.196	29583.76
721.39	29782.41
721.585	30036.36
721.779	29751.7
721.973	29444.5
722.167	29196.7
722.361	29815.18
722.555	29983.12
722.749	29319.57
722.943	29645.2
723.137	29489.56
723.331	29938.06
723.525	29467.03
723.719	29706.64
723.913	29794.7
724.107	29964.68
724.301	29331.86
724.495	29772.18
724.689	29827.47
724.883	29550.99
725.077	29344.15
725.271	29507.99
725.465	29415.83
725.659	29198.74
725.853	29524.37
726.046	28909.98
726.24	28887.45
726.434	29540.75
726.628	29258.13
726.822	29174.17
727.015	30108.04
727.209	29528.47
727.403	29280.66
727.596	29137.3
727.79	29608.34
727.984	29929.87
728.177	29206.94
728.371	29553.04
728.565	29647.25
728.758	29129.11
728.952	28973.47
729.146	29172.12
729.339	29733.26
729.533	29471.12
729.726	29061.53
729.92	29280.66
730.113	29845.9
730.307	29395.35
730.5	29153.69
730.694	29114.78
730.887	29297.05
731.081	29522.32
731.274	29092.25
731.468	28830.11
731.661	29077.91
731.854	29065.63
732.048	28969.37
732.241	29059.48
732.435	29411.73
732.628	29495.7
732.821	29407.64
733.014	29034.91
733.208	29333.91
733.401	29620.63
733.594	29000.09
733.788	28981.66
733.981	29417.88
734.174	29399.44
734.367	28977.56
734.56	29557.14
734.754	29333.91
734.947	29415.83
735.14	29057.43
735.333	29176.22
735.526	29424.02
735.719	29163.93
735.912	28883.36
736.105	28656.03
736.298	29309.33
736.491	29553.04
736.684	28815.77
736.877	28717.47
737.07	29034.91
737.263	29137.3
737.456	28963.23
737.649	29020.57
737.842	29024.67
738.035	29200.79
738.228	28758.43
738.421	28881.31
738.614	29129.11
738.807	29407.64
739	28625.31
739.192	28500.39
739.385	29016.47
739.578	28748.19
739.771	28993.95
739.964	28404.13
740.156	29075.87
740.349	28817.82
740.542	29303.19
740.735	28502.43
740.927	28498.34
741.12	28553.63
741.313	28262.82
741.505	28791.2
741.698	28475.81
741.891	28787.1
742.083	28223.91
742.276	28586.4
742.468	28850.59
742.661	28752.29
742.854	28107.18
743.046	28414.37
743.239	28813.73
743.431	28737.95
743.624	28311.97
743.816	27949.48
744.009	28764.57
744.201	28643.74
744.393	28541.35
744.586	27847.08
744.778	28705.18
744.971	28246.44
745.163	28354.98
745.355	28326.31
745.548	28688.8
745.74	28451.24
745.932	28701.09
746.125	28082.6
746.317	29233.56
746.509	28406.18
746.702	28518.82
746.894	28268.97
747.086	28187.05
747.278	28477.86
747.471	28291.49
747.663	27994.54
747.855	28318.12
748.047	28744.09
748.239	28291.49
748.431	28359.08
748.623	28914.08
748.815	28768.67
749.008	28137.9
749.2	28144.04
749.392	28217.77
749.584	28135.85
749.776	28029.35
749.968	28332.45
750.16	28623.26
750.352	28103.08
750.544	28141.99
750.736	28174.76
750.928	28250.53
751.12	28174.76
751.311	27916.72
751.503	28223.91
751.695	28285.35
751.887	27830.7
752.079	27478.45
752.271	27718.06
752.463	28807.58
752.654	28189.1
752.846	27718.06
753.038	27683.25
753.23	27742.64
753.421	28070.31
753.613	27816.36
753.805	27953.58
753.997	27824.56
754.188	28139.94
754.38	27535.79
754.572	27730.35
754.763	27752.88
754.955	28137.9
755.146	27656.62
755.338	27310.52
755.53	27623.86
755.721	27730.35
755.913	27384.24
756.104	27390.39
756.296	27306.42
756.487	27992.49
756.679	27394.48
756.87	27206.07
757.062	27054.52
757.253	27693.49
757.445	27054.52
757.636	27562.42
757.827	27419.06
758.019	28015.02
758.21	27128.25
758.401	27359.67
758.593	27673.01
758.784	27490.74
758.975	26958.27
759.167	26911.16
759.358	27627.95
759.549	27455.92
759.74	26968.51
759.932	26874.3
760.123	27181.49
760.314	27136.44
760.505	26962.36
760.696	26438.08
760.888	27558.32
761.079	26870.2
761.27	26692.03
761.461	26665.41
761.652	27095.48
761.843	26808.76
762.034	26638.78
762.225	26337.73
762.416	26796.48
762.607	26673.6
762.798	26116.55
762.989	26444.23
763.18	27441.59
763.371	26071.5
763.562	26345.92
763.753	26325.44
763.944	27066.81
764.135	26542.53
764.326	26710.46
764.517	26196.42
764.708	26556.86
764.899	26458.56
765.089	25723.34
765.28	25926.09
765.471	26237.38
765.662	26071.5
765.853	25942.47
766.043	25573.84
766.234	26073.54
766.425	26296.77
766.615	25801.16
766.806	25760.2
766.997	26339.78
767.187	25997.77
767.378	25743.82
767.569	25377.23
767.759	25971.15
767.95	25868.75
768.141	25659.85
768.331	25618.89
768.522	25786.83
768.712	26065.35
768.903	25633.23
769.093	25211.35
769.284	25975.24
769.474	25453.01
769.665	25051.61
769.855	25240.02
770.046	25706.96
770.236	25201.11
770.426	25467.34
770.617	25422.29
770.807	25483.73
770.998	25389.52
771.188	25344.47
771.378	25037.27
771.569	25618.89
771.759	25293.27
771.949	24984.02
772.139	25106.9
772.33	24959.45
772.52	25729.48
772.71	24539.61
772.9	24949.21
773.09	25410
773.281	25743.82
773.471	24504.8
773.661	25096.66
773.851	25135.57
774.041	24957.4
774.231	24715.74
774.421	24873.43
774.611	25237.97
774.802	25033.18
774.992	24478.18
775.182	24406.5
775.372	24467.94
775.562	24852.95
775.752	24682.97
775.942	24674.78
776.131	25121.24
776.321	24480.22
776.511	24340.96
776.701	24084.97
776.891	24443.36
777.081	24007.14
777.271	23974.38
777.461	24046.05
777.651	24660.45
777.84	24701.4
778.03	23824.87
778.22	23904.74
778.41	24596.96
778.599	23855.59
778.789	23970.28
778.979	23951.85
779.169	24418.78
779.358	24152.55
779.548	24424.93
779.738	23550.45
779.927	24105.45
780.117	24007.14
780.307	23446
780.496	23656.94
780.686	23980.52
780.875	24347.11
781.065	23452.14
781.254	23566.83
781.444	23615.98
781.633	23706.09
781.823	23253.49
782.012	23155.19
782.202	23536.11
782.391	23648.75
782.581	23136.76
782.77	23593.45
782.96	23785.96
783.149	23069.17
783.338	22995.45
783.528	23005.69
783.717	23761.39
783.906	23476.72
784.096	23288.31
784.285	23378.42
784.474	22858.23
784.663	23435.76
784.853	22911.48
785.042	23044.6
785.231	23149.04
785.42	23828.97
785.61	22880.76
785.799	22866.42
785.988	22784.51
786.177	22919.67
786.366	22649.34
786.555	22991.35
786.744	22927.86
786.933	23099.89
787.122	22612.48
787.312	22647.29
787.501	22843.9
787.69	23216.63
787.879	22919.67
788.068	22368.77
788.257	22479.36
788.445	22489.6
788.634	22475.26
788.823	22166.02
789.012	23308.79
789.201	23290.35
789.39	22315.52
789.579	22503.93
789.768	22342.14
789.957	22532.61
790.145	22256.13
790.334	21969.41
790.523	22204.93
790.712	22454.78
790.9	22096.39
791.089	21944.84
791.278	22565.37
791.467	22100.48
791.655	22192.64
791.844	22630.91
792.033	22256.13
792.221	21916.17
792.41	21953.03
792.599	21633.55
792.787	22336
792.976	22462.97
793.164	21776.91
793.353	21936.65
793.541	22194.69
793.73	22256.13
793.918	22104.58
794.107	21893.64
794.295	22256.13
794.484	21852.68
794.672	21889.54
794.861	21633.55
795.049	21920.26
795.238	22145.54
795.426	21805.58
795.614	21709.32
795.803	21793.29
795.991	22043.14
796.179	21547.53
796.368	21539.34
796.556	22163.97
796.744	21500.43
796.932	21570.06
797.121	21463.57
797.309	21637.64
797.497	22047.24
797.685	21668.36
797.874	21279.25
798.062	21692.94
798.25	22012.42
798.438	21563.92
798.626	21301.78
798.814	21813.77
799.002	22321.66
799.19	21367.31
799.378	21264.91
799.566	21686.79
799.755	21985.8
799.943	21590.54
800.131	21455.37
800.318	21496.33
800.506	21537.29
800.694	21152.27
800.882	21256.72
801.07	22137.35
801.258	21238.29
801.446	21260.82
801.634	21240.34
801.822	21559.82
802.01	21598.73
802.197	21266.96
802.385	21484.05
802.573	21721.61
802.761	21580.3
802.949	21461.52
803.136	21484.05
803.324	21801.48
803.512	21883.4
803.699	21570.06
803.887	21250.58
804.075	21838.34
804.262	21398.03
804.45	21252.63
804.638	21350.93
804.825	21684.75
805.013	21291.54
805.201	21576.2
805.388	21129.75
805.576	21445.13
805.763	22049.28
805.951	21133.84
806.138	21510.67
806.326	22012.42
806.513	21932.55
806.701	21541.39
806.888	21557.77
807.075	21879.3
807.263	21899.78
807.45	21445.13
807.638	21598.73
807.825	22364.67
808.012	21768.71
808.2	21488.14
808.387	21981.7
808.574	22376.96
808.761	21979.65
808.949	21604.88
809.136	21778.95
809.323	22024.71
809.51	22170.12
809.698	21811.72
809.885	21621.26
810.072	22153.73
810.259	22008.33
810.446	21604.88
810.633	21666.31
810.82	22405.63
811.008	22397.44
811.195	21854.73
811.382	21836.3
811.569	22241.79
811.756	21606.92
811.943	22018.57
812.13	21641.74
812.317	21600.78
812.504	21965.32
812.691	22141.44
812.878	21934.6
813.064	22301.19
813.251	22084.1
813.438	21869.06
813.625	21791.24
813.812	21844.49
813.999	22051.33
814.186	21539.34
814.372	21672.46
814.559	21840.39
814.746	22366.72
814.933	21731.85
815.12	22043.14
815.306	22196.74
815.493	22034.95
815.68	21969.41
815.866	21688.84
816.053	22518.27
816.24	22376.96
816.426	21936.65
816.613	21729.8
816.799	22133.25
816.986	22426.11
817.173	21623.31
817.359	21639.69
817.546	21893.64
817.732	21461.52
817.919	21594.64
818.105	21953.03
818.292	21846.54
818.478	22299.14
818.665	21842.44
818.851	21615.12
819.037	22254.08
819.224	21877.26
819.41	21209.62
819.597	21123.6
819.783	22059.52
819.969	21918.21
820.156	21924.36
820.342	21277.2
820.528	22653.44
820.714	21709.32
820.901	21801.48
821.087	21496.33
821.273	22178.31
821.459	21883.4
821.646	21387.79
821.832	21260.82
822.018	21602.83
822.204	21582.35
822.39	21314.06
822.576	20990.49
822.762	21617.16
822.948	21389.84
823.134	21357.07
823.32	21023.25
823.507	21021.2
823.693	21402.13
823.879	21230.1
824.065	21004.82
824.25	21502.48
824.436	21013.01
824.622	21451.28
824.808	20820.5
824.994	21213.71
825.18	20916.76
825.366	20658.71
825.552	20851.22
825.738	21109.27
825.923	21520.91
826.109	21115.41
826.295	20732.44
826.481	20873.75
826.667	21180.95
826.852	20775.45
827.038	20650.52
827.224	21346.83
827.409	21488.14
827.595	20824.6
827.781	21013.01
827.966	21240.34
828.152	21482
828.338	21076.5
828.523	20410.91
828.709	20875.8
828.894	21258.77
829.08	20820.5
829.266	20410.91
829.451	20372
829.637	21023.25
829.822	20564.51
830.008	20693.53
830.193	20814.36
830.378	21211.67
830.564	20615.71
830.749	20161.06
830.935	20873.75
831.12	20603.42
831.305	20236.83
831.491	20345.37
831.676	20242.98
831.861	20568.6
832.047	20113.95
832.232	20210.21
832.417	20673.05
832.602	20384.29
832.788	20120.1
832.973	20120.1
833.158	20410.91
833.343	20367.9
833.528	20388.38
833.714	20234.78
833.899	20632.09
834.084	20689.43
834.269	20455.97
834.454	20038.18
834.639	20152.87
834.824	20214.3
835.009	20257.31
835.194	20023.84
835.379	20380.19
835.564	20298.27
835.749	19794.47
835.934	19561
836.119	20210.21
836.304	20073
836.489	19554.86
836.674	19915.3
836.859	19653.16
837.044	20165.15
837.228	19851.81
837.413	19597.87
837.598	19964.45
837.783	20111.91
837.968	19470.89
838.152	19296.81
838.337	19591.72
838.522	20099.62
838.707	20113.95
838.891	19696.17
839.076	19388.97
839.261	19976.74
839.445	19337.77
839.63	19305.01
839.815	19542.57
839.999	19405.36
840.184	19024.44
840.368	19006
840.553	19503.66
840.737	19540.52
840.922	19094.07
841.106	19274.29
841.291	19032.63
841.475	19282.48
841.66	18899.51
841.844	18840.12
842.029	19913.25
842.213	18891.32
842.397	18752.06
842.582	18715.19
842.766	19466.8
842.951	19474.99
843.135	18876.98
843.319	18727.48
843.504	19239.47
843.688	19728.94
843.872	18604.6
844.056	18944.56
844.241	19196.46
844.425	18934.32
844.609	18997.81
844.793	18715.19
844.977	19227.18
845.161	18997.81
845.346	18424.38
845.53	18668.09
845.714	19028.53
845.898	19253.81
846.082	18434.62
846.266	18745.91
846.45	18440.76
846.634	18637.37
846.818	18451
847.002	18635.32
847.186	18971.19
847.37	18485.82
847.554	18164.29
847.738	18354.75
847.922	18670.14
848.106	18666.04
848.29	17881.67
848.473	18184.77
848.657	18385.47
848.841	18383.42
849.025	17846.85
849.209	17640.01
849.392	18418.24
849.576	18375.23
849.76	17912.39
849.944	18035.27
850.127	18762.3
850.311	18010.69
850.495	17846.85
850.678	17676.87
850.862	18565.69
851.046	18707
851.229	18135.62
851.413	17650.25
851.596	18092.61
851.78	18043.46
851.964	18166.34
852.147	17840.71
852.331	18670.14
852.514	18289.21
852.698	17988.16
852.881	17418.83
853.065	18268.73
853.248	17920.58
853.431	17461.83
853.615	17531.47
853.798	18082.37
853.982	17967.68
854.165	17629.77
854.348	17427.02
854.532	17697.35
854.715	17779.27
854.898	17431.12
855.081	17449.55
855.265	17660.49
855.448	17715.78
855.631	17023.57
855.814	17279.57
855.997	17703.5
856.181	17508.94
856.364	17621.58
856.547	17103.44
856.73	17201.74
856.913	17168.98
857.096	16773.72
857.279	17185.36
857.462	17308.24
857.645	17437.26
857.828	17257.04
858.011	17238.61
858.194	17054.29
858.377	17285.71
858.56	16646.74
858.743	17093.2
858.926	16921.17
859.109	17281.61
859.292	17177.17
859.475	16644.7
859.658	17232.46
859.841	17107.54
860.023	16349.79
860.206	16552.54
860.389	16915.03
860.572	17146.45
860.755	16634.46
860.937	16599.64
861.12	16886.36
861.303	16869.97
861.486	16829.01
861.668	16532.06
861.851	16976.47
862.034	16810.58
862.216	16609.88
862.399	16056.93
862.581	16603.74
862.764	16935.51
862.947	16351.84
863.129	16286.3
863.312	16114.27
863.494	16849.49
863.677	16042.59
863.859	15919.71
864.042	16656.98
864.224	16546.39
864.406	16093.79
864.589	15608.42
864.771	16314.97
864.954	15878.76
865.136	15774.31
865.318	15952.48
865.501	16044.64
865.683	15737.45
865.865	15784.55
866.048	15770.21
866.23	15997.54
866.412	16208.48
866.594	15843.94
866.777	15858.28
866.959	16366.17
867.141	15981.15
867.323	15932
867.505	15831.65
867.687	15897.19
867.869	15952.48
868.052	15727.21
868.234	15604.33
868.416	15778.4
868.598	16183.9
868.78	15485.55
868.962	15843.94
869.144	15868.52
869.326	16126.56
869.508	15616.62
869.69	15252.08
869.872	15653.48
870.054	16196.19
870.236	15458.92
870.417	15307.37
870.599	15698.53
870.781	16128.61
870.963	15843.94
871.145	15403.63
871.327	15549.03
871.508	15905.38
871.69	15200.88
871.872	15348.33
872.054	15661.67
872.235	15596.14
872.417	15446.63
872.599	15245.93
872.78	16054.88
872.962	15606.38
873.144	15078
873.325	15004.27
873.507	15958.63
873.689	15739.49
873.87	15182.45
874.052	15684.2
874.233	15712.87
874.415	15776.36
874.596	15108.72
874.778	15196.78
874.959	15520.36
875.141	15954.53
875.322	15391.34
875.503	15305.32
875.685	15983.2
875.866	15151.73
876.048	15452.78
876.229	15288.94
876.41	15698.53
876.592	15780.45
876.773	15313.52
876.954	15186.54
877.136	16056.93
877.317	15659.62
877.498	15413.87
877.679	15155.82
877.86	15682.15
878.042	15571.56
878.223	15528.55
878.404	15551.08
878.585	15888.99
878.766	16077.41
878.947	15737.45
879.128	15381.1
879.309	15700.58
879.49	15909.47
879.672	15551.08
879.853	15385.19
880.034	15622.76
880.215	15757.92
880.396	15546.98
880.576	15741.54
880.757	15755.88
880.938	16097.89
881.119	15671.91
881.3	15561.32
881.481	15524.46
881.662	16691.8
881.843	15647.33
882.023	15575.66
882.204	16024.16
882.385	16142.94
882.566	15858.28
882.747	15968.87
882.927	16319.07
883.108	16112.22
883.289	15802.98
883.469	16052.83
883.65	15952.48
883.831	16153.18
884.011	15950.43
884.192	15882.85
884.373	16585.3
884.553	16214.62
884.734	16220.77
884.914	16478.81
885.095	16699.99
885.275	16628.31
885.456	16327.26
885.636	15802.98
885.817	16366.17
885.997	16376.41
886.178	16013.92
886.358	16099.94
886.538	16341.6
886.719	17504.84
886.899	15995.49
887.08	16269.92
887.26	16722.52
887.44	16347.74
887.621	16071.26
887.801	16093.79
887.981	17199.69
888.161	16587.35
888.342	16409.18
888.522	16448.09
888.702	16659.03
888.882	16949.84
889.062	16415.32
889.242	16206.43
889.423	16972.37
889.603	16855.64
889.783	16740.95
889.963	16667.22
890.143	16869.97
890.323	16988.75
890.503	16544.34
890.683	16218.72
890.863	16280.16
891.043	16661.08
891.223	16495.19
891.403	16429.66
891.583	16497.24
891.763	16855.64
891.943	16370.27
892.122	16380.51
892.302	16656.98
892.482	16648.79
892.662	16718.42
892.842	16439.9
893.022	16564.82
893.201	16683.61
893.381	16415.32
893.561	16271.97
893.741	17033.81
893.92	16581.21
894.1	16487
894.28	16286.3
894.459	16714.33
894.639	16878.16
894.819	16155.23
894.998	16630.36
895.178	16489.05
895.357	16450.14
895.537	16085.6
895.716	15970.91
895.896	16454.23
896.075	16779.86
896.255	16192.09
896.434	16140.9
896.614	16851.54
896.793	16458.33
896.973	16079.46
897.152	16032.35
897.331	16435.8
897.511	16595.54
897.69	15751.78
897.87	16206.43
898.049	16366.17
898.228	16398.94
898.407	15960.67
898.587	16036.45
898.766	15989.35
898.945	16018.02
899.124	15940.19
899.304	15868.52
899.483	15964.77
899.662	16304.73
899.841	15440.49
900.02	15606.38
900.199	15995.49
900.378	15776.36
900.557	15473.26
900.737	15303.28
900.916	15426.15
901.095	15483.5
901.274	15313.52
901.453	15166.06
901.632	15282.8
901.811	15325.8
901.989	14826.1
902.168	15225.45
902.347	15549.03
902.526	14942.83
902.705	14854.77
902.884	14957.17
903.063	15690.34
903.242	15733.35
903.42	14672.5
903.599	15196.78
903.778	15284.84
903.957	15239.79
904.135	14772.85
904.314	14594.68
904.493	14801.52
904.672	14678.65
904.85	14697.08
905.029	14453.37
905.207	14297.72
905.386	15204.97
905.565	14025.34
905.743	14025.34
905.922	14021.25
906.1	14451.32
906.279	13851.27
906.457	13724.29
906.636	13908.61
906.814	13873.79
906.993	13576.84
907.171	13582.98
907.35	14047.87
907.528	13982.34
907.707	13693.57
907.885	13396.62
908.063	14305.92
908.242	13351.56
908.42	12913.3
908.598	13013.65
908.777	13441.67
908.955	13542.02
909.133	13415.05
909.311	13017.74
909.49	13482.63
909.668	13447.82
909.846	13464.2
910.024	13216.4
910.202	13611.65
910.38	13914.75
910.559	13322.89
910.737	13423.24
910.915	13785.73
911.093	13660.8
911.271	13845.12
911.449	13857.41
911.627	14097.02
911.805	14287.48
911.983	13658.76
912.161	13578.89
912.339	14086.78
912.517	14054.01
912.695	13836.93
912.872	13752.96
913.05	13849.22
913.228	14172.8
913.406	13998.72
913.584	13881.99
913.762	14226.04
913.939	14109.31
914.117	13929.09
914.295	13857.41
914.473	14240.38
914.65	14353.02
914.828	13900.42
915.006	13746.82
915.184	13849.22
915.361	14049.92
915.539	13898.37
915.716	13984.38
915.894	14049.92
916.072	14164.61
916.249	14037.63
916.427	13965.95
916.604	13566.6
916.782	13963.9
916.959	13253.26
917.137	13550.21
917.314	13984.38
917.492	13693.57
917.669	13742.72
917.847	13159.05
918.024	13638.28
918.201	13636.23
918.379	13398.66
918.556	13535.88
918.733	13851.27
918.911	13804.16
919.088	13544.07
919.265	13197.96
919.442	13871.75
919.62	13453.96
919.797	13271.69
919.974	13247.12
920.151	13316.75
920.328	13589.13
920.506	13070.99
920.683	13585.03
920.86	13154.96
921.037	13204.11
921.214	12960.4
921.391	13245.07
921.568	13320.84
921.745	13034.13
921.922	13093.52
922.099	12794.51
922.276	13636.23
922.453	13408.9
922.63	12913.3
922.807	13042.32
922.984	13257.36
923.161	12968.59
923.338	13179.53
923.514	12649.11
923.691	13073.04
923.868	13257.36
924.045	12499.61
924.222	12657.3
924.399	13146.76
924.575	13253.26
924.752	12567.19
924.929	12524.18
925.105	12925.58
925.282	12520.09
925.459	12747.41
925.635	12663.44
925.812	12642.96
925.989	12694.16
926.165	12458.65
926.342	12327.58
926.518	12151.45
926.695	12458.65
926.871	12298.91
927.048	12006.05
927.224	12563.09
927.401	12403.35
927.577	12128.92
927.754	11866.78
927.93	12620.44
928.107	12409.5
928.283	11823.78
928.459	12114.59
928.636	12509.85
928.812	12182.17
928.988	11932.32
929.165	11655.84
929.341	11952.8
929.517	12206.75
929.693	12239.51
929.87	11608.74
930.046	11858.59
930.222	11416.23
930.398	11367.08
930.574	11582.12
930.751	11498.15
930.927	11395.75
931.103	11502.25
931.279	11109.04
931.455	11322.02
931.631	11391.66
931.807	11068.08
931.983	11119.28
932.159	10767.03
932.335	11244.2
932.511	11170.47
932.687	10939.05
932.863	11219.63
933.039	10853.04
933.215	10642.1
933.391	10574.52
933.566	10801.84
933.742	10683.06
933.918	10431.16
934.094	10326.71
934.27	10289.85
934.445	10357.43
934.621	10457.78
934.797	9745.09
934.973	10318.52
935.148	10265.27
935.324	9493.19
935.5	9495.24
935.675	9759.42
935.851	9859.77
936.027	9454.28
936.202	9497.28
936.378	9550.53
936.553	9167.56
936.729	9284.3
936.904	8710.86
937.08	8702.67
937.255	8555.22
937.431	8495.83
937.606	8319.7
937.782	8278.74
937.957	8303.32
938.133	8092.38
938.308	7645.92
938.483	8035.03
938.659	7682.78
938.834	7824.09
939.009	7217.9
939.185	7451.36
939.36	7367.4
939.535	6779.63
939.71	7320.29
939.886	7566.05
940.061	7422.69
940.236	7099.11
940.411	6865.64
940.586	7246.57
940.761	7052.01
940.937	6802.16
941.112	6603.5
941.287	6918.89
941.462	6736.62
941.637	6378.23
941.812	6494.96
941.987	6593.26
942.162	6513.39
942.337	6494.96
942.512	6230.77
942.687	6716.14
942.862	6605.55
943.037	5907.2
943.212	5860.09
943.386	6296.31
943.561	6365.94
943.736	6163.19
943.911	6492.91
944.086	6505.2
944.26	6318.84
944.435	5962.49
944.61	5982.97
944.785	6408.95
944.959	6570.74
945.134	5888.76
945.309	6017.79
945.483	6005.5
945.658	6316.79
945.833	5708.54
946.007	6032.12
946.182	6636.27
946.357	5933.82
946.531	6116.09
946.706	6034.17
946.88	5939.96
947.055	6296.31
947.229	6118.14
947.404	5948.15
947.578	6458.1
947.752	6138.62
947.927	6042.36
948.101	6013.69
948.276	6394.61
948.45	6417.14
948.624	6372.08
948.799	6232.82
948.973	6576.88
949.147	6152.95
949.321	6265.59
949.496	6224.63
949.67	6695.66
949.844	6415.09
950.018	6441.72
950.193	6277.88
950.367	6966
950.541	6523.63
950.715	6499.06
950.889	6664.94
951.063	6615.79
951.237	6730.48
951.411	6316.79
951.585	6320.88
951.759	6910.7
951.933	6648.56
952.107	6570.74
952.281	6802.16
952.455	7103.21
952.629	6779.63
952.803	6583.02
952.977	6378.23
953.151	6861.55
953.325	7129.83
953.499	6849.26
953.672	6447.86
953.846	6671.09
954.02	6644.46
954.194	6515.44
954.368	6597.36
954.541	7166.7
954.715	6515.44
954.889	6970.09
955.062	6632.18
955.236	6890.22
955.41	6839.02
955.583	6961.9
955.757	6599.41
955.93	6908.65
956.104	6570.74
956.278	6791.92
956.451	6730.48
956.625	7068.39
956.798	7490.28
956.972	7086.83
957.145	6654.7
957.319	7000.81
957.492	6966
957.665	6959.85
957.839	6843.12
958.012	7138.02
958.185	6918.89
958.359	6828.78
958.532	7058.15
958.705	7230.18
958.879	7271.14
959.052	7082.73
959.225	6568.69
959.398	7162.6
959.572	7095.02
959.745	6793.97
959.918	7082.73
960.091	6970.09
960.264	7287.53
960.438	6849.26
960.611	6925.04
960.784	7326.44
960.957	7009
961.13	7207.66
961.303	6845.16
961.476	7056.11
961.649	7238.37
961.822	6906.6
961.995	7070.44
962.168	7127.78
962.341	7226.09
962.514	6927.08
962.686	6720.24
962.859	7062.25
963.032	7377.64
963.205	6922.99
963.378	6681.33
963.551	7295.72
963.723	6992.62
963.896	7033.58
964.069	6959.85
964.242	7041.77
964.414	7297.77
964.587	6925.04
964.76	6916.84
964.932	7099.11
965.105	6884.08
965.278	6773.49
965.45	6820.59
965.623	7054.06
965.795	7140.07
965.968	6773.49
966.14	6871.79
966.313	6871.79
966.485	6935.28
966.658	6611.7
966.83	6734.57
967.003	7342.82
967.175	7135.98
967.348	6734.57
967.52	6822.64
967.692	7303.91
967.865	7101.16
968.037	6693.62
968.209	6892.27
968.382	6884.08
968.554	7070.44
968.726	6646.51
968.898	6617.84
969.071	7029.48
969.243	6980.33
969.415	6728.43
969.587	6488.82
969.759	7269.09
969.932	6853.36
970.104	6644.46
970.276	6308.6
970.448	6603.5
970.62	6542.07
970.792	6697.71
970.964	6810.35
971.136	7013.1
971.308	6949.61
971.48	6388.47
971.652	6462.19
971.824	7254.76
971.996	6589.17
972.168	6404.85
972.339	6345.46
972.511	6736.62
972.683	6632.18
972.855	6585.07
973.027	6404.85
973.199	6513.39
973.37	6804.21
973.542	6587.12
973.714	6513.39
973.886	6513.39
974.057	6607.6
974.229	6198.01
974.401	6376.18
974.572	6165.24
974.744	5927.67
974.915	6253.3
975.087	6261.49
975.259	6826.73
975.43	6308.6
975.602	6099.7
975.773	6032.12
975.945	6097.66
976.116	6462.19
976.288	5985.02
976.459	6341.36
976.63	6251.25
976.802	6228.73
976.973	5909.24
977.145	6116.09
977.316	6601.46
977.487	6587.12
977.659	6249.21
977.83	6068.98
978.001	6513.39
978.172	6210.29
978.344	5985.02
978.515	6062.84
978.686	5939.96
978.857	6341.36
979.028	5821.18
979.2	5683.97
979.371	6232.82
979.542	6195.96
979.713	5837.56
979.884	5253.89
980.055	5763.84
980.226	5862.14
980.397	5745.41
980.568	5681.92
980.739	6345.46
980.91	5774.08
981.081	6058.74
981.252	5600
981.423	6101.75
981.594	6181.62
981.765	5632.77
981.936	5909.24
982.106	5896.96
982.277	6021.88
982.448	5600
982.619	5790.46
982.79	5671.68
982.96	6017.79
983.131	5505.79
983.302	5382.92
983.472	5550.85
983.643	5718.78
983.814	5567.23
983.984	5307.14
984.155	5720.83
984.326	5915.39
984.496	5526.27
984.667	5272.32
984.837	5624.58
985.008	5694.21
985.178	5444.35
985.349	5362.44
985.519	5374.72
985.69	5219.08
985.86	5120.78
986.031	5229.32
986.201	5409.54
986.371	5481.22
986.542	5188.36
986.712	5176.07
986.882	5391.11
987.053	5493.51
987.223	5206.79
987.393	5198.6
987.563	5159.69
987.734	5403.39
987.904	5348.1
988.074	5135.11
988.244	5268.23
988.414	5049.1
988.585	4760.33
988.755	5186.31
988.925	5079.82
989.095	5487.36
989.265	4811.53
989.435	4727.57
989.605	5184.26
989.775	5151.49
989.945	5231.37
990.115	4750.09
990.285	5024.52
990.455	5042.95
990.625	4817.68
990.795	4619.02
990.965	5296.9
991.134	4625.17
991.304	4664.08
991.474	4707.09
991.644	4879.11
991.814	5133.06
991.984	4459.28
992.153	4571.92
992.323	4737.81
992.493	4766.48
992.662	4277.01
992.832	4444.95
993.002	4950.79
993.171	4805.39
993.341	4260.63
993.511	4334.36
993.68	4610.83
993.85	4725.52
994.019	4369.17
994.189	4303.64
994.358	4713.23
994.528	4520.72
994.697	4213.53
994.867	4160.28
995.036	4602.64
995.206	4461.33
995.375	4086.55
995.544	4373.27
995.714	4391.7
995.883	4573.97
996.052	4414.23
996.222	3959.58
996.391	4932.36
996.56	4397.84
996.73	4074.26
996.899	4086.55
997.068	4875.02
997.237	4403.99
997.406	3953.43
997.576	3814.17
997.745	4307.73
997.914	4418.32
998.083	3777.31
998.252	3955.48
998.421	4133.65
998.59	3951.39
998.759	3838.75
998.928	3701.53
999.097	4350.74
999.266	4147.99
999.435	3867.42
999.604	3590.94
999.773	4557.58
999.942	4006.68
1000.111	3597.09
1000.28	3646.24
1000.448	3865.37
1000.617	3672.86
1000.786	3666.72
1000.955	3603.23
1001.124	4074.26
1001.292	4537.1
1001.461	3625.76
1001.63	3586.85
1001.798	4215.57
1001.967	4135.7
1002.136	3351.33
1002.304	3523.36
1002.473	3777.31
1002.642	3728.16
1002.81	3515.17
1002.979	3537.7
1003.147	3965.72
1003.316	4219.67
1003.484	3435.3
1003.653	3371.81
1003.821	3947.29
1003.99	3640.09
1004.158	3490.59
1004.327	3515.17
1004.495	3781.4
1004.663	3271.46
1004.832	3423.01
1005	3128.1
1005.168	3629.85
1005.337	3582.75
1005.505	3013.42
1005.673	3375.91
1005.842	3765.02
1006.01	3588.89
1006.178	3078.95
1006.346	3285.8
1006.514	3470.11
1006.683	3636
1006.851	2964.26
1007.019	3148.58
1007.187	3160.87
1007.355	3011.37
1007.523	3003.18
1007.691	2954.02
1007.859	3023.66
1008.027	3633.95
1008.195	3087.14
1008.363	2888.49
1008.531	3531.55
1008.699	3124.01
1008.867	2841.39
1009.035	2939.69
1009.203	3420.96
1009.37	3236.64
1009.538	2835.24
1009.706	3363.62
1009.874	3124.01
1010.042	3029.8
1010.209	2708.27
1010.377	2800.43
1010.545	3330.85
1010.713	3074.85
1010.88	2718.51
1011.048	2726.7
1011.216	2982.7
1011.383	3355.43
1011.551	2728.75
1011.718	2564.91
1011.886	3267.36
1012.054	3076.9
1012.221	2548.53
1012.389	2599.73
1012.556	2790.19
1012.724	3283.75
1012.891	2679.6
1013.058	2427.7
1013.226	2921.26
1013.393	3109.67
1013.561	2325.3
1013.728	2382.64
1013.895	3025.7
1014.063	2954.02
1014.23	2263.86
1014.397	2310.96
1014.565	3001.13
1014.732	2630.45
1014.899	2407.22
1015.066	2413.36
1015.233	2788.14
1015.401	2941.74
1015.568	2493.23
1015.735	2538.29
1015.902	2679.6
1016.069	2634.54
1016.236	2300.72
1016.403	2188.08
1016.57	2378.55
1016.737	2868.01
1016.904	2245.43
1017.071	2108.21
1017.238	2458.42
1017.405	2726.7
1017.572	2196.28
1017.739	2239.28
1017.906	2573.1
1018.073	2616.11
1018.24	1987.38
1018.407	2212.66
1018.573	2720.56
1018.74	2333.49
1018.907	2095.93
1019.074	1975.1
1019.241	2540.33
1019.407	2431.79
1019.574	1946.42
1019.741	1891.13
1019.907	2431.79
1020.074	2417.46
1020.241	1760.06
1020.407	1927.99
1020.574	2358.07
1020.74	2411.31
1020.907	1975.1
1021.073	1774.39
1021.24	2804.52
1021.406	2640.69
1021.573	1860.41
1021.739	1872.7
1021.906	2310.96
1022.072	2120.5
1022.239	1798.97
1022.405	1764.15
1022.571	2157.36
1022.738	1942.33
1022.904	1782.59
1023.07	1856.31
1023.237	2128.69
1023.403	2319.15
1023.569	1770.3
1023.735	1882.94
1023.902	2097.97
1024.068	2153.27
1024.234	1624.89
1024.4	1835.83
1024.566	2151.22
1024.732	2343.73
1024.898	1688.38
1025.065	1504.06
1025.231	2151.22
1025.397	1919.8
1025.563	1692.48
1025.729	1680.19
1025.895	1612.6
1026.061	1831.74
1026.227	1493.82
1026.392	1747.77
1026.558	2155.32
1026.724	1960.76
1026.89	1479.49
1027.056	1614.65
1027.222	1950.52
1027.388	1909.56
1027.553	1497.92
1027.719	1555.26
1027.885	2310.96
1028.051	1995.57
1028.216	1252.16
1028.382	1485.63
1028.548	2077.49
1028.713	1698.62
1028.879	1375.04
1029.045	1684.28
1029.21	2114.36
1029.376	1981.24
1029.541	1571.65
1029.707	1545.02
1029.873	1907.51
1030.038	1942.33
1030.204	1504.06
1030.369	1471.29
1030.534	1964.86
1030.7	1688.38
1030.865	1497.92
1031.031	1264.45
1031.196	1803.07
1031.361	1803.07
1031.527	1217.35
1031.692	1258.31
1031.857	1409.86
1032.023	1823.55
1032.188	1305.41
1032.353	1342.27
1032.518	2087.73
1032.684	1622.84
1032.849	1090.37
1033.014	1504.06
1033.179	1819.45
1033.344	1829.69
1033.509	1291.07
1033.674	1299.27
1033.839	1737.53
1034.004	1794.87
1034.17	1246.02
1034.335	1151.81
1034.5	1547.07
1034.664	1532.73
1034.829	1237.83
1034.994	1207.11
1035.159	1645.37
1035.324	1631.04
1035.489	1237.83
1035.654	1336.13
1035.819	1923.9
1035.984	1602.36
1036.148	1172.29
1036.313	1145.67
1036.478	1739.58
1036.643	1463.1
1036.807	1043.27
1036.972	1080.13
1037.137	1758.01
1037.301	1483.58
1037.466	871.24
1037.631	1215.3
1037.795	1651.52
1037.96	1473.34
1038.124	1186.63
1038.289	936.78
1038.454	1588.03
1038.618	1610.56
1038.783	1106.76
1038.947	1117
1039.111	1487.68
1039.276	1309.51
1039.44	1045.32
1039.605	1538.88
1039.769	1260.35
1039.933	1377.09
1040.098	1112.9
1040.262	1268.55
1040.426	1538.88
1040.591	1581.89
1040.755	940.87
1040.919	916.3
1041.083	1409.86
1041.248	1309.51
1041.412	844.62
1041.576	815.94
1041.74	1291.07
1041.904	1520.45
1042.068	938.82
1042.232	949.06
1042.397	1383.23
1042.561	1403.71
1042.725	779.08
1042.889	1133.38
1043.053	1467.2
1043.217	1368.9
1043.381	932.68
1043.544	633.68
1043.708	1465.15
1043.872	973.64
1044.036	658.25
1044.2	842.57
1044.364	1518.4
1044.528	1536.83
1044.691	2151.22
1044.855	742.22
1045.019	1512.25
1045.183	1307.46
1045.346	926.54
1045.51	752.46
1045.674	1213.25
1045.837	1256.26
1046.001	820.04
1046.165	838.47
1046.328	1704.76
1046.492	1225.54
1046.655	951.11
1046.819	803.66
1046.983	981.83
1047.146	1241.92
1047.31	801.61
1047.473	484.17
1047.636	1119.04
1047.8	967.49
1047.963	740.17
1048.127	621.39
1048.29	981.83
