Data from Hydrogel_Ink_Intensity_Test_1_USB4F045381__45__00045.txt Node

Date: Mon Jul 31 10:47:48 EDT 2023
User: mmckonesweet
Spectrometer: USB4F04538
Trigger mode: 4
Integration Time (sec): 9.000000E-1
Scans to average: 1
Electric dark correction enabled: true
Nonlinearity correction enabled: false
Boxcar width: 0
XAxis mode: Wavelengths
Number of Pixels in Spectrum: 3648
>>>>>Begin Spectral Data<<<<<
345.52	-974.15
345.736	-974.15
345.952	-974.15
346.168	-1006.92
346.384	-951.62
346.6	-148.82
346.816	-232.79
347.032	-263.51
347.248	195.24
347.464	-142.68
347.68	-157.01
347.896	107.18
348.112	332.45
348.328	-9.56
348.544	-42.32
348.76	49.83
348.975	311.97
349.191	-163.15
349.407	-138.58
349.623	90.79
349.839	29.35
350.055	-60.76
350.27	51.88
350.486	193.19
350.702	318.12
350.918	152.23
351.133	-81.24
351.349	246.44
351.565	432.8
351.781	-249.17
351.996	74.41
352.212	340.65
352.428	-54.61
352.644	-173.39
352.859	-265.55
353.075	455.33
353.291	66.22
353.506	-109.91
353.722	-200.02
353.938	-48.47
354.153	492.2
354.369	135.85
354.584	-191.83
354.8	268.97
355.016	-339.28
355.231	-240.98
355.447	-50.52
355.662	152.23
355.878	866.97
356.093	-212.31
356.309	55.98
356.524	-124.24
356.74	187.05
356.955	-132.44
357.171	-17.75
357.386	154.28
357.602	-171.35
357.817	-71
358.033	-109.91
358.248	463.52
358.464	217.77
358.679	-81.24
358.895	-265.55
359.11	82.6
359.325	365.22
359.541	305.83
359.756	51.88
359.972	-222.55
360.187	244.39
360.402	-79.19
360.618	-130.39
360.833	1014.43
361.048	260.77
361.264	-93.52
361.479	-11.61
361.694	70.31
361.909	203.43
362.125	-177.49
362.34	-50.52
362.555	322.21
362.77	123.56
362.986	-195.92
363.201	-103.76
363.416	250.53
363.631	53.93
363.847	-173.39
364.062	-118.1
364.277	250.53
364.492	197.29
364.707	-83.28
364.922	-243.03
365.138	316.07
365.353	441
365.568	-200.02
365.783	-159.06
365.998	187.05
366.213	598.69
366.428	-206.16
366.643	131.75
366.858	365.22
367.073	256.68
367.288	43.69
367.503	-161.11
367.718	209.58
367.933	381.6
368.148	-154.96
368.363	-7.51
368.578	103.08
368.793	510.63
369.008	-73.04
369.223	-208.21
369.438	252.58
369.653	434.85
369.868	-148.82
370.083	-128.34
370.298	225.96
370.513	404.13
370.728	45.74
370.943	-171.35
371.157	-38.23
371.372	590.5
371.587	-183.63
371.802	-140.63
372.017	156.33
372.232	557.73
372.446	68.27
372.661	-146.77
372.876	316.07
373.091	309.93
373.306	-56.66
373.52	-126.29
373.735	-97.62
373.95	436.9
374.165	23.21
374.379	-91.48
374.594	21.16
374.809	187.05
375.023	72.36
375.238	-208.21
375.453	311.97
375.667	-146.77
375.882	-99.67
376.097	-144.72
376.311	115.37
376.526	-7.51
376.741	-109.91
376.955	162.47
377.17	594.59
377.384	508.58
377.599	-30.04
377.813	-257.36
378.028	578.21
378.242	260.77
378.457	51.88
378.672	-204.11
378.886	189.1
379.101	-27.99
379.315	-331.09
379.53	-111.96
379.744	246.44
379.958	293.54
380.173	-85.33
380.387	-46.42
380.602	283.3
380.816	-30.04
381.031	-77.14
381.245	74.41
381.459	338.6
381.674	2767.49
381.888	-120.15
382.103	113.32
382.317	-93.52
382.531	602.79
382.746	45.74
382.96	-66.9
383.174	23.21
383.388	494.24
383.603	219.82
383.817	-212.31
384.031	307.88
384.246	592.55
384.46	127.66
384.674	500.39
384.888	133.8
385.103	238.25
385.317	-161.11
385.531	107.18
385.745	504.48
385.959	481.96
386.174	-56.66
386.388	-251.22
386.602	86.7
386.816	-36.18
387.03	21.16
387.244	39.59
387.458	137.9
387.672	502.44
387.887	-191.83
388.101	-163.15
388.315	426.66
388.529	311.97
388.743	-91.48
388.957	-66.9
389.171	477.86
389.385	-85.33
389.599	21.16
389.813	232.1
390.027	264.87
390.241	832.16
390.455	-34.13
390.669	70.31
390.883	80.55
391.097	572.07
391.311	193.19
391.525	-19.8
391.738	340.65
391.952	195.24
392.166	21.16
392.38	-89.43
392.594	524.96
392.808	457.38
393.022	74.41
393.236	-17.75
393.449	369.32
393.663	375.46
393.877	-148.82
394.091	129.7
394.305	-1.37
394.518	160.42
394.732	-109.91
394.946	39.59
395.16	516.77
395.373	170.66
395.587	-77.14
395.801	21.16
396.015	524.96
396.228	307.88
396.442	-68.95
396.656	-226.64
396.869	488.1
397.083	545.44
397.297	19.11
397.51	68.27
397.724	557.73
397.938	332.45
398.151	-146.77
398.365	-93.52
398.578	449.19
398.792	559.78
399.005	144.04
399.219	25.26
399.433	330.41
399.646	424.61
399.86	205.48
400.073	135.85
400.287	455.33
400.5	256.68
400.714	219.82
400.927	160.42
401.141	379.56
401.354	1254.04
401.567	344.74
401.781	-56.66
401.994	547.49
402.208	848.54
402.421	115.37
402.635	117.42
402.848	232.1
403.061	479.91
403.275	232.1
403.488	-44.37
403.701	805.53
403.915	484
404.128	328.36
404.341	111.27
404.555	465.57
404.768	180.9
404.981	283.3
405.195	60.07
405.408	703.14
405.621	469.67
405.834	213.67
406.048	29.35
406.261	627.36
406.474	719.52
406.687	8.87
406.9	268.97
407.114	383.65
407.327	416.42
407.54	-101.72
407.753	-36.18
407.966	193.19
408.179	473.76
408.392	76.46
408.605	-71
408.819	395.94
409.032	422.56
409.245	96.94
409.458	307.88
409.671	426.66
409.884	688.8
410.097	-36.18
410.31	254.63
410.523	486.05
410.736	271.01
410.949	287.4
411.162	193.19
411.375	764.58
411.588	670.37
411.801	393.89
412.014	109.23
412.227	309.93
412.44	338.6
412.653	115.37
412.865	291.49
413.078	535.2
413.291	469.67
413.504	166.57
413.717	94.89
413.93	527.01
414.143	217.77
414.356	213.67
414.568	-9.56
414.781	537.25
414.994	551.59
415.207	230.06
415.42	191.14
415.632	531.11
415.845	803.49
416.058	37.55
416.271	78.51
416.483	441
416.696	844.45
416.909	185
417.121	76.46
417.334	545.44
417.547	905.88
417.759	178.86
417.972	49.83
418.185	240.3
418.397	633.51
418.61	250.53
418.823	209.58
419.035	811.68
419.248	449.19
419.46	328.36
419.673	338.6
419.885	580.26
420.098	377.51
420.311	240.3
420.523	-44.37
420.736	459.43
420.948	438.95
421.161	154.28
421.373	150.18
421.586	522.91
421.798	201.38
422.01	86.7
422.223	383.65
422.435	365.22
422.648	672.42
422.86	221.86
423.073	221.86
423.285	664.22
423.497	240.3
423.71	236.2
423.922	178.86
424.134	631.46
424.347	727.71
424.559	543.39
424.771	584.35
424.984	418.47
425.196	656.03
425.408	131.75
425.621	156.33
425.833	856.73
426.045	832.16
426.257	207.53
426.47	348.84
426.682	572.07
426.894	594.59
427.106	252.58
427.318	344.74
427.531	357.03
427.743	680.61
427.955	387.75
428.167	723.62
428.379	625.31
428.591	572.07
428.804	432.8
429.016	297.64
429.228	477.86
429.44	658.08
429.652	531.11
429.864	219.82
430.076	559.78
430.288	559.78
430.5	414.37
430.712	389.8
430.924	860.83
431.136	627.36
431.348	203.43
431.56	375.46
431.772	582.31
431.984	553.63
432.196	383.65
432.408	416.42
432.62	520.87
432.832	684.7
433.044	725.66
433.256	496.29
433.468	774.81
433.679	377.51
433.891	299.69
434.103	651.94
434.315	1002.14
434.527	807.58
434.739	600.74
434.95	641.7
435.162	901.79
435.374	584.35
435.586	479.91
435.798	412.32
436.009	365.22
436.221	717.47
436.433	441
436.645	520.87
436.856	494.24
437.068	1016.48
437.28	524.96
437.491	811.68
437.703	907.93
437.915	811.68
438.126	651.94
438.338	811.68
438.55	688.8
438.761	934.56
438.973	520.87
439.184	549.54
439.396	715.42
439.608	897.69
439.819	383.65
440.031	619.17
440.242	944.8
440.454	930.46
440.665	598.69
440.877	621.22
441.088	965.28
441.3	852.64
441.511	416.42
441.723	570.02
441.934	783.01
442.146	844.45
442.357	688.8
442.569	889.5
442.78	821.92
442.991	1221.27
443.203	969.37
443.414	504.48
443.626	1178.26
443.837	610.98
444.048	488.1
444.26	481.96
444.471	838.3
444.682	1174.17
444.894	500.39
445.105	477.86
445.316	1053.34
445.528	991.9
445.739	694.94
445.95	656.03
446.161	930.46
446.373	1106.59
446.584	649.89
446.795	551.59
447.006	1077.91
447.217	1331.86
447.429	606.88
447.64	608.93
447.851	1297.05
448.062	1069.72
448.273	500.39
448.484	637.6
448.695	1008.28
448.907	891.55
449.118	860.83
449.329	862.88
449.54	836.25
449.751	776.86
449.962	694.94
450.173	766.62
450.384	1157.79
450.595	1251.99
450.806	828.06
451.017	699.04
451.228	1313.43
451.439	1258.14
451.65	866.97
451.861	514.72
452.072	869.02
452.283	955.04
452.494	961.18
452.705	746.14
452.915	1395.35
453.126	1057.43
453.337	860.83
453.548	676.51
453.759	1376.92
453.97	1591.95
454.181	1073.82
454.391	889.5
454.602	1184.41
454.813	1374.87
455.024	1008.28
455.235	926.36
455.445	1131.16
455.656	1206.94
455.867	1108.63
456.078	916.12
456.288	1137.31
456.499	1323.67
456.71	969.37
456.921	1208.98
457.131	1168.02
457.342	1161.88
457.553	1059.48
457.763	1063.58
457.974	1442.45
458.184	1348.25
458.395	987.8
458.606	975.52
458.816	1538.71
459.027	1761.94
459.237	1174.17
459.448	918.17
459.659	1491.6
459.869	1714.83
460.08	938.65
460.29	1213.08
460.501	1692.3
460.711	1286.81
460.922	940.7
461.132	1045.15
461.343	1991.31
461.553	967.32
461.764	1135.26
461.974	1075.87
462.184	1559.19
462.395	1448.6
462.605	1254.04
462.816	1018.52
463.026	1485.46
463.236	1770.13
463.447	1178.26
463.657	1241.75
463.867	1704.59
464.078	1507.99
464.288	1350.29
464.498	1397.4
464.709	1440.4
464.919	1518.23
465.129	1356.44
465.339	1200.79
465.55	1839.76
465.76	1923.73
465.97	1346.2
466.18	1413.78
466.391	1893.01
466.601	1768.08
466.811	1608.34
467.021	1323.67
467.231	1841.81
467.441	1979.02
467.651	1602.19
467.862	1335.96
468.072	1864.33
468.282	2204.3
468.492	1540.76
468.702	1743.5
468.912	1870.48
469.122	2474.63
469.332	1974.92
469.542	1604.24
469.752	2169.48
469.962	2060.94
470.172	1675.92
470.382	1606.29
470.592	2206.35
470.802	2378.37
471.012	1946.25
471.222	1856.14
471.432	2435.72
471.642	2325.13
471.852	2071.18
472.062	1860.24
472.272	2165.39
472.482	1987.21
472.691	1835.66
472.901	1780.37
473.111	2318.98
473.321	2894.46
473.531	2015.88
473.741	2167.43
473.95	2423.43
474.16	2521.73
474.37	2353.8
474.58	2048.65
474.79	2873.98
474.999	2738.82
475.209	2175.63
475.419	2284.17
475.628	2560.64
475.838	3039.87
476.048	2466.44
476.258	2329.22
476.467	3050.11
476.677	2624.13
476.886	2642.56
477.096	2630.27
477.306	2648.71
477.515	3134.07
477.725	2568.84
477.935	2779.78
478.144	3261.05
478.354	2728.58
478.563	2728.58
478.773	2617.99
478.982	3168.89
479.192	3562.1
479.401	2833.02
479.611	2642.56
479.82	3027.58
480.03	3218.04
480.239	2890.37
480.449	2984.57
480.658	3574.39
480.868	3175.03
481.077	2992.76
481.287	3089.02
481.496	3547.76
481.705	3801.71
481.915	3404.41
482.124	3408.5
482.333	3469.94
482.543	3881.58
482.752	3302.01
482.961	3175.03
483.171	3744.37
483.38	3574.39
483.589	3551.86
483.799	3506.81
484.008	3592.82
484.217	3805.81
484.426	3535.48
484.636	3527.28
484.845	3852.91
485.054	3539.57
485.263	4049.52
485.472	3664.5
485.682	4338.28
485.891	4121.2
486.1	3619.44
486.309	3910.26
486.518	4170.35
486.727	4387.43
486.936	3715.7
487.146	3912.3
487.355	4434.53
487.564	3869.3
487.773	3826.29
487.982	3998.32
488.191	4043.37
488.4	4100.72
488.609	3957.36
488.818	4133.48
489.027	4887.14
489.236	4733.54
489.445	4461.16
489.654	4031.09
489.863	4655.72
490.072	4561.51
490.281	4612.71
490.49	4430.44
490.698	4913.76
490.907	5116.51
491.116	4465.25
491.325	4334.18
491.534	5114.46
491.743	4842.08
491.952	4649.57
492.16	4616.8
492.369	4915.81
492.578	5036.64
492.787	4692.58
492.996	4498.02
493.204	4803.17
493.413	5429.85
493.622	4553.32
493.831	4426.34
494.039	5423.7
494.248	4760.16
494.457	4993.63
494.665	4704.87
494.874	5329.5
495.083	5720.66
495.291	4995.68
495.5	4897.38
495.709	5538.39
495.917	5315.16
496.126	5225.05
496.335	4985.44
496.543	5130.84
496.752	5438.04
496.96	5460.57
497.169	5020.25
497.377	5263.96
497.586	5829.2
497.794	5354.07
498.003	4938.34
498.211	5401.18
498.42	5874.26
498.628	5333.59
498.837	5352.02
499.045	5780.05
499.254	5718.61
499.462	5288.54
499.671	5411.42
499.879	6038.09
500.087	5945.94
500.296	5571.16
500.504	5522.01
500.713	5995.09
500.921	6482.5
501.129	5657.17
501.338	5390.94
501.546	5909.07
501.754	5964.37
501.962	5427.8
502.171	5626.45
502.379	6042.19
502.587	6511.18
502.795	5835.35
503.004	5718.61
503.212	6058.57
503.42	6224.46
503.628	5704.28
503.837	5878.35
504.045	6218.32
504.253	6615.62
504.461	5945.94
504.669	5743.19
504.877	6427.21
505.085	6689.35
505.294	5714.52
505.502	6095.44
505.71	6300.23
505.918	6685.25
506.126	6003.28
506.334	6009.42
506.542	6345.29
506.75	6562.37
506.958	6195.79
507.166	6122.06
507.374	6441.54
507.582	6838.85
507.79	6398.54
507.998	6216.27
508.206	6529.61
508.414	6545.99
508.622	6271.56
508.83	6320.71
509.037	6947.39
509.245	6478.41
509.453	6238.8
509.661	6308.43
509.869	6904.39
510.077	6453.83
510.285	6580.81
510.492	6034
510.7	7365.18
510.908	6662.73
511.116	6359.63
511.324	6384.2
511.531	6681.16
511.739	6844.99
511.947	6781.51
512.155	6881.86
512.362	6898.24
512.57	6658.63
512.778	6601.29
512.985	6457.93
513.193	7293.5
513.401	7254.59
513.608	6601.29
513.816	6720.07
514.024	7264.83
514.231	7320.12
514.439	6638.15
514.646	6756.93
514.854	7440.95
515.061	7254.59
515.269	6883.91
515.477	7017.02
515.684	7008.83
515.892	7426.62
516.099	6627.91
516.307	6890.05
516.514	7254.59
516.722	7610.93
516.929	6996.54
517.136	7000.64
517.344	7668.28
517.551	7436.86
517.759	6855.23
517.966	7187.01
518.173	7371.32
518.381	7430.71
518.588	7160.38
518.796	7135.81
519.003	7778.87
519.21	7406.14
519.418	7203.39
519.625	7447.1
519.832	7508.54
520.039	7604.79
520.247	7195.2
520.454	7332.41
520.661	7954.99
520.868	7610.93
521.076	7443
521.283	7283.26
521.49	8262.19
521.697	7758.39
521.904	7373.37
522.112	7313.98
522.319	7856.69
522.526	7733.81
522.733	7676.47
522.94	7582.26
523.147	8014.38
523.354	8106.54
523.561	7770.68
523.768	7719.48
523.975	8174.13
524.183	7909.94
524.39	7832.12
524.597	7539.26
524.804	7907.89
525.011	7901.75
525.218	7701.05
525.425	7967.28
525.632	8466.99
525.838	8204.85
526.045	7846.45
526.252	7848.5
526.459	9298.46
526.666	9108
526.873	7897.65
527.08	7961.14
527.287	8696.36
527.494	8395.31
527.701	7991.86
527.907	7934.51
528.114	8522.28
528.321	8258.09
528.528	8075.82
528.735	8227.37
528.941	8192.56
529.148	8458.79
529.355	8284.72
529.562	8077.87
529.768	8817.19
529.975	8245.8
530.182	8149.55
530.388	8180.27
530.595	8690.21
530.802	8067.63
531.008	8512.04
531.215	8397.35
531.422	9386.52
531.628	9374.24
531.835	8350.25
532.042	8321.58
532.248	8765.99
532.455	8786.47
532.661	8505.9
532.868	8430.12
533.074	8950.31
533.281	8915.49
533.487	8821.28
533.694	8444.46
533.9	8852
534.107	8839.72
534.313	8624.68
534.52	8673.83
534.726	9093.66
534.933	9642.52
535.139	8647.21
535.345	8567.34
535.552	8985.12
535.758	9183.77
535.965	8770.08
536.171	8876.58
536.377	9359.9
536.584	9421.34
536.79	8745.51
536.996	9019.94
537.203	9550.36
537.409	9327.13
537.615	9056.8
537.821	9101.86
538.028	9454.11
538.234	9458.2
538.44	9081.38
538.646	9181.73
538.853	9718.29
539.059	9253.41
539.265	9646.62
539.471	8970.79
539.677	9533.98
539.883	9493.02
540.09	9265.69
540.296	9581.08
540.502	9642.52
540.708	9404.96
540.914	9488.92
541.12	9255.45
541.326	9812.5
541.532	9716.25
541.738	9540.12
541.944	9288.22
542.15	10199.57
542.356	9663
542.562	9474.59
542.768	9593.37
542.974	10531.34
543.18	10277.39
543.386	9482.78
543.592	9558.55
543.798	10048.02
544.004	10258.96
544.21	9806.36
544.415	9687.57
544.621	10070.55
544.827	9996.82
545.033	9599.51
545.239	9980.43
545.445	10097.17
545.651	10246.67
545.856	9869.84
546.062	9802.26
546.268	9980.43
546.474	10365.45
546.679	9691.67
546.885	9953.81
547.091	10070.55
547.297	10613.26
547.502	10037.78
547.708	9794.07
547.914	9990.67
548.119	10392.08
548.325	9892.37
548.531	9812.5
548.736	10555.91
548.942	10037.78
549.147	9962
549.353	10203.66
549.559	10711.56
549.764	10361.36
549.97	10088.98
550.175	10058.26
550.381	10613.26
550.586	10121.74
550.792	10019.35
550.997	10113.55
551.203	10670.6
551.408	10732.04
551.614	10150.42
551.819	10222.09
552.025	10893.83
552.23	11239.94
552.435	10150.42
552.641	10615.3
552.846	10609.16
553.052	11069.95
553.257	10652.17
553.462	10519.05
553.668	10605.06
553.873	11059.71
554.078	10480.14
554.283	10578.44
554.489	11035.14
554.694	11018.75
554.899	10461.71
555.105	10828.29
555.31	11026.95
555.515	11010.56
555.72	10785.29
555.925	10560.01
556.131	11174.4
556.336	10777.09
556.541	10830.34
556.746	10600.97
556.951	11338.24
557.156	11356.67
557.361	10932.74
557.567	11024.9
557.772	11608.57
557.977	11426.3
558.182	10756.61
558.387	10975.75
558.592	10988.03
558.797	11710.97
559.002	10818.05
559.207	11284.99
559.412	11272.7
559.617	11549.18
559.822	11055.62
560.027	11086.34
560.232	11260.41
560.437	11356.67
560.642	11086.34
560.847	11215.36
561.051	11502.08
561.256	11311.61
561.461	11348.48
561.666	11172.35
561.871	11420.16
562.076	11465.21
562.281	11278.85
562.485	11014.66
562.69	11729.4
562.895	11852.28
563.1	11201.02
563.305	11014.66
563.509	12030.45
563.714	12095.99
563.919	11272.7
564.123	11225.6
564.328	11551.23
564.533	11938.29
564.737	11252.22
564.942	11137.54
565.147	11948.53
565.351	12233.2
565.556	11569.66
565.761	11627
565.965	11756.02
566.17	11649.53
566.374	11465.21
566.579	11323.9
566.784	11905.52
566.988	11635.19
567.193	11383.29
567.397	11469.31
567.602	11301.37
567.806	11821.56
568.011	11538.94
568.215	11758.07
568.42	11889.14
568.624	11813.37
568.828	11581.95
569.033	11837.94
569.237	12001.78
569.442	12167.67
569.646	11457.02
569.85	11559.42
570.055	11813.37
570.259	12196.34
570.463	12032.5
570.668	11796.98
570.872	12014.07
571.076	12110.32
571.281	12130.8
571.485	11803.13
571.689	11991.54
571.893	12079.6
572.098	11995.64
572.302	11981.3
572.506	12237.3
572.71	12317.17
572.914	11698.68
573.119	12005.88
573.323	12524.01
573.527	12509.68
573.731	11950.58
573.935	12001.78
574.139	12517.87
574.343	12032.5
574.547	12063.22
574.751	12104.18
574.955	12618.22
575.159	12741.1
575.364	11942.39
575.568	12055.03
575.772	12401.13
575.976	12564.97
576.18	11915.76
576.383	12046.83
576.587	12884.45
576.791	12589.55
576.995	11971.06
577.199	12110.32
577.403	12683.75
577.607	12866.02
577.811	12276.21
578.015	12415.47
578.219	12605.93
578.422	12939.75
578.626	12581.35
578.83	12532.2
579.034	13038.05
579.238	12818.92
579.442	12442.09
579.645	12904.93
579.849	12851.69
580.053	13140.45
580.257	12737
580.46	12823.01
580.664	13152.74
580.868	12685.8
581.071	12767.72
581.275	12757.48
581.479	12589.55
581.682	12765.67
581.886	12403.18
582.09	12773.86
582.293	13150.69
582.497	13171.17
582.7	12929.51
582.904	12558.83
583.107	13169.12
583.311	13097.44
583.515	12861.93
583.718	13070.82
583.922	13099.49
584.125	13777.37
584.329	12857.83
584.532	12945.89
584.735	13273.57
584.939	13162.98
585.142	12665.32
585.346	12872.17
585.549	13451.74
585.753	13033.96
585.956	13021.67
586.159	13095.39
586.363	13728.22
586.566	13386.21
586.769	13124.07
586.973	12943.85
587.176	13443.55
587.379	13599.2
587.582	13539.8
587.786	13203.94
587.989	13345.25
588.192	14119.38
588.395	13212.13
588.599	13492.7
588.802	13582.81
589.005	13726.17
589.208	13126.11
589.411	13375.97
589.615	13562.33
589.818	14168.53
590.021	13502.94
590.224	13347.3
590.427	13588.96
590.63	13824.47
590.833	13189.6
591.036	13365.73
591.239	13642.2
591.442	13414.88
591.645	13736.41
591.848	13634.01
592.051	13924.82
592.254	14358.99
592.457	13787.61
592.66	13545.95
592.863	13914.58
593.066	14162.39
593.269	13382.11
593.472	13791.7
593.675	13736.41
593.878	13984.21
594.081	13763.03
594.284	13586.91
594.486	14211.54
594.689	14049.75
594.892	13976.02
595.095	13787.61
595.298	14232.02
595.5	13894.1
595.703	14205.39
595.906	13945.3
596.109	14412.24
596.311	14354.9
596.514	13531.61
596.717	14047.7
596.92	14680.52
597.122	14463.44
597.325	13357.53
597.528	13732.31
597.73	14725.58
597.933	14281.17
598.136	13994.45
598.338	13744.6
598.541	14563.79
598.743	14787.02
598.946	14105.04
599.148	14232.02
599.351	14578.12
599.554	14850.5
599.756	14039.51
599.959	14422.48
600.161	14715.34
600.363	15153.6
600.566	14658
600.768	14221.78
600.971	14942.66
601.173	14674.38
601.376	14358.99
601.578	14414.29
601.78	14705.1
601.983	15194.56
602.185	14160.34
602.388	14729.67
602.59	14692.81
602.792	14504.4
602.995	14416.33
603.197	14272.98
603.399	14954.95
603.601	14701
603.804	14420.43
604.006	14324.18
604.208	14285.26
604.41	14281.17
604.613	14520.78
604.815	14449.1
605.017	15344.06
605.219	14750.15
605.421	14684.62
605.623	14418.38
605.826	14873.03
606.028	14989.77
606.23	14315.98
606.432	14553.55
606.634	15266.24
606.836	14983.62
607.038	14426.57
607.24	14473.68
607.442	14821.83
607.644	14846.41
607.846	14825.93
608.048	14449.1
608.25	15204.8
608.452	15043.01
608.654	14682.57
608.856	14600.65
609.058	14813.64
609.26	15147.46
609.462	14619.08
609.664	14879.18
609.866	15450.56
610.067	15161.8
610.269	15126.98
610.471	14666.19
610.673	15008.2
610.875	15294.91
611.077	14836.17
611.278	14678.47
611.48	15081.92
611.682	15413.7
611.884	15053.25
612.085	14666.19
612.287	14641.61
612.489	15194.56
612.69	14750.15
612.892	14834.12
613.094	15423.94
613.295	14971.33
613.497	14627.28
613.699	14858.7
613.9	15663.55
614.102	15352.26
614.304	14770.63
614.505	14756.3
614.707	15198.66
614.908	15079.88
615.11	14666.19
615.311	15040.97
615.513	15286.72
615.714	15440.32
615.916	14541.26
616.117	15151.56
616.319	15114.69
616.52	15579.58
616.722	15063.49
616.923	14836.17
617.124	15614.4
617.326	15276.48
617.527	15079.88
617.729	15110.6
617.93	15462.85
618.131	15374.78
618.333	14905.8
618.534	15208.9
618.735	15126.98
618.937	15440.32
619.138	14707.15
619.339	14907.85
619.54	15378.88
619.742	15307.2
619.943	15028.68
620.144	14987.72
620.345	15333.82
620.546	15589.82
620.748	14799.3
620.949	15299.01
621.15	15450.56
621.351	15358.4
621.552	15022.53
621.753	14846.41
621.954	15196.61
622.155	15696.32
622.356	14969.29
622.558	15274.43
622.759	15413.7
622.96	15733.18
623.161	15100.36
623.362	15040.97
623.563	15497.66
623.764	15278.53
623.965	15190.47
624.166	15675.84
624.366	15299.01
624.567	15444.41
624.768	14787.02
624.969	15118.79
625.17	15210.95
625.371	15491.52
625.572	14873.03
625.773	14969.29
625.973	15583.68
626.174	15512
626.375	15288.77
626.576	15448.51
626.777	15518.14
626.977	16118.2
627.178	15299.01
627.379	15423.94
627.58	15307.2
627.78	15729.08
627.981	15063.49
628.182	15290.82
628.382	15636.92
628.583	15243.71
628.784	14983.62
628.984	15405.5
629.185	15761.85
629.386	15540.67
629.586	15430.08
629.787	15147.46
629.987	15583.68
630.188	15673.79
630.388	15602.11
630.589	15258.05
630.79	16183.73
630.99	15817.15
631.191	15387.07
631.391	15452.61
631.591	15950.26
631.792	16165.3
631.992	15671.74
632.193	15393.22
632.393	15946.17
632.594	15940.02
632.794	15253.95
632.994	15518.14
633.195	15479.23
633.395	15694.27
633.595	15311.3
633.796	15612.35
633.996	15684.03
634.196	16247.22
634.397	15598.01
634.597	15817.15
634.797	15444.41
634.997	16017.85
635.198	15653.31
635.398	15309.25
635.598	16089.53
635.798	16263.6
635.998	15792.57
636.199	15503.81
636.399	15823.29
636.599	15630.78
636.799	15559.1
636.999	15741.37
637.199	16165.3
637.399	15860.15
637.599	15747.51
637.799	15786.43
637.999	15854.01
638.199	16245.17
638.399	15516.09
638.599	15321.54
638.799	15923.64
638.999	16279.99
639.199	15927.74
639.399	15630.78
639.599	16384.43
639.799	15907.26
639.999	15655.36
640.199	15606.2
640.399	15997.37
640.599	15749.56
640.799	15954.36
640.998	15829.43
641.198	16304.56
641.398	16230.84
641.598	16118.2
641.798	15804.86
641.997	17086.89
642.197	16085.43
642.397	15991.22
642.597	16026.04
642.796	16134.58
642.996	16359.86
643.196	15952.31
643.395	15776.19
643.595	16304.56
643.795	15786.43
643.994	15704.51
644.194	16128.44
644.394	16472.5
644.593	16415.15
644.793	15874.49
644.992	15874.49
645.192	16374.19
645.392	15759.8
645.591	16488.88
645.791	16032.18
645.99	16480.69
646.19	16271.79
646.389	16048.57
646.589	16230.84
646.788	16300.47
646.987	16243.12
647.187	16110
647.386	16343.47
647.586	16443.82
647.785	16484.78
647.984	16249.27
648.184	16306.61
648.383	16048.57
648.582	16282.03
648.782	16122.29
648.981	16150.96
649.18	15942.07
649.38	16464.3
649.579	16136.63
649.778	16226.74
649.977	16822.7
650.177	16259.51
650.376	15704.51
650.575	15835.58
650.774	16593.33
650.973	16300.47
651.173	15882.68
651.372	16335.28
651.571	16476.59
651.77	16617.9
651.969	16112.05
652.168	16259.51
652.367	16034.23
652.566	16361.91
652.765	16277.94
652.964	16691.63
653.163	16859.56
653.362	16478.64
653.561	16073.14
653.76	16259.51
653.959	16521.65
654.158	16824.75
654.357	16423.34
654.556	16396.72
654.755	17033.64
654.954	16751.02
655.153	16486.83
655.352	16546.22
655.551	17117.61
655.749	16650.67
655.948	16685.48
656.147	16619.95
656.346	16908.71
656.545	16638.38
656.743	16523.69
656.942	16355.76
657.141	16761.26
657.34	16236.98
657.538	16691.63
657.737	16388.53
657.936	16687.53
658.135	16679.34
658.333	16105.91
658.532	16693.68
658.731	17144.23
658.929	16781.74
659.128	16632.24
659.326	16466.35
659.525	16949.67
659.724	16554.41
659.922	16269.75
660.121	16226.74
660.319	16701.87
660.518	16388.53
660.716	16128.44
660.915	16388.53
661.113	17099.17
661.312	16587.18
661.51	16509.36
661.709	16421.3
661.907	17002.92
662.105	16996.78
662.304	16658.86
662.502	16556.46
662.701	17033.64
662.899	16658.86
663.097	17017.25
663.296	16546.22
663.494	17367.46
663.692	17234.34
663.891	16273.84
664.089	16556.46
664.287	16826.79
664.485	17101.22
664.684	16425.39
664.882	16363.95
665.08	16902.57
665.278	16849.32
665.476	16056.76
665.675	16986.54
665.873	17222.05
666.071	16990.63
666.269	16601.52
666.467	16429.49
666.665	16605.61
666.863	16568.75
667.061	16613.81
667.259	16562.61
667.457	16779.69
667.655	17121.7
667.853	16386.48
668.051	16611.76
668.249	16507.31
668.447	16708.01
668.645	16609.71
668.843	17136.04
669.041	16894.38
669.239	16921
669.437	16617.9
669.635	16622
669.833	16519.6
670.031	16744.88
670.229	16409.01
670.426	16505.26
670.624	16689.58
670.822	16791.98
671.02	16392.62
671.218	16642.48
671.415	16460.21
671.613	16673.2
671.811	16746.92
672.009	16398.77
672.206	16871.85
672.404	16800.17
672.602	16441.78
672.799	16492.97
672.997	16734.64
673.195	16961.96
673.392	16511.41
673.59	16163.25
673.788	16953.77
673.985	16261.55
674.183	16595.37
674.38	16525.74
674.578	17177
674.775	16501.17
674.973	16417.2
675.17	16392.62
675.368	17111.46
675.565	16710.06
675.763	16458.16
675.96	16251.31
676.158	16861.61
676.355	16167.35
676.553	16406.96
676.75	16193.97
676.947	16347.57
677.145	16435.63
677.342	16449.97
677.539	16601.52
677.737	16636.33
677.934	17195.43
678.131	16345.52
678.329	16374.19
678.526	17189.28
678.723	16806.31
678.92	16765.35
679.118	16419.25
679.315	16177.59
679.512	16964.01
679.709	16363.95
679.906	16374.19
680.104	16871.85
680.301	16529.84
680.498	16001.46
680.695	16171.44
680.892	16355.76
681.089	16058.81
681.286	16265.65
681.483	15845.82
681.68	16458.16
681.877	16710.06
682.075	16187.83
682.272	16329.14
682.469	16103.86
682.665	16404.91
682.862	16144.82
683.059	15899.06
683.256	16529.84
683.453	16589.23
683.65	16439.73
683.847	16279.99
684.044	16441.78
684.241	16447.92
684.438	16335.28
684.635	16003.51
684.831	16826.79
685.028	16871.85
685.225	16150.96
685.422	16228.79
685.619	16259.51
685.815	16484.78
686.012	16374.19
686.209	15894.97
686.405	15909.3
686.602	16564.65
686.799	15864.25
686.996	16142.77
687.192	15892.92
687.389	16597.42
687.586	16167.35
687.782	16200.12
687.979	16779.69
688.175	16355.76
688.372	15999.41
688.568	16019.89
688.765	16036.28
688.962	16562.61
689.158	16064.95
689.355	15968.7
689.551	16255.41
689.748	15974.84
689.944	15843.77
690.14	15796.67
690.337	16552.37
690.533	16255.41
690.73	15854.01
690.926	15813.05
691.123	16064.95
691.319	16267.7
691.515	15694.27
691.712	16224.69
691.908	16148.92
692.104	16374.19
692.301	16191.92
692.497	15483.33
692.693	16456.11
692.889	16556.46
693.086	15843.77
693.282	15532.48
693.478	16159.16
693.674	16441.78
693.87	15667.64
694.067	15767.99
694.263	16179.64
694.459	15800.76
694.655	15870.39
694.851	15741.37
695.047	16169.4
695.243	16116.15
695.439	15585.72
695.635	15600.06
695.831	16210.36
696.027	16003.51
696.224	15542.72
696.42	16185.78
696.615	16736.68
696.811	16073.14
697.007	15638.97
697.203	15534.53
697.399	15970.74
697.595	16202.16
697.791	15610.3
697.987	15720.89
698.183	15724.99
698.379	15454.65
698.575	16089.53
698.77	15567.29
698.966	15743.42
699.162	16007.61
699.358	15737.27
699.554	15444.41
699.749	15995.32
699.945	15819.19
700.141	15421.89
700.337	15464.89
700.532	15608.25
700.728	15368.64
700.924	15407.55
701.119	15157.7
701.315	15665.6
701.511	15610.3
701.706	15536.57
701.902	15180.23
702.097	15692.22
702.293	15784.38
702.489	15688.12
702.684	15507.9
702.88	15636.92
703.075	15567.29
703.271	15169.99
703.466	15415.74
703.662	15714.75
703.857	15997.37
704.053	15411.65
704.248	15606.2
704.443	15667.64
704.639	15880.63
704.834	15536.57
705.03	15239.62
705.225	15610.3
705.42	16114.1
705.616	15679.93
705.811	15198.66
706.006	15385.02
706.202	15454.65
706.397	15288.77
706.592	15278.53
706.787	15348.16
706.983	15428.03
707.178	15667.64
707.373	15485.37
707.568	15641.02
707.763	15688.12
707.959	15352.26
708.154	15202.75
708.349	15169.99
708.544	15184.32
708.739	15155.65
708.934	14825.93
709.129	15598.01
709.324	15593.92
709.519	15155.65
709.714	15180.23
709.909	15727.03
710.104	15272.39
710.299	14934.47
710.494	15339.97
710.689	15274.43
710.884	15452.61
711.079	14975.43
711.274	15280.58
711.469	15475.13
711.664	15378.88
711.859	15067.59
712.054	15294.91
712.249	15413.7
712.443	15462.85
712.638	14911.94
712.833	14971.33
713.028	15342.02
713.223	15075.78
713.417	15280.58
713.612	15092.16
713.807	15458.75
714.002	15915.45
714.196	15075.78
714.391	14957
714.586	15374.78
714.78	15114.69
714.975	14918.09
715.17	15038.92
715.364	15241.67
715.559	15430.08
715.754	14641.61
715.948	14909.9
716.143	15593.92
716.337	15270.34
716.532	15157.7
716.726	14975.43
716.921	15227.33
717.115	15579.58
717.31	14567.88
717.504	15456.7
717.699	15077.83
717.893	15059.4
718.088	14694.86
718.282	14664.14
718.476	15073.73
718.671	15202.75
718.865	14629.32
719.059	14610.89
719.254	14643.66
719.448	15159.75
719.642	16005.56
719.837	14408.14
720.031	15184.32
720.225	15323.58
720.419	14846.41
720.614	14856.65
720.808	15069.64
721.002	15129.03
721.196	14852.55
721.39	14621.13
721.585	15004.1
721.779	14930.37
721.973	14627.28
722.167	14453.2
722.361	14709.19
722.555	15131.08
722.749	14598.6
722.943	14440.91
723.137	14514.64
723.331	14950.85
723.525	14490.06
723.719	14557.64
723.913	15002.05
724.107	15024.58
724.301	14586.32
724.495	14631.37
724.689	15147.46
724.883	15106.5
725.077	14402
725.271	14492.11
725.465	15034.82
725.659	14926.28
725.853	14567.88
726.046	14270.93
726.24	14692.81
726.434	14606.8
726.628	14557.64
726.822	14438.86
727.015	15010.25
727.209	14815.69
727.403	14563.79
727.596	14199.25
727.79	14592.46
727.984	14713.29
728.177	14567.88
728.371	14369.23
728.565	14746.06
728.758	14373.33
728.952	14602.7
729.146	14500.3
729.339	15024.58
729.533	14596.56
729.726	14424.53
729.92	14397.9
730.113	15157.7
730.307	14772.68
730.5	14860.74
730.694	14461.39
730.887	14320.08
731.081	14803.4
731.274	14182.87
731.468	14553.55
731.661	14490.06
731.854	14440.91
732.048	14555.6
732.241	14336.46
732.435	14449.1
732.628	14668.23
732.821	14795.21
733.014	14449.1
733.208	14344.66
733.401	14690.76
733.594	14287.31
733.788	14168.53
733.981	14803.4
734.174	14612.94
734.367	14115.28
734.56	14436.81
734.754	14483.92
734.947	14332.37
735.14	14332.37
735.333	14512.59
735.526	14488.01
735.719	14328.27
735.912	14315.98
736.105	14227.92
736.298	14549.45
736.491	14307.79
736.684	13988.31
736.877	14131.67
737.07	14512.59
737.263	14641.61
737.456	14109.14
737.649	14072.28
737.842	14229.97
738.035	14713.29
738.228	13992.41
738.421	14598.6
738.614	14565.84
738.807	14438.86
739	14049.75
739.192	14019.03
739.385	14211.54
739.578	14614.99
739.771	14481.87
739.964	14105.04
740.156	14348.75
740.349	14207.44
740.542	14258.64
740.735	13775.32
740.927	14137.81
741.12	14055.89
741.313	13738.46
741.505	14176.72
741.698	14326.22
741.891	14367.18
742.083	14031.32
742.276	14135.76
742.468	14547.4
742.661	14209.49
742.854	14055.89
743.046	14096.85
743.239	14428.62
743.431	14299.6
743.624	13922.77
743.816	13824.47
744.009	14094.8
744.201	14213.59
744.393	13959.64
744.586	13859.29
744.778	14555.6
744.971	14117.33
745.163	14193.11
745.355	14084.56
745.548	14287.31
745.74	14109.14
745.932	13998.55
746.125	14064.08
746.317	14813.64
746.509	13908.44
746.702	14002.65
746.894	14006.74
747.086	14229.97
747.278	14451.15
747.471	13930.97
747.663	14096.85
747.855	14088.66
748.047	14445.01
748.239	13947.35
748.431	14049.75
748.623	14264.79
748.815	14277.07
749.008	13787.61
749.2	13937.11
749.392	14170.58
749.584	14363.09
749.776	13890.01
749.968	13894.1
750.16	14522.83
750.352	13865.43
750.544	14006.74
750.736	13830.62
750.928	14332.37
751.12	14078.42
751.311	13769.18
751.503	13914.58
751.695	14115.28
751.887	13928.92
752.079	13693.4
752.271	13859.29
752.463	15043.01
752.654	14037.46
752.846	13726.17
753.038	13580.76
753.23	13867.48
753.421	14186.96
753.613	13668.83
753.805	14078.42
753.997	14148.05
754.188	14328.27
754.38	13640.15
754.572	13660.63
754.763	13935.06
754.955	13828.57
755.146	13707.74
755.338	13423.07
755.53	13818.33
755.721	13758.94
755.913	13146.59
756.104	13281.76
756.296	13742.55
756.487	13603.29
756.679	13388.25
756.87	13406.69
757.062	13414.88
757.253	13984.21
757.445	13504.99
757.636	13701.59
757.827	13591
758.019	14189.01
758.21	13179.36
758.401	13218.27
758.593	14012.88
758.784	13904.34
758.975	12962.28
759.167	13269.47
759.358	13644.25
759.549	13533.66
759.74	13269.47
759.932	13261.28
760.123	13914.58
760.314	13431.26
760.505	13226.46
760.696	13183.46
760.888	14170.58
761.079	13195.75
761.27	13076.96
761.461	12984.8
761.652	13523.42
761.843	13375.97
762.034	13339.1
762.225	13457.89
762.416	13193.7
762.607	13251.04
762.798	13122.02
762.989	13117.92
763.18	13892.05
763.371	13156.83
763.562	12845.54
763.753	13046.24
763.944	13611.48
764.135	13451.74
764.326	13148.64
764.517	12927.46
764.708	13185.51
764.899	13363.68
765.089	12927.46
765.28	12765.67
765.471	13218.27
765.662	13136.35
765.853	12747.24
766.043	12460.52
766.234	13294.05
766.425	13486.56
766.615	12538.35
766.806	12440.04
766.997	13158.88
767.187	12837.35
767.378	12769.77
767.569	12464.62
767.759	13095.39
767.95	13060.58
768.141	12691.94
768.331	12323.31
768.522	12855.78
768.712	13144.55
768.903	12610.03
769.093	12603.88
769.284	13267.42
769.474	13097.44
769.665	12116.47
769.855	12202.48
770.046	13003.24
770.236	12603.88
770.426	12458.48
770.617	12501.48
770.807	12716.52
770.998	12390.89
771.188	12517.87
771.378	12292.59
771.569	12829.16
771.759	12605.93
771.949	12165.62
772.139	12093.94
772.33	12460.52
772.52	13009.38
772.71	12163.57
772.9	11923.96
773.09	12925.41
773.281	12839.4
773.471	12167.67
773.661	12138.99
773.851	12515.82
774.041	12280.3
774.231	12122.61
774.421	12259.82
774.611	12620.27
774.802	12360.17
774.992	12280.3
775.182	12001.78
775.372	12339.69
775.562	12368.37
775.752	12390.89
775.942	12055.03
776.131	12562.92
776.321	12233.2
776.511	12159.47
776.701	11983.35
776.891	12583.4
777.081	12007.92
777.271	12005.88
777.461	11858.42
777.651	12413.42
777.84	12274.16
778.03	11950.58
778.22	11524.6
778.41	12370.41
778.599	11774.45
778.789	11751.93
778.979	11733.5
779.169	12022.26
779.358	12071.41
779.548	12153.33
779.738	11409.92
779.927	12138.99
780.117	11835.89
780.307	11563.51
780.496	11354.62
780.686	11987.44
780.875	12317.17
781.065	11796.98
781.254	11725.3
781.444	11805.17
781.633	11608.57
781.823	11342.33
782.012	11698.68
782.202	11725.3
782.391	11594.23
782.581	11647.48
782.77	11784.69
782.96	11969.01
783.149	11543.03
783.338	11416.06
783.528	11336.19
783.717	11940.34
783.906	12030.45
784.096	11532.79
784.285	11360.77
784.474	11737.59
784.663	11616.76
784.853	11389.44
785.042	11401.72
785.231	11573.75
785.42	11627
785.61	11340.29
785.799	11293.18
785.988	11444.73
786.177	11315.71
786.366	11223.55
786.555	11295.23
786.744	11420.16
786.933	11428.35
787.122	11104.77
787.312	11293.18
787.501	11344.38
787.69	11645.43
787.879	11129.34
788.068	11049.47
788.257	10899.97
788.445	11250.18
788.634	11125.25
788.823	10807.81
789.012	11782.65
789.201	11432.44
789.39	11035.14
789.579	10957.32
789.768	11280.89
789.957	11504.12
790.145	10863.11
790.334	10707.46
790.523	11178.5
790.712	11213.31
790.9	11059.71
791.089	10803.72
791.278	11278.85
791.467	11209.22
791.655	11112.96
791.844	11239.94
792.033	10979.84
792.221	11219.46
792.41	10789.38
792.599	10566.15
792.787	11321.85
792.976	11162.11
793.164	10590.73
793.353	10740.23
793.541	11338.24
793.73	11457.02
793.918	10842.63
794.107	10844.68
794.295	11006.47
794.484	10828.29
794.672	10742.28
794.861	10795.53
795.049	10936.84
795.238	11028.99
795.426	10469.9
795.614	10797.57
795.803	11057.67
795.991	11149.82
796.179	10648.07
796.368	10875.4
796.556	11151.87
796.744	10494.47
796.932	10576.39
797.121	10488.33
797.309	10758.66
797.497	11151.87
797.685	10621.45
797.874	10605.06
798.062	10727.94
798.25	11020.8
798.438	10627.59
798.626	10732.04
798.814	10871.3
799.002	11606.52
799.19	10627.59
799.378	10650.12
799.566	11024.9
799.755	11209.22
799.943	10625.54
800.131	10691.08
800.318	11098.63
800.506	11039.23
800.694	10564.11
800.882	10582.54
801.07	11084.29
801.258	10686.98
801.446	10646.02
801.634	10711.56
801.822	10793.48
802.01	11024.9
802.197	10547.72
802.385	10656.26
802.573	10871.3
802.761	10535.43
802.949	10334.73
803.136	10390.03
803.324	11014.66
803.512	11076.1
803.699	10625.54
803.887	10379.79
804.075	11065.86
804.262	10809.86
804.45	10656.26
804.638	10703.37
804.825	10584.59
805.013	10617.35
805.201	10381.84
805.388	10447.37
805.576	10942.98
805.763	11123.2
805.951	10547.72
806.138	10682.89
806.326	11543.03
806.513	11010.56
806.701	10666.5
806.888	10535.43
807.075	10963.46
807.263	11323.9
807.45	10521.1
807.638	10926.6
807.825	11491.84
808.012	11133.44
808.2	10656.26
808.387	11065.86
808.574	11012.61
808.761	11203.07
808.949	10525.19
809.136	10682.89
809.323	10813.96
809.51	10723.85
809.698	10893.83
809.885	10994.18
810.072	11022.85
810.259	11235.84
810.446	10605.06
810.633	10697.22
810.82	11186.69
811.008	11250.18
811.195	10975.75
811.382	10775.05
811.569	11020.8
811.756	10867.2
811.943	10705.42
812.13	10854.92
812.317	10662.41
812.504	10873.35
812.691	10996.23
812.878	11035.14
813.064	11416.06
813.251	11366.91
813.438	10664.46
813.625	10949.12
813.812	10928.64
813.999	11117.06
814.186	10893.83
814.372	11139.58
814.559	11160.06
814.746	11368.96
814.933	10887.68
815.12	11065.86
815.306	10721.8
815.493	10754.57
815.68	10836.49
815.866	10680.84
816.053	11303.42
816.24	11420.16
816.426	10779.14
816.613	10568.2
816.799	11356.67
816.986	11201.02
817.173	10490.38
817.359	10654.22
817.546	10840.58
817.732	10648.07
817.919	10729.99
818.105	10686.98
818.292	10842.63
818.478	11219.46
818.665	11022.85
818.851	10824.2
819.037	11692.54
819.224	10942.98
819.41	10600.97
819.597	10611.21
819.783	11373.05
819.969	11149.82
820.156	10693.13
820.342	10590.73
820.528	11708.92
820.714	11217.41
820.901	10785.29
821.087	10482.19
821.273	11246.08
821.459	10965.51
821.646	10545.67
821.832	10752.52
822.018	10779.14
822.204	10820.1
822.39	10639.88
822.576	10467.85
822.762	10932.74
822.948	10846.73
823.134	10504.71
823.32	10643.98
823.507	10445.32
823.693	10971.65
823.879	10674.7
824.065	10355.21
824.25	10840.58
824.436	10643.98
824.622	10330.64
824.808	10527.24
824.994	10410.51
825.18	10525.19
825.366	10416.65
825.552	10254.86
825.738	10631.69
825.923	10897.92
826.109	10529.29
826.295	10197.52
826.481	10590.73
826.667	10590.73
826.852	10596.87
827.038	10052.11
827.224	10760.71
827.409	11143.68
827.595	10021.39
827.781	10363.4
827.966	10838.53
828.152	10707.46
828.338	10238.48
828.523	9802.26
828.709	10310.16
828.894	10734.09
829.08	10230.29
829.266	10080.78
829.451	10416.65
829.637	10328.59
829.822	10043.92
830.008	10215.95
830.193	10402.32
830.378	10744.33
830.564	10232.33
830.749	9931.28
830.935	10476.04
831.12	10543.63
831.305	10105.36
831.491	10101.26
831.676	10068.5
831.861	10689.03
832.047	10142.22
832.232	9980.43
832.417	10582.54
832.602	10142.22
832.788	9941.52
832.973	10082.83
833.158	10482.19
833.343	10267.15
833.528	9966.1
833.714	10197.52
833.899	10457.61
834.084	10760.71
834.269	10306.06
834.454	9798.17
834.639	10338.83
834.824	10234.38
835.009	9949.71
835.194	10097.17
835.379	10463.76
835.564	10416.65
835.749	9982.48
835.934	9818.64
836.119	10131.98
836.304	10095.12
836.489	9773.59
836.674	9933.33
836.859	9761.3
837.044	10232.33
837.228	9695.77
837.413	9503.26
837.598	10078.74
837.783	10060.31
837.968	9765.4
838.152	9329.18
838.337	9431.58
838.522	10099.22
838.707	10228.24
838.891	9894.42
839.076	10123.79
839.261	10275.34
839.445	9738.77
839.63	9630.23
839.815	10201.61
839.999	9806.36
840.184	9628.18
840.368	9480.73
840.553	10117.65
840.737	10099.22
840.922	9480.73
841.106	9331.23
841.291	9265.69
841.475	9660.95
841.66	9425.43
841.844	9347.61
842.029	10400.27
842.213	9484.83
842.397	9132.58
842.582	8974.88
842.766	9814.55
842.951	9693.72
843.135	9202.21
843.319	9189.92
843.504	9570.84
843.688	9695.77
843.872	8983.07
844.056	9183.77
844.241	9515.55
844.425	9286.17
844.609	9556.5
844.793	9054.75
844.977	9619.99
845.161	9480.73
845.346	9017.89
845.53	9007.65
845.714	9265.69
845.898	9902.61
846.082	8921.63
846.266	9232.93
846.45	9341.47
846.634	9646.62
846.818	9118.24
847.002	9288.22
847.186	9470.49
847.37	9208.35
847.554	8886.82
847.738	9062.94
847.922	9323.04
848.106	9599.51
848.29	8811.04
848.473	9265.69
848.657	9396.76
848.841	9359.9
849.025	8956.45
849.209	8837.67
849.392	9378.33
849.576	9163.29
849.76	8749.61
849.944	9030.18
850.127	9507.35
850.311	8964.64
850.495	8860.2
850.678	8696.36
850.862	9634.33
851.046	9585.18
851.229	8925.73
851.413	8690.21
851.596	8991.27
851.78	8833.57
851.964	8946.21
852.147	8653.35
852.331	9450.01
852.514	9216.54
852.698	8823.33
852.881	8518.18
853.065	9110.05
853.248	8923.68
853.431	8903.2
853.615	8663.59
853.798	9402.91
853.982	9036.32
854.165	8663.59
854.348	8696.36
854.532	8702.5
854.715	8679.97
854.898	8514.09
855.081	8667.69
855.265	9087.52
855.448	9071.14
855.631	8366.64
855.814	8303.15
855.997	8944.16
856.181	8606.25
856.364	8657.45
856.547	8561.19
856.73	8634.92
856.913	8776.23
857.096	8477.23
857.279	8272.43
857.462	8505.9
857.645	9167.39
857.828	8632.87
858.011	8565.29
858.194	8493.61
858.377	8888.87
858.56	8350.25
858.743	8284.72
858.926	8354.35
859.109	8700.45
859.292	8270.38
859.475	8077.87
859.658	8749.61
859.841	8585.77
860.023	8167.98
860.206	8325.68
860.389	8725.03
860.572	8845.86
860.755	8434.22
860.937	8354.35
861.12	8393.26
861.303	8491.56
861.486	8313.39
861.668	8041.01
861.851	8761.89
862.034	8477.23
862.216	8436.27
862.399	8000.05
862.581	8262.19
862.764	8663.59
862.947	8290.86
863.129	8067.63
863.312	8000.05
863.494	8653.35
863.677	8591.91
863.859	7731.76
864.042	8528.42
864.224	8712.74
864.406	8202.8
864.589	7830.07
864.771	8311.34
864.954	7995.95
865.136	7965.23
865.318	7598.65
865.501	8401.45
865.683	7709.24
865.865	7985.71
866.048	7864.88
866.23	8124.97
866.412	7772.72
866.594	7608.89
866.777	7967.28
866.959	8133.17
867.141	7719.48
867.323	8102.45
867.505	7983.66
867.687	7895.6
867.869	8190.51
868.052	7703.09
868.234	7633.46
868.416	8034.86
868.598	8249.9
868.78	7633.46
868.962	7828.02
869.144	8135.21
869.326	8188.46
869.508	7526.97
869.69	7819.83
869.872	7649.85
870.054	8233.52
870.236	7670.33
870.417	7688.76
870.599	7760.44
870.781	8305.2
870.963	7754.29
871.145	7524.92
871.327	7582.26
871.508	7959.09
871.69	7606.84
871.872	7430.71
872.054	7950.9
872.235	7801.4
872.417	7569.98
872.599	7234.11
872.78	8268.33
872.962	7885.36
873.144	7414.33
873.325	7625.27
873.507	8262.19
873.689	7764.53
873.87	7582.26
874.052	7637.56
874.233	7696.95
874.415	7983.66
874.596	7559.74
874.778	7477.82
874.959	7754.29
875.141	8127.02
875.322	7699
875.503	7445.05
875.685	7703.09
875.866	7381.56
876.048	7215.68
876.229	7393.85
876.41	7610.93
876.592	7995.95
876.773	7504.44
876.954	7307.84
877.136	8229.42
877.317	7811.64
877.498	7377.47
877.679	7801.4
877.86	7920.18
878.042	7805.49
878.223	7559.74
878.404	8014.38
878.585	7967.28
878.766	8319.53
878.947	7907.89
879.128	7862.83
879.309	8159.79
879.49	8284.72
879.672	7875.12
879.853	7713.33
880.034	7856.69
880.215	7846.45
880.396	7598.65
880.576	7713.33
880.757	7590.45
880.938	8155.69
881.119	7602.74
881.3	7780.92
881.481	7828.02
881.662	8878.63
881.843	7623.22
882.023	7664.18
882.204	7836.21
882.385	8106.54
882.566	7744.05
882.747	7719.48
882.927	8086.06
883.108	8067.63
883.289	7832.12
883.469	8165.93
883.65	7782.96
883.831	8004.14
884.011	7985.71
884.192	8000.05
884.373	8507.94
884.553	8329.77
884.734	8108.59
884.914	8182.32
885.095	8880.68
885.275	8624.68
885.456	8301.1
885.636	7590.45
885.817	8327.72
885.997	8237.61
886.178	7891.51
886.358	8077.87
886.538	8333.87
886.719	9419.29
886.899	8100.4
887.08	8272.43
887.26	8677.93
887.44	8086.06
887.621	7965.23
887.801	8210.99
887.981	9130.53
888.161	8419.88
888.342	8108.59
888.522	8028.72
888.702	8602.15
888.882	8708.65
889.062	8192.56
889.242	8008.24
889.423	8733.22
889.603	8575.53
889.783	8278.57
889.963	8086.06
890.143	8532.52
890.323	8542.76
890.503	8135.21
890.683	7934.51
890.863	8544.81
891.043	8315.44
891.223	8262.19
891.403	8419.88
891.583	8335.92
891.763	8450.6
891.943	8301.1
892.122	7995.95
892.302	8423.98
892.482	8600.1
892.662	8204.85
892.842	8254
893.022	8387.11
893.201	8008.24
893.381	8131.12
893.561	8172.08
893.741	8391.21
893.92	8249.9
894.1	8092.21
894.28	7879.22
894.459	8376.87
894.639	8360.49
894.819	8018.48
894.998	8151.6
895.178	8192.56
895.357	8495.66
895.537	7840.31
895.716	7707.19
895.896	8174.13
896.075	8559.14
896.255	7821.88
896.434	7621.17
896.614	8604.2
896.793	8458.79
896.973	8262.19
897.152	7832.12
897.331	8417.83
897.511	8499.75
897.69	7834.16
897.87	8061.49
898.049	8266.28
898.228	8180.27
898.407	7934.51
898.587	7920.18
898.766	7897.65
898.945	8153.65
899.124	7701.05
899.304	7938.61
899.483	8104.5
899.662	8139.31
899.841	7641.65
900.02	7631.41
900.199	8067.63
900.378	7952.95
900.557	7367.23
900.737	7318.08
900.916	7971.38
901.095	7850.55
901.274	7711.28
901.453	7283.26
901.632	7557.69
901.811	7541.3
901.989	7385.66
902.168	7406.14
902.347	7938.61
902.526	7244.35
902.705	7369.27
902.884	7682.61
903.063	7834.16
903.242	7789.11
903.42	7086.65
903.599	7418.43
903.778	7813.68
903.957	7645.75
904.135	7369.27
904.314	7234.11
904.493	7467.58
904.672	7623.22
904.85	7131.71
905.029	7221.82
905.207	7481.91
905.386	8239.66
905.565	6949.44
905.743	6818.37
905.922	7234.11
906.1	7438.91
906.279	6844.99
906.457	6918.72
906.636	7021.12
906.814	7037.5
906.993	6715.97
907.171	6750.79
907.35	7180.86
907.528	7311.93
907.707	6926.91
907.885	6701.64
908.063	7395.9
908.242	6822.47
908.42	6539.85
908.598	6365.77
908.777	7047.74
908.955	6681.16
909.133	6720.07
909.311	6388.3
909.49	6771.27
909.668	6861.38
909.846	6556.23
910.024	6582.85
910.202	6953.54
910.38	6863.43
910.559	6558.28
910.737	6568.52
910.915	7070.27
911.093	6982.21
911.271	6709.83
911.449	7103.04
911.627	6980.16
911.805	7486.01
911.983	6732.36
912.161	6711.88
912.339	6996.54
912.517	7268.92
912.695	6998.59
912.872	6806.08
913.05	6996.54
913.228	7279.16
913.406	6906.43
913.584	6863.43
913.762	7373.37
913.939	6828.61
914.117	6890.05
914.295	6466.12
914.473	7301.69
914.65	7451.19
914.828	6873.67
915.006	6812.23
915.184	6699.59
915.361	7260.73
915.539	7119.42
915.716	7094.85
915.894	7150.14
916.072	7371.32
916.249	6902.34
916.427	6931.01
916.604	6728.26
916.782	7096.89
916.959	6715.97
917.137	6629.96
917.314	7066.17
917.492	7008.83
917.669	6830.66
917.847	6709.83
918.024	6922.82
918.201	6861.38
918.379	6873.67
918.556	6937.15
918.733	7156.29
918.911	7017.02
919.088	6996.54
919.265	6699.59
919.442	7082.56
919.62	6828.61
919.797	6502.98
919.974	6486.6
920.151	6904.39
920.328	6838.85
920.506	6697.54
920.683	6898.24
920.86	6627.91
921.037	6830.66
921.214	6634.05
921.391	6552.13
921.568	7082.56
921.745	6570.57
921.922	6629.96
922.099	6283.85
922.276	7072.32
922.453	6810.18
922.63	6447.69
922.807	6509.13
922.984	6722.12
923.161	6298.19
923.338	6517.32
923.514	6337.1
923.691	6605.38
923.868	6621.77
924.045	6244.94
924.222	6160.97
924.399	6580.81
924.575	6849.09
924.752	6179.4
924.929	6361.67
925.105	6689.35
925.282	6300.23
925.459	6201.93
925.635	6228.56
925.812	6365.77
925.989	6404.68
926.165	6128.21
926.342	5896.78
926.518	6060.62
926.695	6259.28
926.871	5904.98
927.048	5784.15
927.224	6478.41
927.401	6101.58
927.577	5896.78
927.754	5806.67
927.93	6466.12
928.107	6365.77
928.283	5792.34
928.459	6077.01
928.636	6208.08
928.812	6210.12
928.988	5968.46
929.165	5855.83
929.341	6144.59
929.517	6220.36
929.693	6341.19
929.87	5540.44
930.046	6271.56
930.222	5628.5
930.398	5546.58
930.574	5696.08
930.751	5796.43
930.927	5552.73
931.103	5505.62
931.279	5462.62
931.455	5511.77
931.631	5782.1
931.807	5339.74
931.983	5321.31
932.159	5347.93
932.335	5816.91
932.511	5317.21
932.687	5415.51
932.863	5519.96
933.039	5485.14
933.215	5200.48
933.391	5370.46
933.566	5493.33
933.742	5565.01
933.918	5286.49
934.094	4915.81
934.27	5298.78
934.445	5225.05
934.621	5268.06
934.797	4903.52
934.973	5358.17
935.148	5214.81
935.324	4821.6
935.5	4625
935.675	5190.24
935.851	5038.69
936.027	4837.98
936.202	4698.72
936.378	4891.23
936.553	4588.13
936.729	4905.57
936.904	4389.48
937.08	4264.55
937.255	4371.05
937.431	4070
937.606	3906.16
937.782	4313.7
937.957	4239.98
938.133	4037.23
938.308	3871.34
938.483	4199.02
938.659	3801.71
938.834	3900.02
939.009	3635.83
939.185	3797.62
939.36	3637.88
939.535	3183.23
939.71	3601.01
939.886	3945.07
940.061	3752.56
940.236	3588.72
940.411	3555.96
940.586	3764.85
940.761	3633.78
940.937	3310.2
941.112	3138.17
941.287	3474.04
941.462	3568.24
941.637	3064.44
941.812	3005.05
941.987	3383.93
942.162	3297.91
942.337	3207.8
942.512	3003
942.687	3627.64
942.862	3471.99
943.037	2943.61
943.212	2800.26
943.386	3117.69
943.561	3310.2
943.736	3048.06
943.911	3338.87
944.086	3232.38
944.26	3101.31
944.435	3005.05
944.61	3113.6
944.785	3467.89
944.959	3492.47
945.134	3021.44
945.309	2798.21
945.483	3013.24
945.658	3521.14
945.833	2749.06
946.007	2757.25
946.182	3537.52
946.357	2888.32
946.531	2763.39
946.706	2896.51
946.88	2761.34
947.055	3168.89
947.229	3000.96
947.404	2990.72
947.578	3474.04
947.752	2982.53
947.927	2886.27
948.101	2882.17
948.276	3377.78
948.45	3287.67
948.624	3117.69
948.799	2951.81
948.973	3232.38
949.147	2937.47
949.321	3101.31
949.496	2998.91
949.67	3611.25
949.844	3318.39
950.018	3070.59
950.193	3015.29
950.367	3891.82
950.541	3287.67
950.715	3279.48
950.889	3394.17
951.063	3289.72
951.237	3535.48
951.411	2982.53
951.585	2996.86
951.759	3560.05
951.933	3297.91
952.107	3215.99
952.281	3449.46
952.455	3748.47
952.629	3658.35
952.803	3080.83
952.977	3158.65
953.151	3625.59
953.325	3373.69
953.499	3336.82
953.672	3021.44
953.846	3252.86
954.02	3406.45
954.194	3273.34
954.368	3203.71
954.541	3717.75
954.715	3369.59
954.889	3398.26
955.062	3236.47
955.236	3465.85
955.41	3377.78
955.583	3478.13
955.757	3246.71
955.93	3539.57
956.104	3222.14
956.278	3240.57
956.451	3379.83
956.625	3768.95
956.798	4106.86
956.972	3592.82
957.145	3322.49
957.319	3553.91
957.492	3572.34
957.665	3609.2
957.839	3287.67
958.012	3668.59
958.185	3402.36
958.359	3383.93
958.532	3510.9
958.705	3658.35
958.879	3541.62
959.052	3385.97
959.225	3236.47
959.398	3392.12
959.572	3719.79
959.745	3441.27
959.918	3461.75
960.091	3539.57
960.264	3883.63
960.438	3189.37
960.611	3351.16
960.784	3611.25
960.957	3433.08
961.13	3701.36
961.303	3297.91
961.476	3521.14
961.649	3814
961.822	3357.3
961.995	3396.21
962.168	3609.2
962.341	3580.53
962.514	3293.82
962.686	3345.02
962.859	3807.86
963.032	3732.08
963.205	3285.62
963.378	3302.01
963.551	3658.35
963.723	3615.35
963.896	3388.02
964.069	3351.16
964.242	3578.48
964.414	3674.74
964.587	3551.86
964.76	3291.77
964.932	3586.68
965.105	3568.24
965.278	3420.79
965.45	3289.72
965.623	3584.63
965.795	3705.46
965.968	3373.69
966.14	3347.06
966.313	3396.21
966.485	3580.53
966.658	3406.45
966.83	3254.91
967.003	3768.95
967.175	3781.23
967.348	3254.91
967.52	3435.13
967.692	3832.43
967.865	3605.11
968.037	3318.39
968.209	3566.2
968.382	3633.78
968.554	3832.43
968.726	3203.71
968.898	3117.69
969.071	3586.68
969.243	3582.58
969.415	3306.1
969.587	3340.92
969.759	3897.97
969.932	3535.48
970.104	3162.75
970.276	3056.25
970.448	3353.21
970.62	3355.26
970.792	3244.67
970.964	3289.72
971.136	4055.66
971.308	3488.37
971.48	3146.36
971.652	3277.43
971.824	3752.56
971.996	3263.1
972.168	3232.38
972.339	3218.04
972.511	3719.79
972.683	3238.52
972.855	3402.36
973.027	3189.37
973.199	3269.24
973.37	3535.48
973.542	3347.06
973.714	3328.63
973.886	3285.62
974.057	3494.52
974.229	2933.37
974.401	3093.12
974.572	2976.38
974.744	3003
974.915	3007.1
975.087	3000.96
975.259	3693.17
975.43	3056.25
975.602	3007.1
975.773	2898.56
975.945	2990.72
976.116	3363.45
976.288	2894.46
976.459	3281.53
976.63	3142.27
976.802	3248.76
976.973	3084.92
977.145	3207.8
977.316	3629.68
977.487	3420.79
977.659	3080.83
977.83	2931.33
978.001	3439.22
978.172	3168.89
978.344	2738.82
978.515	2951.81
978.686	3076.73
978.857	3373.69
979.028	2841.22
979.2	2962.05
979.371	3261.05
979.542	3193.47
979.713	2933.37
979.884	2597.51
980.055	2851.46
980.226	3017.34
980.397	2833.02
980.568	2658.95
980.739	3347.06
980.91	2968.19
981.081	2953.85
981.252	2732.67
981.423	3097.21
981.594	3306.1
981.765	2595.46
981.936	2820.74
982.106	2949.76
982.277	3285.62
982.448	2830.98
982.619	3007.1
982.79	3011.2
982.96	3314.3
983.131	2876.03
983.302	2472.58
983.472	2792.06
983.643	3027.58
983.814	2718.34
983.984	2527.88
984.155	2820.74
984.326	3132.03
984.496	2781.82
984.667	2566.79
984.837	2697.86
985.008	3119.74
985.178	2904.7
985.349	2579.08
985.519	2783.87
985.69	2620.03
985.86	2613.89
986.031	2603.65
986.201	2853.5
986.371	2704
986.542	2493.06
986.712	2249.35
986.882	2843.26
987.053	2765.44
987.223	2286.22
987.393	2716.29
987.563	2583.17
987.734	2882.17
987.904	2749.06
988.074	2439.81
988.244	2712.19
988.414	2499.2
988.585	2361.99
988.755	2507.4
988.925	2570.88
989.095	2933.37
989.265	2312.84
989.435	2413.19
989.605	2710.15
989.775	2820.74
989.945	2546.31
990.115	2122.38
990.285	2626.18
990.455	2685.57
990.625	2400.9
990.795	2220.68
990.965	2908.8
991.134	2253.45
991.304	2222.73
991.474	2179.72
991.644	2577.03
991.814	2841.22
991.984	2093.71
992.153	2126.47
992.323	2405
992.493	2364.04
992.662	2062.99
992.832	2263.69
993.002	2454.15
993.171	2548.36
993.341	2032.27
993.511	2304.65
993.68	2253.45
993.85	2499.2
994.019	1925.77
994.189	2024.08
994.358	2265.74
994.528	2183.82
994.697	1866.38
994.867	1989.26
995.036	2511.49
995.206	2183.82
995.375	1983.12
995.544	2222.73
995.714	2187.91
995.883	2282.12
996.052	2095.75
996.222	1790.61
996.391	2710.15
996.56	2153.1
996.73	1845.9
996.899	1839.76
997.068	2556.55
997.237	2214.54
997.406	1749.65
997.576	1782.42
997.745	2345.61
997.914	2202.25
998.083	1563.28
998.252	1864.33
998.421	2183.82
998.59	2017.93
998.759	1772.18
998.928	1782.42
999.097	2425.48
999.266	2204.3
999.435	1899.15
999.604	1630.87
999.773	2538.12
999.942	1979.02
1000.111	1645.2
1000.28	1495.7
1000.448	1893.01
1000.617	1811.09
1000.786	1931.92
1000.955	1643.15
1001.124	2280.07
1001.292	2605.7
1001.461	1538.71
1001.63	1628.82
1001.798	2314.89
1001.967	2187.91
1002.136	1516.18
1002.304	1555.09
1002.473	1981.07
1002.642	2003.6
1002.81	1561.23
1002.979	1667.73
1003.147	2069.13
1003.316	2364.04
1003.484	1538.71
1003.653	1512.08
1003.821	2101.9
1003.99	1841.81
1004.158	1641.11
1004.327	1634.96
1004.495	2005.64
1004.663	1573.52
1004.832	1634.96
1005	1442.45
1005.168	2007.69
1005.337	1938.06
1005.505	1282.71
1005.673	1653.39
1005.842	1970.83
1006.01	1923.73
1006.178	1338.01
1006.346	1516.18
1006.514	1872.53
1006.683	2108.04
1006.851	1454.74
1007.019	1481.36
1007.187	1591.95
1007.355	1258.14
1007.523	1235.61
1007.691	1321.62
1007.859	1397.4
1008.027	1907.34
1008.195	1327.77
1008.363	1307.29
1008.531	1831.57
1008.699	1516.18
1008.867	1346.2
1009.035	1340.05
1009.203	2032.27
1009.37	1639.06
1009.538	1284.76
1009.706	1884.81
1009.874	1688.21
1010.042	1553.04
1010.209	1208.98
1010.377	1219.22
1010.545	1905.29
1010.713	1675.92
1010.88	1180.31
1011.048	1251.99
1011.216	1462.93
1011.383	2050.7
1011.551	1153.69
1011.718	1077.91
1011.886	1782.42
1012.054	1546.9
1012.221	1147.55
1012.389	1159.83
1012.556	1479.32
1012.724	1833.61
1012.891	1299.09
1013.058	955.04
1013.226	1735.31
1013.393	1692.3
1013.561	975.52
1013.728	905.88
1013.895	1534.61
1014.063	1684.11
1014.23	971.42
1014.397	1112.73
1014.565	1739.41
1014.732	1262.23
1014.899	1039
1015.066	983.71
1015.233	1456.79
1015.401	1596.05
1015.568	1092.25
1015.735	1112.73
1015.902	1364.63
1016.069	1434.26
1016.236	979.61
1016.403	924.32
1016.57	1120.92
1016.737	1372.82
1016.904	1067.67
1017.071	864.93
1017.238	1100.44
1017.405	1591.95
1017.572	948.89
1017.739	1188.5
1017.906	1446.55
1018.073	1462.93
1018.24	791.2
1018.407	1024.67
1018.573	1630.87
1018.74	1108.63
1018.907	922.27
1019.074	748.19
1019.241	1368.73
1019.407	1319.57
1019.574	799.39
1019.741	660.13
1019.907	1305.24
1020.074	1325.72
1020.241	590.5
1020.407	803.49
1020.574	1208.98
1020.74	1292.95
1020.907	907.93
1021.073	709.28
1021.24	1620.63
1021.406	1415.83
1021.573	778.91
1021.739	805.53
1021.906	1381.01
1022.072	1125.02
1022.239	760.48
1022.405	830.11
1022.571	1143.45
1022.738	1055.39
1022.904	750.24
1023.07	823.97
1023.237	1176.22
1023.403	1331.86
1023.569	836.25
1023.735	740
1023.902	1163.93
1024.068	1153.69
1024.234	670.37
1024.4	705.18
1024.566	1186.46
1024.732	1254.04
1024.898	717.47
1025.065	545.44
1025.231	1219.22
1025.397	1024.67
1025.563	705.18
1025.729	594.59
1025.895	721.57
1026.061	815.77
1026.227	537.25
1026.392	623.27
1026.558	1290.9
1026.724	1186.46
1026.89	701.09
1027.056	746.14
1027.222	1045.15
1027.388	975.52
1027.553	559.78
1027.719	572.07
1027.885	1352.34
1028.051	1086.11
1028.216	473.76
1028.382	668.32
1028.548	1061.53
1028.713	893.6
1028.879	461.48
1029.045	840.35
1029.21	1260.18
1029.376	1243.8
1029.541	658.08
1029.707	619.17
1029.873	1108.63
1030.038	1233.56
1030.204	533.15
1030.369	676.51
1030.534	916.12
1030.7	862.88
1030.865	584.35
1031.031	461.48
1031.196	1049.24
1031.361	971.42
1031.527	524.96
1031.692	516.77
1031.857	490.15
1032.023	1137.31
1032.188	479.91
1032.353	602.79
1032.518	1274.52
1032.684	1075.87
1032.849	354.98
1033.014	615.07
1033.179	1028.76
1033.344	1004.19
1033.509	596.64
1033.674	545.44
1033.839	1073.82
1034.004	1088.15
1034.17	492.2
1034.335	426.66
1034.5	866.97
1034.664	682.66
1034.829	473.76
1034.994	457.38
1035.159	897.69
1035.324	914.08
1035.489	459.43
1035.654	479.91
1035.819	1135.26
1035.984	850.59
1036.148	516.77
1036.313	445.09
1036.478	1065.63
1036.643	877.21
1036.807	412.32
1036.972	402.08
1037.137	1192.6
1037.301	783.01
1037.466	248.49
1037.631	549.54
1037.795	996
1037.96	817.82
1038.124	602.79
1038.289	316.07
1038.454	926.36
1038.618	893.6
1038.783	406.18
1038.947	496.29
1039.111	811.68
1039.276	684.7
1039.44	418.47
1039.605	815.77
1039.769	721.57
1039.933	756.38
1040.098	533.15
1040.262	586.4
1040.426	1049.24
1040.591	881.31
1040.755	311.97
1040.919	367.27
1041.083	819.87
1041.248	676.51
1041.412	242.34
1041.576	295.59
1041.74	660.13
1041.904	944.8
1042.068	299.69
1042.232	410.28
1042.397	1006.24
1042.561	762.53
1042.725	51.88
1042.889	547.49
1043.053	819.87
1043.217	819.87
1043.381	541.35
1043.544	189.1
1043.708	965.28
1043.872	455.33
1044.036	123.56
1044.2	176.81
1044.364	887.45
1044.528	1079.96
1044.691	3252.86
1044.855	160.42
1045.019	996
1045.183	883.36
1045.346	279.21
1045.51	320.17
1045.674	844.45
1045.837	813.73
1046.001	238.25
1046.165	260.77
1046.328	1155.74
1046.492	740
1046.655	514.72
1046.819	301.73
1046.983	496.29
1047.146	815.77
1047.31	359.08
1047.473	107.18
1047.636	561.83
1047.8	463.52
1047.963	242.34
1048.127	285.35
1048.29	524.96
