Data from Hydrogel_Ink_Intensity_Test_1_USB4F045381__66__00066.txt Node

Date: Mon Jul 31 10:53:38 EDT 2023
User: mmckonesweet
Spectrometer: USB4F04538
Trigger mode: 4
Integration Time (sec): 9.000000E-1
Scans to average: 1
Electric dark correction enabled: true
Nonlinearity correction enabled: false
Boxcar width: 0
XAxis mode: Wavelengths
Number of Pixels in Spectrum: 3648
>>>>>Begin Spectral Data<<<<<
345.52	-1064.09
345.736	-1064.09
345.952	-1064.09
346.168	-1076.38
346.384	-971.93
346.6	-142.5
346.816	-253.09
347.032	-263.33
347.248	377.68
347.464	-287.91
347.68	-201.9
347.896	138.07
348.112	328.53
348.328	-50.35
348.544	-27.82
348.76	0.85
348.975	381.78
349.191	-162.98
349.407	-214.18
349.623	17.24
349.839	-132.26
350.055	-101.55
350.27	64.34
350.486	107.35
350.702	326.48
350.918	197.46
351.133	-89.26
351.349	160.59
351.565	375.63
351.781	-173.22
351.996	54.1
352.212	254.8
352.428	-126.12
352.644	-240.81
352.859	-169.13
353.075	326.48
353.291	-11.43
353.506	-132.26
353.722	-224.42
353.938	-79.02
354.153	453.45
354.369	189.27
354.584	-246.95
354.8	219.99
355.016	-275.62
355.231	-246.95
355.447	-132.26
355.662	74.58
355.878	889.67
356.093	-324.77
356.309	-23.72
356.524	-158.89
356.74	234.32
356.955	-167.08
357.171	-91.31
357.386	146.26
357.602	-226.47
357.817	-81.07
358.033	-179.37
358.248	365.39
358.464	133.97
358.679	-136.36
358.895	-337.06
359.11	62.29
359.325	275.28
359.541	271.19
359.756	0.85
359.972	-273.57
360.187	164.69
360.402	-189.61
360.618	-165.03
360.833	924.49
361.048	166.74
361.264	-220.33
361.479	-93.35
361.694	15.19
361.909	201.55
362.125	-191.66
362.34	-76.97
362.555	250.71
362.77	80.72
362.986	-304.29
363.201	-238.76
363.416	156.5
363.631	74.58
363.847	-226.47
364.062	-191.66
364.277	172.88
364.492	84.82
364.707	-165.03
364.922	-427.17
365.138	287.57
365.353	320.34
365.568	-302.25
365.783	-224.42
365.998	111.44
366.213	533.33
366.428	-228.52
366.643	101.2
366.858	320.34
367.073	238.42
367.288	-52.39
367.503	-259.24
367.718	127.83
367.933	357.2
368.148	-335.01
368.363	-17.58
368.578	23.38
368.793	518.99
369.008	-70.83
369.223	-171.18
369.438	125.78
369.653	408.4
369.868	-230.57
370.083	-304.29
370.298	146.26
370.513	400.21
370.728	109.4
370.943	-222.38
371.157	-185.51
371.372	478.03
371.587	-240.81
371.802	-195.75
372.017	125.78
372.232	422.73
372.446	-50.35
372.661	-289.96
372.876	189.27
373.091	226.13
373.306	-99.5
373.52	-279.72
373.735	-158.89
373.95	408.4
374.165	-138.41
374.379	-150.7
374.594	-107.69
374.809	54.1
375.023	80.72
375.238	-187.56
375.453	306
375.667	-187.56
375.882	-165.03
376.097	-177.32
376.311	17.24
376.526	107.35
376.741	-277.67
376.955	-3.24
377.17	547.66
377.384	564.04
377.599	-50.35
377.813	-279.72
378.028	533.33
378.242	205.65
378.457	-36.01
378.672	-345.25
378.886	115.54
379.101	-11.43
379.315	-296.1
379.53	-134.31
379.744	230.23
379.958	197.46
380.173	-132.26
380.387	-187.56
380.602	74.58
380.816	-93.35
381.031	-136.36
381.245	-156.84
381.459	154.45
381.674	2800.43
381.888	-171.18
382.103	62.29
382.317	-222.38
382.531	488.27
382.746	-3.24
382.96	-70.83
383.174	-158.89
383.388	461.65
383.603	74.58
383.817	-244.9
384.031	168.79
384.246	475.98
384.46	45.91
384.674	410.45
384.888	23.38
385.103	54.1
385.317	-300.2
385.531	52.05
385.745	336.72
385.959	396.11
386.174	-177.32
386.388	-304.29
386.602	52.05
386.816	-115.88
387.03	-72.87
387.244	-105.64
387.458	99.16
387.672	367.44
387.887	-289.96
388.101	-255.14
388.315	471.89
388.529	11.09
388.743	-117.93
388.957	-171.18
389.171	371.54
389.385	-158.89
389.599	-126.12
389.813	105.3
390.027	248.66
390.241	705.35
390.455	-107.69
390.669	-74.92
390.883	-42.15
391.097	439.12
391.311	129.88
391.525	-93.35
391.738	303.95
391.952	224.08
392.166	72.53
392.38	-175.27
392.594	389.97
392.808	303.95
393.022	-105.64
393.236	25.43
393.449	226.13
393.663	230.23
393.877	-238.76
394.091	-31.91
394.305	-62.63
394.518	-76.97
394.732	-167.08
394.946	-115.88
395.16	553.8
395.373	162.64
395.587	-109.74
395.801	-119.98
396.015	353.1
396.228	285.52
396.442	-255.14
396.656	-330.92
396.869	353.1
397.083	516.94
397.297	-5.29
397.51	-122.02
397.724	406.35
397.938	244.56
398.151	-320.68
398.365	-181.42
398.578	275.28
398.792	471.89
399.005	17.24
399.219	-128.17
399.433	219.99
399.646	334.67
399.86	105.3
400.073	50
400.287	267.09
400.5	-29.87
400.714	72.53
400.927	-31.91
401.141	332.62
401.354	1168.2
401.567	271.19
401.781	-226.47
401.994	312.14
402.208	731.98
402.421	-7.34
402.635	4.95
402.848	136.02
403.061	342.86
403.275	31.57
403.488	-296.1
403.701	512.85
403.915	406.35
404.128	86.87
404.341	-103.59
404.555	332.62
404.768	121.68
404.981	121.68
405.195	-140.46
405.408	602.96
405.621	344.91
405.834	168.79
406.048	-134.31
406.261	500.56
406.474	529.23
406.687	-122.02
406.9	74.58
407.114	140.12
407.327	299.86
407.54	-259.24
407.753	-226.47
407.966	-21.67
408.179	318.29
408.392	-154.79
408.605	-224.42
408.819	318.29
409.032	330.58
409.245	-44.2
409.458	138.07
409.671	332.62
409.884	482.13
410.097	-222.38
410.31	127.83
410.523	353.1
410.736	105.3
410.949	13.14
411.162	35.67
411.375	559.95
411.588	416.59
411.801	213.84
412.014	-167.08
412.227	146.26
412.44	82.77
412.653	23.38
412.865	189.27
413.078	402.26
413.291	418.64
413.504	25.43
413.717	-27.82
413.93	510.8
414.143	-3.24
414.356	37.72
414.568	-205.99
414.781	392.02
414.994	320.34
415.207	109.4
415.42	-5.29
415.632	426.83
415.845	641.87
416.058	-113.83
416.271	-165.03
416.483	172.88
416.696	639.82
416.909	-3.24
417.121	-44.2
417.334	367.44
417.547	729.93
417.759	-81.07
417.972	-93.35
418.185	113.49
418.397	512.85
418.61	-23.72
418.823	-15.53
419.035	615.24
419.248	234.32
419.46	37.72
419.673	86.87
419.885	271.19
420.098	185.17
420.311	-15.53
420.523	-195.75
420.736	379.73
420.948	250.71
421.161	54.1
421.373	-236.71
421.586	353.1
421.798	148.31
422.01	-162.98
422.223	119.64
422.435	129.88
422.648	369.49
422.86	-56.49
423.073	45.91
423.285	459.6
423.497	-38.06
423.71	7
423.922	-33.96
424.134	475.98
424.347	602.96
424.559	246.61
424.771	285.52
424.984	215.89
425.196	367.44
425.408	-191.66
425.621	-165.03
425.833	553.8
426.045	533.33
426.257	11.09
426.47	33.62
426.682	359.25
426.894	451.41
427.106	107.35
427.318	58.2
427.531	115.54
427.743	541.52
427.955	62.29
428.167	539.47
428.379	342.86
428.591	283.47
428.804	170.83
429.016	-31.91
429.228	189.27
429.44	371.54
429.652	150.36
429.864	-79.02
430.076	267.09
430.288	262.99
430.5	203.6
430.712	181.07
430.924	514.89
431.136	357.2
431.348	-62.63
431.56	-19.63
431.772	283.47
431.984	230.23
432.196	29.52
432.408	80.72
432.62	283.47
432.832	447.31
433.044	375.63
433.256	195.41
433.468	543.57
433.679	-17.58
433.891	-27.82
434.103	334.67
434.315	645.96
434.527	490.32
434.739	222.03
434.95	191.31
435.162	523.09
435.374	219.99
435.586	179.03
435.798	131.92
436.009	43.86
436.221	205.65
436.433	136.02
436.645	168.79
436.856	205.65
437.068	697.16
437.28	82.77
437.491	500.56
437.703	455.5
437.915	418.64
438.126	111.44
438.338	475.98
438.55	357.2
438.761	516.94
438.973	107.35
439.184	172.88
439.396	414.54
439.608	619.34
439.819	70.48
440.031	275.28
440.242	648.01
440.454	494.41
440.665	316.24
440.877	273.23
441.088	496.46
441.3	262.99
441.511	41.81
441.723	64.34
441.934	275.28
442.146	435.02
442.357	383.82
442.569	463.69
442.78	445.26
442.991	813.9
443.203	473.93
443.414	62.29
443.626	695.11
443.837	267.09
444.048	111.44
444.26	119.64
444.471	471.89
444.682	701.26
444.894	88.92
445.105	76.63
445.316	570.19
445.528	498.51
445.739	308.05
445.95	203.6
446.161	541.52
446.373	727.88
446.584	191.31
446.795	187.22
447.006	555.85
447.217	947.01
447.429	60.24
447.64	127.83
447.851	852.81
448.062	420.69
448.273	90.96
448.484	203.6
448.695	629.58
448.907	439.12
449.118	334.67
449.329	482.13
449.54	338.77
449.751	400.21
449.962	136.02
450.173	250.71
450.384	832.33
450.595	879.43
450.806	205.65
451.017	392.02
451.228	924.49
451.439	729.93
451.65	291.66
451.861	-23.72
452.072	314.19
452.283	410.45
452.494	357.2
452.705	209.75
452.915	955.21
453.126	629.58
453.337	303.95
453.548	228.18
453.759	752.46
453.97	1028.93
454.181	635.72
454.391	295.76
454.602	637.77
454.813	676.68
455.024	353.1
455.235	338.77
455.445	643.92
455.656	664.4
455.867	447.31
456.078	361.3
456.288	490.32
456.499	813.9
456.71	254.8
456.921	572.24
457.131	701.26
457.342	629.58
457.553	369.49
457.763	281.43
457.974	801.61
458.184	795.47
458.395	232.27
458.606	246.61
458.816	916.3
459.027	1145.67
459.237	643.92
459.448	357.2
459.659	922.44
459.869	1141.57
460.08	174.93
460.29	539.47
460.501	1016.65
460.711	617.29
460.922	324.43
461.132	459.6
461.343	1356.61
461.553	389.97
461.764	392.02
461.974	537.42
462.184	791.37
462.395	850.76
462.605	568.14
462.816	461.65
463.026	916.3
463.236	977.73
463.447	443.21
463.657	439.12
463.867	1030.98
464.078	645.96
464.288	570.19
464.498	615.24
464.709	774.99
464.919	736.07
465.129	621.39
465.339	467.79
465.55	858.95
465.76	994.12
465.97	625.48
466.18	498.51
466.391	1112.9
466.601	987.97
466.811	713.55
467.021	473.93
467.231	975.69
467.441	1217.35
467.651	607.05
467.862	361.3
468.072	951.11
468.282	1194.82
468.492	629.58
468.702	717.64
468.912	906.06
469.122	1487.68
469.332	955.21
469.542	666.44
469.752	1231.68
469.962	992.07
470.172	570.19
470.382	705.35
470.592	1168.2
470.802	1387.33
471.012	906.06
471.222	686.92
471.432	1315.65
471.642	1311.55
471.852	981.83
472.062	676.68
472.272	1084.23
472.482	758.6
472.691	844.62
472.901	693.07
473.111	1147.72
473.321	1786.68
473.531	861
473.741	1078.08
473.95	1405.76
474.16	1350.46
474.37	1047.37
474.58	881.48
474.79	1633.08
474.999	1375.04
475.209	926.54
475.419	1022.79
475.628	1215.3
475.838	1672
476.048	1143.62
476.258	920.39
476.467	1653.56
476.677	1246.02
476.886	1313.6
477.096	1184.58
477.306	1309.51
477.515	1706.81
477.725	1250.11
477.935	1182.53
478.144	1817.4
478.354	1233.73
478.563	1307.46
478.773	1180.48
478.982	1719.1
479.192	1786.68
479.401	1356.61
479.611	1307.46
479.82	1323.84
480.03	1708.86
480.239	1254.21
480.449	1276.74
480.658	2149.17
480.868	1557.31
481.077	1448.77
481.287	1372.99
481.496	1837.88
481.705	2075.45
481.915	1794.87
482.124	1727.29
482.333	1864.5
482.543	2186.04
482.752	1641.28
482.961	1463.1
483.171	1936.18
483.38	1817.4
483.589	1692.48
483.799	1553.21
484.008	1880.89
484.217	2005.81
484.426	1725.24
484.636	1667.9
484.845	1919.8
485.054	1645.37
485.263	1971
485.472	1717.05
485.682	2302.77
485.891	2030.39
486.1	1557.31
486.309	1682.24
486.518	2177.84
486.727	2411.31
486.936	1667.9
487.146	1905.46
487.355	2425.65
487.564	1919.8
487.773	1774.39
487.982	1942.33
488.191	2077.49
488.4	2085.69
488.609	1889.08
488.818	1954.62
489.027	2685.74
489.236	2614.06
489.445	1925.94
489.654	1880.89
489.863	2562.86
490.072	2290.48
490.281	2444.08
490.49	2159.41
490.698	2659.12
490.907	2781.99
491.116	2046.77
491.325	2038.58
491.534	2677.55
491.743	2495.28
491.952	2265.91
492.16	2212.66
492.369	2542.38
492.578	2622.25
492.787	2337.59
492.996	2083.64
493.204	2208.56
493.413	2945.83
493.622	1991.48
493.831	2042.68
494.039	2777.9
494.248	2405.17
494.457	2456.37
494.665	2222.9
494.874	2724.65
495.083	3121.96
495.291	2274.1
495.5	2388.78
495.709	2794.28
495.917	2634.54
496.126	2597.68
496.335	2306.87
496.543	2673.45
496.752	2929.45
496.96	2794.28
497.169	2263.86
497.377	2784.04
497.586	2954.02
497.794	2575.15
498.003	2249.52
498.211	2896.68
498.42	3236.64
498.628	2661.16
498.837	2444.08
499.045	3031.85
499.254	2917.16
499.462	2487.09
499.671	2521.9
499.879	3328.8
500.087	3042.09
500.296	2546.48
500.504	2569.01
500.713	3019.56
500.921	3513.12
501.129	2634.54
501.338	2779.95
501.546	3142.44
501.754	2964.26
501.962	2845.48
502.171	2663.21
502.379	3162.92
502.587	3441.44
502.795	2886.44
503.004	2765.61
503.212	2968.36
503.42	3382.05
503.628	2908.97
503.837	2843.43
504.045	3289.89
504.253	3539.74
504.461	2851.63
504.669	2675.5
504.877	3275.56
505.085	3506.98
505.294	2745.13
505.502	3056.42
505.71	3320.61
505.918	3476.26
506.126	2915.11
506.334	2925.35
506.542	3033.9
506.75	3281.7
506.958	3035.94
507.166	3017.51
507.374	3183.4
507.582	3908.38
507.79	3091.24
507.998	2988.84
508.206	3433.25
508.414	3382.05
508.622	2898.73
508.83	3068.71
509.037	3662.62
509.245	3201.83
509.453	2994.98
509.661	2892.59
509.869	3334.95
510.077	3257.12
510.285	3224.36
510.492	2741.04
510.7	3980.06
510.908	3330.85
511.116	3121.96
511.324	3062.57
511.531	3502.88
511.739	3713.82
511.947	3148.58
512.155	3539.74
512.362	3482.4
512.57	3234.6
512.778	3058.47
512.985	3111.72
513.193	3625.76
513.401	3842.84
513.608	3281.7
513.816	3132.2
514.024	3631.9
514.231	3912.47
514.439	3318.56
514.646	3224.36
514.854	3822.36
515.061	3867.42
515.269	3400.48
515.477	3404.58
515.684	3621.66
515.892	3777.31
516.099	3093.29
516.307	3246.88
516.514	4021.02
516.722	4043.54
516.929	3621.66
517.136	3373.86
517.344	4059.93
517.551	3926.81
517.759	3390.24
517.966	3468.06
518.173	3568.41
518.381	3750.68
518.588	3552.03
518.796	3466.02
519.003	3859.23
519.21	3674.91
519.418	3371.81
519.625	3738.4
519.832	3691.29
520.039	3908.38
520.247	3392.29
520.454	3529.5
520.661	4096.79
520.868	4078.36
521.076	3726.11
521.283	3656.48
521.49	4573.97
521.697	4035.35
521.904	3750.68
522.112	3607.33
522.319	4035.35
522.526	3928.86
522.733	3511.07
522.94	3521.31
523.147	3898.14
523.354	4100.89
523.561	3511.07
523.768	3799.84
523.975	4180.76
524.183	4027.16
524.39	3762.97
524.597	3545.89
524.804	4150.04
525.011	3896.09
525.218	3685.15
525.425	3801.88
525.632	4412.18
525.838	3935
526.045	3834.65
526.252	3805.98
526.459	5405.44
526.666	4907.79
526.873	3711.77
527.08	3894.04
527.287	4604.69
527.494	4567.82
527.701	3824.41
527.907	3916.57
528.114	4336.4
528.321	4274.96
528.528	3932.95
528.735	3861.27
528.941	4039.45
529.148	4160.28
529.355	3910.43
529.562	3855.13
529.768	4610.83
529.975	4090.65
530.182	3963.67
530.388	3961.62
530.595	4645.65
530.802	4109.08
531.008	4272.92
531.215	4004.63
531.422	5163.78
531.628	4967.18
531.835	4082.46
532.042	4219.67
532.248	4379.41
532.455	4391.7
532.661	4199.19
532.868	4035.35
533.074	4590.35
533.281	4881.16
533.487	4293.4
533.694	4244.24
533.9	4373.27
534.107	4645.65
534.313	4076.31
534.52	4225.81
534.726	4866.83
534.933	4901.64
535.139	4176.66
535.345	4117.27
535.552	4793.1
535.758	4596.5
535.965	4354.83
536.171	4180.76
536.377	4764.43
536.584	4987.66
536.79	4217.62
536.996	4418.32
537.203	4782.86
537.409	4895.5
537.615	4317.97
537.821	4524.82
538.028	4977.42
538.234	4801.29
538.44	4403.99
538.646	4510.48
538.853	4942.6
539.059	4659.98
539.265	4780.81
539.471	4281.11
539.677	4961.03
539.883	4799.24
540.09	4395.79
540.296	5008.14
540.502	4834.06
540.708	4672.27
540.914	4684.56
541.12	4473.62
541.326	5118.73
541.532	4799.24
541.738	4702.99
541.944	4719.37
542.15	5202.69
542.356	4899.59
542.562	4596.5
542.768	4715.28
542.974	5509.89
543.18	5608.19
543.386	4707.09
543.592	4479.76
543.798	5395.2
544.004	5182.21
544.21	4639.5
544.415	4875.02
544.621	5217.03
544.827	5432.07
545.033	4651.79
545.239	4920.07
545.445	4860.68
545.651	5161.73
545.856	4651.79
546.062	4877.07
546.268	4977.42
546.474	5067.53
546.679	4846.35
546.885	4866.83
547.091	5034.76
547.297	5718.78
547.502	4928.27
547.708	4743.95
547.914	5157.64
548.119	5401.35
548.325	4770.57
548.531	4709.13
548.736	5546.75
548.942	5098.25
549.147	4842.25
549.353	5092.1
549.559	5481.22
549.764	5454.59
549.97	4934.41
550.175	4928.27
550.381	5309.19
550.586	5135.11
550.792	4928.27
550.997	5075.72
551.203	5356.29
551.408	5649.15
551.614	4954.89
551.819	5053.19
552.025	5851.9
552.23	5739.26
552.435	5040.9
552.641	5403.39
552.846	5337.86
553.052	5700.35
553.257	5206.79
553.462	5026.57
553.668	5317.38
553.873	5563.14
554.078	5167.88
554.283	5004.04
554.489	5606.14
554.694	5376.77
554.899	5151.49
555.105	5362.44
555.31	5520.13
555.515	5671.68
555.72	5352.2
555.925	5176.07
556.131	5802.75
556.336	5362.44
556.541	5227.27
556.746	5206.79
556.951	5821.18
557.156	6146.81
557.361	5407.49
557.567	5585.66
557.772	6077.18
557.977	5806.84
558.182	5278.47
558.387	5206.79
558.592	5423.87
558.797	6064.89
559.002	5434.11
559.207	5626.62
559.412	5616.38
559.617	6263.54
559.822	5473.03
560.027	5460.74
560.232	5718.78
560.437	5982.97
560.642	5290.76
560.847	5391.11
561.051	5765.89
561.256	5772.03
561.461	5565.18
561.666	5294.85
561.871	5788.41
562.076	6089.46
562.281	5405.44
562.485	5235.46
562.69	6042.36
562.895	6146.81
563.1	5526.27
563.305	5350.15
563.509	6087.42
563.714	6236.92
563.919	5497.6
564.123	5493.51
564.328	5870.33
564.533	6148.86
564.737	5608.19
564.942	5452.55
565.147	6251.25
565.351	6204.15
565.556	5522.18
565.761	5638.91
565.965	6134.52
566.17	5698.3
566.374	5688.06
566.579	5593.86
566.784	5950.2
566.988	5890.81
567.193	5348.1
567.397	5567.23
567.602	5796.6
567.806	5888.76
568.011	5845.76
568.215	5681.92
568.42	5913.34
568.624	5946.11
568.828	5796.6
569.033	5878.52
569.237	6212.34
569.442	6236.92
569.646	5579.52
569.85	5808.89
570.055	6159.1
570.259	6050.55
570.463	6169.34
570.668	5772.03
570.872	5993.21
571.076	5944.06
571.281	5784.32
571.485	5931.77
571.689	6103.8
571.893	6304.5
572.098	5987.07
572.302	5831.42
572.506	6454
572.71	5987.07
572.914	5753.6
573.119	5952.25
573.323	6322.93
573.527	6363.89
573.731	5792.51
573.935	5870.33
574.139	6304.5
574.343	6009.59
574.547	5913.34
574.751	6120.18
574.955	6427.38
575.159	6558.45
575.364	5874.43
575.568	5903.1
575.772	6324.98
575.976	6615.79
576.18	5880.57
576.383	5772.03
576.587	6554.35
576.791	6417.14
576.995	5835.52
577.199	5823.23
577.403	6660.85
577.607	6675.18
577.811	6038.27
578.015	6132.47
578.219	6361.84
578.422	6591.22
578.626	6296.31
578.83	6189.81
579.034	6796.01
579.238	6439.67
579.442	6030.07
579.645	6365.94
579.849	6601.46
580.053	6431.48
580.257	5997.31
580.46	6148.86
580.664	6734.57
580.868	6615.79
581.071	6408.95
581.275	6275.83
581.479	6140.66
581.682	6703.86
581.886	6353.65
582.09	6236.92
582.293	6501.11
582.497	6955.76
582.7	6462.19
582.904	6337.27
583.107	6544.11
583.311	6578.93
583.515	6492.91
583.718	6408.95
583.922	6640.37
584.125	6998.76
584.329	6232.82
584.532	6433.52
584.735	6951.66
584.939	6671.09
585.142	6042.36
585.346	6345.46
585.549	6824.69
585.753	6499.06
585.956	6501.11
586.159	6492.91
586.363	7027.43
586.566	6884.08
586.769	6310.65
586.973	6468.34
587.176	6845.16
587.379	7006.95
587.582	6773.49
587.786	6681.33
587.989	6773.49
588.192	7394.02
588.395	6554.35
588.599	6742.77
588.802	6845.16
589.005	7056.11
589.208	6712.05
589.411	6488.82
589.615	7070.44
589.818	7265
590.021	6689.52
590.224	6699.76
590.427	7035.63
590.63	6968.04
590.833	6464.24
591.036	6505.2
591.239	6841.07
591.442	6779.63
591.645	7049.96
591.848	6552.31
592.051	6906.6
592.254	7082.73
592.457	6781.68
592.66	6847.21
592.863	7000.81
593.066	7066.35
593.269	6398.71
593.472	6857.45
593.675	6963.95
593.878	7348.97
594.081	6796.01
594.284	6816.49
594.486	7168.74
594.689	7144.17
594.892	6683.38
595.095	6748.91
595.298	7232.23
595.5	7029.48
595.703	7101.16
595.906	7074.54
596.109	7361.25
596.311	7408.36
596.514	6503.15
596.717	6859.5
596.92	7621.35
597.122	7140.07
597.325	6695.66
597.528	6761.2
597.73	7494.37
597.933	7162.6
598.136	6826.73
598.338	6787.82
598.541	7369.44
598.743	7588.58
598.946	7019.24
599.148	7076.59
599.351	7498.47
599.554	7635.68
599.756	7160.55
599.959	6966
600.161	7576.29
600.363	7957.21
600.566	7269.09
600.768	7054.06
600.971	7752.42
601.173	7637.73
601.376	7109.35
601.578	7068.39
601.78	7549.67
601.983	8008.41
602.185	6978.28
602.388	7209.7
602.59	7314.15
602.792	7260.9
602.995	7090.92
603.197	7054.06
603.399	7776.99
603.601	7494.37
603.804	7205.61
604.006	7066.35
604.208	7326.44
604.41	7119.59
604.613	7291.62
604.815	6937.32
605.017	8082.14
605.219	7189.22
605.421	7541.47
605.623	7285.48
605.826	7877.34
606.028	7848.67
606.23	7168.74
606.432	7299.81
606.634	7930.59
606.836	7975.64
607.038	6826.73
607.24	7430.88
607.442	7693.02
607.644	7578.34
607.846	7365.35
608.048	7080.68
608.25	7785.18
608.452	7402.21
608.654	7281.38
608.856	7054.06
609.058	7549.67
609.26	7590.63
609.462	7293.67
609.664	7482.08
609.866	7856.86
610.067	7609.06
610.269	7371.49
610.471	7410.4
610.673	7445.22
610.875	7746.27
611.077	7127.78
611.278	7330.53
611.48	7637.73
611.682	8026.84
611.884	7475.94
612.085	7303.91
612.287	7424.74
612.489	7766.75
612.69	7148.26
612.892	7451.36
613.094	7895.77
613.295	7623.39
613.497	7258.85
613.699	7305.96
613.9	7959.26
614.102	7903.96
614.304	7455.46
614.505	7029.48
614.707	7533.28
614.908	7553.76
615.11	7185.13
615.311	7355.11
615.513	7715.55
615.714	7885.53
615.916	7211.75
616.117	7342.82
616.319	7686.88
616.52	7938.78
616.722	7277.29
616.923	7273.19
617.124	7951.07
617.326	7617.25
617.527	7342.82
617.729	7756.51
617.93	7787.23
618.131	7856.86
618.333	7277.29
618.534	7533.28
618.735	7473.89
618.937	7969.5
619.138	7291.62
619.339	7398.12
619.54	7713.5
619.742	7502.56
619.943	7508.71
620.144	7631.58
620.345	8010.46
620.546	8012.51
620.748	7463.65
620.949	7394.02
621.15	7729.89
621.351	7805.66
621.552	7422.69
621.753	7293.67
621.954	7512.8
622.155	8159.96
622.356	7394.02
622.558	7713.5
622.759	7883.49
622.96	8121.05
623.161	7611.11
623.362	7516.9
623.563	7858.91
623.764	7877.34
623.965	7549.67
624.166	7580.39
624.366	7604.96
624.567	7760.61
624.768	7310.05
624.969	7254.76
625.17	7564
625.371	7903.96
625.572	7621.35
625.773	7312.1
625.973	7926.49
626.174	7949.02
626.375	7600.87
626.576	7494.37
626.777	7957.21
626.977	8422.1
627.178	7586.53
627.379	7729.89
627.58	7822.05
627.78	7791.33
627.981	7615.2
628.182	7785.18
628.382	8180.44
628.583	7598.82
628.784	7430.88
628.984	7795.42
629.185	8168.15
629.386	7951.07
629.586	7484.13
629.787	7449.32
629.987	8102.62
630.188	7877.34
630.388	7537.38
630.589	7854.81
630.79	8370.9
630.99	7828.19
631.191	7658.21
631.391	7852.77
631.591	8106.71
631.792	8411.86
631.992	7846.62
632.193	7971.55
632.393	8420.05
632.594	7924.44
632.794	7615.2
632.994	7854.81
633.195	7881.44
633.395	7926.49
633.595	7576.29
633.796	7828.19
633.996	7785.18
634.196	8430.29
634.397	7590.63
634.597	7779.04
634.797	7881.44
634.997	8133.34
635.198	7881.44
635.398	7748.32
635.598	8221.4
635.798	8272.6
635.998	8205.02
636.199	7635.68
636.399	8043.23
636.599	7588.58
636.799	7901.92
636.999	7826.14
637.199	8114.91
637.399	8200.92
637.599	7842.53
637.799	7762.65
637.999	7842.53
638.199	8360.66
638.399	7596.77
638.599	7932.64
638.799	8202.97
638.999	8614.61
639.199	8055.51
639.399	7908.06
639.599	8411.86
639.799	7615.2
639.999	7820
640.199	7697.12
640.399	8078.04
640.599	8075.99
640.799	7965.4
640.998	8114.91
641.198	8295.13
641.398	8207.06
641.598	8114.91
641.798	8039.13
641.997	9114.31
642.197	8123.1
642.397	8157.91
642.597	7684.83
642.796	8198.87
642.996	8307.41
643.196	8147.67
643.395	7744.22
643.595	8139.48
643.795	7709.41
643.994	7688.93
644.194	7873.25
644.394	8354.52
644.593	8362.71
644.793	7928.54
644.992	7946.97
645.192	8039.13
645.392	7607.01
645.591	8047.32
645.791	7848.67
645.99	8243.93
646.19	8125.15
646.389	8151.77
646.589	8051.42
646.788	8387.29
646.987	8086.23
647.187	8379.09
647.386	8241.88
647.586	8422.1
647.785	8753.87
647.984	8119
648.184	8225.5
648.383	8235.74
648.582	8057.56
648.782	7971.55
648.981	8008.41
649.18	8233.69
649.38	8379.09
649.579	8184.54
649.778	7979.74
649.977	8418
650.177	8536.79
650.376	7854.81
650.575	8180.44
650.774	8694.48
650.973	8145.63
651.173	8004.32
651.372	8123.1
651.571	8381.14
651.77	8571.6
651.969	8024.79
652.168	8098.52
652.367	7942.88
652.566	8389.33
652.765	8000.22
652.964	8262.36
653.163	8727.25
653.362	8239.83
653.561	8065.75
653.76	8188.63
653.959	8397.53
654.158	8475.35
654.357	8501.97
654.556	8260.31
654.755	8592.08
654.954	8604.37
655.153	8139.48
655.352	8241.88
655.551	8737.49
655.749	8426.2
655.948	8174.3
656.147	8461.01
656.346	8526.55
656.545	8297.17
656.743	8135.39
656.942	8454.87
657.141	8366.81
657.34	8321.75
657.538	8295.13
657.737	8143.58
657.936	8350.42
658.135	8598.23
658.333	8295.13
658.532	8401.62
658.731	8940.24
658.929	8692.43
659.128	8383.19
659.326	8137.43
659.525	8723.15
659.724	8237.78
659.922	7955.16
660.121	8170.2
660.319	8485.59
660.518	8354.52
660.716	7973.6
660.915	8082.14
661.113	8866.51
661.312	8291.03
661.51	8397.53
661.709	8059.61
661.907	8796.88
662.105	8960.72
662.304	8272.6
662.502	8567.51
662.701	8788.69
662.899	8311.51
663.097	8770.26
663.296	8114.91
663.494	8856.27
663.692	8956.62
663.891	8106.71
664.089	8381.14
664.287	8463.06
664.485	8735.44
664.684	8340.18
664.882	8524.5
665.08	8520.4
665.278	8757.97
665.476	7787.23
665.675	8497.88
665.873	8809.17
666.071	8585.94
666.269	8205.02
666.467	8577.75
666.665	8610.51
666.863	8364.76
667.061	8573.65
667.259	8223.45
667.457	8518.36
667.655	8712.91
667.853	8164.06
668.051	8202.97
668.249	8180.44
668.447	8643.28
668.645	8104.67
668.843	8518.36
669.041	8671.95
669.239	8481.49
669.437	8393.43
669.635	8530.64
669.833	8446.68
670.031	8532.69
670.229	8196.82
670.426	8284.89
670.624	8561.36
670.822	8295.13
671.02	8143.58
671.218	8067.8
671.415	8368.85
671.613	8266.46
671.811	8387.29
672.009	8237.78
672.206	8657.62
672.404	8442.58
672.602	8260.31
672.799	8418
672.997	8626.9
673.195	8655.57
673.392	8499.92
673.59	8102.62
673.788	8768.21
673.985	7750.37
674.183	8305.37
674.38	8211.16
674.578	8739.54
674.775	8295.13
674.973	8174.3
675.17	8196.82
675.368	8696.53
675.565	8596.18
675.763	7973.6
675.96	7918.3
676.158	8725.2
676.355	8426.2
676.553	8190.68
676.75	8143.58
676.947	8385.24
677.145	8295.13
677.342	8311.51
677.539	8245.98
677.737	8452.82
677.934	8901.33
678.131	8360.66
678.329	8254.17
678.526	8770.26
678.723	8600.27
678.92	8344.28
679.118	8174.3
679.315	7971.55
679.512	8719.06
679.709	8266.46
679.906	8262.36
680.104	8692.43
680.301	8581.84
680.498	7844.57
680.695	8123.1
680.892	8131.29
681.089	8207.06
681.286	8239.83
681.483	7803.61
681.68	8397.53
681.877	8594.13
682.075	8278.74
682.272	8331.99
682.469	8286.93
682.665	8278.74
682.862	7926.49
683.059	7820
683.256	8358.61
683.453	8424.15
683.65	8078.04
683.847	8245.98
684.044	8219.35
684.241	7967.45
684.438	8151.77
684.635	7848.67
684.831	8688.34
685.028	8737.49
685.225	8053.47
685.422	8108.76
685.619	8192.73
685.815	8241.88
686.012	8061.66
686.209	7942.88
686.405	8053.47
686.602	8442.58
686.799	7729.89
686.996	7887.58
687.192	8082.14
687.389	8753.87
687.586	7975.64
687.782	8024.79
687.979	8577.75
688.175	8518.36
688.372	7973.6
688.568	7934.68
688.765	7889.63
688.962	8465.11
689.158	7934.68
689.355	7901.92
689.551	8477.4
689.748	8141.53
689.944	8200.92
690.14	7934.68
690.337	8188.63
690.533	8248.02
690.73	8188.63
690.926	8149.72
691.123	8336.09
691.319	8170.2
691.515	7748.32
691.712	8121.05
691.908	8262.36
692.104	8088.28
692.301	8145.63
692.497	7871.2
692.693	8227.54
692.889	8243.93
693.086	8010.46
693.282	7656.16
693.478	8094.43
693.674	8483.54
693.87	7766.75
694.067	7633.63
694.263	8022.75
694.459	8030.94
694.655	7848.67
694.851	8164.06
695.047	8213.21
695.243	8297.17
695.439	7981.79
695.635	7699.17
695.831	8121.05
696.027	8217.3
696.224	7776.99
696.42	8286.93
696.615	8442.58
696.811	8162.01
697.007	7811.81
697.203	7682.78
697.399	8164.06
697.595	8260.31
697.791	7647.97
697.987	7932.64
698.183	7705.31
698.379	7766.75
698.575	7713.5
698.77	7801.57
698.966	8188.63
699.162	8272.6
699.358	7820
699.554	7701.22
699.749	8059.61
699.945	8086.23
700.141	8096.47
700.337	8112.86
700.532	7897.82
700.728	7820
700.924	7756.51
701.119	7584.48
701.315	8168.15
701.511	7844.57
701.706	7926.49
701.902	7475.94
702.097	7774.94
702.293	8082.14
702.489	7955.16
702.684	7607.01
702.88	7922.4
703.075	7760.61
703.271	7701.22
703.466	7658.21
703.662	7949.02
703.857	8063.71
704.053	7713.5
704.248	7537.38
704.443	8245.98
704.639	8045.27
704.834	7803.61
705.03	7537.38
705.225	8116.95
705.42	8123.1
705.616	7592.67
705.811	7477.99
706.006	7748.32
706.202	7678.69
706.397	7703.26
706.592	7396.07
706.787	7979.74
706.983	8035.03
707.178	8084.19
707.373	7656.16
707.568	7975.64
707.763	8207.06
707.959	7742.18
708.154	7615.2
708.349	7824.09
708.544	7973.6
708.739	7901.92
708.934	7660.26
709.129	7996.12
709.324	8032.99
709.519	7525.09
709.714	7430.88
709.909	8196.82
710.104	7809.76
710.299	7457.51
710.494	7525.09
710.689	7989.98
710.884	7707.36
711.079	7717.6
711.274	7733.98
711.469	7914.2
711.664	7901.92
711.859	7652.06
712.054	7641.82
712.249	7754.46
712.443	7903.96
712.638	7328.49
712.833	7467.75
713.028	7688.93
713.223	7607.01
713.417	7895.77
713.612	7398.12
713.807	7942.88
714.002	8407.77
714.196	7721.7
714.391	7496.42
714.586	7895.77
714.78	7707.36
714.975	7355.11
715.17	7422.69
715.364	7795.42
715.559	7992.03
715.754	7301.86
715.948	7230.18
716.143	8088.28
716.337	7723.74
716.532	7996.12
716.726	7496.42
716.921	8057.56
717.115	8241.88
717.31	7342.82
717.504	8035.03
717.699	7543.52
717.893	7516.9
718.088	7279.33
718.282	7342.82
718.476	7566.05
718.671	7531.23
718.865	7336.68
719.059	7336.68
719.254	7408.36
719.448	7863.01
719.642	8620.75
719.837	7099.11
720.031	7713.5
720.225	7887.58
720.419	7377.64
720.614	7336.68
720.808	7707.36
721.002	7316.2
721.196	7201.51
721.39	7394.02
721.585	7836.38
721.779	7625.44
721.973	7351.01
722.167	7109.35
722.361	7604.96
722.555	7652.06
722.749	7221.99
722.943	7115.5
723.137	7111.4
723.331	7600.87
723.525	7273.19
723.719	7138.02
723.913	7650.02
724.107	7715.55
724.301	7017.19
724.495	7394.02
724.689	7944.92
724.883	7873.25
725.077	7119.59
725.271	7215.85
725.465	7881.44
725.659	7400.16
725.853	7205.61
726.046	7025.39
726.24	7193.32
726.434	7684.83
726.628	7365.35
726.822	7238.37
727.015	7660.26
727.209	7746.27
727.403	7305.96
727.596	7133.93
727.79	7733.98
727.984	7672.54
728.177	7291.62
728.371	7242.47
728.565	7635.68
728.758	7271.14
728.952	7062.25
729.146	7131.88
729.339	7672.54
729.533	7461.6
729.726	7236.33
729.92	7156.46
730.113	7779.04
730.307	7516.9
730.5	7181.03
730.694	7131.88
730.887	7262.95
731.081	7572.19
731.274	7281.38
731.468	7133.93
731.661	7447.27
731.854	7480.04
732.048	7295.72
732.241	7060.2
732.435	7193.32
732.628	7633.63
732.821	7303.91
733.014	7346.92
733.208	7236.33
733.401	7516.9
733.594	7172.84
733.788	7099.11
733.981	7695.07
734.174	7520.99
734.367	7017.19
734.56	7287.53
734.754	7631.58
734.947	7410.4
735.14	7119.59
735.333	7168.74
735.526	7664.35
735.719	7346.92
735.912	7199.46
736.105	6968.04
736.298	7475.94
736.491	7385.83
736.684	7176.94
736.877	7115.5
737.07	7418.6
737.263	7617.25
737.456	7047.91
737.649	6986.47
737.842	7310.05
738.035	7451.36
738.228	7246.57
738.421	7336.68
738.614	7578.34
738.807	7641.82
739	6906.6
739.192	6943.47
739.385	7340.77
739.578	7539.43
739.771	7168.74
739.964	7127.78
740.156	7342.82
740.349	7262.95
740.542	7287.53
740.735	6726.38
740.927	7060.2
741.12	7054.06
741.313	6920.94
741.505	7199.46
741.698	7199.46
741.891	7383.78
742.083	7254.76
742.276	6914.8
742.468	7480.04
742.661	7131.88
742.854	7197.42
743.046	6898.41
743.239	7566.05
743.431	7301.86
743.624	7140.07
743.816	6920.94
744.009	7299.81
744.201	7330.53
744.393	7131.88
744.586	6824.69
744.778	7469.8
744.971	7148.26
745.163	6914.8
745.355	7189.22
745.548	7320.29
745.74	7064.3
745.932	7037.67
746.125	6910.7
746.317	7817.95
746.509	7052.01
746.702	7035.63
746.894	7244.52
747.086	7123.69
747.278	7820
747.471	7049.96
747.663	6982.38
747.855	7228.14
748.047	7566.05
748.239	6826.73
748.431	6961.9
748.623	7576.29
748.815	7424.74
749.008	6748.91
749.2	6728.43
749.392	7383.78
749.584	7353.06
749.776	7004.91
749.968	7080.68
750.16	7586.53
750.352	7129.83
750.544	7025.39
750.736	6927.08
750.928	7420.64
751.12	7213.8
751.311	7054.06
751.503	7140.07
751.695	7135.98
751.887	7146.22
752.079	6787.82
752.271	6818.54
752.463	7781.09
752.654	7224.04
752.846	6978.28
753.038	6779.63
753.23	6888.17
753.421	7226.09
753.613	6710
753.805	7154.41
753.997	7250.66
754.188	7318.25
754.38	6722.29
754.572	6826.73
754.763	7068.39
754.955	7195.37
755.146	7025.39
755.338	6820.59
755.53	7078.63
755.721	6834.93
755.913	6486.77
756.104	6810.35
756.296	6959.85
756.487	7244.52
756.679	6664.94
756.87	6589.17
757.062	6691.57
757.253	7181.03
757.445	6650.61
757.636	6814.45
757.827	6935.28
758.019	7549.67
758.21	6619.89
758.401	6599.41
758.593	7611.11
758.784	7295.72
758.975	6515.44
759.167	6384.37
759.358	6771.44
759.549	7174.89
759.74	6423.28
759.932	6523.63
760.123	7086.83
760.314	6849.26
760.505	6775.53
760.696	6476.53
760.888	7267.05
761.079	6718.19
761.27	6298.36
761.461	6316.79
761.652	7367.4
761.843	6660.85
762.034	6429.43
762.225	6748.91
762.416	6710
762.607	6763.25
762.798	6425.33
762.989	6568.69
763.18	7512.8
763.371	6673.14
763.562	6419.19
763.753	6574.83
763.944	7078.63
764.135	6957.8
764.326	6554.35
764.517	6331.12
764.708	6730.48
764.899	6804.21
765.089	6265.59
765.28	6204.15
765.471	6927.08
765.662	6886.12
765.853	6443.76
766.043	6155
766.234	6931.18
766.425	6816.49
766.615	6513.39
766.806	6404.85
766.997	6839.02
767.187	6685.42
767.378	6290.17
767.569	6181.62
767.759	6793.97
767.95	6775.53
768.141	6435.57
768.331	6187.77
768.522	6417.14
768.712	6744.81
768.903	6333.17
769.093	6380.28
769.284	6910.7
769.474	6454
769.665	6066.94
769.855	6099.7
770.046	6845.16
770.236	6595.31
770.426	6296.31
770.617	6036.22
770.807	6404.85
770.998	6556.4
771.188	6372.08
771.378	6105.85
771.569	6497.01
771.759	6546.16
771.949	6152.95
772.139	5874.43
772.33	6492.91
772.52	6570.74
772.71	6159.1
772.9	5827.32
773.09	6673.14
773.281	6828.78
773.471	6089.46
773.661	6206.2
773.851	6585.07
774.041	6224.63
774.231	5942.01
774.421	6396.66
774.611	6679.28
774.802	6378.23
774.992	6107.9
775.182	5856
775.372	6261.49
775.562	6421.24
775.752	6224.63
775.942	5870.33
776.131	6779.63
776.321	6292.21
776.511	6001.4
776.701	5829.37
776.891	6456.05
777.081	6077.18
777.271	5913.34
777.461	5960.44
777.651	6230.77
777.84	6331.12
778.03	6060.79
778.22	5782.27
778.41	6468.34
778.599	5884.67
778.789	5980.92
778.979	5845.76
779.169	6275.83
779.358	6175.48
779.548	6214.39
779.738	5704.45
779.927	6101.75
780.117	5960.44
780.307	6105.85
780.496	5593.86
780.686	6300.41
780.875	6503.15
781.065	5741.31
781.254	5747.45
781.444	6036.22
781.633	5991.16
781.823	5657.34
782.012	5645.06
782.202	6136.57
782.391	6038.27
782.581	5640.96
782.77	5888.76
782.96	6275.83
783.149	5896.96
783.338	5745.41
783.528	5358.34
783.717	6234.87
783.906	6165.24
784.096	5726.97
784.285	5722.88
784.474	5815.04
784.663	5698.3
784.853	5726.97
785.042	5739.26
785.231	5837.56
785.42	6234.87
785.61	5815.04
785.799	5438.21
785.988	5692.16
786.177	5720.83
786.366	5579.52
786.555	5784.32
786.744	5989.11
786.933	5866.24
787.122	5536.51
787.312	5466.88
787.501	5538.56
787.69	5962.49
787.879	5612.29
788.068	5362.44
788.257	5376.77
788.445	5645.06
788.634	5534.46
788.823	5436.16
789.012	6411
789.201	6083.32
789.39	5452.55
789.579	5505.79
789.768	5681.92
789.957	5804.8
790.145	5356.29
790.334	5257.99
790.523	5544.7
790.712	5532.42
790.9	5516.03
791.089	5219.08
791.278	5958.39
791.467	5878.52
791.655	5993.21
791.844	5858.04
792.033	5483.27
792.221	5454.59
792.41	5419.78
792.599	5319.43
792.787	5722.88
792.976	5747.45
793.164	5264.13
793.353	5399.3
793.541	5815.04
793.73	5772.03
793.918	5520.13
794.107	5249.8
794.295	5583.62
794.484	5671.68
794.672	5382.92
794.861	5092.1
795.049	5638.91
795.238	5944.06
795.426	5143.3
795.614	5567.23
795.803	5645.06
795.991	5610.24
796.179	5354.24
796.368	5262.09
796.556	5905.15
796.744	5415.68
796.932	5274.37
797.121	5014.28
797.309	5522.18
797.497	5790.46
797.685	5290.76
797.874	5298.95
798.062	5462.79
798.25	5681.92
798.438	5219.08
798.626	5026.57
798.814	5532.42
799.002	5933.82
799.19	5221.13
799.378	5280.52
799.566	5747.45
799.755	5800.7
799.943	5362.44
800.131	5219.08
800.318	5501.7
800.506	5581.57
800.694	5153.54
800.882	5305.09
801.07	5776.13
801.258	5391.11
801.446	5243.65
801.634	5161.73
801.822	5536.51
802.01	5509.89
802.197	5266.18
802.385	5200.65
802.573	5255.94
802.761	5348.1
802.949	5331.72
803.136	5110.54
803.324	5899
803.512	5608.19
803.699	5249.8
803.887	5202.69
804.075	5825.28
804.262	5350.15
804.45	5032.71
804.638	5264.13
804.825	5323.52
805.013	5436.16
805.201	5208.84
805.388	5137.16
805.576	5608.19
805.763	6107.9
805.951	5350.15
806.138	5423.87
806.326	6001.4
806.513	5651.2
806.701	5292.8
806.888	5325.57
807.075	5692.16
807.263	5997.31
807.45	5268.23
807.638	5468.93
807.825	6062.84
808.012	5774.08
808.2	5184.26
808.387	5585.66
808.574	5714.69
808.761	5849.85
808.949	5266.18
809.136	5303.04
809.323	5403.39
809.51	5626.62
809.698	5559.04
809.885	5436.16
810.072	5686.01
810.259	5872.38
810.446	5552.9
810.633	5427.97
810.82	5970.68
811.008	6200.05
811.195	5651.2
811.382	5436.16
811.569	5583.62
811.756	5436.16
811.943	5450.5
812.13	5167.88
812.317	5415.68
812.504	5497.6
812.691	5389.06
812.878	5376.77
813.064	5747.45
813.251	5495.55
813.438	5212.93
813.625	5313.28
813.812	5614.34
813.999	5505.79
814.186	5556.99
814.372	5348.1
814.559	5522.18
814.746	5982.97
814.933	5313.28
815.12	5503.75
815.306	5458.69
815.493	5434.11
815.68	5161.73
815.866	5264.13
816.053	5954.3
816.24	6126.33
816.426	5554.94
816.613	5313.28
816.799	5829.37
816.986	5954.3
817.173	5247.75
817.359	5339.91
817.546	5610.24
817.732	5245.7
817.919	5243.65
818.105	5430.02
818.292	5470.98
818.478	5720.83
818.665	5628.67
818.851	5171.97
819.037	5976.83
819.224	5704.45
819.41	5145.35
819.597	5094.15
819.783	5909.24
819.969	5729.02
820.156	5288.71
820.342	5161.73
820.528	6243.06
820.714	5575.42
820.901	5561.09
821.087	5335.81
821.273	5894.91
821.459	5450.5
821.646	5245.7
821.832	5356.29
822.018	5571.33
822.204	5552.9
822.39	5333.76
822.576	5094.15
822.762	5606.14
822.948	5556.99
823.134	5573.38
823.32	5032.71
823.507	5227.27
823.693	5624.58
823.879	5413.63
824.065	5120.78
824.25	5569.28
824.436	5427.97
824.622	5116.68
824.808	5022.47
824.994	5370.63
825.18	5053.19
825.366	5020.42
825.552	5018.38
825.738	5382.92
825.923	5653.25
826.109	5212.93
826.295	5100.3
826.481	5178.12
826.667	5387.01
826.852	5249.8
827.038	4985.61
827.224	5655.3
827.409	5804.8
827.595	4932.36
827.781	5174.02
827.966	5563.14
828.152	5538.56
828.338	5249.8
828.523	4922.12
828.709	5143.3
828.894	5552.9
829.08	5176.07
829.266	4973.32
829.451	5151.49
829.637	5450.5
829.822	5200.65
830.008	5034.76
830.193	5362.44
830.378	5690.11
830.564	5186.31
830.749	4778.76
830.935	5546.75
831.12	5415.68
831.305	4821.77
831.491	5051.14
831.676	4942.6
831.861	5466.88
832.047	4850.44
832.232	4750.09
832.417	5427.97
832.602	5329.67
832.788	4897.55
832.973	4754.19
833.158	5157.64
833.343	5321.48
833.528	4975.37
833.714	4973.32
833.899	5364.48
834.084	5681.92
834.269	5235.46
834.454	4942.6
834.639	5255.94
834.824	5133.06
835.009	4993.8
835.194	5100.3
835.379	5430.02
835.564	5608.19
835.749	4879.11
835.934	4795.15
836.119	5284.61
836.304	5114.63
836.489	4969.23
836.674	5075.72
836.859	4973.32
837.044	5382.92
837.228	4834.06
837.413	4809.48
837.598	5225.22
837.783	5372.68
837.968	4905.74
838.152	4702.99
838.337	4608.78
838.522	5436.16
838.707	5452.55
838.891	5065.48
839.076	5047.05
839.261	5122.82
839.445	4887.31
839.63	4870.92
839.815	5493.51
839.999	4834.06
840.184	4766.48
840.368	4752.14
840.553	5196.55
840.737	5137.16
840.922	4557.58
841.106	4557.58
841.291	4608.78
841.475	5143.3
841.66	4600.59
841.844	4786.96
842.029	5559.04
842.213	4936.46
842.397	4746
842.582	4588.3
842.766	5219.08
842.951	4991.75
843.135	4750.09
843.319	4526.86
843.504	4862.73
843.688	5120.78
843.872	4453.14
844.056	4506.38
844.241	5047.05
844.425	4817.68
844.609	4946.7
844.793	4346.64
844.977	5151.49
845.161	5001.99
845.346	4449.04
845.53	4530.96
845.714	5004.04
845.898	5178.12
846.082	4211.48
846.266	4410.13
846.45	4907.79
846.634	4913.93
846.818	4453.14
847.002	4614.93
847.186	4973.32
847.37	4469.52
847.554	4438.8
847.738	4580.11
847.922	4793.1
848.106	4815.63
848.29	4383.51
848.473	4459.28
848.657	5077.77
848.841	4606.74
849.025	4315.92
849.209	4324.12
849.392	4897.55
849.576	4729.61
849.76	4088.6
849.944	4530.96
850.127	5194.5
850.311	4508.43
850.495	4254.48
850.678	4229.91
850.862	5016.33
851.046	5040.9
851.229	4596.5
851.413	4383.51
851.596	4789
851.78	4592.4
851.964	4614.93
852.147	4442.9
852.331	5329.67
852.514	4956.94
852.698	4330.26
852.881	4158.23
853.065	4936.46
853.248	4662.03
853.431	4490
853.615	4420.37
853.798	5126.92
853.982	4764.43
854.165	4432.66
854.348	4260.63
854.532	4500.24
854.715	4371.22
854.898	4371.22
855.081	4135.7
855.265	4821.77
855.448	4952.84
855.631	4221.72
855.814	4195.09
855.997	4655.89
856.181	4373.27
856.364	4240.15
856.547	4109.08
856.73	4410.13
856.913	4625.17
857.096	4094.74
857.279	4272.92
857.462	4438.8
857.645	4530.96
857.828	4209.43
858.011	4268.82
858.194	4283.16
858.377	4641.55
858.56	4012.82
858.743	4178.71
858.926	4227.86
859.109	4461.33
859.292	4055.83
859.475	3937.05
859.658	4688.65
859.841	4397.84
860.023	4010.78
860.206	4143.89
860.389	4315.92
860.572	4641.55
860.755	4111.13
860.937	4004.63
861.12	4283.16
861.303	4391.7
861.486	4207.38
861.668	3875.61
861.851	4387.6
862.034	4389.65
862.216	4104.98
862.399	3793.69
862.581	4430.61
862.764	4748.04
862.947	4113.17
863.129	3900.19
863.312	3980.06
863.494	4680.46
863.677	4164.37
863.859	3785.5
864.042	4467.47
864.224	4510.48
864.406	3992.34
864.589	3795.74
864.771	4309.78
864.954	3918.62
865.136	3871.51
865.318	3683.1
865.501	4348.69
865.683	3672.86
865.865	3879.71
866.048	3773.21
866.23	4236.05
866.412	3963.67
866.594	3724.06
866.777	3955.48
866.959	4272.92
867.141	3891.99
867.323	4219.67
867.505	4092.69
867.687	3961.62
867.869	4064.02
868.052	3898.14
868.234	3621.66
868.416	4231.96
868.598	4262.68
868.78	3707.68
868.962	3683.1
869.144	4320.02
869.326	4332.31
869.508	3748.64
869.69	3879.71
869.872	3920.67
870.054	4336.4
870.236	3580.7
870.417	3795.74
870.599	3967.77
870.781	4541.2
870.963	3922.71
871.145	3771.16
871.327	3867.42
871.508	4174.61
871.69	3777.31
871.872	3818.27
872.054	4113.17
872.235	4125.46
872.417	3793.69
872.599	3754.78
872.78	4465.43
872.962	4107.03
873.144	3629.85
873.325	3820.32
873.507	4346.64
873.689	3953.43
873.87	3576.61
874.052	3963.67
874.233	3973.91
874.415	4381.46
874.596	3736.35
874.778	3601.18
874.959	4213.53
875.141	4258.58
875.322	3742.49
875.503	3472.16
875.685	4215.57
875.866	3738.4
876.048	3828.51
876.229	3568.41
876.41	3865.37
876.592	4156.18
876.773	3781.4
876.954	3506.98
877.136	4358.93
877.317	3939.1
877.498	3621.66
877.679	4031.26
877.86	4064.02
878.042	3994.39
878.223	3611.42
878.404	4143.89
878.585	4291.35
878.766	4547.34
878.947	4092.69
879.128	3941.15
879.309	4180.76
879.49	4363.03
879.672	4047.64
879.853	3896.09
880.034	3916.57
880.215	3937.05
880.396	3820.32
880.576	3799.84
880.757	3924.76
880.938	4340.5
881.119	3748.64
881.3	3826.46
881.481	3916.57
881.662	4870.92
881.843	3615.52
882.023	3760.92
882.204	4242.2
882.385	4039.45
882.566	3670.81
882.747	3865.37
882.927	4059.93
883.108	4168.47
883.289	3691.29
883.469	4092.69
883.65	4057.88
883.831	4123.41
884.011	3986.2
884.192	3918.62
884.373	4444.95
884.553	4094.74
884.734	4031.26
884.914	4213.53
885.095	4858.64
885.275	4571.92
885.456	4324.12
885.636	3789.6
885.817	4121.37
885.997	4176.66
886.178	3887.9
886.358	3975.96
886.538	4217.62
886.719	5233.41
886.899	3889.95
887.08	3986.2
887.26	4479.76
887.44	4035.35
887.621	3863.32
887.801	4186.9
887.981	4776.72
888.161	4438.8
888.342	4018.97
888.522	4082.46
888.702	4389.65
888.882	4471.57
889.062	4057.88
889.242	3744.54
889.423	4600.59
889.603	4367.12
889.783	4152.09
889.963	4039.45
890.143	4371.22
890.323	4565.78
890.503	4104.98
890.683	3963.67
890.863	4207.38
891.043	4348.69
891.223	4152.09
891.403	4121.37
891.583	4160.28
891.763	4231.96
891.943	3967.77
892.122	3887.9
892.302	4346.64
892.482	4240.15
892.662	4029.21
892.842	3996.44
893.022	4252.44
893.201	4174.61
893.381	4199.19
893.561	3988.25
893.741	4373.27
893.92	4322.07
894.1	4004.63
894.28	4084.5
894.459	4545.3
894.639	4360.98
894.819	4002.58
894.998	4191
895.178	4209.43
895.357	4397.84
895.537	3959.58
895.716	3701.53
895.896	4178.71
896.075	4608.78
896.255	3924.76
896.434	3728.16
896.614	4342.55
896.793	4391.7
896.973	4096.79
897.152	4201.24
897.331	4346.64
897.511	4414.23
897.69	3781.4
897.87	3898.14
898.049	4416.27
898.228	4064.02
898.407	4074.26
898.587	3988.25
898.766	3918.62
898.945	4444.95
899.124	4117.27
899.304	3992.34
899.483	4080.41
899.662	4670.22
899.841	3848.99
900.02	3760.92
900.199	4350.74
900.378	4133.65
900.557	3765.02
900.737	3676.96
900.916	4301.59
901.095	4293.4
901.274	4000.54
901.453	3695.39
901.632	3834.65
901.811	3779.36
901.989	3609.37
902.168	3676.96
902.347	4262.68
902.526	3738.4
902.705	3666.72
902.884	3715.87
903.063	4195.09
903.242	4168.47
903.42	3382.05
903.599	3781.4
903.778	4096.79
903.957	4242.2
904.135	3752.73
904.314	3588.89
904.493	3947.29
904.672	3902.23
904.85	3511.07
905.029	3490.59
905.207	3801.88
905.386	4557.58
905.565	3365.67
905.743	3420.96
905.922	3646.24
906.1	3922.71
906.279	3257.12
906.457	3242.79
906.636	3658.53
906.814	3603.23
906.993	3363.62
907.171	3328.8
907.35	3748.64
907.528	3861.27
907.707	3578.65
907.885	3187.49
908.063	4055.83
908.242	3203.88
908.42	3210.02
908.598	3109.67
908.777	3631.9
908.955	3449.63
909.133	3388.19
909.311	3160.87
909.49	3502.88
909.668	3461.92
909.846	3236.64
910.024	2962.22
910.202	3552.03
910.38	3572.51
910.559	3085.09
910.737	3214.12
910.915	3660.57
911.093	3582.75
911.271	3347.23
911.449	3525.41
911.627	3652.38
911.805	4121.37
911.983	3357.47
912.161	3191.59
912.339	3674.91
912.517	3961.62
912.695	3425.06
912.872	3312.42
913.05	3498.78
913.228	3822.36
913.406	3365.67
913.584	3388.19
913.762	3838.75
913.939	3685.15
914.117	3255.08
914.295	3193.64
914.473	3746.59
914.65	3769.12
914.828	3232.55
915.006	3318.56
915.184	3388.19
915.361	3724.06
915.539	3402.53
915.716	3504.93
915.894	3656.48
916.072	3881.75
916.249	3601.18
916.427	3636
916.604	3343.14
916.782	3914.52
916.959	3287.84
917.137	3414.82
917.314	3672.86
917.492	3681.05
917.669	3384.1
917.847	3525.41
918.024	3717.92
918.201	3396.39
918.379	3355.43
918.556	3298.08
918.733	3773.21
918.911	3576.61
919.088	3355.43
919.265	3195.68
919.442	3572.51
919.62	3701.53
919.797	3240.74
919.974	3212.07
920.151	3545.89
920.328	3474.21
920.506	3310.37
920.683	3443.49
920.86	3306.27
921.037	3320.61
921.214	3177.25
921.391	3130.15
921.568	3717.92
921.745	3310.37
921.922	3214.12
922.099	2974.5
922.276	3658.53
922.453	3549.98
922.63	2982.7
922.807	3472.16
922.984	3429.15
923.161	3547.94
923.338	3281.7
923.514	3150.63
923.691	3406.63
923.868	3547.94
924.045	2958.12
924.222	2970.41
924.399	3470.11
924.575	3629.85
924.752	3224.36
924.929	3183.4
925.105	3519.26
925.282	3253.03
925.459	2988.84
925.635	3167.01
925.812	3320.61
925.989	3164.97
926.165	3187.49
926.342	2863.91
926.518	3115.81
926.695	3285.8
926.871	3033.9
927.048	2931.5
927.224	3304.23
927.401	3130.15
927.577	2974.5
927.754	2700.08
927.93	3457.82
928.107	3478.3
928.283	2925.35
928.459	3126.05
928.636	3273.51
928.812	3187.49
928.988	2808.62
929.165	2773.8
929.341	3191.59
929.517	3025.7
929.693	3197.73
929.87	2759.47
930.046	3074.85
930.222	2868.01
930.398	2777.9
930.574	2863.91
930.751	2962.22
930.927	2980.65
931.103	2859.82
931.279	2736.94
931.455	2792.23
931.631	2997.03
931.807	2528.05
931.983	2544.43
932.159	2659.12
932.335	3015.46
932.511	2741.04
932.687	2630.45
932.863	2915.11
933.039	2743.08
933.215	2439.98
933.391	2536.24
933.566	2874.15
933.742	2876.2
933.918	2605.87
934.094	2345.78
934.27	2786.09
934.445	2812.71
934.621	2501.42
934.797	2313.01
934.973	2790.19
935.148	2788.14
935.324	2204.47
935.5	2143.03
935.675	2743.08
935.851	2655.02
936.027	2450.22
936.202	2222.9
936.378	2695.98
936.553	2351.92
936.729	2650.92
936.904	2112.31
937.08	1987.38
937.255	2188.08
937.431	1968.95
937.606	1831.74
937.782	2145.08
937.957	2214.71
938.133	2194.23
938.308	1868.6
938.483	2005.81
938.659	1913.66
938.834	1983.29
939.009	1807.16
939.185	1979.19
939.36	1850.17
939.535	1434.43
939.71	1798.97
939.886	2276.15
940.061	2040.63
940.236	1825.59
940.411	1651.52
940.586	2026.29
940.761	1973.05
940.937	1585.98
941.112	1581.89
941.287	1815.35
941.462	1884.98
941.637	1348.42
941.812	1583.93
941.987	1837.88
942.162	1801.02
942.337	1524.54
942.512	1545.02
942.687	1850.17
942.862	2044.73
943.037	1426.24
943.212	1258.31
943.386	1676.09
943.561	1725.24
943.736	1647.42
943.911	1774.39
944.086	1770.3
944.26	1778.49
944.435	1416
944.61	1612.6
944.785	2022.2
944.959	2106.17
945.134	1583.93
945.309	1295.17
945.483	1409.86
945.658	1897.27
945.833	1088.32
946.007	1393.47
946.182	2069.3
946.357	1454.91
946.531	1366.85
946.706	1391.42
946.88	1344.32
947.055	1774.39
947.229	1430.34
947.404	1315.65
947.578	1938.23
947.752	1610.56
947.927	1274.69
948.101	1157.96
948.276	1692.48
948.45	1737.53
948.624	1633.08
948.799	1340.22
948.973	1831.74
949.147	1467.2
949.321	1538.88
949.496	1446.72
949.67	2040.63
949.844	1569.6
950.018	1530.69
950.193	1512.25
950.367	2229.04
950.541	1655.61
950.715	1602.36
950.889	1661.76
951.063	1532.73
951.237	1907.51
951.411	1381.18
951.585	1383.23
951.759	1825.59
951.933	1776.44
952.107	1530.69
952.281	1727.29
952.455	2128.69
952.629	1966.9
952.803	1592.13
952.977	1553.21
953.151	1852.22
953.325	1837.88
953.499	1735.48
953.672	1452.86
953.846	1651.52
954.02	1708.86
954.194	1545.02
954.368	1618.75
954.541	2065.21
954.715	1794.87
954.889	1674.04
955.062	1448.77
955.236	1841.98
955.41	1798.97
955.583	1717.05
955.757	1522.49
955.93	1792.83
956.104	1571.65
956.278	1569.6
956.451	1588.03
956.625	1997.62
956.798	2241.33
956.972	1915.7
957.145	1426.24
957.319	1790.78
957.492	1743.67
957.665	1825.59
957.839	1436.48
958.012	1866.55
958.185	1692.48
958.359	1688.38
958.532	1786.68
958.705	2110.26
958.879	1985.34
959.052	1669.95
959.225	1413.95
959.398	1913.66
959.572	1907.51
959.745	1612.6
959.918	1626.94
960.091	1807.16
960.264	2104.12
960.438	1545.02
960.611	1606.46
960.784	2073.4
960.957	1631.04
961.13	2175.8
961.303	1641.28
961.476	1823.55
961.649	2007.86
961.822	1594.17
961.995	1565.5
962.168	1909.56
962.341	1901.37
962.514	1569.6
962.686	1684.28
962.859	1915.7
963.032	2005.81
963.205	1534.78
963.378	1491.77
963.551	1954.62
963.723	1858.36
963.896	1712.96
964.069	1782.59
964.242	1856.31
964.414	2220.85
964.587	1616.7
964.76	1604.41
964.932	1991.48
965.105	1844.03
965.278	1663.8
965.45	1475.39
965.623	1891.13
965.795	1983.29
965.968	1604.41
966.14	1645.37
966.313	1821.5
966.485	1907.51
966.658	1635.13
966.83	1557.31
967.003	2085.69
967.175	2061.11
967.348	1520.45
967.52	1678.14
967.692	2167.6
967.865	1975.1
968.037	1585.98
968.209	1870.65
968.382	1778.49
968.554	2022.2
968.726	1592.13
968.898	1499.97
969.071	1829.69
969.243	1930.04
969.415	1745.72
969.587	1659.71
969.759	2302.77
969.932	2020.15
970.104	1606.46
970.276	1237.83
970.448	1790.78
970.62	1614.65
970.792	1719.1
970.964	1577.79
971.136	2265.91
971.308	1921.85
971.48	1499.97
971.652	1387.33
971.824	2011.96
971.996	1602.36
972.168	1545.02
972.339	1456.96
972.511	1985.34
972.683	1723.2
972.855	1723.2
973.027	1434.43
973.199	1821.5
973.37	1909.56
973.542	1635.13
973.714	1583.93
973.886	1692.48
974.057	1942.33
974.229	1299.27
974.401	1450.82
974.572	1485.63
974.744	1350.46
974.915	1407.81
975.087	1364.8
975.259	2102.07
975.43	1700.67
975.602	1364.8
975.773	1358.66
975.945	1645.37
976.116	1786.68
976.288	1342.27
976.459	1676.09
976.63	1592.13
976.802	1837.88
976.973	1379.14
977.145	1571.65
977.316	2059.06
977.487	2016.05
977.659	1479.49
977.83	1413.95
978.001	1946.42
978.172	1708.86
978.344	1282.88
978.515	1375.04
978.686	1411.9
978.857	2020.15
979.028	1325.89
979.2	1350.46
979.371	1913.66
979.542	1624.89
979.713	1416
979.884	930.63
980.055	1454.91
980.226	1495.87
980.397	1348.42
980.568	1256.26
980.739	1807.16
980.91	1526.59
981.081	1530.69
981.252	1274.69
981.423	1645.37
981.594	1790.78
981.765	1235.78
981.936	1375.04
982.106	1602.36
982.277	1815.35
982.448	1276.74
982.619	1444.67
982.79	1579.84
982.96	1692.48
983.131	1416
983.302	985.93
983.472	1413.95
983.643	1538.88
983.814	1385.28
983.984	1266.5
984.155	1440.58
984.326	1717.05
984.496	1311.55
984.667	1284.93
984.837	1325.89
985.008	1825.59
985.178	1497.92
985.349	1231.68
985.519	1442.62
985.69	1217.35
985.86	1246.02
986.031	1141.57
986.201	1424.19
986.371	1637.18
986.542	1129.28
986.712	996.17
986.882	1555.26
987.053	1643.32
987.223	1053.51
987.393	1317.7
987.563	1258.31
987.734	1563.45
987.904	1471.29
988.074	1119.04
988.244	1481.53
988.414	1243.97
988.585	1076.04
988.755	1219.39
988.925	1391.42
989.095	1733.43
989.265	1080.13
989.435	1157.96
989.605	1569.6
989.775	1413.95
989.945	1346.37
990.115	953.16
990.285	1248.07
990.455	1420.1
990.625	1067.85
990.795	1028.93
990.965	1739.58
991.134	1143.62
991.304	1094.47
991.474	983.88
991.644	1325.89
991.814	1649.47
991.984	938.82
992.153	1012.55
992.323	1450.82
992.493	1309.51
992.662	856.9
992.832	1168.2
993.002	1260.35
993.171	1274.69
993.341	904.01
993.511	1200.96
993.68	1119.04
993.85	1467.2
994.019	881.48
994.189	789.32
994.358	1227.59
994.528	1114.95
994.697	678.73
994.867	793.42
995.036	1420.1
995.206	1207.11
995.375	805.71
995.544	1135.43
995.714	1420.1
995.883	1049.41
996.052	971.59
996.222	627.53
996.391	1651.52
996.56	1192.77
996.73	809.8
996.899	746.31
997.068	1471.29
997.237	1229.63
997.406	801.61
997.576	680.78
997.745	1293.12
997.914	1133.38
998.083	668.49
998.252	865.1
998.421	1164.1
998.59	969.54
998.759	705.35
998.928	709.45
999.097	1446.72
999.266	1147.72
999.435	983.88
999.604	670.54
999.773	1551.17
999.942	1012.55
1000.111	619.34
1000.28	527.18
1000.448	875.34
1000.617	797.51
1000.786	828.23
1000.955	590.67
1001.124	1231.68
1001.292	1710.91
1001.461	734.03
1001.63	725.83
1001.798	1387.33
1001.967	1424.19
1002.136	586.57
1002.304	592.72
1002.473	1043.27
1002.642	1041.22
1002.81	785.23
1002.979	758.6
1003.147	1223.49
1003.316	1559.36
1003.484	672.59
1003.653	684.87
1003.821	1274.69
1003.99	883.53
1004.158	781.13
1004.327	693.07
1004.495	1063.75
1004.663	852.81
1004.832	824.14
1005	486.22
1005.168	1041.22
1005.337	979.78
1005.505	486.22
1005.673	774.99
1005.842	1055.56
1006.01	1073.99
1006.178	478.03
1006.346	555.85
1006.514	1018.69
1006.683	1131.33
1006.851	584.52
1007.019	660.3
1007.187	654.16
1007.355	451.41
1007.523	424.78
1007.691	361.3
1007.859	602.96
1008.027	1160
1008.195	461.65
1008.363	480.08
1008.531	1147.72
1008.699	777.03
1008.867	389.97
1009.035	541.52
1009.203	1137.48
1009.37	863.05
1009.538	570.19
1009.706	963.4
1009.874	949.06
1010.042	838.47
1010.209	291.66
1010.377	389.97
1010.545	1049.41
1010.713	774.99
1010.88	488.27
1011.048	447.31
1011.216	772.94
1011.383	1223.49
1011.551	424.78
1011.718	480.08
1011.886	1012.55
1012.054	762.7
1012.221	435.02
1012.389	545.61
1012.556	656.2
1012.724	1182.53
1012.891	469.84
1013.058	291.66
1013.226	906.06
1013.393	981.83
1013.561	267.09
1013.728	191.31
1013.895	998.21
1014.063	926.54
1014.23	353.1
1014.397	324.43
1014.565	1053.51
1014.732	562
1014.899	322.38
1015.066	250.71
1015.233	836.42
1015.401	926.54
1015.568	430.93
1015.735	430.93
1015.902	787.27
1016.069	754.51
1016.236	402.26
1016.403	340.82
1016.57	512.85
1016.737	955.21
1016.904	357.2
1017.071	312.14
1017.238	398.16
1017.405	811.85
1017.572	308.05
1017.739	529.23
1017.906	783.18
1018.073	924.49
1018.24	228.18
1018.407	332.62
1018.573	944.97
1018.74	648.01
1018.907	279.38
1019.074	193.36
1019.241	877.38
1019.407	803.66
1019.574	254.8
1019.741	113.49
1019.907	619.34
1020.074	750.41
1020.241	52.05
1020.407	187.22
1020.574	738.12
1020.74	738.12
1020.907	301.9
1021.073	97.11
1021.24	1112.9
1021.406	971.59
1021.573	191.31
1021.739	262.99
1021.906	883.53
1022.072	594.76
1022.239	260.95
1022.405	271.19
1022.571	666.44
1022.738	508.75
1022.904	234.32
1023.07	324.43
1023.237	666.44
1023.403	721.74
1023.569	285.52
1023.735	211.79
1023.902	686.92
1024.068	672.59
1024.234	58.2
1024.4	160.59
1024.566	676.68
1024.732	777.03
1024.898	127.83
1025.065	0.85
1025.231	760.65
1025.397	484.17
1025.563	230.23
1025.729	146.26
1025.895	119.64
1026.061	334.67
1026.227	39.76
1026.392	269.14
1026.558	768.84
1026.724	648.01
1026.89	136.02
1027.056	166.74
1027.222	680.78
1027.388	400.21
1027.553	156.5
1027.719	117.59
1027.885	987.97
1028.051	701.26
1028.216	66.39
1028.382	154.45
1028.548	609.1
1028.713	398.16
1028.879	60.24
1029.045	291.66
1029.21	877.38
1029.376	697.16
1029.541	267.09
1029.707	142.16
1029.873	627.53
1030.038	629.58
1030.204	111.44
1030.369	176.98
1030.534	768.84
1030.7	478.03
1030.865	185.17
1031.031	45.91
1031.196	617.29
1031.361	545.61
1031.527	97.11
1031.692	95.06
1031.857	111.44
1032.023	574.28
1032.188	72.53
1032.353	103.25
1032.518	914.25
1032.684	588.62
1032.849	-1.19
1033.014	205.65
1033.179	551.76
1033.344	654.16
1033.509	168.79
1033.674	70.48
1033.839	648.01
1034.004	578.38
1034.17	174.93
1034.335	50
1034.5	475.98
1034.664	293.71
1034.829	66.39
1034.994	131.92
1035.159	615.24
1035.324	504.65
1035.489	62.29
1035.654	23.38
1035.819	813.9
1035.984	562
1036.148	168.79
1036.313	195.41
1036.478	656.2
1036.643	445.26
1036.807	23.38
1036.972	-60.59
1037.137	779.08
1037.301	439.12
1037.466	-60.59
1037.631	185.17
1037.795	672.59
1037.96	488.27
1038.124	234.32
1038.289	-7.34
1038.454	539.47
1038.618	533.33
1038.783	131.92
1038.947	201.55
1039.111	453.45
1039.276	381.78
1039.44	-27.82
1039.605	484.17
1039.769	355.15
1039.933	428.88
1040.098	162.64
1040.262	283.47
1040.426	623.44
1040.591	574.28
1040.755	-9.39
1040.919	72.53
1041.083	533.33
1041.248	381.78
1041.412	-103.59
1041.576	-68.78
1041.74	373.58
1041.904	586.57
1042.068	41.81
1042.232	50
1042.397	621.39
1042.561	535.37
1042.725	-183.46
1042.889	246.61
1043.053	615.24
1043.217	496.46
1043.381	111.44
1043.544	-72.87
1043.708	654.16
1043.872	111.44
1044.036	-271.53
1044.2	-25.77
1044.364	588.62
1044.528	760.65
1044.691	4911.88
1044.855	0.85
1045.019	725.83
1045.183	578.38
1045.346	2.9
1045.51	-3.24
1045.674	531.28
1045.837	482.13
1046.001	66.39
1046.165	-25.77
1046.328	891.72
1046.492	518.99
1046.655	189.27
1046.819	84.82
1046.983	205.65
1047.146	504.65
1047.31	21.33
1047.473	-208.04
1047.636	346.96
1047.8	172.88
1047.963	23.38
1048.127	-11.43
1048.29	144.21
