Data from Hydrogel_Ink_Intensity_Test_1_USB4F045381__80__00080.txt Node

Date: Mon Jul 31 10:56:55 EDT 2023
User: mmckonesweet
Spectrometer: USB4F04538
Trigger mode: 4
Integration Time (sec): 9.000000E-1
Scans to average: 1
Electric dark correction enabled: true
Nonlinearity correction enabled: false
Boxcar width: 0
XAxis mode: Wavelengths
Number of Pixels in Spectrum: 3648
>>>>>Begin Spectral Data<<<<<
345.52	-1002.82
345.736	-1002.82
345.952	-1002.82
346.168	-1066.31
346.384	-1025.35
346.6	-116.05
346.816	-290.13
347.032	-204.11
347.248	234.15
347.464	-240.98
347.68	-177.49
347.896	148.14
348.112	389.8
348.328	-34.13
348.544	-54.61
348.76	47.79
348.975	297.64
349.191	-277.84
349.407	-220.5
349.623	6.83
349.839	4.78
350.055	-118.1
350.27	-52.56
350.486	156.33
350.702	266.92
350.918	242.34
351.133	-183.63
351.349	172.71
351.565	383.65
351.781	-236.88
351.996	-103.76
352.212	316.07
352.428	-140.63
352.644	-230.74
352.859	-292.18
353.075	271.01
353.291	19.11
353.506	-142.68
353.722	-269.65
353.938	-132.44
354.153	488.1
354.369	62.12
354.584	-175.44
354.8	324.26
355.016	-410.96
355.231	-159.06
355.447	-101.72
355.662	166.57
355.878	838.3
356.093	-370
356.309	-79.19
356.524	-208.21
356.74	271.01
356.955	-193.87
357.171	-42.32
357.386	125.61
357.602	-195.92
357.817	-101.72
358.033	-157.01
358.248	328.36
358.464	131.75
358.679	-132.44
358.895	-339.28
359.11	-60.76
359.325	252.58
359.541	182.95
359.756	-101.72
359.972	-441.68
360.187	139.94
360.402	-218.45
360.618	-200.02
360.833	1008.28
361.048	144.04
361.264	-187.73
361.479	23.21
361.694	-60.76
361.909	275.11
362.125	-240.98
362.34	-189.78
362.555	254.63
362.77	88.75
362.986	-281.94
363.201	-128.34
363.416	131.75
363.631	45.74
363.847	-154.96
364.062	-269.65
364.277	193.19
364.492	41.64
364.707	-195.92
364.922	-447.82
365.138	246.44
365.353	283.3
365.568	-312.66
365.783	-89.43
365.998	29.35
366.213	561.83
366.428	-298.32
366.643	35.5
366.858	195.24
367.073	248.49
367.288	-175.44
367.503	-240.98
367.718	37.55
367.933	369.32
368.148	-288.08
368.363	-101.72
368.578	-13.65
368.793	318.12
369.008	-183.63
369.223	-218.45
369.438	203.43
369.653	447.14
369.868	-322.9
370.083	-187.73
370.298	94.89
370.513	383.65
370.728	29.35
370.943	-226.64
371.157	-138.58
371.372	508.58
371.587	-298.32
371.802	-259.41
372.017	47.79
372.232	430.76
372.446	-124.24
372.661	-298.32
372.876	193.19
373.091	158.38
373.306	-163.15
373.52	-286.03
373.735	-175.44
373.95	410.28
374.165	-118.1
374.379	-173.39
374.594	-81.24
374.809	144.04
375.023	45.74
375.238	-232.79
375.453	180.9
375.667	-140.63
375.882	-202.07
376.097	-247.12
376.311	47.79
376.526	45.74
376.741	-175.44
376.955	88.75
377.17	582.31
377.384	561.83
377.599	-87.38
377.813	-273.75
378.028	561.83
378.242	168.62
378.457	-107.86
378.672	-367.95
378.886	23.21
379.101	-27.99
379.315	-329.04
379.53	-142.68
379.744	135.85
379.958	213.67
380.173	-144.72
380.387	-191.83
380.602	107.18
380.816	-165.2
381.031	-163.15
381.245	-163.15
381.459	217.77
381.674	2818.69
381.888	-232.79
382.103	74.41
382.317	-118.1
382.531	469.67
382.746	-36.18
382.96	-238.93
383.174	-191.83
383.388	471.72
383.603	90.79
383.817	-314.7
384.031	193.19
384.246	455.33
384.46	41.64
384.674	307.88
384.888	70.31
385.103	129.7
385.317	-341.33
385.531	-34.13
385.745	438.95
385.959	305.83
386.174	-189.78
386.388	-255.31
386.602	33.45
386.816	-163.15
387.03	-148.82
387.244	-97.62
387.458	62.12
387.672	408.23
387.887	-269.65
388.101	-214.35
388.315	299.69
388.529	53.93
388.743	-193.87
388.957	-253.27
389.171	352.93
389.385	-220.5
389.599	-159.06
389.813	33.45
390.027	144.04
390.241	653.98
390.455	4.78
390.669	-114
390.883	-138.58
391.097	551.59
391.311	146.09
391.525	-136.53
391.738	174.76
391.952	193.19
392.166	-75.09
392.38	-218.45
392.594	324.26
392.808	320.17
393.022	-52.56
393.236	-130.39
393.449	176.81
393.663	238.25
393.877	-240.98
394.091	-52.56
394.305	-19.8
394.518	-107.86
394.732	-220.5
394.946	-157.01
395.16	535.2
395.373	154.28
395.587	-171.35
395.801	-163.15
396.015	324.26
396.228	180.9
396.442	-361.81
396.656	-310.61
396.869	389.8
397.083	475.81
397.297	-75.09
397.51	-122.2
397.724	322.21
397.938	111.27
398.151	-372.05
398.365	-283.98
398.578	244.39
398.792	381.6
399.005	-19.8
399.219	-105.81
399.433	193.19
399.646	316.07
399.86	66.22
400.073	31.4
400.287	191.14
400.5	37.55
400.714	-3.41
400.927	-66.9
401.141	250.53
401.354	1161.88
401.567	252.58
401.781	-228.69
401.994	318.12
402.208	586.4
402.421	-79.19
402.635	-60.76
402.848	25.26
403.061	395.94
403.275	-38.23
403.488	-200.02
403.701	518.82
403.915	299.69
404.128	-25.94
404.341	-167.25
404.555	295.59
404.768	35.5
404.981	25.26
405.195	-62.8
405.408	459.43
405.621	344.74
405.834	43.69
406.048	-191.83
406.261	414.37
406.474	471.72
406.687	-218.45
406.9	103.08
407.114	131.75
407.327	322.21
407.54	-296.27
407.753	-302.42
407.966	-36.18
408.179	256.68
408.392	-154.96
408.605	-318.8
408.819	264.87
409.032	223.91
409.245	-54.61
409.458	154.28
409.671	275.11
409.884	510.63
410.097	-240.98
410.31	98.99
410.523	193.19
410.736	92.84
410.949	19.11
411.162	2.73
411.375	490.15
411.588	410.28
411.801	45.74
412.014	-154.96
412.227	148.14
412.44	49.83
412.653	-126.29
412.865	137.9
413.078	397.99
413.291	342.69
413.504	39.59
413.717	-140.63
413.93	299.69
414.143	10.92
414.356	-25.94
414.568	-224.59
414.781	361.13
414.994	246.44
415.207	21.16
415.42	-11.61
415.632	350.89
415.845	613.03
416.058	-230.74
416.271	-232.79
416.483	221.86
416.696	567.97
416.909	-40.28
417.121	-134.48
417.334	324.26
417.547	643.74
417.759	-109.91
417.972	-146.77
418.185	4.78
418.397	324.26
418.61	-101.72
418.823	-75.09
419.035	610.98
419.248	256.68
419.46	-19.8
419.673	94.89
419.885	324.26
420.098	203.43
420.311	-36.18
420.523	-273.75
420.736	330.41
420.948	185
421.161	-44.37
421.373	-238.93
421.586	234.15
421.798	-13.65
422.01	-257.36
422.223	80.55
422.435	107.18
422.648	363.17
422.86	-19.8
423.073	-83.28
423.285	393.89
423.497	-107.86
423.71	-17.75
423.922	-27.99
424.134	361.13
424.347	522.91
424.559	254.63
424.771	256.68
424.984	133.8
425.196	291.49
425.408	-214.35
425.621	-99.67
425.833	461.48
426.045	475.81
426.257	-75.09
426.47	35.5
426.682	369.32
426.894	316.07
427.106	-13.65
427.318	45.74
427.531	135.85
427.743	422.56
427.955	-21.84
428.167	414.37
428.379	404.13
428.591	141.99
428.804	105.13
429.016	-7.51
429.228	217.77
429.44	385.7
429.652	162.47
429.864	-124.24
430.076	162.47
430.288	191.14
430.5	33.45
430.712	182.95
430.924	455.33
431.136	307.88
431.348	-159.06
431.56	-58.71
431.772	254.63
431.984	96.94
432.196	-60.76
432.408	53.93
432.62	201.38
432.832	320.17
433.044	277.16
433.256	174.76
433.468	393.89
433.679	-132.44
433.891	-132.44
434.103	307.88
434.315	608.93
434.527	406.18
434.739	88.75
434.95	189.1
435.162	434.85
435.374	148.14
435.586	66.22
435.798	33.45
436.009	43.69
436.221	201.38
436.433	64.17
436.645	60.07
436.856	182.95
437.068	613.03
437.28	0.68
437.491	293.54
437.703	598.69
437.915	383.65
438.126	66.22
438.338	383.65
438.55	225.96
438.761	430.76
438.973	53.93
439.184	119.46
439.396	281.25
439.608	537.25
439.819	-19.8
440.031	250.53
440.242	484
440.454	449.19
440.665	135.85
440.877	262.82
441.088	449.19
441.3	309.93
441.511	-109.91
441.723	80.55
441.934	307.88
442.146	275.11
442.357	287.4
442.569	367.27
442.78	465.57
442.991	758.43
443.203	496.29
443.414	-9.56
443.626	688.8
443.837	172.71
444.048	8.87
444.26	-124.24
444.471	344.74
444.682	545.44
444.894	-40.28
445.105	-52.56
445.316	565.92
445.528	541.35
445.739	252.58
445.95	178.86
446.161	402.08
446.373	615.07
446.584	135.85
446.795	90.79
447.006	527.01
447.217	756.38
447.429	-40.28
447.64	-19.8
447.851	686.75
448.062	330.41
448.273	-1.37
448.484	70.31
448.695	598.69
448.907	354.98
449.118	172.71
449.329	342.69
449.54	334.5
449.751	221.86
449.962	98.99
450.173	111.27
450.384	561.83
450.595	737.95
450.806	174.76
451.017	262.82
451.228	664.22
451.439	574.11
451.65	234.15
451.861	10.92
452.072	303.78
452.283	377.51
452.494	305.83
452.705	170.66
452.915	768.67
453.126	572.07
453.337	217.77
453.548	98.99
453.759	701.09
453.97	963.23
454.181	459.43
454.391	285.35
454.602	471.72
454.813	639.65
455.024	393.89
455.235	172.71
455.445	490.15
455.656	590.5
455.867	424.61
456.078	193.19
456.288	344.74
456.499	662.18
456.71	197.29
456.921	459.43
457.131	619.17
457.342	529.06
457.553	293.54
457.763	232.1
457.974	627.36
458.184	653.98
458.395	283.3
458.606	111.27
458.816	918.17
459.027	1086.11
459.237	373.41
459.448	129.7
459.659	836.25
459.869	1139.35
460.08	199.34
460.29	475.81
460.501	1000.09
460.711	490.15
460.922	111.27
461.132	217.77
461.343	1274.52
461.553	275.11
461.764	230.06
461.974	324.26
462.184	807.58
462.395	758.43
462.605	455.33
462.816	244.39
463.026	707.23
463.236	950.94
463.447	336.55
463.657	424.61
463.867	901.79
464.078	635.55
464.288	424.61
464.498	365.22
464.709	717.47
464.919	653.98
465.129	486.05
465.339	336.55
465.55	768.67
465.76	938.65
465.97	467.62
466.18	418.47
466.391	938.65
466.601	844.45
466.811	545.44
467.021	236.2
467.231	793.25
467.441	991.9
467.651	488.1
467.862	195.24
468.072	813.73
468.282	1084.06
468.492	500.39
468.702	570.02
468.912	834.21
469.122	1393.3
469.332	813.73
469.542	438.95
469.752	905.88
469.962	928.41
470.172	465.57
470.382	465.57
470.592	1045.15
470.802	1184.41
471.012	762.53
471.222	572.07
471.432	1102.49
471.642	1155.74
471.852	793.25
472.062	641.7
472.272	873.12
472.482	606.88
472.691	563.87
472.901	688.8
473.111	1012.38
473.321	1540.76
473.531	647.84
473.741	899.74
473.95	1194.65
474.16	1245.85
474.37	795.29
474.58	653.98
474.79	1479.32
474.999	1208.98
475.209	625.31
475.419	854.69
475.628	1047.19
475.838	1325.72
476.048	826.01
476.258	713.38
476.467	1413.78
476.677	1088.15
476.886	1065.63
477.096	1079.96
477.306	1026.72
477.515	1411.73
477.725	1024.67
477.935	1112.73
478.144	1608.34
478.354	1125.02
478.563	1041.05
478.773	1022.62
478.982	1440.4
479.192	1594
479.401	1112.73
479.611	942.75
479.82	1110.68
480.03	1522.32
480.239	993.95
480.449	1155.74
480.658	1710.74
480.868	1245.85
481.077	1200.79
481.287	1213.08
481.496	1557.14
481.705	1682.07
481.915	1456.79
482.124	1385.11
482.333	1577.62
482.543	1813.13
482.752	1354.39
482.961	1188.5
483.171	1778.32
483.38	1491.6
483.589	1471.12
483.799	1233.56
484.008	1522.32
484.217	1778.32
484.426	1475.22
484.636	1290.9
484.845	1766.03
485.054	1309.33
485.263	1577.62
485.472	1405.59
485.682	2122.38
485.891	1737.36
486.1	1254.04
486.309	1413.78
486.518	1979.02
486.727	2022.03
486.936	1403.54
487.146	1548.95
487.355	2159.24
487.564	1571.47
487.773	1622.67
487.982	1419.93
488.191	1651.35
488.4	1923.73
488.609	1673.87
488.818	1643.15
489.027	2400.9
489.236	2273.93
489.445	1585.81
489.654	1555.09
489.863	2146.95
490.072	1901.2
490.281	2097.8
490.49	1688.21
490.698	2347.65
490.907	2259.59
491.116	1798.8
491.325	1573.52
491.534	2325.13
491.743	2028.17
491.952	1802.9
492.16	1770.13
492.369	2400.9
492.578	2200.2
492.787	1878.67
492.996	1667.73
493.204	1901.2
493.413	2605.7
493.622	1553.04
493.831	1630.87
494.039	2413.19
494.248	2019.98
494.457	1880.72
494.665	1802.9
494.874	2337.41
495.083	2642.56
495.291	2044.56
495.5	1796.75
495.709	2382.47
495.917	2271.88
496.126	2189.96
496.335	1831.57
496.543	2085.51
496.752	2374.28
496.96	2282.12
497.169	1925.77
497.377	2335.37
497.586	2495.11
497.794	2175.63
498.003	1806.99
498.211	2325.13
498.42	2779.78
498.628	2194.06
498.837	1940.11
499.045	2605.7
499.254	2359.94
499.462	2099.85
499.671	2079.37
499.879	2894.46
500.087	2744.96
500.296	1958.54
500.504	2298.5
500.713	2472.58
500.921	3017.34
501.129	2157.19
501.338	2167.43
501.546	2603.65
501.754	2462.34
501.962	2261.64
502.171	2157.19
502.379	2527.88
502.587	3086.97
502.795	2343.56
503.004	2169.48
503.212	2601.6
503.42	2683.52
503.628	2302.6
503.837	2464.39
504.045	2693.76
504.253	3046.01
504.461	2290.31
504.669	2273.93
504.877	2796.16
505.085	2906.75
505.294	2257.54
505.502	2675.33
505.71	2742.91
505.918	2951.81
506.126	2241.16
506.334	2462.34
506.542	2687.62
506.75	2941.57
506.958	2482.82
507.166	2427.53
507.374	2650.75
507.582	3191.42
507.79	2542.21
507.998	2405
508.206	2933.37
508.414	2833.02
508.622	2474.63
508.83	2572.93
509.037	3193.47
509.245	2673.28
509.453	2425.48
509.661	2368.13
509.869	3013.24
510.077	2810.5
510.285	2675.33
510.492	2323.08
510.7	3467.89
510.908	2771.58
511.116	2622.08
511.324	2579.08
511.531	2863.74
511.739	3000.96
511.947	2851.46
512.155	2966.14
512.362	2855.55
512.57	2726.53
512.778	2505.35
512.985	2435.72
513.193	3213.95
513.401	3449.46
513.608	2611.84
513.816	2751.1
514.024	3119.74
514.231	3359.35
514.439	2720.39
514.646	2660.99
514.854	3371.64
515.061	3345.02
515.269	2802.3
515.477	2814.59
515.684	2960
515.892	3297.91
516.099	2613.89
516.307	2759.3
516.514	3197.56
516.722	3541.62
516.929	2826.88
517.136	2593.41
517.344	3543.67
517.551	3390.07
517.759	2814.59
517.966	3031.68
518.173	3017.34
518.381	3187.32
518.588	2892.41
518.796	2941.57
519.003	3345.02
519.21	3164.79
519.418	2871.93
519.625	3244.67
519.832	3140.22
520.039	3187.32
520.247	2757.25
520.454	2912.89
520.661	3478.13
520.868	3510.9
521.076	3095.16
521.283	2998.91
521.49	3848.82
521.697	3422.84
521.904	3060.35
522.112	3027.58
522.319	3523.19
522.526	3363.45
522.733	3003
522.94	2980.48
523.147	3336.82
523.354	3523.19
523.561	2818.69
523.768	3158.65
523.975	3598.96
524.183	3543.67
524.39	3283.58
524.597	3021.44
524.804	3603.06
525.011	3306.1
525.218	2982.53
525.425	3144.31
525.632	3854.96
525.838	3240.57
526.045	3224.19
526.252	3246.71
526.459	4768.35
526.666	4371.05
526.873	3129.98
527.08	3334.78
527.287	4026.99
527.494	3988.08
527.701	3089.02
527.907	3074.68
528.114	3654.26
528.321	3496.57
528.528	3396.21
528.735	3273.34
528.941	3502.71
529.148	3355.26
529.355	3256.95
529.562	3291.77
529.768	3947.12
529.975	3455.61
530.182	3443.32
530.388	3246.71
530.595	3922.54
530.802	3416.69
531.008	3584.63
531.215	3351.16
531.422	4446.82
531.628	4444.77
531.835	3490.42
532.042	3457.65
532.248	3678.83
532.455	3736.18
532.661	3592.82
532.868	3357.3
533.074	3832.43
533.281	4100.72
533.487	3500.66
533.694	3318.39
533.9	3715.7
534.107	3797.62
534.313	3488.37
534.52	3469.94
534.726	3986.03
534.933	4344.42
535.139	3594.87
535.345	3334.78
535.552	4012.65
535.758	3940.97
535.965	3623.54
536.171	3654.26
536.377	4188.78
536.584	4323.94
536.79	3674.74
536.996	3699.31
537.203	3996.27
537.409	4059.76
537.615	3699.31
537.821	3816.05
538.028	4268.65
538.234	4213.35
538.44	3633.78
538.646	3699.31
538.853	4209.26
539.059	3990.13
539.265	4108.91
539.471	3482.23
539.677	4291.18
539.883	4067.95
540.09	3584.63
540.296	4209.26
540.502	4174.44
540.708	3918.45
540.914	4147.82
541.12	3854.96
541.326	4465.25
541.532	4094.57
541.738	3920.49
541.944	4084.33
542.15	4477.54
542.356	4137.58
542.562	3873.39
542.768	3949.17
542.974	4643.43
543.18	4694.63
543.386	3818.1
543.592	3830.38
543.798	4516.45
544.004	4629.09
544.21	3947.12
544.415	4162.16
544.621	4344.42
544.827	4690.53
545.033	3883.63
545.239	4383.34
545.445	4070
545.651	4248.17
545.856	3902.06
546.062	4043.37
546.268	4233.83
546.474	4321.9
546.679	4334.18
546.885	4190.83
547.091	4227.69
547.297	4940.38
547.502	4182.63
547.708	3955.31
547.914	4254.31
548.119	4567.65
548.325	3797.62
548.531	4029.04
548.736	4897.38
548.942	4334.18
549.147	4065.9
549.353	4362.86
549.559	4741.73
549.764	4592.23
549.97	4072.04
550.175	4188.78
550.381	4557.41
550.586	4256.36
550.792	4250.22
550.997	4133.48
551.203	4678.24
551.408	4723.3
551.614	4029.04
551.819	4113
552.025	5034.59
552.23	5182.04
552.435	4213.35
552.641	4258.41
552.846	4391.53
553.052	4850.27
553.257	4485.73
553.462	4412.01
553.668	4479.59
553.873	4872.8
554.078	4182.63
554.283	4276.84
554.489	4663.91
554.694	4493.93
554.899	4305.51
555.105	4625
555.31	4946.53
555.515	5034.59
555.72	4522.6
555.925	4381.29
556.131	4864.61
556.336	4526.69
556.541	4434.53
556.746	4289.13
556.951	5063.26
557.156	5120.6
557.361	4577.89
557.567	4698.72
557.772	5329.5
557.977	5053.02
558.182	4557.41
558.387	4477.54
558.592	4762.21
558.797	5237.34
559.002	4713.06
559.207	4708.96
559.412	4946.53
559.617	5216.86
559.822	4635.24
560.027	4502.12
560.232	4938.34
560.437	5257.82
560.642	4391.53
560.847	4590.18
561.051	4835.94
561.256	5014.11
561.461	4731.49
561.666	4508.26
561.871	4977.25
562.076	4991.58
562.281	4622.95
562.485	4436.58
562.69	5169.76
562.895	5294.68
563.1	4663.91
563.305	4690.53
563.509	5433.94
563.714	5468.76
563.919	4627.04
564.123	4850.27
564.328	4928.1
564.533	5362.26
564.737	4837.98
564.942	4635.24
565.147	5431.9
565.351	5546.58
565.556	4876.9
565.761	4807.27
565.965	4997.73
566.17	4911.71
566.374	4616.8
566.579	4819.55
566.784	5116.51
566.988	5018.21
567.193	4737.63
567.397	4743.78
567.602	4758.11
567.806	5157.47
568.011	4924
568.215	4952.67
568.42	5036.64
568.624	5167.71
568.828	4872.8
569.033	5005.92
569.237	5364.31
569.442	5268.06
569.646	4782.69
569.85	4878.94
570.055	5194.33
570.259	5276.25
570.463	5124.7
570.668	4936.29
570.872	5116.51
571.076	5225.05
571.281	5192.28
571.485	5044.83
571.689	5147.23
571.893	5409.37
572.098	5048.93
572.302	5079.65
572.506	5421.66
572.71	5407.32
572.914	5190.24
573.119	5003.87
573.323	5648.98
573.527	5616.21
573.731	5141.08
573.935	5040.73
574.139	5354.07
574.343	5149.28
574.547	4956.77
574.751	5032.54
574.955	5741.14
575.159	5591.64
575.364	5087.84
575.568	5026.4
575.772	5364.31
575.976	5618.26
576.18	4817.51
576.383	4964.96
576.587	5634.64
576.791	5599.83
576.995	4827.74
577.199	4897.38
577.403	5722.71
577.607	5812.82
577.811	5018.21
578.015	5042.78
578.219	5612.12
578.422	5751.38
578.626	5100.12
578.83	5444.18
579.034	5675.6
579.238	5499.48
579.442	5128.8
579.645	5614.16
579.849	5749.33
580.053	5558.87
580.257	5165.66
580.46	5458.52
580.664	5823.06
580.868	5706.32
581.071	5579.35
581.275	5374.55
581.479	5331.55
581.682	5821.01
581.886	5282.39
582.09	5352.02
582.293	5956.18
582.497	5802.58
582.7	5552.73
582.904	5444.18
583.107	5583.45
583.311	5612.12
583.515	5497.43
583.718	5464.66
583.922	5884.5
584.125	6226.51
584.329	5304.92
584.532	5415.51
584.735	6025.81
584.939	5800.53
585.142	5386.84
585.346	5397.08
585.549	5808.72
585.753	5493.33
585.956	5466.71
586.159	5599.83
586.363	6251.08
586.566	5804.63
586.769	5284.44
586.973	5423.7
587.176	5950.03
587.379	5995.09
587.582	5839.44
587.786	5882.45
587.989	5896.78
588.192	6306.38
588.395	5657.17
588.599	5866.07
588.802	6027.85
589.005	5970.51
589.208	5775.95
589.411	5583.45
589.615	6066.77
589.818	6486.6
590.021	6023.76
590.224	5595.73
590.427	6038.09
590.63	6163.02
590.833	5444.18
591.036	5651.03
591.239	5804.63
591.442	5835.35
591.645	5960.27
591.848	5939.79
592.051	6138.44
592.254	6197.84
592.457	5878.35
592.66	5927.5
592.863	5896.78
593.066	6289.99
593.269	5810.77
593.472	5872.21
593.675	5835.35
593.878	6189.64
594.081	5943.89
594.284	5669.46
594.486	6322.76
594.689	6218.32
594.892	6060.62
595.095	6027.85
595.298	6177.36
595.5	5900.88
595.703	6021.71
595.906	5816.91
596.109	6558.28
596.311	6527.56
596.514	5567.06
596.717	6124.11
596.92	6648.39
597.122	6427.21
597.325	5503.57
597.528	5818.96
597.73	6697.54
597.933	6122.06
598.136	5984.85
598.338	5773.91
598.541	6300.23
598.743	6672.96
598.946	5958.22
599.148	6066.77
599.351	6582.85
599.554	6828.61
599.756	6165.07
599.959	6281.8
600.161	6545.99
600.363	6820.42
600.566	6191.69
600.768	6031.95
600.971	6779.46
601.173	6603.33
601.376	5960.27
601.578	6177.36
601.78	6556.23
601.983	6910.53
602.185	6097.49
602.388	6187.6
602.59	6556.23
602.792	6421.06
602.995	6316.62
603.197	6017.61
603.399	6670.92
603.601	6545.99
603.804	6036.05
604.006	6177.36
604.208	6502.98
604.41	5882.45
604.613	6341.19
604.815	6224.46
605.017	6926.91
605.219	6429.26
605.421	6877.76
605.623	6259.28
605.826	6861.38
606.028	6722.12
606.23	6171.21
606.432	6257.23
606.634	6988.35
606.836	6771.27
607.038	6120.01
607.24	6230.6
607.442	6586.95
607.644	6611.53
607.846	6363.72
608.048	6058.57
608.25	6928.96
608.452	6314.57
608.654	6294.09
608.856	5962.32
609.058	6408.78
609.26	6724.16
609.462	6386.25
609.664	6289.99
609.866	7060.03
610.067	6773.32
610.269	6324.81
610.471	6382.15
610.673	6609.48
610.875	6873.67
611.077	6095.44
611.278	6470.22
611.48	6611.53
611.682	6984.26
611.884	6476.36
612.085	6281.8
612.287	6449.74
612.489	6834.75
612.69	6185.55
612.892	6369.87
613.094	6885.95
613.295	6582.85
613.497	6134.35
613.699	6339.15
613.9	7062.08
614.102	6808.13
614.304	6402.63
614.505	6206.03
614.707	6627.91
614.908	6666.82
615.11	6120.01
615.311	6267.47
615.513	6840.9
615.714	6744.64
615.916	6222.41
616.117	6269.51
616.319	6494.79
616.52	6814.27
616.722	6398.54
616.923	6480.46
617.124	6761.03
617.326	6746.69
617.527	6691.4
617.729	6672.96
617.93	6734.4
618.131	6832.71
618.333	6361.67
618.534	6271.56
618.735	6378.06
618.937	7076.41
619.138	6476.36
619.339	6249.04
619.54	6902.34
619.742	6664.77
619.943	6582.85
620.144	6681.16
620.345	7008.83
620.546	6967.87
620.748	6537.8
620.949	6398.54
621.15	6867.52
621.351	6693.44
621.552	6513.22
621.753	6390.35
621.954	6439.5
622.155	7156.29
622.356	6558.28
622.558	6513.22
622.759	6812.23
622.96	7094.85
623.161	6566.47
623.362	6435.4
623.563	6713.92
623.764	6959.68
623.965	6601.29
624.166	6568.52
624.366	6699.59
624.567	6804.03
624.768	6304.33
624.969	6369.87
625.17	6636.1
625.371	6943.3
625.572	6543.94
625.773	6490.7
625.973	7119.42
626.174	7008.83
626.375	6500.94
626.576	6701.64
626.777	6871.62
626.977	7426.62
627.178	6517.32
627.379	6634.05
627.58	6734.4
627.78	6871.62
627.981	6595.14
628.182	6804.03
628.382	7127.61
628.583	6480.46
628.784	6314.57
628.984	6738.5
629.185	7002.69
629.386	7150.14
629.586	6705.73
629.787	6586.95
629.987	7066.17
630.188	6953.54
630.388	6570.57
630.589	6853.19
630.79	7496.25
630.99	6773.32
631.191	6769.22
631.391	6824.51
631.591	7027.26
631.792	7156.29
631.992	6754.88
632.193	6756.93
632.393	7283.26
632.594	6947.39
632.794	6599.24
632.994	6533.7
633.195	6830.66
633.395	7004.74
633.595	6615.62
633.796	6801.99
633.996	6931.01
634.196	7389.75
634.397	6556.23
634.597	6775.36
634.797	6763.08
634.997	7346.75
635.198	6824.51
635.398	6642.25
635.598	6984.26
635.798	7369.27
635.998	6974.02
636.199	6599.24
636.399	6853.19
636.599	6853.19
636.799	6711.88
636.999	6941.25
637.199	6990.4
637.399	7387.71
637.599	6693.44
637.799	6892.1
637.999	6687.3
638.199	7406.14
638.399	6701.64
638.599	6726.21
638.799	7105.09
638.999	7402.04
639.199	7017.02
639.399	6801.99
639.599	7416.38
639.799	6832.71
639.999	6814.27
640.199	6763.08
640.399	7107.13
640.599	7203.39
640.799	7066.17
640.998	6978.11
641.198	7414.33
641.398	7305.79
641.598	7080.51
641.798	7041.6
641.997	7991.86
642.197	7051.84
642.397	7086.65
642.597	6826.56
642.796	7330.36
642.996	7526.97
643.196	7187.01
643.395	6677.06
643.595	7361.08
643.795	6664.77
643.994	6908.48
644.194	7004.74
644.394	7410.23
644.593	7305.79
644.793	6795.84
644.992	7051.84
645.192	7295.55
645.392	6758.98
645.591	7168.57
645.791	6969.92
645.99	7254.59
646.19	7125.57
646.389	6939.2
646.589	7066.17
646.788	7494.2
646.987	7164.48
647.187	7246.4
647.386	7256.64
647.586	7213.63
647.785	7494.2
647.984	7123.52
648.184	6943.3
648.383	6963.78
648.582	7053.89
648.782	7168.57
648.981	7133.76
649.18	7119.42
649.38	7381.56
649.579	7000.64
649.778	6994.5
649.977	7344.7
650.177	7502.39
650.376	6896.19
650.575	7115.33
650.774	7830.07
650.973	7217.72
651.173	6957.63
651.372	7133.76
651.571	7387.71
651.77	7553.59
651.969	7080.51
652.168	7326.27
652.367	7074.37
652.566	7340.6
652.765	6933.06
652.964	7389.75
653.163	7864.88
653.362	7377.47
653.561	7047.74
653.76	7111.23
653.959	7279.16
654.158	7498.3
654.357	7352.89
654.556	7123.52
654.755	7338.55
654.954	7473.72
655.153	7182.91
655.352	7191.1
655.551	7655.99
655.749	7213.63
655.948	7256.64
656.147	7279.16
656.346	7440.95
656.545	7447.1
656.743	7160.38
656.942	7219.77
657.141	7291.45
657.34	6992.45
657.538	7074.37
657.737	7213.63
657.936	7270.97
658.135	7475.77
658.333	7045.7
658.532	7156.29
658.731	7911.99
658.929	7408.19
659.128	7377.47
659.326	7039.55
659.525	7760.44
659.724	7467.58
659.922	6867.52
660.121	7012.93
660.319	7381.56
660.518	7420.47
660.716	7004.74
660.915	7041.6
661.113	7731.76
661.312	7234.11
661.51	7504.44
661.709	7254.59
661.907	7703.09
662.105	7840.31
662.304	7121.47
662.502	7127.61
662.701	7828.02
662.899	7326.27
663.097	7615.03
663.296	7144
663.494	7723.57
663.692	8012.34
663.891	7332.41
664.089	7084.61
664.287	7440.95
664.485	7852.59
664.684	7131.71
664.882	7402.04
665.08	7451.19
665.278	7361.08
665.476	7086.65
665.675	7479.86
665.873	7897.65
666.071	7766.58
666.269	7287.36
666.467	7361.08
666.665	7498.3
666.863	7305.79
667.061	7311.93
667.259	7168.57
667.457	7440.95
667.655	7645.75
667.853	7219.77
668.051	7393.85
668.249	7430.71
668.447	7670.33
668.645	7152.19
668.843	7586.36
669.041	7608.89
669.239	7383.61
669.437	7270.97
669.635	7363.13
669.833	7348.79
670.031	7563.83
670.229	7414.33
670.426	7406.14
670.624	7426.62
670.822	7381.56
671.02	7129.66
671.218	7273.02
671.415	7103.04
671.613	7361.08
671.811	7457.34
672.009	7225.92
672.206	7699
672.404	7510.58
672.602	7369.27
672.799	7354.94
672.997	7707.19
673.195	7631.41
673.392	7338.55
673.59	7041.6
673.788	7584.31
673.985	6705.73
674.183	7191.1
674.38	7051.84
674.578	7572.02
674.775	7209.53
674.973	6900.29
675.17	6869.57
675.368	7633.46
675.565	7619.13
675.763	7189.05
675.96	7074.37
676.158	7594.55
676.355	7244.35
676.553	7234.11
676.75	7230.01
676.947	7524.92
677.145	7273.02
677.342	7420.47
677.539	7221.82
677.737	7488.06
677.934	8000.05
678.131	7385.66
678.329	7197.24
678.526	7795.25
678.723	7658.04
678.92	7375.42
679.118	7266.88
679.315	7252.54
679.512	7920.18
679.709	7195.2
679.906	7082.56
680.104	7811.64
680.301	7391.8
680.498	6947.39
680.695	7098.94
680.892	7197.24
681.089	7082.56
681.286	7076.41
681.483	6971.97
681.68	7273.02
681.877	7610.93
682.075	7152.19
682.272	7488.06
682.469	7238.2
682.665	7168.57
682.862	7019.07
683.059	7045.7
683.256	7334.46
683.453	7254.59
683.65	6998.59
683.847	7129.66
684.044	7303.74
684.241	6953.54
684.438	7334.46
684.635	6873.67
684.831	7793.2
685.028	7592.5
685.225	6941.25
685.422	7164.48
685.619	7328.31
685.815	7346.75
686.012	7193.15
686.209	7004.74
686.405	6996.54
686.602	7563.83
686.799	6785.6
686.996	6883.91
687.192	6894.15
687.389	7703.09
687.586	6832.71
687.782	7172.67
687.979	7844.4
688.175	7483.96
688.372	7197.24
688.568	6910.53
688.765	6978.11
688.962	7502.39
689.158	7197.24
689.355	6873.67
689.551	7475.77
689.748	7098.94
689.944	6931.01
690.14	6652.49
690.337	7469.62
690.533	7049.79
690.73	7160.38
690.926	7088.7
691.123	7252.54
691.319	7262.78
691.515	6838.85
691.712	7127.61
691.908	7334.46
692.104	7236.16
692.301	7062.08
692.497	6744.64
692.693	7266.88
692.889	7428.67
693.086	7082.56
693.282	6828.61
693.478	7201.34
693.674	7561.78
693.87	6832.71
694.067	6750.79
694.263	7336.51
694.459	6965.82
694.655	7078.46
694.851	7070.27
695.047	7385.66
695.243	7481.91
695.439	7219.77
695.635	6869.57
695.831	7158.33
696.027	7144
696.224	6836.8
696.42	7211.58
696.615	7584.31
696.811	7539.26
697.007	6775.36
697.203	6865.47
697.399	7189.05
697.595	7508.54
697.791	6844.99
697.987	6875.71
698.183	6691.4
698.379	6978.11
698.575	6830.66
698.77	7076.41
698.966	7342.65
699.162	7191.1
699.358	6890.05
699.554	6873.67
699.749	7432.76
699.945	7144
700.141	6879.81
700.337	6828.61
700.532	7084.61
700.728	6855.23
700.924	6748.74
701.119	6810.18
701.315	7006.78
701.511	6971.97
701.706	6814.27
701.902	6617.67
702.097	6898.24
702.293	7184.96
702.489	6888
702.684	6756.93
702.88	6996.54
703.075	6849.09
703.271	6693.44
703.466	6900.29
703.662	7049.79
703.857	7248.44
704.053	6801.99
704.248	6961.73
704.443	7045.7
704.639	7010.88
704.834	6824.51
705.03	6783.56
705.225	7086.65
705.42	7340.6
705.616	6941.25
705.811	6662.73
706.006	6926.91
706.202	7019.07
706.397	7014.98
706.592	6664.77
706.787	6957.63
706.983	6900.29
707.178	6935.1
707.373	6808.13
707.568	7141.95
707.763	7387.71
707.959	6808.13
708.154	6779.46
708.349	6939.2
708.544	6963.78
708.739	6853.19
708.934	6746.69
709.129	6994.5
709.324	7391.8
709.519	6801.99
709.714	6629.96
709.909	7342.65
710.104	7244.35
710.299	6584.9
710.494	6840.9
710.689	7135.81
710.884	6992.45
711.079	6650.44
711.274	6844.99
711.469	7115.33
711.664	6980.16
711.859	6621.77
712.054	6992.45
712.249	7002.69
712.443	7197.24
712.638	6679.11
712.833	6701.64
713.028	6769.22
713.223	7019.07
713.417	6896.19
713.612	6580.81
713.807	6928.96
714.002	7313.98
714.196	6769.22
714.391	6564.42
714.586	7191.1
714.78	6931.01
714.975	6498.89
715.17	6523.46
715.364	6765.12
715.559	7086.65
715.754	6146.64
715.948	6679.11
716.143	7301.69
716.337	6920.77
716.532	7008.83
716.726	6611.53
716.921	6892.1
717.115	7256.64
717.31	6369.87
717.504	7172.67
717.699	6693.44
717.893	7012.93
718.088	6597.19
718.282	6283.85
718.476	6584.9
718.671	6838.85
718.865	6558.28
719.059	6462.02
719.254	6625.86
719.448	7137.85
719.642	7989.81
719.837	6357.58
720.031	6955.58
720.225	6904.39
720.419	6550.09
720.614	6451.78
720.808	6943.3
721.002	6617.67
721.196	6421.06
721.39	6312.52
721.585	7209.53
721.779	6697.54
721.973	6484.55
722.167	6048.33
722.361	6660.68
722.555	6949.44
722.749	6335.05
722.943	6355.53
723.137	6406.73
723.331	6816.32
723.525	6550.09
723.719	6390.35
723.913	6804.03
724.107	6961.73
724.301	6378.06
724.495	6539.85
724.689	7225.92
724.883	6982.21
725.077	6320.71
725.271	6298.19
725.465	7074.37
725.659	6693.44
725.853	6693.44
726.046	6470.22
726.24	6552.13
726.434	6754.88
726.628	6333
726.822	6578.76
727.015	7043.65
727.209	7035.46
727.403	6378.06
727.596	6267.47
727.79	6812.23
727.984	6734.4
728.177	6263.37
728.371	6523.46
728.565	6926.91
728.758	6353.48
728.952	6242.89
729.146	6394.44
729.339	6767.17
729.533	6675.01
729.726	6365.77
729.92	6396.49
730.113	6926.91
730.307	6795.84
730.5	6449.74
730.694	6347.34
730.887	6550.09
731.081	6865.47
731.274	6416.97
731.468	6402.63
731.661	6718.02
731.854	6652.49
732.048	6464.07
732.241	6056.53
732.435	6419.02
732.628	6419.02
732.821	6306.38
733.014	6310.47
733.208	6251.08
733.401	6748.74
733.594	6289.99
733.788	6390.35
733.981	6855.23
734.174	6636.1
734.367	6429.26
734.56	6666.82
734.754	6758.98
734.947	6560.33
735.14	6320.71
735.333	6423.11
735.526	6804.03
735.719	6406.73
735.912	6265.42
736.105	6410.82
736.298	6560.33
736.491	6476.36
736.684	6214.22
736.877	6312.52
737.07	6572.61
737.263	6767.17
737.456	6206.03
737.649	6048.33
737.842	6394.44
738.035	6476.36
738.228	6408.78
738.421	6349.39
738.614	6804.03
738.807	6763.08
739	5956.18
739.192	6150.73
739.385	6726.21
739.578	6646.34
739.771	6441.54
739.964	6126.16
740.156	6705.73
740.349	6500.94
740.542	6427.21
740.735	6111.82
740.927	6230.6
741.12	6308.43
741.313	5980.75
741.505	6359.63
741.698	6468.17
741.891	6548.04
742.083	6414.92
742.276	6126.16
742.468	6599.24
742.661	6502.98
742.854	6419.02
743.046	6066.77
743.239	6648.39
743.431	6464.07
743.624	6220.36
743.816	6050.38
744.009	6488.65
744.201	6529.61
744.393	6421.06
744.586	6070.86
744.778	6740.55
744.971	6427.21
745.163	6271.56
745.355	6302.28
745.548	6455.88
745.74	6238.8
745.932	6267.47
746.125	6263.37
746.317	6955.58
746.509	6609.48
746.702	6163.02
746.894	6242.89
747.086	6451.78
747.278	6767.17
747.471	6261.32
747.663	6214.22
747.855	6464.07
748.047	6896.19
748.239	6124.11
748.431	6042.19
748.623	6892.1
748.815	6873.67
749.008	5947.98
749.2	6101.58
749.392	6791.75
749.584	6513.22
749.776	6132.3
749.968	6507.08
750.16	6920.77
750.352	6453.83
750.544	6267.47
750.736	6074.96
750.928	6527.56
751.12	6476.36
751.311	6093.39
751.503	6253.13
751.695	6437.45
751.887	6296.14
752.079	5868.11
752.271	6044.24
752.463	7162.43
752.654	6566.47
752.846	5962.32
753.038	5986.9
753.23	6128.21
753.421	6468.17
753.613	6027.85
753.805	6320.71
753.997	6578.76
754.188	6394.44
754.38	5827.15
754.572	5988.94
754.763	6324.81
754.955	6279.75
755.146	6095.44
755.338	5988.94
755.53	6406.73
755.721	6132.3
755.913	5816.91
756.104	5970.51
756.296	6308.43
756.487	6363.72
756.679	5825.11
756.87	6044.24
757.062	6083.15
757.253	6339.15
757.445	5816.91
757.636	6085.2
757.827	6244.94
758.019	6912.58
758.21	5857.87
758.401	5761.62
758.593	6603.33
758.784	6550.09
758.975	5741.14
759.167	5823.06
759.358	6142.54
759.549	6437.45
759.74	5870.16
759.932	5872.21
760.123	6402.63
760.314	6050.38
760.505	6107.73
760.696	5907.02
760.888	6558.28
761.079	6048.33
761.27	5788.24
761.461	5735
761.652	6535.75
761.843	6038.09
762.034	5651.03
762.225	6060.62
762.416	5915.22
762.607	5923.41
762.798	5685.84
762.989	5683.8
763.18	6865.47
763.371	5950.03
763.562	5784.15
763.753	5816.91
763.944	6371.91
764.135	6160.97
764.326	5945.94
764.517	5831.25
764.708	6115.92
764.899	6183.5
765.089	5798.48
765.28	5720.66
765.471	6087.25
765.662	6244.94
765.853	5816.91
766.043	5550.68
766.234	6173.26
766.425	6105.68
766.615	5751.38
766.806	5366.36
766.997	6136.4
767.187	6042.19
767.378	5620.31
767.569	5431.9
767.759	5900.88
767.95	5954.13
768.141	5562.97
768.331	5585.49
768.522	5610.07
768.712	6103.63
768.903	5681.75
769.093	5376.6
769.284	6212.17
769.474	5775.95
769.665	5487.19
769.855	5390.94
770.046	6050.38
770.236	5698.13
770.426	5726.8
770.617	5513.81
770.807	5859.92
770.998	5544.53
771.188	5517.91
771.378	5374.55
771.569	6001.23
771.759	6015.57
771.949	5374.55
772.139	5331.55
772.33	5700.18
772.52	6046.29
772.71	5333.59
772.9	5311.07
773.09	6140.49
773.281	6107.73
773.471	5323.35
773.661	5464.66
773.851	5874.26
774.041	5501.53
774.231	5313.11
774.421	5440.09
774.611	5890.64
774.802	5646.93
774.992	5419.61
775.182	5255.77
775.372	5534.29
775.562	5710.42
775.752	5392.98
775.942	5429.85
776.131	5884.5
776.321	5651.03
776.511	5235.29
776.701	5141.08
776.891	5800.53
777.081	5327.45
777.271	5433.94
777.461	5253.72
777.651	5626.45
777.84	5691.99
778.03	5370.46
778.22	5231.19
778.41	5790.29
778.599	5345.88
778.789	5421.66
778.979	5182.04
779.169	5589.59
779.358	5360.22
779.548	5470.81
779.738	4899.42
779.927	5476.95
780.117	5292.63
780.307	5063.26
780.496	4868.7
780.686	5546.58
780.875	5909.07
781.065	4960.86
781.254	5214.81
781.444	5382.74
781.633	5446.23
781.823	5204.57
782.012	5018.21
782.202	5231.19
782.391	5175.9
782.581	5171.8
782.77	5245.53
782.96	5569.11
783.149	5362.26
783.338	5098.08
783.528	4995.68
783.717	5628.5
783.906	5685.84
784.096	5210.72
784.285	4942.43
784.474	5214.81
784.663	5190.24
784.853	5116.51
785.042	5081.69
785.231	5161.56
785.42	5456.47
785.61	5132.89
785.799	5108.32
785.988	5182.04
786.177	5130.84
786.366	4946.53
786.555	4948.58
786.744	5644.88
786.933	5145.18
787.122	4901.47
787.312	4842.08
787.501	5161.56
787.69	5489.24
787.879	4985.44
788.068	4930.14
788.257	4977.25
788.445	5192.28
788.634	4995.68
788.823	4842.08
789.012	5792.34
789.201	5423.7
789.39	4907.62
789.579	5016.16
789.768	5018.21
789.957	5194.33
790.145	4751.97
790.334	4663.91
790.523	5098.08
790.712	5046.88
790.9	4860.51
791.089	4655.72
791.278	5296.73
791.467	5100.12
791.655	5132.89
791.844	5319.26
792.033	4897.38
792.221	5022.3
792.41	4647.52
792.599	4633.19
792.787	5235.29
792.976	5198.43
793.164	4655.72
793.353	4809.31
793.541	5309.02
793.73	5231.19
793.918	4788.83
794.107	4676.2
794.295	5024.35
794.484	5089.89
794.672	4737.63
794.861	4475.49
795.049	4860.51
795.238	5450.33
795.426	4479.59
795.614	4706.91
795.803	5028.45
795.991	5345.88
796.179	4663.91
796.368	4641.38
796.556	5180
796.744	4842.08
796.932	4715.11
797.121	4428.39
797.309	5014.11
797.497	5130.84
797.685	4756.07
797.874	4786.79
798.062	4735.59
798.25	5349.98
798.438	4547.17
798.626	4670.05
798.814	4938.34
799.002	5352.02
799.19	4811.36
799.378	4495.97
799.566	5163.61
799.755	5167.71
799.943	4837.98
800.131	4594.28
800.318	5048.93
800.506	5145.18
800.694	4647.52
800.882	4758.11
801.07	5128.8
801.258	4840.03
801.446	4543.08
801.634	4827.74
801.822	4928.1
802.01	4825.7
802.197	4639.33
802.385	4702.82
802.573	5016.16
802.761	4729.44
802.949	4794.98
803.136	4452.97
803.324	5247.58
803.512	5233.24
803.699	4758.11
803.887	4600.42
804.075	5231.19
804.262	4895.33
804.45	4528.74
804.638	4723.3
804.825	4772.45
805.013	4811.36
805.201	4770.4
805.388	4563.56
805.576	5112.41
805.763	5448.28
805.951	4584.04
806.138	4674.15
806.326	5364.31
806.513	5075.55
806.701	4778.59
806.888	4731.49
807.075	4973.15
807.263	5339.74
807.45	4516.45
807.638	4829.79
807.825	5323.35
808.012	5274.2
808.2	4686.44
808.387	4977.25
808.574	5077.6
808.761	5321.31
808.949	4743.78
809.136	4842.08
809.323	4862.56
809.51	4985.44
809.698	4831.84
809.885	5044.83
810.072	5247.58
810.259	5462.62
810.446	4694.63
810.633	4786.79
810.82	5345.88
811.008	5366.36
811.195	5075.55
811.382	4854.37
811.569	5157.47
811.756	4758.11
811.943	4739.68
812.13	4829.79
812.317	4786.79
812.504	4985.44
812.691	5022.3
812.878	4850.27
813.064	5405.27
813.251	4907.62
813.438	4735.59
813.625	4739.68
813.812	4950.62
813.999	4850.27
814.186	4903.52
814.372	4897.38
814.559	5212.76
814.746	5339.74
814.933	4561.51
815.12	5042.78
815.306	4989.53
815.493	4784.74
815.68	4694.63
815.866	4940.38
816.053	5462.62
816.24	5544.53
816.426	5012.06
816.613	4700.77
816.799	5196.38
816.986	5306.97
817.173	4797.03
817.359	4788.83
817.546	4989.53
817.732	4735.59
817.919	4545.13
818.105	4837.98
818.292	4977.25
818.478	4975.2
818.665	4907.62
818.851	4608.61
819.037	5536.34
819.224	4971.1
819.41	4579.94
819.597	4602.47
819.783	5202.52
819.969	5157.47
820.156	4788.83
820.342	4563.56
820.528	5765.71
820.714	4930.14
820.901	4858.46
821.087	4567.65
821.273	5431.9
821.459	5018.21
821.646	4575.84
821.832	4655.72
822.018	5073.5
822.204	4899.42
822.39	4905.57
822.576	4643.43
822.762	5112.41
822.948	5081.69
823.134	4844.13
823.32	4809.31
823.507	4670.05
823.693	4858.46
823.879	5104.22
824.065	4631.14
824.25	4905.57
824.436	4706.91
824.622	4639.33
824.808	4594.28
824.994	4788.83
825.18	4573.8
825.366	4442.73
825.552	4629.09
825.738	5032.54
825.923	5159.52
826.109	4899.42
826.295	4500.07
826.481	4801.12
826.667	4809.31
826.852	4625
827.038	4409.96
827.224	5079.65
827.409	5362.26
827.595	4276.84
827.781	4770.4
827.966	5091.93
828.152	5038.69
828.338	4604.52
828.523	4299.37
828.709	4706.91
828.894	5085.79
829.08	4469.35
829.266	4469.35
829.451	4665.96
829.637	4803.17
829.822	4622.95
830.008	4502.12
830.193	4987.49
830.378	5141.08
830.564	4719.2
830.749	4455.01
830.935	4797.03
831.12	4885.09
831.305	4455.01
831.491	4469.35
831.676	4332.14
831.861	4973.15
832.047	4479.59
832.232	4366.95
832.417	4989.53
832.602	4754.02
832.788	4375.14
832.973	4223.59
833.158	4479.59
833.343	4670.05
833.528	4553.32
833.714	4723.3
833.899	4788.83
834.084	5048.93
834.269	4414.06
834.454	4332.14
834.639	4981.34
834.824	4592.23
835.009	4596.32
835.194	4508.26
835.379	4809.31
835.564	4985.44
835.749	4424.3
835.934	4153.96
836.119	4788.83
836.304	4512.36
836.489	4448.87
836.674	4457.06
836.859	4430.44
837.044	4895.33
837.228	4307.56
837.413	4270.7
837.598	4674.15
837.783	4887.14
837.968	4262.51
838.152	4186.73
838.337	4153.96
838.522	4852.32
838.707	4680.29
838.891	4428.39
839.076	4594.28
839.261	4831.84
839.445	4272.75
839.63	4325.99
839.815	4969.05
839.999	4407.91
840.184	4182.63
840.368	4303.47
840.553	4739.68
840.737	4702.82
840.922	3936.88
841.106	4139.63
841.291	4248.17
841.475	4489.83
841.66	4227.69
841.844	4325.99
842.029	5163.61
842.213	4133.48
842.397	4170.35
842.582	3924.59
842.766	4825.7
842.951	4637.28
843.135	4092.52
843.319	4215.4
843.504	4369
843.688	4778.59
843.872	3848.82
844.056	4156.01
844.241	4487.78
844.425	4289.13
844.609	4233.83
844.793	4026.99
844.977	4645.48
845.161	4584.04
845.346	4026.99
845.53	4131.44
845.714	4495.97
845.898	4854.37
846.082	3947.12
846.266	4061.8
846.45	4483.69
846.634	4416.1
846.818	4143.72
847.002	4266.6
847.186	4373.1
847.37	4250.22
847.554	3885.68
847.738	4248.17
847.922	4309.61
848.106	4391.53
848.29	3818.1
848.473	3840.62
848.657	4596.32
848.841	4133.48
849.025	3904.11
849.209	3773.04
849.392	4356.71
849.576	4305.51
849.76	3781.23
849.944	4156.01
850.127	4491.88
850.311	3859.06
850.495	3732.08
850.678	3805.81
850.862	4502.12
851.046	4739.68
851.229	4029.04
851.413	3844.72
851.596	4239.98
851.78	4233.83
851.964	4096.62
852.147	4026.99
852.331	4852.32
852.514	4461.16
852.698	4096.62
852.881	3895.92
853.065	4387.43
853.248	4133.48
853.431	4065.9
853.615	3809.9
853.798	4676.2
853.982	4325.99
854.165	4029.04
854.348	3832.43
854.532	3951.21
854.715	4033.13
854.898	3814
855.081	3869.3
855.265	4412.01
855.448	4461.16
855.631	3691.12
855.814	3684.98
855.997	4293.23
856.181	4022.89
856.364	3877.49
856.547	3539.57
856.73	4237.93
856.913	4231.79
857.096	3713.65
857.279	3822.19
857.462	3762.8
857.645	4201.07
857.828	3865.2
858.011	3885.68
858.194	3945.07
858.377	4192.87
858.56	3615.35
858.743	3646.07
858.926	3719.79
859.109	4256.36
859.292	3666.55
859.475	3496.57
859.658	4223.59
859.841	4182.63
860.023	3684.98
860.206	3582.58
860.389	4106.86
860.572	4350.57
860.755	3709.55
860.937	3918.45
861.12	3953.26
861.303	3857.01
861.486	3793.52
861.668	3676.79
861.851	4110.96
862.034	4037.23
862.216	3764.85
862.399	3433.08
862.581	4014.7
862.764	4108.91
862.947	3701.36
863.129	3605.11
863.312	3533.43
863.494	4190.83
863.677	3838.58
863.859	3543.67
864.042	4061.8
864.224	4164.2
864.406	3564.15
864.589	3381.88
864.771	3926.64
864.954	3529.33
865.136	3328.63
865.318	3207.8
865.501	3828.34
865.683	3390.07
865.865	3437.17
866.048	3576.44
866.23	3879.54
866.412	3811.95
866.594	3369.59
866.777	3609.2
866.959	3883.63
867.141	3658.35
867.323	3773.04
867.505	3625.59
867.687	3781.23
867.869	3727.99
868.052	3539.57
868.234	3361.4
868.416	3693.17
868.598	3859.06
868.78	3435.13
868.962	3408.5
869.144	3885.68
869.326	3826.29
869.508	3482.23
869.69	3512.95
869.872	3467.89
870.054	4029.04
870.236	3228.28
870.417	3218.04
870.599	3713.65
870.781	4141.68
870.963	3547.76
871.145	3338.87
871.327	3383.93
871.508	4022.89
871.69	3437.17
871.872	3308.15
872.054	3637.88
872.235	3797.62
872.417	3447.41
872.599	3310.2
872.78	4055.66
872.962	3658.35
873.144	3211.9
873.325	3412.6
873.507	3957.36
873.689	3551.86
873.87	3242.62
874.052	3365.5
874.233	3541.62
874.415	3897.97
874.596	3400.31
874.778	3291.77
874.959	3725.94
875.141	3887.73
875.322	3201.66
875.503	3324.54
875.685	3699.31
875.866	3490.42
876.048	3302.01
876.229	3248.76
876.41	3562.1
876.592	3707.51
876.773	3498.61
876.954	2945.66
877.136	4010.61
877.317	3533.43
877.498	3220.09
877.679	3451.51
877.86	3752.56
878.042	3631.73
878.223	3508.85
878.404	3779.18
878.585	3740.27
878.766	4340.33
878.947	3635.83
879.128	3576.44
879.309	3818.1
879.49	3975.79
879.672	3490.42
879.853	3545.72
880.034	3521.14
880.215	3555.96
880.396	3449.46
880.576	3304.06
880.757	3551.86
880.938	3943.02
881.119	3369.59
881.3	3371.64
881.481	3502.71
881.662	4485.73
881.843	3322.49
882.023	3234.43
882.204	3836.53
882.385	3699.31
882.566	3363.45
882.747	3383.93
882.927	3723.89
883.108	3789.42
883.289	3351.16
883.469	3740.27
883.65	3666.55
883.831	3768.95
884.011	3615.35
884.192	3422.84
884.373	4063.85
884.553	3725.94
884.734	3633.78
884.914	3916.4
885.095	4412.01
885.275	4244.07
885.456	3963.5
885.636	3480.18
885.817	3725.94
885.997	3867.25
886.178	3478.13
886.358	3574.39
886.538	3838.58
886.719	4754.02
886.899	3570.29
887.08	3654.26
887.26	4070
887.44	3482.23
887.621	3605.11
887.801	3637.88
887.981	4369
888.161	3922.54
888.342	3678.83
888.522	3625.59
888.702	3967.6
888.882	4067.95
889.062	3754.61
889.242	3314.3
889.423	4287.08
889.603	4070
889.783	3678.83
889.963	3506.81
890.143	4108.91
890.323	4325.99
890.503	3652.21
890.683	3814
890.863	3973.74
891.043	4067.95
891.223	3766.9
891.403	3715.7
891.583	3801.71
891.763	3965.55
891.943	3715.7
892.122	3576.44
892.302	3961.45
892.482	3846.77
892.662	3762.8
892.842	3555.96
893.022	4029.04
893.201	3603.06
893.381	3799.66
893.561	3617.4
893.741	4117.1
893.92	3863.15
894.1	3701.36
894.28	3764.85
894.459	3947.12
894.639	3983.98
894.819	3666.55
894.998	3848.82
895.178	3904.11
895.357	4037.23
895.537	3465.85
895.716	3441.27
895.896	3725.94
896.075	4117.1
896.255	3682.93
896.434	3345.02
896.614	3979.89
896.793	4098.67
896.973	3648.12
897.152	3617.4
897.331	3904.11
897.511	3832.43
897.69	3410.55
897.87	3494.52
898.049	4014.7
898.228	3879.54
898.407	3660.4
898.587	3666.55
898.766	3646.07
898.945	3902.06
899.124	3770.99
899.304	3588.72
899.483	3826.29
899.662	4231.79
899.841	3363.45
900.02	3455.61
900.199	4002.41
900.378	3764.85
900.557	3494.52
900.737	3353.21
900.916	3760.75
901.095	3725.94
901.274	3601.01
901.453	3125.88
901.632	3357.3
901.811	3416.69
901.989	3394.17
902.168	3445.37
902.347	3783.28
902.526	3504.76
902.705	3361.4
902.884	3451.51
903.063	3781.23
903.242	3793.52
903.42	3187.32
903.599	3308.15
903.778	3699.31
903.957	3785.33
904.135	3412.6
904.314	3345.02
904.493	3521.14
904.672	3666.55
904.85	3265.14
905.029	3142.27
905.207	3574.39
905.386	4063.85
905.565	2906.75
905.743	3023.48
905.922	3334.78
906.1	3555.96
906.279	2953.85
906.457	2945.66
906.636	3191.42
906.814	3011.2
906.993	3041.92
907.171	2980.48
907.35	3340.92
907.528	3490.42
907.707	3140.22
907.885	2742.91
908.063	3533.43
908.242	3078.78
908.42	2964.09
908.598	2753.15
908.777	3363.45
908.955	3048.06
909.133	3048.06
909.311	2808.45
909.49	3060.35
909.668	3183.23
909.846	2953.85
910.024	2607.75
910.202	3330.68
910.38	3367.54
910.559	2855.55
910.737	2804.35
910.915	3144.31
911.093	3314.3
911.271	2939.52
911.449	3160.7
911.627	3392.12
911.805	3824.24
911.983	3140.22
912.161	2810.5
912.339	3308.15
912.517	3641.97
912.695	3164.79
912.872	3070.59
913.05	3093.12
913.228	3383.93
913.406	3119.74
913.584	2955.9
913.762	3549.81
913.939	3078.78
914.117	3005.05
914.295	2955.9
914.473	3336.82
914.65	3455.61
914.828	2970.24
915.006	2916.99
915.184	2972.29
915.361	3392.12
915.539	2896.51
915.716	3269.24
915.894	3363.45
916.072	3494.52
916.249	3228.28
916.427	3162.75
916.604	2937.47
916.782	3414.65
916.959	2974.33
917.137	3052.16
917.314	3388.02
917.492	3482.23
917.669	3187.32
917.847	3146.36
918.024	3324.54
918.201	3129.98
918.379	3119.74
918.556	3152.51
918.733	3543.67
918.911	3222.14
919.088	3162.75
919.265	2980.48
919.442	3287.67
919.62	3160.7
919.797	2966.14
919.974	2730.62
920.151	3310.2
920.328	3193.47
920.506	3078.78
920.683	3172.99
920.86	2888.32
921.037	3029.63
921.214	2880.13
921.391	2783.87
921.568	3347.06
921.745	3039.87
921.922	3043.96
922.099	2847.36
922.276	3293.82
922.453	3097.21
922.63	2763.39
922.807	3203.71
922.984	3201.66
923.161	2880.13
923.338	2974.33
923.514	2765.44
923.691	3023.48
923.868	3338.87
924.045	2929.28
924.222	2859.65
924.399	3220.09
924.575	3371.64
924.752	2933.37
924.929	2847.36
925.105	3252.86
925.282	2964.09
925.459	2767.49
925.635	2849.41
925.812	3295.86
925.989	2839.17
926.165	2910.85
926.342	2667.14
926.518	2851.46
926.695	3023.48
926.871	2728.58
927.048	2699.91
927.224	3144.31
927.401	2796.16
927.577	2677.38
927.754	2785.92
927.93	3103.36
928.107	3148.41
928.283	2585.22
928.459	2747.01
928.636	2927.23
928.812	2939.52
928.988	2574.98
929.165	2390.66
929.341	2867.84
929.517	2837.12
929.693	2968.19
929.87	2341.51
930.046	2939.52
930.222	2691.71
930.398	2538.12
930.574	2687.62
930.751	2798.21
930.927	2714.24
931.103	2679.43
931.279	2562.69
931.455	2593.41
931.631	2890.37
931.807	2304.65
931.983	2431.62
932.159	2478.72
932.335	2704
932.511	2574.98
932.687	2460.29
932.863	2783.87
933.039	2675.33
933.215	2247.3
933.391	2212.49
933.566	2550.4
933.742	2658.95
933.918	2335.37
934.094	2222.73
934.27	2523.78
934.445	2456.2
934.621	2480.77
934.797	2224.78
934.973	2617.99
935.148	2402.95
935.324	2022.03
935.5	1946.25
935.675	2638.47
935.851	2448.01
936.027	2030.22
936.202	2054.8
936.378	2423.43
936.553	2239.11
936.729	2380.42
936.904	1895.05
937.08	1880.72
937.255	1991.31
937.431	1815.18
937.606	1720.98
937.782	1962.64
937.957	2228.87
938.133	1798.8
938.308	1737.36
938.483	1878.67
938.659	1598.1
938.834	1757.84
939.009	1532.56
939.185	1798.8
939.36	1725.07
939.535	1233.56
939.71	1647.25
939.886	1972.88
940.061	1850
940.236	1673.87
940.411	1442.45
940.586	1831.57
940.761	1878.67
940.937	1442.45
941.112	1290.9
941.287	1696.4
941.462	1612.43
941.637	1360.53
941.812	1565.33
941.987	1684.11
942.162	1665.68
942.337	1393.3
942.512	1315.48
942.687	1831.57
942.862	1786.51
943.037	1315.48
943.212	1065.63
943.386	1444.5
943.561	1581.71
943.736	1553.04
943.911	1647.25
944.086	1626.77
944.26	1663.63
944.435	1350.29
944.61	1348.25
944.785	1790.61
944.959	1995.4
945.134	1301.14
945.309	1143.45
945.483	1335.96
945.658	1788.56
945.833	1067.67
946.007	1147.55
946.182	1933.97
946.357	1278.62
946.531	1213.08
946.706	1352.34
946.88	1057.43
947.055	1600.15
947.229	1317.53
947.404	1233.56
947.578	1835.66
947.752	1505.94
947.927	1192.6
948.101	1127.07
948.276	1659.54
948.45	1467.03
948.624	1450.64
948.799	1206.94
948.973	1550.99
949.147	1256.09
949.321	1350.29
949.496	1204.89
949.67	1852.05
949.844	1571.47
950.018	1356.44
950.193	1385.11
950.367	1979.02
950.541	1573.52
950.715	1450.64
950.889	1565.33
951.063	1481.36
951.237	1725.07
951.411	1092.25
951.585	1122.97
951.759	1637.01
951.933	1589.91
952.107	1407.64
952.281	1542.8
952.455	2116.23
952.629	1845.9
952.803	1264.28
952.977	1350.29
953.151	1987.21
953.325	1710.74
953.499	1618.58
953.672	1264.28
953.846	1483.41
954.02	1577.62
954.194	1346.2
954.368	1194.65
954.541	1845.9
954.715	1532.56
954.889	1538.71
955.062	1356.44
955.236	1620.63
955.41	1546.9
955.583	1548.95
955.757	1290.9
955.93	1700.5
956.104	1462.93
956.278	1360.53
956.451	1528.47
956.625	1686.16
956.798	2032.27
956.972	1794.7
957.145	1292.95
957.319	1737.36
957.492	1600.15
957.665	1649.3
957.839	1346.2
958.012	1825.42
958.185	1612.43
958.359	1372.82
958.532	1667.73
958.705	1913.49
958.879	1790.61
959.052	1524.37
959.225	1313.43
959.398	1698.45
959.572	1776.27
959.745	1456.79
959.918	1565.33
960.091	1581.71
960.264	1940.11
960.438	1346.2
960.611	1450.64
960.784	1999.5
960.957	1581.71
961.13	1819.28
961.303	1399.45
961.476	1667.73
961.649	1958.54
961.822	1292.95
961.995	1516.18
962.168	1798.8
962.341	1745.55
962.514	1462.93
962.686	1395.35
962.859	1667.73
963.032	1864.33
963.205	1446.55
963.378	1282.71
963.551	1700.5
963.723	1561.23
963.896	1604.24
964.069	1581.71
964.242	1739.41
964.414	1876.62
964.587	1540.76
964.76	1569.43
964.932	1827.47
965.105	1716.88
965.278	1403.54
965.45	1473.17
965.623	1743.5
965.795	1790.61
965.968	1448.6
966.14	1487.51
966.313	1520.28
966.485	1696.4
966.658	1323.67
966.83	1378.97
967.003	1983.12
967.175	1858.19
967.348	1401.49
967.52	1450.64
967.692	2105.99
967.865	1763.98
968.037	1503.89
968.209	1720.98
968.382	1659.54
968.554	1856.14
968.726	1493.65
968.898	1321.62
969.071	1659.54
969.243	1682.07
969.415	1376.92
969.587	1456.79
969.759	2052.75
969.932	1813.13
970.104	1450.64
970.276	1161.88
970.448	1417.88
970.62	1481.36
970.792	1501.84
970.964	1469.08
971.136	2118.28
971.308	1811.09
971.48	1350.29
971.652	1372.82
971.824	2015.88
971.996	1516.18
972.168	1426.07
972.339	1419.93
972.511	1876.62
972.683	1622.67
972.855	1544.85
973.027	1290.9
973.199	1518.23
973.37	1753.74
973.542	1479.32
973.714	1458.84
973.886	1561.23
974.057	1774.22
974.229	1301.14
974.401	1340.05
974.572	1389.21
974.744	1180.31
974.915	1286.81
975.087	1243.8
975.259	1925.77
975.43	1542.8
975.602	1251.99
975.773	1219.22
975.945	1321.62
976.116	1706.64
976.288	1303.19
976.459	1446.55
976.63	1454.74
976.802	1624.72
976.973	1145.5
977.145	1372.82
977.316	2056.84
977.487	1839.76
977.659	1454.74
977.83	1360.53
978.001	1923.73
978.172	1598.1
978.344	1258.14
978.515	1319.57
978.686	1450.64
978.857	1800.85
979.028	1327.77
979.2	1163.93
979.371	1729.17
979.542	1397.4
979.713	1434.26
979.884	899.74
980.055	1321.62
980.226	1454.74
980.397	1206.94
980.568	1151.64
980.739	1680.02
980.91	1512.08
981.081	1295
981.252	1108.63
981.423	1544.85
981.594	1542.8
981.765	1108.63
981.936	1241.75
982.106	1489.56
982.277	1727.12
982.448	1063.58
982.619	1454.74
982.79	1307.29
982.96	1600.15
983.131	1219.22
983.302	971.42
983.472	1370.77
983.643	1477.27
983.814	1311.38
983.984	1131.16
984.155	1331.86
984.326	1577.62
984.496	1084.06
984.667	1213.08
984.837	1243.8
985.008	1692.3
985.178	1327.77
985.349	1098.39
985.519	1331.86
985.69	1247.9
985.86	1159.83
986.031	1079.96
986.201	1479.32
986.371	1430.16
986.542	963.23
986.712	864.93
986.882	1299.09
987.053	1403.54
987.223	965.28
987.393	1233.56
987.563	1032.86
987.734	1469.08
987.904	1372.82
988.074	1000.09
988.244	1438.36
988.414	1147.55
988.585	996
988.755	1063.58
988.925	1184.41
989.095	1532.56
989.265	959.13
989.435	1077.91
989.605	1348.25
989.775	1315.48
989.945	1299.09
990.115	821.92
990.285	1196.7
990.455	1344.15
990.625	1043.1
990.795	860.83
990.965	1589.91
991.134	903.84
991.304	946.84
991.474	946.84
991.644	1284.76
991.814	1432.21
991.984	815.77
992.153	909.98
992.323	1178.26
992.493	1135.26
992.662	637.6
992.832	1071.77
993.002	1172.12
993.171	1202.84
993.341	651.94
993.511	963.23
993.68	918.17
993.85	1182.36
994.019	717.47
994.189	701.09
994.358	1241.75
994.528	1032.86
994.697	606.88
994.867	737.95
995.036	1272.47
995.206	885.41
995.375	660.13
995.544	1059.48
995.714	1233.56
995.883	1034.91
996.052	864.93
996.222	529.06
996.391	1563.28
996.56	1129.11
996.73	762.53
996.899	696.99
997.068	1491.6
997.237	1075.87
997.406	688.8
997.576	586.4
997.745	1000.09
997.914	1157.78
998.083	531.11
998.252	715.42
998.421	1022.62
998.59	807.58
998.759	696.99
998.928	481.96
999.097	1231.51
999.266	1022.62
999.435	795.29
999.604	537.25
999.773	1385.11
999.942	983.71
1000.111	488.1
1000.28	520.87
1000.448	754.34
1000.617	754.34
1000.786	940.7
1000.955	529.06
1001.124	996
1001.292	1526.42
1001.461	676.51
1001.63	504.48
1001.798	1301.14
1001.967	1245.85
1002.136	545.44
1002.304	639.65
1002.473	1024.67
1002.642	971.42
1002.81	613.03
1002.979	664.22
1003.147	1020.57
1003.316	1315.48
1003.484	588.45
1003.653	602.79
1003.821	1151.64
1003.99	938.65
1004.158	785.05
1004.327	586.4
1004.495	983.71
1004.663	699.04
1004.832	684.7
1005	389.8
1005.168	924.32
1005.337	862.88
1005.505	346.79
1005.673	684.7
1005.842	946.84
1006.01	963.23
1006.178	463.52
1006.346	504.48
1006.514	963.23
1006.683	1092.25
1006.851	461.48
1007.019	561.83
1007.187	580.26
1007.355	412.32
1007.523	268.97
1007.691	397.99
1007.859	436.9
1008.027	1135.26
1008.195	406.18
1008.363	377.51
1008.531	938.65
1008.699	684.7
1008.867	291.49
1009.035	471.72
1009.203	1014.43
1009.37	746.14
1009.538	455.33
1009.706	998.04
1009.874	729.76
1010.042	731.81
1010.209	279.21
1010.377	387.75
1010.545	977.56
1010.713	766.62
1010.88	367.27
1011.048	395.94
1011.216	758.43
1011.383	1159.83
1011.551	326.31
1011.718	311.97
1011.886	922.27
1012.054	684.7
1012.221	205.48
1012.389	344.74
1012.556	600.74
1012.724	1069.72
1012.891	402.08
1013.058	189.1
1013.226	807.58
1013.393	940.7
1013.561	187.05
1013.728	119.46
1013.895	899.74
1014.063	735.9
1014.23	228.01
1014.397	264.87
1014.565	811.68
1014.732	645.79
1014.899	225.96
1015.066	139.94
1015.233	713.38
1015.401	774.81
1015.568	322.21
1015.735	336.55
1015.902	727.71
1016.069	750.24
1016.236	250.53
1016.403	232.1
1016.57	369.32
1016.737	860.83
1016.904	338.6
1017.071	131.75
1017.238	426.66
1017.405	852.64
1017.572	174.76
1017.739	412.32
1017.906	742.05
1018.073	856.73
1018.24	180.9
1018.407	264.87
1018.573	860.83
1018.74	596.64
1018.907	299.69
1019.074	45.74
1019.241	817.82
1019.407	584.35
1019.574	121.51
1019.741	43.69
1019.907	565.92
1020.074	666.27
1020.241	8.87
1020.407	27.31
1020.574	670.37
1020.74	656.03
1020.907	203.43
1021.073	162.47
1021.24	1028.76
1021.406	901.79
1021.573	70.31
1021.739	160.42
1021.906	807.58
1022.072	455.33
1022.239	189.1
1022.405	123.56
1022.571	594.59
1022.738	326.31
1022.904	115.37
1023.07	131.75
1023.237	631.46
1023.403	836.25
1023.569	168.62
1023.735	101.03
1023.902	596.64
1024.068	576.16
1024.234	-3.41
1024.4	51.88
1024.566	567.97
1024.732	725.66
1024.898	178.86
1025.065	-68.95
1025.231	737.95
1025.397	373.41
1025.563	197.29
1025.729	80.55
1025.895	94.89
1026.061	193.19
1026.227	-7.51
1026.392	125.61
1026.558	811.68
1026.724	502.43
1026.89	64.17
1027.056	178.86
1027.222	588.45
1027.388	408.23
1027.553	107.18
1027.719	80.55
1027.885	823.97
1028.051	596.64
1028.216	-91.48
1028.382	51.88
1028.548	617.12
1028.713	395.94
1028.879	-101.72
1029.045	201.38
1029.21	717.47
1029.376	653.98
1029.541	164.52
1029.707	121.51
1029.873	596.64
1030.038	576.16
1030.204	43.69
1030.369	107.18
1030.534	680.61
1030.7	363.17
1030.865	53.93
1031.031	68.27
1031.196	518.82
1031.361	459.43
1031.527	33.45
1031.692	41.64
1031.857	53.93
1032.023	522.91
1032.188	15.02
1032.353	144.04
1032.518	729.76
1032.684	498.34
1032.849	-44.37
1033.014	31.4
1033.179	627.36
1033.344	531.11
1033.509	76.46
1033.674	-15.7
1033.839	561.83
1034.004	539.3
1034.17	-42.32
1034.335	-85.33
1034.5	301.73
1034.664	225.96
1034.829	43.69
1034.994	88.75
1035.159	502.43
1035.324	516.77
1035.489	53.93
1035.654	8.87
1035.819	705.18
1035.984	504.48
1036.148	-11.61
1036.313	-19.8
1036.478	684.7
1036.643	340.65
1036.807	-30.04
1036.972	-56.66
1037.137	606.88
1037.301	445.09
1037.466	-116.05
1037.631	25.26
1037.795	617.12
1037.96	402.08
1038.124	209.58
1038.289	-105.81
1038.454	565.92
1038.618	422.56
1038.783	55.98
1038.947	98.99
1039.111	385.7
1039.276	316.07
1039.44	-73.04
1039.605	363.17
1039.769	225.96
1039.933	277.16
1040.098	45.74
1040.262	164.52
1040.426	588.45
1040.591	514.72
1040.755	-71
1040.919	-56.66
1041.083	430.76
1041.248	320.17
1041.412	-163.15
1041.576	-58.71
1041.74	332.45
1041.904	586.4
1042.068	-73.04
1042.232	-23.89
1042.397	598.69
1042.561	477.86
1042.725	-249.17
1042.889	156.33
1043.053	590.5
1043.217	488.1
1043.381	185
1043.544	-44.37
1043.708	649.89
1043.872	115.37
1044.036	-374.1
1044.2	-189.78
1044.364	580.26
1044.528	684.7
1044.691	5030.49
1044.855	-167.25
1045.019	518.82
1045.183	412.32
1045.346	-56.66
1045.51	-87.38
1045.674	469.67
1045.837	436.9
1046.001	-79.19
1046.165	-103.76
1046.328	987.8
1046.492	469.67
1046.655	70.31
1046.819	-25.94
1046.983	293.54
1047.146	451.24
1047.31	49.83
1047.473	-236.88
1047.636	311.97
1047.8	107.18
1047.963	-36.18
1048.127	-32.08
1048.29	152.23
