Data from Hydrogel_Ink_Intensity_Test_1_USB4F045381__86__00086.txt Node

Date: Mon Jul 31 10:58:30 EDT 2023
User: mmckonesweet
Spectrometer: USB4F04538
Trigger mode: 4
Integration Time (sec): 9.000000E-1
Scans to average: 1
Electric dark correction enabled: true
Nonlinearity correction enabled: false
Boxcar width: 0
XAxis mode: Wavelengths
Number of Pixels in Spectrum: 3648
>>>>>Begin Spectral Data<<<<<
345.52	-993.61
345.736	-993.61
345.952	-993.61
346.168	-1022.28
346.384	-1085.76
346.6	-76.12
346.816	-172.37
347.032	-205.14
347.248	245.41
347.464	-215.38
347.68	-209.23
347.896	28.33
348.112	429.73
348.328	13.99
348.544	-88.4
348.76	-10.58
348.975	259.75
349.191	-293.2
349.407	-264.53
349.623	26.28
349.839	71.34
350.055	-135.51
350.27	36.52
350.486	204.46
350.702	327.33
350.918	249.51
351.133	-121.17
351.349	157.35
351.565	349.86
351.781	-248.15
351.996	46.76
352.212	349.86
352.428	-55.64
352.644	-217.43
352.859	-231.76
353.075	288.42
353.291	69.29
353.506	-78.16
353.722	-153.94
353.938	-0.34
354.153	482.98
354.369	85.67
354.584	-237.91
354.8	255.65
355.016	-301.39
355.231	-215.38
355.447	-86.36
355.662	173.74
355.878	863.9
356.093	-350.54
356.309	-67.92
356.524	-151.89
356.74	323.24
356.955	-192.85
357.171	-18.77
357.386	173.74
357.602	-317.78
357.817	-112.98
358.033	-151.89
358.248	382.63
358.464	194.22
358.679	-47.44
358.895	-303.44
359.11	-0.34
359.325	253.61
359.541	267.94
359.756	22.19
359.972	-352.59
360.187	204.46
360.402	-123.22
360.618	-74.07
360.833	1072.79
361.048	67.24
361.264	-131.41
361.479	13.99
361.694	48.81
361.909	261.8
362.125	-145.75
362.34	-53.59
362.555	317.09
362.77	48.81
362.986	-215.38
363.201	-100.69
363.416	214.7
363.631	120.49
363.847	-162.13
364.062	-127.32
364.277	267.94
364.492	153.26
364.707	-131.41
364.922	-350.54
365.138	292.52
365.353	423.59
365.568	-268.63
365.783	-112.98
365.998	161.45
366.213	636.58
366.428	-229.71
366.643	-0.34
366.858	284.33
367.073	218.79
367.288	-135.51
367.503	-219.47
367.718	241.32
367.933	356.01
368.148	-233.81
368.363	13.99
368.578	24.23
368.793	411.3
369.008	-131.41
369.223	-172.37
369.438	177.83
369.653	431.78
369.868	-219.47
370.083	-215.38
370.298	149.16
370.513	407.2
370.728	120.49
370.943	-164.18
371.157	-123.22
371.372	554.66
371.587	-336.21
371.802	-270.67
372.017	97.96
372.232	470.69
372.446	-24.92
372.661	-311.63
372.876	276.13
373.091	222.89
373.306	-10.58
373.52	-194.9
373.735	-168.27
373.95	519.84
374.165	-39.25
374.379	-80.21
374.594	-24.92
374.809	171.69
375.023	42.67
375.238	-213.33
375.453	306.85
375.667	-170.32
375.882	-184.66
376.097	-137.56
376.311	116.39
376.526	87.72
376.741	-188.75
376.955	151.21
377.17	657.06
377.384	616.1
377.599	42.67
377.813	-244.05
378.028	614.05
378.242	267.94
378.457	-59.73
378.672	-305.49
378.886	190.12
379.101	1.71
379.315	-350.54
379.53	-125.27
379.744	308.9
379.958	325.29
380.173	-108.88
380.387	-129.36
380.602	210.6
380.816	-67.92
381.031	-96.6
381.245	-51.54
381.459	323.24
381.674	2817.66
381.888	-174.42
382.103	226.98
382.317	-100.69
382.531	521.89
382.746	-18.77
382.96	-125.27
383.174	-2.39
383.388	505.51
383.603	169.64
383.817	-239.95
384.031	153.26
384.246	579.23
384.46	89.77
384.674	403.11
384.888	79.53
385.103	134.82
385.317	-266.58
385.531	153.26
385.745	485.03
385.959	456.36
386.174	-170.32
386.388	-127.32
386.602	100.01
386.816	-108.88
387.03	-65.88
387.244	-24.92
387.458	231.08
387.672	485.03
387.887	-180.56
388.101	-158.03
388.315	319.14
388.529	165.54
388.743	-76.12
388.957	-211.28
389.171	423.59
389.385	-125.27
389.599	11.95
389.813	159.4
390.027	220.84
390.241	732.83
390.455	7.85
390.669	13.99
390.883	65.19
391.097	505.51
391.311	114.34
391.525	-88.4
391.738	214.7
391.952	325.29
392.166	-0.34
392.38	-158.03
392.594	421.54
392.808	468.64
393.022	9.9
393.236	-61.78
393.449	288.42
393.663	280.23
393.877	-166.23
394.091	81.58
394.305	48.81
394.518	63.15
394.732	-125.27
394.946	-55.64
395.16	601.76
395.373	91.82
395.587	-104.79
395.801	-14.68
396.015	349.86
396.228	296.61
396.442	-180.56
396.656	-280.91
396.869	403.11
397.083	571.04
397.297	5.8
397.51	16.04
397.724	425.64
397.938	296.61
398.151	-190.8
398.365	-90.45
398.578	358.05
398.792	411.3
399.005	134.82
399.219	-39.25
399.433	245.41
399.646	261.8
399.86	169.64
400.073	204.46
400.287	366.25
400.5	153.26
400.714	128.68
400.927	54.95
401.141	431.78
401.354	1283.74
401.567	358.05
401.781	-47.44
401.994	403.11
402.208	757.41
402.421	61.1
402.635	38.57
402.848	169.64
403.061	442.02
403.275	89.77
403.488	-117.08
403.701	698.02
403.915	460.45
404.128	280.23
404.341	18.09
404.555	349.86
404.768	198.31
404.981	183.98
405.195	-47.44
405.408	648.86
405.621	386.72
405.834	331.43
406.048	-104.79
406.261	562.85
406.474	597.67
406.687	-43.35
406.9	220.84
407.114	304.81
407.327	372.39
407.54	-63.83
407.753	-117.08
407.966	-67.92
408.179	384.68
408.392	71.34
408.605	-84.31
408.819	341.67
409.032	491.17
409.245	3.75
409.458	214.7
409.671	360.1
409.884	505.51
410.097	-127.32
410.31	186.02
410.523	329.38
410.736	206.5
410.949	93.87
411.162	161.45
411.375	650.91
411.588	517.79
411.801	292.52
412.014	67.24
412.227	226.98
412.44	165.54
412.653	30.38
412.865	153.26
413.078	538.27
413.291	347.81
413.504	196.26
413.717	-16.73
413.93	558.75
414.143	91.82
414.356	169.64
414.568	-74.07
414.781	485.03
414.994	313
415.207	120.49
415.42	100.01
415.632	530.08
415.845	802.46
416.058	-47.44
416.271	1.71
416.483	294.57
416.696	769.69
416.909	59.05
417.121	97.96
417.334	509.6
417.547	806.56
417.759	79.53
417.972	1.71
418.185	122.54
418.397	550.56
418.61	151.21
418.823	87.72
419.035	765.6
419.248	358.05
419.46	190.12
419.673	261.8
419.885	474.79
420.098	341.67
420.311	114.34
420.523	-106.84
420.736	501.41
420.948	435.88
421.161	138.92
421.373	-4.44
421.586	415.4
421.798	276.13
422.01	-80.21
422.223	220.84
422.435	255.65
422.648	626.34
422.86	91.82
423.073	147.11
423.285	628.39
423.497	46.76
423.71	112.3
423.922	63.15
424.134	507.55
424.347	771.74
424.559	321.19
424.771	474.79
424.984	433.83
425.196	530.08
425.408	77.48
425.621	95.91
425.833	640.67
426.045	671.39
426.257	169.64
426.47	161.45
426.682	382.63
426.894	554.66
427.106	247.46
427.318	235.18
427.531	261.8
427.743	689.82
427.955	292.52
428.167	620.19
428.379	507.55
428.591	358.05
428.804	310.95
429.016	204.46
429.228	329.38
429.44	532.13
429.652	392.87
429.864	69.29
430.076	392.87
430.288	399.01
430.5	274.09
430.712	345.77
430.924	722.59
431.136	540.32
431.348	46.76
431.56	296.61
431.772	460.45
431.984	323.24
432.196	155.3
432.408	259.75
432.62	423.59
432.832	599.71
433.044	583.33
433.256	458.4
433.468	669.34
433.679	153.26
433.891	186.02
434.103	560.8
434.315	859.81
434.527	794.27
434.739	341.67
434.95	431.78
435.162	777.89
435.374	431.78
435.586	319.14
435.798	329.38
436.009	306.85
436.221	542.37
436.433	392.87
436.645	329.38
436.856	476.84
437.068	876.19
437.28	257.7
437.491	614.05
437.703	857.76
437.915	710.3
438.126	343.72
438.338	728.74
438.55	614.05
438.761	820.89
438.973	394.92
439.184	439.97
439.396	605.86
439.608	763.55
439.819	347.81
440.031	411.3
440.242	683.68
440.454	745.12
440.665	368.29
440.877	444.07
441.088	741.02
441.3	587.43
441.511	226.98
441.723	394.92
441.934	663.2
442.146	609.95
442.357	556.71
442.569	689.82
442.78	673.44
442.991	1128.09
443.203	698.02
443.414	370.34
443.626	1058.46
443.837	435.88
444.048	331.43
444.26	255.65
444.471	765.6
444.682	865.95
444.894	282.28
445.105	358.05
445.316	982.68
445.528	792.22
445.739	640.67
445.95	513.7
446.161	792.22
446.373	1005.21
446.584	521.89
446.795	478.88
447.006	1013.4
447.217	1119.9
447.429	345.77
447.64	358.05
447.851	1111.71
448.062	763.55
448.273	376.48
448.484	513.7
448.695	917.15
448.907	775.84
449.118	538.27
449.329	714.4
449.54	607.91
449.751	599.71
449.962	435.88
450.173	513.7
450.384	968.35
450.595	1121.95
450.806	540.32
451.017	612
451.228	1148.57
451.439	1167
451.65	609.95
451.861	300.71
452.072	595.62
452.283	843.42
452.494	759.46
452.705	540.32
452.915	1201.82
453.126	1042.07
453.337	730.78
453.548	411.3
453.759	1105.56
453.97	1406.61
454.181	835.23
454.391	642.72
454.602	857.76
454.813	1025.69
455.024	652.96
455.235	577.19
455.445	939.68
455.656	1042.07
455.867	902.81
456.078	669.34
456.288	868
456.499	1080.99
456.71	646.82
456.921	876.19
457.131	1128.09
457.342	997.02
457.553	706.21
457.763	718.5
457.974	1128.09
458.184	1164.95
458.395	648.86
458.606	689.82
458.816	1324.69
459.027	1558.16
459.237	974.49
459.448	636.58
459.659	1271.45
459.869	1595.03
460.08	628.39
460.29	980.64
460.501	1435.28
460.711	980.64
460.922	632.48
461.132	763.55
461.343	1779.34
461.553	779.93
461.764	886.43
461.974	827.04
462.184	1320.6
462.395	1304.21
462.605	1015.45
462.816	751.26
463.026	1279.64
463.236	1402.52
463.447	880.29
463.657	964.25
463.867	1472.15
464.078	1169.05
464.288	968.35
464.498	951.96
464.709	1238.68
464.919	1240.73
465.129	984.73
465.339	937.63
465.55	1496.72
465.76	1509.01
465.97	1029.79
466.18	1111.71
466.391	1578.64
466.601	1484.44
466.811	1128.09
467.021	1023.64
467.231	1472.15
467.441	1824.4
467.651	1197.72
467.862	894.62
468.072	1525.4
468.282	1709.71
468.492	1013.4
468.702	1201.82
468.912	1506.96
469.122	2066.06
469.332	1539.73
469.542	1226.39
469.752	1754.77
469.962	1576.59
470.172	1345.17
470.382	1275.54
470.592	1871.5
470.802	1930.89
471.012	1627.79
471.222	1308.31
471.432	1904.27
471.642	1990.28
471.852	1717.9
472.062	1418.9
472.272	1738.38
472.482	1603.22
472.691	1377.94
472.901	1230.49
473.111	1889.93
473.321	2356.87
473.531	1654.42
473.741	1744.53
473.95	2176.65
474.16	2078.35
474.37	1734.29
474.58	1513.11
474.79	2537.09
474.999	2283.14
475.209	1676.95
475.419	1785.49
475.628	2162.31
475.838	2315.91
476.048	1965.71
476.258	1750.67
476.467	2559.62
476.677	2004.62
476.886	2164.36
477.096	1982.09
477.306	2090.63
477.515	2588.29
477.725	2139.79
477.935	2088.59
478.144	2733.7
478.354	2223.75
478.563	2094.73
478.773	2102.92
478.982	2625.15
479.192	2782.85
479.401	2293.38
479.611	2180.75
479.82	2397.83
480.03	2524.8
480.239	2250.38
480.449	2391.69
480.658	2868.86
480.868	2539.14
481.077	2451.08
481.287	2408.07
481.496	2967.17
481.705	2901.63
481.915	2745.98
482.124	2702.98
482.333	2823.81
482.543	3094.14
482.752	2764.42
482.961	2709.12
483.171	3145.34
483.38	2745.98
483.589	2764.42
483.799	2643.59
484.008	2973.31
484.217	3188.35
484.426	2854.53
484.636	2676.35
484.845	3030.65
485.054	2815.62
485.263	3151.48
485.472	2891.39
485.682	3524.21
485.891	3178.11
486.1	2664.07
486.309	2979.45
486.518	3419.77
486.727	3546.74
486.936	2868.86
487.146	3073.66
487.355	3708.53
487.564	3085.95
487.773	3159.67
487.982	3044.99
488.191	3389.05
488.4	3599.99
488.609	3264.12
488.818	3241.59
489.027	4208.23
489.236	3888.75
489.445	3307.13
489.654	3257.98
489.863	3694.19
490.072	3681.91
490.281	3712.63
490.49	3602.04
490.698	4109.93
490.907	4028.01
491.116	3651.19
491.325	3251.83
491.534	4183.66
491.743	3880.56
491.952	3772.02
492.16	3864.18
492.369	3995.25
492.578	4226.67
492.787	3806.83
492.996	3503.73
493.204	3753.59
493.413	4343.4
493.622	3440.25
493.831	3495.54
494.039	4429.42
494.248	3806.83
494.457	3817.07
494.665	3745.39
494.874	4275.82
495.083	4816.48
495.291	4042.35
495.5	3966.57
495.709	4361.83
495.917	4191.85
496.126	3946.09
496.335	3903.09
496.543	4429.42
496.752	4521.57
496.96	4312.68
497.169	3851.89
497.377	4400.74
497.586	4611.68
497.794	4265.58
498.003	3729.01
498.211	4425.32
498.42	4767.33
498.628	4398.7
498.837	4093.55
499.045	4658.79
499.254	4548.2
499.462	4290.15
499.671	4228.71
499.879	5092.96
500.087	4642.4
500.296	4197.99
500.504	4413.03
500.713	4769.38
500.921	5283.42
501.129	4433.51
501.338	4415.08
501.546	4810.34
501.754	4789.86
501.962	4535.91
502.171	4458.09
502.379	4851.3
502.587	5119.58
502.795	4517.48
503.004	4460.13
503.212	4863.58
503.42	5152.35
503.628	4554.34
503.837	4617.83
504.045	5006.94
504.253	5473.88
504.461	4765.28
504.669	4421.22
504.877	5273.18
505.085	5588.57
505.294	4617.83
505.502	5023.33
505.71	5238.36
505.918	5248.6
506.126	4646.5
506.334	4775.52
506.542	5080.67
506.75	5176.92
506.958	5172.83
507.166	4998.75
507.374	5150.3
507.582	5658.2
507.79	4972.13
507.998	4925.02
508.206	5437.02
508.414	5363.29
508.622	5103.2
508.83	5017.18
509.037	5469.78
509.245	5238.36
509.453	5002.85
509.661	4882.02
509.869	5666.39
510.077	5314.14
510.285	5146.2
510.492	4730.47
510.7	5987.92
510.908	5230.17
511.116	5219.93
511.324	5095
511.531	5410.39
511.739	5613.14
511.947	5449.3
512.155	5604.95
512.362	5527.13
512.57	5387.86
512.778	5244.51
512.985	5068.38
513.193	5891.66
513.401	6018.64
513.608	5537.37
513.816	5504.6
514.024	5707.35
514.231	5895.76
514.439	5305.95
514.646	5377.62
514.854	5842.51
515.061	5889.62
515.269	5619.28
515.477	5590.61
515.684	5670.48
515.892	6250.06
516.099	5369.43
516.307	5396.06
516.514	5973.58
516.722	6127.18
516.929	5660.24
517.136	5551.7
517.344	6186.57
517.551	5973.58
517.759	5510.74
517.966	5699.16
518.173	5791.31
518.381	6022.73
518.588	5838.42
518.796	5676.63
519.003	6092.37
519.21	5969.49
519.418	5662.29
519.625	6180.43
519.832	6123.09
520.039	6286.92
520.247	5711.44
520.454	5832.27
520.661	6461
520.868	6231.63
521.076	5862.99
521.283	6039.12
521.49	7016
521.697	6344.27
521.904	5979.73
522.112	6035.02
522.319	6477.38
522.526	6377.03
522.733	6116.94
522.94	5979.73
523.147	6417.99
523.354	6563.4
523.561	5879.38
523.768	6192.72
523.975	6673.99
524.183	6174.28
524.39	6059.6
524.597	6018.64
524.804	6391.37
525.011	6397.51
525.218	6260.3
525.425	6321.74
525.632	6895.17
525.838	6360.65
526.045	6309.45
526.252	6407.75
526.459	7765.56
526.666	7577.14
526.873	6389.32
527.08	6481.48
527.287	7048.77
527.494	6620.74
527.701	6207.05
527.907	6260.3
528.114	6903.36
528.321	6694.47
528.528	6370.89
528.735	6573.64
528.941	6630.98
529.148	6747.72
529.355	6635.08
529.562	6350.41
529.768	7208.51
529.975	6600.26
530.182	6465.1
530.388	6329.93
530.595	7044.67
530.802	6649.41
531.008	6819.39
531.215	6708.8
531.422	7671.35
531.628	7652.92
531.835	6737.48
532.042	6739.52
532.248	6960.7
532.455	7054.91
532.661	6874.69
532.868	6776.39
533.074	7233.08
533.281	7251.52
533.487	6899.27
533.694	6829.63
533.9	6884.93
534.107	7390.78
534.313	6936.13
534.52	6989.38
534.726	7366.2
534.933	7648.82
535.139	6739.52
535.345	6913.6
535.552	7235.13
535.758	7153.21
535.965	6989.38
536.171	7001.66
536.377	7468.6
536.584	7738.93
536.79	6923.84
536.996	7190.08
537.203	7581.24
537.409	7568.95
537.615	7196.22
537.821	7329.34
538.028	7614.01
538.234	7702.07
538.44	7190.08
538.646	7165.5
538.853	7542.33
539.059	7401.02
539.265	7687.73
539.471	7050.82
539.677	7616.05
539.883	7497.27
540.09	7323.19
540.296	7855.67
540.502	7775.8
540.708	7294.52
540.914	7831.09
541.12	7329.34
541.326	7980.59
541.532	7708.21
541.738	7640.63
541.944	7585.33
542.15	8023.6
542.356	7992.88
542.562	7394.87
542.768	7601.72
542.974	8429.1
543.18	8396.33
543.386	7732.79
543.592	7431.74
543.798	8228.4
544.004	8173.1
544.21	7714.36
544.415	7788.08
544.621	8070.7
544.827	8111.66
545.033	7644.73
545.239	8115.76
545.445	7837.24
545.651	8201.77
545.856	7812.66
546.062	7753.27
546.268	7994.93
546.474	7990.83
546.679	7935.54
546.885	7953.97
547.091	8169.01
547.297	8705.57
547.502	8023.6
547.708	7738.93
547.914	8060.46
548.119	8517.16
548.325	7796.28
548.531	7716.4
548.736	8582.7
548.942	8025.65
549.147	7919.15
549.353	8164.91
549.559	8658.47
549.764	8578.6
549.97	7865.91
550.175	8054.32
550.381	8406.57
550.586	8005.17
550.792	8183.34
550.997	7990.83
551.203	8535.59
551.408	8586.79
551.614	8031.79
551.819	7878.19
552.025	8828.45
552.23	8943.14
552.435	8009.26
552.641	8308.27
552.846	8283.69
553.052	8660.52
553.257	8392.23
553.462	8312.36
553.668	8566.31
553.873	8896.03
554.078	8371.75
554.283	8224.3
554.489	8791.59
554.694	8590.89
554.899	8463.91
555.105	8664.61
555.31	8984.1
555.515	8945.19
555.72	8619.56
555.925	8324.65
556.131	8947.23
556.336	8795.68
556.541	8556.07
556.746	8468.01
556.951	9446.94
557.156	9117.22
557.361	8787.49
557.567	9002.53
557.772	9459.23
557.977	9043.49
558.182	8541.74
558.387	8644.13
558.592	8539.69
558.797	8996.39
559.002	8648.23
559.207	8879.65
559.412	8826.4
559.617	9500.19
559.822	8738.34
560.027	8689.19
560.232	9287.2
560.437	9205.28
560.642	8656.42
560.847	8670.76
561.051	9176.61
561.256	9016.87
561.461	8728.1
561.666	8814.12
561.871	9393.69
562.076	9293.34
562.281	9166.37
562.485	8826.4
562.69	9365.02
562.895	9483.8
563.1	8959.52
563.305	8789.54
563.509	9614.87
563.714	9813.52
563.919	9004.58
564.123	8918.56
564.328	9283.1
564.533	9494.04
564.737	8840.74
564.942	9096.74
565.147	9668.12
565.351	9879.06
565.556	9031.2
565.761	9111.07
565.965	9500.19
566.17	9190.94
566.374	9111.07
566.579	9131.55
566.784	9625.11
566.988	9264.67
567.193	8795.68
567.397	9115.17
567.602	9086.5
567.806	9410.08
568.011	9254.43
568.215	9178.65
568.42	9428.51
568.624	9270.81
568.828	9178.65
569.033	9356.83
569.237	9725.46
569.442	9676.31
569.646	9023.01
569.85	9319.96
570.055	9545.24
570.259	9436.7
570.463	9389.6
570.668	9188.89
570.872	9645.59
571.076	9465.37
571.281	9451.03
571.485	9473.56
571.689	9688.6
571.893	9983.51
572.098	9430.55
572.302	9332.25
572.506	9844.24
572.71	9963.03
572.914	9539.1
573.119	9393.69
573.323	10157.58
573.527	10319.37
573.731	9526.81
573.935	9477.66
574.139	9905.68
574.343	9682.45
574.547	9741.85
574.751	9745.94
574.955	10198.54
575.159	10219.02
575.364	9451.03
575.568	9537.05
575.772	9813.52
575.976	10270.22
576.18	9547.29
576.383	9690.65
576.587	10206.73
576.791	10169.87
576.995	9541.15
577.199	9532.95
577.403	10212.88
577.607	10343.95
577.811	9725.46
578.015	9737.75
578.219	10221.07
578.422	10415.63
578.626	9819.67
578.83	10339.85
579.034	10346
579.238	10008.08
579.442	9823.76
579.645	10180.11
579.849	10370.57
580.053	10274.32
580.257	9793.05
580.46	10008.08
580.664	10470.92
580.868	10366.48
581.071	10325.52
581.275	10266.13
581.479	9897.49
581.682	10673.67
581.886	10192.4
582.09	10270.22
582.293	10688.01
582.497	10593.8
582.7	10171.92
582.904	10067.47
583.107	10196.5
583.311	10233.36
583.515	10266.13
583.718	10208.78
583.922	10616.33
584.125	11044.35
584.329	10051.09
584.532	10489.35
584.735	10886.66
584.939	10542.6
585.142	9907.73
585.346	10196.5
585.549	10610.18
585.753	10522.12
585.956	10251.79
586.159	10499.59
586.363	11208.19
586.566	10962.44
586.769	10477.07
586.973	10169.87
587.176	10913.28
587.379	10974.72
587.582	10788.36
587.786	10618.38
587.989	10667.53
588.192	11482.62
588.395	10647.05
588.599	10681.86
588.802	10958.34
589.005	10952.2
589.208	10630.66
589.411	10581.51
589.615	11048.45
589.818	11343.36
590.021	10812.93
590.224	10739.21
590.427	11314.69
590.63	11152.9
590.833	10391.05
591.036	10464.78
591.239	10935.81
591.442	10782.21
591.645	10966.53
591.848	10638.86
592.051	10982.92
592.254	11310.59
592.457	10698.25
592.66	10782.21
592.863	11183.62
593.066	11339.26
593.269	10702.34
593.472	10978.82
593.675	11079.17
593.878	11351.55
594.081	10917.38
594.284	10790.41
594.486	11261.44
594.689	11574.78
594.892	10960.39
595.095	11161.09
595.298	11519.48
595.5	11062.79
595.703	11013.63
595.906	11126.27
596.109	11574.78
596.311	11769.34
596.514	10614.28
596.717	11165.18
596.92	11615.74
597.122	11648.5
597.325	10776.07
597.528	11054.59
597.73	11892.21
597.933	11515.39
598.136	11146.75
598.338	10987.01
598.541	11601.4
598.743	11963.89
598.946	11116.03
599.148	11173.38
599.351	11793.91
599.554	11544.06
599.756	11339.26
599.959	11357.69
600.161	11638.27
600.363	12385.77
600.566	11400.7
600.768	11535.87
600.971	12021.24
601.173	11824.63
601.376	11226.62
601.578	11431.42
601.78	11802.1
601.983	12174.83
602.185	11159.04
602.388	11415.04
602.59	11812.34
602.792	11658.74
602.995	11537.91
603.197	11376.13
603.399	12056.05
603.601	11949.56
603.804	11308.54
604.006	11392.51
604.208	11558.39
604.41	11294.21
604.613	11642.36
604.815	11451.9
605.017	12262.9
605.219	11576.83
605.421	11830.77
605.623	11279.87
605.826	12140.02
606.028	12111.35
606.23	11445.76
606.432	11355.65
606.634	12348.91
606.836	12135.92
607.038	11503.1
607.24	11787.77
607.442	11875.83
607.644	11947.51
607.846	11509.24
608.048	11361.79
608.25	12146.16
608.452	11609.59
608.654	11767.29
608.856	11482.62
609.058	11734.52
609.26	12205.55
609.462	11484.67
609.664	11699.7
609.866	12307.95
610.067	12142.07
610.269	11916.79
610.471	11591.16
610.673	11849.21
610.875	11937.27
611.077	11320.83
611.278	11636.22
611.48	11947.51
611.682	12375.53
611.884	11916.79
612.085	11740.66
612.287	11933.17
612.489	12232.18
612.69	11716.09
612.892	11892.21
613.094	12465.64
613.295	12068.34
613.497	11765.24
613.699	11429.37
613.9	12240.37
614.102	12101.11
614.304	11808.25
614.505	11431.42
614.707	11990.52
614.908	11755
615.11	11636.22
615.311	11955.7
615.513	12283.38
615.714	12195.31
615.916	11705.85
616.117	11857.4
616.319	12209.65
616.52	12101.11
616.722	11820.53
616.923	11697.66
617.124	12615.15
617.326	12131.83
617.527	11716.09
617.729	12006.9
617.93	12396.01
618.131	12359.15
618.333	11765.24
618.534	11654.65
618.735	12166.64
618.937	12574.19
619.138	11662.84
619.339	11578.87
619.54	12037.62
619.742	11834.87
619.943	11769.34
620.144	11902.45
620.345	12432.88
620.546	12269.04
620.748	11808.25
620.949	11957.75
621.15	12150.26
621.351	12051.95
621.552	11967.99
621.753	11828.73
621.954	11759.1
622.155	12568.04
622.356	11652.6
622.558	12031.48
622.759	12287.47
622.96	12592.62
623.161	11888.12
623.362	11963.89
623.563	12156.4
623.764	12320.24
623.965	11881.97
624.166	12314.09
624.366	11920.88
624.567	12385.77
624.768	11755
624.969	11953.65
625.17	12056.05
625.371	12551.66
625.572	12019.19
625.773	11824.63
625.973	12695.02
626.174	12525.04
626.375	12142.07
626.576	12017.14
626.777	12563.95
626.977	12768.74
627.178	12015.09
627.379	12066.29
627.58	12312.05
627.78	12230.13
627.981	12054
628.182	12264.94
628.382	12537.32
628.583	12236.27
628.784	12097.01
628.984	12244.46
629.185	12654.06
629.386	12600.81
629.586	12193.26
629.787	12269.04
629.987	12426.73
630.188	12289.52
630.388	12199.41
630.589	12090.87
630.79	12957.16
630.99	12283.38
631.191	12271.09
631.391	12230.13
631.591	12568.04
631.792	12854.76
631.992	12357.1
632.193	12017.14
632.393	12867.05
632.594	12410.35
632.794	12314.09
632.994	12416.49
633.195	12328.43
633.395	12649.96
633.595	12215.79
633.796	12604.91
633.996	12410.35
634.196	12576.23
634.397	12281.33
634.597	12203.5
634.797	12238.32
634.997	12946.92
635.198	12396.01
635.398	12273.14
635.598	12850.66
635.798	12869.09
635.998	12475.88
636.199	12086.77
636.399	12353.01
636.599	12406.25
636.799	12377.58
636.999	12432.88
637.199	12805.61
637.399	12805.61
637.599	12293.62
637.799	12457.45
637.999	12451.31
638.199	12768.74
638.399	12344.81
638.599	12221.94
638.799	13002.21
638.999	12991.97
639.199	12576.23
639.399	12557.8
639.599	13024.74
639.799	12391.92
639.999	12482.03
640.199	12340.72
640.399	12662.25
640.599	12678.63
640.799	12586.47
640.998	12684.78
641.198	13149.67
641.398	12834.28
641.598	12367.34
641.798	12680.68
641.997	13553.12
642.197	12752.36
642.397	12563.95
642.597	12432.88
642.796	12856.81
642.996	13075.94
643.196	12711.4
643.395	12307.95
643.595	13114.85
643.795	12434.92
643.994	12340.72
644.194	12559.85
644.394	13024.74
644.593	12838.37
644.793	12400.11
644.992	12844.52
645.192	12932.58
645.392	12414.45
645.591	12854.76
645.791	12932.58
645.99	13223.39
646.19	12844.52
646.389	12891.62
646.589	12895.72
646.788	13415.9
646.987	13116.9
647.187	13151.71
647.386	13043.17
647.586	12991.97
647.785	13477.34
647.984	12756.46
648.184	12692.97
648.383	12641.77
648.582	12719.59
648.782	12682.73
648.981	12977.64
649.18	12703.21
649.38	13223.39
649.579	12690.92
649.778	12688.87
649.977	13192.67
650.177	13260.26
650.376	12797.42
650.575	12551.66
650.774	13391.33
650.973	12961.25
651.173	12588.52
651.372	12869.09
651.571	13155.81
651.77	13151.71
651.969	12850.66
652.168	13157.86
652.367	12926.44
652.566	12998.12
652.765	12926.44
652.964	13112.8
653.163	13407.71
653.362	13155.81
653.561	12932.58
653.76	12885.48
653.959	13090.27
654.158	13532.64
654.357	12944.87
654.556	12953.06
654.755	13542.88
654.954	13284.83
655.153	12821.99
655.352	12953.06
655.551	13389.28
655.749	12981.73
655.948	12746.22
656.147	13022.69
656.346	13184.48
656.545	13153.76
656.743	13030.88
656.942	12897.77
657.141	13219.3
657.34	12989.92
657.538	13008.36
657.737	12934.63
657.936	13364.7
658.135	13512.16
658.333	13192.67
658.532	13374.94
658.731	13858.26
658.929	13684.19
659.128	13409.76
659.326	12858.85
659.525	13671.9
659.724	13338.08
659.922	13020.64
660.121	12969.44
660.319	13174.24
660.518	13086.18
660.716	13000.16
660.915	13182.43
661.113	13848.02
661.312	12928.49
661.51	12961.25
661.709	12924.39
661.907	13198.82
662.105	14007.76
662.304	13131.23
662.502	13108.71
662.701	13663.71
662.899	13370.85
663.097	13284.83
663.296	12977.64
663.494	13700.57
663.692	13868.5
663.891	12996.07
664.089	13010.4
664.287	13286.88
664.485	13661.66
664.684	12897.77
664.882	13016.55
665.08	13516.25
665.278	13452.77
665.476	12844.52
665.675	13215.2
665.873	13882.84
666.071	13563.36
666.269	12938.73
666.467	13284.83
666.665	13735.39
666.863	13178.34
667.061	13180.39
667.259	13030.88
667.457	13403.61
667.655	13483.48
667.853	13024.74
668.051	13151.71
668.249	13131.23
668.447	13370.85
668.645	12961.25
668.843	13274.59
669.041	13622.75
669.239	13284.83
669.437	13227.49
669.635	13350.37
669.833	13065.7
670.031	13190.63
670.229	13159.91
670.426	13348.32
670.624	13055.46
670.822	13022.69
671.02	13147.62
671.218	13018.6
671.415	13084.13
671.613	13293.02
671.811	13106.66
672.009	13190.63
672.206	13559.26
672.404	13356.51
672.602	13204.96
672.799	13239.78
672.997	13284.83
673.195	13630.94
673.392	13192.67
673.59	12830.18
673.788	13108.71
673.985	12994.02
674.183	13301.22
674.38	13002.21
674.578	13340.13
674.775	13112.8
674.973	12989.92
675.17	13151.71
675.368	13395.42
675.565	13452.77
675.763	12838.37
675.96	12803.56
676.158	13188.58
676.355	12948.97
676.553	12903.91
676.75	12850.66
676.947	13039.08
677.145	12996.07
677.342	12854.76
677.539	13094.37
677.737	13120.99
677.934	13641.18
678.131	13133.28
678.329	13229.54
678.526	13573.6
678.723	13043.17
678.92	13000.16
679.118	13082.08
679.315	12867.05
679.512	13460.96
679.709	12795.37
679.906	13172.19
680.104	13465.05
680.301	13180.39
680.498	12727.78
680.695	12623.34
680.892	12944.87
681.089	12735.98
681.286	12869.09
681.483	12436.97
681.68	13184.48
681.877	13080.04
682.075	12807.66
682.272	13069.8
682.469	13090.27
682.665	13065.7
682.862	12682.73
683.059	12627.43
683.256	13063.65
683.453	13061.6
683.65	12834.28
683.847	12828.13
684.044	13002.21
684.241	12475.88
684.438	12948.97
684.635	12801.51
684.831	13270.5
685.028	13751.77
685.225	12819.94
685.422	12819.94
685.619	13080.04
685.815	13112.8
686.012	12926.44
686.209	12570.09
686.405	12533.23
686.602	12973.54
686.799	12461.55
686.996	12609
687.192	12692.97
687.389	13530.59
687.586	12510.7
687.782	12676.59
687.979	13293.02
688.175	12930.53
688.372	12660.2
688.568	12576.23
688.765	12592.62
688.962	13428.19
689.158	13043.17
689.355	12625.39
689.551	13088.23
689.748	12719.59
689.944	12606.95
690.14	12221.94
690.337	12897.77
690.533	12563.95
690.73	12709.35
690.926	12297.71
691.123	12699.11
691.319	12969.44
691.515	12385.77
691.712	12875.24
691.908	12998.12
692.104	12875.24
692.301	12404.21
692.497	12377.58
692.693	12942.82
692.889	12826.09
693.086	12803.56
693.282	12221.94
693.478	12789.22
693.674	13063.65
693.87	12756.46
694.067	12416.49
694.263	12584.43
694.459	12785.13
694.655	12557.8
694.851	12430.83
695.047	12955.11
695.243	12838.37
695.439	12662.25
695.635	12588.52
695.831	12688.87
696.027	12682.73
696.224	12418.54
696.42	12760.55
696.615	12979.68
696.811	12688.87
697.007	12066.29
697.203	12131.83
697.399	12484.08
697.595	12723.69
697.791	11904.5
697.987	12389.87
698.183	12305.9
698.379	12297.71
698.575	12230.13
698.77	12166.64
698.966	12711.4
699.162	12695.02
699.358	12168.69
699.554	12123.63
699.749	12680.68
699.945	12731.88
700.141	12344.81
700.337	12289.52
700.532	12137.97
700.728	12230.13
700.924	12043.76
701.119	12045.81
701.315	12441.07
701.511	12219.89
701.706	12375.53
701.902	11832.82
702.097	12080.63
702.293	12537.32
702.489	12197.36
702.684	12166.64
702.88	12416.49
703.075	12027.38
703.271	12082.67
703.466	12015.09
703.662	12262.9
703.857	12389.87
704.053	12064.24
704.248	12066.29
704.443	12279.28
704.639	12006.9
704.834	12217.84
705.03	11984.37
705.225	12555.76
705.42	12379.63
705.616	12154.35
705.811	12207.6
706.006	12336.62
706.202	11974.13
706.397	12209.65
706.592	12035.57
706.787	12287.47
706.983	12502.51
707.178	12242.42
707.373	12211.7
707.568	12318.19
707.763	12432.88
707.959	12142.07
708.154	11828.73
708.349	12221.94
708.544	12553.71
708.739	12111.35
708.934	11853.3
709.129	12336.62
709.324	12572.14
709.519	11943.41
709.714	11697.66
709.909	12434.92
710.104	12273.14
710.299	11892.21
710.494	12219.89
710.689	12348.91
710.884	12189.17
711.079	12004.85
711.274	12314.09
711.469	12365.29
711.664	12310
711.859	11767.29
712.054	12215.79
712.249	12127.73
712.443	12355.05
712.638	11765.24
712.833	11877.88
713.028	12342.77
713.223	11920.88
713.417	12025.33
713.612	11714.04
713.807	12336.62
714.002	12572.14
714.196	12107.25
714.391	11593.21
714.586	12400.11
714.78	12031.48
714.975	11867.64
715.17	11871.73
715.364	11998.71
715.559	12416.49
715.754	11402.75
715.948	11572.73
716.143	12389.87
716.337	11984.37
716.532	12006.9
716.726	11773.43
716.921	12266.99
717.115	12283.38
717.31	11445.76
717.504	12516.84
717.699	11744.76
717.893	11982.32
718.088	11507.2
718.282	11507.2
718.476	11965.94
718.671	11912.69
718.865	11279.87
719.059	11736.57
719.254	11804.15
719.448	12174.83
719.642	13120.99
719.837	11101.7
720.031	11974.13
720.225	12199.41
720.419	11822.58
720.614	11331.07
720.808	11976.18
721.002	11752.95
721.196	11763.19
721.39	11523.58
721.585	12277.23
721.779	11742.71
721.973	11566.59
722.167	11177.47
722.361	11859.45
722.555	11638.27
722.749	11400.7
722.943	11245.06
723.137	11449.85
723.331	11924.98
723.525	11558.39
723.719	11236.86
723.913	11951.6
724.107	11984.37
724.301	11486.72
724.495	11476.48
724.689	12195.31
724.883	11914.74
725.077	11329.02
725.271	11630.07
725.465	11890.17
725.659	11650.55
725.853	11736.57
726.046	11302.4
726.24	11138.56
726.434	11566.59
726.628	11277.82
726.822	11318.78
727.015	11896.31
727.209	11863.54
727.403	11292.16
727.596	11298.3
727.79	11832.82
727.984	11924.98
728.177	11367.93
728.371	11679.22
728.565	11789.81
728.758	11351.55
728.952	11255.29
729.146	11210.24
729.339	11914.74
729.533	11593.21
729.726	11224.58
729.92	11296.25
730.113	11988.47
730.307	11427.32
730.5	11316.73
730.694	11253.25
730.887	11392.51
731.081	12107.25
731.274	11277.82
731.468	11374.08
731.661	11415.04
731.854	11765.24
732.048	11118.08
732.241	11349.5
732.435	11763.19
732.628	11871.73
732.821	11515.39
733.014	11179.52
733.208	11417.08
733.401	11576.83
733.594	11255.29
733.788	11339.26
733.981	11589.11
734.174	11910.64
734.367	11017.73
734.56	11472.38
734.754	11851.25
734.947	11521.53
735.14	11402.75
735.333	11312.64
735.526	11810.29
735.719	11515.39
735.912	11030.02
736.105	11181.57
736.298	11697.66
736.491	11564.54
736.684	11107.84
736.877	11015.68
737.07	11748.86
737.263	11892.21
737.456	11253.25
737.649	11019.78
737.842	11335.17
738.035	11699.7
738.228	11218.43
738.421	11445.76
738.614	11744.76
738.807	11771.38
739	11253.25
739.192	10968.58
739.385	11484.67
739.578	11728.38
739.771	11435.52
739.964	10978.82
740.156	11599.35
740.349	11335.17
740.542	11400.7
740.735	10896.9
740.927	11068.93
741.12	11228.67
741.313	10970.63
741.505	11408.89
741.698	11478.52
741.891	11314.69
742.083	11236.86
742.276	11060.74
742.468	11537.91
742.661	11206.14
742.854	11025.92
743.046	10968.58
743.239	11650.55
743.431	11167.23
743.624	10958.34
743.816	10548.75
744.009	11122.18
744.201	11208.19
744.393	11191.81
744.586	10866.18
744.778	11456
744.971	11208.19
745.163	11064.83
745.355	11156.99
745.548	11281.92
745.74	11294.21
745.932	11261.44
746.125	10864.13
746.317	11816.44
746.509	11232.77
746.702	10905.09
746.894	11050.5
747.086	10972.68
747.278	11441.66
747.471	10948.1
747.663	11013.63
747.855	11113.99
748.047	11335.17
748.239	11066.88
748.431	10984.96
748.623	11685.37
748.815	11638.27
749.008	11189.76
749.2	10763.78
749.392	11511.29
749.584	11234.82
749.776	11105.79
749.968	11113.99
750.16	11580.92
750.352	11163.14
750.544	10958.34
750.736	10948.1
750.928	11369.98
751.12	11120.13
751.311	10829.32
751.503	10898.95
751.695	11126.27
751.887	10960.39
752.079	10608.14
752.271	10788.36
752.463	11863.54
752.654	11404.8
752.846	10915.33
753.038	10845.7
753.23	10966.53
753.421	11351.55
753.613	10739.21
753.805	11068.93
753.997	11230.72
754.188	11185.66
754.38	10563.08
754.572	10464.78
754.763	10647.05
754.955	10810.89
755.146	10647.05
755.338	10712.58
755.53	11038.21
755.721	10901
755.913	10462.73
756.104	10313.23
756.296	10898.95
756.487	11058.69
756.679	10774.02
756.87	10442.25
757.062	10827.27
757.253	11240.96
757.445	10610.18
757.636	10683.91
757.827	11030.02
758.019	11335.17
758.21	10382.86
758.401	10577.42
758.593	11011.59
758.784	11183.62
758.975	10368.52
759.167	10317.33
759.358	10765.83
759.549	10925.57
759.74	10411.53
759.932	10231.31
760.123	10855.94
760.314	10661.38
760.505	10415.63
760.696	10270.22
760.888	10982.92
761.079	10372.62
761.27	10092.05
761.461	10114.58
761.652	11064.83
761.843	10907.14
762.034	10251.79
762.225	10630.66
762.416	10679.82
762.607	10544.65
762.798	10114.58
762.989	10286.61
763.18	11308.54
763.371	10485.26
763.562	10102.29
763.753	10352.14
763.944	10847.75
764.135	10700.3
764.326	10413.58
764.517	10114.58
764.708	10395.15
764.899	10503.69
765.089	10085.9
765.28	9926.16
765.471	10407.44
765.662	10497.55
765.853	10049.04
766.043	9815.57
766.234	10184.21
766.425	10384.91
766.615	10167.82
766.806	9803.29
766.997	10649.1
767.187	10358.28
767.378	9895.44
767.569	9944.59
767.759	10407.44
767.95	10204.69
768.141	10202.64
768.331	9971.22
768.522	10290.7
768.712	10380.81
768.903	9920.02
769.093	9887.25
769.284	10546.7
769.474	10214.93
769.665	9590.3
769.855	9657.88
770.046	10229.26
770.236	10026.51
770.426	10012.18
770.617	9803.29
770.807	10114.58
770.998	9745.94
771.188	9764.37
771.378	9590.3
771.569	10257.93
771.759	10034.71
771.949	9516.57
772.139	9489.95
772.33	9899.54
772.52	10282.51
772.71	9659.93
772.9	9588.25
773.09	9999.89
773.281	10128.91
773.471	9598.49
773.661	9389.6
773.851	10106.38
774.041	9547.29
774.231	9442.84
774.421	9551.38
774.611	10067.47
774.802	9680.41
774.992	9424.41
775.182	9405.98
775.372	9664.02
775.562	10145.3
775.752	9440.79
775.942	9221.66
776.131	10151.44
776.321	10073.62
776.511	9395.74
776.701	9262.62
776.891	9752.09
777.081	9500.19
777.271	9614.87
777.461	9297.44
777.651	9489.95
777.84	9975.31
778.03	9539.1
778.22	9317.92
778.41	9807.38
778.599	9502.23
778.789	9485.85
778.979	9156.13
779.169	9807.38
779.358	9715.22
779.548	9641.5
779.738	9070.11
779.927	9561.62
780.117	9262.62
780.307	9123.36
780.496	8777.25
780.686	9639.45
780.875	9784.85
781.065	9164.32
781.254	9066.02
781.444	9416.22
781.633	9221.66
781.823	9139.74
782.012	9033.25
782.202	9399.84
782.391	9328.16
782.581	8738.34
782.77	9266.72
782.96	9467.42
783.149	9133.6
783.338	9055.78
783.528	8777.25
783.717	9412.12
783.906	9565.72
784.096	9119.26
784.285	8726.05
784.474	9049.63
784.663	8783.4
784.853	8826.4
785.042	9004.58
785.231	9129.5
785.42	9289.24
785.61	8805.92
785.799	8648.23
785.988	9096.74
786.177	9012.77
786.366	8922.66
786.555	9006.63
786.744	9442.84
786.933	9123.36
787.122	8805.92
787.312	8971.81
787.501	8922.66
787.69	9244.19
787.879	8904.23
788.068	8844.84
788.257	8547.88
788.445	9129.5
788.634	8660.52
788.823	8416.81
789.012	9606.68
789.201	9299.48
789.39	8807.97
789.579	8316.46
789.768	8869.41
789.957	8889.89
790.145	8660.52
790.334	8353.32
790.523	8810.02
790.712	8533.54
790.9	8588.84
791.089	8351.28
791.278	8936.99
791.467	8705.57
791.655	8902.18
791.844	9004.58
792.033	8566.31
792.221	8541.74
792.41	8721.96
792.599	8257.07
792.787	8922.66
792.976	8926.75
793.164	8277.55
793.353	8443.43
793.541	8992.29
793.73	9023.01
793.918	8345.13
794.107	8207.92
794.295	8791.59
794.484	8732.2
794.672	8367.66
794.861	8295.98
795.049	8742.44
795.238	8879.65
795.426	8193.58
795.614	8416.81
795.803	8730.15
795.991	9025.06
796.179	8232.49
796.368	8418.86
796.556	8934.95
796.744	8105.52
796.932	8310.32
797.121	8152.62
797.309	8461.87
797.497	8893.99
797.685	8234.54
797.874	8144.43
798.062	8443.43
798.25	8781.35
798.438	8091.18
798.626	8240.68
798.814	8535.59
799.002	8879.65
799.19	8267.31
799.378	8279.6
799.566	8615.46
799.755	8797.73
799.943	8295.98
800.131	8107.57
800.318	8656.42
800.506	8549.93
800.694	8027.7
800.882	8300.08
801.07	8961.57
801.258	8513.06
801.446	8085.04
801.634	8312.36
801.822	8414.76
802.01	8562.22
802.197	8443.43
802.385	8404.52
802.573	8599.08
802.761	8472.11
802.949	8558.12
803.136	8187.44
803.324	8779.3
803.512	8863.27
803.699	8369.71
803.887	8150.57
804.075	8756.77
804.262	8363.56
804.45	8093.23
804.638	8252.97
804.825	8240.68
805.013	8504.87
805.201	8533.54
805.388	8042.03
805.576	8369.71
805.763	8977.95
805.951	8386.09
806.138	8291.88
806.326	8889.89
806.513	8607.27
806.701	8216.11
806.888	8259.12
807.075	8744.49
807.263	8867.36
807.45	8283.69
807.638	8646.18
807.825	9016.87
808.012	8865.32
808.2	8506.92
808.387	8756.77
808.574	8805.92
808.761	9055.78
808.949	8508.97
809.136	8523.3
809.323	8603.18
809.51	8592.94
809.698	8658.47
809.885	8640.04
810.072	8857.12
810.259	8928.8
810.446	8377.9
810.633	8238.64
810.82	8926.75
811.008	9115.17
811.195	8517.16
811.382	8277.55
811.569	8717.86
811.756	8361.52
811.943	8625.7
812.13	8461.87
812.317	8488.49
812.504	8519.21
812.691	8701.48
812.878	8343.08
813.064	9012.77
813.251	8676.9
813.438	8310.32
813.625	8617.51
813.812	8646.18
813.999	8644.13
814.186	8508.97
814.372	8496.68
814.559	8742.44
814.746	8977.95
814.933	8242.73
815.12	8707.62
815.306	8635.94
815.493	8508.97
815.68	8326.7
815.866	8324.65
816.053	8812.07
816.24	9172.51
816.426	8445.48
816.613	8328.75
816.799	8932.9
816.986	9004.58
817.173	8150.57
817.359	8039.98
817.546	8721.96
817.732	8156.72
817.919	8169.01
818.105	8541.74
818.292	8551.98
818.478	8912.42
818.665	8377.9
818.851	8367.66
819.037	9231.9
819.224	8724.01
819.41	8267.31
819.597	8336.94
819.783	9086.5
819.969	8724.01
820.156	8361.52
820.342	8138.29
820.528	9459.23
820.714	8584.74
820.901	8336.94
821.087	8416.81
821.273	9012.77
821.459	8658.47
821.646	8111.66
821.832	8257.07
822.018	8578.6
822.204	8338.99
822.39	8377.9
822.576	8304.17
822.762	8744.49
822.948	8345.13
823.134	8435.24
823.32	8064.56
823.507	8113.71
823.693	8697.38
823.879	8721.96
824.065	8269.36
824.25	8519.21
824.436	8144.43
824.622	8166.96
824.808	8093.23
824.994	8191.53
825.18	8082.99
825.366	8039.98
825.552	8115.76
825.738	8343.08
825.923	8525.35
826.109	8177.2
826.295	7953.97
826.481	8285.74
826.667	8238.64
826.852	8404.52
827.038	7810.61
827.224	8750.63
827.409	8656.42
827.595	7665.21
827.781	8185.39
827.966	8496.68
828.152	8500.78
828.338	7890.48
828.523	7753.27
828.709	8123.95
828.894	8551.98
829.08	8154.67
829.266	7878.19
829.451	8216.11
829.637	8568.36
829.822	7962.16
830.008	7786.04
830.193	8418.86
830.378	8545.83
830.564	8240.68
830.749	7679.54
830.935	8322.6
831.12	8431.15
831.305	7669.3
831.491	8037.94
831.676	7677.49
831.861	8377.9
832.047	7865.91
832.232	7544.38
832.417	8470.06
832.602	8228.4
832.788	7626.29
832.973	7589.43
833.158	8076.85
833.343	7976.5
833.528	7734.84
833.714	7861.81
833.899	8039.98
834.084	8519.21
834.269	7851.57
834.454	7677.49
834.639	8164.91
834.824	8025.65
835.009	7771.7
835.194	7853.62
835.379	8275.5
835.564	8455.72
835.749	7808.56
835.934	7546.42
836.119	8097.33
836.304	8005.17
836.489	7714.36
836.674	7804.47
836.859	7669.3
837.044	8257.07
837.228	7722.55
837.413	7611.96
837.598	8011.31
837.783	8044.08
837.968	7427.64
838.152	7542.33
838.337	7489.08
838.522	8175.15
838.707	8050.22
838.891	7659.06
839.076	7870
839.261	8074.8
839.445	7726.64
839.63	7700.02
839.815	8136.24
839.999	7794.23
840.184	7419.45
840.368	7421.5
840.553	7898.67
840.737	8121.9
840.922	7337.53
841.106	7300.67
841.291	7378.49
841.475	7771.7
841.66	7206.46
841.844	7296.57
842.029	8324.65
842.213	7437.88
842.397	7380.54
842.582	7134.78
842.766	7927.35
842.951	7697.97
843.135	7310.91
843.319	7216.7
843.504	7466.55
843.688	7769.65
843.872	7022.14
844.056	7554.62
844.241	7683.64
844.425	7423.55
844.609	7374.39
844.793	6843.97
844.977	7763.51
845.161	7403.07
845.346	7001.66
845.53	7120.45
845.714	7452.22
845.898	7890.48
846.082	7067.2
846.266	7407.16
846.45	7472.7
846.634	7540.28
846.818	7069.25
847.002	7296.57
847.186	7679.54
847.37	7054.91
847.554	6966.85
847.738	7212.6
847.922	7429.69
848.106	7695.93
848.29	6839.87
848.473	6876.74
848.657	7534.14
848.841	7349.82
849.025	7124.54
849.209	6596.17
849.392	7525.94
849.576	7280.19
849.76	6731.33
849.944	7140.93
850.127	7564.86
850.311	6827.59
850.495	6833.73
850.678	6778.44
850.862	7482.94
851.046	7616.05
851.229	7280.19
851.413	6829.63
851.596	7069.25
851.78	7159.36
851.964	6929.98
852.147	6792.77
852.331	7706.17
852.514	7425.59
852.698	6979.14
852.881	6702.66
853.065	7405.11
853.248	6968.9
853.431	6841.92
853.615	6884.93
853.798	7634.49
853.982	7028.29
854.165	6952.51
854.348	6452.81
854.532	6915.65
854.715	6782.53
854.898	6782.53
855.081	6749.76
855.265	7317.05
855.448	7505.46
855.631	6798.91
855.814	6641.22
855.997	7220.8
856.181	6813.25
856.364	6782.53
856.547	6573.64
856.73	6975.04
856.913	6821.44
857.096	6540.87
857.279	6686.28
857.462	6780.48
857.645	7071.29
857.828	6862.4
858.011	6706.76
858.194	6671.94
858.377	6995.52
858.56	6553.16
858.743	6544.97
858.926	6452.81
859.109	7036.48
859.292	6428.23
859.475	6297.16
859.658	7169.6
859.841	6993.47
860.023	6372.94
860.206	6315.59
860.389	6686.28
860.572	6889.03
860.755	6329.93
860.937	6544.97
861.12	6800.96
861.303	6655.56
861.486	6436.42
861.668	6538.82
861.851	6790.72
862.034	6780.48
862.216	6340.17
862.399	6198.86
862.581	6639.17
862.764	7009.86
862.947	6542.92
863.129	6311.5
863.312	6159.95
863.494	6886.98
863.677	6479.43
863.859	6030.93
864.042	6774.34
864.224	6739.52
864.406	6164.04
864.589	5949.01
864.771	6493.77
864.954	6059.6
865.136	6209.1
865.318	6026.83
865.501	6561.35
865.683	6153.8
865.865	6131.28
866.048	6071.89
866.23	6422.09
866.412	6479.43
866.594	6151.76
866.777	6329.93
866.959	6809.15
867.141	6391.37
867.323	6110.8
867.505	6297.16
867.687	6526.54
867.869	6352.46
868.052	6227.53
868.234	5994.06
868.416	6417.99
868.598	6413.9
868.78	5959.25
868.962	5942.86
869.144	6733.38
869.326	6469.19
869.508	6088.27
869.69	5994.06
869.872	6149.71
870.054	6671.94
870.236	5914.19
870.417	5746.26
870.599	6108.75
870.781	6649.41
870.963	6100.56
871.145	5973.58
871.327	5979.73
871.508	6481.48
871.69	5881.42
871.872	5815.89
872.054	6174.28
872.235	6395.47
872.417	5862.99
872.599	5764.69
872.78	6706.76
872.962	6424.14
873.144	5611.09
873.325	5828.18
873.507	6547.01
873.689	6137.42
873.87	5682.77
874.052	5781.07
874.233	6149.71
874.415	6473.29
874.596	5949.01
874.778	5697.11
874.959	6262.35
875.141	6467.14
875.322	5834.32
875.503	5660.24
875.685	6465.1
875.866	5865.04
876.048	5828.18
876.229	5678.68
876.41	6202.96
876.592	6233.68
876.773	5996.11
876.954	5674.58
877.136	6559.3
877.317	6051.41
877.498	5776.98
877.679	5981.78
877.86	6450.76
878.042	6159.95
878.223	5764.69
878.404	6248.01
878.585	6475.34
878.766	6753.86
878.947	6073.93
879.128	6061.65
879.309	6248.01
879.49	6567.49
879.672	5957.2
879.853	5862.99
880.034	6071.89
880.215	6086.22
880.396	5981.78
880.576	6010.45
880.757	6112.85
880.938	6559.3
881.119	5981.78
881.3	6035.02
881.481	6073.93
881.662	7132.73
881.843	5957.2
882.023	5779.03
882.204	6426.18
882.385	6182.48
882.566	6045.26
882.747	5854.8
882.927	6471.24
883.108	6358.6
883.289	6014.54
883.469	6153.8
883.65	6258.25
883.831	6391.37
884.011	6280.78
884.192	5985.87
884.373	6561.35
884.553	6518.34
884.734	6239.82
884.914	6473.29
885.095	7114.3
885.275	6858.31
885.456	6491.72
885.636	5985.87
885.817	6516.3
885.997	6387.27
886.178	6106.7
886.358	6237.77
886.538	6454.86
886.719	7398.97
886.899	6139.47
887.08	6276.68
887.26	6551.11
887.44	6166.09
887.621	6205
887.801	6374.99
887.981	7102.01
888.161	6723.14
888.342	6350.41
888.522	6239.82
888.702	6618.69
888.882	6841.92
889.062	6372.94
889.242	6059.6
889.423	6880.83
889.603	6827.59
889.783	6379.08
889.963	6174.28
890.143	6780.48
890.323	6952.51
890.503	6311.5
890.683	6323.79
890.863	6442.57
891.043	6651.46
891.223	6321.74
891.403	6608.45
891.583	6673.99
891.763	6504.01
891.943	6166.09
892.122	6530.63
892.302	6633.03
892.482	6630.98
892.662	6596.17
892.842	6321.74
893.022	6479.43
893.201	6471.24
893.381	6456.9
893.561	6248.01
893.741	6622.79
893.92	6487.62
894.1	6311.5
894.28	6381.13
894.459	6717
894.639	6544.97
894.819	6518.34
894.998	6600.26
895.178	6547.01
895.357	6630.98
895.537	6544.97
895.716	6215.24
895.896	6493.77
896.075	7099.97
896.255	6350.41
896.434	6035.02
896.614	6735.43
896.793	6913.6
896.973	6399.56
897.152	6278.73
897.331	6614.6
897.511	6530.63
897.69	5973.58
897.87	6286.92
898.049	6739.52
898.228	6481.48
898.407	6325.83
898.587	6364.75
898.766	6258.25
898.945	6428.23
899.124	6323.79
899.304	6227.53
899.483	6553.16
899.662	6784.58
899.841	5819.99
900.02	5840.47
900.199	6620.74
900.378	6372.94
900.557	6006.35
900.737	5883.47
900.916	6217.29
901.095	6405.7
901.274	6164.04
901.453	5809.75
901.632	6018.64
901.811	6000.21
901.989	5858.9
902.168	5707.35
902.347	6260.3
902.526	6020.69
902.705	5801.55
902.884	5793.36
903.063	6594.12
903.242	6250.06
903.42	5627.48
903.599	5672.53
903.778	6280.78
903.957	6374.99
904.135	5785.17
904.314	5684.82
904.493	6088.27
904.672	5887.57
904.85	5494.36
905.029	5561.94
905.207	5946.96
905.386	6489.67
905.565	5277.27
905.743	5441.11
905.922	5623.38
906.1	5895.76
906.279	5168.73
906.457	5269.08
906.636	5533.27
906.814	5437.02
906.993	5058.14
907.171	5332.57
907.35	5770.83
907.528	5807.7
907.707	5379.67
907.885	5160.54
908.063	5797.46
908.242	5260.89
908.42	5060.19
908.598	4990.56
908.777	5353.05
908.955	5273.18
909.133	5236.31
909.311	4943.46
909.49	5242.46
909.668	5279.32
909.846	5224.03
910.024	4904.54
910.202	5412.44
910.38	5641.81
910.559	5117.53
910.737	4994.65
910.915	5496.41
911.093	5545.56
911.271	5080.67
911.449	5408.34
911.627	5701.2
911.805	6075.98
911.983	5252.7
912.161	5176.92
912.339	5817.94
912.517	5920.34
912.695	5387.86
912.872	5334.62
913.05	5361.24
913.228	5652.05
913.406	5353.05
913.584	5193.31
913.762	5754.45
913.939	5434.97
914.117	5287.51
914.295	5248.6
914.473	5781.07
914.65	5670.48
914.828	5412.44
915.006	5338.71
915.184	5264.99
915.361	5688.92
915.539	5490.26
915.716	5543.51
915.894	5582.42
916.072	5963.34
916.249	5658.2
916.427	5424.73
916.604	5250.65
916.782	5781.07
916.959	5197.4
917.137	5289.56
917.314	5463.64
917.492	5666.39
917.669	5201.5
917.847	5420.63
918.024	5613.14
918.201	5199.45
918.379	5125.72
918.556	5238.36
918.733	5695.06
918.911	5404.25
919.088	5502.55
919.265	5224.03
919.442	5477.98
919.62	5406.3
919.797	5000.8
919.974	4834.91
920.151	5506.65
920.328	5365.34
920.506	5088.86
920.683	5318.23
920.86	5197.4
921.037	5199.45
921.214	5113.44
921.391	5092.96
921.568	5666.39
921.745	5215.84
921.922	5121.63
922.099	5121.63
922.276	5471.83
922.453	5250.65
922.63	4886.11
922.807	5391.96
922.984	5402.2
923.161	5193.31
923.338	5115.48
923.514	4871.78
923.691	5131.87
923.868	5269.08
924.045	4898.4
924.222	4716.13
924.399	5150.3
924.575	5322.33
924.752	4955.74
924.929	4925.02
925.105	5193.31
925.282	4922.98
925.459	4832.86
925.635	4814.43
925.812	5062.24
925.989	4818.53
926.165	4765.28
926.342	4494.95
926.518	4732.51
926.695	5039.71
926.871	4568.68
927.048	4650.6
927.224	5267.03
927.401	4806.24
927.577	4761.19
927.754	4640.36
927.93	5113.44
928.107	5168.73
928.283	4466.28
928.459	4920.93
928.636	4859.49
928.812	4734.56
928.988	4404.84
929.165	4367.98
929.341	4554.34
929.517	4791.91
929.693	4716.13
929.87	4183.66
930.046	4826.72
930.222	4642.4
930.398	4271.72
930.574	4544.1
930.751	4566.63
930.927	4501.09
931.103	4507.24
931.279	4353.64
931.455	4378.22
931.631	4490.85
931.807	4212.33
931.983	4071.02
932.159	4122.22
932.335	4593.25
932.511	4290.15
932.687	4179.56
932.863	4503.14
933.039	4464.23
933.215	4036.21
933.391	3960.43
933.566	4281.96
933.742	4232.81
933.918	3972.72
934.094	3835.5
934.27	4118.12
934.445	4179.56
934.621	3966.57
934.797	3696.24
934.973	4275.82
935.148	4046.44
935.324	3675.76
935.5	3473.01
935.675	4224.62
935.851	3919.47
936.027	3556.98
936.202	3534.45
936.378	3845.74
936.553	3802.74
936.729	3712.63
936.904	3473.01
937.08	3397.24
937.255	3309.18
937.431	3294.84
937.606	2903.68
937.782	3288.7
937.957	3303.03
938.133	3161.72
938.308	2895.49
938.483	3221.11
938.659	3055.23
938.834	3026.56
939.009	2842.24
939.185	3049.08
939.36	2821.76
939.535	2576
939.71	2932.35
939.886	3278.46
940.061	3044.99
940.236	2860.67
940.411	2594.44
940.586	3094.14
940.761	2897.53
940.937	2457.22
941.112	2504.32
941.287	2764.42
941.462	2774.66
941.637	2236.04
941.812	2455.17
941.987	2754.18
942.162	2549.38
942.337	2479.75
942.512	2403.97
942.687	2983.55
942.862	2619.01
943.037	2365.06
943.212	2037.39
943.386	2401.93
943.561	2528.9
943.736	2352.77
943.911	2647.68
944.086	2487.94
944.26	2672.26
944.435	2295.43
944.61	2418.31
944.785	2825.86
944.959	2885.25
945.134	2377.35
945.309	2070.16
945.483	2307.72
945.658	2754.18
945.833	2043.53
946.007	2137.74
946.182	2989.69
946.357	2268.81
946.531	2176.65
946.706	2229.9
946.88	2123.4
947.055	2612.87
947.229	2197.13
947.404	2168.46
947.578	2803.33
947.752	2406.02
947.927	2219.66
948.101	2186.89
948.276	2449.03
948.45	2811.52
948.624	2551.43
948.799	2315.91
948.973	2631.3
949.147	2340.49
949.321	2299.53
949.496	2446.98
949.67	2864.77
949.844	2655.87
950.018	2432.65
950.193	2285.19
950.367	3190.39
950.541	2651.78
950.715	2496.13
950.889	2643.59
951.063	2698.88
951.237	2793.09
951.411	2213.51
951.585	2248.33
951.759	2819.71
951.933	2709.12
952.107	2416.26
952.281	2506.37
952.455	3077.76
952.629	2842.24
952.803	2367.11
952.977	2408.07
953.151	2911.87
953.325	2901.63
953.499	2604.67
953.672	2451.08
953.846	2643.59
954.02	2721.41
954.194	2592.39
954.368	2596.48
954.541	2999.93
954.715	2659.97
954.889	2614.91
955.062	2504.32
955.236	2817.66
955.41	2772.61
955.583	2653.83
955.757	2338.44
955.93	2729.6
956.104	2559.62
956.278	2489.99
956.451	2623.11
956.625	3073.66
956.798	3327.61
956.972	3006.08
957.145	2438.79
957.319	2817.66
957.492	2750.08
957.665	2864.77
957.839	2619.01
958.012	2963.07
958.185	2764.42
958.359	2662.02
958.532	2707.07
958.705	3028.6
958.879	2817.66
959.052	2647.68
959.225	2393.73
959.398	2840.19
959.572	2954.88
959.745	2614.91
959.918	2510.47
960.091	2795.14
960.264	2965.12
960.438	2528.9
960.611	2467.46
960.784	3182.2
960.957	2735.74
961.13	2975.36
961.303	2557.57
961.476	2825.86
961.649	3094.14
961.822	2385.54
961.995	2676.35
962.168	3112.57
962.341	2836.1
962.514	2520.71
962.686	2600.58
962.859	2920.06
963.032	2791.04
963.205	2373.25
963.378	2356.87
963.551	2825.86
963.723	2856.58
963.896	2655.87
964.069	2612.87
964.242	2676.35
964.414	3073.66
964.587	2547.33
964.76	2631.3
964.932	2850.43
965.105	2858.62
965.278	2672.26
965.45	2418.31
965.623	2729.6
965.795	3071.61
965.968	2475.65
966.14	2502.28
966.313	2770.56
966.485	2848.38
966.658	2674.31
966.83	2557.57
967.003	2983.55
967.175	3073.66
967.348	2569.86
967.52	2594.44
967.692	3094.14
967.865	2868.86
968.037	2731.65
968.209	2752.13
968.382	2662.02
968.554	2928.25
968.726	2610.82
968.898	2530.95
969.071	2834.05
969.243	2700.93
969.415	2614.91
969.587	2543.24
969.759	3069.56
969.932	2899.58
970.104	2442.89
970.276	2070.16
970.448	2668.16
970.62	2430.6
970.792	2623.11
970.964	2387.59
971.136	3079.8
971.308	2758.27
971.48	2385.54
971.652	2483.84
971.824	3032.7
971.996	2606.72
972.168	2459.27
972.339	2412.17
972.511	2907.77
972.683	2672.26
972.855	2555.52
973.027	2375.3
973.199	2635.39
973.37	2819.71
973.542	2483.84
973.714	2449.03
973.886	2602.63
974.057	2893.44
974.229	2356.87
974.401	2262.66
974.572	2428.55
974.744	2160.27
974.915	2307.72
975.087	2231.94
975.259	2961.02
975.43	2541.19
975.602	2340.49
975.773	2203.27
975.945	2389.64
976.116	2709.12
976.288	2262.66
976.459	2416.26
976.63	2492.04
976.802	2635.39
976.973	2252.42
977.145	2399.88
977.316	3135.1
977.487	2670.21
977.659	2485.89
977.83	2256.52
978.001	2795.14
978.172	2408.07
978.344	2233.99
978.515	2152.07
978.686	2389.64
978.857	2803.33
979.028	2227.85
979.2	2143.88
979.371	2657.92
979.542	2397.83
979.713	2455.17
979.884	1918.61
980.055	2283.14
980.226	2381.45
980.397	2297.48
980.568	2094.73
980.739	2621.06
980.91	2225.8
981.081	2391.69
981.252	2084.49
981.423	2426.5
981.594	2719.36
981.765	1988.24
981.936	2188.94
982.106	2340.49
982.277	2479.75
982.448	2094.73
982.619	2307.72
982.79	2281.1
982.96	2446.98
983.131	2225.8
983.302	1844.88
983.472	2115.21
983.643	2369.16
983.814	2195.08
983.984	1930.89
984.155	2283.14
984.326	2508.42
984.496	2098.83
984.667	2113.16
984.837	2133.64
985.008	2635.39
985.178	2356.87
985.349	2066.06
985.519	2147.98
985.69	1996.43
985.86	2109.07
986.031	1885.84
986.201	2342.53
986.371	2336.39
986.542	1861.26
986.712	1660.56
986.882	2188.94
987.053	2338.44
987.223	1894.03
987.393	2021
987.563	2113.16
987.734	2354.82
987.904	2184.84
988.074	1898.13
988.244	2098.83
988.414	2027.15
988.585	1726.1
988.755	1963.66
988.925	2135.69
989.095	2406.02
989.265	1881.74
989.435	1973.9
989.605	2236.04
989.775	2250.38
989.945	2184.84
990.115	1644.18
990.285	2023.05
990.455	2119.31
990.625	1816.21
990.795	1726.1
990.965	2299.53
991.134	1861.26
991.304	1672.85
991.474	1717.9
991.644	2145.93
991.814	2358.92
991.984	1584.79
992.153	1603.22
992.323	1836.69
992.493	1982.09
992.662	1531.54
992.832	1787.54
993.002	1840.78
993.171	1873.55
993.341	1484.44
993.511	1703.57
993.68	1746.58
993.85	2012.81
994.019	1377.94
994.189	1455.76
994.358	1875.6
994.528	1627.79
994.697	1339.03
994.867	1379.99
995.036	1963.66
995.206	1746.58
995.375	1537.68
995.544	1586.83
995.714	1814.16
995.883	1689.23
996.052	1633.94
996.222	1316.5
996.391	2154.12
996.56	1867.41
996.73	1425.04
996.899	1449.62
997.068	2156.17
997.237	1779.34
997.406	1443.48
997.576	1167
997.745	1793.68
997.914	1709.71
998.083	1113.75
998.252	1402.52
998.421	1808.02
998.59	1443.48
998.759	1263.26
998.928	1128.09
999.097	1992.33
999.266	1701.52
999.435	1502.87
999.604	1195.67
999.773	2115.21
999.942	1564.31
1000.111	1105.56
1000.28	1058.46
1000.448	1353.37
1000.617	1382.04
1000.786	1459.86
1000.955	1240.73
1001.124	1701.52
1001.292	2188.94
1001.461	1205.91
1001.63	1152.67
1001.798	1875.6
1001.967	1914.51
1002.136	1078.94
1002.304	1140.38
1002.473	1681.04
1002.642	1588.88
1002.81	1234.58
1002.979	1193.62
1003.147	1701.52
1003.316	2111.11
1003.484	1158.81
1003.653	1095.32
1003.821	1834.64
1003.99	1398.42
1004.158	1283.74
1004.327	1207.96
1004.495	1431.19
1004.663	1322.65
1004.832	1146.52
1005	972.44
1005.168	1611.41
1005.337	1439.38
1005.505	947.87
1005.673	1216.15
1005.842	1498.77
1006.01	1486.48
1006.178	906.91
1006.346	1144.47
1006.514	1496.72
1006.683	1678.99
1006.851	1025.69
1007.019	1035.93
1007.187	1222.3
1007.355	868
1007.523	849.57
1007.691	775.84
1007.859	951.96
1008.027	1611.41
1008.195	1070.75
1008.363	956.06
1008.531	1515.16
1008.699	1261.21
1008.867	876.19
1009.035	929.44
1009.203	1638.03
1009.37	1384.09
1009.538	1011.36
1009.706	1429.14
1009.874	1388.18
1010.042	1222.3
1010.209	796.32
1010.377	943.77
1010.545	1445.52
1010.713	1312.41
1010.88	888.48
1011.048	970.4
1011.216	1033.88
1011.383	1545.88
1011.551	878.24
1011.718	665.25
1011.886	1425.04
1012.054	1181.34
1012.221	827.04
1012.389	775.84
1012.556	1134.23
1012.724	1547.92
1012.891	931.48
1013.058	704.16
1013.226	1382.04
1013.393	1341.08
1013.561	591.52
1013.728	642.72
1013.895	1369.75
1014.063	1226.39
1014.23	622.24
1014.397	663.2
1014.565	1277.59
1014.732	1146.52
1014.899	714.4
1015.066	724.64
1015.233	1195.67
1015.401	1277.59
1015.568	865.95
1015.735	906.91
1015.902	1097.37
1016.069	1017.5
1016.236	718.5
1016.403	532.13
1016.57	792.22
1016.737	1201.82
1016.904	661.15
1017.071	661.15
1017.238	1019.55
1017.405	1162.9
1017.572	628.39
1017.739	827.04
1017.906	1191.58
1018.073	1197.72
1018.24	603.81
1018.407	794.27
1018.573	1279.64
1018.74	972.44
1018.907	689.82
1019.074	507.55
1019.241	1228.44
1019.407	1072.79
1019.574	568.99
1019.741	491.17
1019.907	1060.51
1020.074	1009.31
1020.241	417.44
1020.407	382.63
1020.574	990.88
1020.74	1046.17
1020.907	542.37
1021.073	571.04
1021.24	1361.56
1021.406	1255.06
1021.573	530.08
1021.739	599.71
1021.906	1136.28
1022.072	962.2
1022.239	585.38
1022.405	523.94
1022.571	962.2
1022.738	747.17
1022.904	577.19
1023.07	548.51
1023.237	812.7
1023.403	1261.21
1023.569	550.56
1023.735	571.04
1023.902	884.38
1024.068	927.39
1024.234	345.77
1024.4	407.2
1024.566	816.8
1024.732	1113.75
1024.898	487.08
1025.065	321.19
1025.231	1025.69
1025.397	757.41
1025.563	495.27
1025.729	419.49
1025.895	468.64
1026.061	642.72
1026.227	298.66
1026.392	437.92
1026.558	1019.55
1026.724	962.2
1026.89	468.64
1027.056	560.8
1027.222	933.53
1027.388	603.81
1027.553	425.64
1027.719	382.63
1027.885	1212.06
1028.051	1019.55
1028.216	188.07
1028.382	419.49
1028.548	886.43
1028.713	652.96
1028.879	304.81
1029.045	579.23
1029.21	1138.33
1029.376	984.73
1029.541	394.92
1029.707	411.3
1029.873	931.48
1030.038	966.3
1030.204	374.44
1030.369	439.97
1030.534	939.68
1030.7	673.44
1030.865	419.49
1031.031	206.5
1031.196	767.65
1031.361	882.33
1031.527	292.52
1031.692	284.33
1031.857	284.33
1032.023	915.1
1032.188	247.46
1032.353	458.4
1032.518	1044.12
1032.684	761.5
1032.849	198.31
1033.014	360.1
1033.179	794.27
1033.344	824.99
1033.509	364.2
1033.674	280.23
1033.839	886.43
1034.004	865.95
1034.17	341.67
1034.335	173.74
1034.5	603.81
1034.664	497.32
1034.829	310.95
1034.994	288.42
1035.159	753.31
1035.324	732.83
1035.489	317.09
1035.654	245.41
1035.819	1056.41
1035.984	677.54
1036.148	288.42
1036.313	313
1036.478	988.83
1036.643	628.39
1036.807	259.75
1036.972	226.98
1037.137	978.59
1037.301	695.97
1037.466	5.8
1037.631	310.95
1037.795	906.91
1037.96	661.15
1038.124	407.2
1038.289	136.87
1038.454	810.65
1038.618	728.74
1038.783	220.84
1038.947	315.05
1039.111	636.58
1039.276	474.79
1039.44	216.74
1039.605	673.44
1039.769	614.05
1039.933	534.18
1040.098	366.25
1040.262	448.16
1040.426	884.38
1040.591	751.26
1040.755	122.54
1040.919	226.98
1041.083	788.13
1041.248	564.9
1041.412	73.39
1041.576	177.83
1041.74	519.84
1041.904	771.74
1042.068	54.95
1042.232	231.08
1042.397	792.22
1042.561	818.85
1042.725	-92.5
1042.889	417.44
1043.053	763.55
1043.217	642.72
1043.381	341.67
1043.544	95.91
1043.708	753.31
1043.872	390.82
1044.036	-151.89
1044.2	81.58
1044.364	722.59
1044.528	923.29
1044.691	5236.31
1044.855	102.06
1045.019	743.07
1045.183	628.39
1045.346	245.41
1045.51	59.05
1045.674	667.3
1045.837	734.88
1046.001	128.68
1046.165	71.34
1046.328	1019.55
1046.492	634.53
1046.655	335.53
1046.819	220.84
1046.983	439.97
1047.146	632.48
1047.31	239.27
1047.473	-129.36
1047.636	530.08
1047.8	313
1047.963	218.79
1048.127	61.1
1048.29	411.3
