Data from Hydrogel_Ink_Intensity_Test_1_USB4F045381__17__00017.txt Node

Date: Mon Jul 31 10:38:31 EDT 2023
User: mmckonesweet
Spectrometer: USB4F04538
Trigger mode: 4
Integration Time (sec): 9.000000E-1
Scans to average: 1
Electric dark correction enabled: true
Nonlinearity correction enabled: false
Boxcar width: 0
XAxis mode: Wavelengths
Number of Pixels in Spectrum: 3648
>>>>>Begin Spectral Data<<<<<
345.52	-915.61
345.736	-915.61
345.952	-915.61
346.168	-948.38
346.384	-954.52
346.6	-98.47
346.816	-170.15
347.032	-235.69
347.248	216.91
347.464	-268.45
347.68	-112.81
347.896	116.56
348.112	399.18
348.328	-26.79
348.544	-94.38
348.76	-14.51
348.975	288.59
349.191	-213.16
349.407	-75.95
349.623	132.95
349.839	12.12
350.055	-98.47
350.27	169.81
350.486	259.92
350.702	452.43
350.918	368.46
351.133	-51.37
351.349	208.72
351.565	399.18
351.781	-2.22
351.996	30.55
352.212	440.14
352.428	-161.96
352.644	-94.38
352.859	-172.2
353.075	335.7
353.291	112.47
353.506	-30.89
353.722	-121
353.938	-53.42
354.153	503.63
354.369	173.91
354.584	-98.47
354.8	362.32
355.016	-235.69
355.231	-161.96
355.447	57.17
355.662	186.19
355.878	1011.53
356.093	-127.14
356.309	36.69
356.524	-88.23
356.74	198.48
356.955	-53.42
357.171	73.56
357.386	171.86
357.602	-233.64
357.817	-0.17
358.033	-108.71
358.248	448.33
358.464	149.33
358.679	36.69
358.895	-166.06
359.11	-51.37
359.325	390.99
359.541	335.7
359.756	61.27
359.972	-309.41
360.187	190.29
360.402	-67.75
360.618	-145.58
360.833	933.7
361.048	274.26
361.264	-61.61
361.479	18.26
361.694	108.37
361.909	292.69
362.125	-92.33
362.34	-28.84
362.555	386.9
362.77	194.39
362.986	-116.9
363.201	-55.47
363.416	253.78
363.631	106.32
363.847	-53.42
364.062	-53.42
364.277	178
364.492	257.87
364.707	40.79
364.922	-270.5
365.138	284.5
365.353	442.19
365.568	-166.06
365.783	30.55
365.998	190.29
366.213	655.18
366.428	-51.37
366.643	169.81
366.858	440.14
367.073	300.88
367.288	24.4
367.503	-57.51
367.718	241.49
367.933	415.57
368.148	-180.39
368.363	18.26
368.578	89.94
368.793	601.93
369.008	-14.51
369.223	-98.47
369.438	331.6
369.653	565.07
369.868	-178.34
370.083	-92.33
370.298	225.11
370.513	517.97
370.728	231.25
370.943	-12.46
371.157	57.17
371.372	651.08
371.587	-149.67
371.802	-61.61
372.017	239.44
372.232	575.31
372.446	161.62
372.661	-57.51
372.876	382.8
373.091	210.77
373.306	94.04
373.52	-65.71
373.735	-63.66
373.95	542.54
374.165	87.89
374.379	38.74
374.594	81.75
374.809	311.12
375.023	141.14
375.238	-65.71
375.453	374.61
375.667	-110.76
375.882	67.41
376.097	30.55
376.311	169.81
376.526	135
376.741	79.7
376.955	223.06
377.17	839.5
377.384	683.85
377.599	91.99
377.813	-88.23
378.028	663.37
378.242	319.31
378.457	79.7
378.672	-116.9
378.886	343.89
379.101	202.58
379.315	-39.08
379.53	106.32
379.744	294.74
379.958	399.18
380.173	87.89
380.387	-14.51
380.602	364.37
380.816	32.6
381.031	165.71
381.245	141.14
381.459	382.8
381.674	2699.05
381.888	139.09
382.103	223.06
382.317	87.89
382.531	659.28
382.746	200.53
382.96	108.37
383.174	108.37
383.388	741.19
383.603	302.93
383.817	-26.79
384.031	331.6
384.246	737.1
384.46	241.49
384.674	563.02
384.888	247.63
385.103	266.07
385.317	-55.47
385.531	286.54
385.745	558.92
385.959	565.07
386.174	42.84
386.388	55.12
386.602	272.21
386.816	48.98
387.03	253.78
387.244	294.74
387.458	421.71
387.672	673.61
387.887	1.88
388.101	-30.89
388.315	591.69
388.529	382.8
388.743	128.85
388.957	132.95
389.171	595.79
389.385	167.76
389.599	270.16
389.813	460.62
390.027	442.19
390.241	880.46
390.455	194.39
390.669	221.01
390.883	184.15
391.097	790.35
391.311	468.81
391.525	116.56
391.738	491.34
391.952	532.3
392.166	352.08
392.38	149.33
392.594	642.89
392.808	743.24
393.022	259.92
393.236	229.2
393.449	585.55
393.663	489.29
393.877	91.99
394.091	307.02
394.305	280.4
394.518	253.78
394.732	182.1
394.946	264.02
395.16	825.16
395.373	415.57
395.587	204.63
395.801	233.3
396.015	710.47
396.228	571.21
396.442	218.96
396.656	112.47
396.869	704.33
397.083	862.02
397.297	386.9
397.51	372.56
397.724	839.5
397.938	560.97
398.151	186.19
398.365	175.95
398.578	552.78
398.792	765.77
399.005	446.29
399.219	325.46
399.433	501.58
399.646	595.79
399.86	427.85
400.073	464.72
400.287	683.85
400.5	528.21
400.714	477.01
400.927	397.14
401.141	694.09
401.354	1427.26
401.567	720.71
401.781	245.59
401.994	735.05
402.208	1070.92
402.421	425.81
402.635	431.95
402.848	638.8
403.061	866.12
403.275	573.26
403.488	360.27
403.701	976.71
403.915	702.28
404.128	487.25
404.341	415.57
404.555	706.38
404.768	640.84
404.981	595.79
405.195	386.9
405.408	1091.4
405.621	782.15
405.834	692.04
406.048	405.33
406.261	1007.43
406.474	950.09
406.687	509.77
406.9	673.61
407.114	687.95
407.327	876.36
407.54	350.03
407.753	317.26
407.966	423.76
408.179	892.74
408.392	505.68
408.605	382.8
408.819	892.74
409.032	720.71
409.245	362.32
409.458	808.78
409.671	743.24
409.884	1083.2
410.097	466.77
410.31	773.96
410.523	915.27
410.736	726.86
410.949	558.92
411.162	646.99
411.375	1101.64
411.588	1001.29
411.801	685.9
412.014	573.26
412.227	702.28
412.44	673.61
412.653	540.49
412.865	728.91
413.078	933.7
413.291	1052.49
413.504	698.19
413.717	630.6
413.93	933.7
414.143	612.17
414.356	735.05
414.568	483.15
414.781	1058.63
414.994	898.89
415.207	700.23
415.42	653.13
415.632	1048.39
415.845	1388.35
416.058	493.39
416.271	511.82
416.483	952.13
416.696	1400.64
416.909	743.24
417.121	636.75
417.334	1118.02
417.547	1437.5
417.759	634.7
417.972	657.23
418.185	827.21
418.397	1122.12
418.61	712.52
418.823	722.76
419.035	1343.3
419.248	1054.53
419.46	886.6
419.673	894.79
419.885	1156.93
420.098	1044.29
420.311	923.46
420.523	673.61
420.736	1154.88
420.948	1052.49
421.161	835.4
421.373	628.56
421.586	1072.96
421.798	878.41
422.01	798.54
422.223	1046.34
422.435	1101.64
422.648	1267.52
422.86	1015.62
423.073	923.46
423.285	1462.08
423.497	753.48
423.71	886.6
423.922	900.94
424.134	1339.2
424.347	1509.18
424.559	1234.75
424.771	1189.7
424.984	1034.05
425.196	1197.89
425.408	718.67
425.621	849.74
425.833	1488.7
426.045	1568.57
426.257	892.74
426.47	829.26
426.682	1355.58
426.894	1396.54
427.106	1089.35
427.318	1193.8
427.531	1158.98
427.743	1482.56
427.955	1097.54
428.167	1517.37
428.379	1462.08
428.591	1288
428.804	1232.71
429.016	1056.58
429.228	1288
429.44	1371.97
429.652	1316.67
429.864	1023.81
430.076	1357.63
430.288	1310.53
430.5	1347.39
430.712	1343.3
430.924	1652.54
431.136	1482.56
431.348	1060.68
431.56	1199.94
431.772	1318.72
431.984	1386.3
432.196	1298.24
432.408	1253.19
432.62	1392.45
432.832	1658.68
433.044	1550.14
433.256	1546.05
433.468	1740.6
433.679	1251.14
433.891	1265.47
434.103	1517.37
434.315	2010.93
434.527	1816.38
434.739	1486.65
434.95	1521.47
435.162	1933.11
435.374	1517.37
435.586	1517.37
435.798	1488.7
436.009	1310.53
436.221	1615.68
436.433	1568.57
436.645	1482.56
436.856	1601.34
437.068	2002.74
437.28	1517.37
437.491	1836.86
437.703	1914.68
437.915	1685.31
438.126	1607.48
438.338	1726.27
438.55	1713.98
438.761	1986.36
438.973	1720.12
439.184	1572.67
439.396	1949.5
439.608	1957.69
439.819	1615.68
440.031	1879.86
440.242	1984.31
440.454	2019.13
440.665	1732.41
440.877	1777.47
441.088	1959.74
441.3	1793.85
441.511	1716.03
441.723	1650.49
441.934	1904.44
442.146	2070.33
442.357	2025.27
442.569	2109.24
442.78	2101.05
442.991	2316.08
443.203	2113.33
443.414	1808.19
443.626	2340.66
443.837	1949.5
444.048	1867.58
444.26	1713.98
444.471	2086.71
444.682	2357.04
444.894	1593.15
445.105	1816.38
445.316	2301.75
445.528	2209.59
445.739	2064.18
445.95	1992.5
446.161	2244.4
446.373	2383.66
446.584	1988.41
446.795	1961.78
447.006	2307.89
447.217	2578.22
447.429	2029.37
447.64	1972.02
447.851	2529.07
448.062	2168.63
448.273	1845.05
448.484	1976.12
448.695	2426.67
448.907	2176.82
449.118	2123.57
449.329	2301.75
449.54	2174.77
449.751	2158.39
449.962	2103.09
450.173	2051.89
450.384	2574.13
450.595	2645.8
450.806	2275.12
451.017	2221.88
451.228	2713.39
451.439	2658.09
451.65	2275.12
451.861	2051.89
452.072	2213.68
452.283	2459.44
452.494	2447.15
452.705	2193.2
452.915	2774.83
453.126	2774.83
453.337	2383.66
453.548	2330.42
453.759	2842.41
453.97	3176.23
454.181	2578.22
454.391	2463.54
454.602	2791.21
454.813	2946.86
455.024	2670.38
455.235	2492.21
455.445	2787.11
455.656	2901.8
455.867	2772.78
456.078	2539.31
456.288	2729.77
456.499	2901.8
456.71	2621.23
456.921	2799.4
457.131	3114.79
457.342	2981.67
457.553	2774.83
457.763	2737.96
457.974	3198.76
458.184	3200.8
458.395	2735.92
458.606	2838.31
458.816	3223.33
459.027	3583.77
459.237	3053.35
459.448	2795.31
459.659	3278.63
459.869	3856.15
460.08	2815.79
460.29	3303.2
460.501	3751.71
460.711	3151.65
460.922	2985.77
461.132	3256.1
461.343	3833.63
461.553	3165.99
461.764	3174.18
461.974	3237.67
462.184	3600.16
462.395	3690.27
462.605	3399.46
462.816	3286.82
463.026	3563.29
463.236	3856.15
463.447	3315.49
463.657	3436.32
463.867	3929.88
464.078	3673.89
464.288	3624.73
464.498	3682.08
464.709	3960.6
464.919	3856.15
465.129	3800.86
465.339	3712.8
465.55	4128.53
465.76	4247.32
465.97	3804.96
466.18	3802.91
466.391	4316.95
466.601	4341.52
466.811	4038.42
467.021	3991.32
467.231	4413.2
467.441	4425.49
467.651	4257.56
467.862	3921.69
468.072	4611.85
468.282	4763.4
468.492	4198.17
468.702	4491.02
468.912	4808.46
469.122	5209.86
469.332	4804.36
469.542	4482.83
469.752	5043.98
469.962	5105.42
470.172	4667.15
470.382	4744.97
470.592	5213.96
470.802	5332.74
471.012	4984.59
471.222	4796.17
471.432	5381.89
471.642	5482.24
471.852	5304.07
472.062	5060.36
472.272	5248.77
472.482	5324.55
472.691	5359.36
472.901	5111.56
473.111	5601.02
473.321	6364.92
473.531	5603.07
473.741	5598.98
473.95	6123.26
474.16	6219.51
474.37	5887.74
474.58	5824.25
474.79	6653.68
474.999	6450.93
475.209	5902.08
475.419	6141.69
475.628	6315.76
475.838	6659.82
476.048	6360.82
476.258	6260.47
476.467	6905.58
476.677	6567.67
476.886	6897.39
477.096	7038.7
477.306	6745.84
477.515	7292.65
477.725	6807.28
477.935	7022.31
478.144	7423.72
478.354	6921.96
478.563	7292.65
478.773	7167.72
478.982	7610.08
479.192	7767.77
479.401	7329.51
479.611	7481.06
479.82	7601.89
480.03	7653.09
480.239	7718.62
480.449	7560.93
480.658	8378.07
480.868	8034.01
481.077	8099.55
481.287	7818.97
481.496	8437.46
481.705	8869.58
481.915	8353.49
482.124	8294.1
482.333	8619.73
482.543	9060.04
482.752	8607.44
482.961	8707.79
483.171	9006.8
483.38	9033.42
483.589	8877.77
483.799	9062.09
484.008	9191.11
484.217	9551.56
484.426	9213.64
484.636	8994.51
484.845	9586.37
485.054	9090.76
485.263	9682.63
485.472	9533.12
485.682	10153.66
485.891	9828.03
486.1	9270.98
486.309	9709.25
486.518	10147.51
486.727	10479.29
486.936	9877.18
487.146	10200.76
487.355	10729.14
487.564	10254.01
487.773	10229.43
487.982	10274.49
488.191	10491.57
488.4	10522.29
488.609	10696.37
488.818	10608.31
489.027	11464.36
489.236	11269.8
489.445	10915.5
489.654	10647.22
489.863	11411.11
490.072	11173.55
490.281	11597.48
490.49	11157.16
490.698	11540.13
490.907	11855.52
491.116	11585.19
491.325	11364.01
491.534	12005.02
491.743	11765.41
491.952	11667.11
492.16	12125.85
492.369	11814.56
492.578	12138.14
492.787	11837.09
492.996	11951.77
493.204	11931.3
493.413	12938.9
493.622	12011.17
493.831	12189.34
494.039	13035.15
494.248	12123.8
494.457	12615.32
494.665	12185.24
494.874	12775.06
495.083	13207.18
495.291	12566.17
495.5	12476.05
495.709	12846.74
495.917	13170.32
496.126	12807.83
496.335	12953.23
496.543	13213.32
496.752	13315.72
496.96	13399.69
497.169	12990.1
497.377	13299.34
497.586	13731.46
497.794	13563.53
498.003	13047.44
498.211	13551.24
498.42	14128.77
498.628	13588.1
498.837	13428.36
499.045	14100.09
499.254	13833.86
499.462	13579.91
499.671	13825.67
499.879	14372.47
500.087	14388.86
500.296	14139.01
500.504	14206.59
500.713	14302.84
500.921	15060.59
501.129	14143.1
501.338	14179.96
501.546	14755.44
501.754	14800.5
501.962	14438.01
502.171	14552.7
502.379	14900.85
502.587	15187.57
502.795	14651
503.004	14536.31
503.212	15029.87
503.42	15392.36
503.628	14968.43
503.837	14855.79
504.045	15441.51
504.253	16105.06
504.461	15177.33
504.669	15126.13
504.877	15382.12
505.085	15896.16
505.294	15326.83
505.502	15568.49
505.71	15763.04
505.918	15883.87
506.126	15578.73
506.334	15386.22
506.542	15926.88
506.75	15847.01
506.958	15847.01
507.166	15980.13
507.374	15785.57
507.582	16686.68
507.79	15783.52
507.998	16103.01
508.206	16504.41
508.414	16324.19
508.622	16010.85
508.83	16279.13
509.037	17129.04
509.245	16528.99
509.453	16037.47
509.661	16363.1
509.869	17086.03
510.077	16692.82
510.285	16639.58
510.492	16082.53
510.7	17466.95
510.908	16817.75
511.116	16930.39
511.324	16766.55
511.531	16832.08
511.739	16924.24
511.947	16920.15
512.155	17061.46
512.362	17260.11
512.57	16488.03
512.778	16668.25
512.985	16756.31
513.193	17440.33
513.401	17901.12
513.608	17098.32
513.816	17262.16
514.024	17626.7
514.231	17610.31
514.439	17286.73
514.646	17552.97
514.854	17851.97
515.061	17733.19
515.269	17413.71
515.477	17561.16
515.684	17544.78
515.892	18105.92
516.099	17581.64
516.307	17800.77
516.514	17933.89
516.722	18460.22
516.929	17960.52
517.136	17720.9
517.344	18388.54
517.551	18521.66
517.759	17937.99
517.966	18112.06
518.173	18226.75
518.381	18474.56
518.588	18404.92
518.796	18245.18
519.003	18777.65
519.21	18589.24
519.418	18349.63
519.625	18888.25
519.832	18878.01
520.039	19009.08
520.247	18277.95
520.454	18718.26
520.661	19250.74
520.868	19007.03
521.076	19037.75
521.283	18628.15
521.49	19848.74
521.697	19256.88
521.904	19025.46
522.112	19050.03
522.319	19314.22
522.526	19193.39
522.733	19508.78
522.94	19181.1
523.147	19260.98
523.354	19738.15
523.561	19371.57
523.768	19422.76
523.975	20104.74
524.183	19734.06
524.39	19795.5
524.597	19639.85
524.804	20188.71
525.011	20024.87
525.218	19807.78
525.425	19805.74
525.632	20239.9
525.838	20082.21
526.045	19926.57
526.252	20137.51
526.459	21335.57
526.666	21046.8
526.873	20141.6
527.08	20057.64
527.287	20803.1
527.494	20643.35
527.701	20491.8
527.907	20059.68
528.114	20743.7
528.321	20647.45
528.528	20633.11
528.735	20549.15
528.941	21028.37
529.148	20469.28
529.355	20774.42
529.562	20436.51
529.768	21591.56
529.975	20534.81
530.182	20913.69
530.388	20776.47
530.595	21397.01
530.802	20598.3
531.008	21028.37
531.215	21501.45
531.422	21771.79
531.628	22320.64
531.835	21433.87
532.042	21239.31
532.248	21704.2
532.455	21423.63
532.661	21390.86
532.868	21538.32
533.074	21777.93
533.281	22046.21
533.487	21880.33
533.694	21759.5
533.9	21990.92
534.107	22220.29
534.313	21886.47
534.52	21734.92
534.726	22502.91
534.933	22801.91
535.139	22060.55
535.345	21673.48
535.552	22418.94
535.758	22586.88
535.965	22195.71
536.171	22332.93
536.377	23055.86
536.584	23010.81
536.79	22253.06
536.996	22949.37
537.203	22832.63
537.409	22986.23
537.615	22898.17
537.821	23006.71
538.028	23621.1
538.234	23361.01
538.44	22844.92
538.646	22973.94
538.853	23387.63
539.059	23176.69
539.265	23541.23
539.471	23019
539.677	23422.45
539.883	23438.83
540.09	23088.63
540.296	24194.53
540.502	23643.63
540.708	23508.46
540.914	23594.48
541.12	23590.38
541.326	24296.93
541.532	24161.76
541.738	23930.34
541.944	23635.44
542.15	24298.98
542.356	24239.59
542.562	23989.74
542.768	23766.51
542.974	24821.21
543.18	25277.91
543.386	24104.42
543.592	24264.16
543.798	24909.27
544.004	24653.28
544.21	24600.03
544.415	24413.66
544.621	24962.52
544.827	25185.75
545.033	24554.97
545.239	24520.16
545.445	25017.82
545.651	24917.47
545.856	24909.27
546.062	24608.22
546.268	25202.13
546.474	24999.38
546.679	24653.28
546.885	24823.26
547.091	25085.4
547.297	25742.8
547.502	25011.67
547.708	24739.29
547.914	25218.52
548.119	25601.49
548.325	24901.08
548.531	24931.8
548.736	25738.7
548.942	25236.95
549.147	25109.97
549.353	25753.04
549.559	25982.41
549.764	25202.13
549.97	25415.12
550.175	25382.35
550.381	26209.73
550.586	25583.05
550.792	25691.6
550.997	25609.68
551.203	25984.46
551.408	26117.57
551.614	25634.25
551.819	25763.28
552.025	26478.02
552.23	26809.79
552.435	26011.08
552.641	26529.22
552.846	26527.17
553.052	27053.5
553.257	26430.91
553.462	26441.15
553.668	26564.03
553.873	26865.08
554.078	26635.71
554.283	26756.54
554.489	27141.56
554.694	27258.29
554.899	26375.62
555.105	27000.25
555.31	27006.39
555.515	27436.47
555.72	27129.27
555.925	26820.03
556.131	27303.35
556.336	27170.23
556.541	27073.98
556.746	26955.19
556.951	27551.15
557.156	27872.68
557.361	27491.76
557.567	27604.4
557.772	28304.81
557.977	27426.23
558.182	27475.38
558.387	27411.89
558.592	27280.82
558.797	27862.44
559.002	27749.81
559.207	27925.93
559.412	27598.26
559.617	28108.2
559.822	27553.2
560.027	27311.54
560.232	28132.78
560.437	27878.83
560.642	27655.6
560.847	27532.72
561.051	27815.34
561.256	28325.29
561.461	27977.13
561.666	27694.51
561.871	28032.43
562.076	28413.35
562.281	28198.31
562.485	28036.52
562.69	28296.61
562.895	28425.64
563.1	28095.91
563.305	27712.94
563.509	28691.87
563.714	29156.76
563.919	28110.25
564.123	27909.55
564.328	28442.02
564.533	28978.59
564.737	27993.51
564.942	28028.33
565.147	29156.76
565.351	29226.39
565.556	28568.99
565.761	28628.38
565.965	28876.19
566.17	28728.73
566.374	28753.31
566.579	28607.9
566.784	28681.63
566.988	28681.63
567.193	28837.28
567.397	28796.32
567.602	28976.54
567.806	29005.21
568.011	28554.66
568.215	28870.04
568.42	29052.31
568.624	29152.66
568.828	28896.67
569.033	29449.62
569.237	29609.36
569.442	29945.23
569.646	28958.11
569.85	29498.77
570.055	29805.97
570.259	29703.57
570.463	29515.15
570.668	29152.66
570.872	29617.55
571.076	29586.83
571.281	29621.65
571.485	29537.68
571.689	29668.75
571.893	30023.05
572.098	29914.51
572.302	29724.05
572.506	29896.08
572.71	29765.01
572.914	29881.74
573.119	29820.3
573.323	30289.29
573.527	30469.51
573.731	30164.36
573.935	29885.84
574.139	30586.24
574.343	30129.55
574.547	30145.93
574.751	30076.3
574.955	30498.18
575.159	31081.85
575.364	30098.83
575.568	30274.95
575.772	30295.43
575.976	31014.27
576.18	30287.24
576.383	30496.13
576.587	30838.14
576.791	30756.22
576.995	30287.24
577.199	30576
577.403	30997.88
577.607	31364.47
577.811	31038.84
578.015	31178.11
578.219	31161.72
578.422	30926.21
578.626	30858.62
578.83	31047.04
579.034	31126.91
579.238	31300.98
579.442	31161.72
579.645	31126.91
579.849	31518.07
580.053	31642.99
580.257	31217.02
580.46	31237.5
580.664	31808.88
580.868	31561.08
581.071	31548.79
581.275	31425.91
581.479	31675.76
581.682	31663.47
581.886	31528.31
582.09	31565.17
582.293	32253.29
582.497	32269.67
582.7	31913.33
582.904	31757.68
583.107	31794.54
583.311	32277.86
583.515	31667.57
583.718	31954.29
583.922	32154.99
584.125	32593.25
584.329	31694.19
584.532	32019.82
584.735	32343.4
584.939	32314.73
585.142	31812.98
585.346	31933.81
585.549	32515.43
585.753	32396.65
585.956	32503.14
586.159	32357.74
586.363	33213.79
586.566	33144.16
586.769	32222.57
586.973	32130.41
587.176	32859.49
587.379	33056.09
587.582	32822.62
587.786	32748.9
587.989	32986.46
588.192	33385.82
588.395	32939.36
588.599	33357.14
588.802	33301.85
589.005	33035.61
589.208	33078.62
589.411	33115.48
589.615	33420.63
589.818	33715.54
590.021	33633.62
590.224	33412.44
590.427	33434.97
590.63	33600.85
590.833	33232.22
591.036	33070.43
591.239	33842.51
591.442	33090.91
591.645	33416.54
591.848	33453.4
592.051	34524.49
592.254	33875.28
592.457	33617.24
592.66	34063.69
592.863	34176.33
593.066	34047.31
593.269	34041.17
593.472	33926.48
593.675	34215.24
593.878	34389.32
594.081	33508.69
594.284	33748.31
594.486	34721.09
594.689	34440.52
594.892	33883.47
595.095	33979.73
595.298	34573.64
595.5	34104.65
595.703	34768.19
595.906	34925.89
596.109	34907.46
596.311	35308.86
596.514	33957.2
596.717	34768.19
596.92	35327.29
597.122	34821.44
597.325	34397.51
597.528	34522.44
597.73	35509.56
597.933	34839.87
598.136	34639.17
598.338	34323.79
598.541	35601.72
598.743	35554.61
598.946	34485.58
599.148	35065.15
599.351	35439.93
599.554	35906.87
599.756	35126.59
599.959	35577.14
600.161	35575.09
600.363	36252.97
600.566	35630.39
600.768	35085.63
600.971	35822.9
601.173	35714.36
601.376	35423.54
601.578	34964.8
601.78	35941.68
601.983	36166.96
602.185	35112.25
602.388	35437.88
602.59	36042.03
602.792	35691.83
602.995	35831.09
603.197	35910.96
603.399	36533.54
603.601	35943.73
603.804	35743.03
604.006	35919.15
604.208	35757.36
604.41	35407.16
604.613	35818.8
604.815	35822.9
605.017	36668.71
605.219	35638.58
605.421	36101.42
605.623	35904.82
605.826	36316.46
606.028	36435.24
606.23	35652.92
606.432	36095.28
606.634	36562.22
606.836	36406.57
607.038	35829.04
607.24	36080.94
607.442	36257.07
607.644	36138.29
607.846	36021.55
608.048	36191.53
608.25	36492.58
608.452	36308.27
608.654	35720.5
608.856	35720.5
609.058	36427.05
609.26	36873.51
609.462	36275.5
609.664	36218.16
609.866	36840.74
610.067	36969.76
610.269	36095.28
610.471	36144.43
610.673	36535.59
610.875	37076.26
611.077	36619.56
611.278	36658.47
611.48	36853.03
611.682	37344.54
611.884	36803.88
612.085	36318.51
612.287	37145.89
612.489	37092.64
612.69	36560.17
612.892	36590.89
613.094	37160.22
613.295	36943.14
613.497	36859.17
613.699	36719.91
613.9	37172.51
614.102	37244.19
614.304	36730.15
614.505	36132.14
614.707	36824.36
614.908	36869.41
615.11	36203.82
615.311	36375.85
615.513	37229.85
615.714	37109.02
615.916	36742.44
616.117	36855.07
616.319	36984.1
616.52	37135.65
616.722	36216.11
616.923	37053.73
617.124	36912.42
617.326	36898.08
617.527	36693.29
617.729	37393.69
617.93	37268.76
618.131	37375.26
618.333	36795.68
618.534	36623.65
618.735	37297.44
618.937	37477.66
619.138	36855.07
619.339	36734.24
619.54	37238.05
619.742	37090.59
619.943	37074.21
620.144	37154.08
620.345	37516.57
620.546	37756.18
620.748	36701.48
620.949	36963.62
621.15	37344.54
621.351	37236
621.552	36865.31
621.753	36590.89
621.954	36795.68
622.155	37485.85
622.356	36838.69
622.558	37303.58
622.759	37510.42
622.96	37524.76
623.161	36828.45
623.362	36969.76
623.563	37342.49
623.764	37256.48
623.965	36982.05
624.166	37496.09
624.366	37391.64
624.567	37465.37
624.768	36951.33
624.969	36748.58
625.17	37133.6
625.371	37547.29
625.572	37293.34
625.773	37190.94
625.973	38018.32
626.174	37975.31
626.375	37602.58
626.576	37647.64
626.777	37821.72
626.977	38051.09
627.178	37295.39
627.379	37547.29
627.58	37354.78
627.78	37426.46
627.981	37567.77
628.182	37504.28
628.382	38255.89
628.583	37688.6
628.784	37618.97
628.984	37551.38
629.185	38049.04
629.386	37684.5
629.586	37426.46
629.787	37348.64
629.987	38143.25
630.188	38184.21
630.388	37989.65
630.589	37385.5
630.79	38063.38
630.99	38155.54
631.191	37809.43
631.391	37975.31
631.591	38499.59
631.792	38427.91
631.992	38030.61
632.193	37958.93
632.393	38579.46
632.594	37805.33
632.794	37756.18
632.994	37643.54
633.195	38110.48
633.395	38305.04
633.595	37670.17
633.796	38221.07
633.996	37907.73
634.196	38563.08
634.397	38399.24
634.597	38323.47
634.797	38341.9
634.997	38542.6
635.198	38112.53
635.398	37797.14
635.598	38143.25
635.798	38604.04
635.998	38176.01
636.199	38202.64
636.399	38214.93
636.599	38143.25
636.799	38096.14
636.999	38341.9
637.199	38190.35
637.399	38653.19
637.599	38245.65
637.799	38395.15
637.999	38849.8
638.199	39255.29
638.399	38149.39
638.599	38270.22
638.799	38866.18
638.999	39249.15
639.199	38823.17
639.399	38294.8
639.599	39363.84
639.799	38538.51
639.999	38411.53
640.199	38427.91
640.399	38982.91
640.599	37674.26
640.799	38843.65
640.998	38862.08
641.198	38757.64
641.398	38767.88
641.598	38751.49
641.798	38882.56
641.997	39406.84
642.197	39107.84
642.397	38917.38
642.597	39142.66
642.796	38767.88
642.996	39697.66
643.196	38839.56
643.395	38528.27
643.595	39281.92
643.795	38573.32
643.994	38958.34
644.194	39046.4
644.394	39326.97
644.593	39226.62
644.793	39511.29
644.992	39337.21
645.192	39116.03
645.392	38890.76
645.591	38989.06
645.791	39329.02
645.99	39183.62
646.19	39197.95
646.389	39204.1
646.589	39154.94
646.788	39494.91
646.987	39449.85
647.187	39558.39
647.386	39685.37
647.586	39830.77
647.785	39748.85
647.984	39423.23
648.184	39496.95
648.383	38958.34
648.582	39535.87
648.782	39374.08
648.981	39167.23
649.18	39195.9
649.38	39740.66
649.579	39374.08
649.778	39507.19
649.977	39636.22
650.177	39488.76
650.376	39249.15
650.575	39412.99
650.774	40146.16
650.973	39480.57
651.173	39140.61
651.372	39548.15
651.571	39865.59
651.77	40254.7
651.969	39400.7
652.168	39607.54
652.367	39755
652.566	40056.05
652.765	39505.15
652.964	40107.25
653.163	40201.46
653.362	40191.22
653.561	39582.97
653.76	39816.44
653.959	39884.02
654.158	40211.7
654.357	39947.51
654.556	39283.97
654.755	40316.14
654.954	40031.47
655.153	39324.93
655.352	40273.13
655.551	40264.94
655.749	40004.85
655.948	39701.75
656.147	40172.78
656.346	39990.52
656.545	40420.59
656.743	39724.28
656.942	40389.87
657.141	40408.3
657.34	39935.22
657.538	39789.81
657.737	39937.27
657.936	40453.36
658.135	40543.47
658.333	39908.6
658.532	40475.88
658.731	40586.47
658.929	40428.78
659.128	40402.16
659.326	40185.07
659.525	40944.87
659.724	40295.66
659.922	40066.29
660.121	39947.51
660.319	40183.02
660.518	40062.19
660.716	39783.67
660.915	40305.9
661.113	40858.85
661.312	40213.74
661.51	40078.58
661.709	39777.53
661.907	40424.68
662.105	40549.61
662.304	40735.98
662.502	40471.79
662.701	40559.85
662.899	40164.59
663.097	40623.34
663.296	40113.39
663.494	41094.37
663.692	41204.96
663.891	39812.34
664.089	40525.03
664.287	40482.03
664.485	40246.51
664.684	40357.1
664.882	40172.78
665.08	40381.68
665.278	40471.79
665.476	39832.82
665.675	40826.09
665.873	41094.37
666.071	40791.27
666.269	40137.97
666.467	40060.15
666.665	40326.38
666.863	39951.6
667.061	40840.42
667.259	40113.39
667.457	40570.09
667.655	40672.49
667.853	40084.72
668.051	40266.99
668.249	40369.39
668.447	40690.92
668.645	39939.32
668.843	40508.65
669.041	40834.28
669.239	40168.69
669.437	40223.98
669.635	40314.09
669.833	40238.32
670.031	40467.69
670.229	40160.5
670.426	40305.9
670.624	40336.62
670.822	40264.94
671.02	40412.4
671.218	40307.95
671.415	40525.03
671.613	40326.38
671.811	40070.39
672.009	40662.25
672.206	40922.34
672.404	40553.71
672.602	40535.27
672.799	40301.81
672.997	40103.15
673.195	40758.5
673.392	40305.9
673.59	39716.09
673.788	40404.2
673.985	39609.59
674.183	40142.06
674.38	40209.65
674.578	40713.45
674.775	39953.65
674.973	39871.73
675.17	40205.55
675.368	40400.11
675.565	40488.17
675.763	39843.06
675.96	40062.19
676.158	40113.39
676.355	39458.04
676.553	39984.37
676.75	39871.73
676.947	40226.03
677.145	40039.67
677.342	39617.78
677.539	39333.12
677.737	40013.04
677.934	40221.94
678.131	39838.97
678.329	39525.63
678.526	40111.35
678.723	40226.03
678.92	39881.97
679.118	39687.42
679.315	39359.74
679.512	39843.06
679.709	39738.61
679.906	39576.83
680.104	40248.56
680.301	39974.13
680.498	39421.18
680.695	39394.56
680.892	39599.35
681.089	39183.62
681.286	39711.99
681.483	38917.38
681.68	39388.41
681.877	39767.29
682.075	39550.2
682.272	39550.2
682.469	39673.08
682.665	39496.95
682.862	39435.52
683.059	39062.79
683.256	39423.23
683.453	39519.48
683.65	39283.97
683.847	39494.91
684.044	39486.71
684.241	39355.64
684.438	39740.66
684.635	39111.94
684.831	39900.4
685.028	39681.27
685.225	38624.52
685.422	39304.45
685.619	39169.28
685.815	39150.85
686.012	39265.53
686.209	38868.23
686.405	39140.61
686.602	39210.24
686.799	38800.65
686.996	39318.78
687.192	38864.13
687.389	39445.76
687.586	38798.6
687.782	39126.27
687.979	39331.07
688.175	39224.57
688.372	38960.39
688.568	38583.56
688.765	38589.7
688.962	39390.46
689.158	39034.11
689.355	38657.29
689.551	39093.5
689.748	38479.11
689.944	38808.84
690.14	39050.5
690.337	38860.04
690.533	38739.21
690.73	38585.61
690.926	38958.34
691.123	38771.97
691.319	38470.92
691.515	38544.65
691.712	38376.72
691.908	38706.44
692.104	38714.63
692.301	38733.06
692.497	38458.63
692.693	38624.52
692.889	38814.98
693.086	38221.07
693.282	38266.13
693.478	38645
693.674	39369.98
693.87	37950.74
694.067	38249.74
694.263	38753.54
694.459	38585.61
694.655	38759.69
694.851	38337.8
695.047	38288.65
695.243	38874.37
695.439	37940.5
695.635	38198.54
695.831	38440.2
696.027	38049.04
696.224	37967.12
696.42	38241.55
696.615	38542.6
696.811	38036.75
697.007	38200.59
697.203	38055.18
697.399	37809.43
697.595	38063.38
697.791	37594.39
697.987	37868.82
698.183	37895.44
698.379	37567.77
698.575	38229.26
698.77	37750.04
698.966	37745.94
699.162	38378.76
699.358	37477.66
699.554	37381.4
699.749	38165.77
699.945	38620.42
700.141	37836.05
700.337	37578.01
700.532	37559.58
700.728	37393.69
700.924	37563.67
701.119	37145.89
701.315	37522.71
701.511	37774.61
701.706	37827.86
701.902	37080.35
702.097	37393.69
702.293	38382.86
702.489	37668.12
702.684	37696.79
702.88	37586.2
703.075	37805.33
703.271	37149.98
703.466	37160.22
703.662	37477.66
703.857	37872.92
704.053	37616.92
704.248	37518.62
704.443	37471.51
704.639	37381.4
704.834	37066.02
705.03	37426.46
705.225	37332.25
705.42	37088.54
705.616	37047.58
705.811	37305.63
706.006	37215.52
706.202	37334.3
706.397	37250.33
706.592	37113.12
706.787	36832.55
706.983	36846.88
707.178	37424.41
707.373	37119.26
707.568	37324.06
707.763	37188.89
707.959	37414.17
708.154	36955.43
708.349	36980
708.544	37154.08
708.739	36531.5
708.934	36490.54
709.129	37281.05
709.324	37137.69
709.519	36721.96
709.714	36160.81
709.909	37590.3
710.104	37023.01
710.299	36398.38
710.494	36865.31
710.689	37184.8
710.884	37047.58
711.079	36775.2
711.274	36470.06
711.469	37178.65
711.664	36973.86
711.859	36717.86
712.054	37129.5
712.249	36955.43
712.443	36414.76
712.638	36582.7
712.833	36308.27
713.028	36816.16
713.223	36566.31
713.417	36678.95
713.612	36343.08
713.807	36779.3
714.002	37338.4
714.196	36701.48
714.391	36681
714.586	36977.95
714.78	36502.82
714.975	36230.44
715.17	36074.8
715.364	36304.17
715.559	36629.8
715.754	35355.96
715.948	36111.66
716.143	36406.57
716.337	36554.02
716.532	36566.31
716.726	36644.13
716.921	36381.99
717.115	36654.37
717.31	35607.86
717.504	36678.95
717.699	35927.35
717.893	36386.09
718.088	35941.68
718.282	35964.21
718.476	35831.09
718.671	35878.19
718.865	35433.78
719.059	35540.28
719.254	36101.42
719.448	36115.76
719.642	36863.27
719.837	35446.07
720.031	36173.1
720.225	36027.7
720.419	35511.61
720.614	35241.28
720.808	36052.27
721.002	35536.18
721.196	35431.74
721.39	35464.5
721.585	36056.37
721.779	36054.32
721.973	35407.16
722.167	34827.59
722.361	35376.44
722.555	36173.1
722.749	35165.5
722.943	35571
723.137	34972.99
723.331	35564.85
723.525	35247.42
723.719	35059.01
723.913	35652.92
724.107	35509.56
724.301	34712.9
724.495	34999.62
724.689	35734.84
724.883	35722.55
725.077	35075.39
725.271	34956.61
725.465	35343.67
725.659	35198.27
725.853	35050.81
726.046	34712.9
726.24	35136.83
726.434	34839.87
726.628	34827.59
726.822	34592.07
727.015	35439.93
727.209	35116.35
727.403	35048.77
727.596	34770.24
727.79	35499.32
727.984	35497.27
728.177	34882.88
728.371	35099.97
728.565	35329.34
728.758	35067.2
728.952	35046.72
729.146	34786.63
729.339	35423.54
729.533	35005.76
729.726	35065.15
729.92	34850.11
730.113	35460.41
730.307	35527.99
730.5	34792.77
730.694	34760
730.887	34569.54
731.081	35218.75
731.274	34798.91
731.468	34680.13
731.661	34962.75
731.854	34692.42
732.048	34725.19
732.241	34813.25
732.435	34729.28
732.628	34972.99
732.821	35059.01
733.014	35171.64
733.208	34833.73
733.401	35243.32
733.594	34708.8
733.788	34678.08
733.981	34958.66
734.174	35065.15
734.367	34424.14
734.56	34979.14
734.754	35310.91
734.947	34907.46
735.14	34673.99
735.333	35011.9
735.526	35243.32
735.719	34841.92
735.912	34757.95
736.105	34501.96
736.298	35075.39
736.491	34547.01
736.684	34250.06
736.877	34325.83
737.07	34706.76
737.263	34854.21
737.456	34563.4
737.649	33836.37
737.842	34338.12
738.035	34774.34
738.228	34256.2
738.421	34288.97
738.614	34684.23
738.807	34905.41
739	33684.82
739.192	34061.65
739.385	34342.22
739.578	34618.69
739.771	34573.64
739.964	34256.2
740.156	34542.92
740.349	34399.56
740.542	34727.24
740.735	33994.06
740.927	34082.13
741.12	34258.25
741.313	33887.57
741.505	34250.06
741.698	34256.2
741.891	34526.53
742.083	34229.58
742.276	34137.42
742.468	34340.17
742.661	34125.13
742.854	33871.18
743.046	33895.76
743.239	34428.23
743.431	34610.5
743.624	33822.03
743.816	33580.37
744.009	34026.83
744.201	34202.96
744.393	34010.45
744.586	33543.51
744.778	34350.41
744.971	34024.78
745.163	34149.71
745.355	33955.15
745.548	34026.83
745.74	33688.92
745.932	33879.38
746.125	33647.96
746.317	34639.17
746.509	33760.59
746.702	33834.32
746.894	33461.59
747.086	33715.54
747.278	34311.5
747.471	33486.17
747.663	33627.48
747.855	33645.91
748.047	34297.16
748.239	33299.8
748.431	33764.69
748.623	34108.75
748.815	33932.62
749.008	33578.32
749.2	33576.28
749.392	33768.79
749.584	33885.52
749.776	33842.51
749.968	33537.37
750.16	34614.6
750.352	33635.67
750.544	33443.16
750.736	33369.43
750.928	34004.3
751.12	33598.8
751.311	33107.29
751.503	33895.76
751.695	33492.31
751.887	33572.18
752.079	33473.88
752.271	32752.99
752.463	34483.53
752.654	33506.65
752.846	33256.79
753.038	33058.14
753.23	33056.09
753.421	33238.36
753.613	32718.18
753.805	33621.33
753.997	33332.57
754.188	33439.06
754.38	33013.09
754.572	32894.3
754.763	33484.12
754.955	33379.67
755.146	33013.09
755.338	32679.27
755.53	32851.3
755.721	32693.6
755.913	32429.41
756.104	32349.54
756.296	33355.1
756.487	32998.75
756.679	32607.59
756.87	32417.13
757.062	32626.02
757.253	32761.19
757.445	32585.06
757.636	32480.61
757.827	32621.92
758.019	33727.83
758.21	32386.41
758.401	32478.57
758.593	33148.25
758.784	32851.3
758.975	31798.64
759.167	32298.34
759.358	32566.63
759.549	32824.67
759.74	31913.33
759.932	31950.19
760.123	32308.58
760.314	32046.44
760.505	32118.12
760.696	31448.44
760.888	32763.23
761.079	31849.84
761.27	31743.34
761.461	31636.85
761.652	32247.15
761.843	31853.94
762.034	31896.94
762.225	31587.7
762.416	31681.91
762.607	31483.25
762.798	31784.3
762.989	31260.02
763.18	32284.01
763.371	31331.7
763.562	31343.99
763.753	31470.97
763.944	32001.39
764.135	31810.93
764.326	31231.35
764.517	31247.74
764.708	31464.82
764.899	31577.46
765.089	30864.77
765.28	30907.77
765.471	31616.37
765.662	30963.07
765.853	31071.61
766.043	30477.7
766.234	31102.33
766.425	30879.1
766.615	30985.6
766.806	30647.68
766.997	31532.4
767.187	30821.76
767.378	30938.49
767.569	30334.34
767.759	30905.73
767.95	30811.52
768.141	30686.59
768.331	30446.98
768.522	30424.45
768.712	31174.01
768.903	30666.11
769.093	29988.24
769.284	31010.17
769.474	30756.22
769.665	29664.66
769.855	30317.96
770.046	30635.39
770.236	30274.95
770.426	30199.18
770.617	30197.13
770.807	30446.98
770.998	30346.63
771.188	29707.66
771.378	29832.59
771.569	30135.69
771.759	30152.07
771.949	29693.33
772.139	29984.14
772.33	29771.15
772.52	30444.93
772.71	29844.88
772.9	29429.14
773.09	30213.51
773.281	30274.95
773.471	29642.13
773.661	29578.64
773.851	29627.79
774.041	29803.92
774.231	29308.31
774.421	29656.46
774.611	29978
774.802	29281.69
774.992	29515.15
775.182	29611.41
775.372	29470.1
775.562	29875.6
775.752	29382.04
775.942	29019.55
776.131	29545.87
776.321	29355.41
776.511	28892.57
776.701	28794.27
776.891	29140.38
777.081	28814.75
777.271	29062.55
777.461	29046.17
777.651	29300.12
777.84	29328.79
778.03	28804.51
778.22	28347.81
778.41	29183.38
778.599	28829.09
778.789	28380.58
778.979	28689.82
779.169	28673.44
779.358	28941.72
779.548	28624.29
779.738	27901.36
779.927	28573.09
780.117	28466.59
780.307	27790.77
780.496	28116.39
780.686	28620.19
780.875	28548.51
781.065	28136.87
781.254	28237.22
781.444	28454.31
781.633	28399.01
781.823	27790.77
782.012	27889.07
782.202	28091.82
782.391	28034.47
782.581	27805.1
782.77	28048.81
782.96	28382.63
783.149	27755.95
783.338	27794.86
783.528	27403.7
783.717	27827.63
783.906	28415.4
784.096	27614.64
784.285	27211.19
784.474	27665.84
784.663	27350.45
784.853	27426.23
785.042	27481.52
785.231	27549.1
785.42	27796.91
785.61	27692.46
785.799	27354.55
785.988	27796.91
786.177	27624.88
786.366	27276.73
786.555	27497.91
786.744	28075.43
786.933	27342.26
787.122	27137.46
787.312	27178.42
787.501	27491.76
787.69	27164.09
787.879	27327.92
788.068	27028.92
788.257	27108.79
788.445	26914.23
788.634	26760.64
788.823	26615.23
789.012	27102.65
789.201	27254.2
789.39	26850.75
789.579	26195.4
789.768	27004.35
789.957	26768.83
790.145	26602.94
790.334	26533.31
790.523	26817.98
790.712	26742.21
790.9	26625.47
791.089	26174.92
791.278	26844.6
791.467	26498.5
791.655	26469.83
791.844	26625.47
792.033	26117.57
792.221	26496.45
792.41	26506.69
792.599	25925.07
792.787	26617.28
792.976	26312.13
793.164	26064.33
793.353	25871.82
793.541	26633.66
793.73	26486.21
793.918	26148.29
794.107	25669.07
794.295	26273.22
794.484	26019.27
794.672	25890.25
794.861	25632.21
795.049	26385.86
795.238	26199.49
795.426	25888.2
795.614	25638.35
795.803	25912.78
795.991	26025.42
796.179	25568.72
796.368	25742.8
796.556	26031.56
796.744	25554.38
796.932	25617.87
797.121	25189.84
797.309	25353.68
797.497	26222.02
797.685	25687.5
797.874	25587.15
798.062	25812.43
798.25	25908.68
798.438	25654.73
798.626	25417.17
798.814	25994.7
799.002	26084.81
799.19	25765.32
799.378	25550.29
799.566	25894.35
799.755	26078.66
799.943	25849.29
800.131	25535.95
800.318	25724.36
800.506	25892.3
800.694	25261.52
800.882	25632.21
801.07	25863.63
801.258	25740.75
801.446	25480.66
801.634	25345.49
801.822	25855.43
802.01	25392.59
802.197	25505.23
802.385	25660.88
802.573	25685.45
802.761	25781.71
802.949	25693.65
803.136	25329.11
803.324	25834.96
803.512	25642.45
803.699	25435.6
803.887	25449.94
804.075	26236.36
804.262	25656.78
804.45	25316.82
804.638	25771.47
804.825	25857.48
805.013	25398.74
805.201	25976.26
805.388	25712.08
805.576	25759.18
805.763	26502.59
805.951	25593.29
806.138	25507.28
806.326	26774.97
806.513	26195.4
806.701	25757.13
806.888	26062.28
807.075	26228.17
807.263	26265.03
807.45	25601.49
807.638	25703.89
807.825	26004.94
808.012	26019.27
808.2	25900.49
808.387	26037.7
808.574	26256.84
808.761	26222.02
808.949	25677.26
809.136	25714.12
809.323	26006.98
809.51	26043.85
809.698	25933.26
809.885	26107.33
810.072	26525.12
810.259	26551.74
810.446	26109.38
810.633	25880.01
810.82	26705.34
811.008	26598.85
811.195	26699.2
811.382	25775.56
811.569	26248.64
811.756	25857.48
811.943	26088.9
812.13	26109.38
812.317	26080.71
812.504	26088.9
812.691	26297.8
812.878	25972.17
813.064	26592.7
813.251	26342.85
813.438	26113.48
813.625	25963.98
813.812	26013.13
813.999	26248.64
814.186	26701.25
814.372	26041.8
814.559	26228.17
814.746	26465.73
814.933	25871.82
815.12	26117.57
815.306	25963.98
815.493	25972.17
815.68	25705.93
815.866	25736.65
816.053	26570.18
816.24	26502.59
816.426	26398.15
816.613	25806.28
816.799	26330.56
816.986	26445.25
817.173	26056.14
817.359	25681.36
817.546	26170.82
817.732	25718.22
817.919	25746.89
818.105	25939.4
818.292	25984.46
818.478	26181.06
818.665	26133.96
818.851	25802.19
819.037	26713.53
819.224	26025.42
819.41	25574.86
819.597	25613.77
819.783	26527.17
819.969	26156.49
820.156	25785.8
820.342	25714.12
820.528	26713.53
820.714	25576.91
820.901	25877.96
821.087	25626.06
821.273	26521.02
821.459	25755.08
821.646	25679.31
821.832	25628.11
822.018	25949.64
822.204	25568.72
822.39	25263.57
822.576	25071.06
822.762	25660.88
822.948	25376.21
823.134	25501.14
823.32	25423.31
823.507	25460.18
823.693	25652.69
823.879	25337.3
824.065	25372.11
824.25	25562.58
824.436	25587.15
824.622	25112.02
824.808	25169.37
824.994	25282
825.18	24866.27
825.366	24831.45
825.552	25069.01
825.738	25269.72
825.923	25337.3
826.109	25263.57
826.295	24980.95
826.481	24954.33
826.667	25220.56
826.852	25124.31
827.038	24741.34
827.224	25490.9
827.409	25316.82
827.595	24651.23
827.781	24698.33
827.966	25294.29
828.152	25458.13
828.338	24808.92
828.523	24122.85
828.709	24808.92
828.894	24864.22
829.08	24888.79
829.266	24524.26
829.451	24843.74
829.637	25101.78
829.822	24524.26
830.008	24536.54
830.193	24880.6
830.378	25028.06
830.564	24694.24
830.749	24237.54
830.935	24835.55
831.12	24438.24
831.305	24253.92
831.491	24208.87
831.676	24141.28
831.861	24569.31
832.047	24327.65
832.232	24200.68
832.417	24745.44
832.602	24393.19
832.788	24069.61
832.973	24180.2
833.158	24094.18
833.343	24321.51
833.528	24184.29
833.714	24387.04
833.899	23979.5
834.084	24344.03
834.269	24169.96
834.454	24149.48
834.639	24313.31
834.824	24245.73
835.009	24032.74
835.194	24202.72
835.379	24483.3
835.564	24260.07
835.749	23784.94
835.934	23916.01
836.119	24004.07
836.304	23715.31
836.489	23543.28
836.674	23772.65
836.859	23270.9
837.044	24387.04
837.228	23279.09
837.413	22914.55
837.598	23551.47
837.783	23721.45
837.968	23449.07
838.152	23225.84
838.337	23086.58
838.522	23383.54
838.707	23815.66
838.891	23608.81
839.076	23676.4
839.261	23743.98
839.445	23213.56
839.63	23254.51
839.815	23696.88
839.999	22994.42
840.184	23186.93
840.368	23057.91
840.553	23467.5
840.737	23481.84
840.922	22879.74
841.106	22916.6
841.291	22386.18
841.475	22975.99
841.66	22763
841.844	22758.91
842.029	23623.15
842.213	22861.3
842.397	22689.28
842.582	22349.31
842.766	23143.92
842.951	22924.79
843.135	22810.11
843.319	22468.09
843.504	22949.37
843.688	22973.94
843.872	22044.16
844.056	22543.87
844.241	22744.57
844.425	22433.28
844.609	22437.37
844.793	21956.1
844.977	22545.92
845.161	22251.01
845.346	21812.74
845.53	22038.02
845.714	22332.93
845.898	22523.39
846.082	22132.23
846.266	22109.7
846.45	22201.86
846.634	22277.63
846.818	22167.04
847.002	22263.3
847.186	22769.15
847.37	22173.19
847.554	21927.43
847.738	21960.2
847.922	22265.35
848.106	22504.96
848.29	21747.21
848.473	21665.29
848.657	21964.29
848.841	22021.64
849.025	21775.88
849.209	21521.93
849.392	22097.41
849.576	21839.37
849.76	21319.18
849.944	21605.9
850.127	22556.16
850.311	21765.64
850.495	21661.19
850.678	21335.57
850.862	21841.42
851.046	21988.87
851.229	21734.92
851.413	21448.21
851.596	21769.74
851.78	21669.39
851.964	21691.91
852.147	21456.4
852.331	22230.53
852.514	21923.33
852.698	21218.83
852.881	21055
853.065	21607.95
853.248	21032.47
853.431	21204.5
853.615	21130.77
853.798	21954.05
853.982	21587.47
854.165	21368.34
854.348	21202.45
854.532	21052.95
854.715	21165.59
854.898	20948.5
855.081	20794.9
855.265	21296.66
855.448	21192.21
855.631	20477.47
855.814	20649.5
855.997	21427.73
856.181	20870.68
856.364	20643.35
856.547	20596.25
856.73	20905.49
856.913	20862.49
857.096	20688.41
857.279	20835.86
857.462	20606.49
857.645	21042.71
857.828	20401.69
858.011	20635.16
858.194	20082.21
858.377	20862.49
858.56	20164.13
858.743	20356.64
858.926	20065.83
859.109	20532.76
859.292	20157.99
859.475	20020.77
859.658	20637.21
859.841	20454.94
860.023	19744.3
860.206	19732.01
860.389	20219.42
860.572	20684.31
860.755	19889.7
860.937	19848.74
861.12	20008.48
861.303	19936.81
861.486	19813.93
861.668	19799.59
861.851	20008.48
862.034	20047.4
862.216	20112.93
862.399	19443.24
862.581	19936.81
862.764	19871.27
862.947	19500.59
863.129	19328.56
863.312	19281.46
863.494	19983.91
863.677	19609.13
863.859	19189.3
864.042	19809.83
864.224	20162.08
864.406	19207.73
864.589	18982.45
864.771	19519.02
864.954	19025.46
865.136	18832.95
865.318	18906.68
865.501	19545.64
865.683	19004.98
865.865	18902.58
866.048	18728.5
866.23	19183.15
866.412	19177.01
866.594	18875.96
866.777	19090.99
866.959	19428.91
867.141	18976.31
867.323	18939.44
867.505	18974.26
867.687	19099.19
867.869	18964.02
868.052	19000.88
868.234	18624.06
868.416	18595.39
868.598	19207.73
868.78	18583.1
868.962	18599.48
869.144	19308.08
869.326	18910.77
869.508	18574.91
869.69	18957.88
869.872	18677.3
870.054	19275.31
870.236	18486.84
870.417	18554.43
870.599	18630.2
870.781	19426.86
870.963	18632.25
871.145	18044.48
871.327	18521.66
871.508	18789.94
871.69	18611.77
871.872	18310.72
872.054	18732.6
872.235	18802.23
872.417	18263.61
872.599	18228.8
872.78	18933.3
872.962	18624.06
873.144	18122.3
873.325	18441.79
873.507	19060.27
873.689	18517.56
873.87	18183.74
874.052	18595.39
874.233	18570.81
874.415	19045.94
874.596	18605.63
874.778	18478.65
874.959	18687.54
875.141	18964.02
875.322	18419.26
875.503	18296.38
875.685	18613.82
875.866	18251.33
876.048	18253.37
876.229	18298.43
876.41	18603.58
876.592	18732.6
876.773	18624.06
876.954	17944.13
877.136	18828.85
877.317	18406.97
877.498	18351.68
877.679	18228.8
877.86	18331.2
878.042	18458.17
878.223	18210.37
878.404	18583.1
878.585	18906.68
878.766	19199.54
878.947	18861.62
879.128	18550.33
879.309	18718.26
879.49	19017.27
879.672	18671.16
879.853	18224.7
880.034	18392.64
880.215	19025.46
880.396	18574.91
880.576	18579
880.757	18380.35
880.938	19193.39
881.119	18679.35
881.3	18615.87
881.481	18839.09
881.662	20069.92
881.843	18751.03
882.023	18720.31
882.204	19002.93
882.385	19099.19
882.566	19095.09
882.747	18986.55
882.927	19363.37
883.108	19613.23
883.289	18824.76
883.469	19453.48
883.65	19232.3
883.831	19588.65
884.011	19201.58
884.192	19484.2
884.373	19701.29
884.553	19437.1
884.734	19316.27
884.914	19527.21
885.095	20475.42
885.275	20002.34
885.456	19828.26
885.636	19250.74
885.817	19705.38
885.997	19424.81
886.178	19336.75
886.358	19592.75
886.538	19940.9
886.719	20592.16
886.899	19410.48
887.08	19600.94
887.26	19914.28
887.44	19504.68
887.621	19543.6
887.801	19494.44
887.981	20162.08
888.161	19820.07
888.342	19541.55
888.522	20020.77
888.702	20147.75
888.882	20002.34
889.062	19701.29
889.242	19502.64
889.423	20229.66
889.603	20020.77
889.783	19932.71
889.963	19568.17
890.143	20137.51
890.323	19832.36
890.503	19869.22
890.683	19832.36
890.863	19523.12
891.043	19717.67
891.223	19686.95
891.403	19910.18
891.583	20110.88
891.763	19801.64
891.943	19686.95
892.122	19623.47
892.302	19904.04
892.482	19842.6
892.662	19680.81
892.842	19711.53
893.022	20188.71
893.201	19516.97
893.381	19770.92
893.561	19596.84
893.741	20127.27
893.92	19932.71
894.1	19828.26
894.28	19605.03
894.459	19633.71
894.639	19461.68
894.819	19181.1
894.998	19408.43
895.178	19815.97
895.357	19713.58
895.537	19390
895.716	19430.96
895.896	19433
896.075	20155.94
896.255	19543.6
896.434	19285.55
896.614	19779.11
896.793	19934.76
896.973	19371.57
897.152	19252.78
897.331	19674.67
897.511	19838.5
897.69	18996.79
897.87	19226.16
898.049	19375.66
898.228	19336.75
898.407	19283.5
898.587	19131.95
898.766	19195.44
898.945	19326.51
899.124	19295.79
899.304	18828.85
899.483	19015.22
899.662	19340.85
899.841	18695.74
900.02	18376.25
900.199	19181.1
900.378	18898.48
900.557	18452.03
900.737	18146.88
900.916	18806.33
901.095	19025.46
901.274	18736.7
901.453	18316.86
901.632	18325.05
901.811	18619.96
901.989	18112.06
902.168	17851.97
902.347	18560.57
902.526	18087.49
902.705	17811.01
902.884	18054.72
903.063	18607.67
903.242	18550.33
903.42	17622.6
903.599	17913.41
903.778	18079.3
903.957	17813.06
904.135	17800.77
904.314	17481.29
904.493	17763.91
904.672	17704.52
904.85	17268.3
905.029	17239.63
905.207	17432.14
905.386	18216.51
905.565	16780.89
905.743	17124.94
905.922	16991.83
906.1	17428.04
906.279	16764.5
906.457	16653.91
906.636	16969.3
906.814	16791.13
906.993	16397.92
907.171	16522.84
907.35	16801.36
907.528	17038.93
907.707	16455.26
907.885	15967.84
908.063	16623.19
908.242	16197.21
908.42	15869.54
908.598	15871.59
908.777	16115.3
908.955	16244.32
909.133	16152.16
909.311	15887.97
909.49	16021.09
909.668	16371.29
909.846	16049.76
910.024	15894.11
910.202	16535.13
910.38	16440.92
910.559	16088.67
910.737	16041.57
910.915	16871
911.093	16711.25
911.271	16500.31
911.449	16359
911.627	16770.65
911.805	17174.1
911.983	16500.31
912.161	16295.52
912.339	16737.88
912.517	17120.85
912.695	16774.74
912.872	16631.38
913.05	16766.55
913.228	16737.88
913.406	16672.34
913.584	16680.53
913.762	17116.75
913.939	16864.85
914.117	16897.62
914.295	16592.47
914.473	17079.89
914.65	16903.76
914.828	16979.54
915.006	16678.49
915.184	16881.24
915.361	16877.14
915.539	16576.09
915.716	16528.99
915.894	16899.67
916.072	17114.7
916.249	17002.07
916.427	16766.55
916.604	16688.73
916.782	17077.84
916.959	16526.94
917.137	16594.52
917.314	16557.66
917.492	16758.36
917.669	16414.3
917.847	16281.18
918.024	16555.61
918.201	16379.48
918.379	16367.2
918.556	16432.73
918.733	16784.98
918.911	16436.83
919.088	16404.06
919.265	15992.42
919.442	16510.55
919.62	16012.9
919.797	15607.4
919.974	15953.51
920.151	16068.19
920.328	16037.47
920.506	15672.93
920.683	15984.23
920.86	15703.65
921.037	15791.72
921.214	15783.52
921.391	15781.48
921.568	15988.32
921.745	15918.69
921.922	15763.04
922.099	15615.59
922.276	16318.04
922.453	15693.41
922.63	15570.54
922.807	15416.94
922.984	15513.19
923.161	15748.71
923.338	15539.82
923.514	15287.92
923.691	15666.79
923.868	15939.17
924.045	15339.12
924.222	15232.62
924.399	15304.3
924.575	15529.58
924.752	15218.29
924.929	15302.25
925.105	15468.14
925.282	15015.54
925.459	15011.44
925.635	14982.77
925.812	14970.48
925.989	14925.43
926.165	14960.24
926.342	14444.15
926.518	14872.18
926.695	15154.8
926.871	14360.19
927.048	14593.65
927.224	14921.33
927.401	14638.71
927.577	14372.47
927.754	14288.51
927.93	14939.76
928.107	14499.45
928.283	14351.99
928.459	14481.02
928.636	14841.46
928.812	14474.87
928.988	14302.84
929.165	13973.12
929.341	14280.32
929.517	14669.43
929.693	14487.16
929.87	13692.55
930.046	14380.67
930.222	14032.51
930.398	14034.56
930.574	13815.43
930.751	13995.65
930.927	13680.26
931.103	13719.17
931.279	13575.81
931.455	13444.74
931.631	13811.33
931.807	13082.25
931.983	13477.51
932.159	13141.64
932.335	13444.74
932.511	13090.45
932.687	12838.55
932.863	13282.95
933.039	13180.56
933.215	12869.26
933.391	12617.36
933.566	12873.36
933.742	12811.92
933.918	12646.04
934.094	12269.21
934.27	12543.64
934.445	12301.98
934.621	12287.64
934.797	11982.49
934.973	12453.53
935.148	12433.05
935.324	11736.74
935.5	11417.26
935.675	11783.84
935.851	11925.15
936.027	11316.9
936.202	11525.8
936.378	11335.34
936.553	11024.05
936.729	10913.45
936.904	10432.18
937.08	10426.04
937.255	10325.69
937.431	10106.56
937.606	9805.5
937.782	9901.76
937.957	10098.36
938.133	9785.02
938.308	9277.13
938.483	9352.9
938.659	9170.63
938.834	8881.87
939.009	8890.06
939.185	8777.42
939.36	8642.26
939.535	8222.42
939.71	8513.24
939.886	8988.36
940.061	8967.88
940.236	8300.25
940.411	8189.66
940.586	8480.47
940.761	8437.46
940.937	7980.76
941.112	7855.84
941.287	7986.91
941.462	7818.97
941.637	7659.23
941.812	7726.82
941.987	7995.1
942.162	7775.97
942.337	7577.31
942.512	7603.94
942.687	7714.53
942.862	7683.81
943.037	7044.84
943.212	7204.58
943.386	7577.31
943.561	7554.79
943.736	7585.51
943.911	7622.37
944.086	7317.22
944.26	7661.28
944.435	7102.18
944.61	7497.44
944.785	7866.08
944.959	7886.56
945.134	7309.03
945.309	7208.68
945.483	7169.77
945.658	7575.27
945.833	6838
946.007	7055.08
946.182	7894.75
946.357	7137
946.531	7184.1
946.706	7349.99
946.88	7044.84
947.055	7374.56
947.229	7198.44
947.404	7360.23
947.578	7866.08
947.752	7554.79
947.927	7415.52
948.101	6973.16
948.276	7595.75
948.45	7491.3
948.624	7706.34
948.799	7323.37
948.973	7669.47
949.147	7452.39
949.321	7548.64
949.496	7411.43
949.67	8081.11
949.844	7778.01
950.018	7433.96
950.193	7636.7
950.367	8070.87
950.541	7749.34
950.715	7610.08
950.889	7816.93
951.063	7612.13
951.237	8046.3
951.411	7427.81
951.585	7653.09
951.759	8224.47
951.933	7790.3
952.107	7816.93
952.281	8040.15
952.455	8292.05
952.629	8230.62
952.803	7948
952.977	7788.25
953.151	8232.66
953.325	8345.3
953.499	8130.27
953.672	7810.78
953.846	8003.29
954.02	8001.24
954.194	7775.97
954.368	8120.03
954.541	8367.83
954.715	8068.83
954.889	7952.09
955.062	7837.41
955.236	8230.62
955.41	8292.05
955.583	8269.53
955.757	7821.02
955.93	8257.24
956.104	8042.2
956.278	8242.9
956.451	8181.46
956.625	8312.53
956.798	9074.38
956.972	8507.09
957.145	7902.94
957.319	8398.55
957.492	8210.14
957.665	8392.41
957.839	8156.89
958.012	8496.85
958.185	8275.67
958.359	8091.35
958.532	8292.05
958.705	8492.76
958.879	8451.8
959.052	8322.77
959.225	8066.78
959.398	8451.8
959.572	8441.56
959.745	8163.03
959.918	8337.11
960.091	8206.04
960.264	8646.35
960.438	8132.31
960.611	8113.88
960.784	8670.93
960.957	8292.05
961.13	8582.87
961.303	8163.03
961.476	8335.06
961.649	8513.24
961.822	7997.15
961.995	8208.09
962.168	8756.94
962.341	8369.88
962.514	8257.24
962.686	8064.73
962.859	8302.29
963.032	8668.88
963.205	8234.71
963.378	7972.57
963.551	8349.4
963.723	8376.02
963.896	8208.09
964.069	8236.76
964.242	8169.18
964.414	8566.48
964.587	8261.34
964.76	8195.8
964.932	8462.04
965.105	8220.38
965.278	8247
965.45	8296.15
965.623	8406.74
965.795	8419.03
965.968	7870.17
966.14	7945.95
966.313	8232.66
966.485	8365.78
966.658	8036.06
966.83	8310.49
967.003	8543.95
967.175	8343.25
967.348	8083.16
967.52	8083.16
967.692	8642.26
967.865	8457.94
968.037	8027.87
968.209	8234.71
968.382	8230.62
968.554	8390.36
968.726	8099.55
968.898	7970.52
969.071	8261.34
969.243	8320.73
969.415	8083.16
969.587	7952.09
969.759	8648.4
969.932	8314.58
970.104	7909.08
970.276	7472.87
970.448	7872.22
970.62	7755.49
970.792	7919.32
970.964	7837.41
971.136	8363.73
971.308	8144.6
971.48	7610.08
971.652	7673.57
971.824	8255.19
971.996	7798.49
972.168	7679.71
972.339	7661.28
972.511	8183.51
972.683	7882.46
972.855	7767.77
973.027	7651.04
973.199	7792.35
973.37	7866.08
973.542	7548.64
973.714	7665.38
973.886	7728.86
974.057	7907.04
974.229	7474.92
974.401	7347.94
974.572	7524.07
974.744	7229.16
974.915	7440.1
975.087	7433.96
975.259	8175.32
975.43	7218.92
975.602	7513.83
975.773	7345.89
975.945	7347.94
976.116	7700.19
976.288	7280.36
976.459	7601.89
976.63	7415.52
976.802	7519.97
976.973	7313.13
977.145	7495.39
977.316	7769.82
977.487	7464.68
977.659	7257.83
977.83	7100.14
978.001	7704.29
978.172	7401.19
978.344	7149.29
978.515	7075.56
978.686	7147.24
978.857	7528.16
979.028	7040.75
979.2	6899.44
979.371	7362.28
979.542	7042.79
979.713	7087.85
979.884	6631.15
980.055	6735.6
980.226	6987.5
980.397	6702.83
980.568	6823.66
980.739	7216.87
980.91	6936.3
981.081	6850.28
981.252	6868.72
981.423	7276.26
981.594	7149.29
981.765	6657.78
981.936	6833.9
982.106	7038.7
982.277	7038.7
982.448	6883.05
982.619	6790.89
982.79	6637.3
982.96	7177.96
983.131	6663.92
983.302	6465.27
983.472	6645.49
983.643	6754.03
983.814	6594.29
983.984	6588.14
984.155	6590.19
984.326	6815.47
984.496	6704.88
984.667	6201.08
984.837	6475.51
985.008	6975.21
985.178	6620.91
985.349	6567.67
985.519	6541.04
985.69	6405.88
985.86	6338.29
986.031	6084.34
986.201	6283
986.371	6418.16
986.542	6141.69
986.712	5934.84
986.882	6438.64
987.053	6334.2
987.223	6035.19
987.393	6047.48
987.563	6018.81
987.734	6526.71
987.904	6297.33
988.074	5983.99
988.244	6164.22
988.414	5947.13
988.585	5945.08
988.755	5771.01
988.925	6184.69
989.095	6360.82
989.265	5719.81
989.435	5945.08
989.605	6237.94
989.775	6221.56
989.945	6047.48
990.115	5672.7
990.285	5887.74
990.455	6035.19
990.625	5760.77
990.795	5478.15
990.965	6029.05
991.134	5760.77
991.304	5480.19
991.474	5691.13
991.644	5834.49
991.814	6256.37
991.984	5342.98
992.153	5349.12
992.323	5529.34
992.493	5750.53
992.662	5160.71
992.832	5580.54
993.002	5576.45
993.171	5510.91
993.341	5072.65
993.511	5406.47
993.68	5404.42
993.85	5658.37
994.019	5035.78
994.189	5007.11
994.358	5539.58
994.528	5197.57
994.697	4802.32
994.867	5183.24
995.036	5547.78
995.206	5297.92
995.375	5095.18
995.544	5254.92
995.714	5326.6
995.883	5132.04
996.052	5306.12
996.222	4634.38
996.391	5666.56
996.56	5216.01
996.73	4818.7
996.899	4896.52
997.068	5398.27
997.237	5068.55
997.406	4761.36
997.576	4706.06
997.745	5129.99
997.914	5207.81
998.083	4605.71
998.252	4730.64
998.421	4906.76
998.59	4847.37
998.759	4679.44
998.928	4636.43
999.097	5062.41
999.266	5091.08
999.435	4812.56
999.604	4417.3
999.773	5340.93
999.942	4783.88
1000.111	4470.55
1000.28	4388.63
1000.448	4544.27
1000.617	4529.94
1000.786	4601.62
1000.955	4308.76
1001.124	4837.13
1001.292	5230.34
1001.461	4353.81
1001.63	4261.65
1001.798	5000.97
1001.967	4867.85
1002.136	4171.54
1002.304	4095.77
1002.473	4601.62
1002.642	4560.66
1002.81	4245.27
1002.979	4243.22
1003.147	4687.63
1003.316	4929.29
1003.484	4278.04
1003.653	4210.45
1003.821	4640.53
1003.99	4470.55
1004.158	4118.29
1004.327	4106.01
1004.495	4458.26
1004.663	3815.2
1004.832	4083.48
1005	3864.35
1005.168	4359.95
1005.337	4384.53
1005.505	4038.42
1005.673	4116.25
1005.842	4263.7
1006.01	4306.71
1006.178	3858.2
1006.346	3997.46
1006.514	4257.56
1006.683	4411.15
1006.851	3731.23
1007.019	3815.2
1007.187	3856.15
1007.355	3591.97
1007.523	3518.24
1007.691	3524.38
1007.859	3710.75
1008.027	4271.89
1008.195	3503.9
1008.363	3548.96
1008.531	4073.24
1008.699	3831.58
1008.867	3366.69
1009.035	3559.2
1009.203	4019.99
1009.37	3809.05
1009.538	3467.04
1009.706	3886.87
1009.874	3761.95
1010.042	3647.26
1010.209	3421.99
1010.377	3340.07
1010.545	3847.96
1010.713	3680.03
1010.88	3327.78
1011.048	3512.1
1011.216	3512.1
1011.383	3991.32
1011.551	3184.42
1011.718	3215.14
1011.886	3835.67
1012.054	3489.57
1012.221	3020.58
1012.389	3030.82
1012.556	3415.84
1012.724	3802.91
1012.891	3151.65
1013.058	2873.13
1013.226	3450.66
1013.393	3579.68
1013.561	2959.14
1013.728	2916.14
1013.895	3567.39
1014.063	3434.27
1014.23	2920.23
1014.397	2993.96
1014.565	3356.45
1014.732	3225.38
1014.899	3127.08
1015.066	2840.36
1015.233	3153.7
1015.401	3247.91
1015.568	2823.98
1015.735	2901.8
1015.902	3131.17
1016.069	3188.52
1016.236	2750.25
1016.403	2840.36
1016.57	3061.54
1016.737	3198.76
1016.904	2836.27
1017.071	2557.74
1017.238	3016.49
1017.405	3002.15
1017.572	2711.34
1017.739	2770.73
1017.906	2981.67
1018.073	3120.93
1018.24	2514.73
1018.407	2522.93
1018.573	3098.41
1018.74	2758.44
1018.907	2617.13
1019.074	2422.58
1019.241	3045.16
1019.407	2869.03
1019.574	2445.1
1019.741	2373.43
1019.907	2846.51
1020.074	2789.16
1020.241	2307.89
1020.407	2297.65
1020.574	2909.99
1020.74	2987.82
1020.907	2340.66
1021.073	2293.55
1021.24	3096.36
1021.406	3006.25
1021.573	2244.4
1021.739	2266.93
1021.906	2760.49
1022.072	2545.45
1022.239	2311.99
1022.405	2299.7
1022.571	2639.66
1022.738	2408.24
1022.904	2019.13
1023.07	2289.46
1023.237	2398
1023.403	2815.79
1023.569	2221.88
1023.735	2291.51
1023.902	2512.69
1024.068	2504.5
1024.234	2060.09
1024.4	2090.81
1024.566	2580.27
1024.732	2633.52
1024.898	2027.32
1025.065	2002.74
1025.231	2615.09
1025.397	2307.89
1025.563	2139.96
1025.729	2010.93
1025.895	1986.36
1026.061	2119.48
1026.227	1886.01
1026.392	2117.43
1026.558	2643.76
1026.724	2320.18
1026.89	1802.04
1027.056	1916.73
1027.222	2324.27
1027.388	2152.24
1027.553	1824.57
1027.719	1812.28
1027.885	2637.61
1028.051	2348.85
1028.216	1685.31
1028.382	1849.15
1028.548	2461.49
1028.713	2154.29
1028.879	1795.9
1029.045	1953.59
1029.21	2383.66
1029.376	2367.28
1029.541	1922.87
1029.707	1740.6
1029.873	2291.51
1030.038	2352.95
1030.204	1722.17
1030.369	1947.45
1030.534	2164.53
1030.7	1935.16
1030.865	1812.28
1031.031	1660.73
1031.196	2168.63
1031.361	2033.46
1031.527	1711.93
1031.692	1615.68
1031.857	1541.95
1032.023	2217.78
1032.188	1529.66
1032.353	1802.04
1032.518	2332.47
1032.684	2066.23
1032.849	1478.46
1033.014	1648.44
1033.179	2137.91
1033.344	2055.99
1033.509	1767.23
1033.674	1675.07
1033.839	2066.23
1034.004	2078.52
1034.17	1523.52
1034.335	1417.02
1034.5	1785.66
1034.664	1726.27
1034.829	1558.33
1034.994	1396.54
1035.159	1965.88
1035.324	1881.91
1035.489	1369.92
1035.654	1400.64
1035.819	2064.18
1035.984	1840.95
1036.148	1488.7
1036.313	1472.32
1036.478	2121.52
1036.643	1836.86
1036.807	1374.02
1036.972	1316.67
1037.137	2045.75
1037.301	1806.14
1037.466	1146.69
1037.631	1492.8
1037.795	2002.74
1037.96	1783.61
1038.124	1560.38
1038.289	1306.43
1038.454	1832.76
1038.618	1730.36
1038.783	1361.73
1038.947	1343.3
1039.111	1597.24
1039.276	1597.24
1039.44	1218.37
1039.605	1677.12
1039.769	1445.7
1039.933	1445.7
1040.098	1490.75
1040.262	1320.77
1040.426	1744.7
1040.591	1746.75
1040.755	1300.29
1040.919	1242.95
1041.083	1550.14
1041.248	1496.89
1041.412	1021.77
1041.576	1242.95
1041.74	1548.09
1041.904	1742.65
1042.068	1134.4
1042.232	1165.12
1042.397	1802.04
1042.561	1630.01
1042.725	898.89
1042.889	1359.68
1043.053	1716.03
1043.217	1593.15
1043.381	1201.99
1043.544	978.76
1043.708	1718.08
1043.872	1072.96
1044.036	808.78
1044.2	1005.38
1044.364	1693.5
1044.528	1756.99
1044.691	4118.29
1044.855	939.85
1045.019	1826.62
1045.183	1509.18
1045.346	1003.33
1045.51	976.71
1045.674	1390.4
1045.837	1574.72
1046.001	1075.01
1046.165	1034.05
1046.328	1769.27
1046.492	1447.74
1046.655	1173.32
1046.819	1003.33
1046.983	1177.41
1047.146	1443.65
1047.31	1087.3
1047.473	866.12
1047.636	1199.94
1047.8	1032.01
1047.963	991.05
1048.127	845.64
1048.29	1066.82
