Data from Hydrogel_Ink_Intensity_Test_1_USB4F045381__32__00032.txt Node

Date: Mon Jul 31 10:42:50 EDT 2023
User: mmckonesweet
Spectrometer: USB4F04538
Trigger mode: 4
Integration Time (sec): 9.000000E-1
Scans to average: 1
Electric dark correction enabled: true
Nonlinearity correction enabled: false
Boxcar width: 0
XAxis mode: Wavelengths
Number of Pixels in Spectrum: 3648
>>>>>Begin Spectral Data<<<<<
345.52	-980.98
345.736	-980.98
345.952	-980.98
346.168	-1034.22
346.384	-935.92
346.6	-110.59
346.816	-184.32
347.032	-243.71
347.248	188.41
347.464	-143.36
347.68	-53.25
347.896	77.82
348.112	344.06
348.328	-83.97
348.544	-92.16
348.76	47.1
348.975	253.95
349.191	-247.8
349.407	-165.89
349.623	34.82
349.839	14.34
350.055	22.53
350.27	47.1
350.486	135.17
350.702	430.07
350.918	296.96
351.133	-174.08
351.349	112.64
351.565	397.31
351.781	-143.36
351.996	108.54
352.212	317.44
352.428	-120.83
352.644	-145.41
352.859	-165.89
353.075	303.1
353.291	92.16
353.506	-2.05
353.722	-212.99
353.938	-65.53
354.153	460.79
354.369	180.22
354.584	-165.89
354.8	376.83
355.016	-264.19
355.231	-116.73
355.447	-4.1
355.662	176.13
355.878	929.78
356.093	-235.52
356.309	16.38
356.524	-196.61
356.74	395.26
356.955	-88.06
357.171	-26.62
357.386	294.91
357.602	-262.14
357.817	-8.19
358.033	-69.63
358.248	423.93
358.464	155.65
358.679	-22.53
358.895	-251.9
359.11	59.39
359.325	264.19
359.541	366.59
359.756	67.58
359.972	-165.89
360.187	235.52
360.402	-90.11
360.618	-96.25
360.833	940.02
361.048	210.94
361.264	-98.3
361.479	47.1
361.694	38.91
361.909	325.63
362.125	-194.56
362.34	-16.38
362.555	301.05
362.77	223.23
362.986	-129.02
363.201	-92.16
363.416	233.47
363.631	83.97
363.847	-124.93
364.062	-67.58
364.277	135.17
364.492	96.25
364.707	-65.53
364.922	-288.76
365.138	350.2
365.353	407.55
365.568	-153.6
365.783	-75.77
365.998	157.69
366.213	671.73
366.428	-110.59
366.643	126.97
366.858	325.63
367.073	296.96
367.288	18.43
367.503	-178.17
367.718	208.89
367.933	409.59
368.148	-204.8
368.363	108.54
368.578	73.73
368.793	505.85
369.008	-2.05
369.223	-83.97
369.438	282.62
369.653	483.32
369.868	-81.92
370.083	-149.5
370.298	260.09
370.513	491.51
370.728	167.93
370.943	-88.06
371.157	-26.62
371.372	559.1
371.587	-169.98
371.802	-112.64
372.017	192.51
372.232	495.61
372.446	63.49
372.661	-139.26
372.876	399.35
373.091	268.28
373.306	83.97
373.52	-219.13
373.735	2.05
373.95	557.05
374.165	-14.34
374.379	98.3
374.594	24.58
374.809	286.72
375.023	167.93
375.238	-92.16
375.453	380.92
375.667	-94.21
375.882	4.1
376.097	-77.82
376.311	198.65
376.526	88.06
376.741	-51.2
376.955	274.43
377.17	808.95
377.384	665.59
377.599	100.35
377.813	-137.21
378.028	647.16
378.242	212.99
378.457	94.21
378.672	-231.42
378.886	149.5
379.101	88.06
379.315	-229.37
379.53	55.3
379.744	419.83
379.958	303.1
380.173	0
380.387	18.43
380.602	253.95
380.816	-6.14
381.031	0
381.245	-65.53
381.459	362.49
381.674	2791.38
381.888	-34.82
382.103	256
382.317	-18.43
382.531	645.11
382.746	65.53
382.96	-34.82
383.174	8.19
383.388	696.31
383.603	266.24
383.817	-63.49
384.031	348.15
384.246	620.53
384.46	137.21
384.674	468.98
384.888	313.34
385.103	182.27
385.317	-32.77
385.531	155.65
385.745	538.62
385.959	507.9
386.174	49.15
386.388	-38.91
386.602	124.93
386.816	94.21
387.03	131.07
387.244	163.84
387.458	256
387.672	565.24
387.887	-22.53
388.101	-90.11
388.315	616.44
388.529	305.15
388.743	165.89
388.957	-43.01
389.171	595.96
389.385	63.49
389.599	176.13
389.813	327.67
390.027	380.92
390.241	829.43
390.455	100.35
390.669	176.13
390.883	239.61
391.097	761.84
391.311	247.8
391.525	112.64
391.738	569.34
391.952	448.51
392.166	157.69
392.38	106.49
392.594	614.39
392.808	571.38
393.022	169.98
393.236	204.8
393.449	491.51
393.663	423.93
393.877	-30.72
394.091	231.42
394.305	227.32
394.518	180.22
394.732	67.58
394.946	186.37
395.16	720.88
395.373	280.57
395.587	108.54
395.801	227.32
396.015	702.45
396.228	540.66
396.442	6.14
396.656	63.49
396.869	643.06
397.083	753.65
397.297	239.61
397.51	251.9
397.724	778.23
397.938	481.27
398.151	45.06
398.365	98.3
398.578	544.76
398.792	755.7
399.005	342.01
399.219	215.04
399.433	434.17
399.646	593.91
399.86	458.74
400.073	380.92
400.287	532.47
400.5	325.63
400.714	411.64
400.927	364.54
401.141	620.53
401.354	1470.44
401.567	573.43
401.781	137.21
401.994	767.99
402.208	954.35
402.421	249.85
402.635	264.19
402.848	356.35
403.061	776.18
403.275	473.08
403.488	145.41
403.701	837.62
403.915	745.46
404.128	448.51
404.341	364.54
404.555	542.71
404.768	440.31
404.981	532.47
405.195	344.06
405.408	1019.89
405.621	604.15
405.834	456.7
406.048	217.08
406.261	808.95
406.474	940.02
406.687	333.82
406.9	475.13
407.114	444.41
407.327	608.25
407.54	253.95
407.753	253.95
407.966	317.44
408.179	839.67
408.392	274.43
408.605	208.89
408.819	655.35
409.032	733.17
409.245	301.05
409.458	667.64
409.671	821.24
409.884	927.73
410.097	251.9
410.31	563.19
410.523	782.32
410.736	636.92
410.949	452.6
411.162	466.94
411.375	1075.18
411.588	892.91
411.801	661.49
412.014	454.65
412.227	595.96
412.44	520.18
412.653	387.07
412.865	649.21
413.078	854
413.291	813.04
413.504	643.06
413.717	327.67
413.93	804.85
414.143	456.7
414.356	532.47
414.568	268.28
414.781	837.62
414.994	815.09
415.207	600.05
415.42	489.46
415.632	925.68
415.845	1175.53
416.058	405.5
416.271	423.93
416.483	720.88
416.696	1187.82
416.909	524.28
417.121	585.72
417.334	894.96
417.547	1253.36
417.759	444.41
417.972	610.29
418.185	620.53
418.397	942.07
418.61	641.01
418.823	604.15
419.035	1210.35
419.248	849.91
419.46	645.11
419.673	731.12
419.885	989.17
420.098	780.28
420.311	636.92
420.523	511.99
420.736	989.17
420.948	847.86
421.161	679.93
421.373	485.37
421.586	927.73
421.798	845.81
422.01	497.66
422.223	835.57
422.435	757.75
422.648	952.31
422.86	739.32
423.073	671.73
423.285	1210.35
423.497	653.3
423.71	722.93
423.922	714.74
424.134	1126.38
424.347	1363.95
424.559	919.54
424.771	976.88
424.984	811
425.196	1116.14
425.408	720.88
425.621	694.26
425.833	1165.29
426.045	1177.58
426.257	681.97
426.47	843.76
426.682	1134.57
426.894	1095.66
427.106	833.52
427.318	872.43
427.531	978.93
427.743	1136.62
427.955	866.29
428.167	1210.35
428.379	1202.16
428.591	1105.9
428.804	1103.86
429.016	925.68
429.228	1085.42
429.44	1267.69
429.652	1077.23
429.864	739.32
430.076	1091.57
430.288	1077.23
430.5	1032.18
430.712	1007.6
430.924	1466.35
431.136	1222.64
431.348	884.72
431.56	862.19
431.772	1167.34
431.984	1069.04
432.196	964.59
432.408	972.79
432.62	1116.14
432.832	1355.76
433.044	1333.23
433.256	1204.21
433.468	1480.68
433.679	919.54
433.891	1011.7
434.103	1470.44
434.315	1644.52
434.527	1527.78
434.739	1175.53
434.95	1208.3
435.162	1587.18
435.374	1224.69
435.586	1261.55
435.798	1181.68
436.009	1136.62
436.221	1302.51
436.433	1230.83
436.645	1144.81
436.856	1183.73
437.068	1660.9
437.28	1261.55
437.491	1497.07
437.703	1615.85
437.915	1478.63
438.126	1304.56
438.338	1570.79
438.55	1548.26
438.761	1685.48
438.973	1245.16
439.184	1310.7
439.396	1556.46
439.608	1781.73
439.819	1124.33
440.031	1267.69
440.242	1753.06
440.454	1726.44
440.665	1363.95
440.877	1531.88
441.088	1775.59
441.3	1488.87
441.511	1175.53
441.723	1374.19
441.934	1562.6
442.146	1667.05
442.357	1540.07
442.569	1615.85
442.78	1628.14
442.991	2123.74
443.203	1705.96
443.414	1355.76
443.626	2019.3
443.837	1601.51
444.048	1349.61
444.26	1347.56
444.471	1626.09
444.682	2000.87
444.894	1288.17
445.105	1384.43
445.316	1988.58
445.528	1714.15
445.739	1689.57
445.95	1595.37
446.161	1744.87
446.373	2136.03
446.584	1591.27
446.795	1581.03
447.006	2025.44
447.217	2174.94
447.429	1372.14
447.64	1488.87
447.851	2152.42
448.062	1984.48
448.273	1425.39
448.484	1615.85
448.695	1884.13
448.907	1785.83
449.118	1755.11
449.329	1990.63
449.54	1816.55
449.751	1681.38
449.962	1759.21
450.173	1652.71
450.384	2211.81
450.595	2320.35
450.806	1839.08
451.017	1847.27
451.228	2201.57
451.439	2172.89
451.65	1884.13
451.861	1521.64
452.072	1894.37
452.283	1920.99
452.494	2123.74
452.705	1783.78
452.915	2389.98
453.126	2195.42
453.337	1925.09
453.548	1959.91
453.759	2402.27
453.97	2719.7
454.181	2217.95
454.391	2023.39
454.602	2283.49
454.813	2279.39
455.024	2138.08
455.235	2080.74
455.445	2201.57
455.656	2492.38
455.867	2369.5
456.078	2158.56
456.288	2193.37
456.499	2471.9
456.71	2115.55
456.921	2265.05
457.131	2502.62
457.342	2508.76
457.553	2244.57
457.763	2136.03
457.974	2633.69
458.184	2529.24
458.395	2287.58
458.606	2281.44
458.816	2807.77
459.027	2975.7
459.237	2531.29
459.448	2361.31
459.659	3000.27
459.869	3194.83
460.08	2209.76
460.29	2709.46
460.501	3182.54
460.711	2639.83
460.922	2447.32
461.132	2496.47
461.343	3495.88
461.553	2351.07
461.764	2566.1
461.974	2627.54
462.184	2957.27
462.395	3088.34
462.605	2688.98
462.816	2623.45
463.026	3117.01
463.236	3145.68
463.447	2856.92
463.657	2856.92
463.867	3454.92
464.078	3207.12
464.288	3043.28
464.498	3030.99
464.709	3248.08
464.919	3147.73
465.129	3114.96
465.339	3039.19
465.55	3340.24
465.76	3680.2
465.97	3018.71
466.18	3012.56
466.391	3667.91
466.601	3512.27
466.811	3297.23
467.021	3278.8
467.231	3706.82
467.441	3887.04
467.651	3465.16
467.862	3194.83
468.072	3657.67
468.282	4110.27
468.492	3456.97
468.702	3651.53
468.912	3848.13
469.122	4356.03
469.332	3913.67
469.542	3565.51
469.752	4224.96
469.962	4196.29
470.172	3801.03
470.382	3944.39
470.592	4372.41
470.802	4433.85
471.012	4122.56
471.222	4196.29
471.432	4632.51
471.642	4640.7
471.852	4341.69
472.062	4138.94
472.272	4483
472.482	4313.02
472.691	4200.38
472.901	4284.35
473.111	4691.9
473.321	5349.29
473.531	4462.52
473.741	4728.76
473.95	4984.76
474.16	4904.89
474.37	4687.8
474.58	4831.16
474.79	5584.81
474.999	5418.93
475.209	4904.89
475.419	5156.79
475.628	5398.45
475.838	5609.39
476.048	5359.53
476.258	5117.87
476.467	5869.48
476.677	5683.11
476.886	5726.12
477.096	5670.83
477.306	5597.1
477.515	5978.02
477.725	5670.83
477.935	5832.61
478.144	6330.27
478.354	5765.03
478.563	6080.42
478.773	5926.82
478.982	6322.08
479.192	6698.91
479.401	6281.12
479.611	6117.28
479.82	6236.06
480.03	6594.46
480.239	6086.56
480.449	6338.46
480.658	6963.09
480.868	6705.05
481.077	6537.12
481.287	6672.28
481.496	7024.53
481.705	7323.54
481.915	6891.41
482.124	7104.4
482.333	7204.75
482.543	7468.94
482.752	7217.04
482.961	7069.59
483.171	7573.39
483.38	7407.5
483.589	7440.27
483.799	7352.21
484.008	7528.33
484.217	7966.6
484.426	7393.17
484.636	7550.86
484.845	8042.37
485.054	7649.16
485.263	8195.97
485.472	7954.31
485.682	8599.42
485.891	8247.17
486.1	7681.93
486.309	8099.72
486.518	8509.31
486.727	8851.32
486.936	8103.81
487.146	8210.31
487.355	8888.18
487.564	8421.25
487.773	8546.17
487.982	8433.54
488.191	8632.19
488.4	8888.18
488.609	8617.85
488.818	8722.3
489.027	9664.36
489.236	9441.14
489.445	8955.77
489.654	8818.55
489.863	9531.25
490.072	9375.6
490.281	9494.38
490.49	9160.56
490.698	9910.12
490.907	9838.44
491.116	9604.97
491.325	9340.79
491.534	9996.14
491.743	9758.57
491.952	9557.87
492.16	9676.65
492.369	9848.68
492.578	10162.02
492.787	9865.07
492.996	9684.84
493.204	9891.69
493.413	10553.18
493.622	9858.92
493.831	9678.7
494.039	10637.15
494.248	10217.32
494.457	10248.04
494.665	10123.11
494.874	10598.24
495.083	11034.46
495.291	10446.69
495.5	10409.83
495.709	10835.8
495.917	11026.26
496.126	10628.96
496.335	10633.05
496.543	10901.34
496.752	11020.12
496.96	11120.47
497.169	10968.92
497.377	11206.49
497.586	11439.95
497.794	11038.55
498.003	10825.56
498.211	11147.09
498.42	11736.91
498.628	11353.94
498.837	11177.81
499.045	11519.82
499.254	11695.95
499.462	11251.54
499.671	11407.19
499.879	11931.47
500.087	12146.5
500.296	11476.82
500.504	11695.95
500.713	11786.06
500.921	12631.87
501.129	11597.65
501.338	12019.53
501.546	12089.16
501.754	12302.15
501.962	11808.59
502.171	11915.08
502.379	12400.45
502.587	12705.6
502.795	12087.11
503.004	12085.06
503.212	12457.79
503.42	12812.09
503.628	12097.35
503.837	12447.55
504.045	12803.9
504.253	13176.63
504.461	12543.81
504.669	12314.44
504.877	13041.47
505.085	13299.51
505.294	12664.64
505.502	12914.49
505.71	13023.03
505.918	13190.97
506.126	12480.32
506.334	12638.02
506.542	13145.91
506.75	13104.95
506.958	13068.09
507.166	13248.31
507.374	13145.91
507.582	13668.14
507.79	13506.35
507.998	12996.41
508.206	13604.66
508.414	13600.56
508.622	13137.72
508.83	13043.51
509.037	14090.02
509.245	13299.51
509.453	13266.74
509.661	13520.69
509.869	13977.39
510.077	13586.22
510.285	13672.24
510.492	13428.53
510.7	14516
510.908	13549.36
511.116	13748.01
511.324	13707.05
511.531	13874.99
511.739	14153.51
511.947	14012.2
512.155	13961
512.362	14448.42
512.57	13924.14
512.778	13795.12
512.985	13967.15
513.193	14669.6
513.401	14776.09
513.608	14266.15
513.816	14239.53
514.024	14692.13
514.231	14735.14
514.439	14292.77
514.646	14491.43
514.854	14714.66
515.061	14864.16
515.269	14475.04
515.477	14622.5
515.684	14726.94
515.892	15177.5
516.099	14550.82
516.307	14450.47
516.514	15329.05
516.722	15283.99
516.929	14853.92
517.136	14649.12
517.344	15081.24
517.551	15144.73
517.759	14720.8
517.966	15001.37
518.173	14995.23
518.381	15302.42
518.588	15068.95
518.796	15021.85
519.003	15664.91
519.21	15613.71
519.418	14964.51
519.625	15456.02
519.832	15394.58
520.039	15853.33
520.247	15298.33
520.454	15709.97
520.661	15902.48
520.868	15728.4
521.076	15453.97
521.283	15593.23
521.49	16281.35
521.697	16090.89
521.904	15554.32
522.112	15781.65
522.319	16224.01
522.526	15884.05
522.733	15732.5
522.94	15818.51
523.147	16240.39
523.354	16310.02
523.561	16058.12
523.768	16025.36
523.975	16758.53
524.183	16541.44
524.39	16172.81
524.597	16099.08
524.804	16391.94
525.011	16582.4
525.218	16137.99
525.425	16307.98
525.632	16893.69
525.838	16549.64
526.045	16398.09
526.252	16408.33
526.459	17907.44
526.666	17596.15
526.873	16563.97
527.08	16596.74
527.287	17489.65
527.494	17116.92
527.701	16897.79
527.907	16613.12
528.114	17184.51
528.321	16893.69
528.528	17018.62
528.735	17039.1
528.941	17315.58
529.148	16996.09
529.355	16969.47
529.562	16901.89
529.768	17819.38
529.975	17157.88
530.182	17622.77
530.388	17360.63
530.595	17800.94
530.802	17374.97
531.008	17739.51
531.215	17751.79
531.422	18411.24
531.628	18568.93
531.835	17612.53
532.042	17870.58
532.248	17872.62
532.455	18073.32
532.661	17704.69
532.868	17723.12
533.074	18284.26
533.281	18620.13
533.487	17858.29
533.694	17987.31
533.9	18341.61
534.107	18669.28
534.313	17745.65
534.52	17864.43
534.726	18745.06
534.933	19072.73
535.139	18288.36
535.345	17932.01
535.552	18503.4
535.758	18673.38
535.965	18650.85
536.171	18413.29
536.377	19152.6
536.584	19175.13
536.79	18626.28
536.996	18450.15
537.203	19019.49
537.409	19019.49
537.615	18661.09
537.821	19009.25
538.028	19599.06
538.234	19199.71
538.44	19074.78
538.646	18984.67
538.853	19625.68
539.059	19181.28
539.265	19316.44
539.471	18906.85
539.677	19676.88
539.883	19513.05
540.09	19140.32
540.296	20033.23
540.502	19594.96
540.708	19394.26
540.914	19828.43
541.12	19492.57
541.326	20078.29
541.532	20133.58
541.738	20233.93
541.944	19814.1
542.15	20334.28
542.356	19992.27
542.562	19846.87
542.768	19971.79
542.974	20821.7
543.18	20713.16
543.386	19914.45
543.592	20043.47
543.798	20817.6
544.004	20569.8
544.21	20389.58
544.415	20037.33
544.621	20473.54
544.827	20770.5
545.033	20379.34
545.239	20575.94
545.445	20786.88
545.651	20758.21
545.856	20317.9
546.062	20872.9
546.268	20549.32
546.474	20821.7
546.679	20266.7
546.885	21077.69
547.091	20936.38
547.297	21550.78
547.502	20670.15
547.708	20635.33
547.914	20520.65
548.119	21724.85
548.325	20702.92
548.531	20817.6
548.736	21679.8
548.942	21286.59
549.147	20700.87
549.353	21298.87
549.559	21350.07
549.764	21378.75
549.97	21096.13
550.175	21186.24
550.381	21663.41
550.586	21163.71
550.792	21307.07
550.997	21313.21
551.203	21472.95
551.408	21747.38
551.614	21151.42
551.819	21431.99
552.025	22337.2
552.23	22232.75
552.435	21522.1
552.641	22275.76
552.846	22007.47
553.052	22476.46
553.257	21714.61
553.462	22212.27
553.668	21702.32
553.873	22412.97
554.078	22134.45
554.283	22019.76
554.489	22593.19
554.694	22206.13
554.899	21905.07
555.105	22337.2
555.31	22585
555.515	22904.48
555.72	22447.79
555.925	22281.9
556.131	22630.05
556.336	22294.19
556.541	22419.11
556.746	22318.76
556.951	22886.05
557.156	22705.83
557.361	22644.39
557.567	22750.88
557.772	23367.32
557.977	23377.56
558.182	22503.08
558.387	22558.38
558.592	22998.69
558.797	23434.91
559.002	22836.9
559.207	23215.77
559.412	23066.27
559.617	23258.78
559.822	22898.34
560.027	22773.41
560.232	22986.4
560.437	23482.01
560.642	22910.63
560.847	23178.91
561.051	22986.4
561.256	23404.19
561.461	23484.06
561.666	22939.3
561.871	23477.91
562.076	23772.82
562.281	23357.08
562.485	22877.86
562.69	23760.53
562.895	23600.79
563.1	23684.76
563.305	23314.08
563.509	23877.27
563.714	24239.76
563.919	23369.37
564.123	23492.25
564.328	23674.52
564.533	24184.46
564.737	23324.32
564.942	23428.76
565.147	24331.92
565.351	24491.66
565.556	23654.04
565.761	23746.2
565.965	23969.43
566.17	23832.21
566.374	23881.36
566.579	23826.07
566.784	24125.07
566.988	24055.44
567.193	23867.03
567.397	23950.99
567.602	23918.23
567.806	24041.11
568.011	24118.93
568.215	24069.78
568.42	24317.58
568.624	24381.07
568.828	23895.7
569.033	24366.73
569.237	24702.6
569.442	24520.33
569.646	24012.43
569.85	24534.67
570.055	24671.88
570.259	24850.05
570.463	24579.72
570.668	24600.2
570.872	24555.15
571.076	24710.79
571.281	24557.19
571.485	24665.74
571.689	24927.88
571.893	25237.12
572.098	24852.1
572.302	24700.55
572.506	25134.72
572.71	24993.41
572.914	24626.82
573.119	24770.18
573.323	25269.89
573.527	25306.75
573.731	25058.95
573.935	25083.52
574.139	25153.15
574.343	24632.97
574.547	24905.35
574.751	25079.43
574.955	25785.97
575.159	25652.86
575.364	25065.09
575.568	24888.96
575.772	25306.75
575.976	25681.53
576.18	25235.07
576.383	25296.51
576.587	25941.62
576.791	25728.63
576.995	25280.13
577.199	25194.11
577.403	25953.91
577.607	26132.08
577.811	25597.56
578.015	25564.79
578.219	25822.84
578.422	26146.42
578.626	26021.49
578.83	25896.56
579.034	25962.1
579.238	26347.12
579.442	25702.01
579.645	25951.86
579.849	25976.44
580.053	26523.24
580.257	25927.28
580.46	26115.7
580.664	26392.17
580.868	26539.63
581.071	26400.37
581.275	26642.03
581.479	25970.29
581.682	26480.24
581.886	26160.75
582.09	26386.03
582.293	26449.52
582.497	26814.05
582.7	26543.72
582.904	26111.6
583.107	26326.64
583.311	26289.77
583.515	26578.54
583.718	26492.52
583.922	27022.95
584.125	27477.6
584.329	26478.19
584.532	26553.96
584.735	27498.08
584.939	27055.72
585.142	26545.77
585.346	26422.89
585.549	27565.66
585.753	27008.61
585.956	26857.06
586.159	27010.66
586.363	27893.33
586.566	27285.09
586.769	26826.34
586.973	26816.1
587.176	27471.45
587.379	27582.04
587.582	27328.09
587.786	27440.73
587.989	27426.4
588.192	27942.49
588.395	27299.42
588.599	27592.28
588.802	27866.71
589.005	27680.35
589.208	27434.59
589.411	27702.87
589.615	27747.93
589.818	28091.99
590.021	27788.89
590.224	27483.74
590.427	27917.91
590.63	27989.59
590.833	27782.74
591.036	27690.59
591.239	28110.42
591.442	27844.18
591.645	27792.98
591.848	28485.2
592.051	28339.79
592.254	28395.09
592.457	28188.24
592.66	28122.71
592.863	28354.13
593.066	28550.73
593.269	28169.81
593.472	28153.43
593.675	28493.39
593.878	28687.95
594.081	28354.13
594.284	28210.77
594.486	28931.65
594.689	28808.78
594.892	28098.13
595.095	28425.81
595.298	28829.26
595.5	28556.88
595.703	28644.94
595.906	28724.81
596.109	29244.99
596.311	29451.84
596.514	28563.02
596.717	28907.08
596.92	29544
597.122	29132.36
597.325	28501.58
597.528	28581.45
597.73	29492.8
597.933	29019.72
598.136	29185.6
598.338	28687.95
598.541	29218.37
598.743	29568.57
598.946	28909.13
599.148	29136.45
599.351	29793.85
599.554	29812.28
599.756	29054.53
599.959	29468.22
600.161	30021.17
600.363	30359.09
600.566	29537.85
600.768	29427.26
600.971	30123.57
601.173	29972.02
601.376	29083.2
601.578	29685.31
601.78	29849.14
601.983	30219.83
602.185	29283.91
602.388	29863.48
602.59	29918.78
602.792	29685.31
602.995	29740.6
603.197	29744.7
603.399	30189.11
603.601	29732.41
603.804	29744.7
604.006	30025.27
604.208	30146.1
604.41	29634.11
604.613	30193.2
604.815	29673.02
605.017	30744.11
605.219	30002.74
605.421	30129.72
605.623	29869.62
605.826	30572.08
606.028	30838.31
606.23	29955.64
606.432	29750.84
606.634	30930.47
606.836	30524.97
607.038	30191.16
607.24	30500.4
607.442	30174.77
607.644	30619.18
607.846	30035.51
608.048	30168.63
608.25	30490.16
608.452	30244.4
608.654	30350.9
608.856	29820.47
609.058	30465.58
609.26	30774.83
609.462	30275.12
609.664	30346.8
609.866	30787.11
610.067	30553.65
610.269	30486.06
610.471	30326.32
610.673	30297.65
610.875	30742.06
611.077	29820.47
611.278	30453.3
611.48	30811.69
611.682	30930.47
611.884	30398
612.085	30447.15
612.287	30768.68
612.489	30705.2
612.69	30193.2
612.892	30567.98
613.094	31065.64
613.295	30832.17
613.497	30320.18
613.699	30340.66
613.9	31487.52
614.102	31043.11
614.304	30684.72
614.505	29929.02
614.707	30881.32
614.908	30682.67
615.11	30006.84
615.311	30262.83
615.513	30895.66
615.714	30987.82
615.916	30223.92
616.117	30553.65
616.319	31075.88
616.52	31079.97
616.722	30533.17
616.923	30471.73
617.124	31153.7
617.326	30864.94
617.527	30697
617.729	31032.87
617.93	30832.17
618.131	31100.45
618.333	30166.58
618.534	30629.42
618.735	30832.17
618.937	31239.72
619.138	30535.21
619.339	30778.92
619.54	31182.37
619.742	31153.7
619.943	30854.7
620.144	30744.11
620.345	31151.65
620.546	31174.18
620.748	31266.34
620.949	30604.84
621.15	31094.31
621.351	31079.97
621.552	30668.33
621.753	30449.2
621.954	30830.12
622.155	31184.42
622.356	30322.23
622.558	31223.33
622.759	30950.95
622.96	31616.54
623.161	30842.41
623.362	30852.65
623.563	31421.98
623.764	31088.17
623.965	30930.47
624.166	31546.91
624.366	30967.34
624.567	31229.48
624.768	31053.35
624.969	30615.08
625.17	31032.87
625.371	31764
625.572	31280.67
625.773	30832.17
625.973	31589.92
626.174	31817.24
626.375	31307.3
626.576	31407.65
626.777	31530.53
626.977	31811.1
627.178	31409.7
627.379	31096.36
627.58	31227.43
627.78	31290.91
627.981	31053.35
628.182	31585.82
628.382	31798.81
628.583	31551.01
628.784	30953
628.984	31542.81
629.185	31845.91
629.386	31735.32
629.586	31905.31
629.787	31536.67
629.987	31624.73
630.188	31680.03
630.388	31448.61
630.589	31340.07
630.79	32198.16
630.99	31878.68
631.191	31667.74
631.391	31321.63
631.591	31809.05
631.792	32044.57
631.992	31747.61
632.193	31477.28
632.393	31942.17
632.594	32026.14
632.794	31239.72
632.994	31639.07
633.195	31688.22
633.395	32183.83
633.595	31616.54
633.796	31735.32
633.996	32214.55
634.196	32265.75
634.397	31442.46
634.597	32044.57
634.797	32179.73
634.997	32585.23
635.198	32091.67
635.398	31446.56
635.598	32292.37
635.798	32574.99
635.998	31913.5
636.199	31317.54
636.399	31856.15
636.599	31657.5
636.799	31747.61
636.999	31897.11
637.199	32597.52
637.399	31929.88
637.599	31985.18
637.799	31692.32
637.999	32265.75
638.199	32800.27
638.399	31573.53
638.599	31905.31
638.799	32826.89
638.999	32994.82
639.199	32396.82
639.399	32493.07
639.599	32957.96
639.799	32519.7
639.999	31872.54
640.199	32101.91
640.399	32478.74
640.599	31585.82
640.799	32429.59
640.998	32605.71
641.198	32767.5
641.398	32534.03
641.598	32282.13
641.798	32579.09
641.997	33467.91
642.197	32409.11
642.397	32415.25
642.597	32513.55
642.796	32800.27
642.996	32931.34
643.196	32587.28
643.395	32482.83
643.595	32884.23
643.795	32120.34
643.994	32611.85
644.194	32620.05
644.394	32712.2
644.593	32577.04
644.793	32448.02
644.992	32783.88
645.192	33041.93
645.392	32644.62
645.591	32892.43
645.791	33170.95
645.99	33091.08
646.19	33142.28
646.389	32851.47
646.589	33134.09
646.788	33314.31
646.987	33089.03
647.187	33084.94
647.386	32933.39
647.586	33095.18
647.785	33424.9
647.984	32757.26
648.184	32861.71
648.383	33158.66
648.582	32728.59
648.782	33068.55
648.981	33142.28
649.18	33175.05
649.38	33412.61
649.579	33134.09
649.778	33117.7
649.977	33218.05
650.177	33447.43
650.376	32755.21
650.575	32873.99
650.774	33674.75
650.973	33293.83
651.173	32669.2
651.372	32996.87
651.571	33164.81
651.77	33347.08
651.969	33373.7
652.168	32843.27
652.367	33146.37
652.566	33361.41
652.765	33322.5
652.964	33752.57
653.163	33854.97
653.362	33283.59
653.561	33072.65
653.76	33392.13
653.959	33334.79
654.158	34057.72
654.357	33459.71
654.556	33191.43
654.755	34088.44
654.954	33877.5
655.153	33445.38
655.352	33437.19
655.551	33953.27
655.749	33455.62
655.948	33332.74
656.147	33775.1
656.346	33971.71
656.545	33639.93
656.743	33486.34
656.942	33766.91
657.141	33920.51
657.34	33287.68
657.538	33633.79
657.737	33578.5
657.936	33850.88
658.135	33758.72
658.333	33199.62
658.532	33789.44
658.731	34041.34
658.929	33840.64
659.128	33500.67
659.326	33414.66
659.525	34235.89
659.724	33738.24
659.922	33369.6
660.121	33488.39
660.319	33713.66
660.518	33592.83
660.716	33451.52
660.915	33734.14
661.113	34151.93
661.312	33353.22
661.51	33955.32
661.709	33613.31
661.907	34004.47
662.105	34545.14
662.304	33338.88
662.502	33652.22
662.701	34092.54
662.899	33619.46
663.097	33936.89
663.296	33891.83
663.494	34536.94
663.692	34057.72
663.891	34043.38
664.089	33400.32
664.287	33781.24
664.485	34207.22
664.684	33785.34
664.882	33867.26
665.08	33846.78
665.278	34184.69
665.476	33840.64
665.675	34379.25
665.873	34293.24
666.071	34014.71
666.269	33373.7
666.467	33932.79
666.665	34233.85
666.863	33773.05
667.061	33607.17
667.259	33797.63
667.457	34053.62
667.655	34016.76
667.853	33306.12
668.051	33975.8
668.249	33484.29
668.447	34151.93
668.645	33719.81
668.843	34082.3
669.041	34311.67
669.239	33863.16
669.437	33922.55
669.635	33836.54
669.833	33736.19
670.031	34131.45
670.229	33756.67
670.426	33590.78
670.624	34061.82
670.822	33592.83
671.02	33744.38
671.218	33873.4
671.415	33537.54
671.613	33689.09
671.811	33584.64
672.009	33668.61
672.206	34018.81
672.404	33693.18
672.602	33388.03
672.799	33633.79
672.997	33859.07
673.195	33750.53
673.392	33811.96
673.59	33351.17
673.788	33515.01
673.985	33191.43
674.183	33218.05
674.38	33242.63
674.578	33836.54
674.775	33588.74
674.973	33287.68
675.17	33216.01
675.368	33721.85
675.565	33562.11
675.763	33295.88
675.96	33777.15
676.158	33670.65
676.355	33203.72
676.553	33721.85
676.75	33299.97
676.947	33285.64
677.145	33666.56
677.342	33394.18
677.539	33187.33
677.737	33709.57
677.934	33814.01
678.131	33408.51
678.329	33437.19
678.526	33650.17
678.723	33623.55
678.92	33375.75
679.118	33375.75
679.315	33048.07
679.512	33801.72
679.709	33314.31
679.906	32976.39
680.104	33838.59
680.301	33369.6
680.498	33093.13
680.695	32976.39
680.892	33412.61
681.089	33209.86
681.286	33046.02
681.483	32423.44
681.68	33101.32
681.877	33216.01
682.075	32695.82
682.272	32898.57
682.469	33025.54
682.665	33144.33
682.862	32675.34
683.059	32542.22
683.256	33103.37
683.453	33160.71
683.65	32978.44
683.847	33281.54
684.044	32589.33
684.241	32736.78
684.438	33195.53
684.635	32847.37
684.831	33619.46
685.028	33064.46
685.225	32331.28
685.422	33168.9
685.619	33168.9
685.815	32939.53
686.012	32984.58
686.209	32529.94
686.405	32306.71
686.602	33179.14
686.799	32226.84
686.996	32640.53
687.192	32398.87
687.389	32757.26
687.586	32083.48
687.782	32787.98
687.979	33488.39
688.175	32986.63
688.372	32421.39
688.568	32634.38
688.765	32413.2
688.962	32706.06
689.158	32210.45
689.355	32108.05
689.551	32777.74
689.748	32316.95
689.944	32228.88
690.14	32355.86
690.337	32343.57
690.533	32558.61
690.73	31796.76
690.926	32429.59
691.123	32077.33
691.319	32376.34
691.515	32060.95
691.712	32261.65
691.908	32343.57
692.104	32294.42
692.301	32251.41
692.497	31798.81
692.693	32546.32
692.889	32241.17
693.086	31958.55
693.282	31856.15
693.478	32073.24
693.674	32675.34
693.87	31972.89
694.067	31856.15
694.263	31981.08
694.459	31929.88
694.655	32343.57
694.851	32349.71
695.047	32454.16
695.243	32302.61
695.439	31821.34
695.635	31876.63
695.831	31948.31
696.027	32351.76
696.224	31743.52
696.42	32243.22
696.615	32507.41
696.811	32493.07
697.007	31602.21
697.203	31587.87
697.399	32048.66
697.595	31811.1
697.791	31446.56
697.987	31540.77
698.183	31641.12
698.379	31249.96
698.575	31798.81
698.77	31684.12
698.966	32409.11
699.162	32136.73
699.358	31768.09
699.554	31530.53
699.749	32187.92
699.945	31776.28
700.141	31718.94
700.337	31602.21
700.532	31432.22
700.728	31278.63
700.924	31421.98
701.119	31135.27
701.315	31682.08
701.511	31667.74
701.706	31720.99
701.902	31153.7
702.097	31469.09
702.293	31933.98
702.489	31245.86
702.684	30993.96
702.88	31417.89
703.075	31454.75
703.271	31110.69
703.466	31028.77
703.662	31542.81
703.857	31643.17
704.053	31168.04
704.248	31434.27
704.443	31616.54
704.639	31989.27
704.834	31014.44
705.03	31424.03
705.225	31305.25
705.42	31546.91
705.616	30973.48
705.811	30887.46
706.006	31176.23
706.202	31133.22
706.397	31061.54
706.592	30977.58
706.787	30828.07
706.983	31082.02
707.178	31620.64
707.373	31163.94
707.568	31096.36
707.763	31209
707.959	31389.22
708.154	31301.15
708.349	31198.76
708.544	31430.18
708.739	30948.9
708.934	30674.48
709.129	31358.5
709.324	31065.64
709.519	31014.44
709.714	30527.02
709.909	31378.98
710.104	30916.14
710.299	30625.32
710.494	30854.7
710.689	30998.05
710.884	30877.22
711.079	30713.39
711.274	30731.82
711.469	31100.45
711.664	31075.88
711.859	30744.11
712.054	30920.23
712.249	30805.55
712.443	31008.29
712.638	30826.03
712.833	30654
713.028	30445.1
713.223	30830.12
713.417	30629.42
713.612	30328.37
713.807	31114.79
714.002	31233.57
714.196	30719.53
714.391	30232.11
714.586	30672.43
714.78	30543.41
714.975	30201.4
715.17	30199.35
715.364	30582.32
715.559	30592.56
715.754	29871.67
715.948	30166.58
716.143	30803.5
716.337	30283.31
716.532	30686.76
716.726	30363.18
716.921	30639.66
717.115	30811.69
717.31	30131.76
717.504	31108.65
717.699	30279.22
717.893	30283.31
718.088	29843
718.282	30211.63
718.476	30176.82
718.671	30031.41
718.865	29804.09
719.059	29992.5
719.254	30127.67
719.448	30105.14
719.642	29910.58
719.837	29277.76
720.031	30012.98
720.225	30146.1
720.419	29967.93
720.614	29427.26
720.808	30133.81
721.002	29875.77
721.196	29869.62
721.39	29498.94
721.585	29836.86
721.779	29845.05
721.973	29572.67
722.167	29369.92
722.361	29615.68
722.555	30336.56
722.749	29382.21
722.943	29619.77
723.137	29285.95
723.331	30017.08
723.525	29369.92
723.719	29480.51
723.913	29832.76
724.107	29914.68
724.301	29292.1
724.495	29019.72
724.689	29943.35
724.883	29621.82
725.077	29120.07
725.271	29175.36
725.465	29654.59
725.659	29199.94
725.853	29077.06
726.046	29201.99
726.24	28874.31
726.434	29564.48
726.628	29183.55
726.822	28943.94
727.015	30027.32
727.209	28956.23
727.403	29152.84
727.596	28808.78
727.79	29734.46
727.984	29802.04
728.177	29402.69
728.371	29306.43
728.565	29431.36
728.758	29390.4
728.952	29277.76
729.146	29238.85
729.339	29673.02
729.533	29214.27
729.726	29281.86
729.92	28902.98
730.113	29722.17
730.307	29900.34
730.5	29423.17
730.694	29005.38
730.887	29091.4
731.081	29515.33
731.274	28741.19
731.468	28878.41
731.661	29412.93
731.854	29386.3
732.048	29417.02
732.241	29034.05
732.435	29021.77
732.628	29625.92
732.821	29062.72
733.014	29158.98
733.208	29570.62
733.401	29496.89
733.594	28902.98
733.788	29103.68
733.981	29609.53
734.174	29544
734.367	28960.33
734.56	29072.96
734.754	29427.26
734.947	29683.26
735.14	29101.64
735.333	29464.13
735.526	29281.86
735.719	28796.49
735.912	28585.55
736.105	28657.23
736.298	29204.03
736.491	28409.42
736.684	28536.4
736.877	28870.22
737.07	28694.09
737.263	29290.05
737.456	28853.83
737.649	28689.99
737.842	28857.93
738.035	29161.03
738.228	28411.47
738.421	28941.89
738.614	29240.9
738.807	29414.98
739	28407.37
739.192	28632.65
739.385	28864.07
739.578	28823.11
739.771	28878.41
739.964	28343.89
740.156	29077.06
740.349	28878.41
740.542	28945.99
740.735	28374.61
740.927	28520.01
741.12	28536.4
741.313	28409.42
741.505	28520.01
741.698	28646.99
741.891	28411.47
742.083	28409.42
742.276	28581.45
742.468	28624.46
742.661	28599.88
742.854	28374.61
743.046	28245.58
743.239	28849.74
743.431	28700.23
743.624	28393.04
743.816	28145.23
744.009	28413.52
744.201	28714.57
744.393	28315.22
744.586	28223.06
744.778	28751.43
744.971	28577.36
745.163	28229.2
745.355	28483.15
745.548	28251.73
745.74	28229.2
745.932	28374.61
746.125	28403.28
746.317	29011.53
746.509	28249.68
746.702	28347.98
746.894	28251.73
747.086	28132.95
747.278	28499.53
747.471	28638.79
747.663	28202.58
747.855	28323.41
748.047	28485.2
748.239	28536.4
748.431	28460.62
748.623	28661.32
748.815	28597.84
749.008	27962.97
749.2	28044.88
749.392	28511.82
749.584	28511.82
749.776	28595.79
749.968	28141.14
750.16	28956.23
750.352	28061.27
750.544	28118.61
750.736	28134.99
750.928	28337.74
751.12	28034.64
751.311	27448.93
751.503	28231.25
751.695	27919.96
751.887	27934.29
752.079	27590.23
752.271	27948.63
752.463	28849.74
752.654	28188.24
752.846	27737.69
753.038	27706.97
753.23	28005.97
753.421	28425.81
753.613	27461.21
753.805	28229.2
753.997	27946.58
754.188	28290.64
754.38	27450.97
754.572	27807.32
754.763	28143.19
754.955	27870.81
755.146	27571.8
755.338	27436.64
755.53	27768.41
755.721	27764.31
755.913	27373.15
756.104	27141.73
756.296	27739.74
756.487	27956.82
756.679	27317.86
756.87	26963.56
757.062	27250.27
757.253	27833.94
757.445	27016.8
757.636	27428.45
757.827	27291.23
758.019	27811.42
758.21	26930.79
758.401	27381.34
758.593	27717.21
758.784	27704.92
758.975	26588.78
759.167	26908.26
759.358	27313.76
759.549	27285.09
759.74	26930.79
759.932	26775.14
760.123	27377.25
760.314	26893.93
760.505	27194.98
760.696	26416.75
760.888	27350.62
761.079	26990.18
761.27	26545.77
761.461	26306.16
761.652	26953.32
761.843	26799.72
762.034	26572.39
762.225	26736.23
762.416	26388.08
762.607	26271.34
762.798	26054.26
762.989	26302.06
763.18	27264.61
763.371	26244.72
763.562	26275.44
763.753	26211.95
763.944	26615.4
764.135	26662.51
764.326	26426.99
764.517	26095.22
764.708	26478.19
764.899	26279.53
765.089	25982.58
765.28	26166.9
765.471	26275.44
765.662	26117.75
765.853	26080.88
766.043	25476.73
766.234	26216.05
766.425	26089.07
766.615	26031.73
766.806	25587.32
766.997	26658.41
767.187	26087.03
767.378	25646.71
767.569	25304.7
767.759	26134.13
767.95	25558.65
768.141	25618.04
768.331	25437.82
768.522	25665.14
768.712	25851.51
768.903	25826.93
769.093	25030.27
769.284	25773.69
769.474	25448.06
769.665	24819.33
769.855	25364.09
770.046	25804.41
770.236	25400.96
770.426	25388.67
770.617	25239.17
770.807	25304.7
770.998	25519.74
771.188	25306.75
771.378	24784.52
771.569	25341.57
771.759	25583.23
771.949	24778.37
772.139	24751.75
772.33	24583.82
772.52	25497.21
772.71	25382.52
772.9	24499.85
773.09	25081.47
773.281	25392.76
773.471	24331.92
773.661	24495.75
773.851	25110.14
774.041	24772.23
774.231	24577.67
774.421	24663.69
774.611	24907.4
774.802	24227.47
774.992	24231.57
775.182	24471.18
775.372	24657.54
775.562	24827.53
775.752	24526.47
775.942	24274.57
776.131	25015.94
776.321	24737.41
776.511	24551.05
776.701	24424.08
776.891	24426.12
777.081	24108.69
777.271	24229.52
777.461	23998.1
777.651	24385.16
777.84	24471.18
778.03	24049.3
778.22	23846.55
778.41	24383.12
778.599	24032.91
778.789	23895.7
778.979	23957.14
779.169	24319.63
779.358	23842.45
779.548	24282.77
779.738	23643.8
779.927	23869.08
780.117	23867.03
780.307	23363.23
780.496	23459.48
780.686	23924.37
780.875	24237.71
781.065	23533.21
781.254	23830.16
781.444	23547.54
781.633	23891.6
781.823	23459.48
782.012	23426.71
782.202	23393.95
782.391	23486.11
782.581	23187.1
782.77	23590.55
782.96	23656.09
783.149	23023.26
783.338	23361.18
783.528	22875.81
783.717	23713.43
783.906	23518.87
784.096	23262.88
784.285	23312.03
784.474	23002.78
784.663	23168.67
784.853	22847.14
785.042	22965.92
785.231	23000.74
785.42	23668.37
785.61	22832.8
785.799	22621.86
785.988	23289.5
786.177	22881.95
786.366	22533.8
786.555	23101.09
786.744	23213.73
786.933	23029.41
787.122	22644.39
787.312	22787.75
787.501	22804.13
787.69	22814.37
787.879	22650.53
788.068	22404.78
788.257	22378.15
788.445	22455.98
788.634	22541.99
788.823	22064.82
789.012	23477.91
789.201	22810.28
789.39	22400.68
789.579	22185.65
789.768	22609.57
789.957	22566.57
790.145	22322.86
790.334	22359.72
790.523	22257.32
790.712	22269.61
790.9	22417.07
791.089	22083.25
791.278	22435.5
791.467	22693.54
791.655	22353.58
791.844	22236.84
792.033	22060.72
792.221	21968.56
792.41	22062.77
792.599	21444.28
792.787	22498.98
792.976	22367.91
793.164	21685.94
793.353	21966.51
793.541	22329
793.73	22259.37
793.918	21927.6
794.107	21720.76
794.295	22032.05
794.484	22159.02
794.672	21622.45
794.861	21841.59
795.049	21999.28
795.238	21847.73
795.426	21475
795.614	21601.97
795.803	22005.42
795.991	22249.13
796.179	21446.33
796.368	21540.54
796.556	22116.01
796.744	21317.31
796.932	21337.79
797.121	21194.43
797.309	21610.17
797.497	21931.7
797.685	21296.83
797.874	21071.55
798.062	21679.8
798.25	21571.25
798.438	21548.73
798.626	21292.73
798.814	21616.31
799.002	21974.7
799.19	21704.37
799.378	21116.61
799.566	21980.85
799.755	21898.93
799.943	21286.59
800.131	21063.36
800.318	21608.12
800.506	21743.28
800.694	21214.91
800.882	21315.26
801.07	21612.21
801.258	21524.15
801.446	21741.24
801.634	21157.57
801.822	21327.55
802.01	21524.15
802.197	21690.04
802.385	21546.68
802.573	21812.92
802.761	21538.49
802.949	21491.38
803.136	20963.01
803.324	21821.11
803.512	21655.22
803.699	21458.62
803.887	21126.85
804.075	22146.73
804.262	21499.58
804.45	21325.5
804.638	21116.61
804.825	21624.5
805.013	21321.4
805.201	21495.48
805.388	21118.65
805.576	21542.58
805.763	22146.73
805.951	21348.03
806.138	21546.68
806.326	22501.03
806.513	21982.9
806.701	21812.92
806.888	21706.42
807.075	22122.16
807.263	22062.77
807.45	21479.1
807.638	21771.96
807.825	22191.79
808.012	21886.64
808.2	21618.36
808.387	21700.28
808.574	22111.92
808.761	22331.05
808.949	21280.44
809.136	21497.53
809.323	22036.14
809.51	21792.44
809.698	21759.67
809.885	21644.98
810.072	21931.7
810.259	22269.61
810.446	21665.46
810.633	21786.29
810.82	22658.73
811.008	22451.88
811.195	21833.39
811.382	21833.39
811.569	21851.83
811.756	21493.43
811.943	21882.55
812.13	21812.92
812.317	21814.96
812.504	22042.29
812.691	21931.7
812.878	21954.22
813.064	22091.44
813.251	22142.64
813.438	21794.48
813.625	21757.62
813.812	21878.45
813.999	22118.06
814.186	21927.6
814.372	21991.09
814.559	22103.73
814.746	22050.48
814.933	21720.76
815.12	22195.89
815.306	21681.85
815.493	21767.86
815.68	21796.53
815.866	21776.05
816.053	22204.08
816.24	22634.15
816.426	22005.42
816.613	21614.26
816.799	22431.4
816.986	22142.64
817.173	21837.49
817.359	21714.61
817.546	21958.32
817.732	21677.75
817.919	21327.55
818.105	21448.38
818.292	21735.09
818.478	21855.92
818.665	21765.81
818.851	21765.81
819.037	22189.74
819.224	21954.22
819.41	21262.01
819.597	21233.34
819.783	22197.93
819.969	21890.74
820.156	21395.13
820.342	21511.86
820.528	22402.73
820.714	21491.38
820.901	21606.07
821.087	21069.5
821.273	21786.29
821.459	21587.64
821.646	21536.44
821.832	21307.07
822.018	21720.76
822.204	21530.3
822.39	21253.82
822.576	21214.91
822.762	21423.8
822.948	21204.67
823.134	21292.73
823.32	21077.69
823.507	20995.78
823.693	21501.62
823.879	21538.49
824.065	21087.93
824.25	21329.59
824.436	20987.58
824.622	20876.99
824.808	20987.58
824.994	21145.28
825.18	21026.5
825.366	20901.57
825.552	20713.16
825.738	21116.61
825.923	21157.57
826.109	21249.72
826.295	20739.78
826.481	20866.75
826.667	20666.05
826.852	21313.21
827.038	20932.29
827.224	21460.66
827.409	21520.06
827.595	20637.38
827.781	20930.24
827.966	21360.31
828.152	21243.58
828.338	21012.16
828.523	20461.26
828.709	20969.15
828.894	20846.27
829.08	20659.91
829.266	20559.56
829.451	20438.73
829.637	20854.47
829.822	20692.68
830.008	20592.33
830.193	20793.03
830.378	21036.73
830.564	20633.29
830.749	20080.33
830.935	20651.72
831.12	20616.9
831.305	20424.39
831.491	20516.55
831.676	20074.19
831.861	20680.39
832.047	20207.31
832.232	20074.19
832.417	20629.19
832.602	20182.73
832.788	20244.17
832.973	19889.87
833.158	20238.03
833.343	20276.94
833.528	20305.61
833.714	20264.65
833.899	20524.74
834.084	20469.45
834.269	20291.27
834.454	19924.69
834.639	20371.15
834.824	20182.73
835.009	19990.22
835.194	19676.88
835.379	20350.67
835.564	20045.52
835.749	19754.71
835.934	19713.75
836.119	20090.57
836.304	19885.78
836.489	19660.5
836.674	19783.38
836.859	19646.16
837.044	20020.94
837.228	19601.11
837.413	19447.51
837.598	20086.48
837.783	19922.64
837.968	19637.97
838.152	19363.54
838.337	19705.56
838.522	19822.29
838.707	20213.45
838.891	19490.52
839.076	19713.75
839.261	19730.13
839.445	19818.19
839.63	19437.27
839.815	19740.37
839.999	19412.7
840.184	19248.86
840.368	19164.89
840.553	19480.28
840.737	19592.92
840.922	19326.68
841.106	19238.62
841.291	19248.86
841.475	19697.36
841.66	19093.21
841.844	18999.01
842.029	19855.06
842.213	18908.9
842.397	18892.51
842.582	18843.36
842.766	19541.72
842.951	19220.19
843.135	19109.6
843.319	19121.88
843.504	19003.1
843.688	19623.64
843.872	18513.64
844.056	18919.14
844.241	19300.06
844.425	18943.71
844.609	18962.14
844.793	18730.72
844.977	18960.09
845.161	18833.12
845.346	18306.79
845.53	18188.01
845.714	18630.37
845.898	19001.05
846.082	18444.01
846.266	18499.3
846.45	18581.22
846.634	18624.23
846.818	18386.66
847.002	18548.45
847.186	18630.37
847.37	18534.12
847.554	18298.6
847.738	18437.86
847.922	18464.49
848.106	18743.01
848.29	18357.99
848.473	18286.31
848.657	18480.87
848.841	18388.71
849.025	18065.13
849.209	17719.03
849.392	18581.22
849.576	18255.59
849.76	17637.11
849.944	17970.93
850.127	18786.02
850.311	17858.29
850.495	17876.72
850.678	17753.84
850.862	18421.48
851.046	18243.31
851.229	18298.6
851.413	17774.32
851.596	17925.87
851.78	18116.33
851.964	18149.1
852.147	17694.45
852.331	18738.91
852.514	18360.04
852.698	17837.81
852.881	17299.19
853.065	18306.79
853.248	17684.21
853.431	17925.87
853.615	17362.68
853.798	18704.1
853.982	17815.28
854.165	17731.31
854.348	17372.92
854.532	17381.11
854.715	17590
854.898	17561.33
855.081	17391.35
855.265	17940.21
855.448	17962.73
855.631	17145.59
855.814	17303.29
855.997	17516.28
856.181	17344.25
856.364	17145.59
856.547	17204.99
856.73	17260.28
856.913	17426.17
857.096	16817.92
857.279	17161.98
857.462	17170.17
857.645	17469.17
857.828	17024.76
858.011	17221.37
858.194	17110.78
858.377	17430.26
858.56	16887.55
858.743	17082.11
858.926	16740.1
859.109	17309.43
859.292	16746.24
859.475	16475.91
859.658	17610.48
859.841	16951.04
860.023	16688.9
860.206	16615.17
860.389	17004.28
860.572	17149.69
860.755	16529.16
860.937	16647.94
861.12	16912.13
861.303	16848.64
861.486	16488.2
861.668	16426.76
861.851	16942.85
862.034	16940.8
862.216	16484.1
862.399	15996.68
862.581	16879.36
862.764	16619.27
862.947	16566.02
863.129	15963.92
863.312	16078.6
863.494	16633.6
863.677	16238.34
863.859	16037.64
864.042	16549.64
864.224	16793.34
864.406	16389.89
864.589	15757.07
864.771	16443.14
864.954	15836.94
865.136	15830.8
865.318	15828.75
865.501	16201.48
865.683	15650.58
865.865	15888.14
866.048	15914.77
866.23	16137.99
866.412	16164.62
866.594	15505.17
866.777	15849.23
866.959	16209.67
867.141	15855.37
867.323	15982.35
867.505	15927.05
867.687	16027.4
867.869	16074.51
868.052	15906.57
868.234	15718.16
868.416	15935.24
868.598	16121.61
868.78	15724.3
868.962	15722.26
869.144	15916.81
869.326	15951.63
869.508	15398.68
869.69	15478.55
869.872	15818.51
870.054	15834.89
870.236	15140.63
870.417	15398.68
870.599	15427.35
870.781	16111.37
870.963	15271.7
871.145	15351.57
871.327	15378.2
871.508	15785.74
871.69	15316.76
871.872	15525.65
872.054	15564.56
872.235	15742.74
872.417	15453.97
872.599	15359.77
872.78	15886.09
872.962	15656.72
873.144	15445.78
873.325	15589.14
873.507	15867.66
873.689	15478.55
873.87	15255.32
874.052	15437.59
874.233	15406.87
874.415	15900.43
874.596	15410.96
874.778	15294.23
874.959	15433.49
875.141	15777.55
875.322	15478.55
875.503	14948.12
875.685	15542.03
875.866	15124.25
876.048	15394.58
876.229	15218.46
876.41	15421.2
876.592	15474.45
876.773	15456.02
876.954	14911.26
877.136	16121.61
877.317	15507.22
877.498	15038.23
877.679	15343.38
877.86	15550.23
878.042	15349.53
878.223	15232.79
878.404	15431.44
878.585	15912.72
878.766	15849.23
878.947	15765.26
879.128	15503.12
879.309	15812.37
879.49	15943.44
879.672	15443.73
879.853	15656.72
880.034	15507.22
880.215	15709.97
880.396	15554.32
880.576	15675.15
880.757	15513.36
880.938	16183.05
881.119	15679.25
881.3	15529.75
881.481	15578.9
881.662	16815.87
881.843	15517.46
882.023	15537.94
882.204	16080.65
882.385	15986.44
882.566	15533.84
882.747	15955.72
882.927	16133.9
883.108	16086.79
883.289	15816.46
883.469	16109.32
883.65	16017.16
883.831	16054.03
884.011	15822.61
884.192	15988.49
884.373	16148.23
884.553	16529.16
884.734	15611.67
884.914	16256.78
885.095	16934.65
885.275	16756.48
885.456	16578.31
885.636	16131.85
885.817	16156.43
885.997	16181
886.178	16232.2
886.358	16191.24
886.538	16379.65
886.719	17360.63
886.899	15922.96
887.08	16256.78
887.26	16668.42
887.44	15925
887.621	16209.67
887.801	16404.23
887.981	17231.61
888.161	16625.41
888.342	16447.24
888.522	16621.31
888.702	16781.06
888.882	16715.52
889.062	16361.22
889.242	16137.99
889.423	17170.17
889.603	16955.13
889.783	16600.83
889.963	16062.22
890.143	16891.65
890.323	16899.84
890.503	16430.85
890.683	16490.24
890.863	16514.82
891.043	16858.88
891.223	16545.54
891.403	16592.64
891.583	16574.21
891.763	16688.9
891.943	16543.49
892.122	16340.74
892.302	16779.01
892.482	16527.11
892.662	16414.47
892.842	16416.52
893.022	16553.73
893.201	16430.85
893.381	16418.57
893.561	16058.12
893.741	16887.55
893.92	16609.03
894.1	16305.93
894.28	16201.48
894.459	16619.27
894.639	16766.72
894.819	16336.65
894.998	16393.99
895.178	16471.81
895.357	16459.52
895.537	15939.34
895.716	15968.01
895.896	16387.85
896.075	16670.47
896.255	16289.54
896.434	15945.48
896.614	16846.59
896.793	16754.43
896.973	16217.86
897.152	16264.97
897.331	16267.02
897.511	16588.55
897.69	15961.87
897.87	16060.17
898.049	16381.7
898.228	16127.75
898.407	16264.97
898.587	16019.21
898.766	15863.57
898.945	16088.84
899.124	15838.99
899.304	15783.7
899.483	16156.43
899.662	16201.48
899.841	15464.21
900.02	15320.85
900.199	15888.14
900.378	15507.22
900.557	15195.93
900.737	15370.01
900.916	15787.79
901.095	15886.09
901.274	15529.75
901.453	14921.5
901.632	15140.63
901.811	15173.4
901.989	15259.42
902.168	15046.43
902.347	15445.78
902.526	15175.45
902.705	14866.21
902.884	14784.29
903.063	15544.08
903.242	15361.81
903.42	14679.84
903.599	14903.07
903.778	15075.1
903.957	15324.95
904.135	14593.83
904.314	14626.59
904.493	14882.59
904.672	14872.35
904.85	14432.04
905.029	14399.27
905.207	14630.69
905.386	15443.73
905.565	14094.12
905.743	14309.16
905.922	14241.57
906.1	14450.47
906.279	13655.86
906.457	13655.86
906.636	14008.11
906.814	13942.57
906.993	13690.67
907.171	13793.07
907.35	14032.68
907.528	14227.24
907.707	13831.98
907.885	13426.48
908.063	14051.11
908.242	13610.8
908.42	13293.37
908.598	13061.94
908.777	13662
908.955	13582.13
909.133	13481.78
909.311	13104.95
909.49	13555.51
909.668	13578.03
909.846	13399.86
910.024	13172.53
910.202	13559.6
910.38	13866.8
910.559	13158.2
910.737	13373.24
910.915	13739.82
911.093	13633.33
911.271	13922.09
911.449	13874.99
911.627	14137.13
911.805	14403.36
911.983	13561.65
912.161	13877.04
912.339	13961
912.517	14214.95
912.695	13883.18
912.872	13616.94
913.05	14047.02
913.228	14004.01
913.406	13487.92
913.584	13588.27
913.762	14309.16
913.939	13903.66
914.117	13834.03
914.295	13655.86
914.473	14145.32
914.65	14198.57
914.828	13709.1
915.006	13543.22
915.184	13879.08
915.361	14036.78
915.539	13987.63
915.716	13958.95
915.894	14047.02
916.072	14012.2
916.249	13831.98
916.427	13795.12
916.604	13760.3
916.782	13674.29
916.959	13498.16
917.137	13270.84
917.314	14126.89
917.492	13831.98
917.669	13387.57
917.847	13791.02
918.024	13727.53
918.201	13551.41
918.379	13731.63
918.556	13465.39
918.733	13694.77
918.911	13528.88
919.088	13612.85
919.265	13303.6
919.442	13672.24
919.62	13457.2
919.797	13086.52
919.974	13156.15
920.151	13444.91
920.328	13446.96
920.506	13377.33
920.683	13485.87
920.86	13231.93
921.037	13160.25
921.214	12998.46
921.391	13248.31
921.568	13395.76
921.745	13137.72
921.922	12932.92
922.099	12881.72
922.276	13721.39
922.453	13336.37
922.63	13078.33
922.807	12959.55
922.984	12930.87
923.161	12930.87
923.338	12746.56
923.514	13188.92
923.691	13072.18
923.868	13033.27
924.045	12642.11
924.222	12535.62
924.399	12980.03
924.575	13117.24
924.752	12558.14
924.929	12889.92
925.105	12955.45
925.282	12728.13
925.459	12443.46
925.635	12539.71
925.812	12564.29
925.989	12566.34
926.165	12468.03
926.342	12226.37
926.518	12205.89
926.695	12470.08
926.871	12097.35
927.048	12101.45
927.224	12519.23
927.401	12177.22
927.577	12212.04
927.754	12068.68
927.93	12443.46
928.107	12267.33
928.283	11917.13
928.459	12160.84
928.636	12203.85
928.812	12232.52
928.988	11730.76
929.165	11505.49
929.341	12103.5
929.517	12019.53
929.693	11992.91
929.87	11317.08
930.046	11990.86
930.222	11532.11
930.398	11360.08
930.574	11439.95
930.751	11458.39
930.927	11366.23
931.103	11550.54
931.279	11239.25
931.455	11208.53
931.631	11546.45
931.807	11005.78
931.983	11075.41
932.159	10868.57
932.335	11116.37
932.511	10895.19
932.687	10671.97
932.863	11218.77
933.039	10692.44
933.215	10501.98
933.391	10594.14
933.566	10755.93
933.742	10741.6
933.918	10403.68
934.094	10196.84
934.27	10524.51
934.445	10307.43
934.621	10276.71
934.797	9832.3
934.973	10225.51
935.148	10110.82
935.324	9582.45
935.5	9262.96
935.675	9934.7
935.851	9815.91
936.027	9457.52
936.202	9265.01
936.378	9283.44
936.553	9080.69
936.729	9181.04
936.904	8605.56
937.08	8593.28
937.255	8630.14
937.431	8226.69
937.606	8234.88
937.782	8288.13
937.957	8345.47
938.133	7960.45
938.308	7813
938.483	7810.95
938.659	7718.79
938.834	7587.72
939.009	7350.16
939.185	7448.46
939.36	7098.26
939.535	6766.49
939.71	7352.21
939.886	7464.85
940.061	7292.82
940.236	7108.5
940.411	6803.35
940.586	6948.76
940.761	7059.35
940.937	6844.31
941.112	6547.36
941.287	6715.29
941.462	6784.92
941.637	6420.38
941.812	6408.09
941.987	6705.05
942.162	6504.35
942.337	6338.46
942.512	6150.05
942.687	6326.18
942.862	6502.3
943.037	5920.68
943.212	5679.02
943.386	5998.5
943.561	6379.42
943.736	6223.78
943.911	6428.57
944.086	6395.81
944.26	6209.44
944.435	6078.37
944.61	6055.84
944.785	6418.33
944.959	6459.29
945.134	6125.47
945.309	5898.15
945.483	6037.41
945.658	6285.22
945.833	5650.35
946.007	5838.76
946.182	6616.99
946.357	5828.52
946.531	5904.29
946.706	5805.99
946.88	5750.7
947.055	6301.6
947.229	6023.08
947.404	5992.36
947.578	6358.94
947.752	6121.38
947.927	5992.36
948.101	6029.22
948.276	6365.09
948.45	6385.57
948.624	6137.76
948.799	6049.7
948.973	6455.2
949.147	6084.52
949.321	6363.04
949.496	6272.93
949.67	6674.33
949.844	6465.44
950.018	6207.39
950.193	6188.96
950.367	6809.5
950.541	6420.38
950.715	6510.49
950.889	6684.57
951.063	6590.36
951.237	6666.14
951.411	6111.14
951.585	6250.4
951.759	6782.87
951.933	6496.16
952.107	6338.46
952.281	6766.49
952.455	7047.06
952.629	6854.55
952.803	6444.96
952.977	6461.34
953.151	6993.81
953.325	6995.86
953.499	6762.39
953.672	6307.74
953.846	6694.81
954.02	6619.03
954.194	6653.85
954.368	6592.41
954.541	6965.14
954.715	6743.96
954.889	6743.96
955.062	6608.8
955.236	6870.94
955.41	6725.53
955.583	6889.37
955.757	6645.66
955.93	6838.17
956.104	6612.89
956.278	6805.4
956.451	6766.49
956.625	7114.64
956.798	7595.92
956.972	7174.03
957.145	6614.94
957.319	6913.94
957.492	7085.97
957.665	7047.06
957.839	6791.06
958.012	7180.18
958.185	7055.25
958.359	6928.28
958.532	7045.01
958.705	7243.67
958.879	6975.38
959.052	7063.44
959.225	6596.51
959.398	7100.31
959.572	6975.38
959.745	6952.85
959.918	6963.09
960.091	6938.52
960.264	7065.49
960.438	6733.72
960.611	6719.39
960.784	7128.98
960.957	6864.79
961.13	7245.71
961.303	6803.35
961.476	7108.5
961.649	7323.54
961.822	6723.48
961.995	7051.16
962.168	7247.76
962.341	7258
962.514	7096.21
962.686	6981.53
962.859	7026.58
963.032	7258
963.205	6848.41
963.378	6725.53
963.551	7057.3
963.723	7030.68
963.896	6954.9
964.069	6938.52
964.242	7002.01
964.414	7305.1
964.587	6905.75
964.76	7096.21
964.932	7055.25
965.105	7085.97
965.278	6799.26
965.45	6846.36
965.623	6856.6
965.795	7045.01
965.968	6707.1
966.14	6698.91
966.313	6838.17
966.485	6997.91
966.658	6715.29
966.83	6639.51
967.003	7217.04
967.175	6762.39
967.348	6584.22
967.52	7012.25
967.692	7309.2
967.865	6905.75
968.037	6913.94
968.209	7088.02
968.382	6991.77
968.554	6942.61
968.726	6746.01
968.898	6633.37
969.071	6915.99
969.243	6854.55
969.415	6696.86
969.587	6580.12
969.759	7301.01
969.932	6907.8
970.104	6594.46
970.276	6338.46
970.448	6614.94
970.62	6430.62
970.792	6600.6
970.964	6483.87
971.136	6915.99
971.308	6721.43
971.48	6389.66
971.652	6383.52
971.824	6895.51
971.996	6526.88
972.168	6387.61
972.339	6442.91
972.511	6735.77
972.683	6494.11
972.855	6733.72
973.027	6465.44
973.199	6582.17
973.37	6649.75
973.542	6371.23
973.714	6457.25
973.886	6461.34
974.057	6690.71
974.229	6223.78
974.401	6203.3
974.572	6223.78
974.744	6143.91
974.915	6021.03
975.087	6156.19
975.259	6676.38
975.43	6199.2
975.602	6119.33
975.773	6002.6
975.945	6145.95
976.116	6444.96
976.288	6049.7
976.459	6195.11
976.63	6211.49
976.802	6283.17
976.973	6055.84
977.145	6006.69
977.316	6676.38
977.487	6565.79
977.659	6158.24
977.83	5941.16
978.001	6565.79
978.172	6184.87
978.344	5935.01
978.515	5912.49
978.686	6039.46
978.857	6485.92
979.028	5832.61
979.2	5687.21
979.371	6367.13
979.542	5885.86
979.713	5953.45
979.884	5463.98
980.055	5722.02
980.226	5943.21
980.397	5728.17
980.568	5705.64
980.739	6088.61
980.91	5814.18
981.081	5777.32
981.252	5535.66
981.423	6029.22
981.594	6080.42
981.765	5388.21
981.936	5781.42
982.106	5842.85
982.277	5998.5
982.448	5631.91
982.619	5709.74
982.79	5597.1
982.96	5920.68
983.131	5703.59
983.302	5300.14
983.472	5633.96
983.643	5611.43
983.814	5728.17
983.984	5369.77
984.155	5560.24
984.326	5922.73
984.496	5466.03
984.667	5310.38
984.837	5396.4
985.008	5695.4
985.178	5554.09
985.349	5228.46
985.519	5461.93
985.69	5306.29
985.86	5158.83
986.031	5107.63
986.201	5341.1
986.371	5566.38
986.542	5154.74
986.712	4863.93
986.882	5449.64
987.053	5363.63
987.223	4915.12
987.393	5158.83
987.563	5187.5
987.734	5388.21
987.904	5349.29
988.074	4843.45
988.244	5242.8
988.414	5121.97
988.585	4966.32
988.755	4945.84
988.925	5035.96
989.095	5384.11
989.265	4822.97
989.435	4888.5
989.605	5195.7
989.775	5164.98
989.945	4921.27
990.115	4702.14
990.285	5056.43
990.455	4937.65
990.625	4812.73
990.795	4597.69
990.965	5214.13
991.134	4577.21
991.304	4638.65
991.474	4700.09
991.644	5091.25
991.814	5175.22
991.984	4446.14
992.153	4419.52
992.323	4919.22
992.493	4722.62
992.662	4372.41
992.832	4616.12
993.002	4888.5
993.171	4904.89
993.341	4374.46
993.511	4665.27
993.68	4620.22
993.85	4634.55
994.019	4233.15
994.189	4233.15
994.358	4669.37
994.528	4542.39
994.697	4087.75
994.867	4130.75
995.036	4630.46
995.206	4693.94
995.375	4255.68
995.544	4497.34
995.714	4370.37
995.883	4353.98
996.052	4310.97
996.222	3866.57
996.391	4784.06
996.56	4298.69
996.73	4085.7
996.899	3923.91
997.068	4652.99
997.237	4079.55
997.406	3936.2
997.576	3983.3
997.745	4360.13
997.914	4302.78
998.083	3798.98
998.252	4081.6
998.421	4130.75
998.59	4057.03
998.759	4016.07
998.928	3880.9
999.097	4464.57
999.266	4308.93
999.435	3987.4
999.604	3430.35
999.773	4542.39
999.942	3905.48
1000.111	3530.7
1000.28	3387.34
1000.448	3672.01
1000.617	3696.58
1000.786	3831.75
1000.955	3657.67
1001.124	4009.92
1001.292	4571.07
1001.461	3598.28
1001.63	3366.86
1001.798	4343.74
1001.967	4022.21
1002.136	3420.11
1002.304	3461.07
1002.473	3952.58
1002.642	3915.72
1002.81	3473.36
1002.979	3489.74
1003.147	3782.6
1003.316	4300.73
1003.484	3268.56
1003.653	3373
1003.821	3991.49
1003.99	3729.35
1004.158	3495.88
1004.327	3450.83
1004.495	3596.23
1004.663	3262.41
1004.832	3323.85
1005	3207.12
1005.168	3657.67
1005.337	3561.42
1005.505	3139.54
1005.673	3334.09
1005.842	3512.27
1006.01	3706.82
1006.178	3098.58
1006.346	3090.38
1006.514	3483.59
1006.683	3729.35
1006.851	3028.95
1007.019	3067.86
1007.187	3178.45
1007.355	2930.64
1007.523	2731.99
1007.691	2883.54
1007.859	2992.08
1008.027	3547.08
1008.195	2920.4
1008.363	2854.87
1008.531	3340.24
1008.699	2969.55
1008.867	2940.88
1009.035	2949.07
1009.203	3467.21
1009.37	3184.59
1009.538	2908.12
1009.706	3157.97
1009.874	3303.37
1010.042	2987.99
1010.209	2736.09
1010.377	2820.05
1010.545	3327.95
1010.713	3106.77
1010.88	2748.37
1011.048	2734.04
1011.216	2957.27
1011.383	3317.71
1011.551	2607.06
1011.718	2584.54
1011.886	3127.25
1012.054	2891.73
1012.221	2539.48
1012.389	2541.53
1012.556	2873.3
1012.724	3381.2
1012.891	2695.13
1013.058	2293.72
1013.226	2906.07
1013.393	2996.18
1013.561	2246.62
1013.728	2224.09
1013.895	2779.09
1014.063	2916.31
1014.23	2357.21
1014.397	2369.5
1014.565	2834.39
1014.732	2625.5
1014.899	2328.54
1015.066	2332.64
1015.233	2742.23
1015.401	2838.48
1015.568	2465.75
1015.735	2475.99
1015.902	2631.64
1016.069	2719.7
1016.236	2320.35
1016.403	2242.53
1016.57	2346.97
1016.737	2834.39
1016.904	2207.71
1017.071	2039.78
1017.238	2344.92
1017.405	2570.2
1017.572	2152.42
1017.739	2363.36
1017.906	2521.05
1018.073	2607.06
1018.24	2029.54
1018.407	2187.23
1018.573	2664.41
1018.74	2299.87
1018.907	2136.03
1019.074	1837.03
1019.241	2523.1
1019.407	2396.12
1019.574	2019.3
1019.741	1964
1019.907	2367.45
1020.074	2353.12
1020.241	1761.25
1020.407	1912.8
1020.574	2349.02
1020.74	2336.73
1020.907	1931.23
1021.073	1877.99
1021.24	2731.99
1021.406	2594.78
1021.573	1800.16
1021.739	1816.55
1021.906	2336.73
1022.072	2185.18
1022.239	1845.22
1022.405	1845.22
1022.571	2246.62
1022.738	2025.44
1022.904	1808.36
1023.07	1822.69
1023.237	2152.42
1023.403	2432.99
1023.569	1800.16
1023.735	1658.85
1023.902	2136.03
1024.068	2129.89
1024.234	1697.77
1024.4	1673.19
1024.566	2035.68
1024.732	2185.18
1024.898	1701.86
1025.065	1605.61
1025.231	2205.66
1025.397	1980.39
1025.563	1746.92
1025.729	1624.04
1025.895	1527.78
1026.061	1794.02
1026.227	1425.39
1026.392	1673.19
1026.558	2303.96
1026.724	2041.82
1026.89	1499.11
1027.056	1609.7
1027.222	2074.59
1027.388	1779.68
1027.553	1570.79
1027.719	1456.11
1027.885	2226.14
1028.051	2095.07
1028.216	1247.21
1028.382	1525.74
1028.548	1976.29
1028.713	1642.47
1028.879	1372.14
1029.045	1511.4
1029.21	2119.65
1029.376	2107.36
1029.541	1521.64
1029.707	1449.96
1029.873	1853.41
1030.038	1898.47
1030.204	1400.81
1030.369	1394.67
1030.534	1982.43
1030.7	1703.91
1030.865	1411.05
1031.031	1359.85
1031.196	1605.61
1031.361	1785.83
1031.527	1304.56
1031.692	1316.84
1031.857	1292.27
1032.023	1751.01
1032.188	1284.08
1032.353	1347.56
1032.518	1957.86
1032.684	1642.47
1032.849	1036.27
1033.014	1304.56
1033.179	1708.01
1033.344	1714.15
1033.509	1370.09
1033.674	1220.59
1033.839	1904.61
1034.004	1769.44
1034.17	1220.59
1034.335	1103.86
1034.5	1429.48
1034.664	1394.67
1034.829	1243.12
1034.994	1202.16
1035.159	1568.74
1035.324	1654.76
1035.489	1279.98
1035.654	1140.72
1035.819	1775.59
1035.984	1439.72
1036.148	1265.64
1036.313	1222.64
1036.478	1681.38
1036.643	1372.14
1036.807	1157.1
1036.972	1083.38
1037.137	1744.87
1037.301	1439.72
1037.466	1052.66
1037.631	1112.05
1037.795	1775.59
1037.96	1505.26
1038.124	1263.6
1038.289	1003.5
1038.454	1447.91
1038.618	1456.11
1038.783	978.93
1038.947	1071.09
1039.111	1355.76
1039.276	1298.41
1039.44	1019.89
1039.605	1425.39
1039.769	1193.97
1039.933	1325.04
1040.098	1042.42
1040.262	1148.91
1040.426	1470.44
1040.591	1507.3
1040.755	956.4
1040.919	972.79
1041.083	1409
1041.248	1247.21
1041.412	806.9
1041.576	886.77
1041.74	1208.3
1041.904	1490.92
1042.068	901.11
1042.232	935.92
1042.397	1470.44
1042.561	1318.89
1042.725	675.83
1042.889	1099.76
1043.053	1427.43
1043.217	1368.04
1043.381	923.63
1043.544	757.75
1043.708	1480.68
1043.872	987.12
1044.036	589.82
1044.2	743.41
1044.364	1505.26
1044.528	1595.37
1044.691	2113.5
1044.855	677.88
1045.019	1505.26
1045.183	1404.91
1045.346	829.43
1045.51	706.55
1045.674	1290.22
1045.837	1263.6
1046.001	677.88
1046.165	856.05
1046.328	1609.7
1046.492	1218.54
1046.655	970.74
1046.819	847.86
1046.983	1034.22
1047.146	1206.25
1047.31	829.43
1047.473	641.01
1047.636	1026.03
1047.8	866.29
1047.963	829.43
1048.127	694.26
1048.29	919.54
