Data from Hydrogel_Ink_Intensity_Test_1_USB4F045381__9__00009.txt Node

Date: Mon Jul 31 10:37:01 EDT 2023
User: mmckonesweet
Spectrometer: USB4F04538
Trigger mode: 4
Integration Time (sec): 9.000000E-1
Scans to average: 1
Electric dark correction enabled: true
Nonlinearity correction enabled: false
Boxcar width: 0
XAxis mode: Wavelengths
Number of Pixels in Spectrum: 3648
>>>>>Begin Spectral Data<<<<<
345.52	-979.44
345.736	-979.44
345.952	-979.44
346.168	-942.58
346.384	-950.77
346.6	-100.86
346.816	-291.32
347.032	-211.45
347.248	243.2
347.464	-199.16
347.68	-113.15
347.896	136.7
348.112	378.36
348.328	-23.04
348.544	-14.85
348.76	-8.7
348.975	204.28
349.191	-150.01
349.407	-82.43
349.623	46.59
349.839	19.97
350.055	-55.81
350.27	183.81
350.486	290.3
350.702	374.27
350.918	255.48
351.133	-117.25
351.349	232.96
351.565	331.26
351.781	-121.34
351.996	105.98
352.212	415.23
352.428	-100.86
352.644	-53.76
352.859	-80.38
353.075	310.78
353.291	-8.7
353.506	30.21
353.722	-90.62
353.938	-23.04
354.153	462.33
354.369	138.75
354.584	-125.44
354.8	267.77
355.016	-264.7
355.231	-123.39
355.447	34.3
355.662	204.28
355.878	925.17
356.093	-236.03
356.309	26.11
356.524	-209.4
356.74	306.68
356.955	3.58
357.171	22.02
357.386	183.81
357.602	-119.29
357.817	32.26
358.033	-113.15
358.248	347.64
358.464	288.25
358.679	-55.81
358.895	-207.36
359.11	50.69
359.325	443.9
359.541	261.63
359.756	159.23
359.972	-240.12
360.187	222.72
360.402	-59.9
360.618	-55.81
360.833	959.99
361.048	151.04
361.264	3.58
361.479	97.79
361.694	40.45
361.909	257.53
362.125	-96.77
362.34	46.59
362.555	241.15
362.77	126.46
362.986	-123.39
363.201	-2.56
363.416	177.66
363.631	34.3
363.847	-80.38
364.062	19.97
364.277	304.64
364.492	187.9
364.707	-102.91
364.922	-182.78
365.138	318.97
365.353	472.57
365.568	-96.77
365.783	-20.99
365.998	75.26
366.213	693.75
366.428	-113.15
366.643	159.23
366.858	386.55
367.073	245.24
367.288	-72.19
367.503	-113.15
367.718	208.38
367.933	429.56
368.148	-156.16
368.363	65.02
368.578	62.98
368.793	583.16
369.008	36.35
369.223	-10.75
369.438	271.87
369.653	525.82
369.868	-205.31
370.083	-35.33
370.298	239.1
370.513	488.95
370.728	237.05
370.943	17.92
371.157	-41.47
371.372	681.46
371.587	-127.49
371.802	-158.21
372.017	183.81
372.232	544.25
372.446	130.56
372.661	-111.1
372.876	396.79
373.091	194.05
373.306	134.65
373.52	-39.42
373.735	34.3
373.95	460.28
374.165	200.19
374.379	93.69
374.594	85.5
374.809	247.29
375.023	220.67
375.238	-29.18
375.453	439.8
375.667	3.58
375.882	15.87
376.097	-47.62
376.311	237.05
376.526	159.23
376.741	7.68
376.955	257.53
377.17	728.56
377.384	689.65
377.599	128.51
377.813	-102.91
378.028	660.98
378.242	398.84
378.457	114.17
378.672	-201.21
378.886	247.29
379.101	120.32
379.315	-123.39
379.53	73.21
379.744	339.45
379.958	286.2
380.173	91.65
380.387	30.21
380.602	417.27
380.816	77.31
381.031	44.54
381.245	112.13
381.459	374.27
381.674	2708.95
381.888	36.35
382.103	345.59
382.317	28.16
382.531	738.8
382.746	196.09
382.96	99.84
383.174	142.85
383.388	570.87
383.603	370.17
383.817	-25.09
384.031	364.03
384.246	736.76
384.46	259.58
384.674	587.26
384.888	185.85
385.103	263.68
385.317	11.78
385.531	245.24
385.745	632.31
385.959	568.82
386.174	93.69
386.388	75.26
386.602	368.12
386.816	196.09
387.03	200.19
387.244	237.05
387.458	409.08
387.672	626.17
387.887	52.74
388.101	38.4
388.315	626.17
388.529	361.98
388.743	157.18
388.957	142.85
389.171	601.59
389.385	99.84
389.599	232.96
389.813	359.93
390.027	413.18
390.241	945.65
390.455	220.67
390.669	280.06
390.883	216.57
391.097	724.47
391.311	486.9
391.525	265.72
391.738	458.23
391.952	640.5
392.166	331.26
392.38	134.65
392.594	740.85
392.808	679.41
393.022	290.3
393.236	259.58
393.449	579.06
393.663	497.14
393.877	183.81
394.091	314.88
394.305	325.12
394.518	374.27
394.732	103.93
394.946	331.26
395.16	757.24
395.373	491
395.587	210.43
395.801	341.5
396.015	740.85
396.228	718.33
396.442	128.51
396.656	114.17
396.869	730.61
397.083	787.96
397.297	462.33
397.51	364.03
397.724	835.06
397.938	577.02
398.151	245.24
398.365	208.38
398.578	656.89
398.792	796.15
399.005	491
399.219	429.56
399.433	638.45
399.646	640.5
399.86	536.06
400.073	525.82
400.287	740.85
400.5	482.81
400.714	591.35
400.927	511.48
401.141	656.89
401.354	1453.55
401.567	751.09
401.781	339.45
401.994	712.18
402.208	1107.44
402.421	458.23
402.635	554.49
402.848	628.21
403.061	892.4
403.275	511.48
403.488	374.27
403.701	1046
403.915	828.92
404.128	540.15
404.341	447.99
404.555	755.19
404.768	581.11
404.981	691.7
405.195	425.47
405.408	1025.52
405.621	802.29
405.834	628.21
406.048	437.75
406.261	992.75
406.474	1129.97
406.687	437.75
406.9	706.04
407.114	675.32
407.327	843.25
407.54	415.23
407.753	407.03
407.966	536.06
408.179	849.4
408.392	542.2
408.605	452.09
408.819	939.51
409.032	880.11
409.245	482.81
409.458	738.8
409.671	902.64
409.884	1084.91
410.097	534.01
410.31	759.28
410.523	941.55
410.736	816.63
410.949	615.93
411.162	712.18
411.375	1258.99
411.588	1015.28
411.801	769.52
412.014	683.51
412.227	812.53
412.44	724.47
412.653	605.69
412.865	808.44
413.078	1043.95
413.291	982.51
413.504	761.33
413.717	706.04
413.93	1033.71
414.143	640.5
414.356	812.53
414.568	585.21
414.781	1129.97
414.994	1084.91
415.207	828.92
415.42	792.05
415.632	1134.06
415.845	1375.72
416.058	591.35
416.271	663.03
416.483	1019.38
416.696	1412.59
416.909	777.72
417.121	777.72
417.334	1213.93
417.547	1523.18
417.759	744.95
417.972	718.33
418.185	929.27
418.397	1254.89
418.61	802.29
418.823	773.62
419.035	1342.96
419.248	1119.73
419.46	880.11
419.673	945.65
419.885	1357.29
420.098	990.7
420.311	959.99
420.523	765.43
420.736	1250.8
420.948	1125.87
421.161	914.93
421.373	724.47
421.586	1191.41
421.798	966.13
422.01	869.87
422.223	1115.63
422.435	1023.47
422.648	1412.59
422.86	1011.18
423.073	1007.09
423.285	1406.44
423.497	943.6
423.71	906.74
423.922	945.65
424.134	1353.2
424.347	1582.57
424.559	1285.61
424.771	1277.42
424.984	1228.27
425.196	1353.2
425.408	871.92
425.621	996.85
425.833	1627.62
426.045	1590.76
426.257	1080.82
426.47	1152.49
426.682	1461.74
426.894	1510.89
427.106	1175.02
427.318	1261.04
427.531	1191.41
427.743	1547.75
427.955	1175.02
428.167	1705.45
428.379	1512.94
428.591	1340.91
428.804	1326.57
429.016	1203.69
429.228	1355.24
429.44	1574.38
429.652	1498.6
429.864	1183.21
430.076	1461.74
430.288	1502.7
430.5	1365.48
430.712	1508.84
430.924	1756.65
431.136	1639.91
431.348	1224.17
431.56	1467.88
431.772	1535.46
431.984	1529.32
432.196	1447.4
432.408	1531.37
432.62	1496.55
432.832	1777.12
433.044	1644.01
433.256	1764.84
433.468	1816.04
433.679	1396.2
433.891	1383.91
434.103	1760.74
434.315	2039.26
434.527	1906.15
434.739	1715.69
434.95	1715.69
435.162	1969.63
435.374	1736.17
435.586	1740.26
435.798	1650.15
436.009	1578.47
436.221	1848.8
436.433	1687.01
436.645	1727.97
436.856	1842.66
437.068	2190.81
437.28	1623.53
437.491	2018.79
437.703	2078.18
437.915	2069.98
438.126	1822.18
438.338	2153.95
438.55	1969.63
438.761	2106.85
438.973	1945.06
439.184	1850.85
439.396	2172.38
439.608	2248.16
439.819	1826.28
440.031	1854.95
440.242	2289.12
440.454	2164.19
440.665	2026.98
440.877	2072.03
441.088	2223.58
441.3	2143.71
441.511	1793.51
441.723	1914.34
441.934	2149.86
442.146	2270.69
442.357	2166.24
442.569	2248.16
442.78	2219.49
442.991	2729.43
443.203	2379.23
443.414	2024.93
443.626	2698.71
443.837	2213.34
444.048	1945.06
444.26	1943.01
444.471	2313.69
444.682	2559.45
444.894	1801.7
445.105	1988.07
445.316	2561.5
445.528	2493.91
445.739	2389.47
445.95	2242.01
446.161	2461.15
446.373	2557.4
446.584	2336.22
446.795	2156
447.006	2590.17
447.217	2954.71
447.429	2096.61
447.64	2000.35
447.851	2797.01
448.062	2536.92
448.273	2094.56
448.484	2287.07
448.695	2627.03
448.907	2424.28
449.118	2401.76
449.329	2608.6
449.54	2393.56
449.751	2434.52
449.962	2356.7
450.173	2332.12
450.384	2862.55
450.595	2981.33
450.806	2346.46
451.017	2569.69
451.228	2948.56
451.439	2864.6
451.65	2412
451.861	2348.51
452.072	2555.35
452.283	2778.58
452.494	2790.87
452.705	2612.7
452.915	3225.04
453.126	2934.23
453.337	2590.17
453.548	2559.45
453.759	3081.68
453.97	3399.12
454.181	2991.57
454.391	2756.05
454.602	3071.44
454.813	3102.16
455.024	2958.8
455.235	2801.11
455.445	3081.68
455.656	3040.72
455.867	3014.1
456.078	2956.75
456.288	3024.34
456.499	3222.99
456.71	2948.56
456.921	3306.96
457.131	3347.92
457.342	3225.04
457.553	3083.73
457.763	2985.43
457.974	3493.32
458.184	3395.02
458.395	3063.25
458.606	3165.65
458.816	3761.61
459.027	3964.36
459.237	3423.69
459.448	3184.08
459.659	3765.7
459.869	4058.56
460.08	3235.28
460.29	3741.13
460.501	4175.3
460.711	3585.48
460.922	3268.05
461.132	3689.93
461.343	4249.02
461.553	3364.3
461.764	3534.28
461.974	3585.48
462.184	4023.75
462.395	3927.49
462.605	3823.05
462.816	3632.58
463.026	4019.65
463.236	4367.81
463.447	3755.46
463.657	3851.72
463.867	4367.81
464.078	4064.71
464.288	4074.95
464.498	4177.34
464.709	4275.65
464.919	4228.54
465.129	4298.17
465.339	4064.71
465.55	4586.94
465.76	4529.59
465.97	4255.17
466.18	4099.52
466.391	4859.32
466.601	4806.07
466.811	4734.39
467.021	4392.38
467.231	4795.83
467.441	5000.63
467.651	4785.59
467.862	4636.09
468.072	5076.4
468.282	5430.7
468.492	4734.39
468.702	4920.76
468.912	5070.26
469.122	5750.18
469.332	5318.06
469.542	5037.49
469.752	5600.68
469.962	5496.24
470.172	5219.76
470.382	5363.12
470.592	5944.74
470.802	6012.32
471.012	5692.84
471.222	5606.83
471.432	6137.25
471.642	5907.88
471.852	6075.81
472.062	5737.9
472.272	6028.71
472.482	5739.94
472.691	5930.41
472.901	5836.2
473.111	6352.29
473.321	6911.38
473.531	6258.08
473.741	6278.56
473.95	6788.5
474.16	6686.11
474.37	6716.83
474.58	6409.63
474.79	7216.53
474.999	7071.12
475.209	6622.62
475.419	6899.09
475.628	7046.55
475.838	7581.07
476.048	7237.01
476.258	6933.91
476.467	7761.29
476.677	7404.94
476.886	7570.83
477.096	7705.99
477.306	7443.85
477.515	8199.55
477.725	7665.04
477.935	7880.07
478.144	8287.62
478.354	7837.06
478.563	7970.18
478.773	7925.13
478.982	8473.98
479.192	8895.86
479.401	8437.12
479.611	8134.02
479.82	8326.53
480.03	8596.86
480.239	8560
480.449	8549.76
480.658	9262.45
480.868	9080.18
481.077	8885.62
481.287	8975.74
481.496	9235.83
481.705	9801.07
481.915	9344.37
482.124	9457.01
482.333	9618.8
482.543	10188.13
482.752	9715.05
482.961	9629.04
483.171	9987.43
483.38	9897.32
483.589	10210.66
483.799	9899.37
484.008	10151.27
484.217	10644.83
484.426	10458.46
484.636	10354.02
484.845	10798.43
485.054	10315.11
485.263	10634.59
485.472	10612.06
485.682	11332.95
485.891	11040.09
486.1	10630.49
486.309	11089.24
486.518	11343.19
486.727	11627.85
486.936	10943.83
487.146	11066.71
487.355	11879.75
487.564	11248.98
487.773	11480.4
487.982	11523.41
488.191	11478.35
488.4	12045.64
488.609	11769.16
488.818	11730.25
489.027	12553.54
489.236	12535.1
489.445	12375.36
489.654	11836.75
489.863	12625.22
490.072	12596.54
490.281	12555.58
490.49	12559.68
490.698	13028.67
490.907	12942.65
491.116	12639.55
491.325	12666.17
491.534	13139.26
491.743	13210.93
491.952	12924.22
492.16	13229.37
492.369	13423.92
492.578	13518.13
492.787	13346.1
492.996	13399.35
493.204	13305.14
493.413	14302.5
493.622	13258.04
493.831	13401.4
494.039	14308.65
494.248	13782.32
494.457	13684.02
494.665	13827.37
494.874	14329.13
495.083	14802.21
495.291	14216.49
495.5	13829.42
495.709	14593.31
495.917	14583.07
496.126	14413.09
496.335	14157.1
496.543	14679.33
496.752	14748.96
496.96	14925.08
497.169	14587.17
497.377	15088.92
497.586	15310.1
497.794	14943.52
498.003	14605.6
498.211	15265.05
498.42	15619.35
498.628	15414.55
498.837	15236.38
499.045	15707.41
499.254	15529.24
499.462	15297.81
499.671	15492.37
499.879	16030.99
500.087	16250.12
500.296	15605.01
500.504	15676.69
500.713	16389.38
500.921	16667.91
501.129	15836.43
501.338	15844.62
501.546	16432.39
501.754	16502.02
501.962	16174.35
502.171	15899.92
502.379	16592.13
502.587	16790.78
502.795	16475.4
503.004	16190.73
503.212	16616.71
503.42	16856.32
503.628	16461.06
503.837	16790.78
504.045	16958.72
504.253	17423.61
504.461	16665.86
504.669	16684.29
504.877	17237.24
505.085	17829.1
505.294	17173.75
505.502	17261.82
505.71	17560.82
505.918	17865.97
506.126	17132.79
506.334	17296.63
506.542	17685.75
506.75	17341.69
506.958	17523.96
507.166	17865.97
507.374	17804.53
507.582	18250.99
507.79	17812.72
507.998	17898.73
508.206	18134.25
508.414	18369.77
508.622	17972.46
508.83	17945.84
509.037	18930.91
509.245	18267.37
509.453	18222.31
509.661	18017.52
509.869	18713.83
510.077	18451.69
510.285	18406.63
510.492	18072.81
510.7	19393.75
510.908	18511.08
511.116	18617.57
511.324	18453.73
511.531	18355.43
511.739	19102.94
511.947	18939.1
512.155	18840.8
512.362	19221.72
512.57	18928.86
512.778	19035.36
512.985	18461.93
513.193	19383.51
513.401	19543.25
513.608	18978.01
513.816	19090.65
514.024	19479.77
514.231	19633.36
514.439	19025.12
514.646	19502.29
514.854	19905.74
515.061	19516.63
515.269	19512.53
515.477	19481.81
515.684	19786.96
515.892	19944.66
516.099	19479.77
516.307	19371.22
516.514	20464.84
516.722	20319.43
516.929	19834.07
517.136	19975.38
517.344	20458.7
517.551	20145.36
517.759	20012.24
517.966	20225.23
518.173	20002
518.381	20444.36
518.588	20350.15
518.796	20421.83
519.003	20782.27
519.21	20827.33
519.418	20481.22
519.625	20739.27
519.832	20528.33
520.039	21345.47
520.247	20673.73
520.454	20557
520.661	21284.03
520.868	21140.67
521.076	21042.37
521.283	20827.33
521.49	21732.53
521.697	21497.02
521.904	20954.3
522.112	21437.62
522.319	21587.13
522.526	21621.94
522.733	21265.6
522.94	21449.91
523.147	21527.74
523.354	21859.51
523.561	21546.17
523.768	21523.64
523.975	22209.71
524.183	21949.62
524.39	22181.04
524.597	21839.03
524.804	22113.45
525.011	21939.38
525.218	22068.4
525.425	22234.28
525.632	22717.61
525.838	22119.6
526.045	22383.79
526.252	22248.62
526.459	23565.46
526.666	23516.31
526.873	22690.98
527.08	22346.92
527.287	23116.96
527.494	22572.2
527.701	22781.09
527.907	22326.44
528.114	23250.08
528.321	22891.68
528.528	23018.66
528.735	23194.78
528.941	23170.21
529.148	22910.11
529.355	23159.97
529.562	22963.36
529.768	23651.48
529.975	22987.94
530.182	23284.89
530.388	23045.28
530.595	23530.65
530.802	23225.5
531.008	23854.23
531.215	23727.25
531.422	24618.12
531.628	24847.49
531.835	23751.83
532.042	23887
532.248	24190.09
532.455	24075.41
532.661	23907.48
532.868	23893.14
533.074	24370.32
533.281	24480.91
533.487	24163.47
533.694	23936.15
533.9	24712.33
534.107	24525.96
534.313	24136.85
534.52	24276.11
534.726	25134.21
534.933	25072.77
535.139	24476.81
535.345	24374.41
535.552	25105.54
535.758	25105.54
535.965	25003.14
536.171	24781.96
536.377	25603.19
536.584	25724.02
536.79	24870.02
536.996	25418.88
537.203	25578.62
537.409	25443.45
537.615	25189.5
537.821	25377.92
538.028	26047.6
538.234	25844.85
538.44	25611.39
538.646	25422.97
538.853	26047.6
539.059	25705.59
539.265	26236.02
539.471	25681.02
539.677	26289.26
539.883	26352.75
540.09	26098.8
540.296	26686.57
540.502	26416.24
540.708	26074.23
540.914	26428.52
541.12	25928.82
541.326	26793.06
541.532	27012.2
541.738	26360.94
541.944	26520.68
542.15	27231.33
542.356	26834.02
542.562	26895.46
542.768	26639.47
542.974	27626.59
543.18	27690.07
543.386	27028.58
543.592	26872.93
543.798	27499.61
544.004	27688.03
544.21	27100.26
544.415	27309.15
544.621	27747.42
544.827	27679.83
545.033	27567.2
545.239	27714.65
545.445	27753.56
545.651	27708.51
545.856	27790.42
546.062	27739.22
546.268	27409.5
546.474	27622.49
546.679	27391.07
546.885	27767.9
547.091	27735.13
547.297	28265.55
547.502	27522.14
547.708	27532.38
547.914	27790.42
548.119	28144.72
548.325	27700.31
548.531	27761.75
548.736	28736.59
548.942	27868.25
549.147	28007.51
549.353	28331.09
549.559	28834.89
549.764	28634.19
549.97	28077.14
550.175	28255.31
550.381	29160.52
550.586	28154.96
550.792	28326.99
550.997	28642.38
551.203	28834.89
551.408	28937.29
551.614	28763.21
551.819	29017.16
552.025	29817.91
552.23	29666.36
552.435	28638.28
552.641	29580.35
552.846	29224
553.052	29596.73
553.257	29455.42
553.462	29215.81
553.668	29256.77
553.873	30032.95
554.078	29187.14
554.283	29670.46
554.489	29998.13
554.694	29918.26
554.899	29490.24
555.105	30030.9
555.31	29951.03
555.515	30114.87
555.72	30270.51
555.925	29975.61
556.131	30645.29
556.336	30051.38
556.541	29781.05
556.746	30366.77
556.951	30563.37
557.156	31036.45
557.361	30143.54
557.567	30553.13
557.772	31202.34
557.977	30710.83
558.182	30342.19
558.387	30215.22
558.592	30411.82
558.797	30993.45
559.002	30518.32
559.207	30735.4
559.412	30657.58
559.617	31630.37
559.822	30612.52
560.027	30446.64
560.232	31036.45
560.437	30850.09
560.642	30725.16
560.847	30753.83
561.051	31198.24
561.256	31077.41
561.461	30757.93
561.666	30952.49
561.871	31515.68
562.076	31792.15
562.281	31185.96
562.485	30645.29
562.69	31337.51
562.895	31521.82
563.1	30868.52
563.305	31355.94
563.509	31812.63
563.714	31896.6
563.919	31175.72
564.123	31284.26
564.328	31497.25
564.533	32183.32
564.737	31222.82
564.942	31415.33
565.147	32402.45
565.351	32539.66
565.556	31380.51
565.761	31687.71
565.965	32197.65
566.17	31788.06
566.374	31724.57
566.579	31661.08
566.784	31804.44
566.988	32257.04
567.193	31843.35
567.397	31935.51
567.602	31966.23
567.806	32197.65
568.011	32332.82
568.215	32193.56
568.42	32402.45
568.624	32250.9
568.828	32465.94
569.033	32203.8
569.237	32986.12
569.442	33068.04
569.646	31704.09
569.85	32517.14
570.055	32836.62
570.259	32717.84
570.463	32853
570.668	32582.67
570.872	32848.91
571.076	33195.01
571.281	33008.65
571.485	32881.67
571.689	33162.25
571.893	33412.1
572.098	33291.27
572.302	33074.18
572.506	33502.21
572.71	33274.88
572.914	32979.98
573.119	32896.01
573.323	33334.28
573.527	33627.13
573.731	33104.9
573.935	33340.42
574.139	33672.19
574.343	33330.18
574.547	33213.45
574.751	33256.45
574.955	33983.48
575.159	33971.19
575.364	33240.07
575.568	33500.16
575.772	33721.34
575.976	34024.44
576.18	33326.08
576.383	34065.4
576.587	34151.41
576.791	34098.17
576.995	33524.74
577.199	33317.89
577.403	34087.93
577.607	34460.66
577.811	34403.32
578.015	34087.93
578.219	34374.64
578.422	34450.42
578.626	34427.89
578.83	34485.23
579.034	34534.39
579.238	34653.17
579.442	34425.84
579.645	35128.3
579.849	34585.58
580.053	35011.56
580.257	34313.2
580.46	34280.44
580.664	34808.81
580.868	34499.57
581.071	34798.57
581.275	34774
581.479	34964.46
581.682	35175.4
581.886	34876.4
582.09	35324.9
582.293	35464.16
582.497	35568.61
582.7	35347.43
582.904	35089.38
583.107	34925.55
583.311	35498.98
583.515	35492.83
583.718	35269.61
583.922	35986.39
584.125	36133.85
584.329	35386.34
584.532	35709.92
584.735	36275.16
584.939	35517.41
585.142	35036.14
585.346	35423.2
585.549	36252.63
585.753	35986.39
585.956	35449.83
586.159	35820.51
586.363	36418.52
586.566	36533.2
586.769	36002.78
586.973	36008.92
587.176	36234.2
587.379	36439
587.582	36363.22
587.786	36381.65
587.989	36357.08
588.192	37333.96
588.395	36373.46
588.599	36723.66
588.802	36578.26
589.005	36725.71
589.208	36658.13
589.411	36801.49
589.615	36793.29
589.818	37403.59
590.021	36918.22
590.224	36791.25
590.427	37293
590.63	37237.7
590.833	36844.49
591.036	37039.05
591.239	37739.46
591.442	37237.7
591.645	37678.02
591.848	37241.8
592.051	37563.33
592.254	37657.54
592.457	37217.22
592.66	37387.21
592.863	37663.68
593.066	37841.85
593.269	37667.78
593.472	37848
593.675	37829.57
593.878	38153.15
594.081	38020.03
594.284	37628.87
594.486	38167.48
594.689	38151.1
594.892	37823.42
595.095	37944.25
595.298	37872.57
595.5	37977.02
595.703	38312.89
595.906	38472.63
596.109	38419.38
596.311	38998.96
596.514	38017.98
596.717	38282.17
596.92	38837.17
597.122	39070.64
597.325	38419.38
597.528	38462.39
597.73	39478.18
597.933	38630.32
598.136	38423.48
598.338	37841.85
598.541	39029.68
598.743	39418.79
598.946	38644.66
599.148	39218.09
599.351	39373.74
599.554	39052.2
599.756	38788.02
599.959	39189.42
600.161	38958
600.363	39947.17
600.566	39162.79
600.768	38839.22
600.971	39773.09
601.173	39361.45
601.376	39103.4
601.578	39213.99
601.78	39297.96
601.983	40020.89
602.185	39166.89
602.388	39809.95
602.59	39564.2
602.792	39631.78
602.995	39351.21
603.197	39373.74
603.399	39918.49
603.601	39580.58
603.804	39263.14
604.006	39713.7
604.208	39639.97
604.41	39373.74
604.613	39725.99
604.815	39322.54
605.017	40438.68
605.219	39599.01
605.421	39738.27
605.623	39707.55
605.826	40373.14
606.028	40283.03
606.23	39615.4
606.432	39981.98
606.634	41073.55
606.836	40469.4
607.038	39756.71
607.24	40285.08
607.442	40074.14
607.644	40184.73
607.846	39543.72
608.048	39730.08
608.25	40092.57
608.452	40033.18
608.654	40215.45
608.856	39695.27
609.058	40184.73
609.26	40735.63
609.462	40287.13
609.664	40397.72
609.866	40420.25
610.067	40532.89
610.269	40065.95
610.471	40037.28
610.673	40543.13
610.875	40713.11
611.077	40125.34
611.278	40244.12
611.48	40225.69
611.682	40913.81
611.884	40565.65
612.085	39832.48
612.287	40553.37
612.489	40778.64
612.69	40373.14
612.892	40154.01
613.094	40702.87
613.295	40283.03
613.497	40080.28
613.699	40024.99
613.9	41094.03
614.102	41122.7
614.304	40215.45
614.505	40164.25
614.707	40639.38
614.908	40579.99
615.11	40178.59
615.311	40276.89
615.513	40393.62
615.714	40975.25
615.916	40426.39
616.117	40321.94
616.319	40235.93
616.52	41008.01
616.722	40461.21
616.923	40418.2
617.124	41540.49
617.326	41008.01
617.527	40760.21
617.729	40637.33
617.93	40821.65
618.131	41393.03
618.333	40659.86
618.534	40747.92
618.735	40866.7
618.937	41124.75
619.138	40457.11
619.339	40557.46
619.54	40809.36
619.742	41245.58
619.943	40821.65
620.144	41032.59
620.345	41304.97
620.546	41089.93
620.748	41362.31
620.949	41001.87
621.15	41237.39
621.351	41053.07
621.552	40905.62
621.753	40864.66
621.954	40919.95
622.155	41100.17
622.356	41016.21
622.558	41132.94
622.759	41225.1
622.96	41384.84
623.161	40717.2
623.362	41239.43
623.563	41409.42
623.764	41409.42
623.965	41356.17
624.166	41683.84
624.366	41247.63
624.567	41180.04
624.768	40876.94
624.969	40897.42
625.17	41458.57
625.371	41675.65
625.572	41063.31
625.773	40967.05
625.973	41507.72
626.174	41835.39
626.375	41472.9
626.576	41710.47
626.777	41497.48
626.977	42011.52
627.178	41634.69
627.379	41227.15
627.58	41436.04
627.78	41298.83
627.981	41401.22
628.182	41595.78
628.382	42154.88
628.583	41329.55
628.784	41116.56
628.984	41083.79
629.185	41599.88
629.386	41218.96
629.586	41954.18
629.787	41653.12
629.987	41857.92
630.188	42007.42
630.388	41761.67
630.589	41714.56
630.79	42169.21
630.99	42042.24
631.191	41765.76
631.391	42425.21
631.591	41859.97
631.792	42138.49
631.992	42081.15
632.193	41915.26
632.393	42021.76
632.594	42181.5
632.794	41585.54
632.994	41945.98
633.195	42390.39
633.395	42136.45
633.595	41755.52
633.796	42728.31
633.996	42302.33
634.196	42480.5
634.397	42156.92
634.597	42077.05
634.797	42531.7
634.997	42449.78
635.198	42007.42
635.398	41773.95
635.598	42572.66
635.798	42462.07
635.998	42165.12
636.199	41782.15
636.399	42220.41
636.599	42138.49
636.799	42402.68
636.999	42374.01
637.199	42695.54
637.399	42599.29
637.599	42085.25
637.799	42242.94
637.999	42724.21
638.199	43033.46
638.399	42005.38
638.599	42165.12
638.799	42890.1
638.999	43156.33
639.199	42312.57
639.399	42795.89
639.599	43293.55
639.799	42240.89
639.999	42726.26
640.199	42177.4
640.399	42969.97
640.599	41720.71
640.799	43051.89
640.998	42906.48
641.198	42965.87
641.398	42896.24
641.598	43281.26
641.798	42974.06
641.997	43508.58
642.197	42742.64
642.397	43053.94
642.597	43117.42
642.796	43449.19
642.996	43391.85
643.196	42994.54
643.395	43023.22
643.595	43432.81
643.795	42482.55
643.994	43133.81
644.194	43103.09
644.394	43565.93
644.593	43463.53
644.793	43228.01
644.992	42929.01
645.192	43557.74
645.392	43164.53
645.591	43279.21
645.791	43129.71
645.99	43424.62
646.19	43527.02
646.389	43340.65
646.589	43271.02
646.788	43506.54
646.987	43987.81
647.187	43957.09
647.386	43520.87
647.586	43959.14
647.785	44024.67
647.984	43129.71
648.184	43854.69
648.383	43737.96
648.582	43240.3
648.782	43783.01
648.981	43807.59
649.18	43522.92
649.38	43866.98
649.579	43494.25
649.778	43254.64
649.977	44094.3
650.177	44221.28
650.376	43780.96
650.575	43549.54
650.774	44047.2
650.973	43494.25
651.173	43182.96
651.372	43672.42
651.571	43897.7
651.77	43998.05
651.969	43553.64
652.168	43901.79
652.367	43576.17
652.566	43864.93
652.765	43918.18
652.964	44376.92
653.163	44252
653.362	44180.32
653.561	43889.51
653.76	44082.02
653.959	44096.35
654.158	44473.18
654.357	43629.41
654.556	43496.3
654.755	44530.52
654.954	44223.33
655.153	43602.79
655.352	44329.82
655.551	44374.87
655.749	44161.89
655.948	43983.71
656.147	44327.77
656.346	44059.49
656.545	44569.43
656.743	44043.1
656.942	44151.65
657.141	44370.78
657.34	44307.29
657.538	44202.85
657.737	44620.63
657.936	44452.7
658.135	44358.49
658.333	44084.06
658.532	44252
658.731	44964.69
658.929	44616.54
659.128	44344.16
659.326	44247.9
659.525	44991.31
659.724	43936.61
659.922	44456.79
660.121	44448.6
660.319	44299.1
660.518	44352.35
660.716	44241.76
660.915	44446.55
661.113	44673.88
661.312	44270.43
661.51	44421.98
661.709	44479.32
661.907	44673.88
662.105	44612.44
662.304	44421.98
662.502	44446.55
662.701	44903.25
662.899	44581.72
663.097	44503.9
663.296	44301.15
663.494	44905.3
663.692	44782.42
663.891	44376.92
664.089	44368.73
664.287	44307.29
664.485	44661.59
664.684	44880.72
664.882	44311.39
665.08	44524.38
665.278	44596.06
665.476	44112.73
665.675	44811.09
665.873	44815.19
666.071	45048.66
666.269	44802.9
666.467	44563.29
666.665	44743.51
666.863	44227.42
667.061	44493.66
667.259	44389.21
667.457	45038.42
667.655	44737.37
667.853	43873.12
668.051	44102.5
668.249	44395.35
668.447	44884.82
668.645	44495.71
668.843	44639.06
669.041	44911.44
669.239	44168.03
669.437	44659.54
669.635	44665.69
669.833	44903.25
670.031	44641.11
670.229	44342.11
670.426	44528.47
670.624	44624.73
670.822	44448.6
671.02	44333.92
671.218	44313.44
671.415	44243.8
671.613	44778.32
671.811	44098.4
672.009	44385.11
672.206	44835.67
672.404	44768.08
672.602	44577.62
672.799	44071.78
672.997	44854.1
673.195	44895.06
673.392	44419.93
673.59	44256.09
673.788	44403.55
673.985	43783.01
674.183	44421.98
674.38	44079.97
674.578	44741.46
674.775	44409.69
674.973	43942.75
675.17	44022.62
675.368	44735.32
675.565	44542.81
675.763	44186.46
675.96	44204.89
676.158	44534.62
676.355	43748.2
676.553	44200.8
676.75	44004.19
676.947	44319.58
677.145	44131.17
677.342	44118.88
677.539	43883.36
677.737	44198.75
677.934	44698.45
678.131	43895.65
678.329	43952.99
678.526	44172.13
678.723	44002.14
678.92	44170.08
679.118	43805.54
679.315	43985.76
679.512	44178.27
679.709	43557.74
679.906	43508.58
680.104	44219.23
680.301	43346.79
680.498	43752.29
680.695	43311.98
680.892	43424.62
681.089	43598.69
681.286	43711.33
681.483	43033.46
681.68	43615.08
681.877	43909.99
682.075	43340.65
682.272	43551.59
682.469	43586.41
682.665	43496.3
682.862	43252.59
683.059	43414.38
683.256	43211.63
683.453	43246.44
683.65	43207.53
683.847	43731.81
684.044	43508.58
684.241	43463.53
684.438	43713.38
684.635	43092.85
684.831	43938.66
685.028	43787.11
685.225	43023.22
685.422	43209.58
685.619	43375.47
685.815	43430.76
686.012	43600.74
686.209	42795.89
686.405	43150.19
686.602	43670.37
686.799	42847.09
686.996	43156.33
687.192	42822.51
687.389	43803.49
687.586	42791.8
687.782	43223.92
687.979	43381.61
688.175	43199.34
688.372	42929.01
688.568	42816.37
688.765	42818.42
688.962	43271.02
689.158	42918.77
689.355	43101.04
689.551	42730.36
689.748	42703.73
689.944	42666.87
690.14	42619.77
690.337	42687.35
690.533	42888.05
690.73	42271.61
690.926	42904.43
691.123	42505.08
691.319	42484.6
691.515	42195.84
691.712	42331
691.908	43015.02
692.104	42646.39
692.301	42681.2
692.497	42408.82
692.693	42957.68
692.889	43101.04
693.086	42326.91
693.282	41927.55
693.478	42429.3
693.674	43031.41
693.87	42054.53
694.067	42165.12
694.263	42488.7
694.459	42259.32
694.655	42032
694.851	42343.29
695.047	42244.99
695.243	42730.36
695.439	42191.74
695.635	42279.8
695.831	42115.97
696.027	42165.12
696.224	41991.04
696.42	42228.6
696.615	42687.35
696.811	42204.03
697.007	42326.91
697.203	41851.78
697.399	42052.48
697.595	42447.74
697.791	41433.99
697.987	41618.31
698.183	41778.05
698.379	41460.62
698.575	41956.22
698.77	41804.67
698.966	41886.59
699.162	42011.52
699.358	41399.18
699.554	41388.94
699.749	41986.94
699.945	42036.09
700.141	41374.6
700.337	42060.67
700.532	41733
700.728	41376.65
700.924	41573.25
701.119	41075.6
701.315	41319.31
701.511	41429.9
701.706	41386.89
701.902	40977.29
702.097	41702.28
702.293	41542.53
702.489	41753.47
702.684	41413.51
702.88	41124.75
703.075	41407.37
703.271	40989.58
703.466	41169.8
703.662	41069.45
703.857	41802.63
704.053	41429.9
704.248	41139.08
704.443	41364.36
704.639	41466.76
704.834	41196.43
705.03	40932.24
705.225	41436.04
705.42	41499.53
705.616	41091.98
705.811	40557.46
706.006	41223.05
706.202	40788.88
706.397	40866.7
706.592	40754.07
706.787	40676.24
706.983	40723.35
707.178	41188.24
707.373	40922
707.568	41161.61
707.763	41149.32
707.959	41126.8
708.154	40922
708.349	41061.26
708.544	41198.48
708.739	40991.63
708.934	40543.13
709.129	41388.94
709.324	40817.55
709.519	40604.56
709.714	40414.1
709.909	41188.24
710.104	40633.24
710.299	40543.13
710.494	40623
710.689	40815.51
710.884	40207.26
711.079	40614.8
711.274	40446.87
711.469	40987.53
711.664	40762.26
711.859	40483.73
712.054	40876.94
712.249	40420.25
712.443	40878.99
712.638	40313.75
712.833	39957.41
713.028	40698.77
713.223	40278.94
713.417	40833.94
713.612	40328.09
713.807	41038.73
714.002	41194.38
714.196	40270.75
714.391	40328.09
714.586	40590.23
714.78	40119.2
714.975	40405.91
715.17	40309.66
715.364	40194.97
715.559	40524.69
715.754	39328.68
715.948	39693.22
716.143	40012.7
716.337	39988.13
716.532	40237.98
716.726	39697.31
716.921	39836.58
717.115	40401.82
717.31	39553.96
717.504	40213.4
717.699	40194.97
717.893	39990.17
718.088	39367.59
718.282	39687.07
718.476	39773.09
718.671	39443.37
718.865	39738.27
719.059	39066.54
719.254	39605.16
719.448	39713.7
719.642	40229.79
719.837	39021.48
720.031	39510.95
720.225	39371.69
720.419	39072.68
720.614	39105.45
720.808	39599.01
721.002	39617.44
721.196	38869.93
721.39	39304.1
721.585	39621.54
721.779	39072.68
721.973	38755.25
722.167	38628.27
722.361	38845.36
722.555	39437.22
722.749	38615.99
722.943	38671.28
723.137	38704.05
723.331	39162.79
723.525	38515.64
723.719	38882.22
723.913	39201.71
724.107	38972.33
724.301	38415.29
724.495	38894.51
724.689	39201.71
724.883	39089.07
725.077	38718.39
725.271	39037.87
725.465	38857.65
725.659	38615.99
725.853	39121.84
726.046	38314.94
726.24	38206.39
726.434	38693.81
726.628	38376.37
726.822	38831.02
727.015	39138.22
727.209	38683.57
727.403	38398.9
727.596	38384.57
727.79	38529.97
727.984	38796.21
728.177	38349.75
728.371	38558.64
728.565	38443.96
728.758	38835.12
728.952	38382.52
729.146	38699.95
729.339	39297.96
729.533	38632.37
729.726	38677.43
729.92	38355.89
730.113	38843.31
730.307	39082.92
730.5	38263.74
730.694	38448.05
730.887	38656.95
731.081	38992.81
731.274	38583.22
731.468	38067.13
731.661	38417.33
731.854	38910.89
732.048	38464.44
732.241	38101.95
732.435	38296.5
732.628	38740.91
732.821	38204.35
733.014	37962.68
733.208	38192.06
733.401	39074.73
733.594	38407.09
733.788	38103.99
733.981	38820.78
734.174	38724.53
734.367	38196.15
734.56	38570.93
734.754	38661.04
734.947	38761.39
735.14	38120.38
735.333	38452.15
735.526	38935.47
735.719	38263.74
735.912	38222.78
736.105	38302.65
736.298	38667.19
736.491	38284.22
736.684	38048.7
736.877	38206.39
737.07	38097.85
737.263	38562.74
737.456	38130.62
737.649	37897.15
737.842	38198.2
738.035	38149.05
738.228	37977.02
738.421	38030.27
738.614	38755.25
738.807	38284.22
739	37592
739.192	37628.87
739.385	37991.36
739.578	38071.23
739.771	38017.98
739.964	37872.57
740.156	38077.37
740.349	38038.46
740.542	37903.29
740.735	37452.74
740.927	37467.08
741.12	38093.75
741.313	37336.01
741.505	37956.54
741.698	37403.59
741.891	37749.7
742.083	37704.64
742.276	37800.9
742.468	37747.65
742.661	37659.59
742.854	37567.43
743.046	37665.73
743.239	37964.73
743.431	38042.56
743.624	37268.42
743.816	37233.61
744.009	37731.26
744.201	37422.02
744.393	37712.83
744.586	37725.12
744.778	37888.96
744.971	37235.66
745.163	37485.51
745.355	37485.51
745.548	37348.29
745.74	37405.64
745.932	37125.07
746.125	37118.92
746.317	38001.6
746.509	37661.63
746.702	37323.72
746.894	37053.39
747.086	37346.25
747.278	37858.24
747.471	37297.09
747.663	37182.41
747.855	37544.9
748.047	37649.35
748.239	37223.37
748.431	37120.97
748.623	37649.35
748.815	37329.86
749.008	37086.15
749.2	37174.22
749.392	37428.16
749.584	37325.77
749.776	37045.19
749.968	37485.51
750.16	37829.57
750.352	36998.09
750.544	36852.69
750.736	36631.51
750.928	37352.39
751.12	36907.98
751.311	36709.33
751.503	36817.87
751.695	36996.04
751.887	37120.97
752.079	37071.82
752.271	36830.16
752.463	38054.84
752.654	36815.82
752.846	36996.04
753.038	36563.92
753.23	36752.34
753.421	36973.52
753.613	36013.02
753.805	36907.98
753.997	36873.17
754.188	36742.1
754.38	36111.32
754.572	36398.04
754.763	36557.78
754.955	36723.66
755.146	36570.07
755.338	35939.29
755.53	36244.44
755.721	36328.41
755.913	35961.82
756.104	35783.65
756.296	36318.17
756.487	36271.06
756.679	36121.56
756.87	36139.99
757.062	35658.72
757.253	36258.77
757.445	35855.32
757.636	36183
757.827	35890.14
758.019	37133.26
758.21	35298.28
758.401	35693.54
758.593	36236.25
758.784	36393.94
758.975	35427.3
759.167	35367.91
759.358	35546.08
759.549	36137.94
759.74	35212.26
759.932	35240.93
760.123	35740.64
760.314	35386.34
760.505	34851.82
760.696	34931.69
760.888	36039.64
761.079	35308.52
761.27	34782.19
761.461	35285.99
761.652	35568.61
761.843	35384.29
762.034	34952.17
762.225	35154.92
762.416	34954.22
762.607	34962.41
762.798	34378.74
762.989	35079.14
763.18	35644.38
763.371	34769.9
763.562	34550.77
763.753	34814.96
763.944	35089.38
764.135	34774
764.326	34503.67
764.517	34636.78
764.708	34647.02
764.899	34599.92
765.089	33969.15
765.28	34214.9
765.471	34794.48
765.662	34673.65
765.853	34606.06
766.043	33682.43
766.234	34653.17
766.425	34245.62
766.615	34167.8
766.806	33895.42
766.997	34458.61
767.187	33932.28
767.378	33989.63
767.569	33520.64
767.759	33745.92
767.95	33977.34
768.141	33440.77
768.331	33596.42
768.522	33510.4
768.712	33872.89
768.903	33707.01
769.093	33674.24
769.284	33977.34
769.474	33696.77
769.665	33041.42
769.855	33094.66
770.046	34028.54
770.236	33217.54
770.426	33293.32
770.617	33180.68
770.807	33176.58
770.998	33463.3
771.188	33487.87
771.378	32758.8
771.569	33405.95
771.759	33121.29
771.949	32613.39
772.139	32762.89
772.33	32969.74
772.52	33405.95
772.71	32775.18
772.9	32408.59
773.09	33354.76
773.281	33397.76
773.471	32236.56
773.661	32564.24
773.851	33020.94
774.041	32498.7
774.231	32355.35
774.421	32498.7
774.611	32932.87
774.802	32664.59
774.992	32502.8
775.182	32384.02
775.372	32308.24
775.562	32480.27
775.752	32506.9
775.942	31972.38
776.131	32799.76
776.321	32293.91
776.511	32035.86
776.701	31872.03
776.891	32455.7
777.081	31708.19
777.271	31734.81
777.461	31730.72
777.651	31906.84
777.84	32128.02
778.03	31476.77
778.22	31462.43
778.41	32465.94
778.599	31845.4
778.789	31679.52
778.979	31700
779.169	31775.77
779.358	31452.19
779.548	31910.94
779.738	31282.21
779.927	31652.89
780.117	31540.25
780.307	31024.17
780.496	30948.39
780.686	31478.82
780.875	31892.51
781.065	31167.52
781.254	31126.57
781.444	30907.43
781.633	30823.47
781.823	30802.99
782.012	30932.01
782.202	30913.58
782.391	30915.62
782.581	30710.83
782.77	31095.85
782.96	31046.69
783.149	30762.03
783.338	30594.09
783.528	30270.51
783.717	30917.67
783.906	31228.96
784.096	30264.37
784.285	30696.49
784.474	30549.04
784.663	30618.67
784.853	30243.89
785.042	30241.84
785.231	30233.65
785.42	30657.58
785.61	30194.74
785.799	30211.12
785.988	30460.98
786.177	30123.06
786.366	30065.72
786.555	30254.13
786.744	30565.42
786.933	30321.71
787.122	29752.38
787.312	29895.74
787.501	29965.37
787.69	29930.55
787.879	29826.1
788.068	29701.18
788.257	29563.96
788.445	29729.85
788.634	29948.98
788.823	29459.52
789.012	30329.91
789.201	29895.74
789.39	29523.01
789.579	29217.86
789.768	29551.68
789.957	29887.54
790.145	29561.92
790.334	29287.49
790.523	29566.01
790.712	29365.31
790.9	29258.82
791.089	28873.8
791.278	29908.02
791.467	29344.83
791.655	29318.21
791.844	29559.87
792.033	28894.28
792.221	29359.17
792.41	29062.21
792.599	28515.4
792.787	29410.37
792.976	29262.91
793.164	28759.11
793.353	28693.58
793.541	29219.91
793.73	28890.18
793.918	29330.5
794.107	28240.98
794.295	28773.45
794.484	28580.94
794.672	28531.79
794.861	28507.21
795.049	28775.5
795.238	29195.33
795.426	28447.82
795.614	28304.46
795.803	28757.07
795.991	28793.93
796.179	28533.84
796.368	28251.22
796.556	29013.06
796.744	28406.86
796.932	28290.13
797.121	27749.46
797.309	28019.8
797.497	28619.85
797.685	28202.07
797.874	28355.66
798.062	28429.39
798.25	28621.9
798.438	28626
798.626	28277.84
798.814	28425.29
799.002	29045.83
799.19	28402.77
799.378	27956.31
799.566	28451.92
799.755	28701.77
799.943	28148.82
800.131	27683.93
800.318	28273.74
800.506	28372.05
800.694	28122.19
800.882	28175.44
801.07	28537.93
801.258	27976.79
801.446	28206.16
801.634	27751.51
801.822	28116.05
802.01	28390.48
802.197	28447.82
802.385	28185.68
802.573	28552.27
802.761	28394.57
802.949	28259.41
803.136	28220.5
803.324	28830.79
803.512	28329.04
803.699	28116.05
803.887	28171.35
804.075	28884.04
804.262	28433.49
804.45	28249.17
804.638	28005.46
804.825	28433.49
805.013	28216.4
805.201	28482.64
805.388	28359.76
805.576	28773.45
805.763	28853.32
805.951	28384.33
806.138	28435.53
806.326	29383.74
806.513	28783.69
806.701	28243.03
806.888	28212.31
807.075	28816.46
807.263	29060.16
807.45	28324.94
807.638	28728.39
807.825	29244.48
808.012	28589.13
808.2	28669
808.387	28773.45
808.574	28687.43
808.761	28953.67
808.949	28417.1
809.136	28746.83
809.323	28752.97
809.51	28818.5
809.698	28795.98
809.885	28394.57
810.072	29000.77
810.259	28992.58
810.446	28658.76
810.633	28775.5
810.82	29178.95
811.008	29359.17
811.195	28978.25
811.382	28542.03
811.569	28738.63
811.756	28720.2
811.943	28929.09
812.13	28685.39
812.317	28669
812.504	28746.83
812.691	28679.24
812.878	28953.67
813.064	29350.98
813.251	29258.82
813.438	28679.24
813.625	29035.59
813.812	28963.91
813.999	29115.46
814.186	28970.05
814.372	28877.9
814.559	28828.74
814.746	29197.38
814.933	28742.73
815.12	29023.3
815.306	28585.04
815.493	28499.02
815.68	28572.75
815.866	28611.66
816.053	29281.35
816.24	29250.63
816.426	28791.88
816.613	28890.18
816.799	28795.98
816.986	29232.19
817.173	28800.07
817.359	28636.24
817.546	28597.32
817.732	28372.05
817.919	28279.89
818.105	28474.45
818.292	28525.64
818.478	28628.04
818.665	28476.49
818.851	28081.24
819.037	29072.45
819.224	28582.99
819.41	28286.03
819.597	28187.73
819.783	28806.22
819.969	28982.34
820.156	28433.49
820.342	28415.05
820.528	29080.64
820.714	28488.78
820.901	28785.74
821.087	28445.77
821.273	28888.14
821.459	28202.07
821.646	28322.9
821.832	28085.33
822.018	28152.91
822.204	28097.62
822.39	28386.38
822.576	28152.91
822.762	28413.01
822.948	27792.47
823.134	27989.08
823.32	27835.48
823.507	27817.05
823.693	27931.73
823.879	28482.64
824.065	27593.82
824.25	28052.56
824.436	27888.73
824.622	27614.3
824.808	27638.87
824.994	27894.87
825.18	27354.21
825.366	27599.96
825.552	27251.81
825.738	27923.54
825.923	27759.7
826.109	27905.11
826.295	27483.23
826.481	27757.66
826.667	27714.65
826.852	27892.82
827.038	27165.79
827.224	28122.19
827.409	27995.22
827.595	27452.51
827.781	27450.46
827.966	27931.73
828.152	27538.52
828.338	27540.57
828.523	26877.03
828.709	26750.06
828.894	27636.83
829.08	26948.71
829.266	27053.16
829.451	27153.51
829.637	27507.8
829.822	26778.73
830.008	27094.11
830.193	27417.69
830.378	27802.71
830.564	26821.73
830.749	26948.71
830.935	27018.34
831.12	27049.06
831.305	26668.14
831.491	26993.76
831.676	27059.3
831.861	27210.85
832.047	26649.71
832.232	26594.41
832.417	27130.98
832.602	26797.16
832.788	26408.05
832.973	26551.4
833.158	26406
833.343	26666.09
833.528	26967.14
833.714	26635.37
833.899	26952.8
834.084	26985.57
834.269	26668.14
834.454	26182.77
834.639	26385.52
834.824	26504.3
835.009	26522.73
835.194	26979.43
835.379	26848.36
835.564	26342.51
835.749	26164.34
835.934	26088.56
836.119	26258.54
836.304	26500.2
836.489	25994.36
836.674	26252.4
836.859	25867.38
837.044	26621.03
837.228	25855.09
837.413	25719.93
837.598	26121.33
837.783	26045.55
837.968	25767.03
838.152	25625.72
838.337	25445.5
838.522	26055.79
838.707	26301.55
838.891	25752.7
839.076	25656.44
839.261	26059.89
839.445	25656.44
839.63	25736.31
839.815	25855.09
839.999	25308.29
840.184	25308.29
840.368	25306.24
840.553	25590.91
840.737	25605.24
840.922	25474.17
841.106	25255.04
841.291	25261.18
841.475	25347.2
841.66	24849.54
841.844	25218.18
842.029	26076.27
842.213	24947.84
842.397	24984.71
842.582	24976.51
842.766	25572.47
842.951	25402.49
843.135	24724.61
843.319	24765.57
843.504	24888.45
843.688	25058.43
843.872	24671.37
844.056	24964.23
844.241	25343.1
844.425	25007.23
844.609	24732.81
844.793	24169.62
844.977	25205.89
845.161	25083.01
845.346	24845.44
845.53	24609.93
845.714	24992.9
845.898	25175.17
846.082	24435.85
846.266	24200.33
846.45	24450.19
846.634	24669.32
846.818	24218.77
847.002	24667.27
847.186	24575.11
847.37	24374.41
847.554	23921.81
847.738	24052.88
847.922	24153.23
848.106	24706.18
848.29	23762.07
848.473	24138.9
848.657	24208.53
848.841	24112.27
849.025	24339.6
849.209	23760.02
849.392	23993.49
849.576	23936.15
849.76	23379.1
849.944	23831.7
850.127	24208.53
850.311	23657.62
850.495	23477.4
850.678	23358.62
850.862	24118.42
851.046	24134.8
851.229	23889.04
851.413	23106.72
851.596	23536.79
851.78	23768.21
851.964	23549.08
852.147	23405.72
852.331	24065.17
852.514	23649.43
852.698	23110.82
852.881	22820
853.065	23528.6
853.248	23268.51
853.431	23352.48
853.615	23207.07
853.798	23848.08
853.982	23600.28
854.165	23133.34
854.348	23196.83
854.532	23207.07
854.715	23344.28
854.898	23176.35
855.081	23112.86
855.265	23626.9
855.448	23710.87
855.631	22613.16
855.814	23028.9
855.997	23215.26
856.181	22836.39
856.364	22756.52
856.547	22682.79
856.73	23266.46
856.913	22729.89
857.096	22324.4
857.279	22531.24
857.462	22731.94
857.645	22801.57
857.828	22932.64
858.011	22817.96
858.194	22770.85
858.377	23245.98
858.56	22023.34
858.743	22643.88
858.926	22303.92
859.109	22428.84
859.292	22342.83
859.475	22246.57
859.658	22557.86
859.841	22627.49
860.023	21914.8
860.206	22015.15
860.389	22516.9
860.572	22631.59
860.755	21957.81
860.937	21814.45
861.12	21949.62
861.303	21789.88
861.486	21677.24
861.668	21771.44
861.851	21886.13
862.034	22252.72
862.216	21626.04
862.399	21525.69
862.581	21927.09
862.764	22166.7
862.947	21765.3
863.129	21546.17
863.312	21193.92
863.494	21882.03
863.677	21818.55
863.859	21132.48
864.042	21695.67
864.224	21857.46
864.406	21523.64
864.589	20765.89
864.771	21730.48
864.954	21173.44
865.136	20913.34
865.318	20735.17
865.501	21331.13
865.683	20774.08
865.865	21144.77
866.048	20753.6
866.23	21028.03
866.412	20849.86
866.594	20489.42
866.777	21009.6
866.959	21359.8
867.141	20860.1
867.323	20557
867.505	20763.84
867.687	20987.07
867.869	20892.87
868.052	20702.4
868.234	20655.3
868.416	20708.55
868.598	21298.36
868.78	20792.51
868.962	20688.07
869.144	20968.64
869.326	20909.25
869.508	20505.8
869.69	20493.51
869.872	20468.94
870.054	20827.33
870.236	20298.95
870.417	20276.43
870.599	20749.51
870.781	21030.08
870.963	20384.97
871.145	20618.44
871.327	20630.73
871.508	20708.55
871.69	20186.32
871.872	20538.57
872.054	20985.02
872.235	20661.44
872.417	20239.56
872.599	20212.94
872.78	20872.39
872.962	20784.32
873.144	20028.62
873.325	20417.74
873.507	20763.84
873.689	20251.85
873.87	20245.71
874.052	20372.68
874.233	20536.52
874.415	20845.76
874.596	20434.12
874.778	20088.01
874.959	20432.07
875.141	20769.99
875.322	20106.45
875.503	19881.17
875.685	20683.97
875.866	20188.36
876.048	20200.65
876.229	19870.93
876.41	20294.86
876.592	20597.96
876.773	20356.3
876.954	19948.75
877.136	20972.74
877.317	20485.32
877.498	20227.28
877.679	20239.56
877.86	20798.66
878.042	20344.01
878.223	20399.3
878.404	20602.05
878.585	20671.68
878.766	20962.5
878.947	20485.32
879.128	20608.2
879.309	20618.44
879.49	20884.67
879.672	20561.09
879.853	20268.23
880.034	20407.5
880.215	20690.12
880.396	20657.35
880.576	20495.56
880.757	20765.89
880.938	21036.22
881.119	20808.9
881.3	20427.98
881.481	20722.88
881.662	21761.2
881.843	20939.97
882.023	20829.38
882.204	20995.26
882.385	21015.74
882.566	20927.68
882.747	20667.59
882.927	21312.7
883.108	21040.32
883.289	20985.02
883.469	21228.73
883.65	21120.19
883.831	21349.56
884.011	20976.83
884.192	21398.71
884.373	21564.6
884.553	21220.54
884.734	21255.36
884.914	21218.49
885.095	21980.34
885.275	21728.44
885.456	21834.93
885.636	21181.63
885.817	21726.39
885.997	21224.64
886.178	21521.59
886.358	21519.54
886.538	21654.71
886.719	22500.52
886.899	21402.81
887.08	21720.24
887.26	22148.27
887.44	21843.12
887.621	21566.65
887.801	21431.48
887.981	22396.07
888.161	22222
888.342	21703.86
888.522	21963.95
888.702	21972.14
888.882	22138.03
889.062	21757.11
889.242	21556.41
889.423	22281.39
889.603	21990.58
889.783	22183.09
889.963	21515.45
890.143	21935.28
890.323	22060.21
890.503	21822.64
890.683	21847.22
890.863	22082.74
891.043	22025.39
891.223	22201.52
891.403	21800.12
891.583	21820.6
891.763	22039.73
891.943	22193.33
892.122	21529.78
892.302	22031.54
892.482	21986.48
892.662	21687.48
892.842	21972.14
893.022	21853.36
893.201	21404.86
893.381	21935.28
893.561	21755.06
893.741	22201.52
893.92	22127.79
894.1	21667
894.28	21580.98
894.459	21939.38
894.639	21894.32
894.819	21511.35
894.998	21875.89
895.178	21773.49
895.357	21982.38
895.537	21304.51
895.716	21531.83
895.896	21423.29
896.075	22410.41
896.255	21230.78
896.434	20942.02
896.614	21437.62
896.793	22004.91
896.973	21451.96
897.152	21431.48
897.331	21746.87
897.511	21664.95
897.69	20966.59
897.87	21587.13
898.049	21419.19
898.228	21554.36
898.407	21128.38
898.587	21359.8
898.766	20968.64
898.945	21200.06
899.124	21060.8
899.304	20886.72
899.483	21181.63
899.662	21212.35
899.841	20458.7
900.02	20563.14
900.199	21107.9
900.378	20882.63
900.557	20333.77
900.737	20401.35
900.916	20501.7
901.095	20939.97
901.274	20937.92
901.453	20122.83
901.632	20262.09
901.811	20122.83
901.989	19774.67
902.168	19840.21
902.347	20208.84
902.526	20370.63
902.705	19778.77
902.884	19807.44
903.063	20382.92
903.242	20214.99
903.42	19295.45
903.599	19641.56
903.778	20085.97
903.957	19911.89
904.135	19320.03
904.314	19283.16
904.493	19754.19
904.672	19682.52
904.85	19320.03
905.029	18992.35
905.207	19203.29
905.386	20004.05
905.565	18195.69
905.743	18570.47
905.922	18638.05
906.1	18875.62
906.279	18062.57
906.457	18392.3
906.636	18572.52
906.814	18455.78
906.993	18017.52
907.171	18099.44
907.35	18126.06
907.528	18513.13
907.707	17968.37
907.885	17497.33
908.063	18312.42
908.242	17771.76
908.42	17626.36
908.598	17444.09
908.777	17603.83
908.955	17378.55
909.133	17646.83
909.311	17452.28
909.49	17751.28
909.668	17829.1
909.846	17536.24
910.024	17505.52
910.202	17728.75
910.38	17972.46
910.559	17487.09
910.737	17550.58
910.915	17874.16
911.093	18314.47
911.271	18066.67
911.449	18461.93
911.627	18568.42
911.805	18836.7
911.983	18076.91
912.161	18185.45
912.339	18492.65
912.517	18826.46
912.695	18296.04
912.872	18420.97
913.05	18296.04
913.228	18496.74
913.406	18390.25
913.584	18259.18
913.762	18750.69
913.939	18613.48
914.117	18363.62
914.295	18302.18
914.473	18820.32
914.65	18642.15
914.828	18253.03
915.006	18263.27
915.184	18291.94
915.361	18457.83
915.539	18552.04
915.716	18289.9
915.894	18580.71
916.072	18646.24
916.249	18369.77
916.427	18242.79
916.604	18275.56
916.782	18443.49
916.959	18074.86
917.137	18017.52
917.314	18158.83
917.492	18365.67
917.669	18089.2
917.847	17999.09
918.024	17997.04
918.201	17970.41
918.379	17966.32
918.556	17939.69
918.733	18394.34
918.911	17956.08
919.088	18035.95
919.265	17911.02
919.442	18013.42
919.62	17708.27
919.797	17446.13
919.974	17601.78
920.151	17738.99
920.328	17702.13
920.506	17583.35
920.683	17554.68
920.86	17323.26
921.037	17603.83
921.214	17388.79
921.391	17075.45
921.568	17702.13
921.745	17075.45
921.922	17317.11
922.099	17140.99
922.276	17644.79
922.453	17710.32
922.63	17198.33
922.807	17538.29
922.984	17321.21
923.161	16907.52
923.338	17329.4
923.514	16895.23
923.691	17194.23
923.868	17341.69
924.045	16973.05
924.222	16643.33
924.399	17069.31
924.575	17005.82
924.752	16917.76
924.929	16710.91
925.105	16960.77
925.282	16424.2
925.459	16620.8
925.635	16733.44
925.812	16614.66
925.989	16604.42
926.165	16422.15
926.342	16123.15
926.518	16168.2
926.695	16645.38
926.871	16137.48
927.048	15815.95
927.224	16567.56
927.401	16131.34
927.577	16096.52
927.754	15850.77
927.93	16579.84
928.107	15875.34
928.283	15971.6
928.459	15854.86
928.636	16106.76
928.812	15746.32
928.988	15385.88
929.165	15531.28
929.341	15650.07
929.517	15654.16
929.693	15629.59
929.87	15213.85
930.046	15537.43
930.222	15285.53
930.398	15219.99
930.574	15209.75
930.751	15539.47
930.927	15027.48
931.103	14966.04
931.279	14939.42
931.455	14884.12
931.631	14982.43
931.807	14691.62
931.983	14652.7
932.159	14327.08
932.335	14775.58
932.511	14736.67
932.687	14267.69
932.863	14603.55
933.039	14345.51
933.215	14013.74
933.391	13735.21
933.566	14058.79
933.742	14095.66
933.918	14017.83
934.094	13385.01
934.27	13901.1
934.445	13737.26
934.621	13880.62
934.797	13204.79
934.973	13389.11
935.148	13436.21
935.324	12741.95
935.5	12516.67
935.675	12995.9
935.851	12932.41
936.027	12287.3
936.202	12281.16
936.378	12424.51
936.553	12297.54
936.729	12105.03
936.904	11634
937.08	11519.31
937.255	11525.46
937.431	10958.17
937.606	10732.89
937.782	11013.46
937.957	11023.7
938.133	10669.41
938.308	10128.74
938.483	10421.6
938.659	9852.27
938.834	10005.86
939.009	9786.73
939.185	9739.63
939.36	9555.31
939.535	9076.09
939.71	9459.06
939.886	9710.96
940.061	9571.69
940.236	9178.48
940.411	9074.04
940.586	9342.32
940.761	9178.48
940.937	8695.16
941.112	8764.79
941.287	8996.21
941.462	8932.73
941.637	8516.99
941.812	8412.54
941.987	8611.2
942.162	8521.09
942.337	8291.71
942.512	8351.1
942.687	8529.28
942.862	8516.99
943.037	7978.37
943.212	7873.93
943.386	8152.45
943.561	8320.39
943.736	8277.38
943.911	8164.74
944.086	8209.79
944.26	8387.97
944.435	8031.62
944.61	8207.75
944.785	8539.52
944.959	8521.09
945.134	8009.09
945.309	7849.35
945.483	8076.68
945.658	8353.15
945.833	7841.16
946.007	7736.71
946.182	8420.74
946.357	7927.18
946.531	8064.39
946.706	7959.94
946.88	7882.12
947.055	8281.47
947.229	7726.47
947.404	8158.6
947.578	8490.37
947.752	8140.16
947.927	7953.8
948.101	7908.74
948.276	8363.39
948.45	8437.12
948.624	8390.02
948.799	8007.05
948.973	8525.18
949.147	8101.25
949.321	8416.64
949.496	8281.47
949.67	8672.64
949.844	8232.32
950.018	8398.21
950.193	8332.67
950.367	9024.89
950.541	8605.05
950.715	8449.41
950.889	8590.72
951.063	8502.65
951.237	8856.95
951.411	8367.49
951.585	8404.35
951.759	8473.98
951.933	8760.7
952.107	8367.49
952.281	8830.33
952.455	9225.59
952.629	8961.4
952.803	8639.87
952.977	8433.02
953.151	8998.26
953.325	8881.53
953.499	9053.56
953.672	8617.34
953.846	8826.23
954.02	8881.53
954.194	8709.5
954.368	8713.6
954.541	9143.67
954.715	8635.77
954.889	8846.71
955.062	8656.25
955.236	9008.5
955.41	9129.33
955.583	9059.7
955.757	8689.02
955.93	9031.03
956.104	8746.36
956.278	8899.96
956.451	8863.1
956.625	9330.03
956.798	9588.08
956.972	9162.1
957.145	8805.75
957.319	9291.12
957.492	9174.39
957.665	9321.84
957.839	8879.48
958.012	9463.15
958.185	9059.7
958.359	8920.44
958.532	9235.83
958.705	9366.9
958.879	9215.35
959.052	9270.64
959.225	8977.78
959.398	9321.84
959.572	9416.05
959.745	9031.03
959.918	9086.33
960.091	9004.41
960.264	9368.95
960.438	9061.75
960.611	8992.12
960.784	9428.34
960.957	9112.95
961.13	9323.89
961.303	9147.76
961.476	9172.34
961.649	9393.52
961.822	8887.67
961.995	8945.02
962.168	9504.11
962.341	9272.69
962.514	9051.51
962.686	8922.49
962.859	9309.55
963.032	9614.7
963.205	9061.75
963.378	8938.87
963.551	9452.91
963.723	9391.47
963.896	9137.52
964.069	9215.35
964.242	8992.12
964.414	9428.34
964.587	9117.04
964.76	8940.92
964.932	9272.69
965.105	9170.29
965.278	8975.74
965.45	8793.47
965.623	8918.39
965.795	9411.95
965.968	8893.82
966.14	8807.8
966.313	9166.2
966.485	9014.65
966.658	8938.87
966.83	8856.95
967.003	9151.86
967.175	9284.98
967.348	8693.12
967.52	8723.83
967.692	9444.72
967.865	8754.55
968.037	9002.36
968.209	8936.82
968.382	8887.67
968.554	9061.75
968.726	8865.14
968.898	8459.65
969.071	9100.66
969.243	8910.2
969.415	8785.27
969.587	8752.51
969.759	9385.33
969.932	9004.41
970.104	8895.86
970.276	8379.78
970.448	8725.88
970.62	8826.23
970.792	8725.88
970.964	8600.96
971.136	9182.58
971.308	8795.51
971.48	8355.2
971.652	8394.11
971.824	8981.88
971.996	8260.99
972.168	8502.65
972.339	8412.54
972.511	8887.67
972.683	8508.8
972.855	8455.55
973.027	8451.46
973.199	8420.74
973.37	8506.75
973.542	8377.73
973.714	8375.68
973.886	8439.17
974.057	8719.74
974.229	8109.44
974.401	8285.57
974.572	8099.2
974.744	7955.85
974.915	7949.7
975.087	8066.44
975.259	8566.14
975.43	8240.51
975.602	8160.64
975.773	8103.3
975.945	8226.18
976.116	8557.95
976.288	7851.4
976.459	8361.34
976.63	8013.19
976.802	8271.23
976.973	7974.28
977.145	8138.12
977.316	8676.73
977.487	8123.78
977.659	8146.31
977.83	7775.63
978.001	8502.65
978.172	7918.98
978.344	7839.11
978.515	7955.85
978.686	7736.71
978.857	8437.12
979.028	7789.96
979.2	7622.03
979.371	7863.69
979.542	7773.58
979.713	7785.87
979.884	7198.1
980.055	7409.04
980.226	7562.64
980.397	7464.33
980.568	7404.94
980.739	8031.62
980.91	7521.68
981.081	7527.82
981.252	7261.59
981.423	7728.52
981.594	7867.78
981.765	7310.74
981.936	7441.81
982.106	7519.63
982.277	7933.32
982.448	7163.28
982.619	7417.23
982.79	7257.49
982.96	7488.91
983.131	7237.01
983.302	6923.67
983.472	7261.59
983.643	7447.95
983.814	7298.45
983.984	6995.35
984.155	7224.72
984.326	7298.45
984.496	7026.07
984.667	7067.03
984.837	6888.85
985.008	7468.43
985.178	7194
985.349	6856.09
985.519	6755.74
985.69	6811.03
985.86	6915.48
986.031	6794.65
986.201	7079.32
986.371	7157.14
986.542	6864.28
986.712	6544.8
986.882	7024.02
987.053	6991.25
987.223	6540.7
987.393	6741.4
987.563	6657.43
987.734	6993.3
987.904	6884.76
988.074	6575.52
988.244	6727.07
988.414	6532.51
988.585	6659.48
988.755	6579.61
988.925	6757.78
989.095	6901.14
989.265	6380.96
989.435	6358.43
989.605	6720.92
989.775	6641.05
989.945	6694.3
990.115	6165.92
990.285	6481.31
990.455	6563.23
990.625	6272.42
990.795	6041
990.965	6641.05
991.134	6043.04
991.304	6256.03
991.474	6202.79
991.644	6319.52
991.814	6702.49
991.984	5911.97
992.153	5926.31
992.323	6079.91
992.493	6147.49
992.662	5770.66
992.832	6077.86
993.002	6020.52
993.171	6118.82
993.341	5617.07
993.511	5852.58
993.68	5762.47
993.85	6120.87
994.019	5713.32
994.189	5649.83
994.358	5954.98
994.528	5655.98
994.697	5459.37
994.867	5502.38
995.036	6014.37
995.206	5709.22
995.375	5631.4
995.544	5719.46
995.714	5889.45
995.883	5658.03
996.052	5508.52
996.222	5242.29
996.391	6239.65
996.56	5494.19
996.73	5240.24
996.899	5352.88
997.068	6008.23
997.237	5627.31
997.406	5275.06
997.576	5336.49
997.745	5713.32
997.914	5531.05
998.083	5088.69
998.252	5180.85
998.421	5455.28
998.59	5295.54
998.759	5017.01
998.928	5004.72
999.097	5619.11
999.266	5426.61
999.435	5096.88
999.604	4726.2
999.773	5819.82
999.942	5279.15
1000.111	4922.8
1000.28	4664.76
1000.448	5051.83
1000.617	4941.24
1000.786	5078.45
1000.955	4797.88
1001.124	5158.32
1001.292	5731.75
1001.461	4976.05
1001.63	4775.35
1001.798	5359.02
1001.967	5332.4
1002.136	4611.51
1002.304	4701.62
1002.473	4771.26
1002.642	4898.23
1002.81	4658.62
1002.979	4574.65
1003.147	5043.64
1003.316	5367.21
1003.484	4734.39
1003.653	4554.17
1003.821	5047.73
1003.99	4767.16
1004.158	4656.57
1004.327	4386.24
1004.495	4812.21
1004.663	4509.12
1004.832	4378.05
1005	4081.09
1005.168	4791.73
1005.337	4707.77
1005.505	4048.32
1005.673	4464.06
1005.842	4586.94
1006.01	4644.28
1006.178	4128.19
1006.346	4261.31
1006.514	4457.92
1006.683	4582.84
1006.851	4136.38
1007.019	4378.05
1007.187	4142.53
1007.355	3980.74
1007.523	3833.29
1007.691	3972.55
1007.859	3913.16
1008.027	4584.89
1008.195	4044.23
1008.363	3904.96
1008.531	4492.73
1008.699	4052.42
1008.867	3923.4
1009.035	3890.63
1009.203	4359.61
1009.37	4224.45
1009.538	3993.03
1009.706	4173.25
1009.874	3997.12
1010.042	3954.12
1010.209	3751.37
1010.377	3700.17
1010.545	4246.98
1010.713	3997.12
1010.88	3530.19
1011.048	3857.86
1011.216	3821
1011.383	4130.24
1011.551	3464.65
1011.718	3536.33
1011.886	4203.97
1012.054	3835.33
1012.221	3485.13
1012.389	3642.82
1012.556	3702.22
1012.724	4099.52
1012.891	3663.3
1013.058	3270.09
1013.226	3790.28
1013.393	3855.81
1013.561	3257.81
1013.728	3167.7
1013.895	3861.96
1014.063	3716.55
1014.23	3321.29
1014.397	3249.61
1014.565	3597.77
1014.732	3347.92
1014.899	3216.85
1015.066	3220.94
1015.233	3464.65
1015.401	3544.52
1015.568	3272.14
1015.735	3245.52
1015.902	3366.35
1016.069	3388.88
1016.236	3018.19
1016.403	2821.59
1016.57	3063.25
1016.737	3478.99
1016.904	3096.02
1017.071	2899.41
1017.238	3177.94
1017.405	3292.62
1017.572	2962.9
1017.739	3067.35
1017.906	3329.49
1018.073	3388.88
1018.24	2858.45
1018.407	2905.56
1018.573	3485.13
1018.74	3096.02
1018.907	2919.89
1019.074	2551.26
1019.241	3360.2
1019.407	3046.87
1019.574	2739.67
1019.741	2555.35
1019.907	2977.23
1020.074	3149.26
1020.241	2346.46
1020.407	2584.02
1020.574	3161.55
1020.74	3003.86
1020.907	2637.27
1021.073	2586.07
1021.24	3349.96
1021.406	3253.71
1021.573	2399.71
1021.739	2465.24
1021.906	3046.87
1022.072	2786.77
1022.239	2614.74
1022.405	2530.78
1022.571	2864.6
1022.738	2495.96
1022.904	2491.87
1023.07	2536.92
1023.237	2776.53
1023.403	2934.23
1023.569	2346.46
1023.735	2534.87
1023.902	2647.51
1024.068	2731.48
1024.234	2379.23
1024.4	2317.79
1024.566	2758.1
1024.732	2811.35
1024.898	2221.53
1025.065	2129.38
1025.231	2725.33
1025.397	2579.93
1025.563	2203.1
1025.729	2254.3
1025.895	2055.65
1026.061	2305.5
1026.227	2117.09
1026.392	2237.92
1026.558	2688.47
1026.724	2604.5
1026.89	2112.99
1027.056	2129.38
1027.222	2584.02
1027.388	2225.63
1027.553	2213.34
1027.719	1955.3
1027.885	2770.39
1028.051	2469.34
1028.216	2002.4
1028.382	1983.97
1028.548	2543.07
1028.713	2213.34
1028.879	1877.48
1029.045	2153.95
1029.21	2637.27
1029.376	2584.02
1029.541	2018.79
1029.707	1955.3
1029.873	2395.61
1030.038	2448.86
1030.204	1955.3
1030.369	2043.36
1030.534	2428.38
1030.7	2072.03
1030.865	2022.88
1031.031	1926.63
1031.196	2381.28
1031.361	2133.47
1031.527	1711.59
1031.692	1748.45
1031.857	1795.56
1032.023	2223.58
1032.188	1668.58
1032.353	1799.65
1032.518	2487.77
1032.684	2252.25
1032.849	1644.01
1033.014	1715.69
1033.179	2350.56
1033.344	2244.06
1033.509	1826.28
1033.674	1736.17
1033.839	2192.86
1034.004	2248.16
1034.17	1670.63
1034.335	1676.77
1034.5	1916.39
1034.664	1820.13
1034.829	1656.29
1034.994	1809.89
1035.159	2037.22
1035.324	2112.99
1035.489	1672.68
1035.654	1580.52
1035.819	2182.62
1035.984	1908.19
1036.148	1730.02
1036.313	1615.34
1036.478	2180.57
1036.643	1879.52
1036.807	1517.03
1036.972	1455.59
1037.137	2317.79
1037.301	1859.04
1037.466	1363.44
1037.631	1603.05
1037.795	2143.71
1037.96	1873.38
1038.124	1648.1
1038.289	1385.96
1038.454	1990.11
1038.618	1981.92
1038.783	1523.18
1038.947	1517.03
1039.111	1900
1039.276	1617.38
1039.44	1404.39
1039.605	1762.79
1039.769	1680.87
1039.933	1715.69
1040.098	1371.63
1040.262	1603.05
1040.426	1902.05
1040.591	1793.51
1040.755	1285.61
1040.919	1355.24
1041.083	1760.74
1041.248	1617.38
1041.412	1277.42
1041.576	1207.79
1041.74	1592.81
1041.904	1807.84
1042.068	1314.28
1042.232	1308.14
1042.397	1844.71
1042.561	1734.12
1042.725	1109.49
1042.889	1394.15
1043.053	1695.21
1043.217	1752.55
1043.381	1306.09
1043.544	982.51
1043.708	1844.71
1043.872	1304.04
1044.036	962.03
1044.2	988.66
1044.364	1521.13
1044.528	1859.04
1044.691	4011.46
1044.855	1072.62
1045.019	1879.52
1045.183	1576.42
1045.346	1320.43
1045.51	1060.34
1045.674	1633.77
1045.837	1568.23
1046.001	1101.3
1046.165	1070.58
1046.328	2045.41
1046.492	1537.51
1046.655	1256.94
1046.819	1127.92
1046.983	1224.17
1047.146	1535.46
1047.31	1064.43
1047.473	884.21
1047.636	1414.63
1047.8	1156.59
1047.963	1033.71
1048.127	896.5
1048.29	1152.49
