Data from Hydrogel_Ink_Intensity_Test_1_USB4F045381__74__00074.txt Node

Date: Mon Jul 31 10:55:29 EDT 2023
User: mmckonesweet
Spectrometer: USB4F04538
Trigger mode: 4
Integration Time (sec): 9.000000E-1
Scans to average: 1
Electric dark correction enabled: true
Nonlinearity correction enabled: false
Boxcar width: 0
XAxis mode: Wavelengths
Number of Pixels in Spectrum: 3648
>>>>>Begin Spectral Data<<<<<
345.52	-1029.45
345.736	-1029.45
345.952	-1029.45
346.168	-1037.64
346.384	-963.91
346.6	-138.58
346.816	-165.2
347.032	-187.73
347.248	328.36
347.464	-290.13
347.68	-177.49
347.896	12.97
348.112	438.95
348.328	-60.76
348.544	-77.14
348.76	12.97
348.975	303.78
349.191	-236.88
349.407	-275.79
349.623	45.74
349.839	-87.38
350.055	-97.62
350.27	-3.41
350.486	160.42
350.702	373.41
350.918	164.52
351.133	-191.83
351.349	127.66
351.565	381.6
351.781	-208.21
351.996	76.46
352.212	352.93
352.428	-142.68
352.644	-195.92
352.859	-224.59
353.075	195.24
353.291	-11.61
353.506	-150.87
353.722	-224.59
353.938	-13.65
354.153	412.32
354.369	84.65
354.584	-218.45
354.8	254.63
355.016	-318.8
355.231	-212.31
355.447	-32.08
355.662	139.94
355.878	844.45
356.093	-236.88
356.309	-105.81
356.524	-193.87
356.74	182.95
356.955	-197.97
357.171	-58.71
357.386	125.61
357.602	-202.07
357.817	-126.29
358.033	-189.78
358.248	393.89
358.464	213.67
358.679	-111.96
358.895	-396.62
359.11	66.22
359.325	232.1
359.541	242.34
359.756	-68.95
359.972	-210.26
360.187	244.39
360.402	-204.11
360.618	-148.82
360.833	998.04
361.048	209.58
361.264	-138.58
361.479	-7.51
361.694	-9.56
361.909	250.53
362.125	-165.2
362.34	-185.68
362.555	271.01
362.77	96.94
362.986	-232.79
363.201	-167.25
363.416	275.11
363.631	141.99
363.847	-185.68
364.062	-93.52
364.277	148.14
364.492	60.07
364.707	-122.2
364.922	-404.82
365.138	246.44
365.353	279.21
365.568	-265.55
365.783	-101.72
365.998	135.85
366.213	541.35
366.428	-218.45
366.643	74.41
366.858	248.49
367.073	189.1
367.288	-159.06
367.503	-249.17
367.718	117.42
367.933	402.08
368.148	-292.18
368.363	-75.09
368.578	17.07
368.793	393.89
369.008	-136.53
369.223	-240.98
369.438	146.09
369.653	363.17
369.868	-275.79
370.083	-275.79
370.298	86.7
370.513	451.24
370.728	-9.56
370.943	-122.2
371.157	-177.49
371.372	484
371.587	-187.73
371.802	-251.22
372.017	127.66
372.232	469.67
372.446	-71
372.661	-245.07
372.876	262.82
373.091	230.06
373.306	-62.8
373.52	-214.35
373.735	-193.87
373.95	336.55
374.165	-97.62
374.379	-103.76
374.594	-95.57
374.809	203.43
375.023	78.51
375.238	-238.93
375.453	309.93
375.667	-261.46
375.882	-132.44
376.097	-120.15
376.311	33.45
376.526	66.22
376.741	-200.02
376.955	178.86
377.17	586.4
377.384	574.11
377.599	21.16
377.813	-240.98
378.028	631.46
378.242	205.48
378.457	-68.95
378.672	-306.51
378.886	111.27
379.101	-46.42
379.315	-331.09
379.53	-169.3
379.744	125.61
379.958	225.96
380.173	-179.54
380.387	-179.54
380.602	217.77
380.816	-169.3
381.031	-236.88
381.245	-97.62
381.459	230.06
381.674	2589.32
381.888	-175.44
382.103	103.08
382.317	-85.33
382.531	471.72
382.746	-7.51
382.96	-161.11
383.174	-68.95
383.388	527.01
383.603	8.87
383.817	-257.36
384.031	197.29
384.246	606.88
384.46	-50.52
384.674	266.92
384.888	58.03
385.103	117.42
385.317	-269.65
385.531	-81.24
385.745	373.41
385.959	334.5
386.174	-195.92
386.388	-183.63
386.602	66.22
386.816	-62.8
387.03	-97.62
387.244	-48.47
387.458	12.97
387.672	385.7
387.887	-318.8
388.101	-249.17
388.315	397.99
388.529	234.15
388.743	-152.91
388.957	-206.16
389.171	412.32
389.385	-134.48
389.599	-193.87
389.813	98.99
390.027	166.57
390.241	664.22
390.455	-101.72
390.669	17.07
390.883	-130.39
391.097	496.29
391.311	94.89
391.525	-126.29
391.738	199.34
391.952	246.44
392.166	37.55
392.38	-107.86
392.594	453.28
392.808	361.13
393.022	-122.2
393.236	-36.18
393.449	174.76
393.663	213.67
393.877	-240.98
394.091	-81.24
394.305	-91.48
394.518	-64.85
394.732	-193.87
394.946	-62.8
395.16	504.48
395.373	76.46
395.587	-202.07
395.801	-138.58
396.015	379.56
396.228	287.4
396.442	-322.9
396.656	-359.76
396.869	281.25
397.083	461.48
397.297	45.74
397.51	-87.38
397.724	385.7
397.938	246.44
398.151	-335.18
398.365	-163.15
398.578	238.25
398.792	455.33
399.005	29.35
399.219	-68.95
399.433	232.1
399.646	340.65
399.86	86.7
400.073	55.98
400.287	346.79
400.5	68.27
400.714	82.6
400.927	66.22
401.141	291.49
401.354	1262.23
401.567	230.06
401.781	-251.22
401.994	316.07
402.208	731.81
402.421	-73.04
402.635	-56.66
402.848	164.52
403.061	391.84
403.275	4.78
403.488	-212.31
403.701	543.39
403.915	295.59
404.128	78.51
404.341	-87.38
404.555	316.07
404.768	107.18
404.981	-60.76
405.195	-163.15
405.408	586.4
405.621	344.74
405.834	6.83
406.048	-58.71
406.261	541.35
406.474	512.67
406.687	-146.77
406.9	47.79
407.114	135.85
407.327	213.67
407.54	-228.69
407.753	-257.36
407.966	-97.62
408.179	311.97
408.392	-54.61
408.605	-228.69
408.819	185
409.032	275.11
409.245	-95.57
409.458	117.42
409.671	373.41
409.884	457.38
410.097	-177.49
410.31	88.75
410.523	299.69
410.736	86.7
410.949	-1.37
411.162	37.55
411.375	549.54
411.588	418.47
411.801	105.13
412.014	-167.25
412.227	174.76
412.44	90.79
412.653	-167.25
412.865	86.7
413.078	426.66
413.291	352.93
413.504	-13.65
413.717	-136.53
413.93	402.08
414.143	0.68
414.356	-23.89
414.568	-171.35
414.781	393.89
414.994	234.15
415.207	-15.7
415.42	43.69
415.632	410.28
415.845	588.45
416.058	-148.82
416.271	-114
416.483	189.1
416.696	647.84
416.909	-64.85
417.121	-27.99
417.334	309.93
417.547	594.59
417.759	-27.99
417.972	-204.11
418.185	-56.66
418.397	422.56
418.61	-118.1
418.823	-56.66
419.035	684.7
419.248	156.33
419.46	12.97
419.673	-11.61
419.885	334.5
420.098	62.12
420.311	-114
420.523	-220.5
420.736	361.13
420.948	281.25
421.161	6.83
421.373	-197.97
421.586	316.07
421.798	-17.75
422.01	-179.54
422.223	43.69
422.435	111.27
422.648	363.17
422.86	-87.38
423.073	-66.9
423.285	475.81
423.497	-95.57
423.71	-85.33
423.922	-111.96
424.134	402.08
424.347	610.98
424.559	164.52
424.771	252.58
424.984	185
425.196	264.87
425.408	-202.07
425.621	-128.34
425.833	494.24
426.045	469.67
426.257	-204.11
426.47	21.16
426.682	377.51
426.894	420.52
427.106	-15.7
427.318	17.07
427.531	62.12
427.743	418.47
427.955	-77.14
428.167	387.75
428.379	434.85
428.591	264.87
428.804	82.6
429.016	-11.61
429.228	135.85
429.44	236.2
429.652	234.15
429.864	-109.91
430.076	156.33
430.288	205.48
430.5	12.97
430.712	195.24
430.924	565.92
431.136	324.26
431.348	-97.62
431.56	-27.99
431.772	285.35
431.984	225.96
432.196	43.69
432.408	66.22
432.62	187.05
432.832	400.04
433.044	199.34
433.256	131.75
433.468	461.48
433.679	-44.37
433.891	-109.91
434.103	271.01
434.315	629.41
434.527	406.18
434.739	117.42
434.95	176.81
435.162	500.39
435.374	174.76
435.586	152.23
435.798	74.41
436.009	19.11
436.221	193.19
436.433	109.23
436.645	88.75
436.856	150.18
437.068	506.53
437.28	29.35
437.491	334.5
437.703	567.97
437.915	426.66
438.126	66.22
438.338	412.32
438.55	311.97
438.761	494.24
438.973	144.04
439.184	82.6
439.396	318.12
439.608	537.25
439.819	-64.85
440.031	119.46
440.242	527.01
440.454	443.04
440.665	84.65
440.877	299.69
441.088	436.9
441.3	273.06
441.511	-134.48
441.723	70.31
441.934	320.17
442.146	426.66
442.357	262.82
442.569	324.26
442.78	307.88
442.991	789.15
443.203	445.09
443.414	-27.99
443.626	647.84
443.837	305.83
444.048	8.87
444.26	-32.08
444.471	352.93
444.682	533.15
444.894	-40.28
445.105	64.17
445.316	696.99
445.528	516.77
445.739	217.77
445.95	117.42
446.161	477.86
446.373	602.79
446.584	139.94
446.795	160.42
447.006	606.88
447.217	680.61
447.429	-7.51
447.64	43.69
447.851	733.86
448.062	451.24
448.273	-105.81
448.484	103.08
448.695	574.11
448.907	361.13
449.118	133.8
449.329	395.94
449.54	234.15
449.751	197.29
449.962	129.7
450.173	119.46
450.384	676.51
450.595	764.58
450.806	139.94
451.017	217.77
451.228	684.7
451.439	631.46
451.65	148.14
451.861	-95.57
452.072	156.33
452.283	434.85
452.494	361.13
452.705	119.46
452.915	897.69
453.126	484
453.337	223.91
453.548	94.89
453.759	662.18
453.97	901.79
454.181	430.76
454.391	193.19
454.602	522.91
454.813	518.82
455.024	248.49
455.235	123.56
455.445	584.35
455.656	516.77
455.867	373.41
456.078	256.68
456.288	443.04
456.499	651.94
456.71	180.9
456.921	438.95
457.131	563.87
457.342	490.15
457.553	383.65
457.763	221.86
457.974	713.38
458.184	696.99
458.395	156.33
458.606	152.23
458.816	752.29
459.027	1069.72
459.237	410.28
459.448	168.62
459.659	778.91
459.869	1053.34
460.08	160.42
460.29	475.81
460.501	926.36
460.711	416.42
460.922	176.81
461.132	258.73
461.343	1129.11
461.553	205.48
461.764	295.59
461.974	309.93
462.184	740
462.395	713.38
462.605	385.7
462.816	271.01
463.026	703.14
463.236	879.26
463.447	301.73
463.657	297.64
463.867	828.06
464.078	619.17
464.288	416.42
464.498	342.69
464.709	627.36
464.919	567.97
465.129	475.81
465.339	303.78
465.55	772.77
465.76	793.25
465.97	459.43
466.18	346.79
466.391	852.64
466.601	754.34
466.811	467.62
467.021	316.07
467.231	903.84
467.441	963.23
467.651	518.82
467.862	168.62
468.072	750.24
468.282	1061.53
468.492	449.19
468.702	563.87
468.912	756.38
469.122	1487.51
469.332	764.58
469.542	477.86
469.752	1063.58
469.962	856.73
470.172	422.56
470.382	481.96
470.592	928.41
470.802	1151.64
471.012	711.33
471.222	557.73
471.432	1073.82
471.642	1098.39
471.852	758.43
472.062	547.49
472.272	838.3
472.482	617.12
472.691	543.39
472.901	524.96
473.111	979.61
473.321	1528.47
473.531	508.58
473.741	740
473.95	1055.39
474.16	1092.25
474.37	807.58
474.58	547.49
474.79	1368.73
474.999	1237.66
475.209	703.14
475.419	805.53
475.628	934.56
475.838	1313.43
476.048	873.12
476.258	699.04
476.467	1415.83
476.677	1014.43
476.886	985.76
477.096	869.02
477.306	1008.28
477.515	1532.56
477.725	1045.15
477.935	928.41
478.144	1518.23
478.354	991.9
478.563	920.22
478.773	918.17
478.982	1393.3
479.192	1540.76
479.401	1045.15
479.611	830.11
479.82	869.02
480.03	1381.01
480.239	930.46
480.449	1049.24
480.658	1688.21
480.868	1192.6
481.077	1055.39
481.287	1141.4
481.496	1391.25
481.705	1677.97
481.915	1389.21
482.124	1317.53
482.333	1368.73
482.543	1786.51
482.752	1235.61
482.961	1254.04
483.171	1677.97
483.38	1407.64
483.589	1268.38
483.799	1211.03
484.008	1510.04
484.217	1729.17
484.426	1262.23
484.636	1194.65
484.845	1667.73
485.054	1241.75
485.263	1579.67
485.472	1340.05
485.682	1950.35
485.891	1624.72
486.1	1084.06
486.309	1299.09
486.518	1794.7
486.727	1911.44
486.936	1288.86
487.146	1514.13
487.355	2048.65
487.564	1524.37
487.773	1479.32
487.982	1362.58
488.191	1518.23
488.4	1704.59
488.609	1503.89
488.818	1483.41
489.027	2306.7
489.236	2097.8
489.445	1587.86
489.654	1450.64
489.863	2120.33
490.072	1671.83
490.281	1884.81
490.49	1598.1
490.698	2142.86
490.907	2253.45
491.116	1626.77
491.325	1350.29
491.534	2089.61
491.743	2015.88
491.952	1696.4
492.16	1753.74
492.369	2036.36
492.578	2138.76
492.787	1696.4
492.996	1460.88
493.204	1737.36
493.413	2531.97
493.622	1438.36
493.831	1503.89
494.039	2427.53
494.248	1735.31
494.457	1710.74
494.665	1618.58
494.874	2054.8
495.083	2620.03
495.291	1919.63
495.5	1698.45
495.709	2230.92
495.917	2284.17
496.126	1888.91
496.335	1931.92
496.543	2103.95
496.752	2192.01
496.96	2161.29
497.169	1735.31
497.377	2202.25
497.586	2298.5
497.794	2048.65
498.003	1630.87
498.211	2216.58
498.42	2595.46
498.628	1981.07
498.837	1819.28
499.045	2396.81
499.254	2335.37
499.462	1882.77
499.671	1917.58
499.879	2726.53
500.087	2466.44
500.296	1895.05
500.504	1940.11
500.713	2218.63
500.921	2900.61
501.129	2069.13
501.338	2085.51
501.546	2454.15
501.754	2445.96
501.962	2126.47
502.171	2015.88
502.379	2392.71
502.587	2814.59
502.795	2208.39
503.004	1956.49
503.212	2380.42
503.42	2679.43
503.628	2153.1
503.837	2220.68
504.045	2538.12
504.253	2929.28
504.461	2241.16
504.669	1938.06
504.877	2738.82
505.085	2773.63
505.294	2034.32
505.502	2433.67
505.71	2658.95
505.918	2654.85
506.126	2138.76
506.334	2196.11
506.542	2491.01
506.75	2638.47
506.958	2421.38
507.166	2384.52
507.374	2542.21
507.582	3066.49
507.79	2482.82
507.998	2245.26
508.206	2736.77
508.414	2757.25
508.622	2216.58
508.83	2372.23
509.037	3021.44
509.245	2556.55
509.453	2196.11
509.661	2239.11
509.869	2830.98
510.077	2478.72
510.285	2564.74
510.492	2183.82
510.7	3191.42
510.908	2585.22
511.116	2400.9
511.324	2335.37
511.531	2544.26
511.739	2761.34
511.947	2568.84
512.155	2753.15
512.362	2667.14
512.57	2431.62
512.778	2529.92
512.985	2212.49
513.193	2988.67
513.401	3099.26
513.608	2491.01
513.816	2546.31
514.024	2898.56
514.231	3093.12
514.439	2378.37
514.646	2581.12
514.854	3107.45
515.061	3037.82
515.269	2628.23
515.477	2521.73
515.684	2646.66
515.892	3189.37
516.099	2396.81
516.307	2531.97
516.514	3068.54
516.722	3244.67
516.929	2654.85
517.136	2558.6
517.344	3330.68
517.551	2982.53
517.759	2601.6
517.966	2624.13
518.173	2878.08
518.381	2957.95
518.588	2765.44
518.796	2624.13
519.003	3215.99
519.21	2951.81
519.418	2634.37
519.625	2988.67
519.832	2880.13
520.039	3334.78
520.247	2515.59
520.454	2675.33
520.661	3285.62
520.868	3179.13
521.076	2828.93
521.283	2796.16
521.49	3783.28
521.697	3277.43
521.904	2812.54
522.112	2769.54
522.319	3318.39
522.526	3115.64
522.733	2769.54
522.94	2798.21
523.147	3033.72
523.354	3328.63
523.561	2704
523.768	2792.06
523.975	3463.8
524.183	3097.21
524.39	3101.31
524.597	2830.98
524.804	3199.61
525.011	3027.58
525.218	2900.61
525.425	2855.55
525.632	3656.31
525.838	3132.03
526.045	2830.98
526.252	2822.78
526.459	4596.32
526.666	4137.58
526.873	2880.13
527.08	3019.39
527.287	3574.39
527.494	3435.13
527.701	2835.07
527.907	2957.95
528.114	3441.27
528.321	3259
528.528	3035.77
528.735	2947.71
528.941	3342.97
529.148	3199.61
529.355	3152.51
529.562	3158.65
529.768	3768.95
529.975	3244.67
530.182	3308.15
530.388	3007.1
530.595	3727.99
530.802	3230.33
531.008	3207.8
531.215	3187.32
531.422	4217.45
531.628	4172.4
531.835	3306.1
532.042	3375.74
532.248	3484.28
532.455	3588.72
532.661	3312.25
532.868	3230.33
533.074	3584.63
533.281	3785.33
533.487	3359.35
533.694	3172.99
533.9	3517.04
534.107	3701.36
534.313	3334.78
534.52	3162.75
534.726	3656.31
534.933	3973.74
535.139	3297.91
535.345	3234.43
535.552	3783.28
535.758	3633.78
535.965	3342.97
536.171	3304.06
536.377	3924.59
536.584	4127.34
536.79	3308.15
536.996	3658.35
537.203	3652.21
537.409	3732.08
537.615	3482.23
537.821	3586.68
538.028	3918.45
538.234	3924.59
538.44	3459.7
538.646	3465.85
538.853	3981.93
539.059	3773.04
539.265	3990.13
539.471	3195.51
539.677	3910.25
539.883	3766.9
540.09	3519.09
540.296	3963.5
540.502	3664.5
540.708	3691.12
540.914	3795.57
541.12	3502.71
541.326	4024.94
541.532	3834.48
541.738	3672.69
541.944	3562.1
542.15	3998.32
542.356	3719.79
542.562	3529.33
542.768	3637.88
542.974	4596.32
543.18	4475.49
543.386	3558
543.592	3525.24
543.798	4340.33
544.004	4295.27
544.21	3740.27
544.415	3748.47
544.621	3994.22
544.827	4270.7
545.033	3547.76
545.239	3996.27
545.445	3809.9
545.651	4049.52
545.856	3656.31
546.062	3811.95
546.268	3977.84
546.474	4096.62
546.679	3752.56
546.885	3938.93
547.091	3902.06
547.297	4426.34
547.502	3875.44
547.708	3670.64
547.914	3908.21
548.119	4330.09
548.325	3637.88
548.531	3588.72
548.736	4538.98
548.942	3797.62
549.147	3752.56
549.353	4061.8
549.559	4563.56
549.764	4231.79
549.97	3682.93
550.175	3891.82
550.381	4252.27
550.586	3879.54
550.792	3955.31
550.997	4041.33
551.203	4430.44
551.408	4330.09
551.614	3830.38
551.819	3869.3
552.025	4600.42
552.23	4518.5
552.435	3824.24
552.641	4289.13
552.846	4213.35
553.052	4692.58
553.257	4088.43
553.462	3928.69
553.668	4006.51
553.873	4608.61
554.078	3920.49
554.283	3914.35
554.489	4526.69
554.694	4309.61
554.899	4076.14
555.105	4158.06
555.31	4665.96
555.515	4569.7
555.72	3961.45
555.925	3900.02
556.131	4584.04
556.336	4457.06
556.541	4035.18
556.746	4194.92
556.951	4690.53
557.156	4837.98
557.361	4248.17
557.567	4260.46
557.772	5046.88
557.977	4686.44
558.182	4199.02
558.387	4063.85
558.592	4276.84
558.797	4692.58
559.002	4334.18
559.207	4211.31
559.412	4614.76
559.617	4956.77
559.822	4190.83
560.027	4053.61
560.232	4457.06
560.437	4721.25
560.642	4086.38
560.847	4156.01
561.051	4579.94
561.256	4432.49
561.461	4366.95
561.666	4231.79
561.871	4557.41
562.076	4721.25
562.281	4432.49
562.485	4086.38
562.69	4661.86
562.895	4870.75
563.1	4381.29
563.305	4186.73
563.509	4958.82
563.714	5071.45
563.919	4137.58
564.123	4330.09
564.328	4528.74
564.533	4946.53
564.737	4244.07
564.942	4293.23
565.147	5102.17
565.351	5091.93
565.556	4452.97
565.761	4475.49
565.965	4792.93
566.17	4416.1
566.374	4424.3
566.579	4260.46
566.784	4549.22
566.988	4639.33
567.193	4250.22
567.397	4403.82
567.602	4463.21
567.806	4815.46
568.011	4407.91
568.215	4596.32
568.42	4676.2
568.624	4842.08
568.828	4426.34
569.033	4561.51
569.237	4975.2
569.442	5012.06
569.646	4358.76
569.85	4436.58
570.055	4768.35
570.259	4981.34
570.463	4784.74
570.668	4571.75
570.872	4821.6
571.076	4788.83
571.281	4737.63
571.485	4584.04
571.689	4835.94
571.893	4989.53
572.098	4657.76
572.302	4469.35
572.506	4993.63
572.71	4811.36
572.914	4733.54
573.119	4608.61
573.323	5278.3
573.527	5235.29
573.731	4610.66
573.935	4647.52
574.139	4962.91
574.343	4749.92
574.547	4616.8
574.751	4643.43
574.955	5188.19
575.159	5225.05
575.364	4799.07
575.568	4629.09
575.772	5024.35
575.976	5231.19
576.18	4629.09
576.383	4485.73
576.587	5249.63
576.791	5081.69
576.995	4504.17
577.199	4553.32
577.403	5216.86
577.607	5444.18
577.811	4543.08
578.015	4811.36
578.219	5184.09
578.422	5321.31
578.626	4801.12
578.83	4975.2
579.034	5241.43
579.238	5014.11
579.442	4704.87
579.645	5257.82
579.849	5106.27
580.053	5083.74
580.257	4821.6
580.46	4985.44
580.664	5423.7
580.868	5116.51
581.071	5022.3
581.275	5063.26
581.479	5055.07
581.682	5345.88
581.886	4829.79
582.09	4891.23
582.293	5444.18
582.497	5567.06
582.7	5022.3
582.904	4811.36
583.107	5235.29
583.311	5192.28
583.515	4993.63
583.718	5104.22
583.922	5444.18
584.125	5726.8
584.329	4887.14
584.532	5141.08
584.735	5438.04
584.939	5397.08
585.142	4952.67
585.346	4948.58
585.549	5399.13
585.753	5147.23
585.956	5186.14
586.159	5108.32
586.363	5808.72
586.566	5646.93
586.769	5014.11
586.973	5020.25
587.176	5491.29
587.379	5665.36
587.582	5433.94
587.786	5253.72
587.989	5427.8
588.192	5894.74
588.395	5184.09
588.599	5493.33
588.802	5374.55
589.005	5501.53
589.208	5112.41
589.411	4971.1
589.615	5755.47
589.818	5886.54
590.021	5358.17
590.224	5208.67
590.427	5720.66
590.63	5603.93
590.833	4924
591.036	5239.39
591.239	5589.59
591.442	5468.76
591.645	5327.45
591.848	5227.1
592.051	5653.08
592.254	5851.73
592.457	5241.43
592.66	5378.65
592.863	5550.68
593.066	5605.97
593.269	5376.6
593.472	5210.72
593.675	5399.13
593.878	5778
594.081	5366.36
594.284	5098.08
594.486	5798.48
594.689	5712.47
594.892	5571.16
595.095	5415.51
595.298	5716.56
595.5	5526.1
595.703	5616.21
595.906	5399.13
596.109	5935.7
596.311	6056.53
596.514	5042.78
596.717	5403.22
596.92	6066.77
597.122	5880.4
597.325	5085.79
597.528	5423.7
597.73	6101.58
597.933	5763.67
598.136	5522.01
598.338	5161.56
598.541	5921.36
598.743	6099.53
598.946	5497.43
599.148	5663.32
599.351	6056.53
599.554	6175.31
599.756	5694.04
599.959	5462.62
600.161	5990.99
600.363	6351.43
600.566	5720.66
600.768	5589.59
600.971	6220.36
601.173	6009.42
601.376	5571.16
601.578	5595.73
601.78	5976.66
601.983	6484.55
602.185	5495.38
602.388	5749.33
602.59	5960.27
602.792	5763.67
602.995	5743.19
603.197	5448.28
603.399	6025.81
603.601	6068.81
603.804	5526.1
604.006	5675.6
604.208	5943.89
604.41	5446.23
604.613	5894.74
604.815	5495.38
605.017	6359.63
605.219	5749.33
605.421	5988.94
605.623	5542.49
605.826	6292.04
606.028	6294.09
606.23	5685.84
606.432	5573.21
606.634	6322.76
606.836	6392.39
607.038	5556.82
607.24	5702.23
607.442	5997.14
607.644	6097.49
607.846	5780.05
608.048	5751.38
608.25	6224.46
608.452	5864.02
608.654	5898.83
608.856	5472.86
609.058	6070.86
609.26	6142.54
609.462	5806.67
609.664	5638.74
609.866	6511.18
610.067	6384.2
610.269	6029.9
610.471	5898.83
610.673	5970.51
610.875	6163.02
611.077	5655.12
611.278	5825.11
611.48	5988.94
611.682	6392.39
611.884	5872.21
612.085	5853.78
612.287	5952.08
612.489	6326.86
612.69	5763.67
612.892	5925.46
613.094	6335.05
613.295	6179.4
613.497	5751.38
613.699	5923.41
613.9	6433.35
614.102	6285.9
614.304	5796.43
614.505	5702.23
614.707	6064.72
614.908	6085.2
615.11	5644.88
615.311	5868.11
615.513	6156.88
615.714	6392.39
615.916	5632.6
616.117	5784.15
616.319	6099.53
616.52	6308.43
616.722	5644.88
616.923	5773.91
617.124	6447.69
617.326	6201.93
617.527	5894.74
617.729	6001.23
617.93	6353.48
618.131	6298.19
618.333	5798.48
618.534	6167.12
618.735	5952.08
618.937	6556.23
619.138	5689.94
619.339	5689.94
619.54	6287.95
619.742	6105.68
619.943	5913.17
620.144	6013.52
620.345	6339.15
620.546	6523.46
620.748	5816.91
620.949	5964.37
621.15	6197.84
621.351	6140.49
621.552	5925.46
621.753	5704.28
621.954	5757.52
622.155	6697.54
622.356	5827.15
622.558	6134.35
622.759	6365.77
622.96	6537.8
623.161	5913.17
623.362	5857.87
623.563	6349.39
623.764	6306.38
623.965	5982.8
624.166	6206.03
624.366	6097.49
624.567	6304.33
624.768	5651.03
624.969	5880.4
625.17	6023.76
625.371	6345.29
625.572	6034
625.773	5798.48
625.973	6365.77
626.174	6629.96
626.375	6130.25
626.576	6074.96
626.777	6343.24
626.977	6826.56
627.178	6074.96
627.379	6052.43
627.58	6230.6
627.78	6199.88
627.981	6040.14
628.182	6054.48
628.382	6603.33
628.583	5874.26
628.784	5939.79
628.984	5974.61
629.185	6466.12
629.386	6457.93
629.586	6085.2
629.787	5931.6
629.987	6468.17
630.188	6363.72
630.388	6115.92
630.589	6173.26
630.79	6871.62
630.99	6357.58
631.191	5950.03
631.391	6079.05
631.591	6545.99
631.792	6654.53
631.992	6281.8
632.193	6017.61
632.393	6664.77
632.594	6232.65
632.794	6001.23
632.994	6079.05
633.195	6466.12
633.395	6490.7
633.595	6025.81
633.796	6259.28
633.996	6314.57
634.196	6695.49
634.397	6013.52
634.597	6132.3
634.797	6113.87
634.997	6672.96
635.198	6423.11
635.398	5980.75
635.598	6386.25
635.798	6677.06
635.998	6476.36
636.199	6060.62
636.399	6302.28
636.599	6105.68
636.799	6068.81
636.999	6298.19
637.199	6685.25
637.399	6681.16
637.599	6171.21
637.799	6371.91
637.999	6398.54
638.199	6937.15
638.399	6267.47
638.599	6226.51
638.799	6492.74
638.999	6955.58
639.199	6451.78
639.399	6400.59
639.599	6724.16
639.799	6271.56
639.999	6238.8
640.199	6036.05
640.399	6425.16
640.599	6312.52
640.799	6345.29
640.998	6447.69
641.198	6801.99
641.398	6382.15
641.598	6324.81
641.798	6242.89
641.997	7559.74
642.197	6496.84
642.397	6457.93
642.597	6263.37
642.796	6617.67
642.996	6826.56
643.196	6605.38
643.395	6120.01
643.595	6689.35
643.795	6144.59
643.994	6386.25
644.194	6410.82
644.394	6877.76
644.593	6601.29
644.793	6269.52
644.992	6521.42
645.192	6799.94
645.392	6285.9
645.591	6595.14
645.791	6419.02
645.99	6748.74
646.19	6638.15
646.389	6398.54
646.589	6410.82
646.788	6601.29
646.987	6765.12
647.187	6445.64
647.386	6572.61
647.586	6750.79
647.785	6750.79
647.984	6431.3
648.184	6580.81
648.383	6505.03
648.582	6554.18
648.782	6343.24
648.981	6492.74
649.18	6335.05
649.38	6685.25
649.579	6304.33
649.778	6251.08
649.977	6812.23
650.177	6816.32
650.376	6355.53
650.575	6160.97
650.774	7148.09
650.973	6513.22
651.173	6132.3
651.372	6433.35
651.571	6623.81
651.77	6912.58
651.969	6414.92
652.168	6558.28
652.367	6392.39
652.566	6672.96
652.765	6455.88
652.964	6707.78
653.163	7250.49
653.362	6607.43
653.561	6357.58
653.76	6679.11
653.959	6789.7
654.158	6961.73
654.357	6746.69
654.556	6373.96
654.755	6912.58
654.954	6648.39
655.153	6511.18
655.352	6681.16
655.551	7023.17
655.749	6650.44
655.948	6634.05
656.147	6632.01
656.346	6736.45
656.545	6738.5
656.743	6568.52
656.942	6605.38
657.141	6791.75
657.34	6654.53
657.538	6476.36
657.737	6500.94
657.936	6697.54
658.135	6763.08
658.333	6629.96
658.532	6572.61
658.731	7098.94
658.929	6728.26
659.128	6726.21
659.326	6388.3
659.525	7094.85
659.724	6679.11
659.922	6302.28
660.121	6402.63
660.319	6818.37
660.518	6578.76
660.716	6400.59
660.915	6505.03
661.113	7174.72
661.312	6599.24
661.51	6715.97
661.709	6386.25
661.907	6967.87
662.105	7141.95
662.304	6437.45
662.502	6605.38
662.701	6967.87
662.899	6654.53
663.097	6894.15
663.296	6318.67
663.494	6978.11
663.692	6980.16
663.891	6566.47
664.089	6625.86
664.287	6877.76
664.485	7225.92
664.684	6519.37
664.882	6812.23
665.08	6984.26
665.278	6754.88
665.476	6386.25
665.675	6586.95
665.873	7359.03
666.071	7154.24
666.269	6625.86
666.467	6898.24
666.665	6851.14
666.863	6842.95
667.061	6615.62
667.259	6672.96
667.457	6844.99
667.655	6969.92
667.853	6531.66
668.051	6619.72
668.249	6718.02
668.447	6877.76
668.645	6666.82
668.843	6801.99
669.041	6996.54
669.239	6689.35
669.437	6711.88
669.635	6742.6
669.833	6894.15
670.031	6838.85
670.229	6580.81
670.426	6617.67
670.624	6797.89
670.822	6693.44
671.02	6435.4
671.218	6668.87
671.415	6648.39
671.613	6910.53
671.811	6701.64
672.009	6445.64
672.206	7049.79
672.404	6801.99
672.602	6752.84
672.799	6570.57
672.997	6867.52
673.195	7025.22
673.392	6490.7
673.59	6386.25
673.788	6908.48
673.985	6462.02
674.183	6693.44
674.38	6697.54
674.578	6900.29
674.775	6414.92
674.973	6355.53
675.17	6404.68
675.368	7123.52
675.565	6976.06
675.763	6406.73
675.96	6328.91
676.158	7025.22
676.355	6625.86
676.553	6414.92
676.75	6376.01
676.947	6826.56
677.145	6691.4
677.342	6654.53
677.539	6613.57
677.737	6769.22
677.934	7115.33
678.131	6709.83
678.329	6599.24
678.526	7123.52
678.723	7078.46
678.92	6642.25
679.118	6529.61
679.315	6550.09
679.512	7039.55
679.709	6597.19
679.906	6505.03
680.104	7004.74
680.301	6769.22
680.498	6402.63
680.695	6408.78
680.892	6378.06
681.089	6562.37
681.286	6658.63
681.483	6296.14
681.68	6801.99
681.877	6961.73
682.075	6476.36
682.272	6844.99
682.469	6650.44
682.665	6668.87
682.862	6330.95
683.059	6021.71
683.256	6691.4
683.453	6677.06
683.65	6576.71
683.847	6384.2
684.044	6670.92
684.241	6505.03
684.438	6560.33
684.635	6300.23
684.831	7230.01
685.028	7250.49
685.225	6435.4
685.422	6537.8
685.619	6593.09
685.815	6695.49
686.012	6423.11
686.209	6457.93
686.405	6292.04
686.602	6881.86
686.799	6281.8
686.996	6312.52
687.192	6396.49
687.389	7084.61
687.586	6382.15
687.782	6300.23
687.979	6980.16
688.175	6791.75
688.372	6400.59
688.568	6359.63
688.765	6474.31
688.962	7041.6
689.158	6402.63
689.355	6285.9
689.551	6836.8
689.748	6425.16
689.944	6328.91
690.14	6042.19
690.337	6607.43
690.533	6603.33
690.73	6687.3
690.926	6543.94
691.123	6627.91
691.319	6695.49
691.515	6224.46
691.712	6545.99
691.908	6701.64
692.104	6615.62
692.301	6373.96
692.497	6228.56
692.693	6738.5
692.889	6750.79
693.086	6455.88
693.282	6154.83
693.478	6468.17
693.674	7023.17
693.87	6285.9
694.067	6187.6
694.263	6634.05
694.459	6482.5
694.655	6552.13
694.851	6345.29
695.047	6586.95
695.243	6552.13
695.439	6482.5
695.635	6492.74
695.831	6621.77
696.027	6582.85
696.224	6228.56
696.42	6593.09
696.615	6804.03
696.811	6742.6
697.007	6199.88
697.203	6333
697.399	6519.37
697.595	6699.59
697.791	6165.07
697.987	6529.61
698.183	6122.06
698.379	6210.12
698.575	6351.43
698.77	6146.64
698.966	6740.55
699.162	6527.56
699.358	6222.41
699.554	6144.59
699.749	6634.05
699.945	6556.23
700.141	6357.58
700.337	6212.17
700.532	6402.63
700.728	6136.4
700.924	6230.6
701.119	6058.57
701.315	6494.79
701.511	6441.54
701.706	6206.03
701.902	6103.63
702.097	6365.77
702.293	6652.49
702.489	6228.56
702.684	6230.6
702.88	6355.53
703.075	6246.99
703.271	6271.56
703.466	6034
703.662	6410.82
703.857	6572.61
704.053	6318.67
704.248	6097.49
704.443	6511.18
704.639	6597.19
704.834	6048.33
705.03	6193.74
705.225	6613.57
705.42	6668.87
705.616	6222.41
705.811	6095.44
706.006	6230.6
706.202	6414.92
706.397	6298.19
706.592	6062.67
706.787	6449.74
706.983	6177.36
707.178	6382.15
707.373	6255.18
707.568	6484.55
707.763	6492.74
707.959	6132.3
708.154	5995.09
708.349	6349.39
708.544	6652.49
708.739	6337.1
708.934	6058.57
709.129	6527.56
709.324	6459.98
709.519	6025.81
709.714	6021.71
709.909	6654.53
710.104	6351.43
710.299	6070.86
710.494	6197.84
710.689	6652.49
710.884	6339.15
711.079	6154.83
711.274	6380.11
711.469	6302.28
711.664	6500.94
711.859	5859.92
712.054	6216.27
712.249	6351.43
712.443	6595.14
712.638	5902.93
712.833	6074.96
713.028	6173.26
713.223	6224.46
713.417	6275.66
713.612	5902.93
713.807	6511.18
714.002	7043.65
714.196	6277.71
714.391	6087.25
714.586	6478.41
714.78	6251.08
714.975	6048.33
715.17	5909.07
715.364	6193.74
715.559	6421.06
715.754	5581.4
715.948	6093.39
716.143	6799.94
716.337	6101.58
716.532	6261.32
716.726	5958.22
716.921	6232.65
717.115	6621.77
717.31	5947.98
717.504	6640.2
717.699	6210.12
717.893	6435.4
718.088	5792.34
718.282	5751.38
718.476	6169.16
718.671	6165.07
718.865	5800.53
719.059	5939.79
719.254	6351.43
719.448	6367.82
719.642	7365.18
719.837	5694.04
720.031	6396.49
720.225	6388.3
720.419	5968.46
720.614	5632.6
720.808	6464.07
721.002	6120.01
721.196	5651.03
721.39	6009.42
721.585	6414.92
721.779	6226.51
721.973	5710.42
722.167	5618.26
722.361	6021.71
722.555	6246.99
722.749	5730.9
722.943	5814.87
723.137	5743.19
723.331	6099.53
723.525	5818.96
723.719	5839.44
723.913	6234.7
724.107	6398.54
724.301	5833.3
724.495	5849.68
724.689	6359.63
724.883	6324.81
725.077	5534.29
725.271	5794.39
725.465	6347.34
725.659	6025.81
725.853	5943.89
726.046	5476.95
726.24	5929.55
726.434	6341.19
726.628	5775.95
726.822	5927.5
727.015	6343.24
727.209	6195.79
727.403	5902.93
727.596	5573.21
727.79	6195.79
727.984	6263.37
728.177	5741.14
728.371	5931.6
728.565	6246.99
728.758	5622.36
728.952	5778
729.146	5751.38
729.339	6353.48
729.533	5986.9
729.726	5878.35
729.92	5638.74
730.113	6390.35
730.307	6181.45
730.5	5870.16
730.694	5849.68
730.887	5964.37
731.081	6199.88
731.274	5675.6
731.468	5749.33
731.661	5945.94
731.854	5923.41
732.048	5837.39
732.241	5671.51
732.435	5718.61
732.628	6009.42
732.821	6001.23
733.014	5581.4
733.208	5753.43
733.401	6273.61
733.594	5677.65
733.788	5702.23
733.981	6359.63
734.174	6130.25
734.367	5591.64
734.56	5845.59
734.754	6095.44
734.947	6077.01
735.14	5587.54
735.333	5794.39
735.526	6160.97
735.719	5714.52
735.912	5788.24
736.105	5616.21
736.298	5835.35
736.491	5712.47
736.684	5728.85
736.877	5630.55
737.07	6165.07
737.263	6236.75
737.456	5802.58
737.649	5552.73
737.842	5818.96
738.035	5825.11
738.228	5808.72
738.421	5968.46
738.614	6097.49
738.807	6197.84
739	5458.52
739.192	5491.29
739.385	6025.81
739.578	6046.29
739.771	5900.88
739.964	5485.14
740.156	6169.16
740.349	5882.45
740.542	5976.66
740.735	5509.72
740.927	5665.36
741.12	5751.38
741.313	5546.58
741.505	5771.86
741.698	6072.91
741.891	5952.08
742.083	5694.04
742.276	5636.69
742.468	5964.37
742.661	5778
742.854	5571.16
743.046	5505.62
743.239	6234.7
743.431	6038.09
743.624	5728.85
743.816	5642.84
744.009	5923.41
744.201	5945.94
744.393	5907.02
744.586	5288.54
744.778	6173.26
744.971	5599.83
745.163	5628.5
745.355	5522.01
745.548	5747.28
745.74	5767.76
745.932	5681.75
746.125	5745.24
746.317	6253.13
746.509	5933.65
746.702	5628.5
746.894	5653.08
747.086	5667.41
747.278	6103.63
747.471	5687.89
747.663	5771.86
747.855	5771.86
748.047	6333
748.239	5513.81
748.431	5655.12
748.623	6345.29
748.815	6197.84
749.008	5497.43
749.2	5487.19
749.392	5927.5
749.584	5853.78
749.776	5554.77
749.968	5735
750.16	6490.7
750.352	5749.33
750.544	5749.33
750.736	5595.73
750.928	5931.6
751.12	5915.22
751.311	5702.23
751.503	5663.32
751.695	5999.18
751.887	5771.86
752.079	5409.37
752.271	5509.72
752.463	6455.88
752.654	5864.02
752.846	5575.25
753.038	5513.81
753.23	5573.21
753.421	5952.08
753.613	5608.02
753.805	5622.36
753.997	5990.99
754.188	6093.39
754.38	5356.12
754.572	5450.33
754.763	5751.38
754.955	5962.32
755.146	5687.89
755.338	5571.16
755.53	5745.24
755.721	5522.01
755.913	5278.3
756.104	5300.83
756.296	5653.08
756.487	5954.13
756.679	5421.66
756.87	5403.22
757.062	5497.43
757.253	5939.79
757.445	5349.98
757.636	5538.39
757.827	5579.35
758.019	6431.3
758.21	5239.39
758.401	5354.07
758.593	6128.21
758.784	6126.16
758.975	5186.14
759.167	5223
759.358	5657.17
759.549	5976.66
759.74	5186.14
759.932	5407.32
760.123	5816.91
760.314	5417.56
760.505	5442.14
760.696	5296.73
760.888	5919.31
761.079	5423.7
761.27	5106.27
761.461	5147.23
761.652	5986.9
761.843	5522.01
762.034	5276.25
762.225	5648.98
762.416	5522.01
762.607	5540.44
762.798	5290.59
762.989	5356.12
763.18	6246.99
763.371	5403.22
763.562	5141.08
763.753	5253.72
763.944	5722.71
764.135	5804.63
764.326	5235.29
764.517	5239.39
764.708	5444.18
764.899	5595.73
765.089	5110.36
765.28	4870.75
765.471	5481.05
765.662	5683.8
765.853	5270.11
766.043	5048.93
766.234	5581.4
766.425	5628.5
766.615	5188.19
766.806	4940.38
766.997	5755.47
767.187	5255.77
767.378	5038.69
767.569	4870.75
767.759	5415.51
767.95	5364.31
768.141	5210.72
768.331	4786.79
768.522	5278.3
768.712	5560.92
768.903	5046.88
769.093	4969.05
769.284	5667.41
769.474	5368.41
769.665	4897.38
769.855	4842.08
770.046	5474.9
770.236	5184.09
770.426	5229.15
770.617	4844.13
770.807	5448.28
770.998	5298.78
771.188	5005.92
771.378	5034.59
771.569	5458.52
771.759	5440.09
771.949	4768.35
772.139	4713.06
772.33	5501.53
772.52	5599.83
772.71	4977.25
772.9	4715.11
773.09	5577.3
773.281	5493.33
773.471	4880.99
773.661	4856.42
773.851	5257.82
774.041	5046.88
774.231	4758.11
774.421	4956.77
774.611	5571.16
774.802	5010.01
774.992	4989.53
775.182	4731.49
775.372	5071.45
775.562	5263.96
775.752	4858.46
775.942	4727.39
776.131	5268.06
776.321	5304.92
776.511	4682.34
776.701	4690.53
776.891	5401.18
777.081	4878.94
777.271	4799.07
777.461	4899.42
777.651	5204.57
777.84	5223
778.03	4760.16
778.22	4874.85
778.41	5247.58
778.599	4876.9
778.789	4829.79
778.979	4637.28
779.169	4917.86
779.358	4883.04
779.548	4991.58
779.738	4661.86
779.927	5005.92
780.117	4864.61
780.307	4637.28
780.496	4465.25
780.686	5034.59
780.875	5384.79
781.065	4668
781.254	4596.32
781.444	4950.62
781.633	4760.16
781.823	4485.73
782.012	4663.91
782.202	4731.49
782.391	4842.08
782.581	4506.21
782.77	4788.83
782.96	5071.45
783.149	4801.12
783.338	4665.96
783.528	4504.17
783.717	5030.49
783.906	5020.25
784.096	4688.48
784.285	4510.31
784.474	4719.2
784.663	4491.88
784.853	4555.37
785.042	4502.12
785.231	4790.88
785.42	4973.15
785.61	4631.14
785.799	4254.31
785.988	4686.44
786.177	4741.73
786.366	4469.35
786.555	4629.09
786.744	4958.82
786.933	4670.05
787.122	4321.9
787.312	4483.69
787.501	4575.84
787.69	4909.66
787.879	4409.96
788.068	4266.6
788.257	4633.19
788.445	4575.84
788.634	4538.98
788.823	4434.53
789.012	5374.55
789.201	5005.92
789.39	4551.27
789.579	4393.58
789.768	4594.28
789.957	4801.12
790.145	4461.16
790.334	4182.63
790.523	4504.17
790.712	4614.76
790.9	4348.52
791.089	4285.03
791.278	4870.75
791.467	4645.48
791.655	4668
791.844	4891.23
792.033	4393.58
792.221	4469.35
792.41	4217.45
792.599	4090.48
792.787	4792.93
792.976	4827.75
793.164	4178.54
793.353	4184.68
793.541	4778.59
793.73	4786.79
793.918	4436.58
794.107	4330.09
794.295	4530.79
794.484	4635.24
794.672	4237.93
794.861	4305.51
795.049	4573.8
795.238	4975.2
795.426	4113
795.614	4446.82
795.803	4543.08
795.991	4858.46
796.179	4311.66
796.368	4360.81
796.556	4829.79
796.744	4158.06
796.932	4217.45
797.121	4067.95
797.309	4405.86
797.497	4604.52
797.685	4317.8
797.874	3934.83
798.062	4307.56
798.25	4860.51
798.438	4096.62
798.626	4182.63
798.814	4571.75
799.002	5112.41
799.19	4475.49
799.378	4336.23
799.566	4711.01
799.755	4874.85
799.943	4436.58
800.131	4106.86
800.318	4377.19
800.506	4581.99
800.694	4219.5
800.882	4407.91
801.07	4813.41
801.258	4500.07
801.446	4203.11
801.634	4379.24
801.822	4592.23
802.01	4495.97
802.197	4127.34
802.385	4485.73
802.573	4473.45
802.761	4387.43
802.949	4295.27
803.136	4061.8
803.324	4770.4
803.512	4719.2
803.699	4311.66
803.887	3967.6
804.075	4721.25
804.262	4237.93
804.45	4045.42
804.638	4379.24
804.825	4391.53
805.013	4235.88
805.201	4364.9
805.388	4125.29
805.576	4375.14
805.763	4794.98
805.951	4180.59
806.138	4377.19
806.326	4952.67
806.513	4622.95
806.701	4295.27
806.888	4153.96
807.075	4696.67
807.263	4874.85
807.45	3916.4
807.638	4504.17
807.825	5050.97
808.012	4713.06
808.2	4280.94
808.387	4440.68
808.574	4608.61
808.761	4948.58
808.949	4215.4
809.136	4289.13
809.323	4559.46
809.51	4575.84
809.698	4522.6
809.885	4434.53
810.072	4655.72
810.259	4788.83
810.446	4317.8
810.633	4293.23
810.82	4811.36
811.008	4969.05
811.195	4409.96
811.382	4313.7
811.569	4663.91
811.756	4244.07
811.943	4405.86
812.13	4178.54
812.317	4399.72
812.504	4434.53
812.691	4444.77
812.878	4571.75
813.064	4764.26
813.251	4395.62
813.438	4084.33
813.625	4520.55
813.812	4584.04
813.999	4338.28
814.186	4381.29
814.372	4397.67
814.559	4663.91
814.746	4817.51
814.933	4254.31
815.12	4446.82
815.306	4491.88
815.493	4551.27
815.68	4332.14
815.866	4139.63
816.053	4817.51
816.24	5030.49
816.426	4409.96
816.613	4170.35
816.799	4786.79
816.986	4891.23
817.173	4237.93
817.359	4205.16
817.546	4606.56
817.732	4287.08
817.919	4153.96
818.105	4412.01
818.292	4432.49
818.478	4629.09
818.665	4502.12
818.851	4264.55
819.037	5067.36
819.224	4563.56
819.41	4108.91
819.597	4242.03
819.783	4926.05
819.969	4639.33
820.156	4366.95
820.342	4219.5
820.528	5145.18
820.714	4495.97
820.901	4516.45
821.087	4211.31
821.273	4864.61
821.459	4291.18
821.646	4262.51
821.832	4108.91
822.018	4573.8
822.204	4420.2
822.39	4252.27
822.576	4094.57
822.762	4485.73
822.948	4393.58
823.134	4424.3
823.32	4248.17
823.507	4301.42
823.693	4639.33
823.879	4549.22
824.065	4108.91
824.25	4450.92
824.436	4176.49
824.622	4156.01
824.808	4147.82
824.994	4348.52
825.18	4088.43
825.366	4145.77
825.552	4125.29
825.738	4170.35
825.923	4608.61
826.109	4258.41
826.295	4065.9
826.481	4192.87
826.667	4330.09
826.852	4219.5
827.038	3920.49
827.224	4694.63
827.409	4717.15
827.595	3943.02
827.781	4127.34
827.966	4706.91
828.152	4553.32
828.338	4037.23
828.523	3986.03
828.709	4272.75
828.894	4663.91
829.08	4164.2
829.266	4149.87
829.451	4178.54
829.637	4592.23
829.822	4156.01
830.008	4084.33
830.193	4625
830.378	4586.08
830.564	4078.19
830.749	3793.52
830.935	4387.43
831.12	4600.42
831.305	3867.25
831.491	4160.11
831.676	3902.06
831.861	4563.56
832.047	4051.56
832.232	3799.66
832.417	4647.52
832.602	4336.23
832.788	3865.2
832.973	3947.12
833.158	4166.25
833.343	4330.09
833.528	4033.13
833.714	4055.66
833.899	4473.45
834.084	4719.2
834.269	4147.82
834.454	3816.05
834.639	4461.16
834.824	4366.95
835.009	4123.24
835.194	4024.94
835.379	4483.69
835.564	4668
835.749	4147.82
835.934	3809.9
836.119	4391.53
836.304	4244.07
836.489	3832.43
836.674	4252.27
836.859	3930.73
837.044	4448.87
837.228	3955.31
837.413	3789.42
837.598	4315.75
837.783	4364.9
837.968	3940.97
838.152	3846.77
838.337	3682.93
838.522	4432.49
838.707	4276.84
838.891	4115.05
839.076	4340.33
839.261	4334.18
839.445	3975.79
839.63	3828.34
839.815	4520.55
839.999	3981.93
840.184	3791.47
840.368	3818.1
840.553	4369
840.737	4250.22
840.922	3717.75
841.106	3529.33
841.291	3789.42
841.475	4065.9
841.66	3820.14
841.844	3799.66
842.029	4758.11
842.213	3738.23
842.397	3793.52
842.582	3506.81
842.766	4321.9
842.951	4352.62
843.135	3846.77
843.319	3680.88
843.504	4131.44
843.688	4264.55
843.872	3736.18
844.056	3732.08
844.241	4074.09
844.425	3867.25
844.609	4016.75
844.793	3515
844.977	4094.57
845.161	4055.66
845.346	3547.76
845.53	3598.96
845.714	3928.69
845.898	4389.48
846.082	3625.59
846.266	3574.39
846.45	3877.49
846.634	4090.48
846.818	3713.65
847.002	3777.14
847.186	4119.15
847.37	3598.96
847.554	3650.16
847.738	3629.68
847.922	3998.32
848.106	3912.3
848.29	3539.57
848.473	3558
848.657	4104.81
848.841	4002.41
849.025	3664.5
849.209	3486.33
849.392	4141.68
849.576	3836.53
849.76	3099.26
849.944	3795.57
850.127	4145.77
850.311	3574.39
850.495	3490.42
850.678	3375.74
850.862	4213.35
851.046	4254.31
851.229	3760.75
851.413	3416.69
851.596	3756.66
851.78	3637.88
851.964	3547.76
852.147	3449.46
852.331	4495.97
852.514	4170.35
852.698	3480.18
852.881	3254.91
853.065	4016.75
853.248	3777.14
853.431	3553.91
853.615	3551.86
853.798	4239.98
853.982	3842.67
854.165	3723.89
854.348	3416.69
854.532	3465.85
854.715	3517.04
854.898	3523.19
855.081	3404.41
855.265	3918.45
855.448	4268.65
855.631	3424.89
855.814	3439.22
855.997	3900.02
856.181	3533.43
856.364	3381.88
856.547	3261.05
856.73	3836.53
856.913	3775.09
857.096	3256.95
857.279	3428.98
857.462	3383.93
857.645	3955.31
857.828	3568.24
858.011	3486.33
858.194	3658.35
858.377	3789.42
858.56	3164.79
858.743	3412.6
858.926	3377.78
859.109	3793.52
859.292	3308.15
859.475	3129.98
859.658	3891.82
859.841	3736.18
860.023	3132.03
860.206	3252.86
860.389	3699.31
860.572	3879.54
860.755	3287.67
860.937	3162.75
861.12	3508.85
861.303	3515
861.486	3248.76
861.668	3273.34
861.851	3637.88
862.034	3656.31
862.216	3338.87
862.399	3070.59
862.581	3549.81
862.764	3861.1
862.947	3328.63
863.129	3142.27
863.312	3228.28
863.494	3916.4
863.677	3347.06
863.859	3048.06
864.042	3719.79
864.224	3854.96
864.406	3308.15
864.589	3015.29
864.771	3670.64
864.954	3175.03
865.136	3086.97
865.318	3060.35
865.501	3558
865.683	2931.33
865.865	3195.51
866.048	3179.13
866.23	3422.84
866.412	3422.84
866.594	2986.62
866.777	3181.18
866.959	3680.88
867.141	3142.27
867.323	3383.93
867.505	3306.1
867.687	3433.08
867.869	3353.21
868.052	3254.91
868.234	3134.07
868.416	3476.09
868.598	3553.91
868.78	3039.87
868.962	3015.29
869.144	3662.45
869.326	3463.8
869.508	3091.07
869.69	2939.52
869.872	3037.82
870.054	3623.54
870.236	3017.34
870.417	3007.1
870.599	3342.97
870.781	3807.86
870.963	3201.66
871.145	2931.33
871.327	3029.63
871.508	3586.68
871.69	3056.25
871.872	3060.35
872.054	3349.11
872.235	3471.99
872.417	3138.17
872.599	2833.02
872.78	3635.83
872.962	3295.86
873.144	2755.2
873.325	2964.09
873.507	3574.39
873.689	3306.1
873.87	2927.23
874.052	3187.32
874.233	3351.16
874.415	3658.35
874.596	3072.64
874.778	2814.59
874.959	3291.77
875.141	3465.85
875.322	3170.94
875.503	2792.06
875.685	3385.97
875.866	3033.72
876.048	2853.5
876.229	2914.94
876.41	3293.82
876.592	3256.95
876.773	3089.02
876.954	2794.11
877.136	3615.35
877.317	3070.59
877.498	2841.22
877.679	3074.68
877.86	3451.51
878.042	3306.1
878.223	3150.46
878.404	3500.66
878.585	3453.56
878.766	3668.59
878.947	3263.1
879.128	3244.67
879.309	3426.93
879.49	3529.33
879.672	3156.6
879.853	3170.94
880.034	3027.58
880.215	3203.71
880.396	3273.34
880.576	2960
880.757	3109.5
880.938	3670.64
881.119	2908.8
881.3	2982.53
881.481	3181.18
881.662	4029.04
881.843	2988.67
882.023	2960
882.204	3359.35
882.385	3285.62
882.566	3031.68
882.747	3000.96
882.927	3418.74
883.108	3422.84
883.289	3080.83
883.469	3228.28
883.65	3334.78
883.831	3435.13
884.011	3199.61
884.192	3187.32
884.373	3541.62
884.553	3492.47
884.734	3302.01
884.914	3424.89
885.095	4098.67
885.275	3877.49
885.456	3502.71
885.636	3123.84
885.817	3351.16
885.997	3416.69
886.178	3025.53
886.358	3107.45
886.538	3558
886.719	4477.54
886.899	3168.89
887.08	3154.55
887.26	3625.59
887.44	3355.26
887.621	3136.12
887.801	3299.96
887.981	4076.14
888.161	3641.97
888.342	3228.28
888.522	3385.97
888.702	3756.66
888.882	3654.26
889.062	3299.96
889.242	2964.09
889.423	3852.91
889.603	3727.99
889.783	3353.21
889.963	3252.86
890.143	3701.36
890.323	3785.33
890.503	3142.27
890.683	3187.32
890.863	3539.57
891.043	3455.61
891.223	3308.15
891.403	3402.36
891.583	3439.22
891.763	3625.59
891.943	3211.9
892.122	3170.94
892.302	3402.36
892.482	3480.18
892.662	3428.98
892.842	3287.67
893.022	3551.86
893.201	3437.17
893.381	3285.62
893.561	3285.62
893.741	3670.64
893.92	3525.24
894.1	3316.34
894.28	3369.59
894.459	3621.49
894.639	3637.88
894.819	3175.03
894.998	3244.67
895.178	3629.68
895.357	3576.44
895.537	3261.05
895.716	3050.11
895.896	3302.01
896.075	3824.24
896.255	3283.58
896.434	2898.56
896.614	3594.87
896.793	3754.61
896.973	3138.17
897.152	3154.55
897.331	3422.84
897.511	3631.73
897.69	3027.58
897.87	3277.43
898.049	3580.53
898.228	3365.5
898.407	3351.16
898.587	3304.06
898.766	3312.25
898.945	3482.23
899.124	3420.79
899.304	3170.94
899.483	3543.67
899.662	3789.42
899.841	3107.45
900.02	3142.27
900.199	3662.45
900.378	3385.97
900.557	3003
900.737	2912.89
900.916	3498.61
901.095	3578.48
901.274	3314.3
901.453	2892.41
901.632	3039.87
901.811	3066.49
901.989	2966.14
902.168	2941.57
902.347	3490.42
902.526	3060.35
902.705	2896.51
902.884	2970.24
903.063	3652.21
903.242	3490.42
903.42	2871.93
903.599	3041.92
903.778	3359.35
903.957	3541.62
904.135	2949.76
904.314	2755.2
904.493	3144.31
904.672	3338.87
904.85	2861.7
905.029	2873.98
905.207	3308.15
905.386	3865.2
905.565	2597.51
905.743	2790.02
905.922	2871.93
906.1	3156.6
906.279	2771.58
906.457	2620.03
906.636	2937.47
906.814	3003
906.993	2716.29
907.171	2656.9
907.35	3236.47
907.528	3170.94
907.707	2945.66
907.885	2716.29
908.063	3230.33
908.242	2826.88
908.42	2566.79
908.598	2431.62
908.777	2890.37
908.955	2876.03
909.133	2742.91
909.311	2536.07
909.49	2916.99
909.668	2912.89
909.846	2679.43
910.024	2409.09
910.202	2843.26
910.38	2994.81
910.559	2534.02
910.737	2566.79
910.915	3007.1
911.093	2882.17
911.271	2679.43
911.449	2884.22
911.627	2984.57
911.805	3363.45
911.983	2765.44
912.161	2531.97
912.339	3248.76
912.517	3254.91
912.695	2923.13
912.872	2675.33
913.05	2824.83
913.228	3086.97
913.406	2857.6
913.584	2726.53
913.762	3320.44
913.939	2986.62
914.117	2693.76
914.295	2562.69
914.473	3095.16
914.65	3043.96
914.828	2749.06
915.006	2599.55
915.184	2810.5
915.361	3109.5
915.539	2892.41
915.716	3003
915.894	3089.02
916.072	3154.55
916.249	3007.1
916.427	2984.57
916.604	2790.02
916.782	3037.82
916.959	2704
917.137	2785.92
917.314	3158.65
917.492	3125.88
917.669	2855.55
917.847	2720.39
918.024	2953.85
918.201	2790.02
918.379	2849.41
918.556	2798.21
918.733	3109.5
918.911	2835.07
919.088	2976.38
919.265	2679.43
919.442	2945.66
919.62	2810.5
919.797	2687.62
919.974	2556.55
920.151	2992.76
920.328	2931.33
920.506	2617.99
920.683	2843.26
920.86	2663.04
921.037	2794.11
921.214	2828.93
921.391	2482.82
921.568	3029.63
921.745	2695.81
921.922	2646.66
922.099	2493.06
922.276	3072.64
922.453	2919.04
922.63	2515.59
922.807	2964.09
922.984	2933.37
923.161	2691.71
923.338	2558.6
923.514	2493.06
923.691	2720.39
923.868	2878.08
924.045	2538.12
924.222	2491.01
924.399	3003
924.575	3076.73
924.752	2777.73
924.929	2450.05
925.105	2841.22
925.282	2579.08
925.459	2552.45
925.635	2552.45
925.812	2792.06
925.989	2546.31
926.165	2613.89
926.342	2261.64
926.518	2468.49
926.695	2669.19
926.871	2409.09
927.048	2282.12
927.224	2886.27
927.401	2525.83
927.577	2466.44
927.754	2296.46
927.93	2826.88
928.107	2822.78
928.283	2437.77
928.459	2536.07
928.636	2695.81
928.812	2607.75
928.988	2228.87
929.165	2144.91
929.341	2650.75
929.517	2634.37
929.693	2673.28
929.87	2138.76
930.046	2759.3
930.222	2519.68
930.398	2138.76
930.574	2505.35
930.751	2523.78
930.927	2351.75
931.103	2249.35
931.279	2216.58
931.455	2331.27
931.631	2609.79
931.807	2019.98
931.983	2048.65
932.159	1985.16
932.335	2407.05
932.511	2175.63
932.687	2103.95
932.863	2454.15
933.039	2394.76
933.215	1921.68
933.391	1995.4
933.566	2204.3
933.742	2409.09
933.918	2128.52
934.094	1909.39
934.27	2101.9
934.445	2351.75
934.621	2114.19
934.797	1825.42
934.973	2423.43
935.148	2392.71
935.324	1833.61
935.5	1700.5
935.675	2419.33
935.851	2228.87
936.027	1720.98
936.202	1888.91
936.378	2220.68
936.553	2062.99
936.729	2138.76
936.904	1540.76
937.08	1692.3
937.255	1835.66
937.431	1475.22
937.606	1450.64
937.782	1745.55
937.957	1798.8
938.133	1596.05
938.308	1462.93
938.483	1827.47
938.659	1512.08
938.834	1647.25
939.009	1399.45
939.185	1561.23
939.36	1501.84
939.535	1204.89
939.71	1467.03
939.886	2013.84
940.061	1813.14
940.236	1565.33
940.411	1372.82
940.586	1755.79
940.761	1696.4
940.937	1356.44
941.112	1282.71
941.287	1499.8
941.462	1600.15
941.637	1174.17
941.812	1344.15
941.987	1587.86
942.162	1553.04
942.337	1165.98
942.512	1231.51
942.687	1594
942.862	1653.39
943.037	1147.55
943.212	875.17
943.386	1303.19
943.561	1481.36
943.736	1368.73
943.911	1528.47
944.086	1430.16
944.26	1426.07
944.435	1188.5
944.61	1338.01
944.785	1729.17
944.959	1831.57
945.134	1223.32
945.309	1098.39
945.483	1280.66
945.658	1606.29
945.833	946.84
946.007	1032.86
946.182	1682.07
946.357	1172.12
946.531	1059.48
946.706	1184.41
946.88	1098.39
947.055	1491.6
947.229	1112.73
947.404	944.8
947.578	1585.81
947.752	1295
947.927	1022.62
948.101	1020.57
948.276	1405.59
948.45	1391.25
948.624	1464.98
948.799	1208.98
948.973	1460.88
949.147	1139.35
949.321	1348.25
949.496	1172.12
949.67	1680.02
949.844	1378.97
950.018	1172.12
950.193	1163.93
950.367	1888.91
950.541	1428.12
950.715	1401.49
950.889	1409.69
951.063	1276.57
951.237	1567.38
951.411	1032.86
951.585	993.95
951.759	1507.99
951.933	1438.36
952.107	1153.69
952.281	1360.53
952.455	1796.75
952.629	1694.35
952.803	1227.42
952.977	1274.52
953.151	1606.29
953.325	1546.9
953.499	1378.97
953.672	1163.93
953.846	1262.23
954.02	1487.51
954.194	1200.79
954.368	1233.56
954.541	1655.44
954.715	1352.34
954.889	1385.11
955.062	1186.46
955.236	1471.12
955.41	1391.25
955.583	1460.88
955.757	1036.95
955.93	1501.84
956.104	1237.66
956.278	1434.26
956.451	1319.57
956.625	1532.56
956.798	1956.49
956.972	1458.84
957.145	1135.26
957.319	1563.28
957.492	1606.29
957.665	1424.02
957.839	1305.24
958.012	1686.16
958.185	1325.72
958.359	1290.9
958.532	1417.88
958.705	1790.61
958.879	1686.16
959.052	1417.88
959.225	1125.02
959.398	1618.58
959.572	1581.71
959.745	1227.42
959.918	1438.36
960.091	1505.94
960.264	1647.25
960.438	1172.12
960.611	1288.86
960.784	1753.74
960.957	1391.25
961.13	1806.99
961.303	1202.84
961.476	1591.95
961.649	1823.37
961.822	1270.42
961.995	1249.94
962.168	1712.78
962.341	1616.53
962.514	1389.21
962.686	1254.04
962.859	1677.97
963.032	1751.7
963.205	1229.46
963.378	1159.83
963.551	1622.67
963.723	1565.33
963.896	1354.39
964.069	1444.5
964.242	1528.47
964.414	1782.42
964.587	1264.28
964.76	1458.84
964.932	1594
965.105	1489.56
965.278	1315.48
965.45	1254.04
965.623	1630.87
965.795	1696.4
965.968	1301.14
966.14	1174.17
966.313	1596.05
966.485	1530.52
966.658	1266.33
966.83	1208.98
967.003	1694.35
967.175	1675.92
967.348	1368.73
967.52	1319.57
967.692	1933.97
967.865	1700.5
968.037	1264.28
968.209	1528.47
968.382	1518.23
968.554	1743.5
968.726	1249.94
968.898	1196.7
969.071	1643.15
969.243	1688.21
969.415	1301.14
969.587	1290.9
969.759	1976.97
969.932	1704.59
970.104	1245.85
970.276	1028.76
970.448	1319.57
970.62	1401.49
970.792	1327.77
970.964	1348.25
971.136	1854.09
971.308	1600.15
971.48	1125.02
971.652	1276.57
971.824	1751.7
971.996	1471.12
972.168	1204.89
972.339	1319.57
972.511	1639.06
972.683	1376.92
972.855	1551
973.027	1237.66
973.199	1569.43
973.37	1661.59
973.542	1272.47
973.714	1405.59
973.886	1411.73
974.057	1710.74
974.229	1157.79
974.401	1084.06
974.572	1366.68
974.744	1008.28
974.915	1147.55
975.087	1114.78
975.259	1845.9
975.43	1256.09
975.602	1135.26
975.773	1108.63
975.945	1139.35
976.116	1524.37
976.288	1155.74
976.459	1280.66
976.63	1340.05
976.802	1497.75
976.973	1184.41
977.145	1290.9
977.316	1780.37
977.487	1856.14
977.659	1272.47
977.83	1137.31
978.001	1876.62
978.172	1387.16
978.344	1090.2
978.515	1204.89
978.686	1274.52
978.857	1663.63
979.028	1256.09
979.2	1157.79
979.371	1483.41
979.542	1417.88
979.713	1309.33
979.884	705.18
980.055	1276.57
980.226	1295
980.397	1157.79
980.568	893.6
980.739	1551
980.91	1327.77
981.081	1192.6
981.252	993.95
981.423	1446.55
981.594	1559.19
981.765	979.61
981.936	1147.55
982.106	1245.85
982.277	1462.93
982.448	934.56
982.619	1239.7
982.79	1131.16
982.96	1551
983.131	1159.83
983.302	909.98
983.472	1239.7
983.643	1428.12
983.814	1098.39
983.984	987.8
984.155	1221.27
984.326	1524.37
984.496	1127.07
984.667	1026.72
984.837	1045.15
985.008	1579.67
985.178	1266.33
985.349	1079.96
985.519	1200.79
985.69	1108.63
985.86	1028.76
986.031	957.08
986.201	1305.24
986.371	1245.85
986.542	799.39
986.712	768.67
986.882	1297.05
987.053	1307.29
987.223	846.49
987.393	1092.25
987.563	1094.3
987.734	1360.53
987.904	1288.86
988.074	811.68
988.244	1254.04
988.414	1069.72
988.585	840.35
988.755	1047.19
988.925	1104.54
989.095	1479.32
989.265	860.83
989.435	856.73
989.605	1315.48
989.775	1342.1
989.945	1208.98
990.115	830.11
990.285	1114.78
990.455	1223.32
990.625	1012.38
990.795	746.14
990.965	1675.92
991.134	783.01
991.304	912.03
991.474	819.87
991.644	1131.16
991.814	1467.03
991.984	713.38
992.153	799.39
992.323	971.42
992.493	1030.81
992.662	713.38
992.832	967.32
993.002	1075.87
993.171	1059.48
993.341	627.36
993.511	938.65
993.68	903.84
993.85	1233.56
994.019	615.07
994.189	670.37
994.358	1069.72
994.528	987.8
994.697	459.43
994.867	670.37
995.036	1260.18
995.206	979.61
995.375	623.27
995.544	760.48
995.714	1063.58
995.883	996
996.052	823.97
996.222	467.62
996.391	1434.26
996.56	1036.95
996.73	625.31
996.899	475.81
997.068	1372.82
997.237	1094.3
997.406	594.59
997.576	486.05
997.745	1006.24
997.914	1006.24
998.083	359.08
998.252	588.45
998.421	1016.48
998.59	731.81
998.759	592.55
998.928	479.91
999.097	1311.38
999.266	1008.28
999.435	762.53
999.604	447.14
999.773	1421.97
999.942	826.01
1000.111	475.81
1000.28	377.51
1000.448	750.24
1000.617	674.46
1000.786	787.1
1000.955	453.28
1001.124	922.27
1001.292	1526.42
1001.461	572.07
1001.63	453.28
1001.798	1321.62
1001.967	1069.72
1002.136	395.94
1002.304	449.19
1002.473	877.21
1002.642	909.98
1002.81	561.83
1002.979	570.02
1003.147	1116.83
1003.316	1393.3
1003.484	608.93
1003.653	475.81
1003.821	1131.16
1003.99	881.31
1004.158	666.27
1004.327	590.5
1004.495	963.23
1004.663	637.6
1004.832	561.83
1005	375.46
1005.168	924.32
1005.337	821.92
1005.505	393.89
1005.673	629.41
1005.842	934.56
1006.01	961.18
1006.178	334.5
1006.346	367.27
1006.514	975.52
1006.683	1096.35
1006.851	461.48
1007.019	424.61
1007.187	545.44
1007.355	352.93
1007.523	217.77
1007.691	271.01
1007.859	494.24
1008.027	1049.24
1008.195	426.66
1008.363	262.82
1008.531	957.08
1008.699	610.98
1008.867	223.91
1009.035	352.93
1009.203	1030.81
1009.37	774.81
1009.538	377.51
1009.706	832.16
1009.874	680.61
1010.042	668.32
1010.209	258.73
1010.377	303.78
1010.545	981.66
1010.713	643.74
1010.88	199.34
1011.048	389.8
1011.216	608.93
1011.383	1000.09
1011.551	332.45
1011.718	238.25
1011.886	973.47
1012.054	672.42
1012.221	238.25
1012.389	213.67
1012.556	623.27
1012.724	1073.82
1012.891	420.52
1013.058	70.31
1013.226	711.33
1013.393	854.69
1013.561	154.28
1013.728	94.89
1013.895	815.77
1014.063	817.82
1014.23	221.86
1014.397	139.94
1014.565	912.03
1014.732	469.67
1014.899	295.59
1015.066	166.57
1015.233	672.42
1015.401	856.73
1015.568	182.95
1015.735	418.47
1015.902	619.17
1016.069	596.64
1016.236	262.82
1016.403	115.37
1016.57	412.32
1016.737	789.15
1016.904	314.02
1017.071	125.61
1017.238	506.53
1017.405	879.26
1017.572	238.25
1017.739	477.86
1017.906	737.95
1018.073	832.16
1018.24	109.23
1018.407	205.48
1018.573	864.93
1018.74	453.28
1018.907	268.97
1019.074	-11.61
1019.241	770.72
1019.407	610.98
1019.574	94.89
1019.741	41.64
1019.907	592.55
1020.074	604.83
1020.241	-48.47
1020.407	141.99
1020.574	649.89
1020.74	598.69
1020.907	242.34
1021.073	139.94
1021.24	1180.31
1021.406	787.1
1021.573	66.22
1021.739	213.67
1021.906	615.07
1022.072	496.29
1022.239	148.14
1022.405	189.1
1022.571	510.63
1022.738	406.18
1022.904	25.26
1023.07	152.23
1023.237	494.24
1023.403	774.81
1023.569	144.04
1023.735	168.62
1023.902	500.39
1024.068	584.35
1024.234	62.12
1024.4	137.9
1024.566	645.79
1024.732	658.08
1024.898	96.94
1025.065	-19.8
1025.231	606.88
1025.397	385.7
1025.563	168.62
1025.729	84.65
1025.895	53.93
1026.061	350.89
1026.227	-1.37
1026.392	240.3
1026.558	651.94
1026.724	580.26
1026.89	62.12
1027.056	182.95
1027.222	563.87
1027.388	311.97
1027.553	113.32
1027.719	49.83
1027.885	815.77
1028.051	598.69
1028.216	-62.8
1028.382	115.37
1028.548	699.04
1028.713	334.5
1028.879	-48.47
1029.045	268.97
1029.21	772.77
1029.376	752.29
1029.541	152.23
1029.707	107.18
1029.873	520.87
1030.038	676.51
1030.204	12.97
1030.369	84.65
1030.534	684.7
1030.7	406.18
1030.865	33.45
1031.031	0.68
1031.196	490.15
1031.361	455.33
1031.527	29.35
1031.692	37.55
1031.857	68.27
1032.023	516.77
1032.188	-13.65
1032.353	51.88
1032.518	756.38
1032.684	516.77
1032.849	-40.28
1033.014	41.64
1033.179	582.31
1033.344	590.5
1033.509	82.6
1033.674	82.6
1033.839	606.88
1034.004	555.68
1034.17	6.83
1034.335	-38.23
1034.5	373.41
1034.664	297.64
1034.829	-1.37
1034.994	-5.46
1035.159	488.1
1035.324	500.39
1035.489	41.64
1035.654	35.5
1035.819	735.9
1035.984	430.76
1036.148	0.68
1036.313	139.94
1036.478	602.79
1036.643	455.33
1036.807	-3.41
1036.972	29.35
1037.137	740
1037.301	518.82
1037.466	-195.92
1037.631	37.55
1037.795	770.72
1037.96	488.1
1038.124	90.79
1038.289	-89.43
1038.454	467.62
1038.618	576.16
1038.783	12.97
1038.947	129.7
1039.111	461.48
1039.276	250.53
1039.44	-44.37
1039.605	471.72
1039.769	314.02
1039.933	381.6
1040.098	45.74
1040.262	266.92
1040.426	606.88
1040.591	643.74
1040.755	33.45
1040.919	-38.23
1041.083	506.53
1041.248	363.17
1041.412	-214.35
1041.576	-105.81
1041.74	367.27
1041.904	545.44
1042.068	-30.04
1042.232	58.03
1042.397	576.16
1042.561	543.39
1042.725	-230.74
1042.889	82.6
1043.053	578.21
1043.217	510.63
1043.381	125.61
1043.544	-187.73
1043.708	635.55
1043.872	150.18
1044.036	-187.73
1044.2	-142.68
1044.364	631.46
1044.528	748.19
1044.691	2937.47
1044.855	-118.1
1045.019	539.3
1045.183	488.1
1045.346	31.4
1045.51	-132.44
1045.674	551.59
1045.837	484
1046.001	43.69
1046.165	-87.38
1046.328	959.13
1046.492	496.29
1046.655	111.27
1046.819	53.93
1046.983	164.52
1047.146	438.95
1047.31	84.65
1047.473	-204.11
1047.636	279.21
1047.8	234.15
1047.963	70.31
1048.127	-111.96
1048.29	156.33
