Data from Hydrogel_Ink_Intensity_Test_1_USB4F045381__65__00065.txt Node

Date: Mon Jul 31 10:52:54 EDT 2023
User: mmckonesweet
Spectrometer: USB4F04538
Trigger mode: 4
Integration Time (sec): 9.000000E-1
Scans to average: 1
Electric dark correction enabled: true
Nonlinearity correction enabled: false
Boxcar width: 0
XAxis mode: Wavelengths
Number of Pixels in Spectrum: 3648
>>>>>Begin Spectral Data<<<<<
345.52	-998.21
345.736	-998.21
345.952	-998.21
346.168	-1035.08
346.384	-949.06
346.6	-113.49
346.816	-260.95
347.032	-187.22
347.248	234.66
347.464	-201.55
347.68	-131.92
347.896	115.88
348.112	328.87
348.328	-29.52
348.544	-68.44
348.76	58.54
348.975	255.14
349.191	-222.03
349.407	-207.7
349.623	13.48
349.839	-2.9
350.055	-93.01
350.27	44.2
350.486	218.28
350.702	398.5
350.918	294.05
351.133	-103.25
351.349	160.94
351.565	314.53
351.781	-193.36
351.996	70.83
352.212	308.39
352.428	-181.07
352.644	-211.79
352.859	-129.88
353.075	304.29
353.291	-66.39
353.506	-76.63
353.722	-211.79
353.938	46.25
354.153	539.81
354.369	119.98
354.584	-205.65
354.8	232.62
355.016	-246.61
355.231	-187.22
355.447	-66.39
355.662	97.45
355.878	814.24
356.093	-240.47
356.309	17.58
356.524	-232.27
356.74	251.05
356.955	-234.32
357.171	-41.81
357.386	126.12
357.602	-207.7
357.817	-90.96
358.033	-74.58
358.248	335.01
358.464	160.94
358.679	-183.12
358.895	-291.66
359.11	58.54
359.325	341.16
359.541	236.71
359.756	23.72
359.972	-256.85
360.187	212.14
360.402	-162.64
360.618	-248.66
360.833	955.55
361.048	162.98
361.264	-148.31
361.479	-90.96
361.694	-78.68
361.909	261.29
362.125	-183.12
362.34	-107.35
362.555	283.81
362.77	66.73
362.986	-273.23
363.201	-131.92
363.416	169.13
363.631	27.82
363.847	-154.45
364.062	-148.31
364.277	162.98
364.492	255.14
364.707	-144.21
364.922	-310.1
365.138	273.57
365.353	375.97
365.568	-250.71
365.783	-142.16
365.998	66.73
366.213	627.87
366.428	-215.89
366.643	44.2
366.858	263.33
367.073	195.75
367.288	-105.3
367.503	-258.9
367.718	154.79
367.933	349.35
368.148	-242.51
368.363	-7
368.578	13.48
368.793	423.08
369.008	-111.44
369.223	-189.27
369.438	242.85
369.653	332.97
369.868	-219.99
370.083	-199.51
370.298	146.6
370.513	351.4
370.728	95.4
370.943	-154.45
371.157	-199.51
371.372	588.96
371.587	-232.27
371.802	-213.84
372.017	142.5
372.232	406.69
372.446	-2.9
372.661	-232.27
372.876	332.97
373.091	201.9
373.306	-95.06
373.52	-273.23
373.735	-115.54
373.95	378.02
374.165	-15.19
374.379	-115.54
374.594	-103.25
374.809	105.64
375.023	103.59
375.238	-224.08
375.453	310.44
375.667	-199.51
375.882	-115.54
376.097	-144.21
376.311	62.63
376.526	54.44
376.741	-172.88
376.955	140.46
377.17	578.72
377.384	593.06
377.599	13.48
377.813	-185.17
378.028	580.77
378.242	218.28
378.457	-97.11
378.672	-238.42
378.886	195.75
379.101	68.78
379.315	-279.38
379.53	-158.55
379.744	220.33
379.958	277.67
380.173	-166.74
380.387	-154.45
380.602	228.52
380.816	-90.96
381.031	-90.96
381.245	-47.96
381.459	185.51
381.674	2759.81
381.888	-242.51
382.103	66.73
382.317	-125.78
382.531	457.89
382.746	-19.29
382.96	-219.99
383.174	-15.19
383.388	478.37
383.603	119.98
383.817	-316.24
384.031	224.42
384.246	466.08
384.46	54.44
384.674	468.13
384.888	138.41
385.103	124.07
385.317	-271.19
385.531	-9.05
385.745	369.83
385.959	429.22
386.174	-193.36
386.388	-248.66
386.602	103.59
386.816	-27.48
387.03	-93.01
387.244	-39.76
387.458	132.26
387.672	507.04
387.887	-269.14
388.101	-242.51
388.315	363.69
388.529	187.56
388.743	-62.29
388.957	-197.46
389.171	326.82
389.385	-97.11
389.599	-84.82
389.813	54.44
390.027	169.13
390.241	722.08
390.455	-50
390.669	-4.95
390.883	-27.48
391.097	488.61
391.311	87.21
391.525	-64.34
391.738	292.01
391.952	263.33
392.166	9.39
392.38	-156.5
392.594	302.25
392.808	349.35
393.022	-43.86
393.236	-35.67
393.449	269.48
393.663	242.85
393.877	-170.83
394.091	-64.34
394.305	-35.67
394.518	-7
394.732	-162.64
394.946	-150.36
395.16	418.98
395.373	169.13
395.587	-123.73
395.801	-82.77
396.015	316.58
396.228	312.49
396.442	-232.27
396.656	-320.34
396.869	427.17
397.083	625.83
397.297	-2.9
397.51	-93.01
397.724	431.27
397.938	265.38
398.151	-240.47
398.365	-183.12
398.578	218.28
398.792	570.53
399.005	138.41
399.219	-2.9
399.433	263.33
399.646	273.57
399.86	81.07
400.073	261.29
400.287	287.91
400.5	40.11
400.714	113.83
400.927	11.43
401.141	271.53
401.354	1170.58
401.567	328.87
401.781	-211.79
401.994	382.12
402.208	619.68
402.421	-56.15
402.635	-31.57
402.848	169.13
403.061	355.49
403.275	87.21
403.488	-185.17
403.701	617.63
403.915	390.31
404.128	85.16
404.341	-103.25
404.555	298.15
404.768	87.21
404.981	40.11
405.195	-101.2
405.408	513.19
405.621	328.87
405.834	99.5
406.048	-154.45
406.261	488.61
406.474	529.57
406.687	-82.77
406.9	117.93
407.114	126.12
407.327	335.01
407.54	-224.08
407.753	-127.83
407.966	-15.19
408.179	292.01
408.392	-84.82
408.605	-209.75
408.819	306.34
409.032	269.48
409.245	-109.4
409.458	126.12
409.671	322.73
409.884	482.47
410.097	-179.03
410.31	46.25
410.523	308.39
410.736	136.36
410.949	-27.48
411.162	11.43
411.375	574.63
411.588	406.69
411.801	189.61
412.014	-109.4
412.227	177.32
412.44	58.54
412.653	-39.76
412.865	146.6
413.078	461.99
413.291	300.2
413.504	74.92
413.717	-66.39
413.93	378.02
414.143	-64.34
414.356	107.69
414.568	-133.97
414.781	371.88
414.994	261.29
415.207	136.36
415.42	54.44
415.632	378.02
415.845	627.87
416.058	-144.21
416.271	-136.02
416.483	228.52
416.696	666.78
416.909	-17.24
417.121	-58.2
417.334	322.73
417.547	654.5
417.759	25.77
417.972	-84.82
418.185	33.96
418.397	406.69
418.61	-15.19
418.823	-31.57
419.035	515.23
419.248	253.09
419.46	46.25
419.673	50.35
419.885	335.01
420.098	156.84
420.311	3.24
420.523	-176.98
420.736	328.87
420.948	197.8
421.161	68.78
421.373	-133.97
421.586	406.69
421.798	171.18
422.01	-119.64
422.223	152.74
422.435	144.55
422.648	369.83
422.86	15.53
423.073	-2.9
423.285	482.47
423.497	-82.77
423.71	-35.67
423.922	48.3
424.134	439.46
424.347	715.94
424.559	246.95
424.771	308.39
424.984	216.23
425.196	386.21
425.408	-138.07
425.621	-99.16
425.833	545.95
426.045	539.81
426.257	-52.05
426.47	46.25
426.682	304.29
426.894	302.25
427.106	66.73
427.318	103.59
427.531	83.11
427.743	478.37
427.955	21.67
428.167	570.53
428.379	365.73
428.591	193.7
428.804	126.12
429.016	70.83
429.228	234.66
429.44	386.21
429.652	234.66
429.864	-50
430.076	275.62
430.288	277.67
430.5	95.4
430.712	138.41
430.924	603.3
431.136	423.08
431.348	-41.81
431.56	23.72
431.772	277.67
431.984	193.7
432.196	-11.09
432.408	128.17
432.62	160.94
432.832	425.12
433.044	314.53
433.256	240.81
433.468	480.42
433.679	-76.63
433.891	81.07
434.103	380.07
434.315	687.26
434.527	425.12
434.739	214.18
434.95	169.13
435.162	599.2
435.374	187.56
435.586	187.56
435.798	38.06
436.009	-13.14
436.221	308.39
436.433	93.35
436.645	199.85
436.856	138.41
437.068	674.98
437.28	117.93
437.491	371.88
437.703	523.43
437.915	523.43
438.126	140.46
438.338	304.29
438.55	347.3
438.761	500.9
438.973	279.72
439.184	175.27
439.396	345.25
439.608	527.52
439.819	29.87
440.031	294.05
440.242	529.57
440.454	418.98
440.665	201.9
440.877	214.18
441.088	513.19
441.3	347.3
441.511	17.58
441.723	152.74
441.934	359.59
442.146	398.5
442.357	296.1
442.569	418.98
442.78	468.13
442.991	767.13
443.203	459.94
443.414	140.46
443.626	713.89
443.837	273.57
444.048	56.49
444.26	54.44
444.471	351.4
444.682	711.84
444.894	-27.48
445.105	44.2
445.316	607.39
445.528	642.21
445.739	292.01
445.95	226.47
446.161	537.76
446.373	726.18
446.584	240.81
446.795	169.13
447.006	605.35
447.217	799.9
447.429	25.77
447.64	44.2
447.851	754.85
448.062	482.47
448.273	107.69
448.484	158.89
448.695	627.87
448.907	349.35
449.118	308.39
449.329	507.04
449.54	406.69
449.751	259.24
449.962	289.96
450.173	126.12
450.384	746.66
450.595	777.37
450.806	308.39
451.017	316.58
451.228	736.42
451.439	711.84
451.65	308.39
451.861	54.44
452.072	267.43
452.283	464.04
452.494	373.92
452.705	154.79
452.915	926.88
453.126	615.59
453.337	277.67
453.548	232.62
453.759	728.22
453.97	1078.43
454.181	509.09
454.391	384.16
454.602	617.63
454.813	636.06
455.024	398.5
455.235	203.94
455.445	564.39
455.656	650.4
455.867	552.1
456.078	277.67
456.288	480.42
456.499	760.99
456.71	283.81
456.921	550.05
457.131	763.04
457.342	636.06
457.553	332.97
457.763	343.21
457.974	724.13
458.184	828.57
458.395	332.97
458.606	236.71
458.816	881.82
459.027	1045.66
459.237	461.99
459.448	242.85
459.659	902.3
459.869	1201.3
460.08	253.09
460.29	564.39
460.501	1016.99
460.711	539.81
460.922	230.57
461.132	445.6
461.343	1399.96
461.553	431.27
461.764	513.19
461.974	451.75
462.184	945.31
462.395	910.49
462.605	523.43
462.816	367.78
463.026	713.89
463.236	926.88
463.447	394.4
463.657	425.12
463.867	941.21
464.078	629.92
464.288	492.71
464.498	437.41
464.709	703.65
464.919	883.87
465.129	525.47
465.339	433.32
465.55	908.44
465.76	1004.7
465.97	615.59
466.18	507.04
466.391	1076.38
466.601	892.06
466.811	601.25
467.021	525.47
467.231	1043.61
467.441	1037.47
467.651	660.64
467.862	283.81
468.072	873.63
468.282	1240.22
468.492	550.05
468.702	705.7
468.912	949.4
469.122	1543.32
469.332	1041.56
469.542	570.53
469.752	1209.5
469.962	1072.28
470.172	570.53
470.382	699.55
470.592	1174.68
470.802	1195.16
471.012	881.82
471.222	662.69
471.432	1258.65
471.642	1176.73
471.852	924.83
472.062	685.22
472.272	916.64
472.482	836.77
472.691	685.22
472.901	666.78
473.111	1184.92
473.321	1672.34
473.531	836.77
473.741	869.53
473.95	1287.32
474.16	1275.03
474.37	1043.61
474.58	789.66
474.79	1594.51
474.999	1322.13
475.209	763.04
475.419	992.41
475.628	1195.16
475.838	1549.46
476.048	1078.43
476.258	922.78
476.467	1692.82
476.677	1176.73
476.886	1234.07
477.096	1203.35
477.306	1313.94
477.515	1600.66
477.725	1195.16
477.935	1162.39
478.144	1686.67
478.354	1258.65
478.563	1342.61
478.773	1164.44
478.982	1592.47
479.192	1741.97
479.401	1252.5
479.611	1172.63
479.82	1328.28
480.03	1600.66
480.239	1307.8
480.449	1250.46
480.658	1944.72
480.868	1359
481.077	1453.2
481.287	1490.07
481.496	1676.43
481.705	2016.4
481.915	1520.79
482.124	1766.54
482.333	1764.5
482.543	2004.11
482.752	1467.54
482.961	1500.31
483.171	1883.28
483.38	1727.63
483.589	1684.62
483.799	1412.25
484.008	1692.82
484.217	1926.29
484.426	1580.18
484.636	1535.12
484.845	1787.02
485.054	1395.86
485.263	1909.9
485.472	1528.98
485.682	2329.74
485.891	1893.52
486.1	1522.84
486.309	1655.95
486.518	2169.99
486.727	2364.55
486.936	1612.95
487.146	1817.74
487.355	2356.36
487.564	1889.42
487.773	1756.3
487.982	1823.89
488.191	2045.07
488.4	2047.12
488.609	1825.93
488.818	1854.61
489.027	2770.05
489.236	2434.18
489.445	1868.94
489.654	1778.83
489.863	2368.65
490.072	2317.45
490.281	2237.58
490.49	2073.74
490.698	2569.35
490.907	2561.16
491.116	1971.34
491.325	1864.85
491.534	2585.73
491.743	2315.4
491.952	2165.9
492.16	2139.27
492.369	2387.08
492.578	2530.44
492.787	2249.86
492.996	2026.64
493.204	2149.51
493.413	2874.49
493.622	1946.76
493.831	2006.16
494.039	2792.58
494.248	2200.71
494.457	2204.81
494.665	2098.31
494.874	2491.52
495.083	2909.31
495.291	2280.58
495.5	2137.23
495.709	2651.27
495.917	2579.59
496.126	2550.92
496.335	2135.18
496.543	2464.9
496.752	2653.31
496.96	2569.35
497.169	2231.43
497.377	2636.93
497.586	2827.39
497.794	2430.09
498.003	2151.56
498.211	2825.34
498.42	2974.85
498.628	2524.29
498.837	2428.04
499.045	2788.48
499.254	2692.23
499.462	2534.53
499.671	2370.69
499.879	3138.68
500.087	2845.82
500.296	2360.45
500.504	2413.7
500.713	2774.14
500.921	3273.85
501.129	2507.91
501.338	2471.04
501.546	3087.48
501.754	2757.76
501.962	2671.75
502.171	2489.48
502.379	2983.04
502.587	3210.36
502.795	2673.79
503.004	2643.07
503.212	2937.98
503.42	3193.98
503.628	2743.42
503.837	2700.42
504.045	3126.39
504.253	3204.22
504.461	2589.83
504.669	2430.09
504.877	3187.83
505.085	3298.42
505.294	2620.55
505.502	2892.93
505.71	3171.45
505.918	3259.51
506.126	2604.16
506.334	2688.13
506.542	3159.16
506.75	3245.18
506.958	2921.6
507.166	2851.97
507.374	3110.01
507.582	3527.8
507.79	2933.89
507.998	2757.76
508.206	3318.9
508.414	3292.28
508.622	2940.03
508.83	2876.54
509.037	3404.92
509.245	3216.51
509.453	2882.69
509.661	2921.6
509.869	3398.77
510.077	3155.07
510.285	3126.39
510.492	2636.93
510.7	3869.81
510.908	3013.76
511.116	2962.56
511.324	2806.91
511.531	3239.03
511.739	3394.68
511.947	3062.91
512.155	3265.66
512.362	3398.77
512.57	3015.8
512.778	2937.98
512.985	3003.52
513.193	3601.52
513.401	3806.32
513.608	3075.2
513.816	3085.44
514.024	3509.37
514.231	3699.83
514.439	3155.07
514.646	3236.99
514.854	3718.26
515.061	3576.95
515.269	3101.82
515.477	3103.87
515.684	3241.08
515.892	3683.44
516.099	2968.7
516.307	2864.25
516.514	3810.42
516.722	3839.09
516.929	3443.83
517.136	3261.56
517.344	3888.24
517.551	3654.77
517.759	3081.34
517.966	3363.96
518.173	3497.08
518.381	3591.28
518.588	3454.07
518.796	3167.35
519.003	3654.77
519.21	3531.89
519.418	3349.62
519.625	3611.76
519.832	3513.46
520.039	3753.07
520.247	3146.87
520.454	3273.85
520.661	3832.94
520.868	3742.83
521.076	3370.1
521.283	3525.75
521.49	4222.06
521.697	3779.7
521.904	3486.84
522.112	3488.89
522.319	3961.97
522.526	3896.43
522.733	3404.92
522.94	3441.78
523.147	3523.7
523.354	3964.01
523.561	3380.34
523.768	3626.1
523.975	4197.48
524.183	3994.73
524.39	3648.63
524.597	3535.99
524.804	3861.62
525.011	3716.21
525.218	3646.58
525.425	3675.25
525.632	4101.23
525.838	3665.01
526.045	3542.13
526.252	3470.45
526.459	5225.56
526.666	4758.63
526.873	3660.91
527.08	3617.91
527.287	4314.22
527.494	4224.11
527.701	3757.17
527.907	3650.67
528.114	4181.1
528.321	3972.21
528.528	3658.87
528.735	3773.55
528.941	3925.1
529.148	3880.05
529.355	3814.51
529.562	3734.64
529.768	4578.4
529.975	3929.2
530.182	3820.66
530.388	3798.13
530.595	4576.36
530.802	3826.8
531.008	4072.56
531.215	3843.18
531.422	4772.96
531.628	4916.32
531.835	3951.73
532.042	4000.88
532.248	4025.45
532.455	4236.39
532.661	3888.24
532.868	3781.74
533.074	4465.77
533.281	4617.32
533.487	4084.84
533.694	3847.28
533.9	4209.77
534.107	4232.3
534.313	3918.96
534.52	3931.25
534.726	4508.77
534.933	4772.96
535.139	4047.98
535.345	3955.82
535.552	4394.09
535.758	4471.91
535.965	4224.11
536.171	4084.84
536.377	4619.36
536.584	4695.14
536.79	4258.92
536.996	4113.52
537.203	4396.14
537.409	4650.08
537.615	4099.18
537.821	4220.01
538.028	4664.42
538.234	4596.84
538.44	4324.46
538.646	4277.35
538.853	4695.14
539.059	4504.68
539.265	4588.64
539.471	4041.84
539.677	4807.78
539.883	4435.05
540.09	4301.93
540.296	4713.57
540.502	4568.16
540.708	4457.57
540.914	4516.97
541.12	4281.45
541.326	4789.35
541.532	4641.89
541.738	4449.38
541.944	4478.05
542.15	4944.99
542.356	4746.34
542.562	4293.74
542.768	4392.04
542.974	5399.64
543.18	5190.75
543.386	4557.93
543.592	4240.49
543.798	5125.21
544.004	5084.25
544.21	4467.81
544.415	4379.75
544.621	4936.8
544.827	5276.76
545.033	4508.77
545.239	4820.07
545.445	4637.8
545.651	4760.67
545.856	4625.51
546.062	4617.32
546.268	4795.49
546.474	4830.3
546.679	4598.88
546.885	4492.39
547.091	4701.28
547.297	5350.49
547.502	4596.84
547.708	4449.38
547.914	4709.47
548.119	4979.81
548.325	4346.98
548.531	4318.31
548.736	5348.44
548.942	4734.05
549.147	4555.88
549.353	4979.81
549.559	5162.08
549.764	4883.55
549.97	4613.22
550.175	4672.61
550.381	5129.31
550.586	4906.08
550.792	4867.17
550.997	4732
551.203	5028.96
551.408	5133.4
551.614	4748.39
551.819	4727.91
552.025	5618.77
552.23	5493.85
552.435	4832.35
552.641	5022.81
552.846	4961.37
553.052	5465.18
553.257	4985.95
553.462	5008.48
553.668	4961.37
553.873	5342.3
554.078	4895.84
554.283	5047.39
554.489	5448.79
554.694	5207.13
554.899	4795.49
555.105	5094.49
555.31	5391.45
555.515	5497.94
555.72	5084.25
555.925	4961.37
556.131	5289.05
556.336	5274.71
556.541	5039.2
556.746	4764.77
556.951	5620.82
557.156	5590.1
557.361	4985.95
557.567	5186.65
557.772	5942.35
557.977	5508.18
558.182	4944.99
558.387	5172.32
558.592	5246.04
558.797	5753.94
559.002	5188.7
559.207	5151.84
559.412	5481.56
559.617	5833.81
559.822	5194.84
560.027	5045.34
560.232	5715.03
560.437	5622.87
560.642	5188.7
560.847	4988
561.051	5641.3
561.256	5454.94
561.461	5229.66
561.666	5063.77
561.871	5626.96
562.076	5733.46
562.281	5258.33
562.485	5186.65
562.69	5674.07
562.895	5751.89
563.1	5305.43
563.305	5170.27
563.509	5788.75
563.714	6052.94
563.919	5368.92
564.123	5321.82
564.328	5555.29
564.533	5768.27
564.737	5203.04
564.942	5403.74
565.147	5885.01
565.351	6030.41
565.556	5524.57
565.761	5358.68
565.965	5620.82
566.17	5588.05
566.374	5354.58
566.579	5049.44
566.784	5559.38
566.988	5661.78
567.193	5157.98
567.397	5340.25
567.602	5315.67
567.806	5473.37
568.011	5407.83
568.215	5307.48
568.42	5559.38
568.624	5590.1
568.828	5448.79
569.033	5563.48
569.237	5911.63
569.442	5833.81
569.646	5356.63
569.85	5665.88
570.055	5805.14
570.259	5993.55
570.463	5747.79
570.668	5559.38
570.872	5629.01
571.076	5731.41
571.281	5712.98
571.485	5760.08
571.689	5839.95
571.893	5971.02
572.098	5581.91
572.302	5489.75
572.506	6190.16
572.71	5778.51
572.914	5489.75
573.119	5571.67
573.323	6270.03
573.527	6173.77
573.731	5719.12
573.935	5547.09
574.139	5952.59
574.343	5684.31
574.547	5665.88
574.751	5768.27
574.955	6222.92
575.159	6231.12
575.364	5696.6
575.568	5473.37
575.772	6118.48
575.976	6241.36
576.18	5594.2
576.383	5575.77
576.587	6325.32
576.791	6038.61
576.995	5469.27
577.199	5551.19
577.403	6157.39
577.607	6435.91
577.811	5729.36
578.015	5858.39
578.219	6317.13
578.422	6290.51
578.626	5882.96
578.83	5948.5
579.034	6394.95
579.238	6155.34
579.442	5790.8
579.645	6489.16
579.849	6141
580.053	6210.64
580.257	5848.15
580.46	5893.2
580.664	6513.74
580.868	6347.85
581.071	6212.68
581.275	6018.13
581.479	5966.93
581.682	6491.21
581.886	5749.84
582.09	6243.4
582.293	6483.02
582.497	6452.3
582.7	6110.29
582.904	6100.05
583.107	6276.17
583.311	6175.82
583.515	6038.61
583.718	5952.59
583.922	6503.5
584.125	6775.88
584.329	5856.34
584.532	6194.25
584.735	6607.94
584.939	6255.69
585.142	5940.3
585.346	6030.41
585.549	6501.45
585.753	6206.54
585.956	6184.01
586.159	6310.99
586.363	6794.31
586.566	6720.58
586.769	5958.74
586.973	6143.05
587.176	6587.46
587.379	6571.08
587.582	6511.69
587.786	6200.4
587.989	6505.54
588.192	7259.2
588.395	6403.14
588.599	6487.11
588.802	6618.18
589.005	6677.57
589.208	6310.99
589.411	6470.73
589.615	6739.01
589.818	7046.21
590.021	6638.66
590.224	6292.55
590.427	6845.51
590.63	6677.57
590.833	6304.84
591.036	6286.41
591.239	6509.64
591.442	6476.87
591.645	6562.89
591.848	6353.99
592.051	6722.63
592.254	7038.02
592.457	6577.22
592.66	6444.1
592.863	6640.71
593.066	6796.35
593.269	6276.17
593.472	6483.02
593.675	6532.17
593.878	7115.84
594.081	6661.19
594.284	6329.42
594.486	6843.46
594.689	6825.03
594.892	6466.63
595.095	6485.06
595.298	6855.75
595.5	6681.67
595.703	6581.32
595.906	6646.85
596.109	7203.9
596.311	7230.52
596.514	6278.22
596.717	6784.07
596.92	7105.6
597.122	6943.81
597.325	6419.53
597.528	6415.43
597.73	7271.48
597.933	6753.35
598.136	6507.59
598.338	6392.91
598.541	7005.25
598.743	7083.07
598.946	6730.82
599.148	6685.76
599.351	7326.78
599.554	7312.44
599.756	6865.99
599.959	6706.24
600.161	7291.96
600.363	7615.54
600.566	7005.25
600.768	6599.75
600.971	7175.23
601.173	7019.58
601.376	6820.93
601.578	6702.15
601.78	7042.11
601.983	7777.33
602.185	6693.96
602.388	6970.43
602.59	7179.33
602.792	6886.47
602.995	6931.52
603.197	6741.06
603.399	7261.24
603.601	7279.68
603.804	6788.16
604.006	6693.96
604.208	6902.85
604.41	6706.24
604.613	7062.59
604.815	6605.89
605.017	7781.43
605.219	6923.33
605.421	7246.91
605.623	6669.38
605.826	7443.51
606.028	7533.62
606.23	6851.65
606.432	6880.32
606.634	7689.27
606.836	7484.47
607.038	6894.66
607.24	6835.27
607.442	7263.29
607.644	7156.8
607.846	7119.93
608.048	7060.54
608.25	7609.4
608.452	7021.63
608.654	7011.39
608.856	6761.54
609.058	7234.62
609.26	7308.35
609.462	7025.73
609.664	6952
609.866	7658.55
610.067	7523.38
610.269	7232.57
610.471	6802.5
610.673	7052.35
610.875	7687.22
611.077	6749.25
611.278	7111.74
611.48	7365.69
611.682	7613.49
611.884	7205.95
612.085	6935.62
612.287	6997.06
612.489	7365.69
612.69	6904.9
612.892	6968.38
613.094	7496.76
613.295	7484.47
613.497	6921.28
613.699	6878.27
613.9	7830.58
614.102	7394.36
614.304	6814.79
614.505	6802.5
614.707	7238.72
614.908	7255.1
615.11	6739.01
615.311	7214.14
615.513	7482.42
615.714	7410.75
615.916	6870.08
616.117	7099.45
616.319	7265.34
616.52	7488.57
616.722	7107.65
616.923	7062.59
617.124	7513.14
617.326	7431.23
617.527	7181.37
617.729	7169.09
617.93	7572.54
618.131	7429.18
618.333	7103.55
618.534	7343.16
618.735	6933.57
618.937	7803.96
619.138	7097.41
619.339	7001.15
619.54	7406.65
619.742	7359.55
619.943	7134.27
620.144	7101.5
620.345	7484.47
620.546	7631.93
620.748	7046.21
620.949	7162.94
621.15	7349.31
621.351	7324.73
621.552	7062.59
621.753	6829.12
621.954	7214.14
622.155	7830.58
622.356	7148.61
622.558	7457.85
622.759	7437.37
622.96	7859.25
623.161	6988.86
623.362	7152.7
623.563	7404.6
623.764	7570.49
623.965	7152.7
624.166	7595.06
624.366	7427.13
624.567	7517.24
624.768	6868.03
624.969	7136.32
625.17	7257.15
625.371	7642.17
625.572	7400.51
625.773	7083.07
625.973	7605.3
626.174	7820.34
626.375	7197.76
626.576	7330.87
626.777	7724.08
626.977	8143.92
627.178	6974.53
627.379	7283.77
627.58	7283.77
627.78	7664.69
627.981	7308.35
628.182	7279.68
628.382	7838.77
628.583	7173.18
628.784	7242.81
628.984	7459.9
629.185	7681.08
629.386	7683.13
629.586	7357.5
629.787	7298.11
629.987	7590.97
630.188	7441.47
630.388	7418.94
630.589	7296.06
630.79	8260.65
630.99	7654.45
631.191	7365.69
631.391	7314.49
631.591	7724.08
631.792	7883.83
631.992	7406.65
632.193	7324.73
632.393	7980.08
632.594	7681.08
632.794	7271.48
632.994	7486.52
633.195	7746.61
633.395	7580.73
633.595	7298.11
633.796	7320.63
633.996	7437.37
634.196	7986.22
634.397	7205.95
634.597	7463.99
634.797	7390.27
634.997	7957.55
635.198	7836.72
635.398	7322.68
635.598	7531.58
635.798	7994.42
635.998	7719.99
636.199	7369.79
636.399	7369.79
636.599	7312.44
636.799	7304.25
636.999	7695.41
637.199	7754.8
637.399	7857.2
637.599	7326.78
637.799	7554.1
637.999	7658.55
638.199	8164.4
638.399	7332.92
638.599	7425.08
638.799	7806
638.999	8139.82
639.199	7580.73
639.399	7631.93
639.599	8236.08
639.799	7613.49
639.999	7197.76
640.199	7435.32
640.399	7939.12
640.599	7652.41
640.799	7646.26
640.998	7687.22
641.198	7969.84
641.398	7801.91
641.598	7537.72
641.798	7410.75
641.997	8543.27
642.197	7697.46
642.397	7584.82
642.597	7461.94
642.796	8068.14
642.996	8168.49
643.196	7646.26
643.395	7431.23
643.595	8113.2
643.795	7240.76
643.994	7652.41
644.194	7560.25
644.394	8092.72
644.593	7932.98
644.793	7527.48
644.992	7943.22
645.192	7873.59
645.392	7433.27
645.591	7726.13
645.791	7736.37
645.99	8252.46
646.19	7629.88
646.389	7793.72
646.589	7658.55
646.788	7961.65
646.987	8156.21
647.187	8049.71
647.386	7883.83
647.586	7955.51
647.785	8213.55
647.984	7711.8
648.184	7599.16
648.383	7750.71
648.582	7726.13
648.782	7746.61
648.981	7824.44
649.18	7670.84
649.38	8107.05
649.579	7803.96
649.778	7824.44
649.977	8201.26
650.177	8053.81
650.376	7623.73
650.575	7398.46
650.774	8389.67
650.973	7652.41
651.173	7394.36
651.372	7773.24
651.571	7992.37
651.77	8281.13
651.969	7885.87
652.168	7857.2
652.367	7763
652.566	8111.15
652.765	7902.26
652.964	8133.68
653.163	8483.88
653.362	7963.7
653.561	7570.49
653.76	7717.94
653.959	7914.55
654.158	8188.97
654.357	7846.96
654.556	7726.13
654.755	8066.1
654.954	8369.19
655.153	7838.77
655.352	7928.88
655.551	8330.28
655.749	7832.63
655.948	8053.81
656.147	7969.84
656.346	8274.99
656.545	8084.53
656.743	7896.11
656.942	7834.68
657.141	7941.17
657.34	7806
657.538	7810.1
657.737	7869.49
657.936	7900.21
658.135	8139.82
658.333	7787.57
658.532	7830.58
658.731	8514.6
658.929	8412.2
659.128	8262.7
659.326	7963.7
659.525	8338.48
659.724	8115.25
659.922	7730.23
660.121	7775.28
660.319	8270.89
660.518	7924.79
660.716	7783.48
660.915	7648.31
661.113	8336.43
661.312	7871.54
661.51	8172.59
661.709	7693.37
661.907	8406.06
662.105	8451.11
662.304	7799.86
662.502	7668.79
662.701	8281.13
662.899	7975.98
663.097	8309.8
663.296	7838.77
663.494	8584.23
663.692	8608.81
663.891	7814.2
664.089	7818.29
664.287	8248.36
664.485	8467.5
664.684	7937.07
664.882	8115.25
665.08	8213.55
665.278	8156.21
665.476	7521.34
665.675	8299.56
665.873	8727.59
666.071	8320.04
666.269	7832.63
666.467	8023.09
666.665	8307.76
666.863	7951.41
667.061	8008.75
667.259	7920.69
667.457	8125.49
667.655	8268.84
667.853	7593.01
668.051	7957.55
668.249	8150.06
668.447	8180.78
668.645	7894.07
668.843	8141.87
669.041	8356.91
669.239	8023.09
669.437	8008.75
669.635	8021.04
669.833	8006.7
670.031	8479.79
670.229	7949.36
670.426	8016.94
670.624	8057.9
670.822	8164.4
671.02	7920.69
671.218	8086.58
671.415	7877.68
671.613	8066.1
671.811	7957.55
672.009	7971.89
672.206	8246.32
672.404	8098.86
672.602	8287.28
672.799	7930.93
672.997	8326.19
673.195	8299.56
673.392	7904.31
673.59	7719.99
673.788	8393.77
673.985	7390.27
674.183	8012.85
674.38	7932.98
674.578	8258.6
674.775	8039.47
674.973	7687.22
675.17	7693.37
675.368	8463.4
675.565	8338.48
675.763	7715.89
675.96	7865.39
676.158	8397.87
676.355	8008.75
676.553	7715.89
676.75	7828.53
676.947	7992.37
677.145	7949.36
677.342	7705.65
677.539	7877.68
677.737	8195.12
677.934	8469.55
678.131	7894.07
678.329	7799.86
678.526	8365.1
678.723	8285.23
678.92	7806
679.118	7728.18
679.315	7652.41
679.512	8201.26
679.709	7959.6
679.906	7869.49
680.104	8332.33
680.301	8107.05
680.498	7689.27
680.695	7687.22
680.892	7947.31
681.089	7910.45
681.286	7881.78
681.483	7742.52
681.68	8238.12
681.877	8168.49
682.075	7859.25
682.272	7930.93
682.469	7969.84
682.665	7771.19
682.862	7619.64
683.059	7681.08
683.256	8008.75
683.453	7996.46
683.65	7799.86
683.847	7707.7
684.044	7806
684.241	7849.01
684.438	7816.24
684.635	7523.38
684.831	8305.71
685.028	8473.64
685.225	7633.97
685.422	7863.35
685.619	7865.39
685.815	8039.47
686.012	7795.76
686.209	7636.02
686.405	7687.22
686.602	8150.06
686.799	7367.74
686.996	7597.11
687.192	7642.17
687.389	8373.29
687.586	7636.02
687.782	7580.73
687.979	8168.49
688.175	8236.08
688.372	7541.82
688.568	7693.37
688.765	7707.7
688.962	7965.75
689.158	7818.29
689.355	7382.07
689.551	8047.66
689.748	7728.18
689.944	7560.25
690.14	7355.45
690.337	7998.51
690.533	7752.76
690.73	7615.54
690.926	7775.28
691.123	7795.76
691.319	7892.02
691.515	7572.54
691.712	7691.32
691.908	8092.72
692.104	7820.34
692.301	7588.92
692.497	7504.95
692.693	8082.48
692.889	7914.55
693.086	7791.67
693.282	7568.44
693.478	7664.69
693.674	8256.56
693.87	7590.97
694.067	7519.29
694.263	7818.29
694.459	7701.56
694.655	7566.39
694.851	7715.89
695.047	7736.37
695.243	7914.55
695.439	7623.73
695.635	7541.82
695.831	7912.5
696.027	7652.41
696.224	7410.75
696.42	7998.51
696.615	8184.88
696.811	7922.74
697.007	7488.57
697.203	7416.89
697.399	8037.42
697.595	8049.71
697.791	7095.36
697.987	7660.6
698.183	7457.85
698.379	7382.07
698.575	7330.87
698.77	7525.43
698.966	7887.92
699.162	7967.79
699.358	7423.03
699.554	7570.49
699.749	7791.67
699.945	7838.77
700.141	7599.16
700.337	7271.48
700.532	7572.54
700.728	7552.06
700.924	7425.08
701.119	7066.69
701.315	7658.55
701.511	7410.75
701.706	7550.01
701.902	7171.13
702.097	7425.08
702.293	7734.32
702.489	7500.86
702.684	7318.59
702.88	7652.41
703.075	7550.01
703.271	7271.48
703.466	7279.68
703.662	7646.26
703.857	7566.39
704.053	7197.76
704.248	7537.72
704.443	7820.34
704.639	7664.69
704.834	7476.28
705.03	7365.69
705.225	7767.09
705.42	7896.11
705.616	7611.45
705.811	7324.73
706.006	7541.82
706.202	7418.94
706.397	7519.29
706.592	7242.81
706.787	7642.17
706.983	7668.79
707.178	7449.66
707.373	7246.91
707.568	7691.32
707.763	7763
707.959	7320.63
708.154	7291.96
708.349	7662.65
708.544	7674.93
708.739	7238.72
708.934	7486.52
709.129	7756.85
709.324	7806
709.519	7359.55
709.714	7228.48
709.909	7769.14
710.104	7820.34
710.299	7220.28
710.494	7257.15
710.689	7697.46
710.884	7470.14
711.079	7361.59
711.274	7396.41
711.469	7787.57
711.664	7744.56
711.859	7253.05
712.054	7463.99
712.249	7599.16
712.443	7793.72
712.638	7140.41
712.833	7281.72
713.028	7656.5
713.223	7402.55
713.417	7543.86
713.612	7236.67
713.807	7654.45
714.002	8154.16
714.196	7502.9
714.391	7205.95
714.586	7812.15
714.78	7334.97
714.975	7138.37
715.17	7224.38
715.364	7400.51
715.559	7779.38
715.754	6796.35
715.948	7308.35
716.143	7736.37
716.337	7328.83
716.532	7330.87
716.726	7187.52
716.921	7423.03
717.115	7820.34
717.31	7154.75
717.504	7719.99
717.699	7230.52
717.893	7386.17
718.088	6954.05
718.282	7121.98
718.476	7410.75
718.671	7302.2
718.865	7234.62
719.059	6995.01
719.254	7306.3
719.448	7576.63
719.642	8430.63
719.837	6855.75
720.031	7552.06
720.225	7580.73
720.419	7031.87
720.614	6939.71
720.808	7609.4
721.002	7193.66
721.196	6845.51
721.39	6827.07
721.585	7611.45
721.779	7408.7
721.973	6800.45
722.167	6771.78
722.361	7347.26
722.555	7513.14
722.749	6960.19
722.943	6960.19
723.137	6984.77
723.331	7390.27
723.525	6814.79
723.719	7062.59
723.913	7275.58
724.107	7357.5
724.301	6603.85
724.495	6999.1
724.689	7672.89
724.883	7470.14
725.077	6757.44
725.271	6886.47
725.465	7513.14
725.659	7130.17
725.853	6908.99
726.046	6792.26
726.24	6997.06
726.434	7353.4
726.628	6997.06
726.822	6974.53
727.015	7451.7
727.209	7550.01
727.403	6825.03
727.596	6685.76
727.79	7386.17
727.984	7316.54
728.177	7021.63
728.371	7007.3
728.565	7259.2
728.758	7005.25
728.952	6847.55
729.146	6962.24
729.339	7420.99
729.533	7277.63
729.726	6874.18
729.92	6784.07
730.113	7535.67
730.307	7312.44
730.5	6853.7
730.694	6868.03
730.887	6915.14
731.081	7377.98
731.274	6888.51
731.468	7115.84
731.661	7193.66
731.854	7099.45
732.048	6816.83
732.241	6767.68
732.435	6890.56
732.628	7388.22
732.821	7027.78
733.014	6878.27
733.208	6947.9
733.401	7195.71
733.594	6888.51
733.788	6790.21
733.981	7504.95
734.174	7189.56
734.367	6702.15
734.56	7169.09
734.754	7253.05
734.947	7087.17
735.14	6857.79
735.333	6997.06
735.526	7201.85
735.719	6921.28
735.912	6806.59
736.105	6831.17
736.298	7177.28
736.491	7017.54
736.684	6911.04
736.877	6685.76
737.07	7025.73
737.263	7384.12
737.456	6941.76
737.649	6655.05
737.842	6947.9
738.035	7181.37
738.228	6976.58
738.421	6941.76
738.614	7418.94
738.807	7205.95
739	6607.94
739.192	6745.16
739.385	7308.35
739.578	7195.71
739.771	7001.15
739.964	6673.48
740.156	7263.29
740.349	7029.82
740.542	6798.4
740.735	6714.44
740.927	6612.04
741.12	6921.28
741.313	6806.59
741.505	6757.44
741.698	7197.76
741.891	7066.69
742.083	7001.15
742.276	6704.2
742.468	6925.38
742.661	7150.65
742.854	6845.51
743.046	6857.79
743.239	7423.03
743.431	7025.73
743.624	6732.87
743.816	6577.22
744.009	6947.9
744.201	7087.17
744.393	6841.41
744.586	6577.22
744.778	7345.21
744.971	6952
745.163	6763.59
745.355	6759.49
745.548	6927.42
745.74	6749.25
745.932	6761.54
746.125	6681.67
746.317	7584.82
746.509	6939.71
746.702	6804.55
746.894	6763.59
747.086	6911.04
747.278	7136.32
747.471	6904.9
747.663	6890.56
747.855	7052.35
748.047	7367.74
748.239	6687.81
748.431	6601.8
748.623	7337.02
748.815	7222.33
749.008	6550.6
749.2	6700.1
749.392	7142.46
749.584	7025.73
749.776	6724.68
749.968	6773.83
750.16	7132.22
750.352	6927.42
750.544	6833.22
750.736	6626.37
750.928	7074.88
751.12	6999.1
751.311	6640.71
751.503	6763.59
751.695	6880.32
751.887	6974.53
752.079	6609.99
752.271	6648.9
752.463	7629.88
752.654	6949.95
752.846	6585.41
753.038	6585.41
753.23	6804.55
753.421	7025.73
753.613	6646.85
753.805	6896.71
753.997	7044.16
754.188	7115.84
754.38	6407.24
754.572	6614.09
754.763	6827.07
754.955	6775.88
755.146	6616.13
755.338	6587.46
755.53	6925.38
755.721	6865.99
755.913	6327.37
756.104	6411.34
756.296	6583.37
756.487	6904.9
756.679	6194.25
756.87	6585.41
757.062	6739.01
757.253	6898.75
757.445	6468.68
757.636	6446.15
757.827	6575.17
758.019	7214.14
758.21	6538.31
758.401	6503.5
758.593	7136.32
758.784	7017.54
758.975	6241.36
759.167	6118.48
759.358	6530.12
759.549	6714.44
759.74	6444.1
759.932	6380.62
760.123	6820.93
760.314	6353.99
760.505	6247.5
760.696	6245.45
760.888	7091.26
761.079	6528.07
761.27	6184.01
761.461	6143.05
761.652	7015.49
761.843	6544.45
762.034	6370.38
762.225	6470.73
762.416	6419.53
762.607	6593.61
762.798	6177.87
762.989	6216.78
763.18	7308.35
763.371	6231.12
763.562	6181.96
763.753	6313.03
763.944	6601.8
764.135	6579.27
764.326	6417.48
764.517	6241.36
764.708	6689.86
764.899	6722.63
765.089	6100.05
765.28	5913.68
765.471	6401.1
765.662	6644.81
765.853	6231.12
766.043	5989.46
766.234	6528.07
766.425	6661.19
766.615	6077.52
766.806	6122.57
766.997	6870.08
767.187	6362.19
767.378	6116.43
767.569	5880.91
767.759	6507.59
767.95	6292.55
768.141	6360.14
768.331	6063.18
768.522	6308.94
768.712	6573.13
768.903	6052.94
769.093	6020.17
769.284	6736.96
769.474	6364.23
769.665	5977.17
769.855	5907.54
770.046	6339.66
770.236	6149.2
770.426	6339.66
770.617	5868.63
770.807	6370.38
770.998	6147.15
771.188	6218.83
771.378	5936.21
771.569	6440.01
771.759	6296.65
771.949	5684.31
772.139	5725.27
772.33	6216.78
772.52	6612.04
772.71	6034.51
772.9	5735.51
773.09	6501.45
773.281	6644.81
773.471	5805.14
773.661	5864.53
773.851	6446.15
774.041	5948.5
774.231	5702.74
774.421	5962.83
774.611	6376.52
774.802	6091.85
774.992	5872.72
775.182	5870.67
775.372	6108.24
775.562	6284.36
775.752	5723.22
775.942	5641.3
776.131	6460.49
776.321	6100.05
776.511	5813.33
776.701	5690.45
776.891	6255.69
777.081	5674.07
777.271	5860.43
777.461	5764.18
777.651	6100.05
777.84	6270.03
778.03	5923.92
778.22	5735.51
778.41	6169.68
778.599	5825.62
778.789	5760.08
778.979	5579.86
779.169	5973.07
779.358	5833.81
779.548	5813.33
779.738	5518.42
779.927	6030.41
780.117	5706.84
780.307	5440.6
780.496	5387.35
780.686	6030.41
780.875	6349.9
781.065	5579.86
781.254	5715.03
781.444	5760.08
781.633	5903.44
781.823	5401.69
782.012	5596.25
782.202	5839.95
782.391	5862.48
782.581	5375.06
782.77	5545.05
782.96	5971.02
783.149	5555.29
783.338	5571.67
783.528	5172.32
783.717	5979.22
783.906	5977.17
784.096	5616.72
784.285	5391.45
784.474	5588.05
784.663	5547.09
784.853	5301.34
785.042	5364.82
785.231	5510.23
785.42	5987.41
785.61	5665.88
785.799	5338.2
785.988	5559.38
786.177	5643.35
786.366	5592.15
786.555	5600.34
786.744	5979.22
786.933	5647.44
787.122	5334.11
787.312	5258.33
787.501	5581.91
787.69	5680.21
787.879	5420.12
788.068	5348.44
788.257	5250.14
788.445	5463.13
788.634	5278.81
788.823	5387.35
789.012	6042.7
789.201	5837.91
789.39	5313.63
789.579	5227.61
789.768	5299.29
789.957	5299.29
790.145	5305.43
790.334	5016.67
790.523	5399.64
790.712	5278.81
790.9	5391.45
791.089	5188.7
791.278	5665.88
791.467	5559.38
791.655	5430.36
791.844	5782.61
792.033	5403.74
792.221	5403.74
792.41	5262.43
792.599	4953.18
792.787	5549.14
792.976	5518.42
793.164	5014.62
793.353	5217.37
793.541	5526.61
793.73	5416.02
793.918	5252.19
794.107	5080.16
794.295	5299.29
794.484	5387.35
794.672	5194.84
794.861	5045.34
795.049	5514.33
795.238	5715.03
795.426	4979.81
795.614	5194.84
795.803	5413.98
795.991	5600.34
796.179	4998.24
796.368	5012.57
796.556	5600.34
796.744	5037.15
796.932	5141.6
797.121	4928.61
797.309	5356.63
797.497	5545.05
797.685	5094.49
797.874	5151.84
798.062	5260.38
798.25	5635.16
798.438	4897.89
798.626	5059.68
798.814	5241.95
799.002	5848.15
799.19	5174.36
799.378	5088.35
799.566	5502.04
799.755	5487.7
799.943	5215.32
800.131	5018.72
800.318	5258.33
800.506	5448.79
800.694	4973.66
800.882	5088.35
801.07	5633.11
801.258	5209.18
801.446	4879.46
801.634	5049.44
801.822	5362.78
802.01	5370.97
802.197	5059.68
802.385	5141.6
802.573	5225.56
802.761	5178.46
802.949	5104.73
803.136	5055.58
803.324	5473.37
803.512	5409.88
803.699	4998.24
803.887	4928.61
804.075	5620.82
804.262	5045.34
804.45	5119.07
804.638	5069.92
804.825	5164.12
805.013	5313.63
805.201	4947.04
805.388	5057.63
805.576	5321.82
805.763	5710.93
805.951	4973.66
806.138	5213.28
806.326	5895.25
806.513	5403.74
806.701	5221.47
806.888	5028.96
807.075	5577.81
807.263	5891.15
807.45	5002.33
807.638	5010.53
807.825	5887.06
808.012	5520.47
808.2	5243.99
808.387	5301.34
808.574	5551.19
808.761	5581.91
808.949	5037.15
809.136	5094.49
809.323	5266.52
809.51	5338.2
809.698	5301.34
809.885	5348.44
810.072	5450.84
810.259	5653.59
810.446	5223.51
810.633	5125.21
810.82	5665.88
811.008	5680.21
811.195	5358.68
811.382	5338.2
811.569	5456.98
811.756	4926.56
811.943	5059.68
812.13	5026.91
812.317	5289.05
812.504	5319.77
812.691	5135.45
812.878	5190.75
813.064	5610.58
813.251	5299.29
813.438	4971.61
813.625	5190.75
813.812	5229.66
813.999	5409.88
814.186	5416.02
814.372	5092.44
814.559	5483.61
814.746	5721.17
814.933	5227.61
815.12	5227.61
815.306	5092.44
815.493	5127.26
815.68	5141.6
815.866	5229.66
816.053	5551.19
816.24	5846.1
816.426	5243.99
816.613	5092.44
816.799	5631.06
816.986	5672.02
817.173	5114.97
817.359	5125.21
817.546	5391.45
817.732	5092.44
817.919	4887.65
818.105	5352.54
818.292	5289.05
818.478	5581.91
818.665	5293.15
818.851	5041.25
819.037	5934.16
819.224	5385.3
819.41	5243.99
819.597	5137.5
819.783	5758.03
819.969	5536.85
820.156	5119.07
820.342	5104.73
820.528	6153.29
820.714	5272.67
820.901	5241.95
821.087	5139.55
821.273	5745.75
821.459	5133.4
821.646	4955.23
821.832	5047.39
822.018	5403.74
822.204	5211.23
822.39	4985.95
822.576	4873.31
822.762	5514.33
822.948	5274.71
823.134	5239.9
823.32	5065.82
823.507	5055.58
823.693	5311.58
823.879	5346.39
824.065	5110.88
824.25	5217.37
824.436	5149.79
824.622	4940.9
824.808	5008.48
824.994	5178.46
825.18	5246.04
825.366	4850.78
825.552	4854.88
825.738	5131.36
825.923	5467.22
826.109	5305.43
826.295	4869.22
826.481	5069.92
826.667	5067.87
826.852	5061.73
827.038	4807.78
827.224	5473.37
827.409	5583.96
827.595	4842.59
827.781	5143.64
827.966	5411.93
828.152	5444.7
828.338	5016.67
828.523	4699.23
828.709	5063.77
828.894	5323.87
829.08	4904.03
829.266	4848.74
829.451	4981.85
829.637	5186.65
829.822	4912.22
830.008	4793.44
830.193	5301.34
830.378	5444.7
830.564	4998.24
830.749	4736.1
830.935	5157.98
831.12	5323.87
831.305	4725.86
831.491	4906.08
831.676	4637.8
831.861	5168.22
832.047	4658.28
832.232	4555.88
832.417	5219.42
832.602	5108.83
832.788	4615.27
832.973	4480.1
833.158	4975.71
833.343	5182.56
833.528	4881.5
833.714	4867.17
833.899	5002.33
834.084	5479.51
834.269	4928.61
834.454	4717.67
834.639	5102.68
834.824	5102.68
835.009	5022.81
835.194	4842.59
835.379	5243.99
835.564	5276.76
835.749	4836.45
835.934	4553.83
836.119	4967.52
836.304	4944.99
836.489	4736.1
836.674	4856.93
836.859	4711.52
837.044	5203.04
837.228	4682.85
837.413	4689
837.598	4992.09
837.783	5114.97
837.968	4650.08
838.152	4600.93
838.337	4547.69
838.522	5323.87
838.707	5164.12
838.891	4809.83
839.076	5026.91
839.261	5026.91
839.445	4596.84
839.63	4652.13
839.815	5309.53
839.999	4781.15
840.184	4529.25
840.368	4537.45
840.553	5004.38
840.737	4988
840.922	4369.51
841.106	4322.41
841.291	4588.64
841.475	4801.63
841.66	4535.4
841.844	4633.7
842.029	5360.73
842.213	4592.74
842.397	4482.15
842.582	4441.19
842.766	5088.35
842.951	4856.93
843.135	4486.25
843.319	4365.42
843.504	4844.64
843.688	4938.85
843.872	4238.44
844.056	4371.56
844.241	5067.87
844.425	4545.64
844.609	4656.23
844.793	4279.4
844.977	4938.85
845.161	4768.87
845.346	4308.07
845.53	4498.53
845.714	4824.16
845.898	5014.62
846.082	4306.02
846.266	4453.48
846.45	4713.57
846.634	4768.87
846.818	4461.67
847.002	4437.09
847.186	4715.62
847.37	4338.79
847.554	4232.3
847.738	4389.99
847.922	4523.11
848.106	4553.83
848.29	4203.63
848.473	4226.15
848.657	4768.87
848.841	4635.75
849.025	4234.35
849.209	4125.8
849.392	4662.37
849.576	4578.4
849.76	3982.45
849.944	4297.83
850.127	4863.07
850.311	4248.68
850.495	4088.94
850.678	4043.88
850.862	4725.86
851.046	4863.07
851.229	4486.25
851.413	4129.9
851.596	4500.58
851.78	4412.52
851.964	4355.18
852.147	4279.4
852.331	5061.73
852.514	4568.16
852.698	4422.76
852.881	3900.53
853.065	4602.98
853.248	4418.66
853.431	4303.98
853.615	4258.92
853.798	4996.19
853.982	4572.26
854.165	4281.45
854.348	4260.97
854.532	3906.67
854.715	4207.72
854.898	4226.15
855.081	4101.23
855.265	4592.74
855.448	4772.96
855.631	3953.77
855.814	4072.56
855.997	4605.03
856.181	4263.02
856.364	4269.16
856.547	3933.29
856.73	4277.35
856.913	4367.46
857.096	3990.64
857.279	4166.76
857.462	4342.89
857.645	4621.41
857.828	4181.1
858.011	4258.92
858.194	4166.76
858.377	4443.24
858.56	3800.18
858.743	4004.97
858.926	4117.61
859.109	4381.8
859.292	3951.73
859.475	4027.5
859.658	4476.01
859.841	4379.75
860.023	3912.81
860.206	3787.89
860.389	4398.18
860.572	4662.37
860.755	3972.21
860.937	3925.1
861.12	4189.29
861.303	4129.9
861.486	3927.15
861.668	3757.17
861.851	4416.62
862.034	4162.67
862.216	3933.29
862.399	3566.71
862.581	4375.66
862.764	4441.19
862.947	4017.26
863.129	3648.63
863.312	3894.38
863.494	4308.07
863.677	4093.04
863.859	3699.83
864.042	4340.84
864.224	4318.31
864.406	3785.84
864.589	3609.72
864.771	4113.52
864.954	3673.2
865.136	3775.6
865.318	3482.74
865.501	4199.53
865.683	3546.23
865.865	3683.44
866.048	3771.51
866.23	4093.04
866.412	4043.88
866.594	3497.08
866.777	3769.46
866.959	4183.15
867.141	4023.41
867.323	3916.91
867.505	3933.29
867.687	3863.66
867.869	4129.9
868.052	3693.68
868.234	3703.92
868.416	3933.29
868.598	4041.84
868.78	3638.39
868.962	3492.98
869.144	4201.58
869.326	4150.38
869.508	3667.06
869.69	3617.91
869.872	3996.78
870.054	4265.07
870.236	3531.89
870.417	3609.72
870.599	3972.21
870.781	4326.5
870.963	3787.89
871.145	3560.56
871.327	3576.95
871.508	3980.4
871.69	3638.39
871.872	3677.3
872.054	3796.08
872.235	3957.87
872.417	3595.38
872.599	3404.92
872.78	4346.98
872.962	3935.34
873.144	3548.28
873.325	3732.59
873.507	4146.28
873.689	3736.69
873.87	3462.26
874.052	3636.34
874.233	3740.79
874.415	4125.8
874.596	3574.9
874.778	3628.15
874.959	4062.32
875.141	4021.36
875.322	3548.28
875.503	3533.94
875.685	3961.97
875.866	3513.46
876.048	3425.4
876.229	3540.08
876.41	3705.97
876.592	4119.66
876.773	3650.67
876.954	3341.43
877.136	4217.96
877.317	3804.27
877.498	3349.62
877.679	3708.02
877.86	3943.53
878.042	3769.46
878.223	3665.01
878.404	3992.69
878.585	3998.83
878.766	4502.63
878.947	3908.72
879.128	3744.88
879.309	3998.83
879.49	4197.48
879.672	3638.39
879.853	3742.83
880.034	3828.85
880.215	3974.25
880.396	3689.59
880.576	3601.52
880.757	3791.98
880.938	4207.72
881.119	3579
881.3	3699.83
881.481	3732.59
881.662	4777.06
881.843	3626.1
882.023	3544.18
882.204	4033.65
882.385	3902.58
882.566	3669.11
882.747	3617.91
882.927	3828.85
883.108	4111.47
883.289	3609.72
883.469	3961.97
883.65	3925.1
883.831	3970.16
884.011	3939.44
884.192	3630.2
884.373	4340.84
884.553	4123.76
884.734	3921.01
884.914	4080.75
885.095	4621.41
885.275	4486.25
885.456	4011.12
885.636	3673.2
885.817	4093.04
885.997	3900.53
886.178	3699.83
886.358	3925.1
886.538	4244.59
886.719	4985.95
886.899	3765.36
887.08	3822.7
887.26	4381.8
887.44	3912.81
887.621	3562.61
887.801	3798.13
887.981	4801.63
888.161	4170.86
888.342	3904.62
888.522	3875.95
888.702	4205.67
888.882	4437.09
889.062	3941.49
889.242	3556.47
889.423	4498.53
889.603	4303.98
889.783	3933.29
889.963	3992.69
890.143	4256.87
890.323	4371.56
890.503	3728.5
890.683	3880.05
890.863	4281.45
891.043	4144.24
891.223	3984.49
891.403	4029.55
891.583	4134
891.763	4093.04
891.943	4025.45
892.122	3820.66
892.302	4170.86
892.482	4213.87
892.662	3988.59
892.842	3847.28
893.022	4193.39
893.201	4045.93
893.381	3927.15
893.561	3849.33
893.741	4328.55
893.92	4095.08
894.1	4050.03
894.28	3798.13
894.459	4119.66
894.639	4277.35
894.819	3851.38
894.998	3789.94
895.178	4142.19
895.357	4099.18
895.537	3730.55
895.716	3708.02
895.896	4037.74
896.075	4463.72
896.255	3798.13
896.434	3476.6
896.614	4166.76
896.793	4402.28
896.973	3789.94
897.152	3765.36
897.331	4197.48
897.511	4291.69
897.69	3478.65
897.87	3716.21
898.049	4129.9
898.228	4084.84
898.407	3941.49
898.587	3865.71
898.766	3871.86
898.945	4160.62
899.124	3970.16
899.304	3830.9
899.483	3986.54
899.662	4478.05
899.841	3732.59
900.02	3742.83
900.199	4267.11
900.378	3982.45
900.557	3495.03
900.737	3540.08
900.916	4084.84
901.095	3910.77
901.274	3888.24
901.453	3492.98
901.632	3748.98
901.811	3566.71
901.989	3533.94
902.168	3417.21
902.347	4007.02
902.526	3654.77
902.705	3611.76
902.884	3568.76
903.063	4199.53
903.242	3996.78
903.42	3388.53
903.599	3665.01
903.778	4052.08
903.957	4035.69
904.135	3654.77
904.314	3603.57
904.493	3593.33
904.672	3703.92
904.85	3431.54
905.029	3288.18
905.207	3609.72
905.386	4236.39
905.565	3105.92
905.743	3265.66
905.922	3466.36
906.1	3753.07
906.279	3114.11
906.457	3245.18
906.636	3368.06
906.814	3392.63
906.993	3253.37
907.171	3204.22
907.35	3597.43
907.528	3613.81
907.707	3380.34
907.885	3193.98
908.063	3859.57
908.242	3118.2
908.42	3146.87
908.598	2782.34
908.777	3599.48
908.955	3228.79
909.133	3286.14
909.311	2987.13
909.49	3265.66
909.668	3282.04
909.846	3228.79
910.024	2958.46
910.202	3507.32
910.38	3597.43
910.559	3042.43
910.737	3064.96
910.915	3574.9
911.093	3550.32
911.271	3294.33
911.449	3542.13
911.627	3628.15
911.805	4037.74
911.983	3259.51
912.161	3314.81
912.339	3636.34
912.517	3726.45
912.695	3376.25
912.872	3204.22
913.05	3220.6
913.228	3576.95
913.406	3490.93
913.584	3366.01
913.762	3796.08
913.939	3368.06
914.117	3273.85
914.295	3198.07
914.473	3605.62
914.65	3724.4
914.828	3220.6
915.006	3169.4
915.184	3269.75
915.361	3677.3
915.539	3335.29
915.716	3544.18
915.894	3705.97
916.072	3538.04
916.249	3591.28
916.427	3400.82
916.604	3234.94
916.782	3773.55
916.959	3198.07
917.137	3212.41
917.314	3560.56
917.492	3777.65
917.669	3361.91
917.847	3230.84
918.024	3638.39
918.201	3245.18
918.379	3339.38
918.556	3333.24
918.733	3687.54
918.911	3368.06
919.088	3527.8
919.265	3157.11
919.442	3449.97
919.62	3376.25
919.797	3110.01
919.974	3005.56
920.151	3302.52
920.328	3599.48
920.506	3114.11
920.683	3339.38
920.86	3204.22
921.037	3196.03
921.214	3167.35
921.391	3030.14
921.568	3445.88
921.745	3021.95
921.922	3093.63
922.099	2987.13
922.276	3552.37
922.453	3374.2
922.63	2841.73
922.807	3423.35
922.984	3265.66
923.161	3097.72
923.338	3200.12
923.514	3005.56
923.691	3327.1
923.868	3314.81
924.045	2964.61
924.222	2968.7
924.399	3310.71
924.575	3521.65
924.752	3140.73
924.929	2985.09
925.105	3376.25
925.282	3122.3
925.459	3087.48
925.635	2952.32
925.812	3298.42
925.989	3107.96
926.165	3136.63
926.342	2886.78
926.518	2798.72
926.695	3316.86
926.871	2849.92
927.048	2870.4
927.224	3214.46
927.401	2823.3
927.577	3030.14
927.754	2675.84
927.93	3388.53
928.107	3347.58
928.283	2778.24
928.459	2905.21
928.636	3337.34
928.812	3060.86
928.988	2714.75
929.165	2661.51
929.341	3048.57
929.517	3009.66
929.693	3155.07
929.87	2454.66
930.046	3083.39
930.222	2858.11
930.398	2778.24
930.574	2802.82
930.751	2921.6
930.927	2866.3
931.103	2614.4
931.279	2790.53
931.455	2745.47
931.631	2983.04
931.807	2507.91
931.983	2505.86
932.159	2649.22
932.335	2819.2
932.511	2618.5
932.687	2555.01
932.863	2778.24
933.039	2784.38
933.215	2471.04
933.391	2434.18
933.566	2700.42
933.742	2847.87
933.918	2559.11
934.094	2374.79
934.27	2702.47
934.445	2768
934.621	2438.28
934.797	2309.26
934.973	2839.68
935.148	2641.03
935.324	2301.06
935.5	2110.6
935.675	2739.33
935.851	2546.82
936.027	2411.65
936.202	2331.78
936.378	2481.28
936.553	2213
936.729	2569.35
936.904	2075.79
937.08	2094.22
937.255	2157.71
937.431	1885.33
937.606	1938.57
937.782	2100.36
937.957	2186.38
938.133	1942.67
938.308	1856.65
938.483	2022.54
938.659	1905.81
938.834	1846.41
939.009	1760.4
939.185	1934.48
939.36	1860.75
939.535	1291.41
939.71	1784.98
939.886	2129.03
940.061	2024.59
940.236	1823.89
940.411	1643.67
940.586	2010.25
940.761	1922.19
940.937	1541.27
941.112	1447.06
941.287	1807.5
941.462	1696.91
941.637	1416.34
941.812	1514.64
941.987	1760.4
942.162	1825.93
942.337	1549.46
942.512	1553.55
942.687	1959.05
942.862	1799.31
943.037	1301.65
943.212	1191.06
943.386	1590.42
943.561	1793.17
943.736	1604.75
943.911	1793.17
944.086	1733.78
944.26	1782.93
944.435	1420.44
944.61	1465.49
944.785	1940.62
944.959	2151.56
945.134	1471.64
945.309	1315.99
945.483	1387.67
945.658	1830.03
945.833	1152.15
946.007	1268.89
946.182	1987.72
946.357	1320.09
946.531	1359
946.706	1227.93
946.88	1303.7
947.055	1592.47
947.229	1461.4
947.404	1250.46
947.578	1864.85
947.752	1574.03
947.927	1336.47
948.101	1256.6
948.276	1744.02
948.45	1617.04
948.624	1569.94
948.799	1322.13
948.973	1733.78
949.147	1377.43
949.321	1471.64
949.496	1397.91
949.67	1987.72
949.844	1498.26
950.018	1473.68
950.193	1496.21
950.367	2233.48
950.541	1647.76
950.715	1594.51
950.889	1676.43
951.063	1602.71
951.237	1838.22
951.411	1189.02
951.585	1313.94
951.759	1897.61
951.933	1614.99
952.107	1430.68
952.281	1696.91
952.455	2045.07
952.629	1981.58
952.803	1455.25
952.977	1408.15
953.151	1856.65
953.325	1774.74
953.499	1614.99
953.672	1440.92
953.846	1416.34
954.02	1610.9
954.194	1430.68
954.368	1539.22
954.541	1889.42
954.715	1703.06
954.889	1569.94
955.062	1442.96
955.236	1692.82
955.41	1721.49
955.583	1709.2
955.757	1397.91
955.93	1741.97
956.104	1651.86
956.278	1600.66
956.451	1629.33
956.625	1846.41
956.798	2237.58
956.972	1907.85
957.145	1432.72
957.319	1754.26
957.492	1707.15
957.665	1598.61
957.839	1526.93
958.012	1997.96
958.185	1672.34
958.359	1569.94
958.532	1713.3
958.705	1938.57
958.879	1754.26
959.052	1612.95
959.225	1412.25
959.398	1832.08
959.572	1928.33
959.745	1664.15
959.918	1725.58
960.091	1756.3
960.264	1942.67
960.438	1377.43
960.611	1606.8
960.784	1942.67
960.957	1606.8
961.13	1909.9
961.303	1596.56
961.476	1887.37
961.649	1950.86
961.822	1414.29
961.995	1594.51
962.168	2036.88
962.341	1799.31
962.514	1594.51
962.686	1584.27
962.859	1879.18
963.032	1868.94
963.205	1520.79
963.378	1318.04
963.551	2036.88
963.723	1793.17
963.896	1711.25
964.069	1744.02
964.242	1735.82
964.414	1979.53
964.587	1625.23
964.76	1668.24
964.932	1934.48
965.105	1789.07
965.278	1471.64
965.45	1522.84
965.623	1827.98
965.795	1938.57
965.968	1668.24
966.14	1526.93
966.313	1672.34
966.485	1770.64
966.658	1559.7
966.83	1500.31
967.003	2014.35
967.175	1959.05
967.348	1504.4
967.52	1467.54
967.692	2071.69
967.865	1981.58
968.037	1606.8
968.209	1784.98
968.382	1670.29
968.554	1926.29
968.726	1498.26
968.898	1447.06
969.071	1889.42
969.243	1940.62
969.415	1561.75
969.587	1639.57
969.759	2176.14
969.932	2000.01
970.104	1537.17
970.276	1254.55
970.448	1623.19
970.62	1528.98
970.792	1569.94
970.964	1537.17
971.136	2200.71
971.308	1750.16
971.48	1389.72
971.652	1451.16
971.824	2073.74
971.996	1576.08
972.168	1488.02
972.339	1676.43
972.511	1903.76
972.683	1633.43
972.855	1633.43
973.027	1436.82
973.199	1713.3
973.37	1836.17
973.542	1619.09
973.714	1680.53
973.886	1688.72
974.057	1819.79
974.229	1422.48
974.401	1496.21
974.572	1453.2
974.744	1252.5
974.915	1324.18
975.087	1447.06
975.259	2053.26
975.43	1416.34
975.602	1430.68
975.773	1254.55
975.945	1449.11
976.116	1770.64
976.288	1248.41
976.459	1479.83
976.63	1551.51
976.802	1795.22
976.973	1385.62
977.145	1447.06
977.316	2012.3
977.487	1590.42
977.659	1565.84
977.83	1361.05
978.001	2053.26
978.172	1610.9
978.344	1381.53
978.515	1361.05
978.686	1410.2
978.857	1881.23
979.028	1371.29
979.2	1318.04
979.371	1887.37
979.542	1567.89
979.713	1438.87
979.884	1059.99
980.055	1418.39
980.226	1440.92
980.397	1268.89
980.568	1184.92
980.739	1629.33
980.91	1471.64
981.081	1424.53
981.252	1246.36
981.423	1713.3
981.594	1803.41
981.765	1238.17
981.936	1324.18
982.106	1475.73
982.277	1909.9
982.448	1248.41
982.619	1424.53
982.79	1514.64
982.96	1709.2
983.131	1270.94
983.302	957.6
983.472	1330.33
983.643	1617.04
983.814	1479.83
983.984	1299.61
984.155	1414.29
984.326	1686.67
984.496	1318.04
984.667	1270.94
984.837	1195.16
985.008	1701.01
985.178	1496.21
985.349	1275.03
985.519	1406.1
985.69	1209.5
985.86	1244.31
986.031	1135.77
986.201	1526.93
986.371	1500.31
986.542	984.22
986.712	1047.71
986.882	1477.78
987.053	1459.35
987.223	1035.42
987.393	1371.29
987.563	1399.96
987.734	1520.79
987.904	1526.93
988.074	1008.8
988.244	1449.11
988.414	1277.08
988.585	1135.77
988.755	1207.45
988.925	1303.7
989.095	1639.57
989.265	973.98
989.435	1115.29
989.605	1545.36
989.775	1375.38
989.945	1262.74
990.115	1037.47
990.285	1277.08
990.455	1381.53
990.625	1123.48
990.795	971.93
990.965	1602.71
991.134	1150.11
991.304	969.88
991.474	930.97
991.644	1342.61
991.814	1643.67
991.984	875.68
992.153	988.32
992.323	1225.88
992.493	1283.22
992.662	840.86
992.832	1119.39
993.002	1211.54
993.171	1320.09
993.341	840.86
993.511	1158.3
993.68	1062.04
993.85	1438.87
994.019	763.04
994.189	771.23
994.358	1248.41
994.528	1135.77
994.697	668.83
994.867	857.25
995.036	1377.43
995.206	1127.58
995.375	804
995.544	1107.1
995.714	1289.37
995.883	1090.71
996.052	973.98
996.222	634.02
996.391	1610.9
996.56	1135.77
996.73	703.65
996.899	734.37
997.068	1440.92
997.237	1133.72
997.406	763.04
997.576	677.02
997.745	1178.78
997.914	1186.97
998.083	580.77
998.252	783.52
998.421	1164.44
998.59	930.97
998.759	685.22
998.928	625.83
999.097	1299.61
999.266	1146.01
999.435	877.73
999.604	496.8
999.773	1459.35
999.942	986.27
1000.111	656.54
1000.28	558.24
1000.448	818.33
1000.617	730.27
1000.786	892.06
1000.955	556.19
1001.124	1184.92
1001.292	1555.6
1001.461	656.54
1001.63	697.5
1001.798	1334.42
1001.967	1336.47
1002.136	603.3
1002.304	634.02
1002.473	1055.9
1002.642	1057.95
1002.81	707.74
1002.979	621.73
1003.147	1146.01
1003.316	1531.03
1003.484	617.63
1003.653	570.53
1003.821	1275.03
1003.99	928.92
1004.158	711.84
1004.327	695.46
1004.495	1129.63
1004.663	758.94
1004.832	640.16
1005	472.23
1005.168	1174.68
1005.337	922.78
1005.505	488.61
1005.673	791.71
1005.842	1064.09
1006.01	1010.84
1006.178	545.95
1006.346	623.78
1006.514	1008.8
1006.683	1156.25
1006.851	492.71
1007.019	570.53
1007.187	683.17
1007.355	496.8
1007.523	322.73
1007.691	337.06
1007.859	513.19
1008.027	1195.16
1008.195	550.05
1008.363	345.25
1008.531	1029.27
1008.699	629.92
1008.867	332.97
1009.035	443.56
1009.203	1158.3
1009.37	933.02
1009.538	595.11
1009.706	887.97
1009.874	935.07
1010.042	742.56
1010.209	416.93
1010.377	513.19
1010.545	1004.7
1010.713	816.29
1010.88	423.08
1011.048	468.13
1011.216	656.54
1011.383	1109.15
1011.551	443.56
1011.718	337.06
1011.886	971.93
1012.054	687.26
1012.221	396.45
1012.389	382.12
1012.556	644.26
1012.724	1139.87
1012.891	375.97
1013.058	242.85
1013.226	945.31
1013.393	1055.9
1013.561	308.39
1013.728	185.51
1013.895	955.55
1014.063	924.83
1014.23	246.95
1014.397	300.2
1014.565	953.5
1014.732	548
1014.899	208.04
1015.066	318.63
1015.233	822.43
1015.401	910.49
1015.568	369.83
1015.735	515.23
1015.902	779.42
1016.069	799.9
1016.236	392.36
1016.403	341.16
1016.57	427.17
1016.737	726.18
1016.904	390.31
1017.071	232.62
1017.238	445.6
1017.405	812.19
1017.572	332.97
1017.739	535.71
1017.906	793.76
1018.073	775.33
1018.24	212.14
1018.407	312.49
1018.573	939.16
1018.74	556.19
1018.907	382.12
1019.074	83.11
1019.241	875.68
1019.407	677.02
1019.574	263.33
1019.741	193.7
1019.907	703.65
1020.074	763.04
1020.241	76.97
1020.407	183.46
1020.574	726.18
1020.74	730.27
1020.907	251.05
1021.073	232.62
1021.24	1168.54
1021.406	918.68
1021.573	103.59
1021.739	287.91
1021.906	816.29
1022.072	523.43
1022.239	259.24
1022.405	249
1022.571	654.5
1022.738	406.69
1022.904	232.62
1023.07	351.4
1023.237	627.87
1023.403	830.62
1023.569	193.7
1023.735	251.05
1023.902	652.45
1024.068	619.68
1024.234	130.22
1024.4	117.93
1024.566	730.27
1024.732	773.28
1024.898	246.95
1025.065	1.19
1025.231	668.83
1025.397	439.46
1025.563	236.71
1025.729	119.98
1025.895	56.49
1026.061	335.01
1026.227	33.96
1026.392	165.03
1026.558	779.42
1026.724	674.98
1026.89	175.27
1027.056	173.22
1027.222	656.54
1027.388	416.93
1027.553	70.83
1027.719	115.88
1027.885	1019.04
1028.051	652.45
1028.216	-50
1028.382	292.01
1028.548	785.57
1028.713	441.51
1028.879	36.01
1029.045	312.49
1029.21	840.86
1029.376	832.67
1029.541	210.09
1029.707	197.8
1029.873	646.3
1030.038	670.88
1030.204	152.74
1030.369	152.74
1030.534	703.65
1030.7	416.93
1030.865	142.5
1031.031	62.63
1031.196	545.95
1031.361	570.53
1031.527	27.82
1031.692	50.35
1031.857	181.42
1032.023	746.66
1032.188	-31.57
1032.353	150.7
1032.518	760.99
1032.684	519.33
1032.849	21.67
1033.014	111.78
1033.179	607.39
1033.344	613.54
1033.509	236.71
1033.674	128.17
1033.839	717.98
1034.004	611.49
1034.17	46.25
1034.335	-54.1
1034.5	351.4
1034.664	310.44
1034.829	169.13
1034.994	117.93
1035.159	472.23
1035.324	529.57
1035.489	-7
1035.654	50.35
1035.819	775.33
1035.984	478.37
1036.148	179.37
1036.313	64.68
1036.478	730.27
1036.643	437.41
1036.807	40.11
1036.972	74.92
1037.137	816.29
1037.301	449.7
1037.466	-107.35
1037.631	132.26
1037.795	662.69
1037.96	449.7
1038.124	230.57
1038.289	-93.01
1038.454	609.44
1038.618	650.4
1038.783	66.73
1038.947	150.7
1039.111	443.56
1039.276	341.16
1039.44	-43.86
1039.605	507.04
1039.769	406.69
1039.933	410.79
1040.098	83.11
1040.262	314.53
1040.426	642.21
1040.591	597.15
1040.755	-43.86
1040.919	50.35
1041.083	623.78
1041.248	386.21
1041.412	-183.12
1041.576	-66.39
1041.74	296.1
1041.904	627.87
1042.068	-17.24
1042.232	58.54
1042.397	584.87
1042.561	476.32
1042.725	-203.6
1042.889	205.99
1043.053	574.63
1043.217	570.53
1043.381	95.4
1043.544	-181.07
1043.708	685.22
1043.872	251.05
1044.036	-195.41
1044.2	-125.78
1044.364	613.54
1044.528	693.41
1044.691	1322.13
1044.855	-31.57
1045.019	627.87
1045.183	433.32
1045.346	42.15
1045.51	-35.67
1045.674	466.08
1045.837	584.87
1046.001	74.92
1046.165	-64.34
1046.328	922.78
1046.492	478.37
1046.655	195.75
1046.819	62.63
1046.983	310.44
1047.146	568.48
1047.31	42.15
1047.473	-174.93
1047.636	316.58
1047.8	142.5
1047.963	-39.76
1048.127	-76.63
1048.29	132.26
