Data from Hydrogel_Ink_Intensity_Test_1_USB4F045381__22__00022.txt Node

Date: Mon Jul 31 10:39:50 EDT 2023
User: mmckonesweet
Spectrometer: USB4F04538
Trigger mode: 4
Integration Time (sec): 9.000000E-1
Scans to average: 1
Electric dark correction enabled: true
Nonlinearity correction enabled: false
Boxcar width: 0
XAxis mode: Wavelengths
Number of Pixels in Spectrum: 3648
>>>>>Begin Spectral Data<<<<<
345.52	-994.46
345.736	-994.46
345.952	-994.46
346.168	-988.32
346.384	-881.82
346.6	-95.4
346.816	-201.9
347.032	-222.38
347.248	262.99
347.464	-222.38
347.68	-99.5
347.896	90.96
348.112	392.02
348.328	-107.69
348.544	-103.59
348.76	43.86
348.975	262.99
349.191	-175.27
349.407	-136.36
349.623	72.53
349.839	-58.54
350.055	-54.44
350.27	103.25
350.486	269.14
350.702	387.92
350.918	172.88
351.133	-103.59
351.349	215.89
351.565	412.5
351.781	-138.41
351.996	29.52
352.212	418.64
352.428	-87.21
352.644	-97.45
352.859	-181.42
353.075	330.58
353.291	43.86
353.506	-33.96
353.722	-148.65
353.938	-7.34
354.153	443.21
354.369	197.46
354.584	-126.12
354.8	377.68
355.016	-240.81
355.231	-173.22
355.447	-17.58
355.662	236.37
355.878	951.11
356.093	-275.62
356.309	97.11
356.524	-220.33
356.74	281.43
356.955	-115.88
357.171	74.58
357.386	293.71
357.602	-171.18
357.817	-1.19
358.033	-113.83
358.248	400.21
358.464	193.36
358.679	-29.87
358.895	-267.43
359.11	-5.29
359.325	342.86
359.541	342.86
359.756	111.44
359.972	-234.66
360.187	238.42
360.402	-54.44
360.618	-107.69
360.833	1082.18
361.048	179.03
361.264	-54.44
361.479	37.72
361.694	56.15
361.909	385.87
362.125	-144.55
362.34	15.19
362.555	285.52
362.77	25.43
362.986	-107.69
363.201	-50.35
363.416	306
363.631	82.77
363.847	-111.78
364.062	17.24
364.277	297.81
364.492	228.18
364.707	-60.59
364.922	-285.86
365.138	430.93
365.353	422.73
365.568	-154.79
365.783	0.85
365.998	183.12
366.213	703.31
366.428	-105.64
366.643	133.97
366.858	381.78
367.073	283.47
367.288	41.81
367.503	-107.69
367.718	191.31
367.933	379.73
368.148	-103.59
368.363	47.96
368.578	125.78
368.793	482.13
369.008	-11.43
369.223	-115.88
369.438	357.2
369.653	469.84
369.868	-222.38
370.083	-99.5
370.298	148.31
370.513	494.41
370.728	215.89
370.943	-58.54
371.157	-62.63
371.372	678.73
371.587	-160.94
371.802	-113.83
372.017	211.79
372.232	518.99
372.446	129.88
372.661	0.85
372.876	287.57
373.091	236.37
373.306	76.63
373.52	-56.49
373.735	-107.69
373.95	566.09
374.165	52.05
374.379	93.01
374.594	101.2
374.809	240.47
375.023	199.51
375.238	-107.69
375.453	398.16
375.667	-83.11
375.882	27.48
376.097	-62.63
376.311	248.66
376.526	131.92
376.741	-74.92
376.955	234.32
377.17	740.17
377.384	621.39
377.599	74.58
377.813	-64.68
378.028	727.88
378.242	322.38
378.457	129.88
378.672	-162.98
378.886	344.91
379.101	101.2
379.315	-107.69
379.53	103.25
379.744	340.82
379.958	355.15
380.173	68.44
380.387	9.05
380.602	381.78
380.816	62.29
381.031	-19.63
381.245	52.05
381.459	404.3
381.674	2786.09
381.888	70.48
382.103	338.77
382.317	97.11
382.531	670.54
382.746	127.83
382.96	82.77
383.174	166.74
383.388	562
383.603	260.95
383.817	-9.39
384.031	412.5
384.246	656.2
384.46	154.45
384.674	551.76
384.888	273.23
385.103	279.38
385.317	-5.29
385.531	189.27
385.745	516.94
385.959	584.52
386.174	78.68
386.388	15.19
386.602	242.51
386.816	127.83
387.03	254.8
387.244	185.17
387.458	371.54
387.672	578.38
387.887	-19.63
388.101	62.29
388.315	635.72
388.529	465.74
388.743	131.92
388.957	2.9
389.171	523.09
389.385	43.86
389.599	129.88
389.813	361.3
390.027	396.11
390.241	820.04
390.455	207.7
390.669	281.43
390.883	191.31
391.097	670.54
391.311	428.88
391.525	140.12
391.738	498.51
391.952	406.35
392.166	262.99
392.38	103.25
392.594	707.4
392.808	641.87
393.022	215.89
393.236	166.74
393.449	484.17
393.663	547.66
393.877	54.1
394.091	258.9
394.305	228.18
394.518	260.95
394.732	17.24
394.946	262.99
395.16	766.79
395.373	412.5
395.587	195.41
395.801	133.97
396.015	768.84
396.228	547.66
396.442	125.78
396.656	86.87
396.869	658.25
397.083	852.81
397.297	342.86
397.51	176.98
397.724	803.66
397.938	527.18
398.151	86.87
398.365	117.59
398.578	682.83
398.792	768.84
399.005	428.88
399.219	281.43
399.433	582.48
399.646	600.91
399.86	496.46
400.073	451.41
400.287	648.01
400.5	447.31
400.714	426.83
400.927	297.81
401.141	629.58
401.354	1467.2
401.567	615.24
401.781	258.9
401.994	684.87
402.208	1039.17
402.421	467.79
402.635	541.52
402.848	484.17
403.061	731.98
403.275	615.24
403.488	287.57
403.701	947.01
403.915	795.47
404.128	506.7
404.341	406.35
404.555	682.83
404.768	553.8
404.981	473.93
405.195	330.58
405.408	1104.71
405.621	758.6
405.834	602.96
406.048	351.06
406.261	975.69
406.474	1082.18
406.687	412.5
406.9	602.96
407.114	652.11
407.327	830.28
407.54	412.5
407.753	340.82
407.966	441.17
408.179	893.77
408.392	482.13
408.605	242.51
408.819	805.71
409.032	779.08
409.245	355.15
409.458	664.4
409.671	793.42
409.884	1041.22
410.097	365.39
410.31	641.87
410.523	781.13
410.736	639.82
410.949	574.28
411.162	598.86
411.375	1096.52
411.588	975.69
411.801	795.47
412.014	482.13
412.227	729.93
412.44	557.9
412.653	559.95
412.865	756.55
413.078	1088.32
413.291	942.92
413.504	645.96
413.717	570.19
413.93	975.69
414.143	562
414.356	625.48
414.568	449.36
414.781	1096.52
414.994	869.19
415.207	695.11
415.42	693.07
415.632	1022.79
415.845	1360.7
416.058	562
416.271	533.33
416.483	1055.56
416.696	1307.46
416.909	623.44
417.121	562
417.334	1112.9
417.547	1518.4
417.759	654.16
417.972	680.78
418.185	744.27
418.397	1155.91
418.61	744.27
418.823	709.45
419.035	1383.23
419.248	975.69
419.46	869.19
419.673	879.43
419.885	1051.46
420.098	973.64
420.311	783.18
420.523	559.95
420.736	1151.81
420.948	918.34
421.161	768.84
421.373	645.96
421.586	1076.04
421.798	875.34
422.01	584.52
422.223	1037.13
422.435	971.59
422.648	1104.71
422.86	785.23
423.073	820.04
423.285	1293.12
423.497	774.99
423.71	842.57
423.922	723.79
424.134	1280.83
424.347	1379.14
424.559	1129.28
424.771	1145.67
424.984	1082.18
425.196	1311.55
425.408	729.93
425.621	891.72
425.833	1399.62
426.045	1409.86
426.257	832.33
426.47	969.54
426.682	1416
426.894	1332.03
427.106	1004.36
427.318	1211.2
427.531	1071.94
427.743	1567.55
427.955	1069.89
428.167	1555.26
428.379	1403.71
428.591	1205.06
428.804	1233.73
429.016	1028.93
429.228	1176.39
429.44	1348.42
429.652	1268.55
429.864	887.62
430.076	1325.89
430.288	1235.78
430.5	1209.15
430.712	1321.79
430.924	1651.52
431.136	1405.76
431.348	944.97
431.56	1203.01
431.772	1381.18
431.984	1362.75
432.196	1131.33
432.408	1243.97
432.62	1286.98
432.832	1649.47
433.044	1397.57
433.256	1387.33
433.468	1577.79
433.679	1293.12
433.891	1205.06
434.103	1612.6
434.315	1882.94
434.527	1815.35
434.739	1452.86
434.95	1491.77
435.162	1762.11
435.374	1395.52
435.586	1428.29
435.798	1309.51
436.009	1393.47
436.221	1481.53
436.433	1315.65
436.645	1512.25
436.856	1522.49
437.068	1882.94
437.28	1401.66
437.491	1837.88
437.703	1887.03
437.915	1792.83
438.126	1487.68
438.338	1745.72
438.55	1774.39
438.761	1911.61
438.973	1534.78
439.184	1559.36
439.396	1766.2
439.608	1841.98
439.819	1508.16
440.031	1663.8
440.242	1925.94
440.454	1891.13
440.665	1715
440.877	1846.07
441.088	2014.01
441.3	1727.29
441.511	1518.4
441.723	1639.23
441.934	1927.99
442.146	1956.66
442.357	1854.27
442.569	1921.85
442.78	1897.27
442.991	2235.19
443.203	2122.55
443.414	1686.33
443.626	2411.31
443.837	1821.5
444.048	1708.86
444.26	1645.37
444.471	2050.87
444.682	2257.71
444.894	1626.94
445.105	1610.56
445.316	2198.32
445.528	2167.6
445.739	2007.86
445.95	1997.62
446.161	2083.64
446.373	2358.07
446.584	1973.05
446.795	2042.68
447.006	2308.91
447.217	2505.52
447.429	1753.91
447.64	1813.31
447.851	2536.24
448.062	2245.43
448.273	1813.31
448.484	1960.76
448.695	2247.48
448.907	2188.08
449.118	2050.87
449.329	2171.7
449.54	2155.32
449.751	2065.21
449.962	1960.76
450.173	2044.73
450.384	2624.3
450.595	2657.07
450.806	2151.22
451.017	2188.08
451.228	2597.68
451.439	2691.88
451.65	2159.41
451.861	2009.91
452.072	2194.23
452.283	2403.12
452.494	2444.08
452.705	2229.04
452.915	2605.87
453.126	2476.85
453.337	2339.63
453.548	2296.63
453.759	2718.51
453.97	3081
454.181	2716.46
454.391	2411.31
454.602	2556.72
454.813	2722.6
455.024	2579.25
455.235	2302.77
455.445	2677.55
455.656	2728.75
455.867	2626.35
456.078	2491.18
456.288	2620.21
456.499	2941.74
456.71	2513.71
456.921	2691.88
457.131	3042.09
457.342	2935.59
457.553	2779.95
457.763	2687.79
457.974	3019.56
458.184	2990.89
458.395	2655.02
458.606	2728.75
458.816	3271.46
459.027	3556.13
459.237	3085.09
459.448	2624.3
459.659	3275.56
459.869	3533.6
460.08	2745.13
460.29	3230.5
460.501	3638.05
460.711	3052.33
460.922	2898.73
461.132	2972.46
461.343	3832.6
461.553	3054.37
461.764	3003.18
461.974	3042.09
462.184	3576.61
462.395	3394.34
462.605	3341.09
462.816	3074.85
463.026	3443.49
463.236	3877.66
463.447	3324.71
463.657	3334.95
463.867	3808.03
464.078	3515.17
464.288	3478.3
464.498	3525.41
464.709	3592.99
464.919	3685.15
465.129	3648.29
465.339	3519.26
465.55	3941.15
465.76	3975.96
465.97	3744.54
466.18	3625.76
466.391	4266.77
466.601	4209.43
466.811	3992.34
467.021	3871.51
467.231	4221.72
467.441	4451.09
467.651	4252.44
467.862	3670.81
468.072	4326.16
468.282	4807.44
468.492	4127.51
468.702	4295.44
468.912	4391.7
469.122	5106.44
469.332	4711.18
469.542	4500.24
469.752	4807.44
469.962	4784.91
470.172	4438.8
470.382	4696.85
470.592	5155.59
470.802	5176.07
471.012	4713.23
471.222	4854.54
471.432	5247.75
471.642	5272.32
471.852	5118.73
472.062	4954.89
472.272	5292.8
472.482	5198.6
472.691	5223.17
472.901	4969.23
473.111	5495.55
473.321	6017.79
473.531	5395.2
473.741	5653.25
473.95	5894.91
474.16	5870.33
474.37	5843.71
474.58	5595.9
474.79	6232.82
474.999	6312.69
475.209	5772.03
475.419	5874.43
475.628	6327.03
475.838	6312.69
476.048	6183.67
476.258	6011.64
476.467	6816.49
476.677	6503.15
476.886	6738.67
477.096	6451.95
477.306	6564.59
477.515	7009
477.725	6662.9
477.935	6701.81
478.144	7199.46
478.354	6714.09
478.563	7056.11
478.773	6683.38
478.982	7434.98
479.192	7467.75
479.401	7353.06
479.611	7310.05
479.82	7322.34
480.03	7621.35
480.239	7443.17
480.449	7375.59
480.658	8086.23
480.868	7830.24
481.077	7748.32
481.287	7729.89
481.496	8280.79
481.705	8499.92
481.915	8383.19
482.124	8356.57
482.333	8585.94
482.543	8585.94
482.752	8444.63
482.961	8456.92
483.171	8678.1
483.38	8577.75
483.589	8780.5
483.799	8497.88
484.008	8866.51
484.217	9185.99
484.426	8927.95
484.636	8899.28
484.845	9245.38
485.054	8872.65
485.263	9509.57
485.472	9104.07
485.682	10083
485.891	9544.39
486.1	9159.37
486.309	9489.09
486.518	9831.1
486.727	10359.48
486.936	9712.32
487.146	9814.72
487.355	10259.13
487.564	9919.17
487.773	9947.84
487.982	10064.57
488.191	10453.69
488.4	10410.68
488.609	10265.27
488.818	10435.25
489.027	11104.94
489.236	10902.19
489.445	10429.11
489.654	10525.36
489.863	11207.34
490.072	10996.4
490.281	11180.71
490.49	10951.34
490.698	11414.18
490.907	11637.41
491.116	10990.25
491.325	10930.86
491.534	11704.99
491.743	11522.73
491.952	11268.78
492.16	11317.93
492.369	11426.47
492.578	12057.25
492.787	11598.5
492.996	11502.25
493.204	11641.51
493.413	12346.01
493.622	11559.59
493.831	11637.41
494.039	12294.81
494.248	11899.55
494.457	11889.31
494.665	11834.02
494.874	12487.32
495.083	12794.51
495.291	12106.4
495.5	12280.47
495.709	12739.22
495.917	12472.98
496.126	12497.56
496.335	12362.39
496.543	12575.38
496.752	12786.32
496.96	12827.28
497.169	12565.14
497.377	13062.8
497.586	13458.06
497.794	13042.32
498.003	12769.94
498.211	13263.5
498.42	13798.02
498.628	13234.83
498.837	13050.51
499.045	13714.05
499.254	13552.26
499.462	13376.14
499.671	13302.41
499.879	14160.51
500.087	14031.49
500.296	13462.15
500.504	13671.04
500.713	14097.02
500.921	14731.89
501.129	13765.25
501.338	13744.77
501.546	14361.21
501.754	14144.13
501.962	13968
502.171	13734.53
502.379	14459.51
502.587	14811.76
502.795	14344.83
503.004	14094.97
503.212	14635.64
503.42	14926.45
503.628	14584.44
503.837	14709.36
504.045	14809.72
504.253	15489.64
504.461	14678.65
504.669	14504.57
504.877	14914.16
505.085	15383.15
505.294	14881.39
505.502	15012.46
505.71	15282.8
505.918	15534.7
506.126	15014.51
506.334	14924.4
506.542	15651.43
506.75	15430.25
506.958	15223.41
507.166	15331.95
507.374	15487.59
507.582	16052.83
507.79	15532.65
507.998	15432.3
508.206	15872.61
508.414	15948.39
508.622	15749.73
508.83	15700.58
509.037	16441.95
509.245	15802.98
509.453	15680.1
509.661	15612.52
509.869	16464.47
510.077	15725.16
510.285	16257.63
510.492	15802.98
510.7	17015.38
510.908	16018.02
511.116	16038.5
511.324	16034.4
511.531	16419.42
511.739	16564.82
511.947	16405.08
512.155	16597.59
512.362	16499.29
512.57	16644.7
512.778	16222.81
512.985	16507.48
513.193	16839.25
513.401	17154.64
513.608	16833.11
513.816	16917.08
514.024	16958.03
514.231	17216.08
514.439	16640.6
514.646	16884.31
514.854	17238.61
515.061	17113.68
515.269	16874.07
515.477	16859.73
515.684	16972.37
515.892	17640.01
516.099	16939.6
516.307	17261.13
516.514	17402.44
516.722	17943.11
516.929	17515.08
517.136	17168.98
517.344	18086.47
517.551	17844.81
517.759	17531.47
517.966	17379.92
518.173	17560.14
518.381	17738.31
518.588	17869.38
518.796	17623.62
519.003	18049.6
519.21	17879.62
519.418	17922.63
519.625	18022.98
519.832	18375.23
520.039	18309.69
520.247	17891.91
520.454	17990.21
520.661	18760.25
520.868	18702.9
521.076	18508.35
521.283	18086.47
521.49	18883.13
521.697	18833.97
521.904	18537.02
522.112	18262.59
522.319	19044.91
522.526	18876.98
522.733	18917.94
522.94	18700.86
523.147	18704.95
523.354	19243.57
523.561	18647.61
523.768	18752.06
523.975	19327.53
524.183	19358.25
524.39	19247.66
524.597	18786.87
524.804	19204.66
525.011	19458.6
525.218	19364.4
525.425	19556.91
525.632	19790.38
525.838	19327.53
526.045	19315.25
526.252	19522.09
526.459	20636.19
526.666	20415.01
526.873	19591.72
527.08	19665.45
527.287	20357.66
527.494	20152.87
527.701	19771.94
527.907	19524.14
528.114	20439.58
528.321	20105.76
528.528	20070.95
528.735	20120.1
528.941	20105.76
529.148	19894.82
529.355	19925.54
529.562	19857.96
529.768	20800.02
529.975	19991.08
530.182	20044.32
530.388	20079.14
530.595	20664.86
530.802	20310.56
531.008	20642.33
531.215	20726.3
531.422	21592.59
531.628	21606.92
531.835	20679.19
532.042	20951.57
532.248	20927
532.455	21248.53
532.661	20728.35
532.868	20961.81
533.074	21254.67
533.281	21606.92
533.487	21139.99
533.694	21094.93
533.9	21506.57
534.107	21357.07
534.313	21410.32
534.52	21293.58
534.726	21887.5
534.933	22192.64
535.139	21443.09
535.345	21482
535.552	21889.54
535.758	22012.42
535.965	21791.24
536.171	21553.68
536.377	22344.19
536.584	22454.78
536.79	21795.34
536.996	22280.71
537.203	22219.27
537.409	22376.96
537.615	22010.37
537.821	22323.71
538.028	23167.48
538.234	22333.95
538.44	22579.71
538.646	22493.69
538.853	23001.59
539.059	22479.36
539.265	22712.83
539.471	22299.14
539.677	23067.13
539.883	23161.33
540.09	22405.63
540.296	23276.02
540.502	22874.62
540.708	22645.24
540.914	23224.82
541.12	23118.32
541.326	23519.73
541.532	23071.22
541.738	23499.25
541.944	23196.15
542.15	24019.43
542.356	23474.67
542.562	23034.36
542.768	23093.75
542.974	24150.5
543.18	24316.39
543.386	23398.9
543.592	23587.31
543.798	23855.59
544.004	24123.88
544.21	23812.59
544.415	23902.7
544.621	24240.61
544.827	24216.04
545.033	23892.46
545.239	24144.36
545.445	24207.84
545.651	24312.29
545.856	24029.67
546.062	24279.52
546.268	24175.08
546.474	24447.46
546.679	24066.53
546.885	24269.28
547.091	24601.05
547.297	25055.7
547.502	24269.28
547.708	24066.53
547.914	24234.47
548.119	24775.13
548.325	24277.47
548.531	23906.79
548.736	25133.53
548.942	24508.9
549.147	24195.56
549.353	24758.75
549.559	25164.25
549.764	24871.39
549.97	24105.45
550.175	24807.9
550.381	25270.74
550.586	24656.35
550.792	24787.42
550.997	24807.9
551.203	25319.89
551.408	25532.88
551.614	24941.02
551.819	25086.42
552.025	26012.1
552.23	26280.39
552.435	25061.85
552.641	25872.84
552.846	25842.12
553.052	26005.96
553.257	25627.09
553.462	25758.16
553.668	25635.28
553.873	26112.45
554.078	25864.65
554.283	25786.83
554.489	26018.25
554.694	26372.55
554.899	25940.43
555.105	25948.62
555.31	26679.74
555.515	26696.13
555.72	26329.54
555.925	25883.08
556.131	26782.14
556.336	26354.12
556.541	26536.38
556.746	26247.62
556.951	26982.84
557.156	27036.09
557.361	26425.79
557.567	26616.26
557.772	27341.24
557.977	27021.75
558.182	26530.24
558.387	26829.24
558.592	26866.11
558.797	27195.83
559.002	26884.54
559.207	26677.69
559.412	26937.79
559.617	27339.19
559.822	27144.63
560.027	26870.2
560.232	27285.94
560.437	27472.31
560.642	26755.52
560.847	27029.94
561.051	27328.95
561.256	27255.22
561.461	27382.2
561.666	27261.37
561.871	27490.74
562.076	27632.05
562.281	27175.35
562.485	27122.1
562.69	27533.75
562.895	27705.77
563.1	27031.99
563.305	27359.67
563.509	28215.72
563.714	28191.14
563.919	27627.95
564.123	27464.11
564.328	27810.22
564.533	28084.65
564.737	27531.7
564.942	27435.44
565.147	28690.85
565.351	28842.4
565.556	27918.76
565.761	28203.43
565.965	28090.79
566.17	27695.53
566.374	27908.52
566.579	27986.35
566.784	28070.31
566.988	28074.41
567.193	27748.78
567.397	27857.32
567.602	27939.24
567.806	27933.1
568.011	27855.28
568.215	28543.39
568.42	28674.46
568.624	28707.23
568.828	28242.34
569.033	28490.15
569.237	28871.07
569.442	28617.12
569.646	28012.97
569.85	28387.75
570.055	28944.8
570.259	29034.91
570.463	28924.32
570.668	28676.51
570.872	28791.2
571.076	28838.3
571.281	28963.23
571.485	29163.93
571.689	29075.87
571.893	29170.07
572.098	28991.9
572.302	28922.27
572.506	28991.9
572.71	29352.34
572.914	28887.45
573.119	28967.32
573.323	29444.5
573.527	29680.02
573.731	29419.92
573.935	29129.11
574.139	30026.12
574.343	29047.19
574.547	29362.58
574.751	29266.33
574.955	29936.01
575.159	29526.42
575.364	29557.14
575.568	29491.6
575.772	29759.89
575.976	30312.84
576.18	29462.93
576.383	29544.85
576.587	30601.6
576.791	30626.18
576.995	29729.17
577.199	29770.13
577.403	29868.43
577.607	30712.19
577.811	29854.09
578.015	29745.55
578.219	30431.62
578.422	30443.91
578.626	30175.62
578.83	30329.22
579.034	30505.35
579.238	30677.38
579.442	30073.23
579.645	30765.44
579.849	30384.52
580.053	31074.68
580.257	30120.33
580.46	30491.01
580.664	30751.1
580.868	30675.33
581.071	30761.34
581.275	30781.82
581.479	30370.18
581.682	31043.96
581.886	30456.2
582.09	30398.85
582.293	30869.89
582.497	30941.57
582.7	30744.96
582.904	30636.42
583.107	31064.44
583.311	31308.15
583.515	30871.93
583.718	31068.54
583.922	31164.79
584.125	31619.44
584.329	30706.05
584.532	31402.36
584.735	31639.92
584.939	31293.82
585.142	30974.33
585.346	31197.56
585.549	31465.85
585.753	31555.96
585.956	31463.8
586.159	31619.44
586.363	32377.19
586.566	32278.89
586.769	31304.06
586.973	31365.49
587.176	32139.63
587.379	32315.75
587.582	32147.82
587.786	31717.75
587.989	32305.51
588.192	32706.91
588.395	31983.98
588.599	32442.73
588.802	32332.14
589.005	32100.72
589.208	32137.58
589.411	32223.59
589.615	32350.57
589.818	33001.82
590.021	32323.94
590.224	32438.63
590.427	32897.38
590.63	32971.1
590.833	32153.96
591.036	32311.66
591.239	32995.68
591.442	32864.61
591.645	32473.45
591.848	32835.94
592.051	33028.45
592.254	33423.7
592.457	32731.49
592.66	32848.22
592.863	32938.33
593.066	33036.64
593.269	32872.8
593.472	33145.18
593.675	33249.63
593.878	33538.39
594.081	32799.07
594.284	33104.22
594.486	33743.19
594.689	33685.84
594.892	33343.83
595.095	33196.38
595.298	34015.57
595.5	33499.48
595.703	34353.48
595.906	33354.07
596.109	34036.05
596.311	33986.89
596.514	33263.96
596.717	33841.49
596.92	34113.87
597.122	33980.75
597.325	33667.41
597.528	33974.61
597.73	34687.3
597.933	33796.43
598.136	33872.21
598.338	33548.63
598.541	34584.9
598.743	34773.31
598.946	33755.47
599.148	34156.88
599.351	34742.6
599.554	34572.61
599.756	34031.95
599.959	34490.7
600.161	35000.64
600.363	35283.26
600.566	34378.06
600.768	34386.25
600.971	34939.2
601.173	34773.31
601.376	34263.37
601.578	34705.73
601.78	34595.14
601.983	35436.86
602.185	34529.61
602.388	34943.3
602.59	34492.74
602.792	34953.54
602.995	34509.13
603.197	35043.65
603.399	35191.1
603.601	34738.5
603.804	34392.39
604.006	34996.54
604.208	34644.29
604.41	34740.55
604.613	34883.91
604.815	34675.01
605.017	35803.44
605.219	34898.24
605.421	35066.17
605.623	35060.03
605.826	35592.5
606.028	35270.97
606.23	34670.92
606.432	34763.07
606.634	35928.37
606.836	35596.6
607.038	35193.15
607.24	35098.94
607.442	35537.21
607.644	35359.03
607.846	35230.01
608.048	34945.34
608.25	35488.06
608.452	34957.63
608.654	35152.19
608.856	34298.19
609.058	35289.4
609.26	35647.8
609.462	35361.08
609.664	35520.82
609.866	35756.34
610.067	35688.76
610.269	35240.25
610.471	35293.5
610.673	35623.22
610.875	35694.9
611.077	35426.62
611.278	35461.43
611.48	35430.71
611.682	35858.74
611.884	35295.55
612.085	35420.47
612.287	35475.77
612.489	35748.15
612.69	35508.54
612.892	35705.14
613.094	35756.34
613.295	36069.68
613.497	34974.02
613.699	35963.18
613.9	36407.59
614.102	36225.32
614.304	35432.76
614.505	35617.08
614.707	35995.95
614.908	35733.81
615.11	35623.22
615.311	35422.52
615.513	35782.96
615.714	35989.81
615.916	35475.77
616.117	35717.43
616.319	36012.34
616.52	35807.54
616.722	35449.14
616.923	35696.95
617.124	36288.81
617.326	35813.68
617.527	35756.34
617.729	36337.96
617.93	36170.03
618.131	36243.76
618.333	35952.94
618.534	35942.7
618.735	36045.1
618.937	36407.59
619.138	35725.62
619.339	35830.07
619.54	36501.8
619.742	36333.87
619.943	35991.86
620.144	36016.43
620.345	36305.2
620.546	36624.68
620.748	35832.11
620.949	36024.62
621.15	36421.93
621.351	36288.81
621.552	36041.01
621.753	35893.55
621.954	36141.36
622.155	36186.41
622.356	35979.57
622.558	36055.34
622.759	36323.63
622.96	36548.9
623.161	35907.89
623.362	35848.5
623.563	36120.88
623.764	36516.14
623.965	36460.84
624.166	36643.11
624.366	35817.78
624.567	36512.04
624.768	35891.51
624.969	36053.3
625.17	36368.68
625.371	36550.95
625.572	35930.42
625.773	35938.61
625.973	36862.24
626.174	36798.76
626.375	36686.12
626.576	36364.59
626.777	37148.96
626.977	36911.39
627.178	36503.85
627.379	35967.28
627.58	36280.62
627.78	36481.32
627.981	36192.56
628.182	36333.87
628.382	37146.91
628.583	36682.02
628.784	36245.8
628.984	36372.78
629.185	37126.43
629.386	36317.48
629.586	36391.21
629.787	36585.77
629.987	36905.25
630.188	37001.5
630.388	36856.1
630.589	36739.36
630.79	37812.5
630.99	36835.62
631.191	36981.03
631.391	36950.31
631.591	37196.06
631.792	37151.01
631.992	37353.76
632.193	37071.14
632.393	37042.46
632.594	36725.03
632.794	36790.56
632.994	36946.21
633.195	37026.08
633.395	37105.95
633.595	36647.21
633.796	36933.92
633.996	37404.95
634.196	37708.05
634.397	36802.85
634.597	37089.57
634.797	37181.73
634.997	37531.93
635.198	37525.78
635.398	37314.84
635.598	37468.44
635.798	37648.66
635.998	37206.3
636.199	36905.25
636.399	37204.25
636.599	36897.06
636.799	37128.48
636.999	37501.21
637.199	37277.98
637.399	37855.51
637.599	37480.73
637.799	37122.33
637.999	37673.24
638.199	38281.49
638.399	37179.68
638.599	37095.71
638.799	37695.77
638.999	38410.51
639.199	37554.46
639.399	37634.33
639.599	38222.09
639.799	37357.85
639.999	37683.48
640.199	37361.95
640.399	37517.59
640.599	36714.79
640.799	37742.87
640.998	37927.19
641.198	37871.89
641.398	37445.91
641.598	38240.53
641.798	37912.85
641.997	38654.22
642.197	37875.99
642.397	37673.24
642.597	37697.81
642.796	38361.36
642.996	38191.37
643.196	37740.82
643.395	37589.27
643.595	37945.62
643.795	37255.45
643.994	37859.6
644.194	38179.09
644.394	38404.36
644.593	38295.82
644.793	37886.23
644.992	37841.17
645.192	38805.77
645.392	38138.13
645.591	38361.36
645.791	38045.97
645.99	38447.37
646.19	38537.48
646.389	38058.26
646.589	37939.47
646.788	38471.95
646.987	38762.76
647.187	38867.2
647.386	38650.12
647.586	38588.68
647.785	38856.96
647.984	38648.07
648.184	38625.54
648.383	38297.87
648.582	38420.75
648.782	38639.88
648.981	38488.33
649.18	38310.16
649.38	39115.01
649.579	38715.65
649.778	38674.7
649.977	39438.59
650.177	38961.41
650.376	38502.67
650.575	37812.5
650.774	39053.57
650.973	38365.45
651.173	38052.11
651.372	38660.36
651.571	38680.84
651.77	39110.91
651.969	38666.5
652.168	38492.43
652.367	38517
652.566	38803.72
652.765	38719.75
652.964	38934.79
653.163	39082.24
653.362	39262.46
653.561	38807.81
653.76	38641.93
653.959	38795.53
654.158	39356.67
654.357	38996.23
654.556	38342.92
654.755	39252.22
654.954	39678.2
655.153	38664.46
655.352	39213.31
655.551	39344.38
655.749	39153.92
655.948	39074.05
656.147	39237.89
656.346	39405.82
656.545	38897.92
656.743	38834.44
656.942	39141.63
657.141	39280.89
657.34	38967.55
657.538	39231.74
657.737	39143.68
657.936	39424.25
658.135	39133.44
658.333	39201.02
658.532	39403.77
658.731	39612.66
658.929	39635.19
659.128	39223.55
659.326	39231.74
659.525	39833.85
659.724	39233.79
659.922	38893.83
660.121	39119.1
660.319	38879.49
660.518	39063.81
660.716	39274.75
660.915	39141.63
661.113	39876.85
661.312	39045.38
661.51	38897.92
661.709	39311.61
661.907	39540.99
662.105	39596.28
662.304	39104.77
662.502	39311.61
662.701	39860.47
662.899	39373.05
663.097	39256.32
663.296	39117.06
663.494	39727.35
663.692	39708.92
663.891	39108.86
664.089	39006.47
664.287	39487.74
664.485	39665.91
664.684	39053.57
664.882	39319.81
665.08	39266.56
665.278	40206.58
665.476	39051.52
665.675	39688.44
665.873	39510.27
666.071	39731.45
666.269	39180.54
666.467	39041.28
666.665	39682.3
666.863	38961.41
667.061	39094.53
667.259	39350.52
667.457	39528.7
667.655	39885.04
667.853	39041.28
668.051	39321.85
668.249	39121.15
668.447	39491.83
668.645	38783.24
668.843	39135.49
669.041	39616.76
669.239	39321.85
669.437	39313.66
669.635	39450.88
669.833	39268.61
670.031	39792.89
670.229	38764.81
670.426	39350.52
670.624	39393.53
670.822	38951.17
671.02	39213.31
671.218	39360.76
671.415	39305.47
671.613	39153.92
671.811	39250.17
672.009	39526.65
672.206	39604.47
672.404	39035.14
672.602	39178.5
672.799	39485.69
672.997	39581.95
673.195	39704.82
673.392	39313.66
673.59	38525.19
673.788	38830.34
673.985	38746.37
674.183	39153.92
674.38	39248.13
674.578	39502.07
674.775	38748.42
674.973	38607.11
675.17	39069.95
675.368	39547.13
675.565	39112.96
675.763	38914.31
675.96	38449.42
676.158	39237.89
676.355	38816.01
676.553	39088.38
676.75	38402.32
676.947	39225.6
677.145	39102.72
677.342	39221.5
677.539	38457.61
677.737	38916.36
677.934	39151.87
678.131	38545.67
678.329	38740.23
678.526	39409.92
678.723	39469.31
678.92	39008.51
679.118	38408.46
679.315	38375.69
679.512	39383.29
679.709	39012.61
679.906	38693.13
680.104	39178.5
680.301	38768.9
680.498	38131.98
680.695	38560.01
680.892	38805.77
681.089	38775.05
681.286	38613.26
681.483	38197.52
681.68	38686.98
681.877	39008.51
682.075	38582.54
682.272	38752.52
682.469	38377.74
682.665	37933.33
682.862	37767.45
683.059	38312.2
683.256	38533.39
683.453	38457.61
683.65	38240.53
683.847	38349.07
684.044	38347.02
684.241	38373.64
684.438	38631.69
684.635	37880.08
684.831	39098.62
685.028	39018.75
685.225	38029.59
685.422	38068.5
685.619	38336.78
685.815	37998.87
686.012	37841.17
686.209	37888.28
686.405	37765.4
686.602	38269.2
686.799	37429.53
686.996	37906.71
687.192	37769.49
687.389	38207.76
687.586	37497.11
687.782	37886.23
687.979	38199.57
688.175	38326.54
688.372	37751.06
688.568	37660.95
688.765	37484.83
688.962	38754.57
689.158	37603.61
689.355	37501.21
689.551	38369.55
689.748	37706.01
689.944	37511.45
690.14	37302.56
690.337	37865.75
690.533	38107.41
690.73	37460.25
690.926	37552.41
691.123	37411.1
691.319	37687.57
691.515	37632.28
691.712	37634.33
691.908	37470.49
692.104	37671.19
692.301	37542.17
692.497	36991.26
692.693	37548.31
692.889	37615.9
693.086	37423.39
693.282	37099.81
693.478	37507.35
693.674	38207.76
693.87	37304.6
694.067	37513.5
694.263	37550.36
694.459	37529.88
694.655	37255.45
694.851	37222.69
695.047	37228.83
695.243	37761.3
695.439	37114.14
695.635	37329.18
695.831	37417.24
696.027	37257.5
696.224	36897.06
696.42	37423.39
696.615	37445.91
696.811	37427.48
697.007	36983.07
697.203	37167.39
697.399	37026.08
697.595	37085.47
697.791	36880.67
697.987	36606.25
698.183	36485.42
698.379	36542.76
698.575	36774.18
698.77	36612.39
698.966	37036.32
699.162	37392.67
699.358	36630.82
699.554	36370.73
699.749	37028.13
699.945	36899.11
700.141	36319.53
700.337	36722.98
700.532	36682.02
700.728	36346.15
700.924	36301.1
701.119	36653.35
701.315	36571.43
701.511	36219.18
701.706	36677.93
701.902	36229.42
702.097	36323.63
702.293	36679.97
702.489	36507.94
702.684	36522.28
702.88	36428.07
703.075	36233.52
703.271	36034.86
703.466	36221.23
703.662	36368.68
703.857	37087.52
704.053	36340.01
704.248	36180.27
704.443	36614.44
704.639	36735.27
704.834	36264.24
705.03	36417.83
705.225	36446.51
705.42	36536.62
705.616	36061.49
705.811	35995.95
706.006	36348.2
706.202	36098.35
706.397	35770.68
706.592	35844.4
706.787	36487.46
706.983	36466.98
707.178	36938.02
707.373	36077.87
707.568	36473.13
707.763	36229.42
707.959	36249.9
708.154	36034.86
708.349	36008.24
708.544	36331.82
708.739	36393.26
708.934	35903.79
709.129	36383.02
709.324	36157.74
709.519	36086.06
709.714	35592.5
709.909	36471.08
710.104	35987.76
710.299	35541.3
710.494	35737.91
710.689	35828.02
710.884	35758.39
711.079	35932.47
711.274	35731.76
711.469	36473.13
711.664	36208.94
711.859	35866.93
712.054	36235.56
712.249	35952.94
712.443	35873.07
712.638	35696.95
712.833	35285.31
713.028	36170.03
713.223	35569.97
713.417	35443
713.612	35619.13
713.807	35733.81
714.002	36385.07
714.196	35516.73
714.391	35572.02
714.586	36008.24
714.78	35744.05
714.975	35416.38
715.17	35176.76
715.364	35674.42
715.559	35848.5
715.754	34705.73
715.948	35285.31
716.143	35772.72
716.337	35180.86
716.532	35533.11
716.726	35119.42
716.921	35696.95
717.115	35731.76
717.31	35289.4
717.504	35965.23
717.699	35293.5
717.893	35512.63
718.088	34888
718.282	35049.79
718.476	35148.09
718.671	35072.32
718.865	34867.52
719.059	34703.68
719.254	34971.97
719.448	35244.35
719.642	36018.48
719.837	34023.76
720.031	35391.8
720.225	34836.8
720.419	34572.61
720.614	34218.32
720.808	34814.27
721.002	34918.72
721.196	34206.03
721.39	34535.75
721.585	34935.1
721.779	34797.89
721.973	34134.35
722.167	33888.59
722.361	34679.11
722.555	35002.69
722.749	34185.55
722.943	34513.22
723.137	34253.13
723.331	34519.37
723.525	34339.15
723.719	34353.48
723.913	34605.38
724.107	34675.01
724.301	34347.34
724.495	34105.68
724.689	34890.05
724.883	34611.53
725.077	33970.51
725.271	34365.77
725.465	34369.86
725.659	34312.52
725.853	34367.82
726.046	34007.37
726.24	33712.47
726.434	34392.39
726.628	33980.75
726.822	34074.96
727.015	34859.33
727.209	34752.84
727.403	34115.92
727.596	33990.99
727.79	34687.3
727.984	34574.66
728.177	34148.68
728.371	33886.54
728.565	34568.52
728.758	34289.99
728.952	34246.99
729.146	34083.15
729.339	34943.3
729.533	34150.73
729.726	33980.75
729.92	33911.12
730.113	34646.34
730.307	34341.19
730.5	33853.78
730.694	33812.82
730.887	34001.23
731.081	34345.29
731.274	33837.39
731.468	33366.36
731.661	33907.02
731.854	34347.34
732.048	33665.36
732.241	33816.91
732.435	34271.56
732.628	34462.02
732.821	34230.6
733.014	33655.12
733.208	33755.47
733.401	34398.54
733.594	34038.09
733.788	33640.79
733.981	34249.03
734.174	34404.68
734.367	33929.55
734.56	34173.26
734.754	34472.26
734.947	34122.06
735.14	33825.11
735.333	33845.58
735.526	34036.05
735.719	33818.96
735.912	33706.32
736.105	33612.12
736.298	33950.03
736.491	33818.96
736.684	33327.45
736.877	34038.09
737.07	33816.91
737.263	34034
737.456	33497.43
737.649	33513.81
737.842	33837.39
738.035	33792.34
738.228	33417.56
738.421	33847.63
738.614	34042.19
738.807	34132.3
739	33128.8
739.192	33124.7
739.385	33530.2
739.578	33593.68
739.771	33403.22
739.964	33507.67
740.156	33657.17
740.349	33534.29
740.542	33829.2
740.735	33118.56
740.927	33130.84
741.12	33601.88
741.313	32874.85
741.505	33673.56
741.698	33237.34
741.891	33497.43
742.083	33337.69
742.276	33282.39
742.468	33624.4
742.661	33415.51
742.854	33194.33
743.046	32909.66
743.239	33739.09
743.431	33337.69
743.624	32913.76
743.816	32999.77
744.009	33159.52
744.201	33098.08
744.393	32979.29
744.586	32713.06
744.778	33540.44
744.971	33245.53
745.163	33278.3
745.355	33249.63
745.548	33073.5
745.74	32893.28
745.932	32956.77
746.125	32876.9
746.317	33581.4
746.509	33042.78
746.702	33104.22
746.894	32954.72
747.086	33231.19
747.278	33196.38
747.471	33096.03
747.663	32700.77
747.855	32940.38
748.047	33405.27
748.239	32977.25
748.431	32731.49
748.623	33630.55
748.815	33261.91
749.008	32438.63
749.2	32946.53
749.392	32995.68
749.584	33120.6
749.776	33136.99
749.968	33050.97
750.16	33390.94
750.352	32516.45
750.544	32768.35
750.736	32489.83
750.928	33352.02
751.12	32745.83
751.311	32280.94
751.503	32780.64
751.695	33014.11
751.887	32620.9
752.079	32346.47
752.271	32495.97
752.463	33700.18
752.654	32784.74
752.846	32280.94
753.038	32311.66
753.23	32426.34
753.421	32694.63
753.613	32022.89
753.805	32553.32
753.997	32725.35
754.188	32690.53
754.38	32049.52
754.572	32133.48
754.763	32575.84
754.955	32291.18
755.146	32008.56
755.338	32084.33
755.53	32266.6
755.721	31963.5
755.913	31652.21
756.104	31650.16
756.296	32057.71
756.487	31834.48
756.679	31709.55
756.87	31525.24
757.062	31500.66
757.253	32336.23
757.445	31490.42
757.636	32020.84
757.827	31758.7
758.019	32541.03
758.21	31586.68
758.401	31435.13
758.593	32104.81
758.784	31863.15
758.975	31279.48
759.167	30939.52
759.358	31723.89
759.549	31803.76
759.74	31416.69
759.932	30974.33
760.123	31469.94
760.314	31416.69
760.505	30992.76
760.696	30833.02
760.888	31824.24
761.079	31314.3
761.27	30749.06
761.461	30904.7
761.652	31537.52
761.843	31027.58
762.034	30759.3
762.225	30734.72
762.416	31056.25
762.607	30734.72
762.798	30699.9
762.989	30916.99
763.18	31826.29
763.371	30706.05
763.562	30577.03
763.753	30693.76
763.944	30923.13
764.135	30765.44
764.326	30597.51
764.517	30552.45
764.708	30904.7
764.899	31074.68
765.089	30402.95
765.28	30286.22
765.471	30812.54
765.662	30617.99
765.853	30314.89
766.043	29671.82
766.234	30744.96
766.425	30026.12
766.615	30083.47
766.806	29596.05
766.997	30458.24
767.187	30042.51
767.378	30151.05
767.569	29739.41
767.759	30431.62
767.95	30544.26
768.141	30058.89
768.331	30017.93
768.522	29997.45
768.712	30251.4
768.903	29661.58
769.093	29659.54
769.284	30185.86
769.474	29745.55
769.665	29260.18
769.855	29499.8
770.046	29632.91
770.236	29391.25
770.426	29663.63
770.617	29542.8
770.807	29550.99
770.998	29352.34
771.188	28961.18
771.378	28963.23
771.569	29669.78
771.759	29546.9
771.949	28565.92
772.139	29299.09
772.33	29211.03
772.52	29499.8
772.71	28901.79
772.9	28789.15
773.09	29235.61
773.281	29338.01
773.471	28578.21
773.661	28928.41
773.851	29186.46
774.041	28891.55
774.231	28576.16
774.421	28592.55
774.611	29047.19
774.802	28701.09
774.992	28606.88
775.182	28488.1
775.372	28940.7
775.562	29014.43
775.752	28299.69
775.942	28416.42
776.131	28987.8
776.321	28760.48
776.511	28330.41
776.701	28277.16
776.891	28391.84
777.081	28006.83
777.271	27986.35
777.461	27658.67
777.651	28389.8
777.84	28301.73
778.03	27703.73
778.22	27742.64
778.41	28551.59
778.599	27664.82
778.789	27795.89
778.979	27584.94
779.169	28078.5
779.358	27924.91
779.548	28373.41
779.738	27306.42
779.927	27799.98
780.117	28164.52
780.307	27431.35
780.496	27042.23
780.686	27812.27
780.875	27922.86
781.065	27244.98
781.254	27433.39
781.444	27562.42
781.633	27783.6
781.823	27574.7
782.012	27333.04
782.202	27331
782.391	27339.19
782.581	27433.39
782.77	27105.72
782.96	27402.68
783.149	27003.32
783.338	27040.18
783.528	27189.69
783.717	26997.18
783.906	27728.3
784.096	26991.03
784.285	27044.28
784.474	26816.96
784.663	26892.73
784.853	26810.81
785.042	26835.39
785.231	26905.02
785.42	27427.25
785.61	26730.94
785.799	26692.03
785.988	26628.54
786.177	26571.2
786.366	26407.36
786.555	26966.46
786.744	26872.25
786.933	26732.99
787.122	26407.36
787.312	26413.51
787.501	26567.1
787.69	26804.67
787.879	26814.91
788.068	26180.04
788.257	26083.78
788.445	26200.52
788.634	26321.35
788.823	26137.03
789.012	26905.02
789.201	26675.65
789.39	26425.79
789.579	25946.57
789.768	26390.98
789.957	26341.83
790.145	26110.41
790.334	25577.94
790.523	25602.51
790.712	25893.32
790.9	26106.31
791.089	25637.33
791.278	26485.19
791.467	25981.38
791.655	26079.69
791.844	26247.62
792.033	25635.28
792.221	25756.11
792.41	25973.19
792.599	25027.03
792.787	26182.09
792.976	25893.32
793.164	25344.47
793.353	25457.1
793.541	26012.1
793.73	25661.9
793.918	25358.8
794.107	25135.57
794.295	25606.61
794.484	25594.32
794.672	25360.85
794.861	25170.39
795.049	25463.25
795.238	25491.92
795.426	24830.43
795.614	25190.87
795.803	25590.22
795.991	25598.41
796.179	25221.59
796.368	25209.3
796.556	25696.72
796.744	24992.22
796.932	25098.71
797.121	25076.18
797.309	24898.01
797.497	25463.25
797.685	24865.24
797.874	24981.98
798.062	24992.22
798.25	24924.63
798.438	24918.49
798.626	25096.66
798.814	25436.63
799.002	25395.67
799.19	24773.08
799.378	24879.58
799.566	25364.95
799.755	25182.68
799.943	24752.6
800.131	24707.55
800.318	24893.91
800.506	25203.16
800.694	24807.9
800.882	24658.4
801.07	25461.2
801.258	24826.33
801.446	24889.82
801.634	24629.73
801.822	25178.58
802.01	24981.98
802.197	24904.15
802.385	24895.96
802.573	25190.87
802.761	25074.13
802.949	24879.58
803.136	24721.88
803.324	25598.41
803.512	25237.97
803.699	24910.3
803.887	24875.48
804.075	25366.99
804.262	25166.29
804.45	24975.83
804.638	25211.35
804.825	25123.29
805.013	25049.56
805.201	24848.86
805.388	24867.29
805.576	25055.7
805.763	25733.58
805.951	25113.05
806.138	25158.1
806.326	25715.15
806.513	25369.04
806.701	25221.59
806.888	25149.91
807.075	25508.3
807.263	25756.11
807.45	25410
807.638	25299.41
807.825	25727.44
808.012	25487.82
808.2	25035.22
808.387	25782.73
808.574	25383.38
808.761	25864.65
808.949	25315.8
809.136	25622.99
809.323	25440.72
809.51	25358.8
809.698	25231.83
809.885	25258.45
810.072	25622.99
810.259	25594.32
810.446	25366.99
810.633	25647.57
810.82	26008.01
811.008	25944.52
811.195	25436.63
811.382	25393.62
811.569	25792.97
811.756	25504.21
811.943	25438.67
812.13	25588.17
812.317	25383.38
812.504	25579.98
812.691	25536.98
812.878	25575.89
813.064	25797.07
813.251	25842.12
813.438	25536.98
813.625	25524.69
813.812	25051.61
813.999	25661.9
814.186	25500.11
814.372	25639.37
814.559	25479.63
814.746	25885.13
814.933	25252.31
815.12	25606.61
815.306	25135.57
815.493	25551.31
815.68	25328.08
815.866	25278.93
816.053	25975.24
816.24	25921.99
816.426	25539.02
816.613	25467.34
816.799	25813.45
816.986	26051.02
817.173	25209.3
817.359	25309.65
817.546	25426.39
817.732	24967.64
817.919	25336.27
818.105	25065.94
818.292	25213.4
818.478	25442.77
818.665	25334.23
818.851	25528.78
819.037	25741.77
819.224	25141.72
819.41	25133.53
819.597	24689.12
819.783	25545.17
819.969	25539.02
820.156	25311.7
820.342	25197.01
820.528	25711.05
820.714	25133.53
820.901	25201.11
821.087	24822.23
821.273	25762.25
821.459	25389.52
821.646	24891.87
821.832	24965.59
822.018	25280.98
822.204	24771.04
822.39	25164.25
822.576	24578.53
822.762	25029.08
822.948	25006.55
823.134	24725.98
823.32	24650.21
823.507	24775.13
823.693	25016.79
823.879	25102.81
824.065	24697.31
824.25	24768.99
824.436	24576.48
824.622	24574.43
824.808	24562.14
824.994	24756.7
825.18	24445.41
825.366	24465.89
825.552	24379.87
825.738	24625.63
825.923	24725.98
826.109	24369.63
826.295	24455.65
826.481	24381.92
826.667	24486.37
826.852	24601.05
827.038	24082.92
827.224	24605.15
827.409	24871.39
827.595	24279.52
827.781	24101.35
827.966	24818.14
828.152	24343.01
828.338	24023.53
828.523	23597.55
828.709	24050.15
828.894	24527.33
829.08	24015.33
829.266	24146.4
829.451	24054.25
829.637	24213.99
829.822	24109.54
830.008	23704.04
830.193	24166.88
830.378	24250.85
830.564	24066.53
830.749	23914.98
830.935	23908.84
831.12	24080.87
831.305	23378.42
831.491	23624.17
831.676	23820.78
831.861	23914.98
832.047	23411.18
832.232	23706.09
832.417	24148.45
832.602	23695.85
832.788	23288.31
832.973	23368.18
833.158	23689.71
833.343	23972.33
833.528	23816.68
833.714	23615.98
833.899	23511.53
834.084	23882.22
834.269	23366.13
834.454	22970.87
834.639	23759.34
834.824	23773.67
835.009	23214.58
835.194	23364.08
835.379	23609.84
835.564	23331.31
835.749	23216.63
835.934	23046.65
836.119	23181.81
836.304	23134.71
836.489	22688.25
836.674	23009.78
836.859	22841.85
837.044	23532.01
837.228	22925.82
837.413	22936.06
837.598	23200.24
837.783	23536.11
837.968	23001.59
838.152	22614.52
838.337	22546.94
838.522	23175.67
838.707	22989.3
838.891	22956.54
839.076	23075.32
839.261	23015.93
839.445	22518.27
839.63	22860.28
839.815	22950.39
839.999	22565.37
840.184	22774.27
840.368	22436.35
840.553	22684.16
840.737	22850.04
840.922	22088.2
841.106	22278.66
841.291	22448.64
841.475	22252.03
841.66	21832.2
841.844	22231.55
842.029	23321.07
842.213	22350.34
842.397	22004.23
842.582	21744.14
842.766	22790.65
842.951	22577.66
843.135	22141.44
843.319	22129.16
843.504	22366.72
843.688	22530.56
843.872	21891.59
844.056	21791.24
844.241	22190.59
844.425	21985.8
844.609	21867.02
844.793	21879.3
844.977	22180.35
845.161	21942.79
845.346	21688.84
845.53	21705.23
845.714	21643.79
845.898	21926.41
846.082	21209.62
846.266	21776.91
846.45	21914.12
846.634	21576.2
846.818	21295.63
847.002	21627.4
847.186	22071.81
847.37	21649.93
847.554	21449.23
847.738	21254.67
847.922	21651.98
848.106	21604.88
848.29	21211.67
848.473	21189.14
848.657	21426.7
848.841	21551.63
849.025	21027.35
849.209	20918.81
849.392	21346.83
849.576	21426.7
849.76	20949.53
849.944	21496.33
850.127	21627.4
850.311	20877.85
850.495	20838.94
850.678	20840.98
850.862	21465.61
851.046	21398.03
851.229	21037.59
851.413	20441.63
851.596	20965.91
851.78	20939.29
851.964	20726.3
852.147	20722.2
852.331	21699.08
852.514	21182.99
852.698	20775.45
852.881	20351.52
853.065	21002.77
853.248	20613.66
853.431	20761.11
853.615	20951.57
853.798	21326.35
853.982	20838.94
854.165	20845.08
854.348	20312.61
854.532	20515.36
854.715	20320.8
854.898	20275.74
855.081	20277.79
855.265	20863.51
855.448	20691.48
855.631	20070.95
855.814	20023.84
855.997	20627.99
856.181	19806.76
856.364	19773.99
856.547	19958.31
856.73	20363.81
856.913	20402.72
857.096	19558.95
857.279	20292.13
857.462	19909.16
857.645	20277.79
857.828	19964.45
858.011	20075.04
858.194	19862.05
858.377	19835.43
858.56	19649.07
858.743	19780.14
858.926	19714.6
859.109	19892.77
859.292	19620.39
859.475	19567.15
859.658	20089.38
859.841	19860.01
860.023	19132.98
860.206	19372.59
860.389	19636.78
860.572	19974.69
860.755	19550.76
860.937	19341.87
861.12	19419.69
861.303	19462.7
861.486	19454.51
861.668	19307.05
861.851	19597.87
862.034	19712.55
862.216	19194.42
862.399	18924.08
862.581	19472.94
862.764	19671.59
862.947	19028.53
863.129	18752.06
863.312	18737.72
863.494	19460.65
863.677	19028.53
863.859	18483.77
864.042	18958.9
864.224	19401.26
864.406	18999.86
864.589	18315.84
864.771	18831.93
864.954	18487.87
865.136	18506.3
865.318	18563.64
865.501	18881.08
865.683	18371.13
865.865	18575.93
866.048	18393.66
866.23	18723.38
866.412	18563.64
866.594	18369.09
866.777	18692.66
866.959	18725.43
867.141	18455.1
867.323	18391.61
867.505	18545.21
867.687	18494.01
867.869	18602.55
868.052	18489.92
868.234	18070.08
868.416	18408
868.598	18459.2
868.78	18063.94
868.962	18324.03
869.144	18881.08
869.326	18674.23
869.508	18076.23
869.69	18027.07
869.872	18219.58
870.054	18702.9
870.236	17943.11
870.417	18188.86
870.599	18182.72
870.781	18657.85
870.963	18070.08
871.145	18080.32
871.327	18037.31
871.508	18340.41
871.69	18045.51
871.872	17934.92
872.054	18416.19
872.235	18303.55
872.417	18029.12
872.599	17644.1
872.78	18491.96
872.962	18117.18
873.144	17642.06
873.325	17803.85
873.507	18131.52
873.689	18039.36
873.87	17902.15
874.052	18108.99
874.233	17963.59
874.415	18256.45
874.596	18362.94
874.778	17775.17
874.959	17781.32
875.141	18121.28
875.322	17918.53
875.503	17859.14
875.685	18317.89
875.866	17789.51
876.048	17476.17
876.229	17558.09
876.41	17701.45
876.592	18152
876.773	17879.62
876.954	17551.95
877.136	18545.21
877.317	17916.48
877.498	17760.84
877.679	17814.09
877.86	18190.91
878.042	18047.55
878.223	17877.57
878.404	18088.51
878.585	18008.64
878.766	18487.87
878.947	18475.58
879.128	18326.08
879.309	18287.17
879.49	18195.01
879.672	17977.92
879.853	18170.43
880.034	18145.86
880.215	18303.55
880.396	18242.11
880.576	17932.87
880.757	18213.44
880.938	18559.55
881.119	18328.13
881.3	18176.58
881.481	18274.88
881.662	19556.91
881.843	18166.34
882.023	18336.32
882.204	18739.77
882.385	18713.14
882.566	18344.51
882.747	18319.93
882.927	18684.47
883.108	18563.64
883.289	18299.45
883.469	18940.47
883.65	18731.58
883.831	18709.05
884.011	18897.46
884.192	18762.3
884.373	19204.66
884.553	19077.68
884.734	19075.63
884.914	19120.69
885.095	19657.26
885.275	19518
885.456	19452.46
885.636	18680.38
885.817	18940.47
885.997	19049.01
886.178	18801.21
886.358	18954.8
886.538	19218.99
886.719	19995.17
886.899	18922.04
887.08	19077.68
887.26	19274.29
887.44	19294.77
887.621	18864.69
887.801	18827.83
887.981	20025.89
888.161	19501.61
888.342	18997.81
888.522	19395.12
888.702	19862.05
888.882	19808.81
889.062	19378.73
889.242	18905.65
889.423	19620.39
889.603	19575.34
889.783	19460.65
889.963	19196.46
890.143	19769.9
890.323	19413.55
890.503	19001.91
890.683	19280.43
890.863	19423.79
891.043	19495.47
891.223	19413.55
891.403	19436.08
891.583	19528.24
891.763	19554.86
891.943	19094.07
892.122	19085.87
892.302	19438.12
892.482	19231.28
892.662	19401.26
892.842	19323.44
893.022	19352.11
893.201	19098.16
893.381	19184.18
893.561	19042.87
893.741	19368.49
893.92	19593.77
894.1	19124.79
894.28	19235.38
894.459	19317.29
894.639	19067.44
894.819	18745.91
894.998	19028.53
895.178	19294.77
895.357	19372.59
895.537	18891.32
895.716	18758.2
895.896	18909.75
896.075	19505.71
896.255	18938.42
896.434	18524.73
896.614	19524.14
896.793	19413.55
896.973	19116.59
897.152	18717.24
897.331	19247.66
897.511	19173.94
897.69	18582.07
897.87	18483.77
898.049	18872.89
898.228	18960.95
898.407	18686.52
898.587	18752.06
898.766	18895.41
898.945	18760.25
899.124	18430.52
899.304	18442.81
899.483	18475.58
899.662	18936.37
899.841	18264.64
900.02	17982.02
900.199	18866.74
900.378	18430.52
900.557	18051.65
900.737	18041.41
900.916	18508.35
901.095	18661.94
901.274	17906.24
901.453	17701.45
901.632	18012.74
901.811	17883.72
901.989	17904.2
902.168	17828.42
902.347	18348.61
902.526	17457.74
902.705	17564.23
902.884	17543.75
903.063	18170.43
903.242	17998.4
903.42	16921.17
903.599	17605.19
903.778	17859.14
903.957	17871.43
904.135	17443.4
904.314	17154.64
904.493	17195.6
904.672	17279.57
904.85	16982.61
905.029	16693.85
905.207	16898.64
905.386	17664.58
905.565	16589.4
905.743	16357.98
905.922	16382.56
906.1	16947.79
906.279	16265.82
906.457	16165.47
906.636	16312.92
906.814	16216.67
906.993	15774.31
907.171	16077.41
907.35	16163.42
907.528	16183.9
907.707	15905.38
907.885	15831.65
908.063	16095.84
908.242	15592.04
908.42	15559.27
908.598	15295.08
908.777	15864.42
908.955	15405.67
909.133	15559.27
909.311	15112.81
909.49	15813.22
909.668	16065.12
909.846	15712.87
910.024	15241.84
910.202	15923.81
910.38	15960.67
910.559	15415.91
910.737	15737.45
910.915	16116.32
911.093	15913.57
911.271	15557.22
911.449	15989.35
911.627	16472.67
911.805	16523.87
911.983	15805.03
912.161	15649.38
912.339	16339.55
912.517	16736.85
912.695	16183.9
912.872	15852.13
913.05	16048.74
913.228	16351.84
913.406	16056.93
913.584	15671.91
913.762	16317.02
913.939	16024.16
914.117	16054.88
914.295	16241.25
914.473	16331.36
914.65	16603.74
914.828	16071.26
915.006	16044.64
915.184	16030.3
915.361	16378.46
915.539	15997.54
915.716	16108.13
915.894	16456.28
916.072	16636.5
916.249	16095.84
916.427	16181.85
916.604	16022.11
916.782	16245.34
916.959	15886.95
917.137	15813.22
917.314	16482.91
917.492	16394.84
917.669	15960.67
917.847	16175.71
918.024	16110.18
918.201	16091.74
918.379	15657.57
918.556	15938.15
918.733	16114.27
918.911	16024.16
919.088	15888.99
919.265	15680.1
919.442	15997.54
919.62	15704.68
919.797	15571.56
919.974	15379.05
920.151	15809.12
920.328	15409.77
920.506	15528.55
920.683	15938.15
920.86	15276.65
921.037	15690.34
921.214	15442.54
921.391	15327.85
921.568	15635.05
921.745	15073.9
921.922	15172.21
922.099	15071.86
922.276	15766.12
922.453	15510.12
922.63	15000.18
922.807	15239.79
922.984	15377
923.161	15127.15
923.338	15161.97
923.514	14766.71
923.691	15155.82
923.868	15243.88
924.045	14930.55
924.222	14834.29
924.399	15221.36
924.575	15112.81
924.752	14885.49
924.929	14738.04
925.105	14930.55
925.282	14584.44
925.459	14533.24
925.635	14539.38
925.812	14811.76
925.989	14350.97
926.165	14453.37
926.342	14207.61
926.518	14340.73
926.695	14432.89
926.871	14291.58
927.048	14056.06
927.224	14512.76
927.401	14142.08
927.577	14092.93
927.754	13953.66
927.93	14420.6
928.107	14305.92
928.283	13744.77
928.459	14215.8
928.636	14084.73
928.812	13992.58
928.988	13669
929.165	13599.37
929.341	14213.76
929.517	13994.62
929.693	14123.65
929.87	13357.71
930.046	14045.82
930.222	13421.19
930.398	13316.75
930.574	13615.75
930.751	13482.63
930.927	13298.31
931.103	13316.75
931.279	12978.83
931.455	12962.45
931.631	13234.83
931.807	12821.14
931.983	12843.67
932.159	12921.49
932.335	13056.65
932.511	12839.57
932.687	12634.77
932.863	13021.84
933.039	12714.64
933.215	12434.07
933.391	12417.69
933.566	12534.42
933.742	12446.36
933.918	12171.93
934.094	11965.09
934.27	12178.08
934.445	12069.53
934.621	12096.16
934.797	11762.34
934.973	11862.69
935.148	11807.39
935.324	11260.59
935.5	11059.88
935.675	11651.75
935.851	11432.61
936.027	11086.51
936.202	10838.7
936.378	11047.6
936.553	10812.08
936.729	10922.67
936.904	10316.47
937.08	10130.11
937.255	10142.39
937.431	9882.3
937.606	9353.93
937.782	9773.76
937.957	9798.34
938.133	9407.17
938.308	9208.52
938.483	9294.54
938.659	9069.26
938.834	8862.41
939.009	8497.88
939.185	8649.43
939.36	8327.89
939.535	7969.5
939.71	8399.57
939.886	8682.19
940.061	8311.51
940.236	8092.38
940.411	8098.52
940.586	8317.65
940.761	8057.56
940.937	7641.82
941.112	7561.95
941.287	7881.44
941.462	7791.33
941.637	7383.78
941.812	7420.64
941.987	7684.83
942.162	7693.02
942.337	7568.1
942.512	7291.62
942.687	7643.87
942.862	7721.7
943.037	7074.54
943.212	6843.12
943.386	7340.77
943.561	7400.16
943.736	7234.28
943.911	7355.11
944.086	7367.4
944.26	7420.64
944.435	6992.62
944.61	7197.42
944.785	7607.01
944.959	7621.35
945.134	6939.37
945.309	7017.19
945.483	6982.38
945.658	7523.04
945.833	6666.99
946.007	6986.47
946.182	7518.95
946.357	7041.77
946.531	7080.68
946.706	6814.45
946.88	7043.82
947.055	7252.71
947.229	7082.73
947.404	7082.73
947.578	7561.95
947.752	7279.33
947.927	7056.11
948.101	6882.03
948.276	7492.32
948.45	7584.48
948.624	7389.92
948.799	7181.03
948.973	7518.95
949.147	7066.35
949.321	7299.81
949.496	7228.14
949.67	7731.94
949.844	7656.16
950.018	7346.92
950.193	7127.78
950.367	8055.51
950.541	7535.33
950.715	7664.35
950.889	7699.17
951.063	7754.46
951.237	7805.66
951.411	7158.5
951.585	7568.1
951.759	7760.61
951.933	7713.5
952.107	7506.66
952.281	7887.58
952.455	8223.45
952.629	7820
952.803	7637.73
952.977	7684.83
953.151	7973.6
953.325	8032.99
953.499	7809.76
953.672	7408.36
953.846	7727.84
954.02	7682.78
954.194	7555.81
954.368	7705.31
954.541	8159.96
954.715	7715.55
954.889	7916.25
955.062	7877.34
955.236	8032.99
955.41	7936.73
955.583	8104.67
955.757	7678.69
955.93	8159.96
956.104	7793.37
956.278	7944.92
956.451	8178.39
956.625	8274.65
956.798	8669.91
956.972	8293.08
957.145	7891.68
957.319	8346.33
957.492	7946.97
957.665	8276.7
957.839	7961.31
958.012	8393.43
958.185	8082.14
958.359	8176.34
958.532	8184.54
958.705	8536.79
958.879	8430.29
959.052	7987.93
959.225	7926.49
959.398	8280.79
959.572	8254.17
959.745	7975.64
959.918	7949.02
960.091	8106.71
960.264	8501.97
960.438	7932.64
960.611	7854.81
960.784	8248.02
960.957	8061.66
961.13	8448.72
961.303	7926.49
961.476	8217.3
961.649	8286.93
961.822	7873.25
961.995	8026.84
962.168	8239.83
962.341	8252.12
962.514	8037.08
962.686	8037.08
962.859	8362.71
963.032	8268.5
963.205	8002.27
963.378	7848.67
963.551	8501.97
963.723	8368.85
963.896	8213.21
964.069	8276.7
964.242	8114.91
964.414	8336.09
964.587	8094.43
964.76	7957.21
964.932	8243.93
965.105	8012.51
965.278	7828.19
965.45	7736.03
965.623	8078.04
965.795	8260.31
965.968	7748.32
966.14	7817.95
966.313	8057.56
966.485	8049.37
966.658	7764.7
966.83	7609.06
967.003	8284.89
967.175	8227.54
967.348	7817.95
967.52	7863.01
967.692	8409.81
967.865	8217.3
968.037	7813.85
968.209	8080.09
968.382	8090.33
968.554	8035.03
968.726	7834.33
968.898	7680.74
969.071	8143.58
969.243	8075.99
969.415	7781.09
969.587	7858.91
969.759	8542.93
969.932	8088.28
970.104	7729.89
970.276	7301.86
970.448	7721.7
970.62	7822.05
970.792	7625.44
970.964	7686.88
971.136	8207.06
971.308	8010.46
971.48	7609.06
971.652	7584.48
971.824	8225.5
971.996	7578.34
972.168	7473.89
972.339	7467.75
972.511	8096.47
972.683	7703.26
972.855	7787.23
973.027	7473.89
973.199	7723.74
973.37	7729.89
973.542	7486.18
973.714	7516.9
973.886	7535.33
974.057	7928.54
974.229	7262.95
974.401	7334.63
974.572	7346.92
974.744	7037.67
974.915	7213.8
975.087	7013.1
975.259	7633.63
975.43	7320.29
975.602	7193.32
975.773	7068.39
975.945	7158.5
976.116	7697.12
976.288	7150.31
976.459	7385.83
976.63	7101.16
976.802	7148.26
976.973	6947.56
977.145	7181.03
977.316	7600.87
977.487	7420.64
977.659	7107.3
977.83	6884.08
978.001	7600.87
978.172	7125.74
978.344	6986.47
978.515	6886.12
978.686	6941.42
978.857	7318.25
979.028	6966
979.2	6744.81
979.371	7432.93
979.542	6832.88
979.713	6978.28
979.884	6445.81
980.055	6746.86
980.226	6929.13
980.397	6728.43
980.568	6587.12
980.739	7265
980.91	6718.19
981.081	6927.08
981.252	6687.47
981.423	7006.95
981.594	7090.92
981.765	6701.81
981.936	6775.53
982.106	6585.07
982.277	7101.16
982.448	6517.49
982.619	6564.59
982.79	6503.15
982.96	6851.31
983.131	6537.97
983.302	6236.92
983.472	6476.53
983.643	6707.95
983.814	6441.72
983.984	6302.45
984.155	6310.65
984.326	6605.55
984.496	6472.43
984.667	6284.02
984.837	6302.45
985.008	6753.01
985.178	6318.84
985.349	6193.91
985.519	6253.3
985.69	6236.92
985.86	6173.43
986.031	6118.14
986.201	6183.67
986.371	6515.44
986.542	6032.12
986.712	5681.92
986.882	6298.36
987.053	6222.58
987.223	5741.31
987.393	6058.74
987.563	6081.27
987.734	6376.18
987.904	6224.63
988.074	5870.33
988.244	6087.42
988.414	5780.22
988.585	5597.95
988.755	5942.01
988.925	5911.29
989.095	6310.65
989.265	5640.96
989.435	5774.08
989.605	5954.3
989.775	5970.68
989.945	5896.96
990.115	5507.84
990.285	5933.82
990.455	5755.65
990.625	5810.94
990.795	5411.59
990.965	5933.82
991.134	5446.4
991.304	5450.5
991.474	5491.46
991.644	5798.65
991.814	5927.67
991.984	5075.72
992.153	5339.91
992.323	5524.23
992.493	5587.71
992.662	5141.25
992.832	5473.03
993.002	5534.46
993.171	5473.03
993.341	5042.95
993.511	5354.24
993.68	5208.84
993.85	5495.55
994.019	4913.93
994.189	5014.28
994.358	5509.89
994.528	5247.75
994.697	5012.23
994.867	4885.26
995.036	5450.5
995.206	5176.07
995.375	4803.34
995.544	5004.04
995.714	5155.59
995.883	5008.14
996.052	5096.2
996.222	4807.44
996.391	5743.36
996.56	4862.73
996.73	4893.45
996.899	4729.61
997.068	5268.23
997.237	5006.09
997.406	4780.81
997.576	4533.01
997.745	4762.38
997.914	5022.47
998.083	4459.28
998.252	4686.61
998.421	4883.21
998.59	4772.62
998.759	4612.88
998.928	4279.06
999.097	5006.09
999.266	4659.98
999.435	4518.67
999.604	4125.46
999.773	5108.49
999.942	4662.03
1000.111	4293.4
1000.28	4246.29
1000.448	4637.45
1000.617	4379.41
1000.786	4416.27
1000.955	4266.77
1001.124	4631.31
1001.292	5231.37
1001.461	4176.66
1001.63	4064.02
1001.798	4780.81
1001.967	4737.81
1002.136	4035.35
1002.304	4111.13
1002.473	4410.13
1002.642	4561.68
1002.81	4066.07
1002.979	4012.82
1003.147	4475.67
1003.316	4829.96
1003.484	4115.22
1003.653	3900.19
1003.821	4754.19
1003.99	4399.89
1004.158	4039.45
1004.327	3896.09
1004.495	4391.7
1004.663	3943.19
1004.832	4041.5
1005	3732.25
1005.168	4494.1
1005.337	4133.65
1005.505	3654.43
1005.673	3971.86
1005.842	4064.02
1006.01	4166.42
1006.178	3474.21
1006.346	3658.53
1006.514	3957.53
1006.683	4299.54
1006.851	3631.9
1007.019	3762.97
1007.187	3713.82
1007.355	3382.05
1007.523	3357.47
1007.691	3504.93
1007.859	3658.53
1008.027	4029.21
1008.195	3515.17
1008.363	3220.26
1008.531	4010.78
1008.699	3633.95
1008.867	3341.09
1009.035	3494.69
1009.203	4023.06
1009.37	3529.5
1009.538	3455.78
1009.706	3738.4
1009.874	3631.9
1010.042	3490.59
1010.209	3113.77
1010.377	3347.23
1010.545	3742.49
1010.713	3601.18
1010.88	3138.34
1011.048	3277.6
1011.216	3273.51
1011.383	3771.16
1011.551	3173.16
1011.718	2962.22
1011.886	3738.4
1012.054	3445.54
1012.221	3019.56
1012.389	3013.42
1012.556	3281.7
1012.724	3672.86
1012.891	3222.31
1013.058	2951.98
1013.226	3447.58
1013.393	3365.67
1013.561	2779.95
1013.728	2732.84
1013.895	3394.34
1014.063	3398.43
1014.23	2726.7
1014.397	2777.9
1014.565	3308.32
1014.732	2954.02
1014.899	2829.1
1015.066	2671.4
1015.233	3009.32
1015.401	3076.9
1015.568	2913.06
1015.735	2896.68
1015.902	3042.09
1016.069	3230.5
1016.236	2687.79
1016.403	2659.12
1016.57	2652.97
1016.737	3048.23
1016.904	2689.84
1017.071	2530.09
1017.238	2790.19
1017.405	3093.29
1017.572	2605.87
1017.739	2687.79
1017.906	2997.03
1018.073	3089.19
1018.24	2526
1018.407	2532.14
1018.573	3140.39
1018.74	2691.88
1018.907	2337.59
1019.074	2145.08
1019.241	2925.35
1019.407	2722.6
1019.574	2362.16
1019.741	2280.24
1019.907	2636.59
1020.074	2781.99
1020.241	2095.93
1020.407	2362.16
1020.574	2773.8
1020.74	2755.37
1020.907	2194.23
1021.073	2210.61
1021.24	3083.05
1021.406	2908.97
1021.573	2095.93
1021.739	2202.42
1021.906	2718.51
1022.072	2556.72
1022.239	2079.54
1022.405	2183.99
1022.571	2439.98
1022.738	2222.9
1022.904	2034.49
1023.07	2192.18
1023.237	2564.91
1023.403	2716.46
1023.569	2149.17
1023.735	1979.19
1023.902	2485.04
1024.068	2534.19
1024.234	2001.72
1024.4	2052.92
1024.566	2394.93
1024.732	2532.14
1024.898	2077.49
1025.065	1778.49
1025.231	2433.84
1025.397	2276.15
1025.563	2040.63
1025.729	1825.59
1025.895	1895.22
1026.061	2032.44
1026.227	1833.79
1026.392	1882.94
1026.558	2323.25
1026.724	2286.39
1026.89	1995.57
1027.056	1821.5
1027.222	2233.14
1027.388	1936.18
1027.553	1897.27
1027.719	1694.52
1027.885	2511.66
1028.051	2317.11
1028.216	1647.42
1028.382	1745.72
1028.548	2280.24
1028.713	2052.92
1028.879	1641.28
1029.045	1827.64
1029.21	2358.07
1029.376	2304.82
1029.541	1807.16
1029.707	1667.9
1029.873	2153.27
1030.038	2257.71
1030.204	1794.87
1030.369	1663.8
1030.534	2161.46
1030.7	1864.5
1030.865	1758.01
1031.031	1551.17
1031.196	2112.31
1031.361	1899.32
1031.527	1602.36
1031.692	1598.27
1031.857	1442.62
1032.023	1919.8
1032.188	1370.94
1032.353	1604.41
1032.518	2247.48
1032.684	1944.38
1032.849	1452.86
1033.014	1520.45
1033.179	2091.83
1033.344	2075.45
1033.509	1581.89
1033.674	1530.69
1033.839	2028.34
1034.004	2014.01
1034.17	1360.7
1034.335	1428.29
1034.5	1710.91
1034.664	1635.13
1034.829	1471.29
1034.994	1575.74
1035.159	1815.35
1035.324	1889.08
1035.489	1329.99
1035.654	1323.84
1035.819	2050.87
1035.984	1682.24
1036.148	1471.29
1036.313	1416
1036.478	1862.46
1036.643	1620.8
1036.807	1325.89
1036.972	1145.67
1037.137	2124.6
1037.301	1717.05
1037.466	1190.72
1037.631	1387.33
1037.795	1946.42
1037.96	1721.15
1038.124	1428.29
1038.289	1176.39
1038.454	1848.12
1038.618	1628.99
1038.783	1254.21
1038.947	1321.79
1039.111	1674.04
1039.276	1446.72
1039.44	1149.76
1039.605	1678.14
1039.769	1409.86
1039.933	1594.17
1040.098	1348.42
1040.262	1508.16
1040.426	1651.52
1040.591	1704.76
1040.755	1108.8
1040.919	1135.43
1041.083	1571.65
1041.248	1375.04
1041.412	1112.9
1041.576	942.92
1041.74	1440.58
1041.904	1678.14
1042.068	1100.61
1042.232	1102.66
1042.397	1719.1
1042.561	1475.39
1042.725	871.24
1042.889	1209.15
1043.053	1549.12
1043.217	1454.91
1043.381	1207.11
1043.544	934.73
1043.708	1747.77
1043.872	1135.43
1044.036	875.34
1044.2	914.25
1044.364	1600.32
1044.528	1669.95
1044.691	3717.92
1044.855	813.9
1045.019	1663.8
1045.183	1487.68
1045.346	1061.7
1045.51	928.58
1045.674	1424.19
1045.837	1413.95
1046.001	1076.04
1046.165	961.35
1046.328	1796.92
1046.492	1391.42
1046.655	1157.96
1046.819	1028.93
1046.983	1069.89
1047.146	1413.95
1047.31	1033.03
1047.473	703.31
1047.636	1176.39
1047.8	1000.26
1047.963	908.1
1048.127	895.82
1048.29	1112.9
