Data from Hydrogel_Ink_Intensity_Test_1_USB4F045381__51__00051.txt Node

Date: Mon Jul 31 10:49:42 EDT 2023
User: mmckonesweet
Spectrometer: USB4F04538
Trigger mode: 4
Integration Time (sec): 9.000000E-1
Scans to average: 1
Electric dark correction enabled: true
Nonlinearity correction enabled: false
Boxcar width: 0
XAxis mode: Wavelengths
Number of Pixels in Spectrum: 3648
>>>>>Begin Spectral Data<<<<<
345.52	-1032.35
345.736	-1032.35
345.952	-1032.35
346.168	-1028.25
346.384	-1067.16
346.6	-121
346.816	-239.78
347.032	-268.45
347.248	227.15
347.464	-192.68
347.68	-159.91
347.896	126.8
348.112	409.42
348.328	-65.71
348.544	-34.99
348.76	12.12
348.975	307.02
349.191	-200.87
349.407	-147.62
349.623	46.93
349.839	-28.84
350.055	-110.76
350.27	38.74
350.486	192.34
350.702	292.69
350.918	225.11
351.133	-217.26
351.349	167.76
351.565	360.27
351.781	-256.17
351.996	53.08
352.212	259.92
352.428	-90.28
352.644	-159.91
352.859	-235.69
353.075	335.7
353.291	-145.58
353.506	-77.99
353.722	-202.92
353.938	-26.79
354.153	446.29
354.369	132.95
354.584	-213.16
354.8	292.69
355.016	-366.76
355.231	-139.43
355.447	-0.17
355.662	214.87
355.878	786.25
356.093	-301.22
356.309	42.84
356.524	-176.3
356.74	272.21
356.955	-200.87
357.171	-49.32
357.386	208.72
357.602	-159.91
357.817	-77.99
358.033	-153.77
358.248	399.18
358.464	171.86
358.679	-174.25
358.895	-282.79
359.11	40.79
359.325	335.7
359.541	311.12
359.756	42.84
359.972	-293.03
360.187	147.28
360.402	-131.24
360.618	-196.78
360.833	1021.77
361.048	137.04
361.264	-94.38
361.479	30.55
361.694	3.93
361.909	225.11
362.125	-276.65
362.34	-57.51
362.555	325.46
362.77	71.51
362.986	-290.98
363.201	-106.67
363.416	227.15
363.631	75.6
363.847	-176.3
364.062	-110.76
364.277	175.95
364.492	188.24
364.707	-155.82
364.922	-348.33
365.138	270.16
365.353	378.7
365.568	-198.82
365.783	-186.54
365.998	89.94
366.213	507.73
366.428	-149.67
366.643	87.89
366.858	288.59
367.073	313.17
367.288	-102.57
367.503	-223.4
367.718	118.61
367.933	352.08
368.148	-241.83
368.363	-34.99
368.578	5.97
368.793	421.71
369.008	-110.76
369.223	-217.26
369.438	227.15
369.653	417.61
369.868	-180.39
370.083	-217.26
370.298	75.6
370.513	386.9
370.728	128.85
370.943	-164.01
371.157	-139.43
371.372	577.36
371.587	-241.83
371.802	-245.93
372.017	112.47
372.232	456.53
372.446	-59.56
372.661	-237.74
372.876	282.45
373.091	245.59
373.306	-43.18
373.52	-164.01
373.735	-164.01
373.95	427.85
374.165	-32.94
374.379	-73.9
374.594	-102.57
374.809	173.91
375.023	61.27
375.238	-192.68
375.453	296.78
375.667	-237.74
375.882	-84.14
376.097	-241.83
376.311	87.89
376.526	24.4
376.741	-174.25
376.955	157.52
377.17	556.88
377.384	593.74
377.599	-0.17
377.813	-209.06
378.028	522.06
378.242	270.16
378.457	-77.99
378.672	-354.47
378.886	194.39
379.101	8.02
379.315	-266.41
379.53	-73.9
379.744	257.87
379.958	266.07
380.173	-104.62
380.387	-157.86
380.602	208.72
380.816	-30.89
381.031	-86.19
381.245	-8.36
381.459	261.97
381.674	2692.91
381.888	-207.02
382.103	157.52
382.317	-106.67
382.531	511.82
382.746	-24.75
382.96	-161.96
383.174	-53.42
383.388	556.88
383.603	106.32
383.817	-145.58
384.031	198.48
384.246	436.05
384.46	149.33
384.674	454.48
384.888	135
385.103	184.15
385.317	-186.54
385.531	-51.37
385.745	323.41
385.959	378.7
386.174	-71.85
386.388	-204.97
386.602	128.85
386.816	-10.41
387.03	3.93
387.244	-6.31
387.458	73.56
387.672	491.34
387.887	-172.2
388.101	-198.82
388.315	444.24
388.529	259.92
388.743	-159.91
388.957	-141.48
389.171	411.47
389.385	-108.71
389.599	-4.27
389.813	167.76
390.027	221.01
390.241	702.28
390.455	-12.46
390.669	-49.32
390.883	-24.75
391.097	603.98
391.311	73.56
391.525	-94.38
391.738	225.11
391.952	304.98
392.166	159.57
392.38	-71.85
392.594	378.7
392.808	427.85
393.022	40.79
393.236	-34.99
393.449	292.69
393.663	225.11
393.877	-166.06
394.091	18.26
394.305	53.08
394.518	-10.41
394.732	-114.86
394.946	89.94
395.16	536.4
395.373	221.01
395.587	-123.05
395.801	-90.28
396.015	339.79
396.228	421.71
396.442	-135.34
396.656	-235.69
396.869	423.76
397.083	532.3
397.297	102.23
397.51	-4.27
397.724	446.29
397.938	284.5
398.151	-190.63
398.365	-69.8
398.578	397.14
398.792	528.21
399.005	98.13
399.219	46.93
399.433	270.16
399.646	409.42
399.86	155.47
400.073	196.43
400.287	429.9
400.5	212.82
400.714	167.76
400.927	71.51
401.141	423.76
401.354	1224.51
401.567	315.22
401.781	-77.99
401.994	434
402.208	763.72
402.421	81.75
402.635	73.56
402.848	255.83
403.061	411.47
403.275	98.13
403.488	-73.9
403.701	558.92
403.915	364.37
404.128	155.47
404.341	3.93
404.555	354.13
404.768	231.25
404.981	163.67
405.195	-86.19
405.408	675.66
405.621	415.57
405.834	210.77
406.048	-49.32
406.261	581.45
406.474	640.84
406.687	-6.31
406.9	192.34
407.114	227.15
407.327	419.66
407.54	-139.43
407.753	-100.52
407.966	-8.36
408.179	431.95
408.392	53.08
408.605	22.36
408.819	378.7
409.032	382.8
409.245	22.36
409.458	323.41
409.671	397.14
409.884	497.49
410.097	-80.04
410.31	192.34
410.523	472.91
410.736	259.92
410.949	212.82
411.162	73.56
411.375	624.46
411.588	474.96
411.801	237.39
412.014	112.47
412.227	196.43
412.44	282.45
412.653	61.27
412.865	208.72
413.078	499.53
413.291	470.86
413.504	114.52
413.717	44.88
413.93	464.72
414.143	102.23
414.356	137.04
414.568	-43.18
414.781	548.68
414.994	431.95
415.207	135
415.42	124.76
415.632	571.21
415.845	812.87
416.058	3.93
416.271	-18.6
416.483	317.26
416.696	722.76
416.909	81.75
417.121	116.56
417.334	515.92
417.547	749.39
417.759	143.19
417.972	141.14
418.185	159.57
418.397	509.77
418.61	110.42
418.823	46.93
419.035	806.73
419.248	397.14
419.46	128.85
419.673	225.11
419.885	456.53
420.098	319.31
420.311	161.62
420.523	-55.47
420.736	593.74
420.948	356.18
421.161	141.14
421.373	44.88
421.586	495.44
421.798	210.77
422.01	-84.14
422.223	397.14
422.435	227.15
422.648	581.45
422.86	190.29
423.073	216.91
423.285	610.12
423.497	184.15
423.71	112.47
423.922	194.39
424.134	575.31
424.347	804.68
424.559	438.09
424.771	501.58
424.984	253.78
425.196	452.43
425.408	20.31
425.621	98.13
425.833	718.67
426.045	733
426.257	143.19
426.47	225.11
426.682	536.4
426.894	505.68
427.106	212.82
427.318	294.74
427.531	264.02
427.743	630.6
427.955	282.45
428.167	655.18
428.379	655.18
428.591	438.09
428.804	343.89
429.016	304.98
429.228	313.17
429.44	608.08
429.652	425.81
429.864	139.09
430.076	354.13
430.288	378.7
430.5	286.54
430.712	368.46
430.924	726.86
431.136	575.31
431.348	157.52
431.56	290.64
431.772	542.54
431.984	393.04
432.196	278.35
432.408	319.31
432.62	477.01
432.832	610.12
433.044	644.94
433.256	397.14
433.468	679.75
433.679	317.26
433.891	300.88
434.103	524.11
434.315	892.74
434.527	802.63
434.739	483.15
434.95	489.29
435.162	804.68
435.374	425.81
435.586	474.96
435.798	360.27
436.009	331.6
436.221	448.33
436.433	384.85
436.645	360.27
436.856	448.33
437.068	868.17
437.28	331.6
437.491	644.94
437.703	763.72
437.915	683.85
438.126	444.24
438.338	757.58
438.55	671.56
438.761	823.11
438.973	505.68
439.184	485.2
439.396	694.09
439.608	810.82
439.819	298.83
440.031	446.29
440.242	796.49
440.454	905.03
440.665	466.77
440.877	546.64
441.088	843.59
441.3	601.93
441.511	243.54
441.723	429.9
441.934	694.09
442.146	737.1
442.357	575.31
442.569	790.35
442.78	649.04
442.991	1115.97
443.203	814.92
443.414	296.78
443.626	1122.12
443.837	538.45
444.048	446.29
444.26	378.7
444.471	716.62
444.682	823.11
444.894	372.56
445.105	319.31
445.316	1029.96
445.528	900.94
445.739	595.79
445.95	618.32
446.161	735.05
446.373	1050.44
446.584	632.65
446.795	603.98
447.006	958.28
447.217	1259.33
447.429	395.09
447.64	569.16
447.851	1042.25
448.062	782.15
448.273	368.46
448.484	579.4
448.695	941.89
448.907	802.63
449.118	560.97
449.329	888.65
449.54	644.94
449.751	661.32
449.962	540.49
450.173	524.11
450.384	1169.22
450.595	1236.8
450.806	675.66
451.017	653.13
451.228	1171.27
451.439	1132.36
451.65	622.41
451.861	423.76
452.072	696.14
452.283	765.77
452.494	864.07
452.705	675.66
452.915	1269.57
453.126	1040.2
453.337	677.71
453.548	610.12
453.759	1142.6
453.97	1443.65
454.181	941.89
454.391	749.39
454.602	921.42
454.813	1158.98
455.024	884.55
455.235	810.82
455.445	1085.25
455.656	1103.68
455.867	839.5
456.078	689.99
456.288	827.21
456.499	1210.18
456.71	737.1
456.921	945.99
457.131	1093.44
457.342	1109.83
457.553	841.54
457.763	798.54
457.974	1181.51
458.184	1195.84
458.395	753.48
458.606	735.05
458.816	1466.17
459.027	1568.57
459.237	954.18
459.448	692.04
459.659	1478.46
459.869	1781.56
460.08	776.01
460.29	1109.83
460.501	1593.15
460.711	1089.35
460.922	855.88
461.132	960.33
461.343	1804.09
461.553	943.94
461.764	790.35
461.974	1101.64
462.184	1359.68
462.395	1326.91
462.605	1009.48
462.816	896.84
463.026	1322.82
463.236	1597.24
463.447	1122.12
463.657	976.71
463.867	1627.96
464.078	1320.77
464.288	1077.06
464.498	1085.25
464.709	1412.93
464.919	1306.43
465.129	1281.86
465.339	1134.4
465.55	1539.9
465.76	1582.91
465.97	1273.67
466.18	1197.89
466.391	1709.88
466.601	1539.9
466.811	1271.62
467.021	1101.64
467.231	1691.45
467.441	1709.88
467.651	1343.3
467.862	1044.29
468.072	1646.4
468.282	1847.1
468.492	1355.58
468.702	1490.75
468.912	1619.77
469.122	2115.38
469.332	1683.26
469.542	1331.01
469.752	1957.69
469.962	1767.23
470.172	1404.74
470.382	1468.22
470.592	2002.74
470.802	2076.47
471.012	1711.93
471.222	1529.66
471.432	2099
471.642	2117.43
471.852	1818.43
472.062	1515.33
472.272	1914.68
472.482	1808.19
472.691	1554.24
472.901	1568.57
473.111	1980.22
473.321	2709.29
473.531	1599.29
473.741	1865.53
473.95	2293.55
474.16	2365.23
474.37	2012.98
474.58	1840.95
474.79	2598.7
474.999	2443.06
475.209	1859.38
475.419	1943.35
475.628	2162.48
475.838	2567.98
476.048	2012.98
476.258	2029.37
476.467	2705.2
476.677	2322.23
476.886	2299.7
477.096	2268.98
477.306	2307.89
477.515	2717.48
477.725	2342.71
477.935	2338.61
478.144	2959.14
478.354	2422.58
478.563	2383.66
478.773	2426.67
478.982	2715.44
479.192	2991.91
479.401	2461.49
479.611	2346.8
479.82	2531.12
480.03	2916.14
480.239	2453.3
480.449	2531.12
480.658	3286.82
480.868	2930.47
481.077	2613.04
481.287	2727.72
481.496	3018.54
481.705	3393.31
481.915	3073.83
482.124	3055.4
482.333	3184.42
482.543	3376.93
482.752	2916.14
482.961	2899.75
483.171	3309.35
483.38	3120.93
483.589	3063.59
483.799	2940.71
484.008	3102.5
484.217	3383.07
484.426	3141.41
484.636	2977.58
484.845	3430.18
485.054	2953
485.263	3426.08
485.472	3143.46
485.682	3907.35
485.891	3432.22
486.1	3051.3
486.309	3174.18
486.518	3559.2
486.727	3850.01
486.936	3239.72
487.146	3452.7
487.355	4075.29
487.564	3432.22
487.773	3372.83
487.982	3477.28
488.191	3749.66
488.4	3825.43
488.609	3567.39
488.818	3626.78
489.027	4454.16
489.236	4284.18
489.445	3616.54
489.654	3571.49
489.863	4128.53
490.072	4067.1
490.281	4073.24
490.49	3788.57
490.698	4275.99
490.907	4357.91
491.116	4001.56
491.325	3813.15
491.534	4431.63
491.743	4280.08
491.952	4128.53
492.16	3827.48
492.369	4443.92
492.578	4552.46
492.787	4149.01
492.996	3925.79
493.204	4157.21
493.413	4775.69
493.622	3964.7
493.831	3907.35
494.039	4925.19
494.248	4130.58
494.457	4177.69
494.665	4075.29
494.874	4669.2
495.083	5013.26
495.291	4368.15
495.5	4380.43
495.709	4771.6
495.917	4835.08
496.126	4337.43
496.335	4359.95
496.543	4591.38
496.752	4726.54
496.96	4675.34
497.169	4341.52
497.377	4656.91
497.586	4962.06
497.794	4665.1
498.003	4304.66
498.211	4855.56
498.42	5054.22
498.628	4826.89
498.837	4587.28
499.045	5146.37
499.254	5037.83
499.462	4802.32
499.671	4607.76
499.879	5449.47
500.087	5181.19
500.296	4536.08
500.504	4677.39
500.713	5173
500.921	5715.71
501.129	4726.54
501.338	4810.51
501.546	5148.42
501.754	5254.92
501.962	4984.59
502.171	4796.17
502.379	5404.42
502.587	5717.76
502.795	5115.66
503.004	5052.17
503.212	5396.23
503.42	5564.16
503.628	4996.87
503.837	5230.34
504.045	5490.43
504.253	5881.6
504.461	5115.66
504.669	5046.02
504.877	5529.34
505.085	5814.01
505.294	5011.21
505.502	5238.53
505.71	5590.78
505.918	5771.01
506.126	5156.61
506.334	5117.7
506.542	5768.96
506.75	5570.3
506.958	5529.34
507.166	5406.47
507.374	5537.54
507.582	6293.24
507.79	5527.3
507.998	5453.57
508.206	5902.08
508.414	5783.29
508.622	5506.82
508.83	5469.95
509.037	6141.69
509.245	5668.61
509.453	5605.12
509.661	5418.75
509.869	5953.27
510.077	5816.06
510.285	5893.88
510.492	5297.92
510.7	6725.36
510.908	5797.63
511.116	5672.7
511.324	5603.07
511.531	5904.12
511.739	6029.05
511.947	6024.95
512.155	5990.14
512.362	5955.32
512.57	5725.95
512.778	5793.53
512.985	5527.3
513.193	6534.9
513.401	6614.77
513.608	6006.52
513.816	5883.64
514.024	6371.06
514.231	6495.99
514.439	5857.02
514.646	5848.83
514.854	6418.16
515.061	6479.6
515.269	6031.1
515.477	6123.26
515.684	6168.31
515.892	6559.47
516.099	5861.12
516.307	5936.89
516.514	6706.93
516.722	6805.23
516.929	6266.61
517.136	5953.27
517.344	6868.72
517.551	6481.65
517.759	6080.25
517.966	6287.09
518.173	6541.04
518.381	6426.36
518.588	6162.17
518.796	6131.45
519.003	6778.61
519.21	6616.82
519.418	6149.88
519.625	6543.09
519.832	6600.43
520.039	6682.35
520.247	6119.16
520.454	6469.36
520.661	6938.35
520.868	6878.96
521.076	6514.42
521.283	6438.64
521.49	7300.84
521.697	6930.16
521.904	6618.86
522.112	6631.15
522.319	7057.13
522.526	6815.47
522.733	6711.02
522.94	6651.63
523.147	7057.13
523.354	7007.98
523.561	6698.74
523.768	6815.47
523.975	7116.52
524.183	7223.02
524.39	6768.37
524.597	6690.54
524.804	6997.74
525.011	6967.02
525.218	6747.89
525.425	6833.9
525.632	7532.26
525.838	7143.14
526.045	6864.62
526.252	6887.15
526.459	8586.96
526.666	8034.01
526.873	6848.24
527.08	6944.49
527.287	7722.72
527.494	7440.1
527.701	6807.28
527.907	6979.31
528.114	7345.89
528.321	7354.09
528.528	7114.47
528.735	7196.39
528.941	7450.34
529.148	7124.71
529.355	7173.86
529.562	7177.96
529.768	7798.49
529.975	7233.25
530.182	7143.14
530.388	7202.54
530.595	7847.65
530.802	7280.36
531.008	7499.49
531.215	7354.09
531.422	8253.14
531.628	8425.17
531.835	7415.52
532.042	7640.8
532.248	7597.79
532.455	7755.49
532.661	7542.5
532.868	7352.04
533.074	7872.22
533.281	7974.62
533.487	7657.18
533.694	7655.14
533.9	7610.08
534.107	8023.77
534.313	7388.9
534.52	7499.49
534.726	8146.65
534.933	8449.75
535.139	7624.42
535.345	7511.78
535.552	8107.74
535.758	8152.79
535.965	7925.47
536.171	7696.1
536.377	8416.98
536.584	8445.65
536.79	7921.37
536.996	7900.89
537.203	8320.73
537.409	8312.53
537.615	7991
537.821	8025.82
538.028	8646.35
538.234	8406.74
538.44	7773.92
538.646	7929.56
538.853	8507.09
539.059	8300.25
539.265	8343.25
539.471	7900.89
539.677	8652.5
539.883	8300.25
540.09	8177.37
540.296	8589.01
540.502	8756.94
540.708	8386.26
540.914	8441.56
541.12	8232.66
541.326	8767.18
541.532	8632.02
541.738	8371.93
541.944	8412.88
542.15	8847.05
542.356	8527.57
542.562	8097.5
542.768	8503
542.974	9150.15
543.18	9252.55
543.386	8490.71
543.592	8273.62
543.798	9035.47
544.004	9082.57
544.21	8402.65
544.415	8715.98
544.621	8703.7
544.827	8988.36
545.033	8523.48
545.239	8883.92
545.445	8513.24
545.651	8922.83
545.856	8578.77
546.062	8912.59
546.268	8976.08
546.474	8920.78
546.679	8580.82
546.885	8711.89
547.091	8967.88
547.297	9311.94
547.502	8820.43
547.708	8650.45
547.914	8883.92
548.119	9023.18
548.325	8812.24
548.531	8697.55
548.736	9488.07
548.942	8859.34
549.147	8523.48
549.353	9033.42
549.559	9408.2
549.764	9113.29
549.97	8916.69
550.175	8974.03
550.381	9516.74
550.586	9043.66
550.792	8965.84
550.997	9012.94
551.203	9553.6
551.408	9479.88
551.614	9115.34
551.819	8937.16
552.025	9766.59
552.23	10063.55
552.435	8994.51
552.641	9428.68
552.846	9338.57
553.052	9758.4
553.257	9293.51
553.462	9453.25
553.668	9465.54
553.873	9680.58
554.078	9162.44
554.283	9299.66
554.489	9553.6
554.694	9993.92
554.899	9260.74
555.105	9449.16
555.31	9785.02
555.515	9989.82
555.72	9488.07
555.925	9481.92
556.131	9995.96
556.336	9688.77
556.541	9551.56
556.746	9510.6
556.951	10188.47
557.156	9940.67
557.361	9590.47
557.567	9588.42
557.772	10241.72
557.977	9754.3
558.182	9469.64
558.387	9561.8
558.592	9834.18
558.797	10389.17
559.002	9658.05
559.207	9907.9
559.412	9903.81
559.617	10256.06
559.822	9739.97
560.027	9703.11
560.232	10235.58
560.437	10333.88
560.642	9522.88
560.847	9701.06
561.051	10262.2
561.256	10088.12
561.461	9899.71
561.666	9971.39
561.871	10141.37
562.076	10213.05
562.281	9825.98
562.485	9715.39
562.69	10448.57
562.895	10340.02
563.1	9768.64
563.305	9707.2
563.509	10557.11
563.714	10778.29
563.919	10073.79
564.123	9940.67
564.328	10358.46
564.533	10563.25
564.737	10227.39
564.942	10075.84
565.147	10776.24
565.351	10829.49
565.556	10135.23
565.761	10288.82
565.965	10325.69
566.17	10256.06
566.374	10081.98
566.579	9948.86
566.784	10346.17
566.988	10385.08
567.193	9981.63
567.397	10067.64
567.602	10272.44
567.806	10391.22
568.011	10161.85
568.215	10329.78
568.42	10276.54
568.624	10405.56
568.828	10118.84
569.033	10278.58
569.237	10915.5
569.442	10815.15
569.646	9850.56
569.85	10376.89
570.055	10538.68
570.259	10841.78
570.463	10739.38
570.668	10563.25
570.872	10669.75
571.076	10956.46
571.281	10534.58
571.485	10440.37
571.689	10626.74
571.893	10921.65
572.098	10757.81
572.302	10536.63
572.506	10942.13
572.71	10905.26
572.914	10481.33
573.119	10518.2
573.323	11128.49
573.527	11013.81
573.731	10700.47
573.935	10759.86
574.139	10991.28
574.343	10749.62
574.547	10555.06
574.751	10796.72
574.955	11177.64
575.159	11222.7
575.364	10628.79
575.568	10618.55
575.772	11130.54
575.976	11234.99
576.18	10745.52
576.383	10561.2
576.587	11306.66
576.791	11038.38
576.995	10655.41
577.199	10737.33
577.403	11271.85
577.607	11490.98
577.811	10706.61
578.015	10915.5
578.219	11234.99
578.422	11292.33
578.626	10944.17
578.83	11273.9
579.034	11316.9
579.238	11191.98
579.442	10917.55
579.645	11392.68
579.849	11310.76
580.053	11441.83
580.257	11022
580.46	11114.16
580.664	11628.2
580.868	11364.01
581.071	11357.86
581.275	11335.34
581.479	11175.59
581.682	11669.16
581.886	11214.51
582.09	11286.19
582.293	11675.3
582.497	11759.27
582.7	11415.21
582.904	11382.44
583.107	11552.42
583.311	11771.55
583.515	11378.34
583.718	11306.66
583.922	11499.17
584.125	12021.41
584.329	11134.64
584.532	11472.55
584.735	11996.83
584.939	11593.38
585.142	11093.68
585.346	11425.45
585.549	11773.6
585.753	11499.17
585.956	11419.3
586.159	11775.65
586.363	12316.31
586.566	12076.7
586.769	11224.75
586.973	11538.09
587.176	11857.57
587.379	12099.23
587.582	12009.12
587.786	11824.8
587.989	12066.46
588.192	12517.01
588.395	11785.89
588.599	12123.8
588.802	12420.76
589.005	12142.24
589.208	11835.04
589.411	11865.76
589.615	12222.11
589.818	12441.24
590.021	11916.96
590.224	12002.97
590.427	12471.96
590.63	12351.13
590.833	11679.4
591.036	11804.32
591.239	12248.73
591.442	12002.97
591.645	12207.77
591.848	12050.08
592.051	12531.35
592.254	12359.32
592.457	12156.57
592.66	12037.79
592.863	12236.44
593.066	12549.78
593.269	12107.42
593.472	12117.66
593.675	12267.16
593.878	12607.12
594.081	12187.29
594.284	12015.26
594.486	12572.31
594.689	12547.73
594.892	12205.72
595.095	12056.22
595.298	12760.72
595.5	12676.76
595.703	12428.95
595.906	12299.93
596.109	12908.18
596.311	12799.63
596.514	12095.13
596.717	12336.79
596.92	13022.86
597.122	12762.77
597.325	12125.85
597.528	12369.56
597.73	13057.68
597.933	12693.14
598.136	12400.28
598.338	12166.81
598.541	12986
598.743	13112.97
598.946	12517.01
599.148	12508.82
599.351	12906.13
599.554	13029.01
599.756	12693.14
599.959	12615.32
600.161	13033.1
600.363	13561.48
600.566	12951.18
600.768	12658.32
600.971	13393.54
601.173	13065.87
601.376	12531.35
601.578	12613.27
601.78	13149.84
601.983	13495.94
602.185	12560.02
602.388	13010.57
602.59	13151.88
602.792	13035.15
602.995	12758.67
603.197	12574.36
603.399	13250.19
603.601	13127.31
603.804	12588.69
604.006	12652.18
604.208	13129.36
604.41	12670.61
604.613	12883.6
604.815	12818.07
605.017	13725.32
605.219	12842.64
605.421	13317.77
605.623	12795.54
605.826	13444.74
606.028	13418.12
606.23	12803.73
606.432	12867.22
606.634	13682.31
606.836	13545.09
607.038	12703.38
607.24	13092.49
607.442	13328.01
607.644	13242
607.846	13141.64
608.048	12828.31
608.25	13442.7
608.452	12883.6
608.654	12889.74
608.856	12660.37
609.058	13336.2
609.26	13299.34
609.462	13178.51
609.664	13287.05
609.866	13653.64
610.067	13581.96
610.269	13391.5
610.471	13008.53
610.673	13194.89
610.875	13565.57
611.077	12754.58
611.278	13067.92
611.48	13471.37
611.682	13772.42
611.884	13416.07
612.085	13098.64
612.287	13098.64
612.489	13465.22
612.69	13041.29
612.892	13438.6
613.094	13784.71
613.295	13295.24
613.497	13166.22
613.699	13086.35
613.9	13856.39
614.102	13649.54
614.304	13164.17
614.505	12852.88
614.707	13616.77
614.908	13463.18
615.11	12934.8
615.311	13051.53
615.513	13524.61
615.714	13592.2
615.916	13008.53
616.117	13301.39
616.319	13579.91
616.52	13741.7
616.722	13186.7
616.923	13121.17
617.124	13649.54
617.326	13465.22
617.527	13366.92
617.729	13672.07
617.93	13747.84
618.131	13913.73
618.333	13139.6
618.534	13534.85
618.735	13465.22
618.937	13897.35
619.138	13180.56
619.339	13155.98
619.54	13811.33
619.742	13471.37
619.943	13364.87
620.144	13407.88
620.345	13923.97
620.546	13762.18
620.748	13575.81
620.949	13151.88
621.15	13655.68
621.351	13667.97
621.552	13403.78
621.753	13037.2
621.954	13373.07
622.155	14112.38
622.356	13147.79
622.558	13504.14
622.759	13624.97
622.96	14177.92
623.161	13170.32
623.362	13444.74
623.563	13758.08
623.764	13559.43
623.965	13268.62
624.166	13715.08
624.366	13411.98
624.567	13856.39
624.768	13121.17
624.969	13397.64
625.17	13819.52
625.371	13801.09
625.572	13549.19
625.773	13362.83
625.973	13700.74
626.174	13842.05
626.375	13500.04
626.576	13575.81
626.777	14007.94
626.977	14093.95
627.178	13682.31
627.379	13536.9
627.58	13768.32
627.78	13624.97
627.981	13438.6
628.182	13852.29
628.382	14200.44
628.583	13395.59
628.784	13336.2
628.984	13538.95
629.185	14032.51
629.386	13899.39
629.586	13530.76
629.787	13495.94
629.987	14016.13
630.188	13829.76
630.388	13680.26
630.589	13592.2
630.79	14704.24
630.99	14044.8
631.191	13934.21
631.391	13856.39
631.591	14079.61
631.792	14317.18
631.992	13717.12
632.193	13944.45
632.393	14255.74
632.594	13749.89
632.794	13452.94
632.994	13749.89
633.195	13911.68
633.395	14220.92
633.595	13563.53
633.796	13840
633.996	13874.82
634.196	14106.24
634.397	13690.5
634.597	13774.47
634.797	13819.52
634.997	14364.28
635.198	14018.18
635.398	13786.75
635.598	14192.25
635.798	14360.19
635.998	14012.03
636.199	13758.08
636.399	14036.61
636.599	13704.84
636.799	13807.23
636.999	14052.99
637.199	14270.08
637.399	14585.46
637.599	13911.68
637.799	14026.37
637.999	14112.38
638.199	14378.62
638.399	13958.78
638.599	13700.74
638.799	14093.95
638.999	14362.23
639.199	14175.87
639.399	13938.3
639.599	14573.17
639.799	13891.2
639.999	13844.1
640.199	13885.06
640.399	14225.02
640.599	13975.17
640.799	14020.22
640.998	14261.88
641.198	14644.85
641.398	14274.17
641.598	13905.54
641.798	14184.06
641.997	15433.32
642.197	14366.33
642.397	14204.54
642.597	14042.75
642.796	14528.12
642.996	14777.97
643.196	14237.31
643.395	13794.95
643.595	14304.89
643.795	13780.61
643.994	14067.33
644.194	14157.44
644.394	14708.34
644.593	14411.39
644.793	14096
644.992	14282.36
645.192	14556.79
645.392	14032.51
645.591	14409.34
645.791	14052.99
645.99	14454.39
646.19	14622.33
646.389	14298.75
646.589	14214.78
646.788	14653.05
646.987	14521.98
647.187	14286.46
647.386	14341.75
647.586	14503.54
647.785	14909.04
647.984	14270.08
648.184	14540.41
648.383	14304.89
648.582	14433.91
648.782	14415.48
648.981	14530.17
649.18	14296.7
649.38	14657.14
649.579	14249.6
649.778	14401.15
649.977	14931.57
650.177	14761.59
650.376	14390.91
650.575	14157.44
650.774	14859.89
650.973	14691.96
651.173	13997.7
651.372	14452.34
651.571	14605.94
651.77	15076.98
651.969	14495.35
652.168	14646.9
652.367	14317.18
652.566	14839.41
652.765	14454.39
652.964	14876.27
653.163	15265.39
653.362	14737.01
653.561	14362.23
653.76	14685.81
653.959	14859.89
654.158	14820.98
654.357	14620.28
654.556	14370.43
654.755	14839.41
654.954	14927.47
655.153	14296.7
655.352	14628.47
655.551	15062.64
655.749	14857.84
655.948	14648.95
656.147	14540.41
656.346	14839.41
656.545	14593.65
656.743	14542.46
656.942	14532.22
657.141	14704.24
657.34	14759.54
657.538	14513.78
657.737	14679.67
657.936	14782.07
658.135	14954.1
658.333	14351.99
658.532	14874.23
658.731	15220.33
658.929	15130.22
659.128	14894.71
659.326	14579.32
659.525	15187.57
659.724	14818.93
659.922	14354.04
660.121	14585.46
660.319	15003.25
660.518	14530.17
660.716	14446.2
660.915	14607.99
661.113	15335.02
661.312	14354.04
661.51	14941.81
661.709	14583.41
661.907	15261.29
662.105	15326.83
662.304	14839.41
662.502	14868.08
662.701	15423.08
662.899	14671.48
663.097	15029.87
663.296	14579.32
663.494	15201.9
663.692	15335.02
663.891	14614.13
664.089	14435.96
664.287	15021.68
664.485	15072.88
664.684	14882.42
664.882	14607.99
665.08	14884.47
665.278	15156.85
665.476	14372.47
665.675	15097.45
665.873	15312.49
666.071	15253.1
666.269	14446.2
666.467	14816.88
666.665	15087.22
666.863	14528.12
667.061	14882.42
667.259	14556.79
667.457	14929.52
667.655	15136.37
667.853	14644.85
668.051	14743.16
668.249	14622.33
668.447	15054.45
668.645	14802.55
668.843	15089.26
669.041	15105.65
669.239	14769.78
669.437	14825.08
669.635	15111.79
669.833	14794.36
670.031	15251.05
670.229	14554.74
670.426	14923.38
670.624	15040.11
670.822	14505.59
671.02	14694.01
671.218	14726.77
671.415	14993.01
671.613	14929.52
671.811	14947.95
672.009	14624.37
672.206	15083.12
672.404	15234.67
672.602	14970.48
672.799	14825.08
672.997	15036.02
673.195	15253.1
673.392	14790.26
673.59	14694.01
673.788	14833.27
673.985	14378.62
674.183	14761.59
674.38	14659.19
674.578	15181.42
674.775	14487.16
674.973	14298.75
675.17	14501.5
675.368	15318.64
675.565	15062.64
675.763	14554.74
675.96	14534.26
676.158	15187.57
676.355	14560.89
676.553	14630.52
676.75	14532.22
676.947	14843.51
677.145	14470.78
677.342	14544.5
677.539	14569.08
677.737	14974.58
677.934	15162.99
678.131	14726.77
678.329	14587.51
678.526	15279.72
678.723	14990.96
678.92	14679.67
679.118	14474.87
679.315	14661.24
679.512	15005.3
679.709	14573.17
679.906	14708.34
680.104	15228.52
680.301	14765.68
680.498	14317.18
680.695	14382.71
680.892	14448.25
681.089	14610.04
681.286	14374.52
681.483	14204.54
681.68	14950
681.877	14962.29
682.075	14577.27
682.272	14624.37
682.469	14536.31
682.665	14573.17
682.862	14130.81
683.059	14261.88
683.256	14675.57
683.453	14728.82
683.65	14464.63
683.847	14564.98
684.044	14384.76
684.241	14630.52
684.438	14628.47
684.635	14370.43
684.831	15302.25
685.028	15165.04
685.225	14075.52
685.422	14485.11
685.619	14722.68
685.815	14714.48
686.012	14325.37
686.209	14458.49
686.405	14235.26
686.602	14677.62
686.799	14214.78
686.996	14173.82
687.192	14382.71
687.389	15134.32
687.586	14173.82
687.782	14159.49
687.979	15036.02
688.175	14714.48
688.372	14218.88
688.568	14220.92
688.765	14259.84
688.962	14741.11
689.158	14343.8
689.355	14204.54
689.551	14659.19
689.748	14253.69
689.944	14194.3
690.14	14034.56
690.337	14421.63
690.533	14259.84
690.73	14415.48
690.926	14253.69
691.123	14528.12
691.319	14450.3
691.515	13907.59
691.712	14216.83
691.908	14681.72
692.104	14259.84
692.301	14169.73
692.497	13962.88
692.693	14448.25
692.889	14564.98
693.086	14153.34
693.282	13710.98
693.478	14175.87
693.674	14741.11
693.87	14044.8
694.067	13897.35
694.263	14302.84
694.459	14288.51
694.655	14165.63
694.851	14196.35
695.047	14366.33
695.243	14280.32
695.439	14024.32
695.635	14175.87
695.831	14548.6
696.027	14278.27
696.224	13829.76
696.42	14261.88
696.615	14507.64
696.811	14292.6
697.007	13817.47
697.203	13917.82
697.399	14073.47
697.595	14321.27
697.791	14089.85
697.987	14108.29
698.183	13672.07
698.379	13780.61
698.575	14044.8
698.77	13923.97
698.966	14167.68
699.162	14579.32
699.358	13973.12
699.554	13641.35
699.749	14263.93
699.945	14345.85
700.141	13833.86
700.337	13866.63
700.532	13979.26
700.728	13874.82
700.924	13565.57
701.119	13624.97
701.315	14091.9
701.511	14085.76
701.706	13860.48
701.902	13526.66
702.097	13856.39
702.293	14177.92
702.489	13796.99
702.684	13717.12
702.88	13948.54
703.075	13723.27
703.271	13579.91
703.466	13610.63
703.662	13870.72
703.857	14159.49
704.053	13923.97
704.248	13739.65
704.443	13969.02
704.639	14184.06
704.834	13768.32
705.03	13559.43
705.225	13966.98
705.42	14308.99
705.616	13710.98
705.811	13600.39
706.006	13819.52
706.202	13694.6
706.397	13684.36
706.592	13303.43
706.787	14192.25
706.983	13766.28
707.178	14014.08
707.373	13790.85
707.568	14042.75
707.763	14085.76
707.959	13588.1
708.154	13710.98
708.349	13866.63
708.544	13946.5
708.739	13979.26
708.934	13198.99
709.129	13889.15
709.324	13911.68
709.519	13481.61
709.714	13414.02
709.909	14225.02
710.104	13792.9
710.299	13489.8
710.494	13409.93
710.689	13997.7
710.884	13526.66
711.079	13567.62
711.274	13860.48
711.469	14038.66
711.664	13665.92
711.859	13203.08
712.054	13647.49
712.249	13497.99
712.443	13817.47
712.638	13416.07
712.833	13270.67
713.028	13733.51
713.223	13495.94
713.417	13475.46
713.612	13463.18
713.807	13899.39
714.002	14298.75
714.196	13694.6
714.391	13350.54
714.586	13815.43
714.78	13819.52
714.975	13340.3
715.17	13299.34
715.364	13561.48
715.559	13842.05
715.754	13006.48
715.948	13244.04
716.143	14014.08
716.337	13530.76
716.532	13581.96
716.726	13373.07
716.921	13764.23
717.115	13835.91
717.31	13266.57
717.504	13950.59
717.699	13289.1
717.893	13467.27
718.088	13014.67
718.282	13325.96
718.476	13371.02
718.671	13782.66
718.865	13172.36
719.059	13297.29
719.254	13149.84
719.448	13803.14
719.642	14550.65
719.837	12746.39
720.031	13708.93
720.225	13555.33
720.419	13184.65
720.614	13014.67
720.808	13561.48
721.002	13186.7
721.196	12910.22
721.39	13039.25
721.585	13559.43
721.779	13108.88
721.973	12844.69
722.167	12869.26
722.361	13229.71
722.555	13358.73
722.749	12730
722.943	13117.07
723.137	12881.55
723.331	13268.62
723.525	12777.11
723.719	12967.57
723.913	13411.98
724.107	13444.74
724.301	12897.94
724.495	12885.65
724.689	13588.1
724.883	13194.89
725.077	12945.04
725.271	12809.87
725.465	13205.13
725.659	12859.03
725.853	12889.74
726.046	12699.28
726.24	12541.59
726.434	13151.88
726.628	12750.48
726.822	13037.2
727.015	13352.59
727.209	13305.48
727.403	12973.71
727.596	12746.39
727.79	13307.53
727.984	13168.27
728.177	12906.13
728.371	12822.16
728.565	13270.67
728.758	12863.12
728.952	12920.46
729.146	12758.67
729.339	13573.77
729.533	13065.87
729.726	12578.45
729.92	12840.59
730.113	13221.52
730.307	13342.35
730.5	12942.99
730.694	12799.63
730.887	12840.59
731.081	13209.23
731.274	12869.26
731.468	12971.66
731.661	12934.8
731.854	12947.09
732.048	12856.98
732.241	12875.41
732.435	13072.01
732.628	13295.24
732.821	12609.17
733.014	12760.72
733.208	12910.22
733.401	13416.07
733.594	12854.93
733.788	12744.34
733.981	13272.71
734.174	13313.67
734.367	12508.82
734.56	13022.86
734.754	13301.39
734.947	13078.16
735.14	12867.22
735.333	13037.2
735.526	13256.33
735.719	12863.12
735.912	12799.63
736.105	12703.38
736.298	13006.48
736.491	13004.43
736.684	12643.99
736.877	12629.65
737.07	12951.18
737.263	13254.28
737.456	12703.38
737.649	12508.82
737.842	12873.36
738.035	12938.9
738.228	12840.59
738.421	12949.14
738.614	13203.08
738.807	13256.33
739	12205.72
739.192	12514.97
739.385	12777.11
739.578	13155.98
739.771	12973.71
739.964	12627.6
740.156	13033.1
740.349	12684.95
740.542	12633.75
740.735	12412.57
740.927	12572.31
741.12	12861.07
741.313	12394.14
741.505	12777.11
741.698	12754.58
741.891	12949.14
742.083	12623.51
742.276	12654.23
742.468	13010.57
742.661	12619.41
742.854	12660.37
743.046	12734.1
743.239	13334.15
743.431	12805.78
743.624	12375.7
743.816	12455.58
744.009	12764.82
744.201	12830.35
744.393	12525.21
744.586	12545.69
744.778	13061.77
744.971	12783.25
745.163	12551.83
745.355	12519.06
745.548	12689.04
745.74	12304.03
745.932	12310.17
746.125	12299.93
746.317	13289.1
746.509	12615.32
746.702	12529.3
746.894	12682.9
747.086	12623.51
747.278	12895.89
747.471	12670.61
747.663	12517.01
747.855	12725.91
748.047	13020.81
748.239	12471.96
748.431	12246.68
748.623	13110.93
748.815	13078.16
749.008	12295.83
749.2	12531.35
749.392	12623.51
749.584	12873.36
749.776	12500.63
749.968	12420.76
750.16	13131.4
750.352	12697.24
750.544	12461.72
750.736	12347.03
750.928	12811.92
751.12	12551.83
751.311	12379.8
751.503	12488.34
751.695	12531.35
751.887	12617.36
752.079	12150.43
752.271	12342.94
752.463	13274.76
752.654	12674.71
752.846	12248.73
753.038	12338.84
753.23	12293.79
753.421	12703.38
753.613	12140.19
753.805	12629.65
753.997	12492.44
754.188	12820.11
754.38	11955.87
754.572	12211.87
754.763	12433.05
754.955	12529.3
755.146	12095.13
755.338	12201.63
755.53	12582.55
755.721	12410.52
755.913	12025.5
756.104	11898.53
756.296	12590.74
756.487	12420.76
756.679	12066.46
756.87	11871.9
757.062	12025.5
757.253	12521.11
757.445	11982.49
757.636	11953.82
757.827	12189.34
758.019	12783.25
758.21	11927.2
758.401	11744.93
758.593	12693.14
758.784	12658.32
758.975	11447.97
759.167	11628.2
759.358	12172.96
759.549	12465.82
759.74	12064.41
759.932	11988.64
760.123	12416.66
760.314	12078.75
760.505	12015.26
760.696	11726.5
760.888	12705.43
761.079	11816.61
761.27	11681.44
761.461	11650.72
761.652	12373.66
761.843	11810.47
762.034	11787.94
762.225	11878.05
762.416	11697.83
762.607	12013.21
762.798	11656.87
762.989	11611.81
763.18	12758.67
763.371	11642.53
763.562	11509.41
763.753	11755.17
763.944	12209.82
764.135	12068.51
764.326	11642.53
764.517	11525.8
764.708	11689.63
764.899	11894.43
765.089	11345.58
765.28	11423.4
765.471	11775.65
765.662	11992.73
765.853	11622.05
766.043	11241.13
766.234	12011.17
766.425	11679.4
766.615	11398.82
766.806	11222.7
766.997	12177.05
767.187	11533.99
767.378	11359.91
767.569	11151.02
767.759	11650.72
767.95	11751.07
768.141	11579.04
768.331	11368.1
768.522	11351.72
768.712	11921.06
768.903	11310.76
769.093	11245.23
769.284	11927.2
769.474	11466.41
769.665	11130.54
769.855	11034.28
770.046	11796.13
770.236	11255.47
770.426	11505.32
770.617	10938.03
770.807	11382.44
770.998	11167.4
771.188	11286.19
771.378	10972.85
771.569	11587.24
771.759	11611.81
771.949	11058.86
772.139	10933.93
772.33	11038.38
772.52	11546.28
772.71	10921.65
772.9	10884.78
773.09	11560.61
773.281	11533.99
773.471	10976.94
773.661	10833.58
773.851	11255.47
774.041	11009.71
774.231	10890.93
774.421	10993.33
774.611	11296.42
774.802	11054.76
774.992	10694.32
775.182	10688.18
775.372	10985.13
775.562	11378.34
775.752	10735.28
775.942	10714.8
776.131	11433.64
776.321	11331.24
776.511	10727.09
776.701	10718.9
776.891	11259.56
777.081	10583.73
777.271	10653.36
777.461	10706.61
777.651	10954.41
777.84	11173.55
778.03	10733.23
778.22	10507.96
778.41	11316.9
778.599	10770.1
778.789	10657.46
778.979	10608.31
779.169	10645.17
779.358	10897.07
779.548	10901.17
779.738	10356.41
779.927	10890.93
780.117	10555.06
780.307	10542.77
780.496	10131.13
780.686	10722.99
780.875	11189.93
781.065	10538.68
781.254	10426.04
781.444	10784.43
781.633	10245.82
781.823	10376.89
782.012	10243.77
782.202	10491.57
782.391	10710.71
782.581	10272.44
782.77	10694.32
782.96	10845.87
783.149	10440.37
783.338	10096.32
783.528	10045.12
783.717	10538.68
783.906	10940.08
784.096	10229.43
784.285	10190.52
784.474	10510
784.663	10133.18
784.853	9983.68
785.042	10196.67
785.231	10438.33
785.42	10561.2
785.61	10063.55
785.799	10026.68
785.988	10202.81
786.177	10354.36
786.366	9991.87
786.555	10276.54
786.744	10544.82
786.933	10282.68
787.122	9991.87
787.312	9897.66
787.501	10155.71
787.69	10503.86
787.879	10106.56
788.068	9971.39
788.257	9848.51
788.445	10088.12
788.634	9938.62
788.823	9785.02
789.012	10759.86
789.201	10405.56
789.39	9961.15
789.579	9811.65
789.768	10167.99
789.957	10057.4
790.145	9881.28
790.334	9531.08
790.523	10215.1
790.712	10049.21
790.9	9926.33
791.089	9651.91
791.278	10219.19
791.467	9903.81
791.655	9879.23
791.844	10014.4
792.033	9510.6
792.221	9735.87
792.41	9615.04
792.599	9531.08
792.787	9998.01
792.976	10170.04
793.164	9449.16
793.353	9496.26
793.541	9995.96
793.73	9699.01
793.918	9506.5
794.107	9580.23
794.295	9871.04
794.484	10002.11
794.672	9533.12
794.861	9555.65
795.049	9815.74
795.238	10153.66
795.426	9514.69
795.614	9514.69
795.803	9729.73
795.991	10206.91
796.179	9653.95
796.368	9354.95
796.556	10223.29
796.744	9334.47
796.932	9428.68
797.121	9285.32
797.309	9703.11
797.497	9815.74
797.685	9576.13
797.874	9408.2
798.062	9465.54
798.25	9955.01
798.438	9440.97
798.626	9326.28
798.814	9801.41
799.002	10413.75
799.19	9699.01
799.378	9463.49
799.566	9952.96
799.755	10073.79
799.943	9576.13
800.131	9330.37
800.318	9844.42
800.506	9762.5
800.694	9201.35
800.882	9293.51
801.07	10008.25
801.258	9443.01
801.446	9486.02
801.634	9440.97
801.822	9606.85
802.01	9760.45
802.197	9492.16
802.385	9467.59
802.573	9627.33
802.761	9483.97
802.949	9686.72
803.136	9387.72
803.324	10079.93
803.512	9858.75
803.699	9373.38
803.887	9205.45
804.075	10114.75
804.262	9559.75
804.45	9334.47
804.638	9563.84
804.825	9627.33
805.013	9518.79
805.201	9789.12
805.388	9367.24
805.576	9746.11
805.763	10305.21
805.951	9371.33
806.138	9684.67
806.326	10254.01
806.513	9789.12
806.701	9639.62
806.888	9367.24
807.075	9803.46
807.263	10237.63
807.45	9305.8
807.638	9723.58
807.825	10135.23
808.012	9977.53
808.2	9592.51
808.387	9776.83
808.574	9950.91
808.761	10167.99
808.949	9518.79
809.136	9688.77
809.323	9567.94
809.51	9852.61
809.698	9983.68
809.885	9488.07
810.072	9832.13
810.259	10170.04
810.446	9633.47
810.633	9680.58
810.82	10129.08
811.008	10274.49
811.195	9883.33
811.382	9705.15
811.569	10118.84
811.756	9670.34
811.943	9746.11
812.13	9690.82
812.317	9766.59
812.504	9965.25
812.691	9785.02
812.878	9670.34
813.064	10129.08
813.251	10041.02
813.438	9621.19
813.625	9631.43
813.812	9805.5
813.999	10026.68
814.186	9795.26
814.372	9774.78
814.559	10055.36
814.746	10131.13
814.933	9615.04
815.12	9834.18
815.306	9678.53
815.493	9641.67
815.68	9477.83
815.866	9848.51
816.053	10161.85
816.24	10284.73
816.426	9516.74
816.613	9508.55
816.799	9891.52
816.986	10378.93
817.173	9488.07
817.359	9432.77
817.546	9686.72
817.732	9219.78
817.919	9383.62
818.105	9588.42
818.292	9692.87
818.478	9963.2
818.665	9584.32
818.851	9518.79
819.037	10393.27
819.224	9842.37
819.41	9377.48
819.597	9549.51
819.783	10354.36
819.969	10018.49
820.156	9424.58
820.342	9490.12
820.528	10510
820.714	10000.06
820.901	9866.94
821.087	9440.97
821.273	10030.78
821.459	9705.15
821.646	9400.01
821.832	9617.09
822.018	9772.74
822.204	9791.17
822.39	9217.74
822.576	9262.79
822.762	9787.07
822.948	9711.3
823.134	9696.96
823.32	9289.42
823.507	9350.85
823.693	9668.29
823.879	9758.4
824.065	9457.35
824.25	9774.78
824.436	9539.27
824.622	9336.52
824.808	9326.28
824.994	9428.68
825.18	9352.9
825.366	9092.81
825.552	9215.69
825.738	9418.44
825.923	9715.39
826.109	9483.97
826.295	9019.08
826.481	9436.87
826.667	9438.92
826.852	9371.33
827.038	9113.29
827.224	9553.6
827.409	10137.27
827.595	9023.18
827.781	9592.51
827.966	9674.43
828.152	9752.26
828.338	9268.94
828.523	8904.4
828.709	9217.74
828.894	9768.64
829.08	9187.02
829.266	9127.63
829.451	9291.46
829.637	9555.65
829.822	9092.81
830.008	9094.86
830.193	9645.76
830.378	9711.3
830.564	9223.88
830.749	8820.43
830.935	9461.44
831.12	9539.27
831.305	8888.01
831.491	9170.63
831.676	9074.38
831.861	9393.86
832.047	8888.01
832.232	8627.92
832.417	9531.08
832.602	9187.02
832.788	8920.78
832.973	9027.28
833.158	9084.62
833.343	9189.07
833.528	9184.97
833.714	9037.52
833.899	9350.85
834.084	9520.84
834.269	9209.54
834.454	8726.22
834.639	9326.28
834.824	8947.4
835.009	8900.3
835.194	9021.13
835.379	9244.36
835.564	9461.44
835.749	8971.98
835.934	8625.87
836.119	9123.53
836.304	8976.08
836.489	8613.59
836.674	8967.88
836.859	8736.46
837.044	9313.99
837.228	8742.61
837.413	8652.5
837.598	9107.15
837.783	9189.07
837.968	8617.68
838.152	8433.36
838.337	8490.71
838.522	9068.23
838.707	9184.97
838.891	8781.52
839.076	8863.44
839.261	9301.7
839.445	8658.64
839.63	8552.15
839.815	9230.02
839.999	8650.45
840.184	8494.8
840.368	8498.9
840.553	8879.82
840.737	8875.73
840.922	8335.06
841.106	8384.21
841.291	8425.17
841.475	8615.63
841.66	8527.57
841.844	8359.64
842.029	9393.86
842.213	8353.49
842.397	8236.76
842.582	8165.08
842.766	8924.88
842.951	8668.88
843.135	8410.84
843.319	8527.57
843.504	8523.48
843.688	8832.72
843.872	8074.97
844.056	8283.86
844.241	8670.93
844.425	8490.71
844.609	8507.09
844.793	8271.58
844.977	8625.87
845.161	8599.25
845.346	8101.59
845.53	8193.75
845.714	8488.66
845.898	8632.02
846.082	8107.74
846.266	8154.84
846.45	8449.75
846.634	8433.36
846.818	8056.54
847.002	8408.79
847.186	8433.36
847.37	8228.57
847.554	7976.67
847.738	8113.88
847.922	8470.23
848.106	8531.67
848.29	8046.3
848.473	8140.51
848.657	8546
848.841	8425.17
849.025	8228.57
849.209	7927.52
849.392	8335.06
849.576	8425.17
849.76	7618.27
849.944	8183.51
850.127	8679.12
850.311	7804.64
850.495	7759.58
850.678	7728.86
850.862	8607.44
851.046	8527.57
851.229	8359.64
851.413	7821.02
851.596	8298.2
851.78	8021.72
851.964	8163.03
852.147	8025.82
852.331	9006.8
852.514	8380.12
852.698	7907.04
852.881	7681.76
853.065	8425.17
853.248	8101.59
853.431	8003.29
853.615	7866.08
853.798	8703.7
853.982	8181.46
854.165	8019.67
854.348	7823.07
854.532	7782.11
854.715	7810.78
854.898	7872.22
855.081	7735.01
855.265	8177.37
855.448	8416.98
855.631	7491.3
855.814	7732.96
855.997	8077.02
856.181	7831.26
856.364	7589.6
856.547	7583.46
856.73	7988.96
856.913	7704.29
857.096	7577.31
857.279	7728.86
857.462	7708.38
857.645	7876.32
857.828	7675.62
858.011	7761.63
858.194	7663.33
858.377	8038.11
858.56	7331.56
858.743	7540.45
858.926	7587.55
859.109	7821.02
859.292	7425.76
859.475	7206.63
859.658	8115.93
859.841	7765.73
860.023	7352.04
860.206	7349.99
860.389	7669.47
860.572	8085.21
860.755	7266.02
860.937	7347.94
861.12	7491.3
861.303	7597.79
861.486	7419.62
861.668	7405.28
861.851	7663.33
862.034	7608.03
862.216	7407.33
862.399	7143.14
862.581	7640.8
862.764	7794.4
862.947	7204.58
863.129	7165.67
863.312	7102.18
863.494	7913.18
863.677	7360.23
863.859	6924.01
864.042	7374.56
864.224	7663.33
864.406	7120.62
864.589	6936.3
864.771	7458.53
864.954	7122.66
865.136	6928.11
865.318	6831.85
865.501	7595.75
865.683	7114.47
865.865	7007.98
866.048	7012.07
866.23	7300.84
866.412	7161.58
866.594	6881
866.777	7024.36
866.959	7335.65
867.141	7046.89
867.323	7180.01
867.505	7171.82
867.687	7235.3
867.869	7266.02
868.052	6899.44
868.234	6749.93
868.416	7290.6
868.598	7274.21
868.78	7020.27
868.962	7030.51
869.144	7565.03
869.326	7372.52
869.508	6960.88
869.69	6790.89
869.872	7059.18
870.054	7329.51
870.236	6749.93
870.417	6844.14
870.599	6989.55
870.781	7347.94
870.963	6893.29
871.145	6840.04
871.327	6928.11
871.508	7407.33
871.69	6774.51
871.872	6780.65
872.054	7110.38
872.235	7124.71
872.417	6881
872.599	6637.3
872.78	7401.19
872.962	7175.91
873.144	6520.56
873.325	6862.57
873.507	7454.44
873.689	7130.86
873.87	6590.19
874.052	6930.16
874.233	6751.98
874.415	7302.89
874.596	6768.37
874.778	6764.27
874.959	7118.57
875.141	7161.58
875.322	6758.13
875.503	6618.86
875.685	7247.59
875.866	6672.11
876.048	6692.59
876.229	6745.84
876.41	6971.11
876.592	7225.06
876.773	6829.81
876.954	6506.23
877.136	7393
877.317	6930.16
877.498	6508.27
877.679	6686.45
877.86	7231.21
878.042	6885.1
878.223	6682.35
878.404	7018.22
878.585	7286.5
878.766	7442.15
878.947	7126.76
879.128	7093.99
879.309	7358.18
879.49	7282.41
879.672	6985.45
879.853	6921.96
880.034	7139.05
880.215	7114.47
880.396	6827.76
880.576	6954.73
880.757	6905.58
880.938	7474.92
881.119	6848.24
881.3	6874.86
881.481	7077.61
881.662	8253.14
881.843	6881
882.023	6887.15
882.204	7200.49
882.385	7153.38
882.566	6874.86
882.747	6856.43
882.927	7245.54
883.108	7294.69
883.289	6913.77
883.469	7104.23
883.65	7208.68
883.831	7358.18
884.011	7184.1
884.192	7169.77
884.373	7491.3
884.553	7630.56
884.734	7380.71
884.914	7558.88
885.095	8040.15
885.275	7888.6
885.456	7444.2
885.636	7093.99
885.817	7446.24
885.997	7116.52
886.178	7134.95
886.358	7356.13
886.538	7519.97
886.719	8294.1
886.899	6999.79
887.08	7290.6
887.26	7642.85
887.44	7044.84
887.621	7001.83
887.801	7276.26
887.981	7991
888.161	7393
888.342	7245.54
888.522	7284.45
888.702	7692
888.882	7847.65
889.062	7288.55
889.242	6962.92
889.423	7681.76
889.603	7712.48
889.783	7399.14
889.963	7206.63
890.143	7472.87
890.323	7769.82
890.503	7192.3
890.683	7329.51
890.863	7583.46
891.043	7710.43
891.223	7253.73
891.403	7470.82
891.583	7415.52
891.763	7358.18
891.943	7347.94
892.122	7370.47
892.302	7659.23
892.482	7659.23
892.662	7436
892.842	7268.07
893.022	7515.87
893.201	7237.35
893.381	7335.65
893.561	7118.57
893.741	7554.79
893.92	7814.88
894.1	7335.65
894.28	7290.6
894.459	7534.31
894.639	7558.88
894.819	7130.86
894.998	7360.23
895.178	7587.55
895.357	7610.08
895.537	7401.19
895.716	6893.29
895.896	7364.32
896.075	7765.73
896.255	7237.35
896.434	6825.71
896.614	7575.27
896.793	7708.38
896.973	7319.27
897.152	7233.25
897.331	7489.25
897.511	7575.27
897.69	7030.51
897.87	7108.33
898.049	7380.71
898.228	7124.71
898.407	7241.45
898.587	7198.44
898.766	7075.56
898.945	7589.6
899.124	7171.82
899.304	7018.22
899.483	7411.43
899.662	7794.4
899.841	6835.95
900.02	6952.68
900.199	7393
900.378	7145.19
900.557	6698.74
900.737	6799.09
900.916	7241.45
901.095	7329.51
901.274	6962.92
901.453	6565.62
901.632	6729.45
901.811	6878.96
901.989	6586.1
902.168	6715.12
902.347	7188.2
902.526	6819.57
902.705	6725.36
902.884	6883.05
903.063	7257.83
903.242	7198.44
903.42	6467.31
903.599	6743.79
903.778	6932.2
903.957	7208.68
904.135	6788.85
904.314	6573.81
904.493	6907.63
904.672	6768.37
904.85	6262.52
905.029	6311.67
905.207	6643.44
905.386	7462.63
905.565	6158.07
905.743	6289.14
905.922	6289.14
906.1	6754.03
906.279	6131.45
906.457	6074.1
906.636	6268.66
906.814	6407.92
906.993	6162.17
907.171	5975.8
907.35	6434.55
907.528	6467.31
907.707	6266.61
907.885	5830.4
908.063	6584.05
908.242	6188.79
908.42	5816.06
908.598	5728
908.777	6287.09
908.955	6053.62
909.133	6153.98
909.311	5836.54
909.49	6143.74
909.668	6063.86
909.846	5889.79
910.024	5562.11
910.202	6321.91
910.38	6389.49
910.559	5961.47
910.737	5785.34
910.915	6332.15
911.093	6270.71
911.271	6020.86
911.449	6371.06
911.627	6350.58
911.805	6803.18
911.983	6082.3
912.161	6002.43
912.339	6549.23
912.517	6721.26
912.695	6311.67
912.872	6102.78
913.05	6188.79
913.228	6575.86
913.406	6139.64
913.584	6072.06
913.762	6536.95
913.939	6207.22
914.117	6061.82
914.295	5945.08
914.473	6696.69
914.65	6538.99
914.828	6090.49
915.006	6076.15
915.184	6246.13
915.361	6428.4
915.539	6143.74
915.716	6283
915.894	6592.24
916.072	6473.46
916.249	6239.99
916.427	6285.05
916.604	6174.46
916.782	6504.18
916.959	5852.92
917.137	6074.1
917.314	6530.8
917.492	6504.18
917.669	6143.74
917.847	6125.3
918.024	6221.56
918.201	6133.5
918.379	6000.38
918.556	6227.7
918.733	6455.03
918.911	6076.15
919.088	6108.92
919.265	6014.71
919.442	6182.65
919.62	6051.58
919.797	5926.65
919.974	5775.1
920.151	6008.57
920.328	6205.17
920.506	5846.78
920.683	6213.37
920.86	5967.61
921.037	5916.41
921.214	5959.42
921.391	5879.55
921.568	6258.42
921.745	5828.35
921.922	5807.87
922.099	5742.33
922.276	6117.11
922.453	6196.98
922.63	5832.44
922.807	6106.87
922.984	5988.09
923.161	5740.29
923.338	5709.57
923.514	5525.25
923.691	5906.17
923.868	6033.15
924.045	5703.42
924.222	5488.39
924.399	5914.36
924.575	6076.15
924.752	5746.43
924.929	5592.83
925.105	5940.99
925.282	5666.56
925.459	5553.92
925.635	5476.1
925.812	5787.39
925.989	5582.59
926.165	5758.72
926.342	5498.63
926.518	5510.91
926.695	5728
926.871	5455.62
927.048	5482.24
927.224	5834.49
927.401	5445.38
927.577	5428.99
927.754	5340.93
927.93	5701.37
928.107	5928.7
928.283	5193.48
928.459	5385.99
928.636	5711.61
928.812	5512.96
928.988	5136.13
929.165	5023.5
929.341	5527.3
929.517	5713.66
929.693	5492.48
929.87	5017.35
930.046	5820.16
930.222	5422.85
930.398	5173
930.574	5142.28
930.751	5273.35
930.927	5285.64
931.103	5138.18
931.279	5046.02
931.455	4947.72
931.631	5224.2
931.807	4796.17
931.983	4777.74
932.159	4865.8
932.335	5197.57
932.511	4982.54
932.687	4841.23
932.863	4992.78
933.039	5019.4
933.215	4714.25
933.391	4634.38
933.566	4841.23
933.742	4798.22
933.918	4697.87
934.094	4421.39
934.27	4640.53
934.445	4820.75
934.621	4585.23
934.797	4402.96
934.973	4855.56
935.148	4632.33
935.324	4165.4
935.5	4026.14
935.675	4669.2
935.851	4697.87
936.027	4099.86
936.202	4198.17
936.378	4423.44
936.553	4245.27
936.729	4296.47
936.904	3878.68
937.08	3913.5
937.255	3936.03
937.431	3634.97
937.606	3661.6
937.782	3725.08
937.957	3802.91
938.133	3598.11
938.308	3350.31
938.483	3657.5
938.659	3372.83
938.834	3444.51
939.009	3458.85
939.185	3417.89
939.36	3274.53
939.535	2869.03
939.71	3268.39
939.886	3577.63
940.061	3598.11
940.236	3157.8
940.411	3157.8
940.586	3493.66
940.761	3358.5
940.937	3043.11
941.112	2950.95
941.287	3024.68
941.462	3245.86
941.637	2744.11
941.812	2807.59
941.987	3149.61
942.162	2889.51
942.337	2889.51
942.512	2633.52
942.687	3135.27
942.862	3231.52
943.037	2494.26
943.212	2326.32
943.386	2795.31
943.561	2891.56
943.736	2858.79
943.911	3100.45
944.086	2965.29
944.26	2989.86
944.435	2678.57
944.61	2852.65
944.785	3139.37
944.959	3280.68
945.134	2703.15
945.309	2580.27
945.483	2780.97
945.658	3231.52
945.833	2389.81
946.007	2457.39
946.182	3254.05
946.357	2645.8
946.531	2647.85
946.706	2545.45
946.88	2529.07
947.055	2922.28
947.229	2570.03
947.404	2649.9
947.578	3143.46
947.752	2891.56
947.927	2535.21
948.101	2481.97
948.276	2881.32
948.45	2905.9
948.624	2821.93
948.799	2606.89
948.973	3069.73
949.147	2668.33
949.321	2764.59
949.496	2758.44
949.67	3235.62
949.844	2971.43
950.018	2662.19
950.193	2744.11
950.367	3403.55
950.541	2981.67
950.715	2823.98
950.889	2985.77
951.063	3020.58
951.237	3161.89
951.411	2516.78
951.585	2617.13
951.759	3252
951.933	2977.58
952.107	3014.44
952.281	3014.44
952.455	3413.79
952.629	3350.31
952.803	2883.37
952.977	2778.92
953.151	3270.44
953.325	3227.43
953.499	3057.45
953.672	2789.16
953.846	2981.67
954.02	2918.18
954.194	2881.32
954.368	2944.81
954.541	3333.92
954.715	2936.62
954.889	3006.25
955.062	2692.91
955.236	3211.04
955.41	3118.89
955.583	3233.57
955.757	2869.03
955.93	3067.69
956.104	3047.21
956.278	2891.56
956.451	3036.97
956.625	3413.79
956.798	3604.25
956.972	3311.39
957.145	2907.94
957.319	3352.35
957.492	3358.5
957.665	3186.47
957.839	3075.88
958.012	3522.34
958.185	3206.95
958.359	3028.78
958.532	3252
958.705	3448.61
958.879	3329.83
959.052	3219.24
959.225	2801.45
959.398	3116.84
959.572	3323.68
959.745	3086.12
959.918	3094.31
960.091	3239.72
960.264	3430.18
960.438	2877.23
960.611	2953
960.784	3403.55
960.957	3100.45
961.13	3381.03
961.303	3049.25
961.476	3020.58
961.649	3405.6
961.822	2948.9
961.995	3043.11
962.168	3338.02
962.341	3290.92
962.514	2985.77
962.686	2909.99
962.859	3288.87
963.032	3591.97
963.205	2918.18
963.378	2899.75
963.551	3438.37
963.723	3305.25
963.896	3188.52
964.069	3168.04
964.242	3317.54
964.414	3387.17
964.587	3108.65
964.76	3090.21
964.932	3211.04
965.105	3184.42
965.278	3069.73
965.45	2926.38
965.623	3188.52
965.795	3407.65
965.968	2891.56
966.14	3002.15
966.313	3192.61
966.485	3153.7
966.658	2993.96
966.83	2873.13
967.003	3495.71
967.175	3421.99
967.348	2879.27
967.52	3039.01
967.692	3632.93
967.865	3354.4
968.037	2928.42
968.209	3141.41
968.382	3127.08
968.554	3424.03
968.726	2895.66
968.898	2934.57
969.071	3200.8
969.243	3303.2
969.415	3073.83
969.587	2946.86
969.759	3622.69
969.932	3221.28
970.104	2907.94
970.276	2633.52
970.448	2936.62
970.62	3069.73
970.792	3131.17
970.964	3022.63
971.136	3528.48
971.308	3116.84
971.48	2795.31
971.652	2809.64
971.824	3247.91
971.996	2965.29
972.168	2965.29
972.339	2881.32
972.511	3295.01
972.683	3116.84
972.855	3135.27
973.027	2948.9
973.199	2996.01
973.37	3139.37
973.542	2793.26
973.714	3041.06
973.886	2848.55
974.057	3231.52
974.229	2740.01
974.401	2608.94
974.572	2762.54
974.744	2561.84
974.915	2666.28
975.087	2760.49
975.259	3405.6
975.43	2834.22
975.602	2656.04
975.773	2758.44
975.945	2758.44
976.116	3141.41
976.288	2567.98
976.459	2922.28
976.63	2717.48
976.802	2948.9
976.973	2529.07
977.145	2785.07
977.316	3372.83
977.487	3233.57
977.659	2770.73
977.83	2621.23
978.001	3225.38
978.172	2942.76
978.344	2567.98
978.515	2629.42
978.686	2699.05
978.857	3102.5
979.028	2553.65
979.2	2535.21
979.371	3026.73
979.542	2770.73
979.713	2651.95
979.884	2107.19
980.055	2502.45
980.226	2651.95
980.397	2398
980.568	2412.34
980.739	3002.15
980.91	2701.1
981.081	2453.3
981.252	2330.42
981.423	2805.55
981.594	2967.34
981.765	2289.46
981.936	2504.5
982.106	2643.76
982.277	2891.56
982.448	2266.93
982.619	2670.38
982.79	2518.83
982.96	2963.24
983.131	2522.93
983.302	2180.92
983.472	2488.11
983.643	2731.82
983.814	2459.44
983.984	2400.05
984.155	2580.27
984.326	2785.07
984.496	2430.77
984.667	2414.38
984.837	2426.67
985.008	3002.15
985.178	2537.26
985.349	2391.86
985.519	2461.49
985.69	2490.16
985.86	2252.59
986.031	2051.89
986.201	2527.02
986.371	2590.51
986.542	2203.44
986.712	2004.79
986.882	2617.13
987.053	2590.51
987.223	2160.44
987.393	2412.34
987.563	2346.8
987.734	2598.7
987.904	2545.45
988.074	2223.92
988.244	2539.31
988.414	2301.75
988.585	2144.05
988.755	2262.83
988.925	2416.43
989.095	2766.64
989.265	2084.66
989.435	2162.48
989.605	2486.06
989.775	2457.39
989.945	2377.52
990.115	2039.61
990.285	2344.75
990.455	2404.14
990.625	2142
990.795	1963.83
990.965	2654
991.134	1955.64
991.304	1943.35
991.474	2058.04
991.644	2348.85
991.814	2527.02
991.984	1847.1
992.153	1939.26
992.323	2125.62
992.493	2072.37
992.662	1816.38
992.832	2131.76
993.002	2142
993.171	2283.31
993.341	1691.45
993.511	2115.38
993.68	2017.08
993.85	2418.48
994.019	1646.4
994.189	1851.19
994.358	2150.2
994.528	1996.6
994.697	1482.56
994.867	1740.6
995.036	2336.56
995.206	1986.36
995.375	1843
995.544	2031.41
995.714	2174.77
995.883	1888.06
996.052	1924.92
996.222	1593.15
996.391	2535.21
996.56	2086.71
996.73	1732.41
996.899	1668.92
997.068	2389.81
997.237	1980.22
997.406	1689.4
997.576	1562.43
997.745	2015.03
997.914	1922.87
998.083	1535.81
998.252	1587.01
998.421	2037.56
998.59	1754.94
998.759	1466.17
998.928	1511.23
999.097	2244.4
999.266	2002.74
999.435	1734.46
999.604	1408.83
999.773	2357.04
999.942	1826.62
1000.111	1417.02
1000.28	1367.87
1000.448	1601.34
1000.617	1552.19
1000.786	1619.77
1000.955	1462.08
1001.124	2004.79
1001.292	2441.01
1001.461	1455.94
1001.63	1560.38
1001.798	2068.28
1001.967	2109.24
1002.136	1339.2
1002.304	1312.58
1002.473	1859.38
1002.642	1777.47
1002.81	1441.6
1002.979	1544
1003.147	1937.21
1003.316	2314.03
1003.484	1367.87
1003.653	1396.54
1003.821	1924.92
1003.99	1675.07
1004.158	1548.09
1004.327	1412.93
1004.495	1924.92
1004.663	1451.84
1004.832	1576.77
1005	1075.01
1005.168	1802.04
1005.337	1781.56
1005.505	1115.97
1005.673	1423.17
1005.842	1761.08
1006.01	1666.88
1006.178	1271.62
1006.346	1224.51
1006.514	1761.08
1006.683	1863.48
1006.851	1263.43
1007.019	1302.34
1007.187	1337.15
1007.355	1122.12
1007.523	1075.01
1007.691	1060.68
1007.859	1331.01
1008.027	1855.29
1008.195	1265.47
1008.363	1109.83
1008.531	1705.79
1008.699	1314.63
1008.867	1032.01
1009.035	1087.3
1009.203	1711.93
1009.37	1470.27
1009.538	1142.6
1009.706	1580.86
1009.874	1435.46
1010.042	1462.08
1010.209	945.99
1010.377	1070.92
1010.545	1691.45
1010.713	1410.88
1010.88	1068.87
1011.048	1158.98
1011.216	1253.19
1011.383	1718.08
1011.551	1023.81
1011.718	849.74
1011.886	1654.59
1012.054	1392.45
1012.221	1017.67
1012.389	907.08
1012.556	1273.67
1012.724	1742.65
1012.891	1019.72
1013.058	726.86
1013.226	1390.4
1013.393	1443.65
1013.561	843.59
1013.728	827.21
1013.895	1507.13
1014.063	1412.93
1014.23	839.5
1014.397	880.46
1014.565	1429.31
1014.732	1089.35
1014.899	894.79
1015.066	778.06
1015.233	1253.19
1015.401	1369.92
1015.568	1003.33
1015.735	1003.33
1015.902	1294.15
1016.069	1232.71
1016.236	859.98
1016.403	767.82
1016.57	1007.43
1016.737	1388.35
1016.904	870.22
1017.071	841.54
1017.238	1085.25
1017.405	1425.22
1017.572	739.15
1017.739	1085.25
1017.906	1388.35
1018.073	1404.74
1018.24	714.57
1018.407	884.55
1018.573	1408.83
1018.74	1152.84
1018.907	866.12
1019.074	567.12
1019.241	1433.41
1019.407	1101.64
1019.574	628.56
1019.741	692.04
1019.907	1101.64
1020.074	1204.03
1020.241	462.67
1020.407	616.27
1020.574	1167.17
1020.74	1171.27
1020.907	698.19
1021.073	677.71
1021.24	1533.76
1021.406	1382.21
1021.573	583.5
1021.739	788.3
1021.906	1281.86
1022.072	1007.43
1022.239	730.95
1022.405	653.13
1022.571	1001.29
1022.738	855.88
1022.904	601.93
1023.07	804.68
1023.237	978.76
1023.403	1240.9
1023.569	618.32
1023.735	626.51
1023.902	1050.44
1024.068	1081.16
1024.234	520.01
1024.4	618.32
1024.566	933.7
1024.732	1156.93
1024.898	620.36
1025.065	542.54
1025.231	1146.69
1025.397	710.47
1025.563	630.6
1025.729	456.53
1025.895	470.86
1026.061	679.75
1026.227	462.67
1026.392	581.45
1026.558	1247.04
1026.724	1044.29
1026.89	599.88
1027.056	636.75
1027.222	1019.72
1027.388	825.16
1027.553	550.73
1027.719	487.25
1027.885	1218.37
1028.051	1017.67
1028.216	343.89
1028.382	528.21
1028.548	1052.49
1028.713	806.73
1028.879	429.9
1029.045	665.42
1029.21	1206.08
1029.376	1052.49
1029.541	595.79
1029.707	571.21
1029.873	1107.78
1030.038	1027.91
1030.204	466.77
1030.369	538.45
1030.534	1007.43
1030.7	692.04
1030.865	520.01
1031.031	399.18
1031.196	948.04
1031.361	851.78
1031.527	354.13
1031.692	405.33
1031.857	522.06
1032.023	929.61
1032.188	302.93
1032.353	388.94
1032.518	1195.84
1032.684	898.89
1032.849	307.02
1033.014	546.64
1033.179	862.02
1033.344	964.42
1033.509	431.95
1033.674	403.28
1033.839	952.13
1034.004	896.84
1034.17	409.42
1034.335	335.7
1034.5	689.99
1034.664	612.17
1034.829	341.84
1034.994	393.04
1035.159	722.76
1035.324	839.5
1035.489	393.04
1035.654	321.36
1035.819	1089.35
1035.984	798.54
1036.148	458.57
1036.313	450.38
1036.478	980.81
1036.643	776.01
1036.807	249.68
1036.972	339.79
1037.137	1062.73
1037.301	749.39
1037.466	216.91
1037.631	415.57
1037.795	1046.34
1037.96	726.86
1038.124	581.45
1038.289	218.96
1038.454	882.5
1038.618	847.69
1038.783	376.66
1038.947	470.86
1039.111	812.87
1039.276	612.17
1039.44	294.74
1039.605	743.24
1039.769	679.75
1039.933	687.95
1040.098	386.9
1040.262	462.67
1040.426	880.46
1040.591	704.33
1040.755	157.52
1040.919	337.74
1041.083	800.59
1041.248	573.26
1041.412	175.95
1041.576	266.07
1041.74	550.73
1041.904	888.65
1042.068	192.34
1042.232	245.59
1042.397	888.65
1042.561	708.43
1042.725	-100.52
1042.889	425.81
1043.053	747.34
1043.217	696.14
1043.381	397.14
1043.544	122.71
1043.708	837.45
1043.872	339.79
1044.036	-16.55
1044.2	106.32
1044.364	876.36
1044.528	978.76
1044.691	5156.61
1044.855	46.93
1045.019	925.51
1045.183	712.52
1045.346	372.56
1045.51	225.11
1045.674	702.28
1045.837	749.39
1046.001	227.15
1046.165	85.84
1046.328	1048.39
1046.492	747.34
1046.655	390.99
1046.819	337.74
1046.983	462.67
1047.146	712.52
1047.31	225.11
1047.473	98.13
1047.636	503.63
1047.8	401.23
1047.963	210.77
1048.127	143.19
1048.29	364.37
