Data from Hydrogel_Ink_Intensity_Test_1_USB4F045381__44__00044.txt Node

Date: Mon Jul 31 10:46:50 EDT 2023
User: mmckonesweet
Spectrometer: USB4F04538
Trigger mode: 4
Integration Time (sec): 9.000000E-1
Scans to average: 1
Electric dark correction enabled: true
Nonlinearity correction enabled: false
Boxcar width: 0
XAxis mode: Wavelengths
Number of Pixels in Spectrum: 3648
>>>>>Begin Spectral Data<<<<<
345.52	-923.98
345.736	-923.98
345.952	-923.98
346.168	-993.61
346.384	-962.89
346.6	-182.61
346.816	-213.33
347.032	-264.53
347.248	282.28
347.464	-194.9
347.68	-63.83
347.896	97.96
348.112	403.11
348.328	-24.92
348.544	-80.21
348.76	16.04
348.975	224.94
349.191	-180.56
349.407	-143.7
349.623	93.87
349.839	-74.07
350.055	-41.3
350.27	120.49
350.486	163.5
350.702	333.48
350.918	261.8
351.133	-119.12
351.349	95.91
351.565	388.77
351.781	-188.75
351.996	34.47
352.212	403.11
352.428	-166.23
352.644	-119.12
352.859	-164.18
353.075	362.15
353.291	18.09
353.506	-153.94
353.722	-225.62
353.938	-59.73
354.153	446.12
354.369	175.78
354.584	-160.08
354.8	224.94
355.016	-285.01
355.231	-151.89
355.447	-45.4
355.662	239.27
355.878	757.41
356.093	-309.58
356.309	36.52
356.524	-246.1
356.74	276.13
356.955	-196.95
357.171	-90.45
357.386	196.26
357.602	-250.19
357.817	-16.73
358.033	-82.26
358.248	366.25
358.464	155.3
358.679	-100.69
358.895	-291.15
359.11	-2.39
359.325	345.77
359.541	353.96
359.756	-29.01
359.972	-194.9
360.187	192.17
360.402	-184.66
360.618	-135.51
360.833	1011.36
361.048	239.27
361.264	-190.8
361.479	-90.45
361.694	122.54
361.909	382.63
362.125	-170.32
362.34	-37.2
362.555	337.57
362.77	147.11
362.986	-274.77
363.201	-155.99
363.416	198.31
363.631	24.23
363.847	-162.13
364.062	-194.9
364.277	274.09
364.492	128.68
364.707	-76.12
364.922	-328.02
365.138	345.77
365.353	362.15
365.568	-201.04
365.783	-76.12
365.998	81.58
366.213	599.71
366.428	-205.14
366.643	89.77
366.858	319.14
367.073	241.32
367.288	32.43
367.503	-223.57
367.718	194.22
367.933	366.25
368.148	-110.93
368.363	9.9
368.578	11.95
368.793	489.12
369.008	-164.18
369.223	-184.66
369.438	247.46
369.653	470.69
369.868	-196.95
370.083	-149.84
370.298	116.39
370.513	415.4
370.728	126.63
370.943	-102.74
371.157	-184.66
371.372	589.47
371.587	-295.25
371.802	-178.51
372.017	102.06
372.232	442.02
372.446	67.24
372.661	-155.99
372.876	257.7
373.091	245.41
373.306	3.75
373.52	-190.8
373.735	-100.69
373.95	415.4
374.165	-106.84
374.379	-115.03
374.594	-20.82
374.809	159.4
375.023	73.39
375.238	-131.41
375.453	241.32
375.667	-237.91
375.882	-41.3
376.097	-86.36
376.311	97.96
376.526	16.04
376.741	-121.17
376.955	155.3
377.17	593.57
377.384	585.38
377.599	-67.92
377.813	-278.87
378.028	646.82
378.242	214.7
378.457	-57.68
378.672	-305.49
378.886	149.16
379.101	1.71
379.315	-325.97
379.53	-115.03
379.744	149.16
379.958	183.98
380.173	-127.32
380.387	-145.75
380.602	274.09
380.816	-69.97
381.031	-129.36
381.245	-90.45
381.459	272.04
381.674	990.88
381.888	-82.26
382.103	143.02
382.317	-141.65
382.531	491.17
382.746	-22.87
382.96	-164.18
383.174	-20.82
383.388	513.7
383.603	138.92
383.817	-168.27
384.031	288.42
384.246	532.13
384.46	100.01
384.674	409.25
384.888	93.87
385.103	77.48
385.317	-221.52
385.531	-55.64
385.745	370.34
385.959	419.49
386.174	-100.69
386.388	-88.4
386.602	77.48
386.816	-45.4
387.03	-37.2
387.244	46.76
387.458	233.13
387.672	435.88
387.887	-139.6
388.101	-178.51
388.315	499.36
388.529	267.94
388.743	38.57
388.957	-145.75
389.171	345.77
389.385	-131.41
389.599	20.14
389.813	138.92
390.027	220.84
390.241	753.31
390.455	-86.36
390.669	120.49
390.883	-20.82
391.097	540.32
391.311	65.19
391.525	-84.31
391.738	269.99
391.952	237.22
392.166	126.63
392.38	-92.5
392.594	476.84
392.808	489.12
393.022	-0.34
393.236	-37.2
393.449	308.9
393.663	310.95
393.877	-190.8
394.091	63.15
394.305	32.43
394.518	-12.63
394.732	-184.66
394.946	-82.26
395.16	532.13
395.373	245.41
395.587	-94.55
395.801	-131.41
396.015	437.92
396.228	374.44
396.442	-172.37
396.656	-225.62
396.869	401.06
397.083	601.76
397.297	26.28
397.51	-72.02
397.724	521.89
397.938	288.42
398.151	-74.07
398.365	-119.12
398.578	327.33
398.792	505.51
399.005	114.34
399.219	13.99
399.433	233.13
399.646	370.34
399.86	106.15
400.073	71.34
400.287	394.92
400.5	20.14
400.714	104.11
400.927	122.54
401.141	296.61
401.354	1142.43
401.567	372.39
401.781	-147.8
401.994	435.88
402.208	818.85
402.421	38.57
402.635	89.77
402.848	206.5
403.061	503.46
403.275	50.86
403.488	-45.4
403.701	659.1
403.915	304.81
404.128	188.07
404.341	30.38
404.555	460.45
404.768	145.06
404.981	167.59
405.195	-45.4
405.408	722.59
405.621	407.2
405.834	151.21
406.048	-74.07
406.261	628.39
406.474	716.45
406.687	-65.88
406.9	157.35
407.114	292.52
407.327	417.44
407.54	-123.22
407.753	-61.78
407.966	128.68
408.179	454.31
408.392	-98.64
408.605	-172.37
408.819	347.81
409.032	382.63
409.245	-31.06
409.458	257.7
409.671	333.48
409.884	489.12
410.097	-63.83
410.31	245.41
410.523	345.77
410.736	226.98
410.949	77.48
411.162	128.68
411.375	607.91
411.588	605.86
411.801	220.84
412.014	9.9
412.227	224.94
412.44	134.82
412.653	54.95
412.865	274.09
413.078	499.36
413.291	437.92
413.504	138.92
413.717	26.28
413.93	433.83
414.143	71.34
414.356	100.01
414.568	-143.7
414.781	507.55
414.994	284.33
415.207	216.74
415.42	143.02
415.632	579.23
415.845	753.31
416.058	-12.63
416.271	-6.49
416.483	353.96
416.696	718.5
416.909	134.82
417.121	69.29
417.334	462.5
417.547	765.6
417.759	97.96
417.972	-26.96
418.185	167.59
418.397	458.4
418.61	57
418.823	65.19
419.035	751.26
419.248	315.05
419.46	241.32
419.673	231.08
419.885	482.98
420.098	282.28
420.311	122.54
420.523	-86.36
420.736	532.13
420.948	296.61
421.161	126.63
421.373	-82.26
421.586	335.53
421.798	202.41
422.01	-33.11
422.223	224.94
422.435	265.89
422.648	577.19
422.86	161.45
423.073	124.58
423.285	622.24
423.497	91.82
423.71	165.54
423.922	79.53
424.134	620.19
424.347	736.93
424.559	403.11
424.771	396.96
424.984	306.85
425.196	476.84
425.408	-16.73
425.621	7.85
425.833	612
426.045	648.86
426.257	192.17
426.47	159.4
426.682	399.01
426.894	511.65
427.106	237.22
427.318	278.18
427.531	339.62
427.743	566.95
427.955	218.79
428.167	693.92
428.379	519.84
428.591	288.42
428.804	384.68
429.016	134.82
429.228	323.24
429.44	532.13
429.652	405.16
429.864	87.72
430.076	343.72
430.288	349.86
430.5	298.66
430.712	349.86
430.924	775.84
431.136	562.85
431.348	50.86
431.56	313
431.772	446.12
431.984	386.72
432.196	231.08
432.408	229.03
432.62	325.29
432.832	560.8
433.044	485.03
433.256	343.72
433.468	683.68
433.679	216.74
433.891	241.32
434.103	497.32
434.315	943.77
434.527	626.34
434.739	384.68
434.95	376.48
435.162	769.69
435.374	413.35
435.586	288.42
435.798	331.43
436.009	300.71
436.221	396.96
436.433	351.91
436.645	306.85
436.856	409.25
437.068	870.05
437.28	204.46
437.491	589.47
437.703	771.74
437.915	532.13
438.126	370.34
438.338	642.72
438.55	560.8
438.761	659.1
438.973	454.31
439.184	376.48
439.396	542.37
439.608	714.4
439.819	278.18
440.031	544.42
440.242	724.64
440.454	833.18
440.665	454.31
440.877	431.78
441.088	843.42
441.3	485.03
441.511	253.61
441.723	335.53
441.934	530.08
442.146	630.43
442.357	554.66
442.569	560.8
442.78	609.95
442.991	1015.45
443.203	716.45
443.414	337.57
443.626	970.4
443.837	466.6
444.048	433.83
444.26	186.02
444.471	655.01
444.682	904.86
444.894	212.65
445.105	319.14
445.316	863.9
445.528	667.3
445.739	482.98
445.95	458.4
446.161	771.74
446.373	921.24
446.584	575.14
446.795	476.84
447.006	845.47
447.217	1146.52
447.429	376.48
447.64	396.96
447.851	1009.31
448.062	800.41
448.273	282.28
448.484	450.21
448.695	822.94
448.907	609.95
449.118	636.58
449.329	691.87
449.54	624.29
449.751	501.41
449.962	525.99
450.173	444.07
450.384	1015.45
450.595	1060.51
450.806	534.18
451.017	525.99
451.228	1017.5
451.439	941.72
451.65	591.52
451.861	272.04
452.072	634.53
452.283	736.93
452.494	784.03
452.705	421.54
452.915	1126.04
453.126	878.24
453.337	708.26
453.548	523.94
453.759	1023.64
453.97	1388.18
454.181	777.89
454.391	673.44
454.602	880.29
454.813	1003.16
455.024	628.39
455.235	612
455.445	868
455.656	931.48
455.867	763.55
456.078	573.09
456.288	784.03
456.499	1037.98
456.71	571.04
456.921	941.72
457.131	904.86
457.342	884.38
457.553	691.87
457.763	655.01
457.974	1064.6
458.184	1113.75
458.395	632.48
458.606	581.28
458.816	1101.47
459.027	1459.86
459.237	824.99
459.448	575.14
459.659	1250.97
459.869	1609.36
460.08	605.86
460.29	970.4
460.501	1541.78
460.711	935.58
460.922	640.67
461.132	675.49
461.343	1717.9
461.553	681.63
461.764	833.18
461.974	855.71
462.184	1336.98
462.395	1152.67
462.605	951.96
462.816	775.84
463.026	1197.72
463.236	1343.13
463.447	798.37
463.657	857.76
463.867	1304.21
464.078	1087.13
464.288	923.29
464.498	984.73
464.709	1222.3
464.919	1080.99
465.129	1109.66
465.339	939.68
465.55	1326.74
465.76	1359.51
465.97	1052.31
466.18	984.73
466.391	1523.35
466.601	1351.32
466.811	1152.67
467.021	982.68
467.231	1394.33
467.441	1515.16
467.651	1148.57
467.862	931.48
468.072	1394.33
468.282	1666.71
468.492	1138.33
468.702	1191.58
468.912	1447.57
469.122	1990.28
469.332	1392.28
469.542	1181.34
469.752	1689.23
469.962	1576.59
470.172	1156.76
470.382	1261.21
470.592	1779.34
470.802	1769.1
471.012	1435.28
471.222	1359.51
471.432	1803.92
471.642	1885.84
471.852	1562.26
472.062	1439.38
472.272	1586.83
472.482	1400.47
472.691	1427.09
472.901	1400.47
473.111	1640.08
473.321	2350.73
473.531	1543.83
473.741	1597.07
473.95	1969.8
474.16	2057.87
474.37	1711.76
474.58	1560.21
474.79	2279.05
474.999	2064.01
475.209	1658.51
475.419	1658.51
475.628	1869.45
475.838	2082.44
476.048	1738.38
476.258	1617.55
476.467	2367.11
476.677	1986.19
476.886	2193.03
477.096	2031.24
477.306	1990.28
477.515	2526.85
477.725	1918.61
477.935	2059.92
478.144	2504.32
478.354	2152.07
478.563	2115.21
478.773	2086.54
478.982	2401.93
479.192	2541.19
479.401	2305.67
479.611	2043.53
479.82	2137.74
480.03	2391.69
480.239	2035.34
480.449	2178.7
480.658	2850.43
480.868	2420.36
481.077	2588.29
481.287	2360.97
481.496	2588.29
481.705	3044.99
481.915	2778.75
482.124	2582.15
482.333	2727.55
482.543	3001.98
482.752	2576
482.961	2541.19
483.171	2934.4
483.38	2741.89
483.589	2684.55
483.799	2539.14
484.008	2815.62
484.217	2991.74
484.426	2629.25
484.636	2557.57
484.845	2928.25
485.054	2698.88
485.263	2989.69
485.472	2799.23
485.682	3305.08
485.891	3186.3
486.1	2643.59
486.309	2907.77
486.518	3112.57
486.727	3382.9
486.936	2819.71
487.146	3083.9
487.355	3475.06
487.564	3053.18
487.773	3102.33
487.982	3022.46
488.191	3333.75
488.4	3137.15
488.609	3190.39
488.818	3204.73
489.027	3923.57
489.236	3759.73
489.445	3155.58
489.654	2967.17
489.863	3745.39
490.072	3479.16
490.281	3686
490.49	3323.51
490.698	3982.96
490.907	3858.03
491.116	3296.89
491.325	3171.96
491.534	3800.69
491.743	3735.15
491.952	3528.31
492.16	3595.89
492.369	3909.23
492.578	3921.52
492.787	3620.47
492.996	3323.51
493.204	3718.77
493.413	4267.63
493.622	3286.65
493.831	3477.11
494.039	4327.02
494.248	3495.54
494.457	3622.52
494.665	3507.83
494.874	4142.7
495.083	4470.37
495.291	3886.7
495.5	3599.99
495.709	4116.08
495.917	4202.09
496.126	3901.04
496.335	3837.55
496.543	4130.41
496.752	4419.18
496.96	4075.12
497.169	3696.24
497.377	4111.98
497.586	4507.24
497.794	4097.64
498.003	3866.22
498.211	4200.04
498.42	4572.77
498.628	4226.67
498.837	4087.4
499.045	4437.61
499.254	4374.12
499.462	4132.46
499.671	3993.2
499.879	4787.81
500.087	4583.01
500.296	3970.67
500.504	4210.28
500.713	4632.16
500.921	5017.18
501.129	4255.34
501.338	4320.87
501.546	4685.41
501.754	4738.66
501.962	4335.21
502.171	4312.68
502.379	4931.17
502.587	5140.06
502.795	4333.16
503.004	4365.93
503.212	4634.21
503.42	5017.18
503.628	4431.46
503.837	4566.63
504.045	4955.74
504.253	5269.08
504.461	4517.48
504.669	4277.87
504.877	4898.4
505.085	5201.5
505.294	4583.01
505.502	4931.17
505.71	5013.09
505.918	5117.53
506.126	4771.43
506.334	4570.72
506.542	4959.84
506.75	5049.95
506.958	4861.54
507.166	4757.09
507.374	4963.93
507.582	5338.71
507.79	4904.54
507.998	4638.31
508.206	5082.72
508.414	5221.98
508.622	4796
508.83	4857.44
509.037	5533.27
509.245	5201.5
509.453	4789.86
509.661	4916.83
509.869	5555.8
510.077	5070.43
510.285	5168.73
510.492	4931.17
510.7	6018.64
510.908	5342.81
511.116	5160.54
511.324	5002.85
511.531	5197.4
511.739	5320.28
511.947	5322.33
512.155	5434.97
512.362	5480.02
512.57	5113.44
512.778	5187.16
512.985	5017.18
513.193	5576.28
513.401	5725.78
513.608	5189.21
513.816	5140.06
514.024	5656.15
514.231	5807.7
514.439	5281.37
514.646	5160.54
514.854	5897.81
515.061	5764.69
515.269	5133.92
515.477	5181.02
515.684	5488.21
515.892	5887.57
516.099	5168.73
516.307	5168.73
516.514	5840.47
516.722	5885.52
516.929	5307.99
517.136	5318.23
517.344	6039.12
517.551	5942.86
517.759	5523.03
517.966	5561.94
518.173	5619.28
518.381	5656.15
518.588	5525.08
518.796	5514.84
519.003	5867.09
519.21	5787.22
519.418	5639.76
519.625	5791.31
519.832	5906
520.039	6053.45
520.247	5488.21
520.454	5819.99
520.661	6254.16
520.868	6180.43
521.076	5580.37
521.283	5891.66
521.49	6616.65
521.697	6243.92
521.904	5836.37
522.112	5690.96
522.319	6221.39
522.526	6415.94
522.733	5959.25
522.94	5871.19
523.147	6086.22
523.354	6424.14
523.561	5680.72
523.768	6188.62
523.975	6489.67
524.183	6405.7
524.39	5926.48
524.597	5971.54
524.804	6254.16
525.011	6225.48
525.218	5965.39
525.425	6016.59
525.632	6561.35
525.838	6047.31
526.045	6055.5
526.252	6139.47
526.459	7489.08
526.666	7290.43
526.873	6184.52
527.08	6147.66
527.287	6866.5
527.494	6567.49
527.701	6116.94
527.907	6293.07
528.114	6655.56
528.321	6549.06
528.528	6385.23
528.735	6145.61
528.941	6569.54
529.148	6463.05
529.355	6434.38
529.562	6442.57
529.768	7163.45
529.975	6446.66
530.182	6426.18
530.388	6164.04
530.595	6852.16
530.802	6354.51
531.008	6598.21
531.215	6471.24
531.422	7548.47
531.628	7415.35
531.835	6680.13
532.042	6706.76
532.248	6882.88
532.455	6790.72
532.661	6536.77
532.868	6598.21
533.074	6977.09
533.281	7204.41
533.487	6741.57
533.694	6596.17
533.9	6792.77
534.107	7005.76
534.313	6725.19
534.52	6540.87
534.726	7327.29
534.933	7691.83
535.139	6669.89
535.345	6602.31
535.552	7179.84
535.758	7194.17
535.965	7032.38
536.171	6665.8
536.377	7419.45
536.584	7507.51
536.79	6846.02
536.996	7032.38
537.203	7312.96
537.409	7308.86
537.615	6821.44
537.821	7065.15
538.028	7511.61
538.234	7431.74
538.44	7099.97
538.646	7081.53
538.853	7497.27
539.059	7282.24
539.265	7566.9
539.471	6940.22
539.677	7691.83
539.883	7415.35
540.09	7251.52
540.296	7771.7
540.502	7601.72
540.708	7478.84
540.914	7575.1
541.12	7089.73
541.326	7634.49
541.532	7642.68
541.738	7446.07
541.944	7462.46
542.15	8019.5
542.356	7679.54
542.562	7454.26
542.768	7474.74
542.974	8228.4
543.18	8390.19
543.386	7466.55
543.592	7446.07
543.798	8310.32
544.004	8152.62
544.21	7620.15
544.415	7796.28
544.621	7943.73
544.827	8207.92
545.033	7573.05
545.239	7728.69
545.445	7794.23
545.651	7966.26
545.856	7601.72
546.062	7847.47
546.268	7956.02
546.474	7896.63
546.679	7929.39
546.885	7831.09
547.091	8009.26
547.297	8488.49
547.502	7900.72
547.708	7593.53
547.914	7874.1
548.119	8443.43
548.325	7562.81
548.531	7761.46
548.736	8412.71
548.942	7894.58
549.147	7921.2
549.353	8275.5
549.559	8572.46
549.764	8119.85
549.97	7949.87
550.175	7976.5
550.381	8566.31
550.586	8027.7
550.792	7818.8
550.997	7827
551.203	8234.54
551.408	8402.47
551.614	7953.97
551.819	7843.38
552.025	8685.09
552.23	8973.86
552.435	8035.89
552.641	8515.11
552.846	8412.71
553.052	8850.98
553.257	8295.98
553.462	8357.42
553.668	8330.8
553.873	8889.89
554.078	8289.84
554.283	8353.32
554.489	8721.96
554.694	8842.79
554.899	8349.23
555.105	8617.51
555.31	8896.03
555.515	8834.6
555.72	8435.24
555.925	8111.66
556.131	8863.27
556.336	8635.94
556.541	8222.25
556.746	8310.32
556.951	8947.23
557.156	9164.32
557.361	8558.12
557.567	8584.74
557.772	9334.3
557.977	8912.42
558.182	8547.88
558.387	8537.64
558.592	8728.1
558.797	9137.7
559.002	8635.94
559.207	8691.24
559.412	8910.37
559.617	9297.44
559.822	8807.97
560.027	8484.39
560.232	8965.67
560.437	9164.32
560.642	8500.78
560.847	8746.53
561.051	9215.52
561.256	9125.41
561.461	8838.69
561.666	8554.02
561.871	9002.53
562.076	9336.35
562.281	8939.04
562.485	8633.89
562.69	9156.13
562.895	9256.48
563.1	8859.17
563.305	8889.89
563.509	9444.89
563.714	9549.34
563.919	8881.7
564.123	8986.15
564.328	9088.54
564.533	9575.96
564.737	8945.19
564.942	8713.77
565.147	9606.68
565.351	9848.34
565.556	9008.67
565.761	9068.06
565.965	9344.54
566.17	9084.45
566.374	9033.25
566.579	8986.15
566.784	9416.22
566.988	9367.07
567.193	8853.03
567.397	8871.46
567.602	9139.74
567.806	9264.67
568.011	9190.94
568.215	9430.55
568.42	9326.11
568.624	9285.15
568.828	9213.47
569.033	9299.48
569.237	9563.67
569.442	9704.98
569.646	8992.29
569.85	9117.22
570.055	9494.04
570.259	9766.42
570.463	9510.43
570.668	9319.96
570.872	9475.61
571.076	9666.07
571.281	9537.05
571.485	9473.56
571.689	9709.08
571.893	9868.82
572.098	9416.22
572.302	9551.38
572.506	9799.19
572.71	9555.48
572.914	9254.43
573.119	9420.31
573.323	10145.3
573.527	10046.99
573.731	9457.18
573.935	9422.36
574.139	9780.76
574.343	9543.19
574.547	9522.71
574.751	9516.57
574.955	10059.28
575.159	10083.86
575.364	9416.22
575.568	9473.56
575.772	9811.48
575.976	10319.37
576.18	9602.58
576.383	9602.58
576.587	10307.09
576.791	10069.52
576.995	9481.75
577.199	9457.18
577.403	10161.68
577.607	10305.04
577.811	9700.89
578.015	9780.76
578.219	10206.73
578.422	10147.34
578.626	9739.8
578.83	10067.47
579.034	10438.16
579.238	9999.89
579.442	9674.26
579.645	10411.53
579.849	10055.19
580.053	10257.93
580.257	9834
580.46	10042.9
580.664	10339.85
580.868	10214.93
581.071	10051.09
581.275	10090
581.479	9934.36
581.682	10581.51
581.886	10055.19
582.09	10239.5
582.293	10636.81
582.497	10460.68
582.7	10309.13
582.904	10106.38
583.107	10389
583.311	10227.21
583.515	10100.24
583.718	10296.85
583.922	10708.49
584.125	10739.21
584.329	10102.29
584.532	10192.4
584.735	10837.51
584.939	10448.4
585.142	10012.18
585.346	10153.49
585.549	10782.21
585.753	10475.02
585.956	10331.66
586.159	10497.55
586.363	11093.51
586.566	10796.55
586.769	10333.71
586.973	10335.76
587.176	10876.42
587.379	10786.31
587.582	10810.89
587.786	10487.31
587.989	10536.46
588.192	11294.21
588.395	10513.93
588.599	10800.65
588.802	10958.34
589.005	10868.23
589.208	10446.35
589.411	10288.65
589.615	11005.44
589.818	11200
590.021	10841.61
590.224	10726.92
590.427	11183.62
590.63	11296.25
590.833	10411.53
591.036	10464.78
591.239	11136.51
591.442	10638.86
591.645	10933.76
591.848	10821.13
592.051	11156.99
592.254	11230.72
592.457	10675.72
592.66	10724.87
592.863	11066.88
593.066	11269.63
593.269	10925.57
593.472	11257.34
593.675	10765.83
593.878	11257.34
594.081	10765.83
594.284	10837.51
594.486	11255.29
594.689	11193.86
594.892	11017.73
595.095	10993.15
595.298	11236.86
595.5	11152.9
595.703	11167.23
595.906	11021.83
596.109	11550.2
596.311	11345.41
596.514	10843.65
596.717	11212.29
596.92	11677.18
597.122	11644.41
597.325	10501.64
597.528	11148.8
597.73	11707.9
597.933	11484.67
598.136	11286.01
598.338	10829.32
598.541	11787.77
598.743	11859.45
598.946	11107.84
599.148	11568.63
599.351	11707.9
599.554	11816.44
599.756	11236.86
599.959	11472.38
600.161	11855.35
600.363	12207.6
600.566	11613.69
600.768	11288.06
600.971	12051.95
601.173	11847.16
601.376	11146.75
601.578	11548.15
601.78	11763.19
601.983	12275.18
602.185	11275.77
602.388	11447.8
602.59	11685.37
602.792	11499
602.995	11646.46
603.197	11339.26
603.399	12056.05
603.601	11789.81
603.804	11511.29
604.006	11537.91
604.208	11646.46
604.41	11378.17
604.613	11857.4
604.815	11247.1
605.017	12207.6
605.219	11603.45
605.421	11947.51
605.623	11574.78
605.826	12281.33
606.028	12129.78
606.23	11517.43
606.432	11677.18
606.634	12283.38
606.836	12246.51
607.038	11576.83
607.24	11742.71
607.442	12006.9
607.644	12205.55
607.846	11597.31
608.048	11746.81
608.25	11959.8
608.452	11986.42
608.654	11980.28
608.856	11580.92
609.058	11769.34
609.26	12291.57
609.462	11716.09
609.664	11978.23
609.866	12320.24
610.067	12207.6
610.269	11816.44
610.471	11615.74
610.673	12021.24
610.875	12045.81
611.077	11599.35
611.278	11888.12
611.48	11841.01
611.682	12549.61
611.884	11871.73
612.085	11933.17
612.287	11900.41
612.489	12199.41
612.69	11689.46
612.892	12049.91
613.094	12455.4
613.295	12101.11
613.497	11742.71
613.699	11976.18
613.9	12565.99
614.102	12420.59
614.304	11892.21
614.505	11691.51
614.707	12135.92
614.908	12054
615.11	11605.5
615.311	11929.08
615.513	12295.66
615.714	12381.68
615.916	11617.79
616.117	11931.12
616.319	11955.7
616.52	12242.42
616.722	11820.53
616.923	12170.74
617.124	12422.64
617.326	12140.02
617.527	11980.28
617.729	12140.02
617.93	12402.16
618.131	12377.58
618.333	11976.18
618.534	12099.06
618.735	12140.02
618.937	12461.55
619.138	11787.77
619.339	11730.42
619.54	12221.94
619.742	12166.64
619.943	12140.02
620.144	12049.91
620.345	12494.32
620.546	12420.59
620.748	11972.08
620.949	11832.82
621.15	12281.33
621.351	12396.01
621.552	11869.69
621.753	11857.4
621.954	12062.19
622.155	12631.53
622.356	11967.99
622.558	12174.83
622.759	12443.12
622.96	12672.49
623.161	11992.56
623.362	12015.09
623.563	12176.88
623.764	12381.68
623.965	12099.06
624.166	12555.76
624.366	12465.64
624.567	12342.77
624.768	11662.84
624.969	11963.89
625.17	12250.61
625.371	12588.52
625.572	12338.67
625.773	12041.71
625.973	12709.35
626.174	12459.5
626.375	12148.21
626.576	12097.01
626.777	12516.84
626.977	13098.47
627.178	12031.48
627.379	12127.73
627.58	12490.22
627.78	12326.38
627.981	12217.84
628.182	12340.72
628.382	12803.56
628.583	12197.36
628.784	12004.85
628.984	12348.91
629.185	12709.35
629.386	12713.45
629.586	12266.99
629.787	12250.61
629.987	12551.66
630.188	12684.78
630.388	12291.57
630.589	12310
630.79	13213.15
630.99	12525.04
631.191	12342.77
631.391	12516.84
631.591	12703.21
631.792	13014.5
631.992	12600.81
632.193	12617.19
632.393	12930.53
632.594	12350.96
632.794	12393.97
632.994	12783.08
633.195	12498.41
633.395	12670.44
633.595	12340.72
633.796	12738.02
633.996	12490.22
634.196	12869.09
634.397	12318.19
634.597	12533.23
634.797	12565.99
634.997	13022.69
635.198	12586.47
635.398	12226.03
635.598	12721.64
635.798	12936.68
635.998	12772.84
636.199	12592.62
636.399	12412.4
636.599	12416.49
636.799	12617.19
636.999	12613.1
637.199	12766.7
637.399	13274.59
637.599	12592.62
637.799	12574.19
637.999	12973.54
638.199	13295.07
638.399	12490.22
638.599	12447.21
638.799	12926.44
638.999	13280.74
639.199	12840.42
639.399	12828.13
639.599	13497.82
639.799	12733.93
639.999	12664.3
640.199	12656.11
640.399	13014.5
640.599	12766.7
640.799	12873.19
640.998	12938.73
641.198	13139.43
641.398	13077.99
641.598	13073.89
641.798	12697.06
641.997	13708.76
642.197	12729.83
642.397	12867.05
642.597	12840.42
642.796	13092.32
642.996	13368.8
643.196	12690.92
643.395	12600.81
643.595	13301.22
643.795	12914.15
643.994	13012.45
644.194	12901.86
644.394	13368.8
644.593	13346.27
644.793	12568.04
644.992	13135.33
645.192	13368.8
645.392	12697.06
645.591	13084.13
645.791	12879.33
645.99	13250.02
646.19	13217.25
646.389	12936.68
646.589	13254.11
646.788	13178.34
646.987	13381.09
647.187	13370.85
647.386	13454.81
647.586	13116.9
647.785	13321.7
647.984	13229.54
648.184	13110.75
648.383	13157.86
648.582	13106.66
648.782	13219.3
648.981	13125.09
649.18	13059.56
649.38	13407.71
649.579	13037.03
649.778	12938.73
649.977	13665.75
650.177	13399.52
650.376	12881.38
650.575	12879.33
650.774	13729.24
650.973	13012.45
651.173	12844.52
651.372	13286.88
651.571	13368.8
651.77	13485.53
651.969	13198.82
652.168	13176.29
652.367	12815.85
652.566	13223.39
652.765	13202.91
652.964	13479.39
653.163	13751.77
653.362	13389.28
653.561	13045.22
653.76	13331.94
653.959	13487.58
654.158	13854.17
654.357	13321.7
654.556	13127.14
654.755	13393.37
654.954	13532.64
655.153	13340.13
655.352	13411.81
655.551	13733.34
655.749	13198.82
655.948	13235.68
656.147	13270.5
656.346	13794.78
656.545	13477.34
656.743	13247.97
656.942	13274.59
657.141	13542.88
657.34	13389.28
657.538	13528.54
657.737	13573.6
657.936	13526.49
658.135	13616.6
658.333	13307.36
658.532	13469.15
658.731	14048.72
658.929	13673.95
659.128	13579.74
659.326	13309.41
659.525	13848.02
659.724	13295.07
659.922	13090.27
660.121	13258.21
660.319	13731.29
660.518	13293.02
660.716	13458.91
660.915	13227.49
661.113	13790.68
661.312	13200.87
661.51	13577.69
661.709	13336.03
661.907	13573.6
662.105	14040.53
662.304	13227.49
662.502	13528.54
662.701	14071.25
662.899	13602.27
663.097	13616.6
663.296	13276.64
663.494	13884.89
663.692	13983.19
663.891	13565.4
664.089	12996.07
664.287	13880.79
664.485	14013.91
664.684	13250.02
664.882	13395.42
665.08	13528.54
665.278	13571.55
665.476	13372.89
665.675	13653.47
665.873	14136.79
666.071	13798.87
666.269	13241.82
666.467	13465.05
666.665	13626.84
666.863	13532.64
667.061	13675.99
667.259	13589.98
667.457	13813.21
667.655	13942.23
667.853	13207.01
668.051	13546.97
668.249	13479.39
668.447	13630.94
668.645	13155.81
668.843	13589.98
669.041	13649.37
669.239	13452.77
669.437	13596.12
669.635	13479.39
669.833	13463.01
670.031	13958.61
670.229	13559.26
670.426	13506.01
670.624	13358.56
670.822	13311.46
671.02	13209.06
671.218	13331.94
671.415	13534.68
671.613	13604.32
671.811	13518.3
672.009	13352.41
672.206	13583.84
672.404	13489.63
672.602	13784.54
672.799	13364.7
672.997	13759.96
673.195	14011.86
673.392	13499.87
673.59	13077.99
673.788	13614.55
673.985	12996.07
674.183	13422.05
674.38	13372.89
674.578	13577.69
674.775	13594.08
674.973	13202.91
675.17	13309.41
675.368	13751.77
675.565	13659.61
675.763	13516.25
675.96	13241.82
676.158	13989.33
676.355	13172.19
676.553	13467.1
676.75	13395.42
676.947	13606.36
677.145	13278.69
677.342	13385.18
677.539	13401.57
677.737	13563.36
677.934	13979.09
678.131	13389.28
678.329	13215.2
678.526	13977.05
678.723	13454.81
678.92	13567.45
679.118	13305.31
679.315	13098.47
679.512	13647.32
679.709	13397.47
679.906	13125.09
680.104	13897.17
680.301	13745.62
680.498	13125.09
680.695	13125.09
680.892	13303.26
681.089	13256.16
681.286	13090.27
681.483	13063.65
681.68	13762.01
681.877	13843.93
682.075	13319.65
682.272	13325.79
682.469	13510.11
682.665	13186.53
682.862	12994.02
683.059	13028.84
683.256	13604.32
683.453	13444.57
683.65	13112.8
683.847	13100.51
684.044	13317.6
684.241	13270.5
684.438	13397.47
684.635	12959.2
684.831	13567.45
685.028	13770.2
685.225	13045.22
685.422	13399.52
685.619	13166.05
685.815	13051.36
686.012	13172.19
686.209	12989.92
686.405	13143.52
686.602	13698.52
686.799	12621.29
686.996	13014.5
687.192	12836.33
687.389	13712.86
687.586	12860.9
687.782	13063.65
687.979	13630.94
688.175	13473.25
688.372	12967.4
688.568	13080.04
688.765	12914.15
688.962	13340.13
689.158	12883.43
689.355	12684.78
689.551	13508.06
689.748	13016.55
689.944	12963.3
690.14	12811.75
690.337	13393.37
690.533	13000.16
690.73	13043.17
690.926	13084.13
691.123	13049.32
691.319	13000.16
691.515	12439.02
691.712	13151.71
691.908	12996.07
692.104	13346.27
692.301	12922.34
692.497	12879.33
692.693	13376.99
692.889	13553.12
693.086	13137.38
693.282	12574.19
693.478	13245.92
693.674	13596.12
693.87	12785.13
694.067	12783.08
694.263	13319.65
694.459	13041.12
694.655	13182.43
694.851	13123.04
695.047	13153.76
695.243	13409.76
695.439	12910.05
695.635	12838.37
695.831	13192.67
696.027	12903.91
696.224	12932.58
696.42	13024.74
696.615	13333.98
696.811	13272.54
697.007	12709.35
697.203	12922.34
697.399	13080.04
697.595	13104.61
697.791	12594.67
697.987	12770.79
698.183	12750.31
698.379	12953.06
698.575	12764.65
698.77	12520.94
698.966	13114.85
699.162	13184.48
699.358	13059.56
699.554	12852.71
699.749	12948.97
699.945	13151.71
700.141	12676.59
700.337	12862.95
700.532	12787.18
700.728	12858.85
700.924	12615.15
701.119	12623.34
701.315	13032.93
701.511	12735.98
701.706	12883.43
701.902	12320.24
702.097	12981.73
702.293	13022.69
702.489	12525.04
702.684	12580.33
702.88	12756.46
703.075	12664.3
703.271	12389.87
703.466	12473.84
703.662	12643.82
703.857	12750.31
704.053	12656.11
704.248	12713.45
704.443	12996.07
704.639	12977.64
704.834	12676.59
705.03	12529.13
705.225	13118.95
705.42	13024.74
705.616	12789.22
705.811	12469.74
706.006	12684.78
706.202	12578.28
706.397	12543.47
706.592	12512.75
706.787	12600.81
706.983	12705.26
707.178	12756.46
707.373	12385.77
707.568	13000.16
707.763	12652.01
707.959	12357.1
708.154	12414.45
708.349	12795.37
708.544	12930.53
708.739	12772.84
708.934	12357.1
709.129	12842.47
709.324	12899.81
709.519	12553.71
709.714	12328.43
709.909	12983.78
710.104	12647.91
710.299	12342.77
710.494	12537.32
710.689	12774.89
710.884	12443.12
711.079	12830.18
711.274	12486.12
711.469	12805.61
711.664	12686.83
711.859	12320.24
712.054	12344.81
712.249	12785.13
712.443	12865
712.638	12324.33
712.833	12172.78
713.028	12697.06
713.223	12586.47
713.417	12733.93
713.612	12164.59
713.807	12766.7
714.002	13192.67
714.196	12643.82
714.391	12277.23
714.586	12836.33
714.78	12432.88
714.975	12365.29
715.17	12475.88
715.364	12443.12
715.559	12926.44
715.754	12115.44
715.948	12223.98
716.143	13020.64
716.337	12676.59
716.532	12676.59
716.726	12187.12
716.921	12680.68
717.115	13268.45
717.31	12221.94
717.504	12815.85
717.699	12469.74
717.893	12594.67
718.088	12228.08
718.282	12242.42
718.476	12619.24
718.671	12580.33
718.865	12013.04
719.059	12078.58
719.254	12303.85
719.448	12860.9
719.642	13501.92
719.837	11902.45
720.031	12338.67
720.225	12641.77
720.419	12332.53
720.614	11996.66
720.808	12453.36
721.002	12051.95
721.196	11904.5
721.39	11875.83
721.585	12658.15
721.779	12355.05
721.973	11992.56
722.167	11755
722.361	12377.58
722.555	12527.08
722.749	11961.84
722.943	11967.99
723.137	11785.72
723.331	12455.4
723.525	12123.63
723.719	11927.03
723.913	12451.31
724.107	12344.81
724.301	11660.79
724.495	12017.14
724.689	12674.54
724.883	12531.18
725.077	11859.45
725.271	11814.39
725.465	12465.64
725.659	12275.18
725.853	11877.88
726.046	11677.18
726.24	12043.76
726.434	12279.28
726.628	11834.87
726.822	11836.92
727.015	12715.5
727.209	12400.11
727.403	11824.63
727.596	11781.62
727.79	12324.33
727.984	12682.73
728.177	12119.54
728.371	11873.78
728.565	12127.73
728.758	11902.45
728.952	11789.81
729.146	11853.3
729.339	12516.84
729.533	11996.66
729.726	11910.64
729.92	11738.62
730.113	12301.81
730.307	12305.9
730.5	11861.49
730.694	11738.62
730.887	11931.12
731.081	12185.07
731.274	11988.47
731.468	12127.73
731.661	12353.01
731.854	12031.48
732.048	11875.83
732.241	11857.4
732.435	12103.15
732.628	11996.66
732.821	11845.11
733.014	11896.31
733.208	11853.3
733.401	12221.94
733.594	11863.54
733.788	11967.99
733.981	12170.74
734.174	12199.41
734.367	11701.75
734.56	12160.5
734.754	12318.19
734.947	11974.13
735.14	11726.33
735.333	11912.69
735.526	12215.79
735.719	11808.25
735.912	11851.25
736.105	11496.96
736.298	12164.59
736.491	11640.31
736.684	11728.38
736.877	11601.4
737.07	11918.84
737.263	12205.55
737.456	11912.69
737.649	11695.61
737.842	11798.01
738.035	11994.61
738.228	11935.22
738.421	11771.38
738.614	12287.47
738.807	12314.09
739	11433.47
739.192	11757.05
739.385	12260.85
739.578	12101.11
739.771	11830.77
739.964	11709.94
740.156	11982.32
740.349	11824.63
740.542	11718.14
740.735	11408.89
740.927	11521.53
741.12	11763.19
741.313	11419.13
741.505	11832.82
741.698	11974.13
741.891	12029.43
742.083	11824.63
742.276	11668.98
742.468	11931.12
742.661	11898.36
742.854	11791.86
743.046	11767.29
743.239	12301.81
743.431	12027.38
743.624	11689.46
743.816	11345.41
744.009	11537.91
744.201	11795.96
744.393	11795.96
744.586	11460.09
744.778	11873.78
744.971	11617.79
745.163	11642.36
745.355	11509.24
745.548	11724.28
745.74	11619.83
745.932	11681.27
746.125	11572.73
746.317	12486.12
746.509	11775.48
746.702	11777.53
746.894	11816.44
747.086	11691.51
747.278	12078.58
747.471	11695.61
747.663	11750.9
747.855	11779.57
748.047	12316.14
748.239	11513.34
748.431	11439.61
748.623	12279.28
748.815	12006.9
749.008	11312.64
749.2	11488.76
749.392	11793.91
749.584	11720.18
749.776	11763.19
749.968	11640.31
750.16	12135.92
750.352	11857.4
750.544	11468.28
750.736	11374.08
750.928	11918.84
751.12	11908.6
751.311	11369.98
751.503	11605.5
751.695	11656.7
751.887	11634.17
752.079	11382.27
752.271	11339.26
752.463	12318.19
752.654	11773.43
752.846	11443.71
753.038	11300.35
753.23	11410.94
753.421	11775.48
753.613	11404.8
753.805	11568.63
753.997	11562.49
754.188	11884.02
754.38	11406.84
754.572	11388.41
754.763	11505.15
754.955	11771.38
755.146	11386.36
755.338	11380.22
755.53	11607.55
755.721	11279.87
755.913	11169.28
756.104	11261.44
756.296	11562.49
756.487	11845.11
756.679	11191.81
756.87	11177.47
757.062	11206.14
757.253	11431.42
757.445	11345.41
757.636	11253.25
757.827	11419.13
758.019	11916.79
758.21	10868.23
758.401	11099.65
758.593	11703.8
758.784	11628.03
758.975	10819.08
759.167	11011.59
759.358	11458.04
759.549	11605.5
759.74	11091.46
759.932	10931.72
760.123	11499
760.314	11130.37
760.505	10999.3
760.696	11056.64
760.888	11533.82
761.079	11116.03
761.27	10677.77
761.461	10845.7
761.652	11677.18
761.843	10890.76
762.034	11058.69
762.225	11107.84
762.416	11286.01
762.607	11159.04
762.798	10737.16
762.989	10923.52
763.18	11834.87
763.371	10866.18
763.562	10972.68
763.753	10661.38
763.944	11066.88
764.135	11216.38
764.326	10704.39
764.517	10536.46
764.708	11169.28
764.899	11146.75
765.089	10520.07
765.28	10575.37
765.471	11048.45
765.662	11144.7
765.853	10720.78
766.043	10210.83
766.234	11189.76
766.425	10931.72
766.615	10751.49
766.806	10466.83
766.997	11206.14
767.187	11021.83
767.378	10599.94
767.569	10364.43
767.759	10919.43
767.95	10645
768.141	10632.71
768.331	10321.42
768.522	10808.84
768.712	10952.2
768.903	10380.81
769.093	10432.01
769.284	11091.46
769.474	10765.83
769.665	10346
769.855	10331.66
770.046	10847.75
770.236	10659.34
770.426	10389
770.617	10143.25
770.807	10528.27
770.998	10368.52
771.188	10393.1
771.378	10108.43
771.569	10653.19
771.759	10690.06
771.949	10034.71
772.139	10173.97
772.33	10470.92
772.52	10741.25
772.71	10180.11
772.9	10223.12
773.09	10743.3
773.281	10726.92
773.471	10180.11
773.661	10075.66
773.851	10823.17
774.041	10300.94
774.231	9938.45
774.421	10270.22
774.611	10571.27
774.802	10079.76
774.992	10296.85
775.182	9967.12
775.372	10302.99
775.562	10395.15
775.752	10092.05
775.942	10036.75
776.131	10671.62
776.321	10366.48
776.511	10030.61
776.701	9952.79
776.891	10403.34
777.081	9977.36
777.271	10075.66
777.461	10038.8
777.651	10272.27
777.84	10216.97
778.03	10008.08
778.22	10046.99
778.41	10651.14
778.599	9680.41
778.789	9920.02
778.979	9838.1
779.169	10202.64
779.358	10169.87
779.548	10214.93
779.738	9653.78
779.927	10071.57
780.117	9864.72
780.307	9797.14
780.496	9590.3
780.686	9993.75
780.875	10120.72
781.065	9727.51
781.254	9678.36
781.444	9813.52
781.633	9745.94
781.823	9532.95
782.012	9498.14
782.202	9580.06
782.391	9899.54
782.581	9469.47
782.77	9627.16
782.96	9881.11
783.149	9702.93
783.338	9395.74
783.528	9301.53
783.717	10075.66
783.906	9987.6
784.096	9672.22
784.285	9541.15
784.474	9379.36
784.663	9641.5
784.853	9387.55
785.042	9498.14
785.231	9596.44
785.42	9997.84
785.61	9551.38
785.799	9182.75
785.988	9508.38
786.177	9575.96
786.366	9348.64
786.555	9704.98
786.744	9856.53
786.933	9666.07
787.122	9305.63
787.312	9025.06
787.501	9575.96
787.69	9700.89
787.879	9414.17
788.068	9270.81
788.257	8984.1
788.445	9274.91
788.634	9295.39
788.823	9115.17
789.012	10092.05
789.201	9893.4
789.39	9170.46
789.579	8936.99
789.768	9401.88
789.957	9418.27
790.145	9242.14
790.334	8949.28
790.523	9418.27
790.712	9307.68
790.9	9240.09
791.089	8990.24
791.278	9580.06
791.467	9483.8
791.655	9221.66
791.844	9504.28
792.033	9168.41
792.221	9322.01
792.41	9094.69
792.599	8898.08
792.787	9547.29
792.976	9401.88
793.164	9055.78
793.353	9068.06
793.541	9369.12
793.73	9551.38
793.918	9133.6
794.107	9053.73
794.295	9072.16
794.484	9213.47
794.672	8810.02
794.861	8836.64
795.049	9264.67
795.238	9666.07
795.426	8703.53
795.614	8842.79
795.803	9133.6
795.991	9238.05
796.179	8842.79
796.368	8767.01
796.556	9387.55
796.744	8996.39
796.932	8750.63
797.121	8640.04
797.309	8975.91
797.497	9412.12
797.685	9010.72
797.874	8666.66
798.062	9008.67
798.25	9455.13
798.438	8693.29
798.626	8990.24
798.814	9213.47
799.002	9481.75
799.19	8910.37
799.378	8740.39
799.566	9199.13
799.755	9281.05
799.943	9059.87
800.131	8756.77
800.318	9268.77
800.506	9276.96
800.694	8642.09
800.882	9041.44
801.07	9365.02
801.258	9025.06
801.446	8891.94
801.634	8871.46
801.822	9051.68
802.01	9178.65
802.197	8961.57
802.385	8861.22
802.573	9184.8
802.761	8810.02
802.949	9070.11
803.136	8789.54
803.324	9397.79
803.512	9213.47
803.699	8871.46
803.887	8777.25
804.075	9262.62
804.262	8887.84
804.45	8635.94
804.638	8941.09
804.825	8773.16
805.013	9041.44
805.201	8783.4
805.388	8724.01
805.576	9059.87
805.763	9412.12
805.951	8926.75
806.138	9027.1
806.326	9582.1
806.513	9276.96
806.701	9070.11
806.888	8877.6
807.075	9012.77
807.263	9420.31
807.45	8785.44
807.638	8844.84
807.825	9489.95
808.012	9166.37
808.2	8779.3
808.387	8949.28
808.574	9369.12
808.761	9473.56
808.949	8777.25
809.136	8887.84
809.323	9168.41
809.51	9221.66
809.698	9006.63
809.885	9020.96
810.072	9205.28
810.259	9436.7
810.446	8844.84
810.633	9012.77
810.82	9483.8
811.008	9653.78
811.195	9192.99
811.382	9090.59
811.569	9174.56
811.756	8994.34
811.943	9166.37
812.13	9119.26
812.317	9117.22
812.504	9029.15
812.691	9213.47
812.878	9289.24
813.064	9512.47
813.251	9283.1
813.438	9051.68
813.625	9119.26
813.812	9201.18
813.999	9291.29
814.186	9262.62
814.372	9090.59
814.559	9178.65
814.746	9481.75
814.933	8859.17
815.12	9055.78
815.306	9041.44
815.493	8945.19
815.68	8990.24
815.866	8787.49
816.053	9506.33
816.24	9584.15
816.426	9084.45
816.613	8980
816.799	9362.97
816.986	9397.79
817.173	8914.47
817.359	8842.79
817.546	9307.68
817.732	9055.78
817.919	8943.14
818.105	9080.35
818.292	9014.82
818.478	9477.66
818.665	9133.6
818.851	8916.51
819.037	9858.58
819.224	9182.75
819.41	8826.4
819.597	8969.76
819.783	9586.2
819.969	9254.43
820.156	8945.19
820.342	9039.39
820.528	10118.67
820.714	9020.96
820.901	9268.77
821.087	8990.24
821.273	9752.09
821.459	9264.67
821.646	8902.18
821.832	8724.01
822.018	9178.65
822.204	9035.3
822.39	8756.77
822.576	8959.52
822.762	9178.65
822.948	9195.04
823.134	8994.34
823.32	8846.88
823.507	8846.88
823.693	9115.17
823.879	9227.81
824.065	9014.82
824.25	9276.96
824.436	8920.61
824.622	8826.4
824.808	8926.75
824.994	8865.32
825.18	8781.35
825.366	8646.18
825.552	8764.96
825.738	8840.74
825.923	9457.18
826.109	8918.56
826.295	8523.3
826.481	8977.95
826.667	8893.99
826.852	8810.02
827.038	8648.23
827.224	9180.7
827.409	9467.42
827.595	8527.4
827.781	8711.72
827.966	9227.81
828.152	8992.29
828.338	8515.11
828.523	8379.95
828.709	8654.37
828.894	9174.56
829.08	8617.51
829.266	8609.32
829.451	8859.17
829.637	8969.76
829.822	8515.11
830.008	8523.3
830.193	8801.83
830.378	9010.72
830.564	8474.15
830.749	8316.46
830.935	8742.44
831.12	8791.59
831.305	8437.29
831.491	8412.71
831.676	8422.95
831.861	8955.43
832.047	8576.55
832.232	8347.18
832.417	8742.44
832.602	8693.29
832.788	8324.65
832.973	8363.56
833.158	8504.87
833.343	8699.43
833.528	8472.11
833.714	8394.28
833.899	8838.69
834.084	8953.38
834.269	8310.32
834.454	8228.4
834.639	8576.55
834.824	8697.38
835.009	8492.59
835.194	8476.2
835.379	8992.29
835.564	9162.27
835.749	8398.38
835.934	8031.79
836.119	8689.19
836.304	8468.01
836.489	8394.28
836.674	8369.71
836.859	8074.8
837.044	8879.65
837.228	8091.18
837.413	8224.3
837.598	8646.18
837.783	8750.63
837.968	8195.63
838.152	8023.6
838.337	8216.11
838.522	8781.35
838.707	8678.95
838.891	8351.28
839.076	8375.85
839.261	8519.21
839.445	8132.14
839.63	8169.01
839.815	8623.66
839.999	8230.45
840.184	7980.59
840.368	8191.53
840.553	8562.22
840.737	8478.25
840.922	7853.62
841.106	7835.19
841.291	7919.15
841.475	8087.09
841.66	7927.35
841.844	8027.7
842.029	8986.15
842.213	8218.16
842.397	7958.07
842.582	7759.41
842.766	8554.02
842.951	8560.17
843.135	8072.75
843.319	7827
843.504	8044.08
843.688	8330.8
843.872	7667.25
844.056	7716.4
844.241	8095.28
844.425	8058.42
844.609	7855.67
844.793	7423.55
844.977	8298.03
845.161	8087.09
845.346	7560.76
845.53	7790.13
845.714	7888.43
845.898	8332.84
846.082	7603.77
846.266	7792.18
846.45	7745.08
846.634	7968.31
846.818	7724.6
847.002	7702.07
847.186	8220.21
847.37	7788.08
847.554	7478.84
847.738	7943.73
847.922	8011.31
848.106	8019.5
848.29	7466.55
848.473	7489.08
848.657	7888.43
848.841	7560.76
849.025	7521.85
849.209	7378.49
849.392	7929.39
849.576	7753.27
849.76	7306.81
849.944	7781.94
850.127	8246.83
850.311	7286.33
850.495	7423.55
850.678	7315
850.862	8048.18
851.046	8181.29
851.229	7704.12
851.413	7401.02
851.596	7671.35
851.78	7671.35
851.964	7546.42
852.147	7527.99
852.331	8447.53
852.514	7769.65
852.698	7317.05
852.881	7231.04
853.065	7839.28
853.248	7593.53
853.431	7439.93
853.615	7335.48
853.798	8216.11
853.982	7667.25
854.165	7437.88
854.348	7171.65
854.532	7321.15
854.715	7290.43
854.898	7501.37
855.081	7421.5
855.265	7743.03
855.448	8050.22
855.631	7161.41
855.814	7183.93
855.997	7669.3
856.181	7368.25
856.364	7208.51
856.547	7167.55
856.73	7476.79
856.913	7360.06
857.096	6995.52
857.279	7095.87
857.462	7081.53
857.645	7544.38
857.828	7358.01
858.011	7323.19
858.194	7300.67
858.377	7556.66
858.56	6864.45
858.743	7228.99
858.926	7202.36
859.109	7435.83
859.292	6911.55
859.475	6921.79
859.658	7583.29
859.841	7525.94
860.023	7210.56
860.206	6942.27
860.389	7278.14
860.572	7513.66
860.755	7048.77
860.937	6942.27
861.12	7089.73
861.303	7347.77
861.486	7112.25
861.668	6979.14
861.851	7405.11
862.034	7159.36
862.216	6948.42
862.399	6651.46
862.581	7292.48
862.764	7513.66
862.947	6934.08
863.129	6835.78
863.312	6827.59
863.494	7462.46
863.677	7018.05
863.859	6647.37
864.042	7310.91
864.224	7515.7
864.406	6889.03
864.589	6407.75
864.771	7374.39
864.954	6776.39
865.136	6721.09
865.318	6637.13
865.501	7231.04
865.683	6483.53
865.865	6637.13
866.048	6549.06
866.23	7192.12
866.412	6884.93
866.594	6526.54
866.777	6659.65
866.959	6932.03
867.141	6643.27
867.323	6862.4
867.505	6710.85
867.687	6880.83
867.869	6946.37
868.052	6633.03
868.234	6336.07
868.416	6850.11
868.598	6972.99
868.78	6596.17
868.962	6526.54
869.144	7040.58
869.326	6962.75
869.508	6534.73
869.69	6553.16
869.872	6659.65
870.054	6901.31
870.236	6198.86
870.417	6520.39
870.599	6676.04
870.781	7011.9
870.963	6630.98
871.145	6323.79
871.327	6495.82
871.508	6932.03
871.69	6360.65
871.872	6461
872.054	6893.12
872.235	6762.05
872.417	6479.43
872.599	6442.57
872.78	7091.77
872.962	6751.81
873.144	6442.57
873.325	6567.49
873.507	7112.25
873.689	6749.76
873.87	6452.81
874.052	6495.82
874.233	6569.54
874.415	6983.23
874.596	6295.11
874.778	6313.55
874.959	6766.15
875.141	6966.85
875.322	6397.51
875.503	6385.23
875.685	6757.96
875.866	6323.79
876.048	6360.65
876.229	6489.67
876.41	6651.46
876.592	7020.1
876.773	6463.05
876.954	6239.82
877.136	7171.65
877.317	6549.06
877.498	6071.89
877.679	6448.71
877.86	6745.67
878.042	6581.83
878.223	6395.47
878.404	6854.21
878.585	6956.61
878.766	7022.14
878.947	6686.28
879.128	6776.39
879.309	6770.24
879.49	7009.86
879.672	6581.83
879.853	6647.37
880.034	6575.69
880.215	6579.78
880.396	6501.96
880.576	6506.06
880.757	6532.68
880.938	7120.45
881.119	6495.82
881.3	6532.68
881.481	6624.84
881.662	7714.36
881.843	6544.97
882.023	6618.69
882.204	6856.26
882.385	6864.45
882.566	6612.55
882.747	6516.3
882.927	6925.89
883.108	6794.82
883.289	6512.2
883.469	7018.05
883.65	6856.26
883.831	6880.83
884.011	6921.79
884.192	6579.78
884.373	7245.37
884.553	7050.82
884.734	6942.27
884.914	7085.63
885.095	7654.97
885.275	7456.31
885.456	6852.16
885.636	6784.58
885.817	6997.57
885.997	7118.4
886.178	6860.35
886.358	6782.53
886.538	7226.94
886.719	8009.26
886.899	6852.16
887.08	6991.42
887.26	7407.16
887.44	6811.2
887.621	6757.96
887.801	6903.36
887.981	7591.48
888.161	7243.32
888.342	6934.08
888.522	6954.56
888.702	7372.35
888.882	7335.48
889.062	7024.19
889.242	6727.24
889.423	7462.46
889.603	7169.6
889.783	6979.14
889.963	6862.4
890.143	7317.05
890.323	7315
890.503	6751.81
890.683	6972.99
890.863	7237.18
891.043	7175.74
891.223	7069.25
891.403	7112.25
891.583	7134.78
891.763	7085.63
891.943	6800.96
892.122	6790.72
892.302	7167.55
892.482	7007.81
892.662	7036.48
892.842	6825.54
893.022	7261.76
893.201	7022.14
893.381	6880.83
893.561	6643.27
893.741	7198.27
893.92	7261.76
894.1	6923.84
894.28	6856.26
894.459	7321.15
894.639	7296.57
894.819	6878.79
894.998	6981.18
895.178	7138.88
895.357	7165.5
895.537	6721.09
895.716	6606.41
895.896	6927.94
896.075	7366.2
896.255	6786.63
896.434	6563.4
896.614	7151.17
896.793	7642.68
896.973	6981.18
897.152	6876.74
897.331	7147.07
897.511	7192.12
897.69	6522.44
897.87	6735.43
898.049	7198.27
898.228	6921.79
898.407	6735.43
898.587	6735.43
898.766	6819.39
898.945	7085.63
899.124	6776.39
899.304	6977.09
899.483	7202.36
899.662	7284.28
899.841	6663.75
900.02	6735.43
900.199	7145.02
900.378	7077.44
900.557	6475.34
900.737	6407.75
900.916	6749.76
901.095	6884.93
901.274	6610.5
901.453	6315.59
901.632	6352.46
901.811	6352.46
901.989	6409.8
902.168	6342.22
902.347	6729.28
902.526	6329.93
902.705	6127.18
902.884	6364.75
903.063	6911.55
903.242	6760
903.42	5979.73
903.599	6319.69
903.778	6938.18
903.957	6874.69
904.135	6430.28
904.314	6219.34
904.493	6397.51
904.672	6399.56
904.85	6164.04
905.029	6188.62
905.207	6336.07
905.386	7018.05
905.565	5799.51
905.743	5752.4
905.922	6049.36
906.1	6303.31
906.279	5832.27
906.457	5619.28
906.636	6018.64
906.814	5926.48
906.993	5805.65
907.171	5676.63
907.35	6184.52
907.528	6118.99
907.707	5906
907.885	5574.23
908.063	6340.17
908.242	5824.08
908.42	5492.31
908.598	5455.45
908.777	6145.61
908.955	5791.31
909.133	5680.72
909.311	5576.28
909.49	5764.69
909.668	5801.55
909.846	5541.46
910.024	5322.33
910.202	5932.62
910.38	5920.34
910.559	5445.21
910.737	5633.62
910.915	6114.89
911.093	6114.89
911.271	5717.59
911.449	5946.96
911.627	6127.18
911.805	6530.63
911.983	5848.66
912.161	5715.54
912.339	6239.82
912.517	6479.43
912.695	6051.41
912.872	5955.15
913.05	5977.68
913.228	6268.49
913.406	5983.82
913.584	5869.14
913.762	6282.83
913.939	6018.64
914.117	5819.99
914.295	5686.87
914.473	6200.91
914.65	6176.33
914.828	5776.98
915.006	5729.88
915.184	5865.04
915.361	6172.24
915.539	5873.23
915.716	6035.02
915.894	5992.02
916.072	6331.98
916.249	6092.37
916.427	5844.56
916.604	5774.93
916.782	6159.95
916.959	5602.9
917.137	5686.87
917.314	5842.51
917.492	6098.51
917.669	5736.02
917.847	5766.74
918.024	5822.03
918.201	5752.4
918.379	5748.31
918.556	5660.24
918.733	6123.09
918.911	5858.9
919.088	5877.33
919.265	5566.04
919.442	5754.45
919.62	5824.08
919.797	5504.6
919.974	5447.26
920.151	5688.92
920.328	5862.99
920.506	5537.37
920.683	5926.48
920.86	5703.25
921.037	5717.59
921.214	5697.11
921.391	5434.97
921.568	5906
921.745	5670.48
921.922	5623.38
922.099	5635.67
922.276	5967.44
922.453	5865.04
922.63	5533.27
922.807	5807.7
922.984	5830.23
923.161	5561.94
923.338	5453.4
923.514	5445.21
923.691	5727.83
923.868	5811.79
924.045	5508.69
924.222	5471.83
924.399	5596.76
924.575	5922.38
924.752	5566.04
924.929	5455.45
925.105	5693.01
925.282	5434.97
925.459	5326.43
925.635	5252.7
925.812	5377.62
925.989	5353.05
926.165	5406.3
926.342	5181.02
926.518	5138.01
926.695	5408.34
926.871	5140.06
927.048	5076.57
927.224	5410.39
927.401	5232.22
927.577	5232.22
927.754	4972.13
927.93	5514.84
928.107	5584.47
928.283	4974.17
928.459	5197.4
928.636	5516.89
928.812	5152.35
928.988	4910.69
929.165	4796
929.341	5156.44
929.517	5359.19
929.693	5383.77
929.87	4804.19
930.046	5277.27
930.222	4980.32
930.398	4972.13
930.574	4951.65
930.751	5105.24
930.927	4996.7
931.103	4769.38
931.279	4912.74
931.455	4798.05
931.631	5097.05
931.807	4546.15
931.983	4609.64
932.159	4413.03
932.335	4857.44
932.511	4564.58
932.687	4583.01
932.863	5023.33
933.039	4841.06
933.215	4417.13
933.391	4380.26
933.566	4517.48
933.742	4599.4
933.918	4386.41
934.094	4150.89
934.27	4603.49
934.445	4521.57
934.621	4312.68
934.797	4071.02
934.973	4669.03
935.148	4673.12
935.324	4052.59
935.5	3919.47
935.675	4709.99
935.851	4451.94
936.027	4066.92
936.202	3960.43
936.378	3911.28
936.553	3806.83
936.729	4230.76
936.904	3626.61
937.08	3737.2
937.255	3741.3
937.431	3563.12
937.606	3331.7
937.782	3675.76
937.957	3751.54
938.133	3538.55
938.308	3425.91
938.483	3602.04
938.659	3300.98
938.834	3174.01
939.009	3239.55
939.185	3395.19
939.36	3186.3
939.535	2840.19
939.71	3153.53
939.886	3401.33
940.061	3255.93
940.236	3022.46
940.411	3001.98
940.586	3378.81
940.761	3274.36
940.937	2813.57
941.112	2840.19
941.287	2995.84
941.462	2985.6
941.637	2700.93
941.812	2727.55
941.987	2858.62
942.162	2940.54
942.337	2799.23
942.512	2596.48
942.687	3102.33
942.862	2973.31
943.037	2356.87
943.212	2326.15
943.386	2754.18
943.561	2721.41
943.736	2795.14
943.911	2977.41
944.086	2739.84
944.26	2795.14
944.435	2467.46
944.61	2702.98
944.785	2999.93
944.959	3126.91
945.134	2518.66
945.309	2547.33
945.483	2541.19
945.658	2928.25
945.833	2322.06
946.007	2326.15
946.182	3102.33
946.357	2530.95
946.531	2510.47
946.706	2504.32
946.88	2297.48
947.055	2829.95
947.229	2518.66
947.404	2510.47
947.578	2985.6
947.752	2723.46
947.927	2477.7
948.101	2412.17
948.276	2813.57
948.45	2713.22
948.624	2832
948.799	2526.85
948.973	2915.97
949.147	2684.55
949.321	2735.74
949.496	2533
949.67	3069.56
949.844	2754.18
950.018	2662.02
950.193	2645.63
950.367	3243.64
950.541	2784.9
950.715	2733.7
950.889	2915.97
951.063	2819.71
951.237	2866.81
951.411	2492.04
951.585	2563.72
951.759	3026.56
951.933	3016.32
952.107	2858.62
952.281	2897.53
952.455	3440.25
952.629	3268.22
952.803	2700.93
952.977	2686.59
953.151	3200.63
953.325	3182.2
953.499	2963.07
953.672	2598.53
953.846	2686.59
954.02	2977.41
954.194	2723.46
954.368	2860.67
954.541	3196.54
954.715	2883.2
954.889	2981.5
955.062	2772.61
955.236	3081.85
955.41	2981.5
955.583	2948.73
955.757	2629.25
955.93	2961.02
956.104	2967.17
956.278	2754.18
956.451	2848.38
956.625	3227.26
956.798	3522.16
956.972	3075.71
957.145	2731.65
957.319	3032.7
957.492	2981.5
957.665	3051.13
957.839	2846.34
958.012	3186.3
958.185	3100.28
958.359	2926.21
958.532	2952.83
958.705	3292.79
958.879	3118.72
959.052	2946.69
959.225	2745.98
959.398	3036.8
959.572	2995.84
959.745	2909.82
959.918	2870.91
960.091	2915.97
960.264	3210.87
960.438	2827.9
960.611	2754.18
960.784	3300.98
960.957	3022.46
961.13	3260.02
961.303	2756.22
961.476	3206.78
961.649	3257.98
961.822	2778.75
961.995	3012.22
962.168	3296.89
962.341	3088
962.514	2913.92
962.686	2854.53
962.859	3214.97
963.032	3260.02
963.205	2928.25
963.378	2705.03
963.551	3270.26
963.723	3104.38
963.896	2979.45
964.069	3161.72
964.242	3112.57
964.414	3282.55
964.587	2952.83
964.76	2903.68
964.932	3198.59
965.105	3018.36
965.278	2784.9
965.45	2741.89
965.623	3026.56
965.795	3204.73
965.968	2973.31
966.14	2838.14
966.313	2936.45
966.485	3200.63
966.658	2776.7
966.83	2932.35
967.003	3262.07
967.175	3202.68
967.348	2868.86
967.52	2829.95
967.692	3368.57
967.865	3167.87
968.037	2872.96
968.209	3067.52
968.382	3010.17
968.554	3266.17
968.726	2885.25
968.898	2780.8
969.071	3044.99
969.243	3145.34
969.415	2774.66
969.587	2875.01
969.759	3280.5
969.932	2956.93
970.104	2907.77
970.276	2555.52
970.448	2903.68
970.62	2866.81
970.792	2905.73
970.964	2748.03
971.136	3612.28
971.308	3071.61
971.48	2637.44
971.652	2702.98
971.824	3227.26
971.996	2733.7
972.168	2754.18
972.339	2723.46
972.511	3180.15
972.683	2832
972.855	3010.17
973.027	2573.96
973.199	2866.81
973.37	2999.93
973.542	2868.86
973.714	2815.62
973.886	2829.95
974.057	3010.17
974.229	2598.53
974.401	2684.55
974.572	2877.05
974.744	2391.69
974.915	2457.22
975.087	2522.76
975.259	3196.54
975.43	2733.7
975.602	2561.67
975.773	2481.8
975.945	2625.15
976.116	3018.36
976.288	2557.57
976.459	2733.7
976.63	2926.21
976.802	2813.57
976.973	2385.54
977.145	2684.55
977.316	3167.87
977.487	3028.6
977.659	2674.31
977.83	2555.52
978.001	3128.95
978.172	2817.66
978.344	2420.36
978.515	2494.08
978.686	2621.06
978.857	2926.21
979.028	2461.32
979.2	2424.45
979.371	3010.17
979.542	2748.03
979.713	2649.73
979.884	1969.8
980.055	2563.72
980.226	2576
980.397	2463.37
980.568	2363.01
980.739	2848.38
980.91	2424.45
981.081	2600.58
981.252	2311.82
981.423	2772.61
981.594	2846.34
981.765	2399.88
981.936	2449.03
982.106	2651.78
982.277	2969.21
982.448	2326.15
982.619	2457.22
982.79	2508.42
982.96	2805.38
983.131	2432.65
983.302	1959.56
983.472	2420.36
983.643	2584.2
983.814	2270.86
983.984	2254.47
984.155	2356.87
984.326	2727.55
984.496	2311.82
984.667	2158.22
984.837	2240.14
985.008	2735.74
985.178	2401.93
985.349	2256.52
985.519	2457.22
985.69	2303.62
985.86	2270.86
986.031	2074.25
986.201	2475.65
986.371	2594.44
986.542	2092.68
986.712	1959.56
986.882	2571.91
987.053	2576
987.223	2047.63
987.393	2299.53
987.563	2242.18
987.734	2395.78
987.904	2408.07
988.074	2113.16
988.244	2465.41
988.414	2133.64
988.585	1932.94
988.755	2031.24
988.925	2336.39
989.095	2682.5
989.265	1937.04
989.435	1984.14
989.605	2283.14
989.775	2268.81
989.945	2182.79
990.115	1756.82
990.285	2197.13
990.455	2322.06
990.625	2012.81
990.795	1969.8
990.965	2471.56
991.134	1902.22
991.304	1984.14
991.474	1967.76
991.644	2236.04
991.814	2457.22
991.984	1844.88
992.153	1816.21
992.323	2150.03
992.493	2207.37
992.662	1760.91
992.832	1959.56
993.002	2084.49
993.171	2139.79
993.341	1562.26
993.511	2023.05
993.68	1914.51
993.85	2145.93
994.019	1648.27
994.189	1746.58
994.358	2104.97
994.528	1848.97
994.697	1375.89
994.867	1586.83
995.036	2104.97
995.206	1928.85
995.375	1678.99
995.544	1879.69
995.714	2059.92
995.883	2080.39
996.052	1822.35
996.222	1547.92
996.391	2373.25
996.56	1830.54
996.73	1590.93
996.899	1556.11
997.068	2172.55
997.237	1898.13
997.406	1574.55
997.576	1392.28
997.745	1934.99
997.914	2010.76
998.083	1402.52
998.252	1511.06
998.421	1844.88
998.59	1801.87
998.759	1513.11
998.928	1355.41
999.097	2172.55
999.266	1898.13
999.435	1605.27
999.604	1351.32
999.773	2328.2
999.942	1762.96
1000.111	1339.03
1000.28	1345.17
1000.448	1670.8
1000.617	1490.58
1000.786	1738.38
1000.955	1377.94
1001.124	1896.08
1001.292	2403.97
1001.461	1506.96
1001.63	1351.32
1001.798	2127.5
1001.967	2096.78
1002.136	1347.22
1002.304	1359.51
1002.473	1773.2
1002.642	1644.18
1002.81	1406.61
1002.979	1408.66
1003.147	1822.35
1003.316	2254.47
1003.484	1351.32
1003.653	1240.73
1003.821	1978
1003.99	1525.4
1004.158	1523.35
1004.327	1431.19
1004.495	1799.82
1004.663	1427.09
1004.832	1392.28
1005	1171.1
1005.168	1785.49
1005.337	1652.37
1005.505	1132.19
1005.673	1429.14
1005.842	1683.09
1006.01	1674.9
1006.178	1083.03
1006.346	1232.54
1006.514	1701.52
1006.683	1861.26
1006.851	1236.63
1007.019	1308.31
1007.187	1355.41
1007.355	1009.31
1007.523	1040.03
1007.691	1074.84
1007.859	1154.71
1008.027	1769.1
1008.195	1146.52
1008.363	1076.89
1008.531	1654.42
1008.699	1281.69
1008.867	1003.16
1009.035	1040.03
1009.203	1734.29
1009.37	1457.81
1009.538	1046.17
1009.706	1547.92
1009.874	1379.99
1010.042	1416.85
1010.209	1066.65
1010.377	1060.51
1010.545	1625.75
1010.713	1271.45
1010.88	915.1
1011.048	1085.08
1011.216	1310.36
1011.383	1572.5
1011.551	964.25
1011.718	921.24
1011.886	1459.86
1012.054	1326.74
1012.221	927.39
1012.389	947.87
1012.556	1306.26
1012.724	1683.09
1012.891	1068.7
1013.058	884.38
1013.226	1314.45
1013.393	1394.33
1013.561	769.69
1013.728	753.31
1013.895	1408.66
1014.063	1408.66
1014.23	925.34
1014.397	919.2
1014.565	1515.16
1014.732	1201.82
1014.899	857.76
1015.066	773.79
1015.233	1242.78
1015.401	1324.69
1015.568	986.78
1015.735	960.16
1015.902	1281.69
1016.069	1195.67
1016.236	892.57
1016.403	722.59
1016.57	1031.83
1016.737	1345.17
1016.904	827.04
1017.071	806.56
1017.238	954.01
1017.405	1414.81
1017.572	820.89
1017.739	964.25
1017.906	1353.37
1018.073	1420.95
1018.24	718.5
1018.407	843.42
1018.573	1412.76
1018.74	1033.88
1018.907	855.71
1019.074	589.47
1019.241	1402.52
1019.407	1142.43
1019.574	644.77
1019.741	622.24
1019.907	1123.99
1020.074	1269.4
1020.241	474.79
1020.407	597.67
1020.574	1136.28
1020.74	1117.85
1020.907	706.21
1021.073	579.23
1021.24	1539.73
1021.406	1369.75
1021.573	706.21
1021.739	646.82
1021.906	1283.74
1022.072	954.01
1022.239	712.35
1022.405	618.15
1022.571	1056.41
1022.738	855.71
1022.904	585.38
1023.07	698.02
1023.237	1027.74
1023.403	1236.63
1023.569	581.28
1023.735	644.77
1023.902	1093.27
1024.068	941.72
1024.234	595.62
1024.4	620.19
1024.566	1109.66
1024.732	1162.9
1024.898	591.52
1025.065	444.07
1025.231	1097.37
1025.397	868
1025.563	503.46
1025.729	530.08
1025.895	493.22
1026.061	790.17
1026.227	343.72
1026.392	607.91
1026.558	1060.51
1026.724	1003.16
1026.89	448.16
1027.056	616.1
1027.222	1115.8
1027.388	839.33
1027.553	472.74
1027.719	442.02
1027.885	1177.24
1028.051	1027.74
1028.216	280.23
1028.382	593.57
1028.548	1068.7
1028.713	722.59
1028.879	321.19
1029.045	724.64
1029.21	1078.94
1029.376	1101.47
1029.541	593.57
1029.707	609.95
1029.873	1005.21
1030.038	1042.07
1030.204	460.45
1030.369	495.27
1030.534	1013.4
1030.7	749.22
1030.865	421.54
1031.031	411.3
1031.196	837.28
1031.361	943.77
1031.527	444.07
1031.692	380.58
1031.857	476.84
1032.023	941.72
1032.188	349.86
1032.353	476.84
1032.518	1158.81
1032.684	861.85
1032.849	274.09
1033.014	491.17
1033.179	931.48
1033.344	886.43
1033.509	517.79
1033.674	403.11
1033.839	935.58
1034.004	894.62
1034.17	405.16
1034.335	349.86
1034.5	681.63
1034.664	630.43
1034.829	360.1
1034.994	419.49
1035.159	847.52
1035.324	849.57
1035.489	378.53
1035.654	315.05
1035.819	1015.45
1035.984	810.65
1036.148	351.91
1036.313	329.38
1036.478	851.61
1036.643	741.02
1036.807	366.25
1036.972	325.29
1037.137	1019.55
1037.301	730.78
1037.466	208.55
1037.631	439.97
1037.795	1027.74
1037.96	804.51
1038.124	571.04
1038.289	231.08
1038.454	923.29
1038.618	921.24
1038.783	374.44
1038.947	427.68
1039.111	753.31
1039.276	593.57
1039.44	257.7
1039.605	734.88
1039.769	630.43
1039.933	712.35
1040.098	368.29
1040.262	548.51
1040.426	827.04
1040.591	853.66
1040.755	298.66
1040.919	372.39
1041.083	728.74
1041.248	636.58
1041.412	237.22
1041.576	163.5
1041.74	528.03
1041.904	906.91
1042.068	186.02
1042.232	360.1
1042.397	855.71
1042.561	681.63
1042.725	120.49
1042.889	335.53
1043.053	765.6
1043.217	804.51
1043.381	358.05
1043.544	132.78
1043.708	863.9
1043.872	366.25
1044.036	-2.39
1044.2	257.7
1044.364	859.81
1044.528	1015.45
1044.691	1693.33
1044.855	200.36
1045.019	884.38
1045.183	749.22
1045.346	208.55
1045.51	149.16
1045.674	757.41
1045.837	794.27
1046.001	214.7
1046.165	145.06
1046.328	1085.08
1046.492	669.34
1046.655	339.62
1046.819	335.53
1046.983	442.02
1047.146	663.2
1047.31	356.01
1047.473	114.34
1047.636	597.67
1047.8	368.29
1047.963	272.04
1048.127	28.33
1048.29	425.64
