Data from Hydrogel_Ink_Intensity_Test_1_USB4F045381__58__00058.txt Node

Date: Mon Jul 31 10:51:16 EDT 2023
User: mmckonesweet
Spectrometer: USB4F04538
Trigger mode: 4
Integration Time (sec): 9.000000E-1
Scans to average: 1
Electric dark correction enabled: true
Nonlinearity correction enabled: false
Boxcar width: 0
XAxis mode: Wavelengths
Number of Pixels in Spectrum: 3648
>>>>>Begin Spectral Data<<<<<
345.52	-954.35
345.736	-954.35
345.952	-954.35
346.168	-1044.46
346.384	-974.83
346.6	-161.79
346.816	-282.62
347.032	-221.18
347.248	305.15
347.464	-247.8
347.68	-129.02
347.896	83.97
348.112	348.15
348.328	-98.3
348.544	-24.58
348.76	77.82
348.975	350.2
349.191	-124.93
349.407	-176.13
349.623	110.59
349.839	16.38
350.055	-86.01
350.27	131.07
350.486	120.83
350.702	382.97
350.918	342.01
351.133	-94.21
351.349	129.02
351.565	360.44
351.781	-118.78
351.996	49.15
352.212	315.39
352.428	-34.82
352.644	-151.55
352.859	-163.84
353.075	245.76
353.291	20.48
353.506	-49.15
353.722	-159.74
353.938	-65.53
354.153	542.71
354.369	180.22
354.584	-167.93
354.8	368.63
355.016	-200.7
355.231	-225.28
355.447	-98.3
355.662	137.21
355.878	862.19
356.093	-294.91
356.309	45.06
356.524	-294.91
356.74	262.14
356.955	-167.93
357.171	-16.38
357.386	176.13
357.602	-212.99
357.817	-49.15
358.033	-118.78
358.248	337.91
358.464	163.84
358.679	-102.4
358.895	-219.13
359.11	47.1
359.325	317.44
359.541	286.72
359.756	34.82
359.972	-266.24
360.187	237.56
360.402	-204.8
360.618	-159.74
360.833	1003.5
361.048	227.32
361.264	-167.93
361.479	-6.14
361.694	-32.77
361.909	243.71
362.125	-190.46
362.34	8.19
362.555	284.67
362.77	184.32
362.986	-266.24
363.201	-139.26
363.416	184.32
363.631	45.06
363.847	-147.45
364.062	-176.13
364.277	157.69
364.492	133.12
364.707	-61.44
364.922	-378.87
365.138	292.86
365.353	452.6
365.568	-208.89
365.783	-36.86
365.998	161.79
366.213	626.68
366.428	-165.89
366.643	104.45
366.858	311.29
367.073	219.13
367.288	-73.73
367.503	-212.99
367.718	225.28
367.933	325.63
368.148	-202.75
368.363	-14.34
368.578	77.82
368.793	436.22
369.008	-133.12
369.223	-219.13
369.438	245.76
369.653	358.39
369.868	-200.7
370.083	-217.08
370.298	147.45
370.513	466.94
370.728	100.35
370.943	-163.84
371.157	-65.53
371.372	538.62
371.587	-262.14
371.802	-153.6
372.017	131.07
372.232	471.03
372.446	-65.53
372.661	-188.41
372.876	188.41
373.091	249.85
373.306	4.1
373.52	-174.08
373.735	-110.59
373.95	487.42
374.165	-38.91
374.379	-94.21
374.594	-65.53
374.809	169.98
375.023	96.25
375.238	-178.17
375.453	348.15
375.667	-233.47
375.882	-131.07
376.097	-83.97
376.311	133.12
376.526	24.58
376.741	-172.03
376.955	225.28
377.17	591.86
377.384	583.67
377.599	8.19
377.813	-208.89
378.028	684.02
378.242	204.8
378.457	12.29
378.672	-315.39
378.886	223.23
379.101	120.83
379.315	-196.6
379.53	-45.06
379.744	221.18
379.958	315.39
380.173	-69.63
380.387	-137.21
380.602	241.66
380.816	-77.82
381.031	-110.59
381.245	-86.01
381.459	266.24
381.674	2815.96
381.888	-131.07
382.103	221.18
382.317	-137.21
382.531	540.66
382.746	-28.67
382.96	-61.44
383.174	-45.06
383.388	534.52
383.603	151.55
383.817	-256
384.031	264.19
384.246	561.14
384.46	77.82
384.674	405.5
384.888	106.49
385.103	139.26
385.317	-202.75
385.531	-61.44
385.745	444.41
385.959	432.12
386.174	-92.16
386.388	-118.78
386.602	141.31
386.816	-6.14
387.03	0
387.244	24.58
387.458	192.51
387.672	514.04
387.887	-202.75
388.101	-200.7
388.315	374.78
388.529	280.57
388.743	-4.1
388.957	-75.77
389.171	483.32
389.385	-69.63
389.599	-67.58
389.813	79.87
390.027	217.08
390.241	819.19
390.455	40.96
390.669	14.34
390.883	4.1
391.097	626.68
391.311	208.89
391.525	-61.44
391.738	296.96
391.952	309.24
392.166	34.82
392.38	-143.36
392.594	497.66
392.808	440.31
393.022	32.77
393.236	-4.1
393.449	393.21
393.663	243.71
393.877	-167.93
394.091	120.83
394.305	81.92
394.518	-6.14
394.732	-106.49
394.946	49.15
395.16	606.2
395.373	184.32
395.587	0
395.801	-4.1
396.015	520.18
396.228	268.28
396.442	-92.16
396.656	-223.23
396.869	483.32
397.083	618.49
397.297	67.58
397.51	45.06
397.724	434.17
397.938	354.3
398.151	-131.07
398.365	-61.44
398.578	413.69
398.792	503.8
399.005	145.41
399.219	45.06
399.433	364.54
399.646	360.44
399.86	249.85
400.073	131.07
400.287	428.03
400.5	178.17
400.714	219.13
400.927	65.54
401.141	385.02
401.354	1296.36
401.567	452.6
401.781	-12.29
401.994	522.23
402.208	833.52
402.421	73.73
402.635	69.63
402.848	256
403.061	493.56
403.275	155.65
403.488	-12.29
403.701	684.02
403.915	503.8
404.128	157.69
404.341	71.68
404.555	385.02
404.768	169.98
404.981	212.99
405.195	2.05
405.408	716.79
405.621	497.66
405.834	231.42
406.048	-8.19
406.261	643.06
406.474	647.16
406.687	-36.86
406.9	217.08
407.114	370.68
407.327	415.74
407.54	-49.15
407.753	-98.3
407.966	98.3
408.179	430.07
408.392	24.58
408.605	-63.49
408.819	454.65
409.032	438.27
409.245	4.1
409.458	264.19
409.671	421.88
409.884	559.1
410.097	-81.92
410.31	307.2
410.523	509.94
410.736	163.84
410.949	155.65
411.162	145.41
411.375	655.35
411.588	544.76
411.801	256
412.014	55.3
412.227	350.2
412.44	282.62
412.653	155.65
412.865	194.56
413.078	579.58
413.291	423.93
413.504	198.65
413.717	53.25
413.93	479.22
414.143	108.54
414.356	157.69
414.568	-61.44
414.781	516.09
414.994	380.92
415.207	165.89
415.42	231.42
415.632	606.2
415.845	821.24
416.058	-12.29
416.271	-14.34
416.483	434.17
416.696	757.75
416.909	100.35
417.121	131.07
417.334	524.28
417.547	772.08
417.759	155.65
417.972	57.34
418.185	200.7
418.397	557.05
418.61	110.59
418.823	157.69
419.035	745.46
419.248	380.92
419.46	225.28
419.673	282.62
419.885	458.75
420.098	313.34
420.311	188.41
420.523	0
420.736	600.05
420.948	409.59
421.161	180.22
421.373	34.82
421.586	503.8
421.798	221.18
422.01	73.73
422.223	339.96
422.435	274.43
422.648	589.82
422.86	186.37
423.073	114.69
423.285	620.53
423.497	217.08
423.71	190.46
423.922	163.84
424.134	708.6
424.347	845.81
424.559	505.85
424.771	536.57
424.984	401.4
425.196	591.86
425.408	126.97
425.621	169.98
425.833	722.93
426.045	831.48
426.257	143.36
426.47	266.24
426.682	651.25
426.894	598.01
427.106	362.49
427.318	350.2
427.531	327.68
427.743	632.82
427.955	309.24
428.167	802.8
428.379	694.26
428.591	511.99
428.804	374.78
429.016	208.89
429.228	389.11
429.44	696.31
429.652	546.81
429.864	159.74
430.076	475.13
430.288	479.22
430.5	387.07
430.712	401.4
430.924	831.48
431.136	653.3
431.348	159.74
431.56	231.42
431.772	407.55
431.984	444.41
432.196	360.44
432.408	272.38
432.62	448.51
432.832	677.88
433.044	634.87
433.256	452.6
433.468	786.42
433.679	317.44
433.891	274.43
434.103	598.01
434.315	1034.22
434.527	772.08
434.739	397.31
434.95	616.44
435.162	851.96
435.374	399.35
435.586	356.35
435.798	409.59
436.009	296.96
436.221	581.62
436.433	350.2
436.645	487.42
436.856	473.08
437.068	991.22
437.28	399.35
437.491	663.54
437.703	851.96
437.915	649.21
438.126	534.52
438.338	780.28
438.55	712.69
438.761	864.24
438.973	524.28
439.184	473.08
439.396	704.5
439.608	849.91
439.819	434.17
440.031	571.38
440.242	987.12
440.454	968.69
440.665	489.46
440.877	630.77
441.088	835.57
441.3	712.69
441.511	317.44
441.723	434.17
441.934	837.62
442.146	651.25
442.357	722.93
442.569	860.15
442.78	786.42
442.991	1339.37
443.203	876.53
443.414	507.9
443.626	1044.46
443.837	638.97
444.048	546.81
444.26	448.51
444.471	747.51
444.682	1040.37
444.894	319.48
445.105	389.11
445.316	1114.1
445.528	946.16
445.739	765.94
445.95	659.45
446.161	890.87
446.373	1132.53
446.584	616.44
446.795	614.39
447.006	1138.67
447.217	1261.55
447.429	421.88
447.64	491.51
447.851	1224.69
448.062	921.59
448.273	321.53
448.484	575.48
448.695	1052.66
448.907	806.9
449.118	663.54
449.329	978.93
449.54	849.91
449.751	724.98
449.962	630.77
450.173	698.36
450.384	1136.62
450.595	1277.93
450.806	761.84
451.017	780.28
451.228	1241.07
451.439	1175.53
451.65	788.47
451.861	352.25
452.072	790.52
452.283	954.35
452.494	897.01
452.705	696.31
452.915	1269.74
453.126	1069.04
453.337	847.86
453.548	739.32
453.759	1159.15
453.97	1462.25
454.181	991.22
454.391	817.14
454.602	1052.66
454.813	1155.05
455.024	858.1
455.235	708.6
455.445	1058.8
455.656	1243.12
455.867	958.45
456.078	882.67
456.288	841.72
456.499	1263.6
456.71	802.8
456.921	1093.62
457.131	1279.98
457.342	1163.25
457.553	913.39
457.763	872.43
457.974	1308.65
458.184	1331.18
458.395	909.3
458.606	741.36
458.816	1466.35
459.027	1669.09
459.237	1130.48
459.448	817.14
459.659	1382.38
459.869	1830.88
460.08	905.2
460.29	1081.33
460.501	1722.34
460.711	1013.74
460.922	802.8
461.132	1101.81
461.343	1974.24
461.553	1023.98
461.764	1122.29
461.974	1073.14
462.184	1441.77
462.395	1458.15
462.605	1146.86
462.816	1050.61
463.026	1347.56
463.236	1687.53
463.447	995.31
463.657	1085.42
463.867	1638.38
464.078	1359.85
464.288	1196.01
464.498	1124.33
464.709	1366
464.919	1339.37
465.129	1318.89
465.339	1261.55
465.55	1581.03
465.76	1693.67
465.97	1325.04
466.18	1212.4
466.391	1824.74
466.601	1621.99
466.811	1527.78
467.021	1142.77
467.231	1716.2
467.441	1791.97
467.651	1464.3
467.862	1241.07
468.072	1746.92
468.282	2068.45
468.492	1370.09
468.702	1515.5
468.912	1982.43
469.122	2418.65
469.332	1757.16
469.542	1474.54
469.752	1961.95
469.962	1826.79
470.172	1576.94
470.382	1599.46
470.592	2015.2
470.802	2226.14
471.012	1849.32
471.222	1642.47
471.432	2133.98
471.642	2039.78
471.852	2017.25
472.062	1771.49
472.272	1984.48
472.482	1826.79
472.691	1832.93
472.901	1703.91
473.111	2224.09
473.321	2740.18
473.531	1900.51
473.741	2179.04
473.95	2457.56
474.16	2324.44
474.37	2123.74
474.58	1912.8
474.79	2715.61
474.999	2488.28
475.209	2004.96
475.419	2152.42
475.628	2375.64
475.838	2750.42
476.048	2265.05
476.258	2084.83
476.467	2828.24
476.677	2443.23
476.886	2531.29
477.096	2531.29
477.306	2406.36
477.515	2815.96
477.725	2437.08
477.935	2502.62
478.144	3223.5
478.354	2713.56
478.563	2514.91
478.773	2580.44
478.982	2822.1
479.192	3053.52
479.401	2529.24
479.611	2625.5
479.82	2736.09
480.03	3026.9
480.239	2660.31
480.449	2666.46
480.658	3295.18
480.868	3016.66
481.077	2901.97
481.287	2832.34
481.496	3196.88
481.705	3479.5
481.915	3051.47
482.124	3125.2
482.333	3241.93
482.543	3665.86
482.752	3149.78
482.961	2951.12
483.171	3522.51
483.38	3301.33
483.589	3190.74
483.799	3157.97
484.008	3477.45
484.217	3649.48
484.426	3313.61
484.636	3174.35
484.845	3567.56
485.054	3217.36
485.263	3653.58
485.472	3258.32
485.682	4161.47
485.891	3649.48
486.1	3321.81
486.309	3651.53
486.518	3964.87
486.727	4140.99
486.936	3465.16
487.146	3817.41
487.355	4155.33
487.564	3645.38
487.773	3727.3
487.982	3602.38
488.191	3878.85
488.4	3938.24
488.609	3708.87
488.818	3798.98
489.027	4487.1
489.236	4474.81
489.445	4005.83
489.654	3692.49
489.863	4386.75
490.072	4214.72
490.281	4265.92
490.49	3952.58
490.698	4571.07
490.907	4566.97
491.116	4102.08
491.325	3960.77
491.534	4661.18
491.743	4323.26
491.952	4304.83
492.16	4175.81
492.369	4550.59
492.578	4802.49
492.787	4372.41
492.996	4120.51
493.204	4497.34
493.413	5136.31
493.622	4292.54
493.831	4251.58
494.039	5083.06
494.248	4401.08
494.457	4333.5
494.665	4315.07
494.874	4882.36
495.083	5169.07
495.291	4476.86
495.5	4478.91
495.709	5207.98
495.917	4974.52
496.126	4739
496.335	4466.62
496.543	4745.14
496.752	5101.49
496.96	5050.29
497.169	4640.7
497.377	5074.87
497.586	5420.97
497.794	4876.21
498.003	4634.55
498.211	5236.66
498.42	5337.01
498.628	4962.23
498.837	4775.86
499.045	5345.2
499.254	5232.56
499.462	4931.51
499.671	4997.04
499.879	5781.42
500.087	5728.17
500.296	4982.71
500.504	5011.38
500.713	5416.88
500.921	5975.97
501.129	5279.66
501.338	5095.35
501.546	5545.9
501.754	5468.08
501.962	5287.86
502.171	5091.25
502.379	5779.37
502.587	5900.2
502.795	5402.54
503.004	5341.1
503.212	5633.96
503.42	5777.32
503.628	5455.79
503.837	5603.24
504.045	6008.74
504.253	6209.44
504.461	5527.47
504.669	5261.23
504.877	5869.48
505.085	6266.78
505.294	5371.82
505.502	5808.04
505.71	5916.58
505.918	5951.4
506.126	5595.05
506.334	5701.55
506.542	5935.01
506.75	5918.63
506.958	5846.95
507.166	5824.42
507.374	5971.88
507.582	6395.81
507.79	5982.12
507.998	5801.9
508.206	6266.78
508.414	6213.54
508.622	5785.51
508.83	5707.69
509.037	6526.88
509.245	6109.09
509.453	5881.77
509.661	5826.47
509.869	6301.6
510.077	6244.26
510.285	6076.32
510.492	5609.39
510.7	6746.01
510.908	6385.57
511.116	6168.48
511.324	5982.12
511.531	6354.85
511.739	6365.09
511.947	6176.67
512.155	6496.16
512.362	6641.56
512.57	6188.96
512.778	6156.19
512.985	5955.49
513.193	6627.23
513.401	6815.64
513.608	6301.6
513.816	6274.98
514.024	6635.42
514.231	6655.9
514.439	6281.12
514.646	6240.16
514.854	6782.87
515.061	6809.5
515.269	6205.35
515.477	6377.37
515.684	6592.41
515.892	6946.71
516.099	6213.54
516.307	6250.4
516.514	6971.29
516.722	7262.1
516.929	6676.38
517.136	6358.94
517.344	7210.9
517.551	6903.7
517.759	6700.95
517.966	6647.71
518.173	6776.73
518.381	6903.7
518.588	6559.64
518.796	6614.94
519.003	7020.44
519.21	6922.13
519.418	6768.54
519.625	6967.19
519.832	6985.62
520.039	7276.43
520.247	6553.5
520.454	7024.53
520.661	7446.41
520.868	7071.64
521.076	6926.23
521.283	6848.41
521.49	7796.62
521.697	7212.95
521.904	6946.71
522.112	6811.54
522.319	7468.94
522.526	7430.03
522.733	6920.09
522.94	7055.25
523.147	7499.66
523.354	7587.72
523.561	6780.82
523.768	7110.55
523.975	7573.39
524.183	7583.63
524.39	7323.54
524.597	7165.84
524.804	7450.51
525.011	7487.37
525.218	7161.75
525.425	7317.39
525.632	7917.45
525.838	7487.37
526.045	7262.1
526.252	7409.55
526.459	8892.28
526.666	8603.52
526.873	7280.53
527.08	7462.8
527.287	8126.34
527.494	7960.45
527.701	7380.88
527.907	7335.82
528.114	8060.81
528.321	7860.1
528.528	7491.47
528.735	7507.85
528.941	7733.13
529.148	7581.58
529.355	7749.51
529.562	7485.33
529.768	8296.32
529.975	7950.21
530.182	7620.49
530.388	7671.69
530.595	8257.41
530.802	7675.79
531.008	8069
531.215	7851.91
531.422	8750.97
531.628	8660.86
531.835	7841.67
532.042	7987.08
532.248	8097.67
532.455	8269.7
532.661	7923.59
532.868	8023.94
533.074	8212.35
533.281	8499.07
533.487	7960.45
533.694	7991.17
533.9	8036.23
534.107	8439.68
534.313	8069
534.52	8011.65
534.726	8413.06
534.933	8818.55
535.139	8118.15
535.345	8124.29
535.552	8501.12
535.758	8535.93
535.965	8148.87
536.171	8042.37
536.377	8675.2
536.584	8781.69
536.79	8204.16
536.996	8347.52
537.203	8566.65
537.409	8681.34
537.615	8531.84
537.821	8501.12
538.028	8920.95
538.234	8834.94
538.44	8337.28
538.646	8511.36
538.853	8736.63
539.059	8779.64
539.265	8857.46
539.471	8292.23
539.677	8998.77
539.883	8890.23
540.09	8560.51
540.296	9088.89
540.502	8748.92
540.708	8726.39
540.914	8826.75
541.12	8607.61
541.326	9172.85
541.532	9213.81
541.738	8941.43
541.944	8857.46
542.15	9291.63
542.356	8884.09
542.562	8619.9
542.768	8806.27
542.974	9713.52
543.18	9568.11
543.386	8978.3
543.592	8871.8
543.798	9486.19
544.004	9451.38
544.21	9054.07
544.415	9064.31
544.621	9404.27
544.827	9600.88
545.033	8929.14
545.239	9344.88
545.445	9240.43
545.651	9480.05
545.856	9140.08
546.062	9043.83
546.268	9258.87
546.474	9518.96
546.679	8968.06
546.885	9138.04
547.091	9346.93
547.297	10135.4
547.502	9367.41
547.708	9109.36
547.914	9234.29
548.119	9598.83
548.325	9273.2
548.531	9056.12
548.736	9871.21
548.942	9529.2
549.147	9308.02
549.353	9441.14
549.559	9631.6
549.764	9842.54
549.97	9396.08
550.175	9521.01
550.381	9903.98
550.586	9670.51
550.792	9609.07
550.997	9324.4
551.203	9961.32
551.408	9949.03
551.614	9596.78
551.819	9467.76
552.025	10315.62
552.23	10229.6
552.435	9525.1
552.641	9938.79
552.846	9899.88
553.052	10461.02
553.257	9711.47
553.462	9815.91
553.668	9885.55
553.873	10497.89
554.078	9813.87
554.283	9711.47
554.489	10098.53
554.694	10196.84
554.899	9752.43
555.105	10045.29
555.31	10119.01
555.515	10235.75
555.72	9760.62
555.925	9828.2
556.131	10588
556.336	10010.47
556.541	9996.14
556.746	9801.58
556.951	10592.09
557.156	10727.26
557.361	10182.5
557.567	10332
557.772	11239.25
557.977	10522.46
558.182	10098.53
558.387	10022.76
558.592	10385.25
558.797	10735.45
559.002	10270.56
559.207	10401.63
559.412	10452.83
559.617	10772.32
559.822	10037.09
560.027	10061.67
560.232	10596.19
560.437	10970.97
560.642	10174.31
560.847	10260.32
561.051	10628.96
561.256	10657.63
561.461	10286.95
561.666	10215.27
561.871	10739.55
562.076	11122.52
562.281	10540.9
562.485	10315.62
562.69	10854.23
562.895	10854.23
563.1	10344.29
563.305	10381.15
563.509	10987.35
563.714	11390.8
563.919	10577.76
564.123	10575.71
564.328	10616.67
564.533	11032.41
564.737	10567.52
564.942	10448.74
565.147	11335.51
565.351	11378.51
565.556	10762.08
565.761	10559.33
565.965	11030.36
566.17	10706.78
566.374	10506.08
566.579	10676.06
566.784	10895.19
566.988	10909.53
567.193	10497.89
567.397	10458.98
567.602	10620.77
567.806	11030.36
568.011	10958.68
568.215	10825.56
568.42	11202.39
568.624	11046.74
568.828	10868.57
569.033	11030.36
569.237	11417.43
569.442	11384.66
569.646	10555.23
569.85	10895.19
570.055	10934.11
570.259	11210.58
570.463	11196.25
570.668	10952.54
570.872	11071.32
571.076	11046.74
571.281	11136.85
571.485	11026.26
571.689	11306.84
571.893	11421.52
572.098	11214.68
572.302	11011.93
572.506	11530.06
572.71	11464.53
572.914	11054.94
573.119	11169.62
573.323	11671.37
573.527	11716.43
573.731	11376.47
573.935	10927.96
574.139	11568.98
574.343	11181.91
574.547	11401.04
574.751	11319.12
574.955	11777.87
575.159	11818.83
575.364	10962.78
575.568	11173.72
575.772	11360.08
575.976	11923.27
576.18	11216.72
576.383	11482.96
576.587	11738.96
576.791	11757.39
576.995	11183.96
577.199	11329.36
577.403	11714.38
577.607	12250.95
577.811	11317.08
578.015	11382.61
578.219	11908.94
578.422	12058.44
578.626	11411.28
578.83	11614.03
579.034	12158.79
579.238	11843.4
579.442	11450.19
579.645	11984.71
579.849	11837.26
580.053	12062.54
580.257	11575.12
580.46	11837.26
580.664	12232.52
580.868	12089.16
581.071	11951.95
581.275	11693.9
581.479	11599.69
581.682	12134.21
581.886	11749.2
582.09	12048.2
582.293	12140.36
582.497	12064.58
582.7	12123.98
582.904	11628.37
583.107	11910.99
583.311	12224.33
583.515	11812.68
583.718	11784.01
583.922	12482.37
584.125	12828.48
584.329	11704.14
584.532	11923.27
584.735	12570.43
584.939	12062.54
585.142	11736.91
585.346	11874.12
585.549	12250.95
585.753	12193.61
585.956	11943.75
586.159	12222.28
586.363	12992.31
586.566	12496.71
586.769	12027.72
586.973	12031.82
587.176	12820.28
587.379	12668.73
587.582	12648.26
587.786	12384.07
587.989	12478.27
588.192	13182.77
588.395	12318.53
588.599	12672.83
588.802	12324.68
589.005	12500.8
589.208	12300.1
589.411	12459.84
589.615	12906.3
589.818	13162.3
590.021	12701.5
590.224	12535.62
590.427	12951.35
590.63	12787.52
590.833	12377.92
591.036	12418.88
591.239	12865.34
591.442	12578.62
591.645	12744.51
591.848	12828.48
592.051	12971.83
592.254	13072.18
592.457	12640.06
592.66	12590.91
592.863	13113.14
593.066	13147.96
593.269	12738.37
593.472	12558.14
593.675	13225.78
593.878	13180.73
594.081	12877.63
594.284	12748.61
594.486	13238.07
594.689	12881.72
594.892	13078.33
595.095	12822.33
595.298	13279.03
595.5	13098.81
595.703	12877.63
595.906	12988.22
596.109	13373.24
596.311	13397.81
596.514	12881.72
596.717	13006.65
596.92	13662
597.122	13338.42
597.325	12451.65
597.528	12816.19
597.73	13567.79
597.933	13324.08
598.136	13061.94
598.338	12758.85
598.541	13524.79
598.743	13569.84
598.946	13023.03
599.148	13293.37
599.351	13625.14
599.554	13670.19
599.756	13434.67
599.959	13207.35
600.161	13709.1
600.363	14147.37
600.566	13326.13
600.768	13147.96
600.971	13758.25
601.173	13641.52
601.376	13326.13
601.578	13209.4
601.78	13541.17
601.983	14155.56
602.185	13115.19
602.388	13557.55
602.59	13670.19
602.792	13713.2
602.995	13709.1
603.197	13496.11
603.399	13803.31
603.601	14096.17
603.804	13434.67
604.006	13463.35
604.208	13668.14
604.41	13401.91
604.613	13672.24
604.815	13610.8
605.017	14237.48
605.219	13524.79
605.421	13651.76
605.623	13592.37
605.826	14470.95
606.028	14040.87
606.23	13369.14
606.432	13590.32
606.634	14227.24
606.836	13961
607.038	13618.99
607.24	13883.18
607.442	13872.94
607.644	14024.49
607.846	13877.04
608.048	13502.26
608.25	14317.35
608.452	13924.14
608.654	13549.36
608.856	13524.79
609.058	13659.95
609.26	14239.53
609.462	13909.8
609.664	13850.41
609.866	14333.73
610.067	14241.57
610.269	13911.85
610.471	13541.17
610.673	13829.93
610.875	14305.06
611.077	13573.94
611.278	13838.12
611.48	14014.25
611.682	14509.86
611.884	13903.66
612.085	13586.22
612.287	13963.05
612.489	14198.57
612.69	13504.31
612.892	13795.12
613.094	14270.25
613.295	13958.95
613.497	13754.16
613.699	13598.51
613.9	14403.36
614.102	14450.47
614.304	13772.59
614.505	13377.33
614.707	14094.12
614.908	14032.68
615.11	13621.04
615.311	13801.26
615.513	14171.94
615.714	14464.8
615.916	14004.01
616.117	13729.58
616.319	13856.56
616.52	14395.17
616.722	13907.76
616.923	13956.91
617.124	14415.65
617.326	14108.46
617.527	14192.42
617.729	14090.02
617.93	14196.52
618.131	14110.5
618.333	13803.31
618.534	14114.6
618.735	14110.5
618.937	14591.78
619.138	13565.75
619.339	13606.7
619.54	14231.33
619.742	14085.93
619.943	14067.5
620.144	14063.4
620.345	14479.14
620.546	14358.31
620.748	13895.47
620.949	13840.17
621.15	14446.37
621.351	14315.3
621.552	13786.93
621.753	13686.58
621.954	13823.79
622.155	14700.32
622.356	13762.35
622.558	14040.87
622.759	14243.62
622.96	14636.83
623.161	13926.19
623.362	13805.36
623.563	14202.66
623.764	14188.33
623.965	14225.19
624.166	14382.88
624.366	14151.46
624.567	14192.42
624.768	13985.58
624.969	13942.57
625.17	14442.28
625.371	14255.91
625.572	13948.72
625.773	13995.82
625.973	14614.3
626.174	14634.78
626.375	14319.4
626.576	14262.05
626.777	14538.53
626.977	14780.19
627.178	14071.59
627.379	14133.03
627.58	14278.44
627.78	14395.17
627.981	13981.48
628.182	14487.33
628.382	14690.08
628.583	14184.23
628.784	14004.01
628.984	14354.21
629.185	14683.94
629.386	14477.09
629.586	14423.84
629.787	14208.81
629.987	14874.4
630.188	14575.39
630.388	14221.09
630.589	14073.64
630.79	15195.93
630.99	14710.56
631.191	14612.26
631.391	14454.56
631.591	14714.66
631.792	14909.21
631.992	14599.97
632.193	14401.32
632.393	15259.42
632.594	14528.29
632.794	14208.81
632.994	14415.65
633.195	14528.29
633.395	14642.98
633.595	14241.57
633.796	14688.03
633.996	14395.17
634.196	14907.16
634.397	14241.57
634.597	14559.01
634.797	14589.73
634.997	15054.62
635.198	14429.99
635.398	14309.16
635.598	14876.45
635.798	15124.25
635.998	14878.49
636.199	14612.26
636.399	14706.46
636.599	14677.79
636.799	14542.63
636.999	14780.19
637.199	14888.73
637.399	14845.73
637.599	14565.15
637.799	14563.11
637.999	14806.81
638.199	15210.26
638.399	14329.64
638.599	14509.86
638.799	15044.38
638.999	15200.02
639.199	15091.48
639.399	14868.25
639.599	15292.18
639.799	14454.56
639.999	14694.18
640.199	14522.15
640.399	14819.1
640.599	14784.29
640.799	15058.71
640.998	14915.36
641.198	15302.42
641.398	14989.08
641.598	14700.32
641.798	14929.69
641.997	15718.16
642.197	14780.19
642.397	15005.47
642.597	14765.85
642.796	15370.01
642.996	15437.59
643.196	14995.23
643.395	14362.4
643.595	14874.4
643.795	14499.62
643.994	14735.14
644.194	14858.01
644.394	15451.92
644.593	15214.36
644.793	14737.18
644.992	15058.71
645.192	15134.49
645.392	14655.26
645.591	15210.26
645.791	14849.82
645.99	15286.04
646.19	14898.97
646.389	14796.57
646.589	14917.4
646.788	15435.54
646.987	15302.42
647.187	15226.65
647.386	15148.82
647.586	15277.85
647.785	15431.44
647.984	14798.62
648.184	15068.95
648.383	15019.8
648.582	15030.04
648.782	15370.01
648.981	15136.54
649.18	14929.69
649.38	15372.05
649.579	14810.91
649.778	14921.5
649.977	15429.4
650.177	15380.25
650.376	14858.01
650.575	14749.47
650.774	15642.39
650.973	14941.98
651.173	14860.06
651.372	15054.62
651.571	15316.76
651.77	15431.44
651.969	15157.02
652.168	15136.54
652.367	15144.73
652.566	15107.87
652.765	15060.76
652.964	15468.31
653.163	15679.25
653.362	15322.9
653.561	15124.25
653.76	15200.02
653.959	15245.08
654.158	15406.87
654.357	15275.8
654.556	15357.72
654.755	15791.89
654.954	15484.69
655.153	15329.05
655.352	15218.46
655.551	15623.95
655.749	15265.56
655.948	15370.01
656.147	15341.33
656.346	15556.37
656.545	15105.82
656.743	15357.72
656.942	15380.25
657.141	15593.23
657.34	15218.46
657.538	15079.19
657.737	15230.74
657.936	15365.91
658.135	15679.25
658.333	15163.16
658.532	15400.73
658.731	16062.22
658.929	15634.19
659.128	15433.49
659.326	15376.15
659.525	15851.28
659.724	15496.98
659.922	14972.7
660.121	15077.15
660.319	15726.35
660.518	15451.92
660.716	15101.72
660.915	15351.57
661.113	15978.25
661.312	15329.05
661.51	15333.14
661.709	15255.32
661.907	15746.83
662.105	15892.24
662.304	15277.85
662.502	15580.95
662.701	15873.81
662.899	15554.32
663.097	15740.69
663.296	15525.65
663.494	16043.79
663.692	15806.22
663.891	15306.52
664.089	15372.05
664.287	15775.5
664.485	15961.87
664.684	15288.09
664.882	15458.07
665.08	15816.46
665.278	15855.37
665.476	15243.03
665.675	15675.15
665.873	15861.52
666.071	15744.78
666.269	15570.71
666.467	15492.88
666.665	15621.91
666.863	15329.05
667.061	15562.51
667.259	15255.32
667.457	15705.87
667.655	15765.26
667.853	15144.73
668.051	15335.19
668.249	15177.5
668.447	15806.22
668.645	15222.55
668.843	15658.77
669.041	15882
669.239	15468.31
669.437	15511.32
669.635	15615.76
669.833	15554.32
670.031	15615.76
670.229	15388.44
670.426	15370.01
670.624	15589.14
670.822	15392.53
671.02	15312.66
671.218	15626
671.415	15806.22
671.613	15587.09
671.811	15517.46
672.009	15453.97
672.206	15763.22
672.404	15873.81
672.602	15519.51
672.799	15509.27
672.997	15836.94
673.195	15847.18
673.392	15566.61
673.59	15259.42
673.788	15654.67
673.985	14917.4
674.183	15327
674.38	15355.67
674.578	15699.73
674.775	15269.66
674.973	15228.7
675.17	15177.5
675.368	15650.58
675.565	15544.08
675.763	15081.24
675.96	15034.14
676.158	15724.3
676.355	15036.19
676.553	14982.94
676.75	14999.32
676.947	15615.76
677.145	15380.25
677.342	15447.83
677.539	15243.03
677.737	15619.86
677.934	15642.39
678.131	15357.72
678.329	15097.63
678.526	16019.21
678.723	15666.96
678.92	15367.96
679.118	15208.22
679.315	15058.71
679.512	15732.5
679.709	15392.53
679.906	15165.21
680.104	15582.99
680.301	15283.99
680.498	15111.96
680.695	14958.36
680.892	15195.93
681.089	15238.94
681.286	15243.03
681.483	14602.02
681.68	15247.13
681.877	15519.51
682.075	15314.71
682.272	15103.77
682.469	15339.29
682.665	15197.98
682.862	14923.55
683.059	14700.32
683.256	15480.6
683.453	15277.85
683.65	15136.54
683.847	15171.35
684.044	15232.79
684.241	14989.08
684.438	15343.38
684.635	14835.49
684.831	15623.95
685.028	15638.29
685.225	15025.95
685.422	15126.3
685.619	15111.96
685.815	15146.78
686.012	15216.41
686.209	14925.6
686.405	14825.25
686.602	15570.71
686.799	14612.26
686.996	14874.4
687.192	14624.54
687.389	15546.13
687.586	14655.26
687.782	14802.72
687.979	15458.07
688.175	15353.62
688.372	15060.76
688.568	14634.78
688.765	14784.29
688.962	15283.99
689.158	15099.67
689.355	14550.82
689.551	15322.9
689.748	14995.23
689.944	14921.5
690.14	14712.61
690.337	15243.03
690.533	15103.77
690.73	14735.14
690.926	14923.55
691.123	14884.64
691.319	14796.57
691.515	14434.08
691.712	14892.83
691.908	14862.11
692.104	14743.33
692.301	14884.64
692.497	14468.9
692.693	15263.51
692.889	15167.26
693.086	14726.94
693.282	14556.96
693.478	14864.16
693.674	15118.11
693.87	14618.4
694.067	14423.84
694.263	14784.29
694.459	14931.74
694.655	15046.43
694.851	14825.25
695.047	14937.88
695.243	15034.14
695.439	14782.24
695.635	14511.91
695.831	14702.37
696.027	14806.81
696.224	14438.18
696.42	14991.13
696.615	14974.75
696.811	14802.72
697.007	14309.16
697.203	14634.78
697.399	14968.6
697.595	15083.29
697.791	14169.9
697.987	14493.47
698.183	14417.7
698.379	14413.6
698.575	14663.46
698.77	14849.82
698.966	14808.86
699.162	14657.31
699.358	14329.64
699.554	14384.93
699.749	14636.83
699.945	14767.9
700.141	14303.01
700.337	14479.14
700.532	14307.11
700.728	14382.88
700.924	14260.01
701.119	14325.54
701.315	14780.19
701.511	14548.77
701.706	14419.75
701.902	14016.3
702.097	14407.46
702.293	14622.5
702.489	14307.11
702.684	14407.46
702.88	14659.36
703.075	14233.38
703.271	14368.55
703.466	14028.59
703.662	14585.63
703.857	14786.33
704.053	14090.02
704.248	14434.08
704.443	14718.75
704.639	14784.29
704.834	14440.23
705.03	14159.66
705.225	14483.23
705.42	15075.1
705.616	14520.1
705.811	14296.87
706.006	14464.8
706.202	14343.97
706.397	14212.9
706.592	14194.47
706.787	14384.93
706.983	14325.54
707.178	14477.09
707.373	14184.23
707.568	14438.18
707.763	14518.05
707.959	14155.56
708.154	14253.86
708.349	14475.04
708.544	14585.63
708.739	14436.13
708.934	14098.22
709.129	14319.4
709.324	14421.8
709.519	14108.46
709.714	14067.5
709.909	14741.28
710.104	14585.63
710.299	13940.52
710.494	14210.86
710.689	14487.33
710.884	14225.19
711.079	14161.7
711.274	14204.71
711.469	14567.2
711.664	14212.9
711.859	14122.79
712.054	14335.78
712.249	14348.07
712.443	14491.43
712.638	13838.12
712.833	13836.08
713.028	14194.47
713.223	13948.72
713.417	13946.67
713.612	13782.83
713.807	14489.38
714.002	14808.86
714.196	13989.67
714.391	14032.68
714.586	14210.86
714.78	14085.93
714.975	13922.09
715.17	13774.64
715.364	13946.67
715.559	14489.38
715.754	13625.14
715.948	13651.76
716.143	14327.59
716.337	14038.83
716.532	14214.95
716.726	13770.54
716.921	14110.5
717.115	14329.64
717.31	13739.82
717.504	14458.66
717.699	14130.98
717.893	14255.91
718.088	13387.57
718.282	13758.25
718.476	13977.39
718.671	14016.3
718.865	13725.49
719.059	13545.27
719.254	13952.81
719.448	14399.27
719.642	15118.11
719.837	13555.51
720.031	14077.74
720.225	14153.51
720.419	13784.88
720.614	13565.75
720.808	13936.43
721.002	13584.18
721.196	13301.56
721.39	13512.5
721.585	14085.93
721.779	13805.36
721.973	13528.88
722.167	13387.57
722.361	13823.79
722.555	13842.22
722.749	13512.5
722.943	13659.95
723.137	13438.77
723.331	13819.69
723.525	13487.92
723.719	13461.3
723.913	13778.73
724.107	13928.24
724.301	13363
724.495	13592.37
724.689	14022.44
724.883	14229.29
725.077	13471.54
725.271	13369.14
725.465	14102.31
725.659	13668.14
725.853	13590.32
726.046	13365.04
726.24	13279.03
726.434	13850.41
726.628	13315.89
726.822	13442.87
727.015	14042.92
727.209	13811.5
727.403	13502.26
727.596	13199.16
727.79	14092.07
727.984	13838.12
728.177	13166.39
728.371	13631.28
728.565	13905.71
728.758	13377.33
728.952	13264.69
729.146	13420.34
729.339	13915.95
729.533	13410.1
729.726	13471.54
729.92	13233.97
730.113	13803.31
730.307	13508.4
730.5	13305.65
730.694	13193.01
730.887	13324.08
731.081	13791.02
731.274	13240.12
731.468	13162.3
731.661	13604.66
731.854	13385.52
732.048	13272.89
732.241	13274.93
732.435	13225.78
732.628	13594.42
732.821	13281.08
733.014	13479.73
733.208	13299.51
733.401	13864.75
733.594	13424.44
733.788	13459.25
733.981	13768.49
734.174	13504.31
734.367	13145.91
734.56	13506.35
734.754	13831.98
734.947	13719.34
735.14	13299.51
735.333	13393.72
735.526	13702.96
735.719	13389.62
735.912	13188.92
736.105	13133.62
736.298	13551.41
736.491	13242.17
736.684	13246.26
736.877	13135.67
737.07	13614.9
737.263	13705.01
737.456	13260.6
737.649	13172.53
737.842	13207.35
738.035	13385.52
738.228	13254.45
738.421	13510.45
738.614	13819.69
738.807	13604.66
739	12758.85
739.192	12928.83
739.385	13432.63
739.578	13471.54
739.771	13387.57
739.964	13150.01
740.156	13336.37
740.349	13459.25
740.542	13483.83
740.735	12908.35
740.927	13197.11
741.12	13121.34
741.313	12869.44
741.505	13260.6
741.698	13502.26
741.891	13541.17
742.083	13389.62
742.276	13133.62
742.468	13211.45
742.661	13197.11
742.854	13117.24
743.046	12912.44
743.239	13596.46
743.431	13406
743.624	13137.72
743.816	12742.46
744.009	13397.81
744.201	13424.44
744.393	12920.63
744.586	12783.42
744.778	13401.91
744.971	13256.5
745.163	13207.35
745.355	13170.49
745.548	13014.84
745.74	13004.6
745.932	13066.04
746.125	12990.27
746.317	13592.37
746.509	13070.14
746.702	13025.08
746.894	12740.41
747.086	13168.44
747.278	13242.17
747.471	12902.2
747.663	12967.74
747.855	13342.52
748.047	13537.07
748.239	13014.84
748.431	12889.92
748.623	13590.32
748.815	13625.14
749.008	13014.84
749.2	12902.2
749.392	13213.49
749.584	13369.14
749.776	12959.55
749.968	13125.43
750.16	13791.02
750.352	13045.56
750.544	12703.55
750.736	12918.59
750.928	13209.4
751.12	12914.49
751.311	12564.29
751.503	12777.28
751.695	13242.17
751.887	13031.23
752.079	12601.15
752.271	12586.82
752.463	13889.32
752.654	13264.69
752.846	12769.09
753.038	12613.44
753.23	13063.99
753.421	13184.82
753.613	12537.66
753.805	13233.97
753.997	13051.7
754.188	13229.88
754.38	12709.69
754.572	12742.46
754.763	12891.96
754.955	12848.96
755.146	12527.42
755.338	12420.93
755.53	13035.32
755.721	12732.22
755.913	12164.93
756.104	12408.64
756.296	12840.76
756.487	12908.35
756.679	12371.78
756.87	12519.23
757.062	12539.71
757.253	12859.2
757.445	12330.82
757.636	12506.95
757.827	12930.87
758.019	13250.36
758.21	12218.18
758.401	12504.9
758.593	12971.83
758.784	13082.42
758.975	12240.71
759.167	12326.72
759.358	12793.66
759.549	12840.76
759.74	12199.75
759.932	12089.16
760.123	12666.69
760.314	12633.92
760.505	12173.13
760.696	12220.23
760.888	12953.4
761.079	12242.76
761.27	12228.42
761.461	11947.85
761.652	12910.4
761.843	12101.45
762.034	12289.86
762.225	12214.09
762.416	12238.66
762.607	12185.41
762.798	12005.19
762.989	12132.17
763.18	13266.74
763.371	12035.91
763.562	11958.09
763.753	11802.44
763.944	12361.54
764.135	12472.13
764.326	12267.33
764.517	11964.23
764.708	12046.15
764.899	12191.56
765.089	11779.92
765.28	11644.75
765.471	12083.02
765.662	12150.6
765.853	11792.2
766.043	11937.61
766.234	12388.16
766.425	12119.88
766.615	11937.61
766.806	11618.13
766.997	12504.9
767.187	12064.58
767.378	11898.7
767.569	11708.24
767.759	12300.1
767.95	11902.79
768.141	11929.42
768.331	11730.76
768.522	11892.55
768.712	12060.49
768.903	11900.75
769.093	11536.21
769.284	12169.03
769.474	11913.03
769.665	11378.51
769.855	11450.19
770.046	12064.58
770.236	11673.42
770.426	11661.13
770.617	11513.68
770.807	11763.53
770.998	11652.94
771.188	11798.35
771.378	11515.73
771.569	12076.87
771.759	11769.68
771.949	11368.27
772.139	11149.14
772.33	11669.33
772.52	12101.45
772.71	11425.62
772.9	11214.68
773.09	12183.37
773.281	12142.41
773.471	11265.88
773.661	11347.79
773.851	11753.29
774.041	11450.19
774.231	11194.2
774.421	11632.46
774.611	11800.4
774.802	11556.69
774.992	11257.68
775.182	11009.88
775.372	11695.95
775.562	11683.66
775.752	11149.14
775.942	11210.58
776.131	11704.14
776.321	11616.08
776.511	11147.09
776.701	10831.71
776.891	11646.8
777.081	10948.44
777.271	11118.42
777.461	11042.65
777.651	11495.25
777.84	11523.92
778.03	11050.84
778.22	10981.21
778.41	11521.87
778.599	11126.61
778.789	11089.75
778.979	10899.29
779.169	11161.43
779.358	11081.56
779.548	11251.54
779.738	10768.22
779.927	11140.95
780.117	11048.79
780.307	10733.4
780.496	10776.41
780.686	11104.09
780.875	11409.23
781.065	10997.59
781.254	10766.17
781.444	10848.09
781.633	11159.38
781.823	10583.9
782.012	10508.13
782.202	10694.49
782.391	10893.15
782.581	10393.44
782.77	11112.28
782.96	11108.18
783.149	10983.26
783.338	10524.51
783.528	10381.15
783.717	11173.72
783.906	11149.14
784.096	10739.55
784.285	10403.68
784.474	10657.63
784.663	10698.59
784.853	10522.46
785.042	10491.74
785.231	10733.4
785.42	10923.87
785.61	10569.57
785.799	10278.76
785.988	10575.71
786.177	10334.05
786.366	10299.23
786.555	10694.49
786.744	10905.43
786.933	10639.2
787.122	10229.6
787.312	10227.56
787.501	10415.97
787.69	10606.43
787.879	10286.95
788.068	10096.49
788.257	10395.49
788.445	10381.15
788.634	10561.37
788.823	10168.16
789.012	10975.06
789.201	10753.88
789.39	10254.18
789.579	10047.33
789.768	10555.23
789.957	10596.19
790.145	9949.03
790.334	9836.39
790.523	10233.7
790.712	10198.88
790.9	10303.33
791.089	9992.04
791.278	10624.86
791.467	10313.57
791.655	10370.91
791.844	10588
792.033	10149.73
792.221	10067.81
792.41	10084.2
792.599	9701.23
792.787	10364.77
792.976	10301.28
793.164	9797.48
793.353	10073.96
793.541	10260.32
793.73	10041.19
793.918	9887.59
794.107	9889.64
794.295	10172.26
794.484	10018.66
794.672	9875.31
794.861	9811.82
795.049	10270.56
795.238	10424.16
795.426	9660.27
795.614	9709.42
795.803	10215.27
795.991	10565.47
796.179	10061.67
796.368	9709.42
796.556	10465.12
796.744	9910.12
796.932	9836.39
797.121	9641.84
797.309	9936.74
797.497	10368.87
797.685	9789.29
797.874	9813.87
798.062	10002.28
798.25	10280.8
798.438	9901.93
798.626	9807.72
798.814	10233.7
799.002	10315.62
799.19	9809.77
799.378	9854.83
799.566	10252.13
799.755	10250.08
799.943	9944.94
800.131	9809.77
800.318	10067.81
800.506	10241.89
800.694	9672.56
800.882	9836.39
801.07	10514.27
801.258	10049.38
801.446	9842.54
801.634	9619.31
801.822	10096.49
802.01	10137.45
802.197	9820.01
802.385	9975.66
802.573	10045.29
802.761	9981.8
802.949	9910.12
803.136	9629.55
803.324	10375.01
803.512	10205.03
803.699	9736.04
803.887	9463.66
804.075	10399.59
804.262	9891.69
804.45	9643.88
804.638	9787.24
804.825	9981.8
805.013	9766.76
805.201	9658.22
805.388	9662.32
805.576	9799.53
805.763	10551.14
805.951	9785.19
806.138	10035.05
806.326	10600.29
806.513	10207.08
806.701	9860.97
806.888	9650.03
807.075	10112.87
807.263	10436.45
807.45	9662.32
807.638	9932.65
807.825	10676.06
808.012	10129.25
808.2	9944.94
808.387	9967.46
808.574	10321.76
808.761	10501.98
808.949	9793.39
809.136	9854.83
809.323	10047.33
809.51	10043.24
809.698	10135.4
809.885	9963.37
810.072	10209.12
810.259	10409.83
810.446	9975.66
810.633	10022.76
810.82	10366.82
811.008	10499.94
811.195	10272.61
811.382	9940.84
811.569	10067.81
811.756	9936.74
811.943	9973.61
812.13	9891.69
812.317	10123.11
812.504	10155.88
812.691	10106.73
812.878	10102.63
813.064	10553.18
813.251	10164.07
813.438	9957.22
813.625	10055.53
813.812	10168.16
813.999	10346.34
814.186	10139.49
814.372	9895.78
814.559	10108.77
814.746	10583.9
814.933	9955.18
815.12	10225.51
815.306	10215.27
815.493	9940.84
815.68	10092.39
815.866	9762.67
816.053	10413.92
816.24	10780.51
816.426	10039.14
816.613	10024.81
816.799	10258.28
816.986	10504.03
817.173	9930.6
817.359	9770.86
817.546	10293.09
817.732	10008.42
817.919	9643.88
818.105	10053.48
818.292	10139.49
818.478	10231.65
818.665	10170.21
818.851	10059.62
819.037	10774.36
819.224	10217.32
819.41	9731.95
819.597	9901.93
819.783	10542.94
819.969	10389.35
820.156	9865.07
820.342	9703.28
820.528	10776.41
820.714	10123.11
820.901	10299.23
821.087	9889.64
821.273	10497.89
821.459	9949.03
821.646	9717.61
821.832	9645.93
822.018	10252.13
822.204	10102.63
822.39	9699.18
822.576	9830.25
822.762	10209.12
822.948	10061.67
823.134	10047.33
823.32	9738.09
823.507	9645.93
823.693	10076.01
823.879	10051.43
824.065	9566.06
824.25	9920.36
824.436	9621.36
824.622	9658.22
824.808	9697.13
824.994	9887.59
825.18	9678.7
825.366	9500.53
825.552	9760.62
825.738	9789.29
825.923	10137.45
826.109	9877.35
826.295	9521.01
826.481	9584.49
826.667	9666.41
826.852	9521.01
827.038	9490.29
827.224	10080.1
827.409	10207.08
827.595	9492.34
827.781	9523.05
827.966	10127.21
828.152	10141.54
828.338	9586.54
828.523	9303.92
828.709	9611.12
828.894	9867.11
829.08	9564.01
829.266	9408.37
829.451	9412.46
829.637	9834.35
829.822	9391.98
830.008	9332.59
830.193	9631.6
830.378	9871.21
830.564	9385.84
830.749	9097.08
830.935	9525.1
831.12	9557.87
831.305	9049.97
831.491	9394.03
831.676	9154.42
831.861	9875.31
832.047	9400.18
832.232	9006.97
832.417	9953.13
832.602	9523.05
832.788	9215.86
832.973	8947.58
833.158	9240.43
833.343	9414.51
833.528	9238.39
833.714	9187.19
833.899	9533.29
834.084	9777
834.269	9187.19
834.454	9109.36
834.639	9600.88
834.824	9240.43
835.009	9250.67
835.194	9230.2
835.379	9744.24
835.564	9781.1
835.749	9058.17
835.934	8920.95
836.119	9449.33
836.304	9457.52
836.489	8879.99
836.674	9144.18
836.859	9090.93
837.044	9568.11
837.228	9000.82
837.413	8832.89
837.598	9420.66
837.783	9475.95
837.968	8877.94
838.152	8652.67
838.337	8542.08
838.522	9414.51
838.707	9338.74
838.891	9076.6
839.076	9170.8
839.261	9348.98
839.445	8998.77
839.63	8798.07
839.815	9545.58
839.999	9283.44
840.184	8843.13
840.368	8724.35
840.553	9256.82
840.737	9512.81
840.922	8677.24
841.106	8517.5
841.291	8765.31
841.475	9006.97
841.66	8578.94
841.844	8613.76
842.029	9588.59
842.213	8380.29
842.397	8712.06
842.582	8564.61
842.766	9095.03
842.951	9146.23
843.135	8712.06
843.319	8679.29
843.504	8929.14
843.688	9080.69
843.872	8564.61
844.056	8793.98
844.241	9015.16
844.425	8744.83
844.609	8777.59
844.793	8316.8
844.977	9090.93
845.161	8869.75
845.346	8243.07
845.53	8404.86
845.714	9004.92
845.898	9123.7
846.082	8187.78
846.266	8435.58
846.45	8765.31
846.634	8716.16
846.818	8402.82
847.002	8468.35
847.186	9031.54
847.37	8392.58
847.554	8316.8
847.738	8494.97
847.922	8550.27
848.106	8724.35
848.29	8216.45
848.473	8355.71
848.657	8781.69
848.841	8621.95
849.025	8271.75
849.209	8122.24
849.392	8773.5
849.576	8695.68
849.76	7980.93
849.944	8376.19
850.127	8798.07
850.311	8114.05
850.495	8028.04
850.678	8048.52
850.862	8781.69
851.046	8775.55
851.229	8472.45
851.413	8023.94
851.596	8333.18
851.78	8421.25
851.964	8255.36
852.147	8052.61
852.331	8961.91
852.514	8566.65
852.698	7909.26
852.881	7915.4
853.065	8515.45
853.248	8400.77
853.431	7954.31
853.615	8155.01
853.798	8621.95
853.982	8228.74
854.165	8202.11
854.348	8009.61
854.532	7960.45
854.715	8015.75
854.898	8052.61
855.081	7858.06
855.265	8499.07
855.448	8624
855.631	7978.89
855.814	7999.37
855.997	8376.19
856.181	8204.16
856.364	8001.41
856.547	7720.84
856.73	8132.48
856.913	8318.85
857.096	7753.61
857.279	7786.38
857.462	7962.5
857.645	8243.07
857.828	7913.35
858.011	8052.61
858.194	8034.18
858.377	8077.19
858.56	7643.02
858.743	7839.62
858.926	7853.96
859.109	8179.59
859.292	7692.17
859.475	7634.83
859.658	8077.19
859.841	8224.64
860.023	7698.31
860.206	7532.43
860.389	8230.79
860.572	7939.97
860.755	7769.99
860.937	7765.9
861.12	7870.34
861.303	7690.12
861.486	7608.2
861.668	7497.61
861.851	8091.52
862.034	7858.06
862.216	7669.64
862.399	7327.63
862.581	7837.58
862.764	8155.01
862.947	7354.26
863.129	7354.26
863.312	7587.72
863.494	7894.92
863.677	7548.81
863.859	7088.02
864.042	7901.06
864.224	7933.83
864.406	7237.52
864.589	7245.71
864.771	7722.89
864.954	7155.6
865.136	7210.9
865.318	6838.17
865.501	7663.5
865.683	6940.57
865.865	7171.99
866.048	7169.94
866.23	7569.29
866.412	7470.99
866.594	7024.53
866.777	7313.3
866.959	7784.33
867.141	7288.72
867.323	7514
867.505	7540.62
867.687	7622.54
867.869	7448.46
868.052	7233.43
868.234	7145.36
868.416	7534.48
868.598	7661.45
868.78	7124.88
868.962	7274.39
869.144	7511.95
869.326	7536.52
869.508	6952.85
869.69	7008.15
869.872	7096.21
870.054	7632.78
870.236	6983.57
870.417	7157.65
870.599	7255.95
870.781	7688.07
870.963	7061.4
871.145	7008.15
871.327	7114.64
871.508	7331.73
871.69	7112.6
871.872	7096.21
872.054	7436.17
872.235	7415.69
872.417	7165.84
872.599	6723.48
872.78	7841.67
872.962	7319.44
873.144	6860.7
873.325	7331.73
873.507	7743.37
873.689	7278.48
873.87	7065.49
874.052	7286.67
874.233	7217.04
874.415	7393.17
874.596	7020.44
874.778	6879.13
874.959	7458.7
875.141	7501.71
875.322	6915.99
875.503	6864.79
875.685	7458.7
875.866	6930.33
876.048	6936.47
876.229	6672.28
876.41	7126.93
876.592	7337.87
876.773	7061.4
876.954	6866.84
877.136	7448.46
877.317	6948.76
877.498	6569.88
877.679	6899.61
877.86	7286.67
878.042	7237.52
878.223	7014.29
878.404	7329.68
878.585	7292.82
878.766	7640.97
878.947	7225.23
879.128	7042.96
879.309	7411.6
879.49	7339.92
879.672	7145.36
879.853	7055.25
880.034	6993.81
880.215	7348.11
880.396	7126.93
880.576	7092.12
880.757	7303.06
880.938	7726.99
881.119	7071.64
881.3	7139.22
881.481	7243.67
881.662	8386.43
881.843	7022.48
882.023	7085.97
882.204	7458.7
882.385	7542.67
882.566	7253.91
882.747	7057.3
882.927	7522.19
883.108	7454.61
883.289	7040.92
883.469	7264.15
883.65	7384.98
883.831	7485.33
884.011	7352.21
884.192	7301.01
884.373	7909.26
884.553	7712.65
884.734	7446.41
884.914	7655.31
885.095	8265.6
885.275	7821.19
885.456	7634.83
885.636	7198.61
885.817	7679.88
885.997	7661.45
886.178	7458.7
886.358	7360.4
886.538	7774.09
886.719	8685.44
886.899	7419.79
887.08	7557
887.26	7966.6
887.44	7436.17
887.621	7323.54
887.801	7591.82
887.981	8316.8
888.161	7868.3
888.342	7620.49
888.522	7573.39
888.702	8118.15
888.882	7966.6
889.062	7606.16
889.242	7206.8
889.423	8226.69
889.603	8007.56
889.783	7663.5
889.963	7528.33
890.143	7823.24
890.323	8056.71
890.503	7436.17
890.683	7495.57
890.863	7663.5
891.043	7712.65
891.223	7532.43
891.403	7686.03
891.583	7866.25
891.763	7913.35
891.943	7735.18
892.122	7442.32
892.302	7745.42
892.482	7761.8
892.662	7473.04
892.842	7454.61
893.022	7999.37
893.201	7554.96
893.381	7731.08
893.561	7413.65
893.741	7888.78
893.92	7813
894.1	7491.47
894.28	7563.15
894.459	7935.88
894.639	7825.29
894.819	7581.58
894.998	7653.26
895.178	8040.33
895.357	7882.63
895.537	7407.5
895.716	7253.91
895.896	7595.92
896.075	8032.13
896.255	7573.39
896.434	7200.66
896.614	7982.98
896.793	8009.61
896.973	7387.02
897.152	7411.6
897.331	7698.31
897.511	7640.97
897.69	7020.44
897.87	7409.55
898.049	7602.06
898.228	7550.86
898.407	7290.77
898.587	7096.21
898.766	7307.15
898.945	7616.4
899.124	7305.1
899.304	7243.67
899.483	7413.65
899.662	7868.3
899.841	7153.55
900.02	6954.9
900.199	7602.06
900.378	7393.17
900.557	7010.2
900.737	6915.99
900.916	7393.17
901.095	7434.13
901.274	7307.15
901.453	6956.95
901.632	6922.13
901.811	7063.44
901.989	6803.35
902.168	6885.27
902.347	7524.24
902.526	7133.08
902.705	6797.21
902.884	6938.52
903.063	7348.11
903.242	7370.64
903.42	6655.9
903.599	6756.25
903.778	7245.71
903.957	7372.69
904.135	6694.81
904.314	6631.32
904.493	6995.86
904.672	7106.45
904.85	6633.37
905.029	6612.89
905.207	6881.18
905.386	7348.11
905.565	6246.3
905.743	6641.56
905.922	6668.19
906.1	6789.02
906.279	6322.08
906.457	6039.46
906.636	6332.32
906.814	6365.09
906.993	6131.62
907.171	6029.22
907.35	6576.03
907.528	6711.19
907.707	6436.77
907.885	5892.01
908.063	6817.69
908.242	6381.47
908.42	6064.04
908.598	5916.58
908.777	6477.73
908.955	6076.32
909.133	6291.36
909.311	5945.25
909.49	6252.45
909.668	6285.22
909.846	6041.51
910.024	5881.77
910.202	6317.98
910.38	6477.73
910.559	6006.69
910.737	6186.91
910.915	6537.12
911.093	6508.44
911.271	6356.9
911.449	6422.43
911.627	6389.66
911.805	7016.34
911.983	6256.54
912.161	6279.07
912.339	6616.99
912.517	6901.65
912.695	6436.77
912.872	6408.09
913.05	6363.04
913.228	6594.46
913.406	6481.82
913.584	6377.37
913.762	6782.87
913.939	6383.52
914.117	6272.93
914.295	6117.28
914.473	6705.05
914.65	6674.33
914.828	6389.66
915.006	6246.3
915.184	6418.33
915.361	6647.71
915.539	6371.23
915.716	6428.57
915.894	6518.68
916.072	6739.87
916.249	6447.01
916.427	6475.68
916.604	6453.15
916.782	6539.16
916.959	6072.23
917.137	6260.64
917.314	6578.08
917.492	6616.99
917.669	6356.9
917.847	6238.11
918.024	6479.77
918.201	6313.89
918.379	6178.72
918.556	6156.19
918.733	6524.83
918.911	6266.78
919.088	6285.22
919.265	6061.99
919.442	6422.43
919.62	6307.74
919.797	6164.39
919.974	5973.92
920.151	6301.6
920.328	6262.69
920.506	6066.08
920.683	6203.3
920.86	6201.25
921.037	6238.11
921.214	6100.9
921.391	5920.68
921.568	6549.4
921.745	6123.43
921.922	5957.54
922.099	5910.44
922.276	6360.99
922.453	6336.42
922.63	5957.54
922.807	6174.63
922.984	6231.97
923.161	6027.17
923.338	6148
923.514	5965.73
923.691	6201.25
923.868	6168.48
924.045	5838.76
924.222	5756.84
924.399	6025.12
924.575	6180.77
924.752	5867.43
924.929	5851.05
925.105	6240.16
925.282	5894.05
925.459	5779.37
925.635	5762.98
925.812	5955.49
925.989	5599.15
926.165	5722.02
926.342	5431.21
926.518	5603.24
926.695	5810.09
926.871	5492.65
927.048	5558.19
927.224	6141.86
927.401	5648.3
927.577	5578.67
927.754	5296.05
927.93	6000.55
928.107	5941.16
928.283	5402.54
928.459	5617.58
928.636	5685.16
928.812	5595.05
928.988	5337.01
929.165	5253.04
929.341	5427.12
929.517	5654.44
929.693	5636.01
929.87	5189.55
930.046	5785.51
930.222	5492.65
930.398	5142.45
930.574	5369.77
930.751	5490.6
930.927	5463.98
931.103	5289.9
931.279	5328.81
931.455	5091.25
931.631	5380.01
931.807	4929.46
931.983	5009.33
932.159	4925.36
932.335	5255.09
932.511	5287.86
932.687	5001.14
932.863	5214.13
933.039	5240.75
933.215	4853.69
933.391	4624.31
933.566	5042.1
933.742	5095.35
933.918	4814.77
934.094	4558.78
934.27	4992.95
934.445	4986.8
934.621	4716.47
934.797	4558.78
934.973	4988.85
935.148	4808.63
935.324	4339.65
935.5	4243.39
935.675	4736.95
935.851	4689.85
936.027	4401.08
936.202	4399.04
936.378	4587.45
936.553	4429.76
936.729	4624.31
936.904	4005.83
937.08	3923.91
937.255	3991.49
937.431	3837.89
937.606	3657.67
937.782	3940.29
937.957	3940.29
938.133	3719.11
938.308	3547.08
938.483	3784.65
938.659	3645.38
938.834	3549.13
939.009	3289.04
939.185	3469.26
939.36	3330
939.535	3067.86
939.71	3317.71
939.886	3690.44
940.061	3512.27
940.236	3350.48
940.411	3268.56
940.586	3389.39
940.761	3393.48
940.937	3008.47
941.112	2719.7
941.287	3239.89
941.462	3209.17
941.637	2838.48
941.812	2928.6
941.987	3121.1
942.162	3219.41
942.337	3000.27
942.512	2883.54
942.687	3452.88
942.862	3223.5
943.037	2674.65
943.212	2535.39
943.386	2856.92
943.561	2887.64
943.736	2938.84
943.911	3037.14
944.086	3168.21
944.26	3082.19
944.435	2652.12
944.61	2785.24
944.785	3160.02
944.959	3364.81
945.134	2688.98
945.309	2740.18
945.483	2781.14
945.658	3180.5
945.833	2492.38
946.007	2539.48
946.182	3293.13
946.357	2797.53
946.531	2645.98
946.706	2527.19
946.88	2475.99
947.055	3092.43
947.229	2725.85
947.404	2717.65
947.578	3125.2
947.752	2867.16
947.927	2543.58
948.101	2514.91
948.276	3043.28
948.45	3024.85
948.624	3047.38
948.799	2695.13
948.973	3090.38
949.147	2699.22
949.321	2842.58
949.496	2742.23
949.67	3250.13
949.844	3018.71
950.018	2858.96
950.193	2940.88
950.367	3493.83
950.541	3035.09
950.715	2955.22
950.889	3030.99
951.063	3059.67
951.237	3246.03
951.411	2586.58
951.585	2828.24
951.759	3223.5
951.933	3053.52
952.107	2871.25
952.281	3133.39
952.455	3612.62
952.629	3452.88
952.803	2936.79
952.977	2820.05
953.151	3350.48
953.325	3227.6
953.499	3143.63
953.672	2922.45
953.846	3030.99
954.02	3192.78
954.194	2889.68
954.368	2936.79
954.541	3350.48
954.715	3071.95
954.889	3063.76
955.062	2815.96
955.236	3276.75
955.41	3282.89
955.583	3289.04
955.757	2928.6
955.93	3200.98
956.104	2994.13
956.278	3157.97
956.451	3141.58
956.625	3420.11
956.798	3563.47
956.972	3309.52
957.145	2899.92
957.319	3381.2
957.492	3260.37
957.665	3295.18
957.839	3182.54
958.012	3495.88
958.185	3049.43
958.359	3033.04
958.532	3174.35
958.705	3510.22
958.879	3391.44
959.052	3092.43
959.225	2961.36
959.398	3284.94
959.572	3391.44
959.745	3104.72
959.918	3176.4
960.091	3411.92
960.264	3477.45
960.438	3153.87
960.611	3057.62
960.784	3524.55
960.957	3299.28
961.13	3446.73
961.303	3041.23
961.476	3313.61
961.649	3596.23
961.822	3057.62
961.995	3289.04
962.168	3409.87
962.341	3463.12
962.514	3047.38
962.686	3041.23
962.859	3346.38
963.032	3559.37
963.205	2944.98
963.378	2973.65
963.551	3444.68
963.723	3207.12
963.896	3186.64
964.069	3129.3
964.242	3190.74
964.414	3538.89
964.587	3067.86
964.76	3088.34
964.932	3395.53
965.105	3321.81
965.278	2955.22
965.45	2940.88
965.623	3350.48
965.795	3565.51
965.968	3108.82
966.14	3065.81
966.313	3342.29
966.485	3301.33
966.658	3100.62
966.83	3020.75
967.003	3596.23
967.175	3536.84
967.348	3043.28
967.52	3147.73
967.692	3639.24
967.865	3473.36
968.037	3110.86
968.209	3391.44
968.382	3114.96
968.554	3594.19
968.726	3055.57
968.898	3092.43
969.071	3344.33
969.243	3350.48
969.415	2981.84
969.587	3051.47
969.759	3846.09
969.932	3368.91
970.104	3018.71
970.276	2775
970.448	3047.38
970.62	3215.31
970.792	3262.41
970.964	3049.43
971.136	3708.87
971.308	3352.52
971.48	2953.17
971.652	2920.4
971.824	3506.12
971.996	2926.55
972.168	2871.25
972.339	2930.64
972.511	3313.61
972.683	3151.82
972.855	3141.58
973.027	2895.83
973.199	3100.62
973.37	3219.41
973.542	3045.33
973.714	2901.97
973.886	2865.11
974.057	3309.52
974.229	2758.61
974.401	2840.53
974.572	2967.51
974.744	2496.47
974.915	2682.84
975.087	2969.55
975.259	3362.76
975.43	2951.12
975.602	2775
975.773	2643.93
975.945	2701.27
976.116	3164.11
976.288	2627.54
976.459	3035.09
976.63	2881.49
976.802	3022.8
976.973	2633.69
977.145	2936.79
977.316	3477.45
977.487	2953.17
977.659	2916.31
977.83	2695.13
978.001	3350.48
978.172	2904.02
978.344	2555.87
978.515	2707.41
978.686	2852.82
978.857	3270.61
979.028	2852.82
979.2	2557.91
979.371	3319.76
979.542	2805.72
979.713	2879.44
979.884	2316.25
980.055	2697.17
980.226	2752.47
980.397	2543.58
980.568	2490.33
980.739	3055.57
980.91	2762.71
981.081	2762.71
981.252	2551.77
981.423	2916.31
981.594	3026.9
981.765	2545.63
981.936	2592.73
982.106	2799.57
982.277	3149.78
982.448	2500.57
982.619	2693.08
982.79	2617.3
982.96	2981.84
983.131	2629.59
983.302	2316.25
983.472	2795.48
983.643	2826.2
983.814	2639.83
983.984	2394.08
984.155	2539.48
984.326	2967.51
984.496	2471.9
984.667	2367.45
984.837	2555.87
985.008	2963.41
985.178	2650.07
985.349	2398.17
985.519	2613.21
985.69	2506.71
985.86	2439.13
986.031	2369.5
986.201	2713.56
986.371	2783.19
986.542	2310.11
986.712	2187.23
986.882	2537.43
987.053	2617.3
987.223	2217.95
987.393	2312.16
987.563	2426.84
987.734	2572.25
987.904	2654.17
988.074	2179.04
988.244	2584.54
988.414	2297.82
988.585	2172.89
988.755	2205.66
988.925	2385.88
989.095	2582.49
989.265	2064.35
989.435	2301.92
989.605	2570.2
989.775	2568.15
989.945	2490.33
990.115	2015.2
990.285	2316.25
990.455	2410.46
990.625	2197.47
990.795	1970.15
990.965	2680.79
991.134	2263.01
991.304	2019.3
991.474	1998.82
991.644	2394.08
991.814	2555.87
991.984	1867.75
992.153	2068.45
992.323	2234.33
992.493	2297.82
992.662	1806.31
992.832	2117.6
993.002	2293.72
993.171	2389.98
993.341	1802.21
993.511	2154.46
993.68	2088.93
993.85	2346.97
994.019	1863.65
994.189	1849.32
994.358	2318.3
994.528	1920.99
994.697	1744.87
994.867	1802.21
995.036	2473.95
995.206	2101.22
995.375	1810.4
995.544	1955.81
995.714	2203.61
995.883	2064.35
996.052	2021.35
996.222	1542.12
996.391	2588.63
996.56	1982.43
996.73	1689.57
996.899	1763.3
997.068	2322.4
997.237	2152.42
997.406	1644.52
997.576	1644.52
997.745	2095.07
997.914	2070.5
998.083	1607.66
998.252	1662.95
998.421	1978.34
998.59	1818.6
998.759	1624.04
998.928	1538.02
999.097	2224.09
999.266	2013.15
999.435	1853.41
999.604	1507.31
999.773	2357.21
999.942	1814.5
1000.111	1417.19
1000.28	1456.11
1000.448	1667.05
1000.617	1605.61
1000.786	1785.83
1000.955	1404.91
1001.124	2035.68
1001.292	2527.19
1001.461	1476.59
1001.63	1445.87
1001.798	2166.75
1001.967	2154.46
1002.136	1431.53
1002.304	1406.95
1002.473	1900.51
1002.642	1947.62
1002.81	1601.51
1002.979	1490.92
1003.147	1980.39
1003.316	2228.19
1003.484	1406.95
1003.653	1435.63
1003.821	2078.69
1003.99	1728.49
1004.158	1480.68
1004.327	1548.26
1004.495	1896.42
1004.663	1576.94
1004.832	1556.46
1005	1183.73
1005.168	1834.98
1005.337	1771.49
1005.505	1251.31
1005.673	1480.68
1005.842	1699.81
1006.01	1822.69
1006.178	1351.66
1006.346	1224.69
1006.514	1726.44
1006.683	1976.29
1006.851	1351.66
1007.019	1417.19
1007.187	1470.44
1007.355	1212.4
1007.523	1118.19
1007.691	1112.05
1007.859	1183.73
1008.027	1873.89
1008.195	1392.62
1008.363	1232.88
1008.531	1787.88
1008.699	1419.24
1008.867	1107.95
1009.035	1339.37
1009.203	1798.12
1009.37	1568.74
1009.538	1183.73
1009.706	1609.7
1009.874	1601.51
1010.042	1452.01
1010.209	1089.52
1010.377	1198.06
1010.545	1669.09
1010.713	1484.78
1010.88	1132.53
1011.048	1126.38
1011.216	1441.77
1011.383	1867.75
1011.551	1093.62
1011.718	1097.71
1011.886	1531.88
1012.054	1398.76
1012.221	1007.6
1012.389	1095.66
1012.556	1310.7
1012.724	1771.49
1012.891	1126.38
1013.058	827.38
1013.226	1466.35
1013.393	1611.75
1013.561	944.11
1013.728	821.24
1013.895	1646.57
1014.063	1560.55
1014.23	958.45
1014.397	925.68
1014.565	1441.77
1014.732	1181.68
1014.899	905.2
1015.066	868.34
1015.233	1361.9
1015.401	1501.16
1015.568	1019.89
1015.735	1009.65
1015.902	1212.4
1016.069	1343.47
1016.236	899.06
1016.403	837.62
1016.57	950.26
1016.737	1462.25
1016.904	954.35
1017.071	735.22
1017.238	1064.94
1017.405	1370.09
1017.572	958.45
1017.739	1101.81
1017.906	1390.57
1018.073	1544.17
1018.24	776.18
1018.407	1011.7
1018.573	1595.37
1018.74	1187.82
1018.907	860.15
1019.074	575.48
1019.241	1343.47
1019.407	1206.25
1019.574	759.8
1019.741	606.2
1019.907	1239.02
1020.074	1306.6
1020.241	628.73
1020.407	655.35
1020.574	1198.06
1020.74	1263.6
1020.907	798.71
1021.073	626.68
1021.24	1695.72
1021.406	1429.48
1021.573	671.73
1021.739	714.74
1021.906	1286.12
1022.072	909.3
1022.239	624.63
1022.405	626.68
1022.571	1023.98
1022.738	903.15
1022.904	643.06
1023.07	741.36
1023.237	1046.51
1023.403	1296.36
1023.569	720.89
1023.735	690.17
1023.902	1011.7
1024.068	1038.32
1024.234	520.18
1024.4	626.68
1024.566	1138.67
1024.732	1232.88
1024.898	686.07
1025.065	602.1
1025.231	1243.12
1025.397	894.96
1025.563	532.47
1025.729	557.05
1025.895	561.14
1026.061	741.36
1026.227	428.03
1026.392	696.31
1026.558	1101.81
1026.724	1015.79
1026.89	434.17
1027.056	727.03
1027.222	1060.85
1027.388	888.82
1027.553	569.34
1027.719	577.53
1027.885	1228.78
1028.051	1075.18
1028.216	303.1
1028.382	593.91
1028.548	1071.09
1028.713	833.52
1028.879	421.88
1029.045	655.35
1029.21	1208.3
1029.376	1093.62
1029.541	518.14
1029.707	503.8
1029.873	1077.23
1030.038	1114.1
1030.204	491.51
1030.369	462.84
1030.534	1120.24
1030.7	817.14
1030.865	507.9
1031.031	454.65
1031.196	997.36
1031.361	821.24
1031.527	450.55
1031.692	368.63
1031.857	415.74
1032.023	1021.94
1032.188	327.68
1032.353	473.08
1032.518	1163.25
1032.684	851.96
1032.849	323.58
1033.014	409.59
1033.179	964.59
1033.344	991.22
1033.509	446.46
1033.674	471.03
1033.839	858.1
1034.004	864.24
1034.17	495.61
1034.335	325.63
1034.5	700.41
1034.664	690.17
1034.829	339.96
1034.994	505.85
1035.159	946.16
1035.324	974.83
1035.489	462.84
1035.654	356.35
1035.819	1130.48
1035.984	849.91
1036.148	514.04
1036.313	380.92
1036.478	1011.7
1036.643	702.45
1036.807	294.91
1036.972	290.81
1037.137	985.07
1037.301	737.27
1037.466	335.87
1037.631	393.21
1037.795	1015.79
1037.96	831.48
1038.124	561.14
1038.289	268.28
1038.454	811
1038.618	884.72
1038.783	389.11
1038.947	348.15
1039.111	710.65
1039.276	720.89
1039.44	339.96
1039.605	794.61
1039.769	534.52
1039.933	749.56
1040.098	442.36
1040.262	561.14
1040.426	923.63
1040.591	907.25
1040.755	241.66
1040.919	307.2
1041.083	827.38
1041.248	675.83
1041.412	192.51
1041.576	241.66
1041.74	706.55
1041.904	937.97
1042.068	260.09
1042.232	325.63
1042.397	845.81
1042.561	753.65
1042.725	143.36
1042.889	501.75
1043.053	845.81
1043.217	833.52
1043.381	356.35
1043.544	219.13
1043.708	946.16
1043.872	423.93
1044.036	49.15
1044.2	153.6
1044.364	905.2
1044.528	1060.85
1044.691	3422.16
1044.855	194.56
1045.019	925.68
1045.183	864.24
1045.346	360.44
1045.51	200.7
1045.674	690.17
1045.837	647.16
1046.001	262.14
1046.165	196.61
1046.328	1206.25
1046.492	710.65
1046.655	376.83
1046.819	321.53
1046.983	493.56
1047.146	698.36
1047.31	266.24
1047.473	38.91
1047.636	622.58
1047.8	458.75
1047.963	200.7
1048.127	229.37
1048.29	434.17
