Data from Hydrogel_Ink_Intensity_Test_1_USB4F045381__15__00015.txt Node

Date: Mon Jul 31 10:38:29 EDT 2023
User: mmckonesweet
Spectrometer: USB4F04538
Trigger mode: 4
Integration Time (sec): 9.000000E-1
Scans to average: 1
Electric dark correction enabled: true
Nonlinearity correction enabled: false
Boxcar width: 0
XAxis mode: Wavelengths
Number of Pixels in Spectrum: 3648
>>>>>Begin Spectral Data<<<<<
345.52	-1011.7
345.736	-1011.7
345.952	-1011.7
346.168	-976.88
346.384	-991.22
346.6	-122.88
346.816	-204.8
347.032	-249.85
347.248	256
347.464	-149.5
347.68	-161.79
347.896	155.65
348.112	321.53
348.328	-57.34
348.544	-112.64
348.76	53.25
348.975	272.38
349.191	-299
349.407	-122.88
349.623	116.73
349.839	-69.63
350.055	-126.97
350.27	-16.38
350.486	190.46
350.702	393.21
350.918	270.33
351.133	-139.26
351.349	180.22
351.565	397.31
351.781	-194.56
351.996	108.54
352.212	366.59
352.428	-225.28
352.644	-94.21
352.859	-198.65
353.075	342.01
353.291	34.82
353.506	-32.77
353.722	-147.45
353.938	-32.77
354.153	409.59
354.369	118.78
354.584	-143.36
354.8	219.13
355.016	-301.05
355.231	-151.55
355.447	26.62
355.662	172.03
355.878	966.64
356.093	-266.24
356.309	-20.48
356.524	-163.84
356.74	212.99
356.955	-92.16
357.171	81.92
357.386	219.13
357.602	-167.93
357.817	-34.82
358.033	-126.97
358.248	460.79
358.464	186.37
358.679	-124.93
358.895	-292.86
359.11	12.29
359.325	409.59
359.541	245.76
359.756	88.06
359.972	-192.51
360.187	206.84
360.402	-75.77
360.618	-30.72
360.833	958.45
361.048	212.99
361.264	-22.53
361.479	61.44
361.694	45.06
361.909	313.34
362.125	-120.83
362.34	8.19
362.555	276.48
362.77	141.31
362.986	-190.46
363.201	-83.97
363.416	227.32
363.631	94.21
363.847	-88.06
364.062	-83.97
364.277	212.99
364.492	135.17
364.707	-30.72
364.922	-225.28
365.138	376.83
365.353	352.25
365.568	-133.12
365.783	-63.49
365.998	190.46
366.213	624.63
366.428	-223.23
366.643	202.75
366.858	358.39
367.073	364.54
367.288	22.53
367.503	-145.41
367.718	139.26
367.933	342.01
368.148	-235.52
368.363	98.3
368.578	75.77
368.793	550.9
369.008	-49.15
369.223	-149.5
369.438	253.95
369.653	430.07
369.868	-137.21
370.083	-94.21
370.298	133.12
370.513	487.42
370.728	147.45
370.943	-106.49
371.157	-77.82
371.372	606.2
371.587	-110.59
371.802	-122.88
372.017	204.8
372.232	528.38
372.446	57.34
372.661	-122.88
372.876	387.07
373.091	219.13
373.306	61.44
373.52	-90.11
373.735	-57.34
373.95	532.47
374.165	96.25
374.379	81.92
374.594	-53.25
374.809	208.89
375.023	190.46
375.238	-53.25
375.453	319.48
375.667	-110.59
375.882	-2.05
376.097	-73.73
376.311	186.37
376.526	69.63
376.741	-61.44
376.955	200.7
377.17	755.7
377.384	516.09
377.599	63.49
377.813	-53.25
378.028	622.58
378.242	274.43
378.457	98.3
378.672	-114.69
378.886	198.65
379.101	102.4
379.315	-151.55
379.53	12.29
379.744	319.48
379.958	428.03
380.173	28.67
380.387	-28.67
380.602	364.54
380.816	43.01
381.031	55.3
381.245	77.82
381.459	337.91
381.674	2574.3
381.888	-24.58
382.103	319.48
382.317	-16.38
382.531	718.84
382.746	75.77
382.96	94.21
383.174	65.54
383.388	598.01
383.603	313.34
383.817	10.24
384.031	288.76
384.246	716.79
384.46	307.2
384.674	495.61
384.888	286.72
385.103	225.28
385.317	-94.21
385.531	188.41
385.745	524.28
385.959	479.22
386.174	32.77
386.388	-36.86
386.602	163.84
386.816	12.29
387.03	106.49
387.244	229.37
387.458	307.2
387.672	630.77
387.887	26.62
388.101	-10.24
388.315	620.53
388.529	268.28
388.743	233.47
388.957	114.69
389.171	591.86
389.385	94.21
389.599	167.93
389.813	335.87
390.027	372.73
390.241	821.24
390.455	153.6
390.669	309.24
390.883	227.32
391.097	679.93
391.311	389.11
391.525	98.3
391.738	403.45
391.952	534.52
392.166	270.33
392.38	32.77
392.594	569.34
392.808	641.01
393.022	251.9
393.236	204.8
393.449	475.13
393.663	491.51
393.877	61.44
394.091	305.15
394.305	172.03
394.518	225.28
394.732	106.49
394.946	153.6
395.16	757.75
395.373	417.79
395.587	262.14
395.801	272.38
396.015	606.2
396.228	620.53
396.442	114.69
396.656	53.25
396.869	647.16
397.083	835.57
397.297	342.01
397.51	241.66
397.724	720.89
397.938	479.22
398.151	110.59
398.365	137.21
398.578	577.53
398.792	815.09
399.005	370.68
399.219	344.06
399.433	493.56
399.646	653.3
399.86	405.5
400.073	563.19
400.287	636.92
400.5	397.31
400.714	532.47
400.927	407.55
401.141	667.64
401.354	1472.49
401.567	591.86
401.781	163.84
401.994	759.8
402.208	958.45
402.421	350.2
402.635	385.02
402.848	454.65
403.061	800.76
403.275	471.03
403.488	296.96
403.701	989.17
403.915	737.27
404.128	514.04
404.341	403.45
404.555	700.41
404.768	534.52
404.981	593.91
405.195	305.15
405.408	1038.32
405.621	718.84
405.834	548.86
406.048	434.17
406.261	882.67
406.474	958.45
406.687	499.7
406.9	593.91
407.114	569.34
407.327	737.27
407.54	407.55
407.753	376.83
407.966	526.33
408.179	913.39
408.392	327.68
408.605	405.5
408.819	833.52
409.032	667.64
409.245	454.65
409.458	712.69
409.671	876.53
409.884	1015.79
410.097	409.59
410.31	710.65
410.523	761.84
410.736	575.48
410.949	675.83
411.162	587.77
411.375	1177.58
411.588	962.55
411.801	735.22
412.014	634.87
412.227	802.8
412.44	561.14
412.653	587.77
412.865	798.71
413.078	995.31
413.291	849.91
413.504	704.5
413.717	520.18
413.93	1013.74
414.143	612.34
414.356	692.21
414.568	415.74
414.781	1081.33
414.994	856.05
415.207	749.56
415.42	681.97
415.632	1161.2
415.845	1363.95
416.058	589.82
416.271	520.18
416.483	970.74
416.696	1363.95
416.909	636.92
417.121	720.89
417.334	1163.25
417.547	1331.18
417.759	817.14
417.972	733.17
418.185	849.91
418.397	1128.43
418.61	776.18
418.823	749.56
419.035	1267.69
419.248	935.92
419.46	757.75
419.673	927.73
419.885	1116.14
420.098	788.47
420.311	833.52
420.523	606.2
420.736	1177.58
420.948	946.16
421.161	765.94
421.373	724.98
421.586	1171.44
421.798	847.86
422.01	630.77
422.223	1019.89
422.435	919.54
422.648	1222.64
422.86	915.44
423.073	921.59
423.285	1343.47
423.497	851.96
423.71	849.91
423.922	874.48
424.134	1179.63
424.347	1472.49
424.559	1095.66
424.771	1161.2
424.984	999.41
425.196	1261.55
425.408	782.32
425.621	841.72
425.833	1435.63
426.045	1413.1
426.257	821.24
426.47	1060.85
426.682	1247.21
426.894	1298.41
427.106	956.4
427.318	1122.29
427.531	1038.32
427.743	1402.86
427.955	1015.79
428.167	1458.15
428.379	1327.08
428.591	1300.46
428.804	1212.4
429.016	1040.37
429.228	1290.22
429.44	1464.3
429.652	1222.64
429.864	966.64
430.076	1279.98
430.288	1265.64
430.5	1200.11
430.712	1247.21
430.924	1570.79
431.136	1370.09
431.348	1148.91
431.56	1212.4
431.772	1507.31
431.984	1347.56
432.196	1236.97
432.408	1249.26
432.62	1447.91
432.832	1474.54
433.044	1521.64
433.256	1435.63
433.468	1705.96
433.679	1148.91
433.891	1245.16
434.103	1546.22
434.315	1851.36
434.527	1771.49
434.739	1636.33
434.95	1521.64
435.162	1781.73
435.374	1503.21
435.586	1394.67
435.798	1505.26
436.009	1339.37
436.221	1570.79
436.433	1466.35
436.645	1460.2
436.856	1513.45
437.068	1984.48
437.28	1441.77
437.491	1773.54
437.703	1871.84
437.915	1863.65
438.126	1658.85
438.338	1863.65
438.55	1728.49
438.761	1974.24
438.973	1548.26
439.184	1607.66
439.396	1732.58
439.608	2031.59
439.819	1556.46
440.031	1703.91
440.242	1929.19
440.454	2054.11
440.665	1787.88
440.877	1789.92
441.088	1955.81
441.3	1775.59
441.511	1613.8
441.723	1605.61
441.934	1814.5
442.146	1970.15
442.357	1898.47
442.569	2144.22
442.78	2043.87
442.991	2392.03
443.203	2129.89
443.414	1789.92
443.626	2279.39
443.837	1933.28
444.048	1783.78
444.26	1683.43
444.471	1994.72
444.682	2336.73
444.894	1611.75
445.105	1740.77
445.316	2367.45
445.528	2312.16
445.739	1964
445.95	2037.73
446.161	2129.89
446.373	2506.71
446.584	1974.24
446.795	1933.28
447.006	2396.12
447.217	2496.47
447.429	1857.51
447.64	1933.28
447.851	2373.6
448.062	2306.01
448.273	1785.83
448.484	1947.62
448.695	2387.93
448.907	2166.75
449.118	2037.73
449.329	2168.8
449.54	2168.8
449.751	2090.98
449.962	2099.17
450.173	2045.92
450.384	2529.24
450.595	2705.37
450.806	2140.13
451.017	2136.03
451.228	2537.43
451.439	2715.61
451.65	2215.9
451.861	2129.89
452.072	2303.96
452.283	2447.32
452.494	2408.41
452.705	2215.9
452.915	2787.29
453.126	2572.25
453.337	2385.88
453.548	2263.01
453.759	2785.24
453.97	3137.49
454.181	2607.06
454.391	2473.95
454.602	2639.83
454.813	2949.07
455.024	2645.98
455.235	2299.87
455.445	2762.71
455.656	2676.7
455.867	2555.86
456.078	2572.25
456.288	2576.34
456.499	2932.69
456.71	2502.62
456.921	2863.06
457.131	2953.17
457.342	2795.48
457.553	2637.78
457.763	2506.71
457.974	3028.95
458.184	3108.82
458.395	2738.13
458.606	2688.98
458.816	3405.77
459.027	3573.71
459.237	2994.13
459.448	2770.9
459.659	3448.78
459.869	3790.79
460.08	2801.62
460.29	3200.98
460.501	3782.6
460.711	3272.65
460.922	2832.34
461.132	3164.11
461.343	3891.14
461.553	3006.42
461.764	3221.45
461.974	3239.89
462.184	3405.77
462.395	3592.14
462.605	3655.62
462.816	3196.88
463.026	3442.64
463.236	3913.67
463.447	3366.86
463.657	3446.73
463.867	3999.68
464.078	3858.37
464.288	3620.81
464.498	3585.99
464.709	3821.51
464.919	3737.54
465.129	3663.82
465.339	3614.66
465.55	3923.91
465.76	4022.21
465.97	3731.4
466.18	3725.26
466.391	4333.5
466.601	4095.94
466.811	3997.64
467.021	3997.64
467.231	4427.71
467.441	4364.22
467.651	4419.52
467.862	3975.11
468.072	4411.32
468.282	4833.21
468.492	4157.38
468.702	4466.62
468.912	4714.42
469.122	5146.55
469.332	4775.86
469.542	4407.23
469.752	4997.04
469.962	4898.74
470.172	4585.4
470.382	4675.51
470.592	5119.92
470.802	5218.22
471.012	5019.57
471.222	4868.02
471.432	5294
471.642	5357.49
471.852	5253.04
472.062	5150.64
472.272	5326.77
472.482	5097.39
472.691	5283.76
472.901	5191.6
473.111	5738.41
473.321	6309.79
473.531	5562.28
473.741	5584.81
473.95	5797.8
474.16	6037.41
474.37	5894.05
474.58	5640.11
474.79	6668.19
474.999	6459.29
475.209	5992.36
475.419	6221.73
475.628	6270.88
475.838	6727.58
476.048	6326.18
476.258	6301.6
476.467	7053.2
476.677	6649.75
476.886	6832.02
477.096	6942.61
477.306	6698.91
477.515	7116.69
477.725	6850.46
477.935	6922.13
478.144	7491.47
478.354	7081.88
478.563	7178.13
478.773	7124.88
478.982	7735.18
479.192	7876.49
479.401	7407.5
479.611	7253.91
479.82	7446.41
480.03	7937.93
480.239	7481.23
480.449	7591.82
480.658	8482.69
480.868	8056.71
481.077	8224.64
481.287	7997.32
481.496	8396.67
481.705	8626.04
481.915	8568.7
482.124	8638.33
482.333	8578.94
482.543	9015.16
482.752	8683.39
482.961	8654.72
483.171	8929.14
483.38	8900.47
483.589	8787.83
483.799	8748.92
484.008	9285.49
484.217	9559.92
484.426	9076.6
484.636	9000.82
484.845	9537.39
485.054	9215.86
485.263	9654.12
485.472	9389.94
485.682	10133.35
485.891	9916.26
486.1	9240.43
486.309	9774.95
486.518	10125.16
486.727	10366.82
486.936	9852.78
487.146	10248.04
487.355	10635.1
487.564	10063.72
487.773	10010.47
487.982	10215.27
488.191	10428.26
488.4	10600.29
488.609	10264.42
488.818	10514.27
489.027	11390.8
489.236	11267.92
489.445	10960.73
489.654	10747.74
489.863	11507.54
490.072	10995.54
490.281	11128.66
490.49	11300.69
490.698	11470.67
490.907	11784.01
491.116	11353.94
491.325	11353.94
491.534	11865.93
491.743	11599.69
491.952	11517.78
492.16	11571.02
492.369	11908.94
492.578	12431.17
492.787	11960.14
492.996	11870.03
493.204	11898.7
493.413	12752.7
493.622	11902.79
493.831	12111.69
494.039	13076.28
494.248	12140.36
494.457	12402.5
494.665	12345.16
494.874	12717.89
495.083	13166.39
495.291	12537.66
495.5	12451.65
495.709	13119.29
495.917	12779.32
496.126	12875.58
496.335	13043.51
496.543	12986.17
496.752	13266.74
496.96	13291.32
497.169	12943.16
497.377	13393.72
497.586	13848.36
497.794	13369.14
498.003	13115.19
498.211	13446.96
498.42	14221.09
498.628	13455.15
498.837	13496.11
499.045	13864.75
499.254	13997.87
499.462	13743.92
499.671	13905.71
499.879	14356.26
500.087	14319.4
500.296	14022.44
500.504	14098.22
500.713	14495.52
500.921	15038.23
501.129	14032.68
501.338	14051.11
501.546	14757.66
501.754	14681.89
501.962	14579.49
502.171	14444.32
502.379	14817.05
502.587	15462.16
502.795	14731.04
503.004	14505.76
503.212	14915.36
503.42	15331.09
503.628	14843.68
503.837	15062.81
504.045	15255.32
504.253	15783.7
504.461	15157.02
504.669	15091.48
504.877	15453.97
505.085	15890.19
505.294	15304.47
505.502	15439.64
505.71	15683.34
505.918	15865.61
506.126	15333.14
506.334	15304.47
506.542	16037.64
506.75	15824.65
506.958	15681.3
507.166	15910.67
507.374	15738.64
507.582	16609.03
507.79	16217.86
507.998	15918.86
508.206	16465.67
508.414	16160.52
508.622	16072.46
508.83	16097.03
509.037	16793.34
509.245	16080.65
509.453	16373.51
509.661	16217.86
509.869	16770.82
510.077	16502.53
510.285	16445.19
510.492	16111.37
510.7	17291
510.908	16480
511.116	16625.41
511.324	16537.35
511.531	16895.74
511.739	16832.26
511.947	17010.43
512.155	17051.39
512.362	17172.22
512.57	17032.96
512.778	16815.87
512.985	17043.2
513.193	17145.59
513.401	17553.14
513.608	16992
513.816	17075.96
514.024	17608.44
514.231	17649.39
514.439	17221.37
514.646	17448.69
514.854	17606.39
515.061	17778.42
515.269	17446.65
515.477	17452.79
515.684	17671.92
515.892	18382.57
516.099	17319.67
516.307	17483.51
516.514	18247.4
516.722	18523.88
516.929	17848.05
517.136	17780.46
517.344	18579.17
517.551	18247.4
517.759	18145
517.966	18138.86
518.173	18319.08
518.381	18331.37
518.588	18118.38
518.796	18296.55
519.003	18765.54
519.21	18640.61
519.418	18384.62
519.625	18570.98
519.832	18515.69
520.039	19066.59
520.247	18417.38
520.454	18480.87
520.661	19199.71
520.868	19095.26
521.076	18966.24
521.283	18673.38
521.49	19678.93
521.697	19259.1
521.904	18937.57
522.112	18771.68
522.319	19453.66
522.526	19304.15
522.733	19336.92
522.94	19132.12
523.147	19408.6
523.354	19443.42
523.561	19164.89
523.768	19275.48
523.975	19867.34
524.183	19662.55
524.39	19545.81
524.597	19611.35
524.804	20072.14
525.011	19900.11
525.218	20066
525.425	20088.53
525.632	20297.42
525.838	19879.63
526.045	19906.26
526.252	19893.97
526.459	21475
526.666	20905.67
526.873	20133.58
527.08	20004.56
527.287	20790.98
527.494	20600.52
527.701	20336.33
527.907	20352.71
528.114	20940.48
528.321	20872.9
528.528	20704.96
528.735	20852.42
528.941	20903.62
529.148	20575.94
529.355	20836.03
529.562	20401.86
529.768	21515.96
529.975	20815.55
530.182	20827.84
530.388	20639.43
530.595	21663.41
530.802	20713.16
531.008	21108.41
531.215	21413.56
531.422	21841.59
531.628	22511.27
531.835	21505.72
532.042	21509.82
532.248	21542.58
532.455	21804.72
532.661	21294.78
532.868	21683.89
533.074	21690.04
533.281	22204.08
533.487	21995.18
533.694	21614.26
533.9	22154.93
534.107	22154.93
534.313	21962.42
534.52	22095.53
534.726	22443.69
534.933	22763.17
535.139	21804.72
535.345	22044.34
535.552	22269.61
535.758	22341.29
535.965	22347.43
536.171	22255.28
536.377	22820.52
536.584	22806.18
536.79	22531.75
536.996	22843.04
537.203	22869.67
537.409	23068.32
537.615	22474.41
537.821	22572.71
538.028	23391.9
538.234	23129.76
538.44	22920.87
538.646	23002.78
538.853	23250.59
539.059	22972.07
539.265	23248.54
539.471	22838.95
539.677	23266.97
539.883	23602.84
540.09	23688.85
540.296	23856.79
540.502	23910.04
540.708	23617.18
540.914	23854.74
541.12	23578.26
541.326	24073.87
541.532	23996.05
541.738	23670.42
541.944	23719.57
542.15	24211.09
542.356	24010.39
542.562	23940.75
542.768	23907.99
542.974	24954.5
543.18	25104
543.386	24118.93
543.592	24286.86
543.798	24643.21
544.004	24612.49
544.21	24129.17
544.415	24385.16
544.621	24870.53
544.827	25030.27
545.033	24649.35
545.239	24501.9
545.445	24827.53
545.651	24774.28
545.856	24571.53
546.062	25116.29
546.268	24835.72
546.474	25337.47
546.679	24682.12
546.885	24848
547.091	25050.75
547.297	25226.88
547.502	25024.13
547.708	24473.23
547.914	24862.34
548.119	25378.43
548.325	24954.5
548.531	25011.84
548.736	25624.18
548.942	25147.01
549.147	24796.81
549.353	25355.9
549.559	25929.33
549.764	25630.33
549.97	25276.03
550.175	25177.73
550.381	25968.24
550.586	25220.74
550.792	25642.62
550.997	25622.14
551.203	25736.82
551.408	26037.87
551.614	25650.81
551.819	26306.16
552.025	26390.13
552.23	26494.57
552.435	25892.47
552.641	26619.5
552.846	26484.33
553.052	26633.83
553.257	26541.67
553.462	26472.04
553.668	26310.25
553.873	26941.03
554.078	26295.92
554.283	26629.74
554.489	27272.8
554.694	26963.56
554.899	26619.5
555.105	27072.1
555.31	27119.2
555.515	27387.49
555.72	27088.48
555.925	26570.35
556.131	27450.97
556.336	26961.51
556.541	27076.19
556.746	26967.65
556.951	27641.43
557.156	27516.51
557.361	27119.2
557.567	27651.67
557.772	28065.36
557.977	27330.14
558.182	26861.16
558.387	27254.37
558.592	27395.68
558.797	27780.7
559.002	27479.64
559.207	27725.4
559.412	27348.57
559.617	28190.29
559.822	27770.46
560.027	27711.07
560.232	27930.2
560.437	28196.43
560.642	27731.54
560.847	27670.11
561.051	27938.39
561.256	27741.78
561.461	28024.4
561.666	27633.24
561.871	28083.8
562.076	28120.66
562.281	28264.02
562.485	27659.87
562.69	28450.38
562.895	28536.4
563.1	27938.39
563.305	27989.59
563.509	28497.49
563.714	28759.63
563.919	27928.15
564.123	28266.06
564.328	28282.45
564.533	28962.37
564.737	28104.28
564.942	28155.47
565.147	28991.05
565.351	29058.63
565.556	28585.55
565.761	28593.74
565.965	28814.92
566.17	28634.7
566.374	28503.63
566.579	28212.82
566.784	28716.62
566.988	28927.56
567.193	28395.09
567.397	28651.08
567.602	28943.94
567.806	28833.35
568.011	28755.53
568.215	29187.65
568.42	29181.51
568.624	29404.74
568.828	29204.03
569.033	29163.07
569.237	29584.96
569.442	29711.93
569.646	28829.26
569.85	29296.19
570.055	29519.42
570.259	29517.37
570.463	29566.52
570.668	29333.06
570.872	29412.93
571.076	29644.35
571.281	29644.35
571.485	29488.7
571.689	29627.96
571.893	29969.97
572.098	29851.19
572.302	29689.4
572.506	30154.29
572.71	29609.53
572.914	29969.97
573.119	29677.12
573.323	30322.23
573.527	30348.85
573.731	29886.01
573.935	30055.99
574.139	30182.96
574.343	29867.58
574.547	30559.79
574.751	30268.98
574.955	30649.9
575.159	30672.43
575.364	29830.71
575.568	29976.12
575.772	30318.13
575.976	31039.01
576.18	29990.45
576.383	30537.26
576.587	31047.21
576.791	30760.49
576.995	30391.86
577.199	30346.8
577.403	30977.58
577.607	31426.08
577.811	30871.08
578.015	30553.65
578.219	31469.09
578.422	31184.42
578.626	30666.28
578.83	30871.08
579.034	31045.16
579.238	31235.62
579.442	31292.96
579.645	31127.08
579.849	31135.27
580.053	31720.99
580.257	31092.26
580.46	31125.03
580.664	31530.53
580.868	31464.99
581.071	31602.21
581.275	31673.88
581.479	31497.76
581.682	31890.97
581.886	31153.7
582.09	31454.75
582.293	31835.67
582.497	31915.54
582.7	31702.56
582.904	31708.7
583.107	32097.81
583.311	31735.32
583.515	31655.45
583.718	31725.08
583.922	32093.72
584.125	32349.71
584.329	31696.41
584.532	31933.98
584.735	32634.38
584.939	32079.38
585.142	31723.04
585.346	32044.57
585.549	32593.42
585.753	32386.58
585.956	32179.73
586.159	32931.34
586.363	32900.62
586.566	32945.67
586.769	32292.37
586.973	31964.7
587.176	32626.19
587.379	32792.08
587.582	33132.04
587.786	32235.03
587.989	33060.36
588.192	33285.64
588.395	32810.51
588.599	32708.11
588.802	33121.8
589.005	33009.16
589.208	32859.66
589.411	32855.56
589.615	33404.42
589.818	34137.59
590.021	33539.58
590.224	33205.77
590.427	33797.63
590.63	33517.06
590.833	33011.21
591.036	33639.93
591.239	33789.44
591.442	33224.2
591.645	33347.08
591.848	33789.44
592.051	33861.12
592.254	33758.72
592.457	33549.82
592.66	33994.23
592.863	34063.86
593.066	33986.04
593.269	34057.72
593.472	34033.14
593.675	34059.77
593.878	34381.3
594.081	34104.82
594.284	34180.6
594.486	34405.88
594.689	34518.51
594.892	33801.72
595.095	34485.75
595.298	34639.34
595.5	34528.75
595.703	34655.73
595.906	34379.25
596.109	34979.31
596.311	35036.65
596.514	34184.69
596.717	34770.41
596.92	35159.53
597.122	34940.39
597.325	34151.93
597.528	34641.39
597.73	35372.52
597.933	35118.57
598.136	34541.04
598.338	34500.08
598.541	35304.93
598.743	35866.08
598.946	34655.73
599.148	35069.42
599.351	35599.84
599.554	35816.93
599.756	35114.47
599.959	35425.76
600.161	35091.94
600.363	35751.39
600.566	35155.43
600.768	35225.06
600.971	35861.98
601.173	35802.59
601.376	35399.14
601.578	35177.96
601.78	35585.5
601.983	36031.96
602.185	35413.48
602.388	35479.01
602.59	35753.44
602.792	35552.74
602.995	35716.57
603.197	35137
603.399	36091.35
603.601	35718.62
603.804	35909.08
604.006	35708.38
604.208	35630.56
604.41	35605.98
604.613	35653.09
604.815	35671.52
605.017	36748.75
605.219	35784.16
605.421	35659.23
605.623	35798.49
605.826	36457.94
606.028	36711.89
606.23	36107.74
606.432	35708.38
606.634	36576.72
606.836	36273.62
607.038	35845.6
607.24	36290.01
607.442	35978.71
607.644	36287.96
607.846	36361.69
608.048	35978.71
608.25	36275.67
608.452	36265.43
608.654	36201.94
608.856	35722.72
609.058	36152.79
609.26	36433.36
609.462	36064.73
609.664	36711.89
609.866	37037.51
610.067	36738.51
610.269	36564.43
610.471	35837.41
610.673	36394.45
610.875	36902.35
611.077	36367.83
611.278	36404.69
611.48	36601.3
611.682	36830.67
611.884	36724.18
612.085	36394.45
612.287	36404.69
612.489	36789.71
612.69	36261.33
612.892	36515.28
613.094	36449.75
613.295	36533.71
613.497	36363.73
613.699	36212.18
613.9	37154.25
614.102	37031.37
614.304	36390.36
614.505	36453.84
614.707	36980.17
614.908	36695.5
615.11	36466.13
615.311	36924.88
615.513	36890.06
615.714	36593.11
615.916	36748.75
616.117	37250.5
616.319	36953.55
616.52	37303.75
616.722	36765.13
616.923	36687.31
617.124	37580.23
617.326	36701.65
617.527	36896.2
617.729	36867.53
617.93	36949.45
618.131	37332.42
618.333	36632.02
618.534	36980.17
618.735	37072.33
618.937	36957.64
619.138	36734.42
619.339	36576.72
619.54	37291.46
619.742	36869.58
619.943	36685.26
620.144	37207.5
620.345	37180.87
620.546	37488.07
620.748	36949.45
620.949	36961.74
621.15	37309.89
621.351	37311.94
621.552	36584.91
621.753	37043.66
621.954	36883.92
622.155	37260.74
622.356	36926.92
622.558	37105.1
622.759	37213.64
622.96	37375.43
623.161	36756.94
623.362	37258.7
623.563	37236.17
623.764	37172.68
623.965	36976.08
624.166	37832.13
624.366	36984.27
624.567	37352.9
624.768	37113.29
624.969	36988.36
625.17	37373.38
625.371	37334.47
625.572	36861.39
625.773	36894.16
625.973	37684.67
626.174	38092.22
626.375	37602.75
626.576	37307.85
626.777	37776.83
626.977	37647.81
627.178	37215.69
627.379	37662.15
627.58	37819.84
627.78	38030.78
627.981	37608.9
628.182	37547.46
628.382	37969.34
628.583	37416.39
628.784	37596.61
628.984	37385.67
629.185	38329.78
629.386	37516.74
629.586	37619.14
629.787	37387.72
629.987	38038.97
630.188	38174.14
630.388	37950.91
630.589	37088.71
630.79	38409.65
630.99	37494.21
631.191	37838.27
631.391	37891.52
631.591	37944.76
631.792	38286.78
631.992	38143.42
632.193	37701.06
632.393	38561.2
632.594	37813.69
632.794	37338.57
632.994	37967.29
633.195	37891.52
633.395	37883.33
633.595	38030.78
633.796	38047.16
633.996	38061.5
634.196	38272.44
634.397	37864.89
634.597	37793.22
634.797	38313.4
634.997	38467
635.198	38059.45
635.398	37629.38
635.598	38370.74
635.798	38901.17
635.998	37944.76
636.199	37993.92
636.399	38260.15
636.599	37754.3
636.799	38045.12
636.999	38362.55
637.199	38088.12
637.399	38639.03
637.599	38751.66
637.799	38282.68
637.999	38585.78
638.199	39032.24
638.399	37965.24
638.599	38342.07
638.799	38784.43
638.999	39323.05
639.199	38528.44
639.399	38714.8
639.599	39325.1
639.799	38239.67
639.999	38737.33
640.199	38616.5
640.399	38684.08
640.599	37739.97
640.799	39085.48
640.998	39056.81
641.198	38800.82
641.398	38999.47
641.598	38514.1
641.798	38596.02
641.997	39783.84
642.197	39071.15
642.397	39017.9
642.597	38780.34
642.796	39097.77
642.996	39585.19
643.196	38702.51
643.395	38761.9
643.595	39290.28
643.795	38868.4
643.994	38507.96
644.194	39069.1
644.394	39341.48
644.593	39388.58
644.793	38954.41
644.992	39062.96
645.192	39071.15
645.392	39079.34
645.591	39439.78
645.791	39118.25
645.99	39056.81
646.19	39073.2
646.389	39290.28
646.589	39148.97
646.788	39245.23
646.987	39388.58
647.187	39300.52
647.386	39472.55
647.586	39832.99
647.785	39910.81
647.984	39359.91
648.184	39368.1
648.383	39687.59
648.582	39368.1
648.782	39665.06
648.981	39382.44
649.18	39407.01
649.38	39384.49
649.579	39273.9
649.778	39318.95
649.977	40121.76
650.177	40019.36
650.376	39374.25
650.575	38763.95
650.774	40068.51
650.973	39781.79
651.173	39259.56
651.372	39873.95
651.571	39703.97
651.77	39974.3
651.969	39779.74
652.168	39622.05
652.367	39544.23
652.566	40076.7
652.765	39751.07
652.964	39853.47
653.163	40760.72
653.362	40095.13
653.561	39789.98
653.76	39972.25
653.959	40045.98
654.158	40502.68
654.357	40099.23
654.556	39785.89
654.755	40322.46
654.954	40486.29
655.153	39464.36
655.352	39775.65
655.551	40377.75
655.749	40066.46
655.948	39914.91
656.147	40201.63
656.346	40486.29
656.545	39894.43
656.743	39966.11
656.942	40205.72
657.141	40029.6
657.34	39964.06
657.538	40029.6
657.737	40205.72
657.936	40510.87
658.135	40304.02
658.333	40224.15
658.532	40082.84
658.731	40654.23
658.929	40435.09
659.128	40064.41
659.326	40152.48
659.525	40541.59
659.724	40492.44
659.922	39976.35
660.121	40013.21
660.319	40465.81
660.518	39544.23
660.716	39755.17
660.915	40005.02
661.113	40916.37
661.312	39994.78
661.51	40160.67
661.709	39927.2
661.907	40490.39
662.105	40734.1
662.304	40443.29
662.502	40611.22
662.701	40580.5
662.899	40441.24
663.097	40807.83
663.296	40383.9
663.494	40635.8
663.692	40873.36
663.891	40250.78
664.089	40062.36
664.287	40498.58
664.485	40637.84
664.684	40181.15
664.882	40283.55
665.08	40539.54
665.278	40697.23
665.476	40332.7
665.675	40340.89
665.873	40500.63
666.071	40701.33
666.269	40242.59
666.467	40029.6
666.665	40537.49
666.863	40082.84
667.061	40066.46
667.259	40119.71
667.457	40603.03
667.655	40496.53
667.853	39677.35
668.051	40150.43
668.249	40000.93
668.447	40566.16
668.645	39853.47
668.843	40514.97
669.041	40568.21
669.239	40232.35
669.437	40052.12
669.635	40646.04
669.833	40484.25
670.031	40600.98
670.229	40136.09
670.426	40136.09
670.624	40152.48
670.822	40013.21
671.02	40263.07
671.218	40467.86
671.415	40226.2
671.613	40279.45
671.811	39925.15
672.009	40390.04
672.206	40682.9
672.404	40312.22
672.602	40213.91
672.799	40474.01
672.997	40553.88
673.195	40265.11
673.392	40211.87
673.59	39701.92
673.788	40152.48
673.985	39382.44
674.183	40129.95
674.38	40244.63
674.578	40189.34
674.775	40265.11
674.973	39792.03
675.17	40000.93
675.368	40318.36
675.565	40172.95
675.763	39753.12
675.96	40078.75
676.158	40408.47
676.355	39509.41
676.553	39857.57
676.75	39484.84
676.947	39943.58
677.145	40023.45
677.342	39624.1
677.539	40005.02
677.737	40258.97
677.934	40482.2
678.131	39957.92
678.329	40166.81
678.526	40185.24
678.723	40744.34
678.92	40005.02
679.118	40064.41
679.315	39470.5
679.512	40283.55
679.709	39843.23
679.906	39482.79
680.104	39624.1
680.301	39546.28
680.498	39169.45
680.695	39361.96
680.892	39683.49
681.089	39335.34
681.286	39677.35
681.483	38827.44
681.68	39327.14
681.877	39695.78
682.075	39407.01
682.272	39407.01
682.469	39216.55
682.665	38997.42
682.862	38813.1
683.059	39058.86
683.256	39538.08
683.453	39607.72
683.65	39349.67
683.847	39194.03
684.044	39335.34
684.241	38833.58
684.438	39462.31
684.635	39087.53
684.831	39982.49
685.028	39499.17
685.225	39292.33
685.422	39194.03
685.619	39087.53
685.815	39425.45
686.012	39071.15
686.209	38821.3
686.405	39122.35
686.602	39189.93
686.799	38608.31
686.996	38809.01
687.192	39034.28
687.389	39112.11
687.586	38575.54
687.782	38858.16
687.979	39024.04
688.175	38874.54
688.372	38643.12
688.568	38933.93
688.765	38702.51
688.962	39085.48
689.158	38546.87
689.355	38622.64
689.551	39015.85
689.748	38585.78
689.944	39048.62
690.14	38434.23
690.337	39095.72
690.533	38905.26
690.73	38196.67
690.926	38811.06
691.123	38843.82
691.319	38512.05
691.515	38297.02
691.712	38593.97
691.908	38503.86
692.104	38630.83
692.301	38505.91
692.497	38219.19
692.693	38385.08
692.889	38530.48
693.086	38286.78
693.282	37891.52
693.478	38231.48
693.674	38761.9
693.87	38127.03
694.067	38202.81
694.263	38481.33
694.459	38258.1
694.655	38000.06
694.851	38268.34
695.047	38165.95
695.243	38337.97
695.439	38317.5
695.635	38071.74
695.831	38137.27
696.027	38290.87
696.224	38247.86
696.42	38460.85
696.615	38380.98
696.811	38008.25
697.007	37821.89
697.203	37803.46
697.399	37823.93
697.595	38495.67
697.791	37713.34
697.987	37830.08
698.183	37944.76
698.379	37586.37
698.575	37782.98
698.77	37750.21
698.966	37819.84
699.162	37676.48
699.358	37998.01
699.554	37248.46
699.749	37793.22
699.945	37920.19
700.141	37629.38
700.337	37608.9
700.532	37645.76
700.728	37344.71
700.924	37434.82
701.119	37412.29
701.315	37811.65
701.511	37330.37
701.706	37647.81
701.902	37055.95
702.097	37137.87
702.293	37756.35
702.489	37074.38
702.684	37219.78
702.88	37682.62
703.075	37234.12
703.271	36758.99
703.466	36982.22
703.662	37365.19
703.857	37404.1
704.053	37141.96
704.248	37451.2
704.443	37705.15
704.639	37209.54
704.834	37539.27
705.03	37166.54
705.225	37187.02
705.42	37246.41
705.616	36959.69
705.811	36632.02
706.006	37375.43
706.202	37318.09
706.397	37184.97
706.592	36830.67
706.787	37072.33
706.983	36971.98
707.178	37367.24
707.373	36738.51
707.568	37451.2
707.763	36961.74
707.959	36910.54
708.154	37115.34
708.349	36767.18
708.544	37334.47
708.739	37008.84
708.934	36654.54
709.129	37240.26
709.324	37352.9
709.519	36769.23
709.714	36752.85
709.909	37242.31
710.104	37074.38
710.299	36642.26
710.494	36830.67
710.689	36853.2
710.884	37113.29
711.079	36888.01
711.274	36802
711.469	37264.84
711.664	36746.7
711.859	36392.4
712.054	36605.39
712.249	36789.71
712.443	36691.41
712.638	36373.97
712.833	36050.39
713.028	36400.6
713.223	36029.91
713.417	36566.48
713.612	36294.1
713.807	36986.32
714.002	36851.15
714.196	36586.96
714.391	36310.49
714.586	36994.51
714.78	36728.27
714.975	36466.13
715.17	36333.01
715.364	37006.8
715.559	36632.02
715.754	35839.45
715.948	36171.22
716.143	36480.47
716.337	36363.73
716.532	36634.06
716.726	36195.8
716.921	36177.37
717.115	36705.74
717.31	35730.91
717.504	36728.27
717.699	36173.27
717.893	35876.32
718.088	35753.44
718.282	35683.81
718.476	35788.25
718.671	35640.8
718.865	35724.77
719.059	35501.54
719.254	35616.22
719.448	35917.28
719.642	37168.58
719.837	35034.6
720.031	36158.94
720.225	35945.95
720.419	35562.98
720.614	35431.91
720.808	35745.25
721.002	35204.58
721.196	35415.52
721.39	35040.75
721.585	35859.93
721.779	35583.46
721.973	35040.75
722.167	34993.64
722.361	35485.15
722.555	35745.25
722.749	34913.77
722.943	35034.6
723.137	35010.03
723.331	35505.63
723.525	34999.79
723.719	34940.39
723.913	35274.21
724.107	35116.52
724.301	34944.49
724.495	35012.07
724.689	35558.88
724.883	34809.32
725.077	35241.45
725.271	34983.4
725.465	35212.77
725.659	35085.8
725.853	34741.74
726.046	34924.01
726.24	34659.82
726.434	35073.51
726.628	35061.22
726.822	35061.22
727.015	35532.26
727.209	35417.57
727.403	35114.47
727.596	34801.13
727.79	35186.15
727.984	35239.4
728.177	34983.4
728.371	35132.9
728.565	35388.9
728.758	34885.1
728.952	34946.54
729.146	34993.64
729.339	35352.04
729.533	34958.83
729.726	34809.32
729.92	34895.34
730.113	35397.09
730.307	35290.6
730.5	34891.24
730.694	34868.72
730.887	34917.87
731.081	35196.39
731.274	34661.87
731.468	34948.59
731.661	34942.44
731.854	35018.22
732.048	34821.61
732.241	34528.75
732.435	34854.38
732.628	35003.88
732.821	34403.83
733.014	34688.49
733.208	34860.52
733.401	34958.83
733.594	34516.47
733.788	34500.08
733.981	34915.82
734.174	34948.59
734.367	34268.66
734.56	34962.92
734.754	34964.97
734.947	35012.07
735.14	34588.14
735.333	34553.33
735.526	34936.3
735.719	34696.69
735.912	34254.33
736.105	34770.41
736.298	35018.22
736.491	34547.18
736.684	34340.34
736.877	34643.44
737.07	34598.38
737.263	34876.91
737.456	34631.15
737.649	34672.11
737.842	34512.37
738.035	34803.18
738.228	34317.81
738.421	34512.37
738.614	34686.45
738.807	34729.45
739	33844.73
739.192	33879.55
739.385	34151.93
739.578	34364.92
739.771	34465.27
739.964	33791.48
740.156	34565.62
740.349	33955.32
740.542	34461.17
740.735	33793.53
740.927	33963.51
741.12	34166.26
741.313	33981.95
741.505	34397.68
741.698	34016.76
741.891	34119.16
742.083	34063.86
742.276	34102.78
742.468	33863.16
742.661	34317.81
742.854	33859.07
743.046	33994.23
743.239	34414.07
743.431	34401.78
743.624	33973.75
743.816	33660.41
744.009	34110.97
744.201	34106.87
744.393	33811.96
744.586	33826.3
744.778	34344.44
744.971	33865.21
745.163	33652.22
745.355	33410.56
745.548	33748.48
745.74	34000.38
745.932	33900.03
746.125	33949.18
746.317	34641.39
746.509	33805.82
746.702	33646.08
746.894	33859.07
747.086	33435.14
747.278	33930.75
747.471	33990.14
747.663	33412.61
747.855	33691.13
748.047	33914.36
748.239	33768.96
748.431	33347.08
748.623	34383.35
748.815	34090.49
749.008	33662.46
749.2	33818.11
749.392	34016.76
749.584	33725.95
749.776	33586.69
749.968	33697.28
750.16	34219.51
750.352	33979.9
750.544	33439.23
750.736	33750.52
750.928	34172.41
751.12	33406.47
751.311	32847.37
751.503	33791.48
751.695	33703.42
751.887	33660.41
752.079	33113.61
752.271	32873.99
752.463	34477.55
752.654	33938.94
752.846	33304.07
753.038	33086.98
753.23	33345.03
753.421	33156.61
753.613	33048.07
753.805	33099.27
753.997	33408.51
754.188	33259.01
754.38	32828.94
754.572	32878.09
754.763	33213.96
754.955	32884.23
755.146	32869.9
755.338	33193.48
755.53	32917
755.721	33336.84
755.913	32947.72
756.104	32626.19
756.296	32663.05
756.487	32947.72
756.679	32572.94
756.87	32740.88
757.062	32321.04
757.253	32962.06
757.445	32566.8
757.636	32568.85
757.827	32800.27
758.019	33195.53
758.21	32206.36
758.401	32296.47
758.593	33156.61
758.784	32921.1
758.975	32126.49
759.167	32134.68
759.358	32425.49
759.549	32851.47
759.74	32132.63
759.932	31780.38
760.123	32284.18
760.314	32138.77
760.505	31866.39
760.696	31991.32
760.888	32773.64
761.079	31870.49
761.27	31929.88
761.461	31370.79
761.652	32581.13
761.843	32048.66
762.034	31884.83
762.225	31815.19
762.416	31768.09
762.607	31213.09
762.798	31415.84
762.989	31370.79
763.18	32325.14
763.371	31426.08
763.562	31155.75
763.753	31624.73
763.944	31825.43
764.135	31538.72
764.326	31286.82
764.517	31217.19
764.708	31362.59
764.899	31184.42
765.089	31245.86
765.28	31143.46
765.471	31440.42
765.662	31471.14
765.853	30856.75
766.043	30592.56
766.234	31227.43
766.425	31282.72
766.615	30686.76
766.806	30670.38
766.997	31718.94
767.187	30811.69
767.378	30817.83
767.569	30447.15
767.759	31096.36
767.95	31051.3
768.141	30770.73
768.331	30289.46
768.522	30481.97
768.712	30723.63
768.903	30486.06
769.093	30484.01
769.284	30854.7
769.474	30520.88
769.665	30004.79
769.855	30146.1
770.046	30570.03
770.236	30242.35
770.426	29816.38
770.617	30082.61
770.807	30199.35
770.998	30176.82
771.188	30109.24
771.378	30076.47
771.569	30275.12
771.759	29896.25
771.949	29525.57
772.139	29681.21
772.33	29593.15
772.52	30189.11
772.71	29994.55
772.9	29066.82
773.09	30205.49
773.281	30408.24
773.471	29093.44
773.661	29761.08
773.851	29789.75
774.041	29521.47
774.231	29539.9
774.421	29429.31
774.611	29701.69
774.802	29216.32
774.992	29019.72
775.182	29388.35
775.372	29253.19
775.562	29816.38
775.752	29152.84
775.942	28986.95
776.131	29699.64
776.321	29716.03
776.511	28929.61
776.701	28976.71
776.891	29240.9
777.081	28929.61
777.271	29017.67
777.461	28749.39
777.651	28892.74
777.84	28999.24
778.03	28970.57
778.22	28636.75
778.41	29058.63
778.599	28790.34
778.789	28948.04
778.979	28706.38
779.169	28825.16
779.358	28573.26
779.548	28724.81
779.738	27848.28
779.927	28472.91
780.117	28452.43
780.307	28454.48
780.496	27946.58
780.686	28671.56
780.875	28638.79
781.065	27969.11
781.254	27924.05
781.444	28204.63
781.633	28384.85
781.823	27657.82
782.012	27913.81
782.202	28079.7
782.391	28120.66
782.581	27901.53
782.77	28440.14
782.96	28251.73
783.149	27674.2
783.338	27641.43
783.528	27692.63
783.717	28085.84
783.906	28315.22
784.096	27844.18
784.285	27682.39
784.474	27862.61
784.663	27623
784.853	27309.66
785.042	27473.5
785.231	27455.07
785.42	27930.2
785.61	27469.4
785.799	27211.36
785.988	27250.27
786.177	27276.9
786.366	27334.24
786.555	27580
786.744	27416.16
786.933	27444.83
787.122	27237.98
787.312	26777.19
787.501	27129.44
787.69	27586.14
787.879	27070.05
788.068	27020.9
788.257	26736.23
788.445	26781.29
788.634	26492.52
788.823	27061.86
789.012	27917.91
789.201	27135.59
789.39	26324.59
789.579	26492.52
789.768	26824.29
789.957	26857.06
790.145	26705.51
790.334	26766.95
790.523	26359.41
790.712	26400.37
790.9	26689.13
791.089	26261.1
791.278	27119.2
791.467	26367.6
791.655	26261.1
791.844	26594.92
792.033	26433.13
792.221	26048.11
792.41	26185.33
792.599	26091.12
792.787	26445.42
792.976	26693.22
793.164	25734.78
793.353	26191.47
793.541	26574.44
793.73	26695.27
793.918	25820.79
794.107	25726.58
794.295	25886.32
794.484	26179.18
794.672	25777.78
794.861	25890.42
795.049	25939.57
795.238	26449.52
795.426	25785.97
795.614	25788.02
795.803	26027.63
795.991	26394.22
796.179	25235.07
796.368	25730.68
796.556	26048.11
796.744	25388.67
796.932	25747.06
797.121	25462.4
797.309	25470.59
797.497	25583.23
797.685	25638.52
797.874	25394.81
798.062	25489.02
798.25	25726.58
798.438	25437.82
798.626	25695.86
798.814	25792.12
799.002	26424.94
799.19	25732.73
799.378	25097.86
799.566	25507.45
799.755	25753.21
799.943	25798.26
800.131	25280.13
800.318	25429.63
800.506	25562.75
800.694	25425.53
800.882	25364.09
801.07	25876.09
801.258	25607.8
801.446	25198.21
801.634	25212.54
801.822	25560.7
802.01	25894.52
802.197	25425.53
802.385	25515.64
802.573	25738.87
802.761	25687.67
802.949	25710.2
803.136	25446.01
803.324	26082.93
803.512	26044.02
803.699	25718.39
803.887	25386.62
804.075	25939.57
804.262	25429.63
804.45	25163.39
804.638	25366.14
804.825	25517.69
805.013	25476.73
805.201	25794.17
805.388	25372.28
805.576	26076.79
805.763	26447.47
805.951	25654.9
806.138	25446.01
806.326	26396.27
806.513	25704.06
806.701	25874.04
806.888	25620.09
807.075	26394.22
807.263	26271.34
807.45	25828.98
807.638	25798.26
807.825	26916.45
808.012	26041.97
808.2	25597.56
808.387	25955.96
808.574	26287.73
808.761	26302.06
808.949	25804.41
809.136	26127.99
809.323	26279.53
809.51	26074.74
809.698	26467.95
809.885	25826.93
810.072	26281.58
810.259	26881.64
810.446	26302.06
810.633	26144.37
810.82	26586.73
811.008	26701.42
811.195	26123.89
811.382	26003.06
811.569	26455.66
811.756	26103.41
811.943	26263.15
812.13	26197.62
812.317	26254.96
812.504	26457.71
812.691	25839.22
812.878	25915
813.064	26560.11
813.251	26248.82
813.438	26304.11
813.625	26293.87
813.812	26412.65
813.999	26406.51
814.186	26320.49
814.372	26054.26
814.559	25906.8
814.746	26441.32
814.933	25902.71
815.12	26338.93
815.306	25820.79
815.493	25917.04
815.68	25955.96
815.866	26015.35
816.053	26416.75
816.24	26721.9
816.426	26185.33
816.613	26001.01
816.799	26504.81
816.986	26244.72
817.173	25790.07
817.359	25677.43
817.546	26287.73
817.732	25542.27
817.919	25697.91
818.105	25837.17
818.292	25996.92
818.478	25964.15
818.665	25788.02
818.851	25622.14
819.037	26461.8
819.224	25996.92
819.41	25390.72
819.597	25460.35
819.783	26230.38
819.969	25994.87
820.156	25550.46
820.342	26044.02
820.528	26295.92
820.714	26185.33
820.901	25947.76
821.087	25663.1
821.273	26330.73
821.459	25421.44
821.646	25831.03
821.832	25804.41
822.018	25687.67
822.204	25650.81
822.39	25620.09
822.576	25536.12
822.762	25667.19
822.948	25298.56
823.134	25656.95
823.32	24972.93
823.507	25228.93
823.693	25415.29
823.879	25433.72
824.065	24983.17
824.25	25429.63
824.436	25273.98
824.622	25118.34
824.808	25159.3
824.994	25427.58
825.18	25026.18
825.366	25104
825.552	25017.99
825.738	25243.26
825.923	25378.43
826.109	25417.34
826.295	24983.17
826.481	25124.48
826.667	25036.42
826.852	24725.13
827.038	24397.45
827.224	25286.27
827.409	25175.68
827.595	24530.57
827.781	24696.46
827.966	24915.59
828.152	25126.53
828.338	24727.17
828.523	24278.67
828.709	24755.85
828.894	25099.9
829.08	24706.69
829.266	24241.81
829.451	24704.65
829.637	24807.05
829.822	24766.09
830.008	24487.56
830.193	24997.51
830.378	25040.51
830.564	24469.13
830.749	24110.74
830.935	24675.98
831.12	24694.41
831.305	24014.48
831.491	24538.76
831.676	24047.25
831.861	24735.37
832.047	24282.77
832.232	23967.38
832.417	24612.49
832.602	24303.25
832.788	23856.79
832.973	23793.3
833.158	24213.13
833.343	24286.86
833.528	24014.48
833.714	23928.47
833.899	24270.48
834.084	24569.48
834.269	24178.32
834.454	23789.21
834.639	24274.57
834.824	23821.97
835.009	23682.71
835.194	24123.02
835.379	24098.45
835.564	24133.26
835.749	23963.28
835.934	23858.84
836.119	23973.52
836.304	23916.18
836.489	23613.08
836.674	23752.34
836.859	23504.54
837.044	23893.65
837.228	23809.68
837.413	23352.99
837.598	23934.61
837.783	23707.29
837.968	23643.8
838.152	23119.52
838.337	22965.92
838.522	23776.92
838.707	23719.57
838.891	23191.2
839.076	23439
839.261	23766.68
839.445	23223.97
839.63	23039.65
839.815	23662.23
839.999	23019.17
840.184	22957.73
840.368	22763.17
840.553	23303.84
840.737	23312.03
840.922	22730.41
841.106	22527.66
841.291	22656.68
841.475	23008.93
841.66	22781.6
841.844	22564.52
842.029	24053.39
842.213	22650.53
842.397	22271.66
842.582	22453.93
842.766	23025.31
842.951	22877.86
843.135	22699.69
843.319	22492.84
843.504	22621.86
843.688	23076.51
843.872	22339.24
844.056	22406.83
844.241	22490.79
844.425	22378.15
844.609	22568.62
844.793	22150.83
844.977	22714.02
845.161	22501.03
845.346	22261.42
845.53	22179.5
845.714	22197.93
845.898	22724.26
846.082	22034.1
846.266	22144.69
846.45	22011.57
846.634	22449.83
846.818	22238.89
847.002	22191.79
847.186	22380.2
847.37	21989.04
847.554	21933.75
847.738	21913.27
847.922	22083.25
848.106	22505.13
848.29	21638.84
848.473	21665.46
848.657	21782.2
848.841	22171.31
849.025	21814.96
849.209	21452.47
849.392	21919.41
849.576	21739.19
849.76	21026.5
849.944	21636.79
850.127	22290.09
850.311	21350.07
850.495	21606.07
850.678	21429.94
850.862	21997.23
851.046	22058.67
851.229	21446.33
851.413	21137.09
851.596	21290.68
851.78	21421.75
851.964	21724.85
852.147	21180.09
852.331	22009.52
852.514	21466.81
852.698	21073.6
852.881	20946.62
853.065	21567.16
853.248	20893.38
853.431	21153.47
853.615	20833.99
853.798	21708.47
853.982	21536.44
854.165	21184.19
854.348	21051.07
854.532	20721.35
854.715	20793.03
854.898	20739.78
855.081	20618.95
855.265	21233.34
855.448	21116.61
855.631	20530.89
855.814	20692.68
855.997	21184.19
856.181	20690.63
856.364	20809.41
856.547	20401.86
856.73	21008.06
856.913	20647.62
857.096	20106.96
857.279	20420.3
857.462	20426.44
857.645	20780.74
857.828	20717.25
858.011	20569.8
858.194	20508.36
858.377	20467.4
858.56	20172.49
858.743	20221.64
858.926	20145.87
859.109	20350.67
859.292	20430.54
859.475	19926.74
859.658	20590.28
859.841	20547.27
860.023	20070.09
860.206	19728.08
860.389	20250.32
860.572	20444.87
860.755	19939.02
860.937	20164.3
861.12	20027.09
861.303	19963.6
861.486	19797.71
861.668	19838.67
861.851	20041.42
862.034	19982.03
862.216	19773.14
862.399	19353.3
862.581	19642.07
862.764	19955.41
862.947	19590.87
863.129	19238.62
863.312	19203.8
863.494	20043.47
863.677	19349.21
863.859	18943.71
864.042	19539.67
864.224	19982.03
864.406	19480.28
864.589	19017.44
864.771	19549.91
864.954	18972.38
865.136	18863.84
865.318	18695.91
865.501	19123.93
865.683	18677.47
865.865	18738.91
866.048	18597.6
866.23	18841.31
866.412	19302.11
866.594	18806.5
866.777	19025.63
866.959	19238.62
867.141	18759.39
867.323	19068.64
867.505	18933.47
867.687	18759.39
867.869	18775.78
868.052	18800.35
868.234	18921.18
868.416	18783.97
868.598	19044.06
868.78	18466.53
868.962	18732.77
869.144	19064.54
869.326	18718.43
869.508	18648.8
869.69	18579.17
869.872	18429.67
870.054	18953.95
870.236	18276.07
870.417	18251.5
870.599	18450.15
870.781	19132.12
870.963	18450.15
871.145	18511.59
871.327	18401
871.508	18749.15
871.69	18108.14
871.872	18394.86
872.054	18724.58
872.235	18794.21
872.417	18532.07
872.599	18067.18
872.78	18781.92
872.962	18765.54
873.144	18052.84
873.325	18300.65
873.507	18882.27
873.689	18448.1
873.87	18194.15
874.052	18587.36
874.233	18431.72
874.415	18542.31
874.596	18284.26
874.778	18075.37
874.959	18536.17
875.141	18695.91
875.322	18185.96
875.503	18210.54
875.685	18706.15
875.866	18136.81
876.048	18228.97
876.229	18222.83
876.41	18487.01
876.592	18552.55
876.773	18099.95
876.954	18102
877.136	18751.2
877.317	18288.36
877.498	18282.22
877.679	18317.03
877.86	18947.81
878.042	18511.59
878.223	18157.29
878.404	18728.67
878.585	18837.22
878.766	18976.48
878.947	18693.86
879.128	18579.17
879.309	18861.79
879.49	18736.87
879.672	18589.41
879.853	18749.15
880.034	18409.19
880.215	18925.28
880.396	18829.02
880.576	18566.88
880.757	18681.57
880.938	19322.59
881.119	18716.39
881.3	18726.63
881.481	18874.08
881.662	19963.6
881.843	18820.83
882.023	18763.49
882.204	19201.75
882.385	19082.97
882.566	18654.95
882.747	18851.55
882.927	19336.92
883.108	19187.42
883.289	18894.56
883.469	19549.91
883.65	18943.71
883.831	19191.52
884.011	19306.2
884.192	19195.61
884.373	19330.78
884.553	19658.45
884.734	19302.11
884.914	19474.13
885.095	19959.5
885.275	20018.89
885.456	19695.32
885.636	19093.21
885.817	19371.74
885.997	19554.01
886.178	19146.46
886.358	19619.54
886.538	19523.29
886.719	20537.03
886.899	19261.15
887.08	19541.72
887.26	19988.17
887.44	19414.74
887.621	19693.27
887.801	19853.01
887.981	20586.18
888.161	19898.06
888.342	19613.4
888.522	19554.01
888.702	20115.15
888.882	20111.05
889.062	19793.62
889.242	19422.94
889.423	20360.91
889.603	20000.46
889.783	20016.85
889.963	19478.23
890.143	19869.39
890.323	20166.35
890.503	19691.22
890.683	19324.63
890.863	19515.09
891.043	19742.42
891.223	19482.33
891.403	19726.03
891.583	19861.2
891.763	19861.2
891.943	19439.32
892.122	19447.51
892.302	20078.29
892.482	19814.1
892.662	19480.28
892.842	19785.43
893.022	19824.34
893.201	19644.12
893.381	19785.43
893.561	19853.01
893.741	20293.32
893.92	19650.26
894.1	19603.16
894.28	19893.97
894.459	19969.74
894.639	19879.63
894.819	19408.6
894.998	19435.22
895.178	20039.37
895.357	19840.72
895.537	19029.73
895.716	19306.2
895.896	19445.46
896.075	19586.77
896.255	19111.64
896.434	19052.25
896.614	19738.32
896.793	19568.34
896.973	19263.19
897.152	19207.9
897.331	19336.92
897.511	19588.82
897.69	18783.97
897.87	19048.16
898.049	19332.82
898.228	19173.08
898.407	19095.26
898.587	19121.88
898.766	19128.03
898.945	19095.26
899.124	18929.38
899.304	18915.04
899.483	19160.8
899.662	19402.46
899.841	18794.21
900.02	18775.78
900.199	19009.25
900.378	18822.88
900.557	18550.5
900.737	18276.07
900.916	18745.06
901.095	19097.31
901.274	18700
901.453	18071.28
901.632	18169.58
901.811	18345.7
901.989	18153.19
902.168	18157.29
902.347	18736.87
902.526	18317.03
902.705	17952.49
902.884	17776.37
903.063	18341.61
903.242	18738.91
903.42	17602.29
903.599	17895.15
903.778	18300.65
903.957	18235.11
904.135	17753.84
904.314	17293.05
904.493	17667.83
904.672	17962.73
904.85	17467.13
905.029	17585.91
905.207	17749.75
905.386	18183.91
905.565	17088.25
905.743	16938.75
905.922	16840.45
906.1	17325.82
906.279	16645.89
906.457	16615.17
906.636	17008.38
906.814	16758.53
906.993	16418.57
907.171	16457.48
907.35	16699.14
907.528	16606.98
907.707	16398.09
907.885	16076.55
908.063	16764.67
908.242	16013.07
908.42	16207.62
908.598	15738.64
908.777	16070.41
908.955	15990.54
909.133	15699.73
909.311	15718.16
909.49	16115.47
909.668	16078.6
909.846	15927.05
910.024	15628.05
910.202	16242.44
910.38	16408.33
910.559	15673.1
910.737	16019.21
910.915	16404.23
911.093	16330.5
911.271	16232.2
911.449	16533.25
911.627	16639.75
911.805	17223.42
911.983	16420.61
912.161	16418.57
912.339	16715.52
912.517	17213.18
912.695	16561.92
912.872	16389.89
913.05	16680.71
913.228	16844.54
913.406	16553.73
913.584	16537.35
913.762	16922.37
913.939	16543.49
914.117	16596.74
914.295	16502.53
914.473	16936.7
914.65	16867.07
914.828	16516.87
915.006	16396.04
915.184	16701.19
915.361	16776.96
915.539	16701.19
915.716	16574.21
915.894	16936.7
916.072	16996.09
916.249	16772.86
916.427	16619.27
916.604	16303.88
916.782	16703.23
916.959	16547.59
917.137	16473.86
917.314	16670.47
917.492	16781.06
917.669	16230.15
917.847	16275.21
918.024	16443.14
918.201	16424.71
918.379	16289.54
918.556	16480
918.733	16559.88
918.911	16332.55
919.088	16441.09
919.265	16279.3
919.442	16203.53
919.62	15832.85
919.797	16082.7
919.974	15638.29
920.151	16074.51
920.328	16023.31
920.506	15838.99
920.683	15875.85
920.86	15951.63
921.037	15943.44
921.214	15822.61
921.391	15755.02
921.568	16328.45
921.745	15781.65
921.922	15316.76
922.099	15488.79
922.276	16064.27
922.453	16006.92
922.63	15443.73
922.807	15838.99
922.984	15836.94
923.161	15529.75
923.338	15486.74
923.514	15251.22
923.691	15527.7
923.868	15691.54
924.045	15025.95
924.222	15243.03
924.399	15425.3
924.575	15904.53
924.752	15286.04
924.929	15050.52
925.105	15525.65
925.282	15081.24
925.459	14954.27
925.635	14987.04
925.812	15152.92
925.989	15005.47
926.165	14901.02
926.342	14626.59
926.518	14747.42
926.695	14720.8
926.871	14759.71
927.048	14524.19
927.224	15013.66
927.401	14888.73
927.577	14753.57
927.754	14196.52
927.93	14819.1
928.107	14663.46
928.283	14329.64
928.459	14591.78
928.636	14468.9
928.812	14423.84
928.988	14085.93
929.165	13872.94
929.341	14130.98
929.517	14233.38
929.693	14378.79
929.87	13770.54
930.046	14444.32
930.222	13893.42
930.398	13670.19
930.574	13821.74
930.751	13895.47
930.927	13868.84
931.103	13764.4
931.279	13571.89
931.455	13678.38
931.631	13748.01
931.807	13332.28
931.983	13410.1
932.159	13152.06
932.335	13569.84
932.511	13373.24
932.687	13139.77
932.863	13350.71
933.039	13111.1
933.215	12672.83
933.391	12785.47
933.566	12857.15
933.742	12795.71
933.918	12599.1
934.094	11941.71
934.27	12316.48
934.445	12574.53
934.621	12386.11
934.797	11890.51
934.973	12388.16
935.148	12173.13
935.324	11480.91
935.5	11315.03
935.675	12023.62
935.851	11536.21
936.027	11247.44
936.202	11108.18
936.378	11212.63
936.553	10925.91
936.729	11042.65
936.904	10323.81
937.08	10438.5
937.255	10235.75
937.431	9985.9
937.606	9584.49
937.782	10088.29
937.957	9836.39
938.133	9598.83
938.308	9340.79
938.483	9639.79
938.659	9328.5
938.834	9217.91
939.009	8826.75
939.185	8982.39
939.36	8822.65
939.535	8515.45
939.71	8621.95
939.886	8841.08
940.061	8699.77
940.236	8261.51
940.411	8316.8
940.586	8370.05
940.761	8275.84
940.937	7993.22
941.112	7974.79
941.287	8023.94
941.462	7851.91
941.637	7679.88
941.812	7839.62
941.987	7767.95
942.162	7915.4
942.337	7561.1
942.512	7499.66
942.687	7825.29
942.862	7690.12
943.037	7198.61
943.212	6977.43
943.386	7495.57
943.561	7344.02
943.736	7415.69
943.911	7477.13
944.086	7483.28
944.26	7542.67
944.435	7255.95
944.61	7384.98
944.785	7868.3
944.959	7782.28
945.134	7114.64
945.309	7081.88
945.483	7204.75
945.658	7569.29
945.833	6983.57
946.007	7161.75
946.182	7806.86
946.357	7063.44
946.531	7102.36
946.706	7393.17
946.88	7042.96
947.055	7389.07
947.229	7149.46
947.404	7212.95
947.578	7829.38
947.752	7389.07
947.927	7219.09
948.101	7116.69
948.276	7507.85
948.45	7655.31
948.624	7548.81
948.799	7364.5
948.973	7767.95
949.147	7370.64
949.321	7509.9
949.496	7542.67
949.67	8050.57
949.844	7481.23
950.018	7540.62
950.193	7518.09
950.367	8284.03
950.541	7628.68
950.715	7827.34
950.889	7737.23
951.063	7776.14
951.237	7954.31
951.411	7479.18
951.585	7749.51
951.759	8159.11
951.933	7921.54
952.107	7833.48
952.281	8128.39
952.455	8206.21
952.629	8234.88
952.803	7876.49
952.977	7815.05
953.151	8335.23
953.325	8335.23
953.499	8200.07
953.672	7780.23
953.846	7939.97
954.02	7868.3
954.194	7735.18
954.368	7868.3
954.541	8351.62
954.715	7933.83
954.889	8003.46
955.062	8120.2
955.236	8185.73
955.41	8243.07
955.583	8304.51
955.757	7784.33
955.93	8181.64
956.104	7896.97
956.278	7987.08
956.451	8222.59
956.625	8316.8
956.798	8777.59
956.972	8546.17
957.145	8034.18
957.319	8392.58
957.492	8327.04
957.665	8494.97
957.839	8114.05
958.012	8599.42
958.185	8173.44
958.359	8253.31
958.532	8296.32
958.705	8652.67
958.879	8431.49
959.052	8157.06
959.225	7823.24
959.398	8353.66
959.572	8232.83
959.745	8304.51
959.918	8290.18
960.091	8204.16
960.264	8681.34
960.438	8243.07
960.611	8124.29
960.784	8677.24
960.957	8212.35
961.13	8693.63
961.303	8087.43
961.476	8554.37
961.649	8546.17
961.822	8224.64
961.995	8265.6
962.168	8761.21
962.341	8488.83
962.514	8226.69
962.686	8316.8
962.859	8435.58
963.032	8398.72
963.205	8122.24
963.378	8091.52
963.551	8439.68
963.723	8249.22
963.896	8277.89
964.069	8279.94
964.242	8193.92
964.414	8421.25
964.587	8300.42
964.76	8198.02
964.932	8413.06
965.105	8322.94
965.278	7970.69
965.45	8208.26
965.623	8320.9
965.795	8302.47
965.968	8335.23
966.14	8130.44
966.313	8126.34
966.485	8007.56
966.658	7847.82
966.83	7888.78
967.003	8437.63
967.175	8400.77
967.348	7921.54
967.52	8112
967.692	8548.22
967.865	8269.7
968.037	8132.48
968.209	8085.38
968.382	8023.94
968.554	8443.78
968.726	7946.12
968.898	7931.78
969.071	8124.29
969.243	8200.07
969.415	7778.19
969.587	8075.14
969.759	8468.35
969.932	8267.65
970.104	7937.93
970.276	7417.74
970.448	7804.81
970.62	7692.17
970.792	7661.45
970.964	7872.39
971.136	8599.42
971.308	8058.76
971.48	7692.17
971.652	7856.01
971.824	8179.59
971.996	7845.77
972.168	7544.72
972.339	7763.85
972.511	8025.99
972.683	7696.27
972.855	7722.89
973.027	7550.86
973.199	7653.26
973.37	7794.57
973.542	7466.89
973.714	7804.81
973.886	7595.92
974.057	7737.23
974.229	7344.02
974.401	7436.17
974.572	7423.89
974.744	7413.65
974.915	7333.78
975.087	7358.35
975.259	7933.83
975.43	7307.15
975.602	7245.71
975.773	7315.34
975.945	7272.34
976.116	7634.83
976.288	7227.28
976.459	7356.3
976.63	7266.19
976.802	7288.72
976.973	7063.44
977.145	7260.05
977.316	7802.76
977.487	7462.8
977.659	7284.62
977.83	7118.74
978.001	7853.96
978.172	7335.82
978.344	7231.38
978.515	7141.27
978.686	7098.26
978.857	7432.08
979.028	6967.19
979.2	6791.06
979.371	7354.26
979.542	7024.53
979.713	7128.98
979.884	6485.92
980.055	6918.04
980.226	7069.59
980.397	6713.24
980.568	6854.55
980.739	7202.71
980.91	6791.06
981.081	6795.16
981.252	6717.34
981.423	6950.81
981.594	7151.51
981.765	6592.41
981.936	6700.95
982.106	6915.99
982.277	7176.08
982.448	6664.09
982.619	6733.72
982.79	6608.8
982.96	7071.64
983.131	6569.88
983.302	6432.67
983.472	6627.23
983.643	6770.58
983.814	6637.47
983.984	6553.5
984.155	6447.01
984.326	6944.66
984.496	6582.17
984.667	6354.85
984.837	6506.4
985.008	6805.4
985.178	6467.49
985.349	6258.59
985.519	6504.35
985.69	6131.62
985.86	6266.78
986.031	6139.81
986.201	6393.76
986.371	6449.05
986.542	6129.57
986.712	5932.97
986.882	6559.64
987.053	6479.77
987.223	6010.79
987.393	6162.34
987.563	6066.08
987.734	6340.51
987.904	6350.75
988.074	6000.55
988.244	6301.6
988.414	5918.63
988.585	5812.14
988.755	5963.68
988.925	6102.95
989.095	6326.18
989.265	5681.07
989.435	5805.99
989.605	6080.42
989.775	6037.41
989.945	5945.25
990.115	5629.87
990.285	5867.43
990.455	5912.49
990.625	5650.35
990.795	5605.29
990.965	6133.67
991.134	5572.52
991.304	5463.98
991.474	5547.95
991.644	5887.91
991.814	6197.15
991.984	5291.95
992.153	5289.9
992.323	5500.84
992.493	5711.78
992.662	5164.98
992.832	5554.09
993.002	5633.96
993.171	5500.84
993.341	5283.76
993.511	5609.39
993.68	5294
993.85	5603.24
994.019	5136.31
994.189	5169.07
994.358	5515.18
994.528	5257.14
994.697	4745.14
994.867	4986.8
995.036	5504.94
995.206	5181.36
995.375	4992.95
995.544	5099.44
995.714	5224.37
995.883	5367.73
996.052	5101.49
996.222	4782.01
996.391	5758.89
996.56	5105.59
996.73	4949.94
996.899	4927.41
997.068	5326.77
997.237	5210.03
997.406	4749.24
997.576	4775.86
997.745	5019.57
997.914	5031.86
998.083	4513.72
998.252	4659.13
998.421	5027.76
998.59	4632.51
998.759	4562.87
998.928	4519.87
999.097	5263.28
999.266	4915.12
999.435	4863.93
999.604	4399.04
999.773	5355.44
999.942	4718.52
1000.111	4335.55
1000.28	4437.95
1000.448	4509.63
1000.617	4513.72
1000.786	4452.28
1000.955	4237.25
1001.124	4698.04
1001.292	5242.8
1001.461	4304.83
1001.63	4169.66
1001.798	4870.07
1001.967	4790.2
1002.136	4184
1002.304	4261.82
1002.473	4562.87
1002.642	4511.68
1002.81	4231.1
1002.979	4196.29
1003.147	4571.07
1003.316	4951.99
1003.484	4081.6
1003.653	3872.71
1003.821	4593.59
1003.99	4284.35
1004.158	4046.79
1004.327	4112.32
1004.495	4304.83
1004.663	4069.31
1004.832	4157.38
1005	3655.62
1005.168	4263.87
1005.337	4059.07
1005.505	3704.78
1005.673	4009.92
1005.842	4255.68
1006.01	4210.62
1006.178	3672.01
1006.346	3813.32
1006.514	4147.14
1006.683	4433.85
1006.851	3774.41
1007.019	3833.8
1007.187	3790.79
1007.355	3661.77
1007.523	3522.51
1007.691	3495.88
1007.859	3585.99
1008.027	4202.43
1008.195	3643.34
1008.363	3508.17
1008.531	4097.99
1008.699	3762.12
1008.867	3334.09
1009.035	3436.49
1009.203	4091.84
1009.37	3633.1
1009.538	3553.23
1009.706	3729.35
1009.874	3854.28
1010.042	3659.72
1010.209	3256.27
1010.377	3325.9
1010.545	3741.64
1010.713	3637.19
1010.88	3350.48
1011.048	3282.89
1011.216	3514.31
1011.383	3852.23
1011.551	3196.88
1011.718	3346.38
1011.886	3592.14
1012.054	3461.07
1012.221	3186.64
1012.389	3067.86
1012.556	3307.47
1012.724	3852.23
1012.891	3010.51
1013.058	2865.11
1013.226	3487.69
1013.393	3549.13
1013.561	2985.94
1013.728	2924.5
1013.895	3428.3
1014.063	3334.09
1014.23	2947.03
1014.397	3106.77
1014.565	3448.78
1014.732	3221.45
1014.899	2955.22
1015.066	2934.74
1015.233	3356.62
1015.401	3321.81
1015.568	2850.77
1015.735	2871.25
1015.902	3145.68
1016.069	3194.83
1016.236	2641.88
1016.403	2703.32
1016.57	2871.25
1016.737	3026.9
1016.904	2738.13
1017.071	2586.58
1017.238	2815.96
1017.405	3086.29
1017.572	2545.63
1017.739	2826.2
1017.906	3084.24
1018.073	3100.62
1018.24	2516.95
1018.407	2578.39
1018.573	3043.28
1018.74	2676.7
1018.907	2516.95
1019.074	2314.2
1019.241	3061.71
1019.407	2674.65
1019.574	2430.94
1019.741	2355.16
1019.907	2789.33
1020.074	2858.96
1020.241	2279.39
1020.407	2205.66
1020.574	2893.78
1020.74	2930.64
1020.907	2357.21
1021.073	2367.45
1021.24	3248.08
1021.406	2990.03
1021.573	2353.12
1021.739	2129.89
1021.906	2803.67
1022.072	2506.71
1022.239	2256.86
1022.405	2265.05
1022.571	2490.33
1022.738	2414.56
1022.904	2043.87
1023.07	2207.71
1023.237	2605.02
1023.403	2654.17
1023.569	2234.33
1023.735	1978.34
1023.902	2527.19
1024.068	2502.62
1024.234	2047.97
1024.4	2080.74
1024.566	2424.8
1024.732	2496.47
1024.898	2097.12
1025.065	1826.79
1025.231	2584.54
1025.397	2168.8
1025.563	2066.4
1025.729	1880.04
1025.895	1923.04
1026.061	2146.27
1026.227	1802.21
1026.392	1892.32
1026.558	2619.35
1026.724	2332.64
1026.89	1796.07
1027.056	1974.24
1027.222	2301.92
1027.388	2041.82
1027.553	1886.18
1027.719	1841.12
1027.885	2572.25
1028.051	2269.15
1028.216	1806.31
1028.382	1830.88
1028.548	2387.93
1028.713	1935.33
1028.879	1732.58
1029.045	1873.89
1029.21	2404.32
1029.376	2377.69
1029.541	1820.64
1029.707	1771.49
1029.873	2232.29
1030.038	2207.71
1030.204	1679.33
1030.369	1724.39
1030.534	2246.62
1030.7	1941.47
1030.865	1654.76
1031.031	1720.29
1031.196	1957.86
1031.361	1984.48
1031.527	1525.74
1031.692	1628.14
1031.857	1636.33
1032.023	2084.83
1032.188	1472.49
1032.353	1724.39
1032.518	2260.96
1032.684	1896.42
1032.849	1527.78
1033.014	1677.29
1033.179	2035.68
1033.344	1980.39
1033.509	1724.39
1033.674	1546.22
1033.839	1986.53
1034.004	1980.39
1034.17	1671.14
1034.335	1409
1034.5	1724.39
1034.664	1710.05
1034.829	1527.78
1034.994	1468.39
1035.159	1916.9
1035.324	1912.8
1035.489	1320.94
1035.654	1322.99
1035.819	2080.74
1035.984	1736.68
1036.148	1454.06
1036.313	1359.85
1036.478	2007.01
1036.643	1728.49
1036.807	1322.99
1036.972	1257.45
1037.137	1918.95
1037.301	1578.98
1037.466	1288.17
1037.631	1431.53
1037.795	1970.15
1037.96	1714.15
1038.124	1597.42
1038.289	1325.04
1038.454	1859.56
1038.618	1681.38
1038.783	1236.97
1038.947	1376.24
1039.111	1607.66
1039.276	1511.4
1039.44	1228.78
1039.605	1679.33
1039.769	1484.78
1039.933	1527.78
1040.098	1259.5
1040.262	1339.37
1040.426	1798.12
1040.591	1738.73
1040.755	1196.01
1040.919	1224.69
1041.083	1495.02
1041.248	1409
1041.412	1064.94
1041.576	1071.09
1041.74	1548.26
1041.904	1736.68
1042.068	1032.18
1042.232	1142.77
1042.397	1665
1042.561	1564.65
1042.725	817.14
1042.889	1257.45
1043.053	1615.85
1043.217	1527.78
1043.381	1126.38
1043.544	972.79
1043.708	1722.34
1043.872	1163.25
1044.036	802.8
1044.2	925.68
1044.364	1513.45
1044.528	1671.14
1044.691	4016.07
1044.855	841.72
1045.019	1732.58
1045.183	1468.39
1045.346	999.41
1045.51	983.03
1045.674	1363.95
1045.837	1540.07
1046.001	1023.98
1046.165	972.79
1046.328	1871.84
1046.492	1396.71
1046.655	1177.58
1046.819	1056.75
1046.983	1140.72
1047.146	1275.88
1047.31	1079.28
1047.473	677.88
1047.636	1325.04
1047.8	1062.9
1047.963	917.49
1048.127	856.05
1048.29	1073.14
