Data from Hydrogel_Ink_Intensity_Test_1_USB4F045381__2__00002.txt Node

Date: Mon Jul 31 10:33:53 EDT 2023
User: mmckonesweet
Spectrometer: USB4F04538
Trigger mode: 4
Integration Time (sec): 9.000000E-1
Scans to average: 1
Electric dark correction enabled: true
Nonlinearity correction enabled: false
Boxcar width: 0
XAxis mode: Wavelengths
Number of Pixels in Spectrum: 3648
>>>>>Begin Spectral Data<<<<<
345.52	-850.93
345.736	-850.93
345.952	-850.93
346.168	-982
346.384	-867.31
346.6	-101.37
346.816	-224.25
347.032	-220.16
347.248	207.87
347.464	-158.72
347.68	-39.94
347.896	130.05
348.112	373.75
348.328	-78.85
348.544	-101.37
348.76	-56.32
348.975	269.31
349.191	-136.19
349.407	-97.28
349.623	52.22
349.839	-70.65
350.055	74.75
350.27	246.78
350.486	300.03
350.702	486.39
350.918	326.65
351.133	-19.46
351.349	211.96
351.565	496.63
351.781	-134.14
351.996	119.81
352.212	457.72
352.428	-84.99
352.644	-74.75
352.859	-89.09
353.075	379.9
353.291	93.18
353.506	56.32
353.722	-164.86
353.938	-27.65
354.153	515.06
354.369	214.01
354.584	-9.22
354.8	257.02
355.016	-146.43
355.231	-95.23
355.447	80.89
355.662	179.2
355.878	932.85
356.093	-128
356.309	84.99
356.524	-121.85
356.74	222.2
356.955	-39.94
357.171	91.13
357.386	226.3
357.602	-68.61
357.817	54.27
358.033	39.94
358.248	379.9
358.464	269.31
358.679	111.61
358.895	-171.01
359.11	146.43
359.325	494.58
359.541	422.91
359.756	191.49
359.972	-87.04
360.187	203.77
360.402	-46.08
360.618	-23.55
360.833	990.19
361.048	150.53
361.264	-29.7
361.479	80.89
361.694	52.22
361.909	244.73
362.125	-29.7
362.34	15.36
362.555	398.33
362.77	173.05
362.986	-54.27
363.201	-15.36
363.416	273.4
363.631	84.99
363.847	19.46
364.062	23.55
364.277	236.54
364.492	269.31
364.707	25.6
364.922	-152.57
365.138	400.38
365.353	498.68
365.568	-74.75
365.783	97.28
365.998	183.29
366.213	732.15
366.428	-33.79
366.643	226.3
366.858	418.81
367.073	267.26
367.288	11.26
367.503	-54.27
367.718	244.73
367.933	424.95
368.148	-97.28
368.363	125.95
368.578	136.19
368.793	523.26
369.008	74.75
369.223	29.7
369.438	377.85
369.653	625.65
369.868	-58.37
370.083	5.12
370.298	322.56
370.513	592.89
370.728	248.83
370.943	15.36
371.157	58.37
371.372	674.81
371.587	-19.46
371.802	-21.5
372.017	252.92
372.232	537.59
372.446	189.44
372.661	-58.37
372.876	388.09
373.091	351.23
373.306	142.33
373.52	-27.65
373.735	115.71
373.95	498.68
374.165	119.81
374.379	117.76
374.594	33.79
374.809	267.26
375.023	263.16
375.238	19.46
375.453	441.34
375.667	-56.32
375.882	175.1
376.097	35.84
376.311	291.84
376.526	250.88
376.741	27.65
376.955	308.22
377.17	789.49
377.384	789.49
377.599	162.81
377.813	48.13
378.028	736.24
378.242	353.27
378.457	195.58
378.672	-41.98
378.886	322.56
379.101	52.22
379.315	29.7
379.53	201.72
379.744	412.67
379.958	408.57
380.173	203.77
380.387	97.28
380.602	420.86
380.816	70.65
381.031	158.72
381.245	207.87
381.459	441.34
381.674	1106.93
381.888	89.09
382.103	431.1
382.317	132.09
382.531	799.73
382.746	238.59
382.96	216.06
383.174	273.4
383.388	637.94
383.603	377.85
383.817	162.81
384.031	338.94
384.246	750.58
384.46	365.56
384.674	517.11
384.888	320.51
385.103	338.94
385.317	121.85
385.531	297.98
385.745	594.93
385.959	699.38
386.174	152.57
386.388	121.85
386.602	345.08
386.816	250.88
387.03	211.96
387.244	275.45
387.458	353.27
387.672	644.09
387.887	162.81
388.101	70.65
388.315	736.24
388.529	584.7
388.743	216.06
388.957	199.68
389.171	695.29
389.385	125.95
389.599	355.32
389.813	531.45
390.027	502.78
390.241	1088.5
390.455	283.64
390.669	439.29
390.883	343.03
391.097	822.26
391.311	478.2
391.525	240.64
391.738	564.22
391.952	607.22
392.166	416.76
392.38	316.41
392.594	670.71
392.808	758.77
393.022	369.66
393.236	449.53
393.449	603.13
393.663	582.65
393.877	195.58
394.091	424.95
394.305	429.05
394.518	386.04
394.732	336.89
394.946	388.09
395.16	861.17
395.373	482.3
395.587	322.56
395.801	257.02
396.015	830.45
396.228	578.55
396.442	291.84
396.656	277.5
396.869	719.86
397.083	875.51
397.297	459.77
397.51	447.48
397.724	891.89
397.938	558.07
398.151	332.79
398.365	355.32
398.578	801.78
398.792	959.47
399.005	623.61
399.219	549.88
399.433	574.46
399.646	703.48
399.86	605.17
400.073	635.89
400.287	789.49
400.5	623.61
400.714	635.89
400.927	492.54
401.141	691.19
401.354	1485.8
401.567	797.68
401.781	410.62
401.994	891.89
402.208	1147.89
402.421	582.65
402.635	590.84
402.848	639.99
403.061	984.05
403.275	777.2
403.488	400.38
403.701	1223.66
403.915	891.89
404.128	699.38
404.341	607.22
404.555	852.98
404.768	742.39
404.981	678.9
405.195	580.6
405.408	1102.83
405.621	906.23
405.834	762.87
406.048	523.26
406.261	1164.27
406.474	1190.89
406.687	596.98
406.9	867.31
407.114	627.7
407.327	973.81
407.54	451.58
407.753	535.54
407.966	574.46
408.179	982
408.392	590.84
408.605	531.45
408.819	943.09
409.032	986.1
409.245	730.1
409.458	965.62
409.671	1043.44
409.884	1104.88
410.097	578.55
410.31	844.79
410.523	961.52
410.736	920.56
410.949	793.59
411.162	783.35
411.375	1342.44
411.588	1240.05
411.801	986.1
412.014	723.96
412.227	881.65
412.44	752.63
412.653	769.01
412.865	1129.45
413.078	1063.92
413.291	1246.19
413.504	984.05
413.717	820.21
413.93	1174.51
414.143	906.23
414.356	906.23
414.568	781.3
414.781	1145.84
414.994	1018.86
415.207	906.23
415.42	1008.62
415.632	1178.61
415.845	1528.81
416.058	707.57
416.271	830.45
416.483	1143.79
416.696	1477.61
416.909	875.51
417.121	881.65
417.334	1276.91
417.547	1602.54
417.759	924.66
417.972	922.61
418.185	1008.62
418.397	1377.26
418.61	883.7
418.823	902.13
419.035	1553.38
419.248	1176.56
419.46	1115.12
419.673	1102.83
419.885	1321.96
420.098	1121.26
420.311	1078.26
420.523	846.84
420.736	1346.54
420.948	1172.46
421.161	1043.44
421.373	965.62
421.586	1299.44
421.798	1065.97
422.01	865.27
422.223	1170.41
422.435	1160.17
422.648	1362.92
422.86	1213.42
423.073	1160.17
423.285	1555.43
423.497	1070.06
423.71	1121.26
423.922	1070.06
424.134	1514.47
424.347	1731.56
424.559	1489.9
424.771	1471.47
424.984	1260.52
425.196	1526.76
425.408	1080.3
425.621	1197.04
425.833	1786.85
426.045	1805.28
426.257	1235.95
426.47	1262.57
426.682	1645.54
426.894	1623.02
427.106	1442.79
427.318	1403.88
427.531	1383.4
427.743	1700.84
427.955	1375.21
428.167	1768.42
428.379	1776.61
428.591	1559.53
428.804	1594.34
429.016	1324.01
429.228	1477.61
429.44	1754.09
429.652	1729.51
429.864	1360.88
430.076	1606.63
430.288	1639.4
430.5	1528.81
430.712	1731.56
430.924	1971.17
431.136	1680.36
431.348	1342.44
431.56	1534.95
431.772	1745.89
431.984	1731.56
432.196	1559.53
432.408	1739.75
432.62	1659.88
432.832	1948.64
433.044	1971.17
433.256	1772.52
433.468	2075.62
433.679	1563.62
433.891	1555.43
434.103	1956.83
434.315	2186.21
434.527	2130.91
434.739	1823.72
434.95	1956.83
435.162	2208.73
435.374	1782.76
435.586	1778.66
435.798	1737.7
436.009	1674.21
436.221	1833.96
436.433	1719.27
436.645	1952.74
436.856	1924.07
437.068	2274.27
437.28	1817.57
437.491	2204.64
437.703	2327.52
437.915	2092
438.126	1981.41
438.338	2139.1
438.55	2077.66
438.761	2221.02
438.973	2128.86
439.184	2046.94
439.396	2163.68
439.608	2444.25
439.819	2112.48
440.031	2073.57
440.242	2464.73
440.454	2452.44
440.665	2126.82
440.877	2364.38
441.088	2366.43
441.3	2304.99
441.511	2040.8
441.723	2118.62
441.934	2395.1
442.146	2388.96
442.357	2366.43
442.569	2481.11
442.78	2403.29
442.991	2661.34
443.203	2552.79
443.414	2212.83
443.626	2683.86
443.837	2233.31
444.048	2274.27
444.26	2270.17
444.471	2524.12
444.682	2743.25
444.894	2087.9
445.105	2135.01
445.316	2800.6
445.528	2765.78
445.739	2348
445.95	2509.79
446.161	2616.28
446.373	2802.65
446.584	2515.93
446.795	2509.79
447.006	2761.69
447.217	3001.3
447.429	2388.96
447.64	2425.82
447.851	2995.15
448.062	2747.35
448.273	2350.04
448.484	2552.79
448.695	2788.31
448.907	2722.77
449.118	2587.61
449.329	2733.01
449.54	2640.86
449.751	2593.75
449.962	2534.36
450.173	2536.41
450.384	3288.01
450.595	3206.1
450.806	2835.41
451.017	2800.6
451.228	3232.72
451.439	3208.14
451.65	2782.17
451.861	2587.61
452.072	2812.89
452.283	2878.42
452.494	3113.94
452.705	2816.98
452.915	3496.91
453.126	3038.16
453.337	3140.56
453.548	2925.52
453.759	3232.72
453.97	3589.07
454.181	3228.62
454.391	3060.69
454.602	3349.45
454.813	3400.65
455.024	3251.15
455.235	3054.55
455.445	3324.88
455.656	3562.44
455.867	3269.58
456.078	3097.55
456.288	3189.71
456.499	3548.11
456.71	3202
456.921	3507.15
457.131	3488.71
457.342	3537.87
457.553	3386.32
457.763	3427.28
457.974	3746.76
458.184	3609.54
458.395	3449.8
458.606	3285.97
458.816	3845.06
459.027	4248.51
459.237	3652.55
459.448	3556.3
459.659	4017.09
459.869	4422.59
460.08	3478.47
460.29	3894.21
460.501	4520.89
460.711	3826.63
460.922	3742.66
461.132	3843.01
461.343	4617.15
461.553	3869.64
461.764	3951.56
461.974	3886.02
462.184	4144.06
462.395	4293.57
462.605	4228.03
462.816	3996.61
463.026	4344.77
463.236	4731.83
463.447	4154.3
463.657	4285.37
463.867	4770.74
464.078	4361.15
464.288	4455.36
464.498	4492.22
464.709	4572.09
464.919	4398.01
465.129	4629.43
465.339	4418.49
465.55	4828.09
465.76	4842.42
465.97	4752.31
466.18	4602.81
466.391	5184.43
466.601	5131.19
466.811	5039.03
467.021	4834.23
467.231	5129.14
467.441	5331.89
467.651	5206.96
467.862	4744.12
468.072	5450.67
468.282	5659.56
468.492	5209.01
468.702	5428.14
468.912	5555.12
469.122	6089.64
469.332	5786.54
469.542	5432.24
469.752	6022.05
469.962	6007.72
470.172	5446.57
470.382	5753.77
470.592	6136.74
470.802	6398.88
471.012	5968.8
471.222	6183.84
471.432	6388.64
471.642	6429.6
471.852	6431.65
472.062	6257.57
472.272	6454.17
472.482	6405.02
472.691	6480.8
472.901	6329.25
473.111	6636.44
473.321	7402.38
473.531	6658.97
473.741	6888.34
473.95	7187.35
474.16	7232.4
474.37	7175.06
474.58	6998.93
474.79	7852.94
474.999	7631.76
475.209	6964.12
475.419	7377.81
475.628	7750.54
475.838	7904.14
476.048	7685
476.258	7596.94
476.467	8235.91
476.677	7992.2
476.886	7961.48
477.096	8254.34
477.306	8252.29
477.515	8434.56
477.725	8272.77
477.935	8412.03
478.144	8751.99
478.354	8477.57
478.563	8766.33
478.773	8610.68
478.982	8887.16
479.192	9360.24
479.401	9118.58
479.611	8895.35
479.82	8911.74
480.03	9352.05
480.239	9327.47
480.449	9157.49
480.658	9970.54
480.868	9692.01
481.077	9782.12
481.287	9649
481.496	9911.14
481.705	10472.29
481.915	10144.61
482.124	10117.99
482.333	10277.73
482.543	10658.65
482.752	10533.73
482.961	10394.47
483.171	10820.44
483.38	10541.92
483.589	10603.36
483.799	10593.12
484.008	11187.03
484.217	11197.27
484.426	10978.14
484.636	10896.22
484.845	11281.24
485.054	10992.47
485.263	11664.21
485.472	11463.51
485.682	12053.32
485.891	11842.38
486.1	11322.2
486.309	11758.41
486.518	12225.35
486.727	12229.45
486.936	11971.4
487.146	12073.8
487.355	12761.92
487.564	12168.01
487.773	12186.44
487.982	12385.09
488.191	12555.07
488.4	12759.87
488.609	12438.34
488.818	12872.51
489.027	13499.19
489.236	13454.13
489.445	13239.09
489.654	12976.95
489.863	13675.31
490.072	13441.84
490.281	13656.88
490.49	13253.43
490.698	14089
490.907	14015.27
491.116	13673.26
491.325	13617.97
491.534	13984.55
491.743	13982.51
491.952	13941.55
492.16	14185.26
492.369	14324.52
492.578	14371.62
492.787	14203.69
492.996	14058.28
493.204	14414.63
493.413	15229.72
493.622	14377.76
493.831	14248.74
494.039	15375.13
494.248	14779.17
494.457	14736.16
494.665	14842.65
494.874	15250.2
495.083	15717.14
495.291	14953.24
495.5	15137.56
495.709	15745.81
495.917	15366.93
496.126	15303.45
496.335	15475.48
496.543	15536.91
496.752	15784.72
496.96	15948.56
497.169	15772.43
497.377	16075.53
497.586	16487.17
497.794	16120.59
498.003	15690.51
498.211	16202.5
498.42	16575.24
498.628	16251.66
498.837	16405.25
499.045	16511.75
499.254	16618.24
499.462	16325.38
499.671	16646.91
499.879	17068.8
500.087	17208.06
500.296	16620.29
500.504	16874.24
500.713	17040.12
500.921	17806.06
501.129	17074.94
501.338	17005.31
501.546	17560.31
501.754	17410.81
501.962	17124.09
502.171	17484.53
502.379	17879.79
502.587	17881.84
502.795	17742.58
503.004	17541.88
503.212	18045.68
503.42	18004.72
503.628	17752.82
503.837	18053.87
504.045	18098.92
504.253	18662.12
504.461	18211.56
504.669	17808.11
504.877	18535.14
505.085	18836.19
505.294	18199.27
505.502	18512.61
505.71	18791.14
505.918	18848.48
506.126	18320.1
506.334	18496.23
506.542	18805.47
506.75	18709.22
506.958	18897.63
507.166	18864.86
507.374	18967.26
507.582	19430.1
507.79	18873.06
507.998	19143.39
508.206	19450.58
508.414	19573.46
508.622	19516.12
508.83	19188.44
509.037	20009.68
509.245	19139.29
509.453	19313.37
509.661	19393.24
509.869	19849.94
510.077	19321.56
510.285	19612.37
510.492	19137.24
510.7	20435.66
510.908	19794.64
511.116	19512.02
511.324	19849.94
511.531	20122.32
511.739	20015.82
511.947	20298.44
512.155	20382.41
512.362	20255.43
512.57	19759.83
512.778	20089.55
512.985	19999.44
513.193	20777.67
513.401	20812.48
513.608	20253.39
513.816	20652.74
514.024	20525.77
514.231	20937.41
514.439	20617.93
514.646	20562.63
514.854	20970.18
515.061	20857.54
515.269	20646.6
515.477	20490.95
515.684	21111.49
515.892	21590.71
516.099	20884.16
516.307	21199.55
516.514	21281.47
516.722	21809.84
516.929	20927.17
517.136	21265.08
517.344	21555.9
517.551	21410.49
517.759	21086.91
517.966	21465.78
518.173	21668.53
518.381	21459.64
518.588	21506.74
518.796	21572.28
519.003	21953.2
519.21	21801.65
519.418	21887.67
519.625	22319.79
519.832	22158
520.039	22311.6
520.247	21775.03
520.454	21918.39
520.661	22786.72
520.868	22407.85
521.076	22440.62
521.283	22522.54
521.49	23145.12
521.697	22842.02
521.904	22457
522.112	22237.87
522.319	22866.6
522.526	22680.23
522.733	22846.12
522.94	22616.74
523.147	22868.64
523.354	23249.57
523.561	22833.83
523.768	23214.75
523.975	23671.45
524.183	23403.16
524.39	23233.18
524.597	22934.18
524.804	23261.85
525.011	23581.34
525.218	23239.33
525.425	23253.66
525.632	23581.34
525.838	23823
526.045	23597.72
526.252	23380.64
526.459	24842.88
526.666	24554.12
526.873	23669.4
527.08	23892.63
527.287	24472.2
527.494	24015.51
527.701	24287.89
527.907	24052.37
528.114	24595.08
528.321	24447.63
528.528	24437.39
528.735	24556.17
528.941	24392.33
529.148	24324.75
529.355	24177.3
529.562	24076.94
529.768	25047.68
529.975	24578.7
530.182	24976
530.388	24742.53
530.595	25361.02
530.802	24752.77
531.008	25219.71
531.215	25361.02
531.422	25827.96
531.628	26159.73
531.835	25033.35
532.042	25088.64
532.248	25477.76
532.455	25604.73
532.661	25358.97
532.868	25172.61
533.074	25830.01
533.281	25803.38
533.487	25563.77
533.694	25397.88
533.9	25930.36
534.107	25899.64
534.313	25879.16
534.52	25873.01
534.726	26391.15
534.933	26790.5
535.139	26022.51
535.345	25938.55
535.552	26581.61
535.758	26716.78
535.965	26425.96
536.171	26182.26
536.377	26804.84
536.584	26864.23
536.79	26495.6
536.996	26770.02
537.203	26790.5
537.409	26858.09
537.615	26751.59
537.821	26962.53
538.028	27253.34
538.234	26925.67
538.44	26964.58
538.646	27071.07
538.853	27542.11
539.059	27294.3
539.265	27720.28
539.471	27271.78
539.677	27558.49
539.883	27619.93
540.09	27255.39
540.296	27652.7
540.502	27699.8
540.708	27300.45
540.914	27867.73
541.12	27826.78
541.326	28299.86
541.532	28021.33
541.738	28174.93
541.944	28291.66
542.15	28142.16
542.356	28271.18
542.562	28099.16
542.768	28121.68
542.974	29112.9
543.18	29334.08
543.386	28369.49
543.592	28205.65
543.798	29241.92
544.004	29125.19
544.21	28858.95
544.415	28738.12
544.621	29188.67
544.827	29239.87
545.033	28717.64
545.239	28674.63
545.445	29342.27
545.651	29039.17
545.856	29182.53
546.062	29522.49
546.268	29223.49
546.474	29200.96
546.679	29133.38
546.885	29184.58
547.091	29153.86
547.297	29721.15
547.502	29166.15
547.708	28983.88
547.914	29280.83
548.119	29960.76
548.325	29321.79
548.531	29209.15
548.736	30036.53
548.942	29399.62
549.147	29809.21
549.353	29968.95
549.559	30581.29
549.764	29524.54
549.97	29592.12
550.175	29637.18
550.381	30444.08
550.586	30018.1
550.792	30310.96
550.997	30317.11
551.203	30454.32
551.408	30675.5
551.614	29999.67
551.819	30476.85
552.025	30874.15
552.23	31146.53
552.435	30825
552.641	31250.98
552.846	30882.34
553.052	31339.04
553.257	30949.93
553.462	31121.96
553.668	30919.21
553.873	31461.92
554.078	31025.7
554.283	31226.4
554.489	31623.71
554.694	31869.47
554.899	31197.73
555.105	31525.41
555.31	31957.53
555.515	31894.04
555.72	31652.38
555.925	31259.17
556.131	32117.27
556.336	31486.5
556.541	31949.34
556.746	31509.02
556.951	31726.11
557.156	32098.84
557.361	32057.88
557.567	32346.64
557.772	32789
557.977	32688.65
558.182	31912.47
558.387	32014.87
558.592	31959.58
558.797	32690.7
559.002	32160.28
559.207	32119.32
559.412	32711.18
559.617	32635.41
559.822	32320.02
560.027	32385.55
560.232	32692.75
560.437	32459.28
560.642	32133.65
560.847	32526.86
561.051	32905.74
561.256	32608.78
561.461	32510.48
561.666	32412.18
561.871	32899.59
562.076	33057.29
562.281	33045
562.485	32535.06
562.69	32946.7
562.895	32735.76
563.1	32969.22
563.305	32678.41
563.509	33546.75
563.714	33698.3
563.919	32930.31
564.123	33290.76
564.328	32987.66
564.533	33948.15
564.737	32596.49
564.942	33024.52
565.147	33976.83
565.351	34048.5
565.556	33548.8
565.761	33399.3
565.965	33823.23
566.17	33260.04
566.374	33126.92
566.579	33090.06
566.784	33337.86
566.988	33712.64
567.193	33262.08
567.397	33434.11
567.602	33608.19
567.806	33575.42
568.011	33319.43
568.215	34167.29
568.42	33962.49
568.624	33786.36
568.828	33604.1
569.033	34013.69
569.237	34118.14
569.442	34413.04
569.646	33765.88
569.85	34247.16
570.055	34413.04
570.259	34337.27
570.463	34548.21
570.668	33999.35
570.872	34228.73
571.076	34587.12
571.281	34220.53
571.485	34644.46
571.689	34478.58
571.893	34793.97
572.098	34410.99
572.302	34462.19
572.506	34836.97
572.71	34642.42
572.914	34957.8
573.119	34836.97
573.323	35244.52
573.527	35412.45
573.731	35142.12
573.935	35242.47
574.139	35680.74
574.343	34738.67
574.547	35221.99
574.751	34757.1
574.955	35776.99
575.159	35369.44
575.364	34992.62
575.568	35004.91
575.772	35254.76
575.976	35922.4
576.18	34955.75
576.383	35310.05
576.587	36219.35
576.791	35875.29
576.995	35447.27
577.199	35252.71
577.403	35940.83
577.607	36354.52
577.811	36057.56
578.015	35805.66
578.219	36008.41
578.422	36096.47
578.626	35834.33
578.83	36071.9
579.034	36155.86
579.238	36321.75
579.442	36209.11
579.645	36362.71
579.849	36301.27
580.053	36483.54
580.257	35748.32
580.46	35885.53
580.664	36796.88
580.868	36667.86
581.071	36643.28
581.275	36467.16
581.479	36508.11
581.682	36454.87
581.886	36745.68
582.09	36606.42
582.293	37196.23
582.497	37065.16
582.7	36606.42
582.904	36592.08
583.107	36946.38
583.311	36725.2
583.515	36960.72
583.718	36821.45
583.922	37390.79
584.125	37851.58
584.329	36581.84
584.532	37315.01
584.735	37571.01
584.939	37310.92
585.142	37296.58
585.346	37288.39
585.549	37820.86
585.753	37767.62
585.956	37425.6
586.159	37421.51
586.363	38379.96
586.566	37843.39
586.769	37886.4
586.973	37310.92
587.176	37980.6
587.379	38306.23
587.582	38091.19
587.786	37937.6
587.989	37966.27
588.192	38451.64
588.395	38021.56
588.599	38183.35
588.802	38349.24
589.005	38361.53
589.208	38117.82
589.411	38244.79
589.615	38646.19
589.818	38928.81
590.021	38832.56
590.224	38705.59
590.427	38891.95
590.63	38873.52
590.833	38685.11
591.036	38867.37
591.239	38994.35
591.442	38459.83
591.645	38910.38
591.848	39289.26
592.051	39434.66
592.254	39463.33
592.457	38951.34
592.66	38850.99
592.863	39158.19
593.066	39031.21
593.269	39233.96
593.472	39078.32
593.675	39782.82
593.878	39829.92
594.081	39334.31
594.284	39508.39
594.486	39606.69
594.689	39969.18
594.892	39348.65
595.095	39610.79
595.298	39915.93
595.5	40102.3
595.703	39811.49
595.906	39917.98
596.109	40376.73
596.311	40192.41
596.514	39453.09
596.717	40114.59
596.92	40442.26
597.122	40157.6
597.325	39815.58
597.528	40286.62
597.73	40724.88
597.933	40233.37
598.136	40423.83
598.338	40075.68
598.541	40671.64
598.743	40698.26
598.946	40034.72
599.148	40491.41
599.351	40968.59
599.554	41232.78
599.756	40561.05
599.959	41173.39
600.161	41009.55
600.363	41408.9
600.566	40278.43
600.768	40810.9
600.971	41001.36
601.173	41140.62
601.376	40821.14
601.578	40771.99
601.78	41322.89
601.983	41777.54
602.185	40778.13
602.388	41245.07
602.59	41142.67
602.792	41107.85
602.995	41181.58
603.197	41138.57
603.399	41347.47
603.601	41482.63
603.804	40950.16
604.006	41361.8
604.208	41347.47
604.41	41402.76
604.613	41689.48
604.815	41038.22
605.017	42262.91
605.219	40757.65
605.421	41236.87
605.623	41290.12
605.826	42379.64
606.028	41730.44
606.23	40970.64
606.432	41484.68
606.634	42219.9
606.836	41867.65
607.038	41574.79
607.24	41947.52
607.442	41617.8
607.644	41832.83
607.846	41494.92
608.048	41671.04
608.25	42164.6
608.452	41513.35
608.654	41464.2
608.856	40929.68
609.058	41795.97
609.26	41875.84
609.462	41787.78
609.664	41929.09
609.866	42193.28
610.067	41924.99
610.269	41683.33
610.471	41619.84
610.673	42197.37
610.875	42697.08
611.077	41996.67
611.278	42109.31
611.48	42166.65
611.682	42465.66
611.884	42209.66
612.085	42142.08
612.287	41748.87
612.489	42045.82
612.69	42172.8
612.892	42430.84
613.094	42232.19
613.295	42131.84
613.497	41755.01
613.699	41922.94
613.9	42443.13
614.102	42332.54
614.304	41726.34
614.505	41623.94
614.707	42420.6
614.908	42213.76
615.11	42142.08
615.311	41937.28
615.513	42135.93
615.714	42453.37
615.916	42381.69
616.117	41982.34
616.319	41845.12
616.52	42457.46
616.722	41984.38
616.923	42197.37
617.124	42586.49
617.326	42248.57
617.527	42373.5
617.729	43088.24
617.93	42568.05
618.131	42527.1
618.333	42002.82
618.534	41988.48
618.735	42064.25
618.937	42795.38
619.138	42150.27
619.339	41894.27
619.54	42346.87
619.742	42744.18
619.943	42418.55
620.144	42176.89
620.345	43209.07
620.546	42873.2
620.748	42504.57
620.949	42529.14
621.15	42727.8
621.351	42647.93
621.552	42477.94
621.753	42035.58
621.954	42789.24
622.155	42674.55
622.356	42236.28
622.558	42830.19
622.759	43057.52
622.96	42961.26
623.161	42365.31
623.362	42619.25
623.563	42871.15
623.764	42881.39
623.965	42400.12
624.166	43161.97
624.366	42629.49
624.567	43004.27
624.768	42529.14
624.969	42201.47
625.17	42905.97
625.371	43182.45
625.572	42498.42
625.773	42482.04
625.973	42946.93
626.174	42836.34
626.375	42987.89
626.576	42510.71
626.777	43260.27
626.977	43387.24
627.178	43313.52
627.379	43219.31
627.58	42664.31
627.78	43098.48
627.981	42672.5
628.182	43243.88
628.382	43540.84
628.583	43125.1
628.784	42998.13
628.984	43057.52
629.185	43528.55
629.386	42834.29
629.586	43272.56
629.787	43032.94
629.987	43352.43
630.188	43305.32
630.388	43571.56
630.589	43245.93
630.79	43880.8
630.99	43772.26
631.191	43499.88
631.391	43456.87
631.591	43436.39
631.792	43604.33
631.992	43630.95
632.193	43682.15
632.393	43532.65
632.594	43606.37
632.794	43270.51
632.994	43915.62
633.195	43436.39
633.395	44026.21
633.595	43116.91
633.796	44003.68
633.996	43651.43
634.196	43989.34
634.397	43475.3
634.597	43485.54
634.797	43651.43
634.997	44257.63
635.198	43432.3
635.398	43094.38
635.598	44069.22
635.798	43925.86
635.998	43594.09
636.199	43880.8
636.399	43821.41
636.599	43368.81
636.799	43657.57
636.999	44046.69
637.199	44378.46
637.399	43956.58
637.599	43817.32
637.799	43686.25
637.999	44079.46
638.199	44425.56
638.399	43862.37
638.599	44052.83
638.799	44003.68
638.999	44876.12
639.199	44263.77
639.399	44083.55
639.599	44679.51
639.799	44042.59
639.999	43895.14
640.199	43676.01
640.399	44231.01
640.599	43164.01
640.799	44747.09
640.998	44261.72
641.198	44136.8
641.398	44290.4
641.598	44439.9
641.798	44183.9
641.997	45238.61
642.197	44495.19
642.397	44560.73
642.597	44259.68
642.796	44599.64
642.996	45001.04
643.196	44147.04
643.395	43862.37
643.595	44980.56
643.795	44134.75
643.994	44493.15
644.194	44482.91
644.394	45054.29
644.593	44980.56
644.793	44923.22
644.992	44949.84
645.192	45117.78
645.392	44642.65
645.591	44530.01
645.791	45230.41
645.99	45168.97
646.19	44980.56
646.389	44779.86
646.589	44898.64
646.788	45388.11
646.987	45162.83
647.187	45048.14
647.386	44636.5
647.586	45140.3
647.785	45125.97
647.984	45103.44
648.184	45349.2
648.383	44593.5
648.582	44882.26
648.782	45287.76
648.981	45230.41
649.18	44968.27
649.38	45046.1
649.579	44925.27
649.778	45113.68
649.977	45531.47
650.177	45021.52
650.376	44927.31
650.575	44489.05
650.774	45549.9
650.973	45637.96
651.173	44792.15
651.372	45216.08
651.571	45558.09
651.77	45582.66
651.969	44996.95
652.168	45486.41
652.367	45175.12
652.566	45424.97
652.765	45054.29
652.964	45267.28
653.163	45707.59
653.362	45582.66
653.561	45001.04
653.76	45261.13
653.959	45343.05
654.158	46266.69
654.357	45480.27
654.556	45480.27
654.755	46172.48
654.954	45439.31
655.153	45003.09
655.352	45498.7
655.551	45869.38
655.749	45467.98
655.948	45502.79
656.147	45721.93
656.346	46070.08
656.545	45611.34
656.743	45191.5
656.942	45967.68
657.141	45805.89
657.34	45549.9
657.538	45361.48
657.737	45525.32
657.936	45689.16
658.135	45945.15
658.333	45887.81
658.532	45607.24
658.731	46381.37
658.929	45699.4
659.128	45658.44
659.326	45859.14
659.525	46246.21
659.724	46133.57
659.922	45713.73
660.121	45805.89
660.319	45853
660.518	45261.13
660.716	45787.46
660.915	45969.73
661.113	46321.98
661.312	45646.15
661.51	45549.9
661.709	46180.67
661.907	45746.5
662.105	46252.35
662.304	45594.95
662.502	45633.86
662.701	45965.63
662.899	45644.1
663.097	46035.27
663.296	45465.93
663.494	46115.14
663.692	46369.08
663.891	45582.66
664.089	45349.2
664.287	45791.56
664.485	46242.11
664.684	45934.92
664.882	45840.71
665.08	46141.76
665.278	45869.38
665.476	45613.38
665.675	45920.58
665.873	46412.09
666.071	46068.03
666.269	45631.82
666.467	45246.8
666.665	45762.89
666.863	45449.55
667.061	46049.6
667.259	45508.94
667.457	45920.58
667.655	46332.22
667.853	45785.41
668.051	45664.58
668.249	45527.37
668.447	45691.21
668.645	45295.95
668.843	45781.32
669.041	45877.57
669.239	45693.25
669.437	45801.8
669.635	45893.96
669.833	45721.93
670.031	45824.32
670.229	45136.21
670.426	45936.96
670.624	45877.57
670.822	45642.06
671.02	45525.32
671.218	45695.3
671.415	45672.78
671.613	45820.23
671.811	45254.99
672.009	46033.22
672.206	45994.31
672.404	45832.52
672.602	45506.89
672.799	45484.36
672.997	46334.27
673.195	45846.85
673.392	45844.8
673.59	45111.63
673.788	45521.23
673.985	44773.72
674.183	45764.93
674.38	45113.68
674.578	45766.98
674.775	45197.65
674.973	45033.81
675.17	45359.44
675.368	45553.99
675.565	45607.24
675.763	45261.13
675.96	45300.04
676.158	45855.04
676.355	44966.23
676.553	45472.07
676.75	44937.55
676.947	45257.04
677.145	45011.28
677.342	45298
677.539	45234.51
677.737	45267.28
677.934	45451.59
678.131	45128.02
678.329	44976.47
678.526	45418.83
678.723	45353.29
678.92	44947.79
679.118	44517.72
679.315	44943.7
679.512	45398.35
679.709	44777.81
679.906	44597.59
680.104	45431.11
680.301	45429.07
680.498	44472.67
680.695	44679.51
680.892	44775.76
681.089	44976.47
681.286	45003.09
681.483	44026.21
681.68	44874.07
681.877	44992.85
682.075	44788.05
682.272	44566.87
682.469	45142.35
682.665	45066.58
682.862	44380.51
683.059	44583.26
683.256	44558.68
683.453	44708.18
683.65	44998.99
683.847	44988.75
684.044	44550.49
684.241	44470.62
684.438	44919.12
684.635	43895.14
684.831	45089.1
685.028	45177.17
685.225	44304.73
685.422	44239.2
685.619	44216.67
685.815	44327.26
686.012	44534.1
686.209	44042.59
686.405	44114.27
686.602	44501.34
686.799	43891.04
686.996	44384.6
687.192	43768.16
687.389	44331.36
687.586	44011.87
687.782	44173.66
687.979	44824.92
688.175	44433.75
688.372	44073.31
688.568	43866.47
688.765	43704.68
688.962	44695.89
689.158	43352.43
689.355	43522.41
689.551	43782.5
689.748	43733.35
689.944	43884.9
690.14	43471.21
690.337	44200.29
690.533	44300.64
690.73	43346.28
690.926	43987.3
691.123	43225.45
691.319	43495.78
691.515	43264.36
691.712	43309.42
691.908	43794.79
692.104	43864.42
692.301	43272.56
692.497	43331.95
692.693	43825.51
692.889	43987.3
693.086	43704.68
693.282	43311.47
693.478	43516.26
693.674	43551.08
693.87	42998.13
694.067	43399.53
694.263	43209.07
694.459	43796.84
694.655	43415.91
694.851	43563.37
695.047	43065.71
695.243	43192.68
695.439	43180.4
695.635	43233.64
695.831	43190.64
696.027	43299.18
696.224	42529.14
696.42	43778.4
696.615	43538.79
696.811	43489.64
697.007	43018.61
697.203	42750.32
697.399	42942.83
697.595	43243.88
697.791	42865.01
697.987	42482.04
698.183	42398.07
698.379	42418.55
698.575	42404.22
698.77	42647.93
698.966	43264.36
699.162	42529.14
699.358	42338.68
699.554	42088.83
699.749	43276.65
699.945	42496.38
700.141	42428.79
700.337	42453.37
700.532	42371.45
700.728	42256.76
700.924	42387.83
701.119	42150.27
701.315	42330.49
701.511	42301.82
701.706	42656.12
701.902	42060.16
702.097	42434.94
702.293	42658.17
702.489	42572.15
702.684	42502.52
702.88	42824.05
703.075	42346.87
703.271	42021.25
703.466	42176.89
703.662	42615.16
703.857	42285.43
704.053	42545.53
704.248	42557.81
704.443	42234.24
704.639	42142.08
704.834	42303.87
705.03	42281.34
705.225	42549.62
705.42	42539.38
705.616	41806.21
705.811	41982.34
706.006	42172.8
706.202	41968
706.397	41972.1
706.592	41378.18
706.787	41519.49
706.983	41720.2
707.178	42662.26
707.373	41740.68
707.568	41685.38
707.763	41658.76
707.959	41671.04
708.154	41486.73
708.349	41539.97
708.544	41965.95
708.739	41908.61
708.934	41167.24
709.129	42008.96
709.324	41886.08
709.519	41873.79
709.714	41410.95
709.909	42422.65
710.104	41644.42
710.299	41337.23
710.494	41636.23
710.689	42021.25
710.884	41783.68
711.079	41873.79
711.274	41492.87
711.469	42068.35
711.664	41568.65
711.859	41597.32
712.054	41791.87
712.249	41531.78
712.443	41970.05
712.638	41630.08
712.833	40948.11
713.028	41400.71
713.223	40954.26
713.417	41171.34
713.612	41662.85
713.807	41775.49
714.002	41462.15
714.196	41406.86
714.391	40870.29
714.586	41464.2
714.78	40835.47
714.975	40937.87
715.17	40688.02
715.364	41265.55
715.559	41906.56
715.754	40389.02
715.948	40645.01
716.143	41374.09
716.337	40993.17
716.532	41214.35
716.726	40683.92
716.921	40788.37
717.115	41433.48
717.31	40610.2
717.504	41404.81
717.699	40872.34
717.893	40606.1
718.088	40735.12
718.282	40300.95
718.476	40360.34
718.671	40325.53
718.865	40149.4
719.059	40522.13
719.254	40454.55
719.448	40659.35
719.642	41820.55
719.837	40053.15
720.031	40137.12
720.225	40716.69
720.419	40300.95
720.614	40221.08
720.808	40704.4
721.002	39823.78
721.196	39651.75
721.39	39604.64
721.585	40685.97
721.779	40171.93
721.973	39872.93
722.167	39684.51
722.361	39995.81
722.555	40518.04
722.749	39815.58
722.943	39659.94
723.137	40053.15
723.331	39975.33
723.525	39930.27
723.719	39688.61
723.913	39702.95
724.107	39858.59
724.301	39766.43
724.495	39264.68
724.689	40006.05
724.883	40022.43
725.077	39377.32
725.271	39836.06
725.465	39948.7
725.659	39649.7
725.853	39651.75
726.046	39735.71
726.24	39559.59
726.434	39197.1
726.628	39356.84
726.822	39526.82
727.015	40030.62
727.209	39610.79
727.403	39575.97
727.596	39092.65
727.79	39969.18
727.984	40081.82
728.177	39655.84
728.371	39604.64
728.565	39676.32
728.758	39311.78
728.952	39758.24
729.146	39969.18
729.339	40378.78
729.533	39745.95
729.726	39270.82
729.92	39678.37
730.113	39842.21
730.307	39807.39
730.5	39397.8
730.694	39248.3
730.887	39389.61
731.081	40032.67
731.274	39436.71
731.468	39137.71
731.661	39932.32
731.854	39242.15
732.048	39629.22
732.241	39917.98
732.435	39473.57
732.628	39578.02
732.821	39434.66
733.014	39725.47
733.208	39360.94
733.401	39901.6
733.594	39446.95
733.788	39391.65
733.981	39735.71
734.174	39858.59
734.367	39287.21
734.56	39535.01
734.754	39350.7
734.947	39672.23
735.14	39453.09
735.333	39522.72
735.526	39602.6
735.719	38898.09
735.912	39117.23
736.105	39676.32
736.298	39096.75
736.491	38834.61
736.684	39365.03
736.877	38900.14
737.07	39184.81
737.263	39403.94
737.456	39352.74
737.649	39332.26
737.842	39401.89
738.035	39365.03
738.228	39135.66
738.421	39166.38
738.614	39487.91
738.807	39502.25
739	38633.91
739.192	39000.49
739.385	39336.36
739.578	39535.01
739.771	39602.6
739.964	39201.19
740.156	39903.65
740.349	39117.23
740.542	39127.47
740.735	38748.59
740.927	38934.96
741.12	38955.44
741.313	38797.74
741.505	39264.68
741.698	39119.28
741.891	39350.7
742.083	39387.56
742.276	38932.91
742.468	39018.92
742.661	38846.9
742.854	38885.81
743.046	38644.15
743.239	39823.78
743.431	39223.72
743.624	38771.12
743.816	38691.25
744.009	38932.91
744.201	38922.67
744.393	38881.71
744.586	38402.49
744.778	39145.9
744.971	39123.37
745.163	38609.33
745.355	38816.18
745.548	38508.98
745.74	38848.94
745.932	38537.65
746.125	38656.43
746.317	39387.56
746.509	38478.26
746.702	38750.64
746.894	38463.93
747.086	38261.18
747.278	38779.31
747.471	38449.59
747.663	38322.62
747.855	38418.87
748.047	38758.83
748.239	38044.09
748.431	37968.32
748.623	38949.29
748.815	38889.9
749.008	38183.35
749.2	38173.11
749.392	38621.62
749.584	38320.57
749.776	38152.63
749.968	38111.67
750.16	38883.76
750.352	38177.21
750.544	38011.32
750.736	37962.17
750.928	38218.17
751.12	38062.52
751.311	37464.52
751.503	38132.15
751.695	37890.49
751.887	37831.1
752.079	37444.04
752.271	37640.64
752.463	38562.23
752.654	37636.55
752.846	37753.28
753.038	37132.75
753.23	37704.13
753.421	37771.71
753.613	37046.73
753.805	37691.84
753.997	37685.7
754.188	37302.73
754.38	36973
754.572	37351.88
754.763	37747.14
754.955	37472.71
755.146	36764.11
755.338	36985.29
755.53	37165.51
755.721	36823.5
755.913	36643.28
756.104	36657.62
756.296	37169.61
756.487	37265.86
756.679	36770.25
756.87	36555.22
757.062	36264.41
757.253	37177.8
757.445	36368.85
757.636	36592.08
757.827	36430.29
758.019	37226.95
758.21	36123.1
758.401	36075.99
758.593	36696.53
758.784	36448.72
758.975	35957.21
759.167	36268.5
759.358	36450.77
759.549	36702.67
759.74	35903.96
759.932	35727.84
760.123	36614.61
760.314	35789.28
760.505	35961.31
760.696	35918.3
760.888	36817.36
761.079	35869.15
761.27	35697.12
761.461	36004.31
761.652	36395.48
761.843	35854.81
762.034	35686.88
762.225	35525.09
762.416	35326.44
762.607	35531.23
762.798	35236.33
762.989	35531.23
763.18	36639.18
763.371	35502.56
763.562	35344.87
763.753	35668.45
763.944	35787.23
764.135	35463.65
764.326	35525.09
764.517	34886.12
764.708	35647.97
764.899	35199.46
765.089	34755.05
765.28	34671.09
765.471	35588.58
765.662	35459.55
765.853	34974.19
766.043	34728.43
766.234	35166.7
766.425	35056.11
766.615	34853.36
766.806	34542.06
766.997	34843.12
767.187	34509.3
767.378	34447.86
767.569	33954.3
767.759	34501.11
767.95	34675.18
768.141	34458.1
768.331	34290.16
768.522	34626.03
768.712	34744.81
768.903	34796.01
769.093	34134.52
769.284	34816.49
769.474	34349.56
769.665	33843.71
769.855	33864.19
770.046	34566.64
770.236	33806.84
770.426	34001.4
770.617	33915.39
770.807	33876.48
770.998	33982.97
771.188	33829.37
771.378	33663.49
771.569	34193.91
771.759	33960.44
771.949	33352.2
772.139	33581.57
772.33	33391.11
772.52	34159.09
772.71	33524.22
772.9	33305.09
773.09	33993.21
773.281	33804.8
773.471	32961.03
773.661	33337.86
773.851	33516.03
774.041	33161.73
774.231	32895.5
774.421	33255.94
774.611	33239.56
774.802	33120.77
774.992	32999.94
775.182	32764.43
775.372	33217.03
775.562	33071.62
775.752	32750.09
775.942	32379.41
776.131	33214.98
776.321	32358.93
776.511	32418.32
776.701	32309.78
776.891	33171.97
777.081	32076.31
777.271	32438.8
777.461	32827.92
777.651	32811.53
777.84	32899.59
778.03	32268.82
778.22	32510.48
778.41	32901.64
778.599	32123.41
778.789	32145.94
778.979	31996.44
779.169	32733.71
779.358	32174.61
779.548	32223.76
779.738	31875.61
779.927	31853.08
780.117	32129.56
780.307	31613.47
780.496	31408.67
780.686	32070.17
780.875	32242.2
781.065	31371.81
781.254	31818.27
781.444	31760.92
781.633	31861.27
781.823	31230.5
782.012	31545.89
782.202	31099.43
782.391	31365.67
782.581	31326.75
782.77	31576.61
782.96	31851.03
783.149	30777.9
783.338	31093.29
783.528	31128.1
783.717	31570.46
783.906	31334.95
784.096	31111.72
784.285	31183.4
784.474	31050.28
784.663	31124.01
784.853	30569.01
785.042	30796.33
785.231	31037.99
785.42	31070.76
785.61	30695.98
785.799	30745.13
785.988	30786.09
786.177	30517.81
786.366	30706.22
786.555	30784.04
786.744	30847.53
786.933	30601.77
787.122	30863.91
787.312	30622.25
787.501	30255.67
787.69	30781.99
787.879	30229.04
788.068	30149.17
788.257	29805.11
788.445	30093.88
788.634	30407.22
788.823	30149.17
789.012	31017.51
789.201	30331.44
789.39	29852.22
789.579	29971
789.768	30210.61
789.957	30442.03
790.145	30151.22
790.334	30009.91
790.523	29792.83
790.712	30421.55
790.9	30057.01
791.089	29628.99
791.278	30464.56
791.467	30050.87
791.655	29704.76
791.844	30100.02
792.033	29524.54
792.221	29350.46
792.41	29434.43
792.599	29131.33
792.787	30093.88
792.976	30161.46
793.164	29592.12
793.353	29477.44
793.541	29559.36
793.73	29796.92
793.918	29606.46
794.107	29442.62
794.295	29164.1
794.484	29325.89
794.672	28856.9
794.861	28774.98
795.049	29332.03
795.238	29069.89
795.426	28852.81
795.614	29051.46
795.803	29207.11
795.991	29637.18
796.179	28729.93
796.368	28506.7
796.556	29117
796.744	28549.71
796.932	28785.22
797.121	28809.8
797.309	28674.63
797.497	28975.69
797.685	29035.08
797.874	28912.2
798.062	28648.01
798.25	28983.88
798.438	28981.83
798.626	29028.93
798.814	28848.71
799.002	29327.94
799.19	28660.3
799.378	28799.56
799.566	28639.82
799.755	29203.01
799.943	28754.51
800.131	28699.21
800.318	28858.95
800.506	28981.83
800.694	28211.79
800.882	28807.75
801.07	29082.18
801.258	28822.09
801.446	28799.56
801.634	28879.43
801.822	28738.12
802.01	29006.41
802.197	28969.54
802.385	29028.93
802.573	28963.4
802.761	28861
802.949	29088.32
803.136	28457.55
803.324	29012.55
803.512	28985.93
803.699	28467.79
803.887	28611.15
804.075	29129.28
804.262	29018.69
804.45	28598.86
804.638	29008.45
804.825	28957.25
805.013	28879.43
805.201	28922.44
805.388	28750.41
805.576	29053.51
805.763	29313.6
805.951	28252.75
806.138	29286.98
806.326	29727.29
806.513	29211.2
806.701	29385.28
806.888	28912.2
807.075	29194.82
807.263	29475.39
807.45	28947.01
807.638	28803.66
807.825	29614.65
808.012	29360.7
808.2	29397.57
808.387	29119.04
808.574	29471.29
808.761	29798.97
808.949	29225.54
809.136	29368.9
809.323	29407.81
809.51	29401.66
809.698	29446.72
809.885	29444.67
810.072	29336.13
810.259	29725.24
810.446	29160
810.633	29293.12
810.82	29796.92
811.008	30106.16
811.195	29649.47
811.382	29037.12
811.569	29628.99
811.756	29104.71
811.943	29209.15
812.13	29037.12
812.317	29446.72
812.504	29362.75
812.691	29469.25
812.878	29340.22
813.064	29813.31
813.251	29325.89
813.438	29125.19
813.625	29047.36
813.812	29260.35
813.999	29868.6
814.186	29444.67
814.372	29483.58
814.559	29866.55
814.746	29600.32
814.933	29209.15
815.12	29461.05
815.306	29289.03
815.493	29000.26
815.68	29047.36
815.866	28908.1
816.053	29778.49
816.24	29964.85
816.426	29444.67
816.613	29176.39
816.799	29602.36
816.986	29575.74
817.173	29086.28
817.359	28985.93
817.546	29372.99
817.732	28994.12
817.919	29084.23
818.105	28865.1
818.292	29262.4
818.478	29477.44
818.665	29401.66
818.851	28742.22
819.037	29715
819.224	29182.53
819.41	28881.48
819.597	28562
819.783	29350.46
819.969	29375.04
820.156	29053.51
820.342	28981.83
820.528	29823.54
820.714	28693.07
820.901	29016.65
821.087	28680.78
821.273	29280.83
821.459	28815.94
821.646	28834.38
821.832	28844.62
822.018	28944.97
822.204	28537.42
822.39	28920.39
822.576	28832.33
822.762	28955.21
822.948	28967.49
823.134	28678.73
823.32	28584.52
823.507	28394.06
823.693	28998.21
823.879	29012.55
824.065	28492.37
824.25	28830.28
824.436	28156.5
824.622	28187.22
824.808	28283.47
824.994	28271.18
825.18	27900.5
825.366	28189.27
825.552	28084.82
825.738	28578.38
825.923	28779.08
826.109	28523.08
826.295	27986.52
826.481	28078.68
826.667	28371.54
826.852	27980.37
827.038	28009.04
827.224	28568.14
827.409	28512.84
827.595	27857.49
827.781	27773.53
827.966	28080.72
828.152	28160.59
828.338	27982.42
828.523	27208.29
828.709	27800.15
828.894	28035.67
829.08	27460.19
829.266	27454.05
829.451	27540.06
829.637	27507.29
829.822	27660.89
830.008	27296.35
830.193	27849.3
830.378	27908.69
830.564	27499.1
830.749	27423.33
830.935	27529.82
831.12	27564.64
831.305	27155.04
831.491	27132.51
831.676	26970.72
831.861	27415.13
832.047	27376.22
832.232	27169.38
832.417	27603.55
832.602	27392.61
832.788	27167.33
832.973	26964.58
833.158	27044.45
833.343	27372.13
833.528	27429.47
833.714	27183.71
833.899	27177.57
834.084	27535.96
834.269	27163.23
834.454	26833.51
834.639	27241.06
834.824	26901.09
835.009	26874.47
835.194	26915.43
835.379	26966.63
835.564	27011.68
835.749	27087.46
835.934	26716.78
836.119	27038.31
836.304	26833.51
836.489	26499.69
836.674	26749.54
836.859	26567.27
837.044	26749.54
837.228	26667.63
837.413	26344.05
837.598	26819.17
837.783	26491.5
837.968	26718.82
838.152	26116.72
838.337	25832.05
838.522	26882.66
838.707	26817.13
838.891	26339.95
839.076	26497.64
839.261	26643.05
839.445	26358.38
839.63	25756.28
839.815	26552.94
839.999	25981.56
840.184	26133.11
840.368	25809.53
840.553	26260.08
840.737	26421.87
840.922	25803.38
841.106	25778.81
841.291	25787
841.475	25809.53
841.66	25692.79
841.844	25500.28
842.029	26387.05
842.213	25690.74
842.397	25246.33
842.582	25504.38
842.766	26215.02
842.951	25754.23
843.135	25551.48
843.319	25141.89
843.504	25406.08
843.688	25408.12
843.872	24926.85
844.056	25430.65
844.241	25657.98
844.425	25516.67
844.609	25455.23
844.793	25123.46
844.977	25625.21
845.161	24861.32
845.346	25248.38
845.53	24773.25
845.714	25025.15
845.898	25197.18
846.082	24750.73
846.266	25096.83
846.45	25012.87
846.634	25348.73
846.818	24933
847.002	24898.18
847.186	25123.46
847.37	24593.03
847.554	24625.8
847.738	24889.99
847.922	24793.73
848.106	24984.19
848.29	24150.67
848.473	24517.26
848.657	24478.35
848.841	24746.63
849.025	24523.4
849.209	24191.63
849.392	24810.12
849.576	24746.63
849.76	24435.34
849.944	24437.39
850.127	24746.63
850.311	23931.54
850.495	24078.99
850.678	23923.35
850.862	24910.47
851.046	24656.52
851.229	24482.44
851.413	23911.06
851.596	24394.38
851.78	24357.52
851.964	24332.94
852.147	24244.88
852.331	24683.14
852.514	24494.73
852.698	23718.55
852.881	23732.89
853.065	24265.36
853.248	24058.51
853.431	23919.25
853.615	23644.82
853.798	24507.02
853.982	23992.98
854.165	24033.94
854.348	23247.52
854.532	23567
854.715	23650.97
854.898	23900.82
855.081	23530.14
855.265	24070.8
855.448	23947.92
855.631	23362.2
855.814	23368.35
855.997	23855.76
856.181	23278.24
856.364	23519.9
856.547	23323.29
856.73	23429.79
856.913	23571.1
857.096	23052.96
857.279	23507.61
857.462	23138.97
857.645	23478.94
857.828	23247.52
858.011	23274.14
858.194	23311
858.377	23431.83
858.56	23122.59
858.743	23167.65
858.926	22880.93
859.109	23130.78
859.292	22827.68
859.475	22764.2
859.658	23319.2
859.841	23143.07
860.023	22719.14
860.206	22368.94
860.389	22944.42
860.572	23268
860.755	22514.34
860.937	22825.64
861.12	22831.78
861.303	22813.35
861.486	22452.91
861.668	22356.65
861.851	22493.86
862.034	22319.79
862.216	22260.4
862.399	21625.53
862.581	21895.86
862.764	22594.22
862.947	22016.69
863.129	21889.71
863.312	21603
863.494	22346.41
863.677	21670.58
863.859	21566.13
864.042	22047.41
864.224	22405.8
864.406	21779.12
864.589	21310.14
864.771	21723.83
864.954	21699.25
865.136	21697.2
865.318	21308.09
865.501	21713.59
865.683	21211.84
865.865	21570.23
866.048	21578.42
866.23	21488.31
866.412	21537.46
866.594	21170.88
866.777	21492.41
866.959	21584.57
867.141	21283.52
867.323	21338.81
867.505	21492.41
867.687	21594.81
867.869	21504.7
868.052	21363.39
868.234	21144.25
868.416	21224.12
868.598	21674.68
868.78	21134.01
868.962	21234.36
869.144	21584.57
869.326	21697.2
869.508	21134.01
869.69	21480.12
869.872	21082.81
870.054	21445.3
870.236	20841.15
870.417	21119.68
870.599	20931.26
870.781	21498.55
870.963	21164.73
871.145	21134.01
871.327	20691.65
871.508	21119.68
871.69	20970.18
871.872	21119.68
872.054	21220.03
872.235	21496.5
872.417	20716.23
872.599	20628.17
872.78	21420.73
872.962	21154.49
873.144	20789.95
873.325	20830.91
873.507	21281.47
873.689	20835.01
873.87	20697.8
874.052	21080.77
874.233	20964.03
874.415	21131.97
874.596	21009.09
874.778	20718.28
874.959	21066.43
875.141	21068.48
875.322	20882.11
875.503	20980.42
875.685	21322.43
875.866	20783.81
876.048	21019.33
876.229	20439.75
876.41	20753.09
876.592	21324.47
876.773	20804.29
876.954	20566.73
877.136	21326.52
877.317	20875.97
877.498	20722.37
877.679	20914.88
877.86	21113.53
878.042	21224.12
878.223	21125.82
878.404	21289.66
878.585	21729.97
878.766	21537.46
878.947	21508.79
879.128	21238.46
879.309	21496.5
879.49	21539.51
879.672	21422.78
879.853	20921.02
880.034	21539.51
880.215	21150.4
880.396	21312.19
880.576	21326.52
880.757	21406.39
880.938	21742.26
881.119	21185.21
881.3	21516.98
881.481	21795.51
881.662	22293.16
881.843	21099.2
882.023	21146.3
882.204	21689.01
882.385	21885.62
882.566	21371.58
882.747	21443.26
882.927	21416.63
883.108	21887.67
883.289	21662.39
883.469	22057.65
883.65	21617.33
883.831	22160.05
884.011	21967.54
884.192	22041.26
884.373	22145.71
884.553	22385.32
884.734	22008.5
884.914	22137.52
885.095	22481.58
885.275	22629.03
885.456	22291.12
885.636	21899.95
885.817	22205.1
885.997	22383.27
886.178	21746.36
886.358	22184.62
886.538	22868.64
886.719	23243.42
886.899	21983.92
887.08	22358.7
887.26	22317.74
887.44	22055.6
887.621	22203.05
887.801	22309.55
887.981	23268
888.161	22753.96
888.342	22338.22
888.522	22393.51
888.702	22860.45
888.882	23046.82
889.062	22532.78
889.242	22172.33
889.423	23198.37
889.603	22682.28
889.783	22751.91
889.963	22334.12
890.143	22852.26
890.323	23026.34
890.503	22772.39
890.683	22723.24
890.863	22604.46
891.043	22897.31
891.223	22590.12
891.403	22526.63
891.583	22821.54
891.763	22747.81
891.943	22821.54
892.122	22592.17
892.302	23067.3
892.482	23075.49
892.662	22674.09
892.842	22825.64
893.022	22794.92
893.201	22735.53
893.381	22954.66
893.561	22620.84
893.741	23003.81
893.92	23048.86
894.1	23065.25
894.28	22905.51
894.459	23247.52
894.639	23233.18
894.819	22948.51
894.998	22977.19
895.178	23390.88
895.357	23212.7
895.537	22821.54
895.716	22667.94
895.896	23124.64
896.075	23360.16
896.255	23034.53
896.434	22819.49
896.614	23417.5
896.793	23792.28
896.973	22817.44
897.152	22626.98
897.331	22950.56
897.511	23417.5
897.69	22747.81
897.87	22809.25
898.049	23112.35
898.228	22874.79
898.407	22786.72
898.587	22962.85
898.766	22807.2
898.945	22852.26
899.124	22856.36
899.304	22866.6
899.483	22973.09
899.662	23388.83
899.841	22465.19
900.02	22700.71
900.199	23095.97
900.378	23108.26
900.557	22391.47
900.737	22381.23
900.916	22766.24
901.095	23116.45
901.274	22809.25
901.453	22614.69
901.632	22536.87
901.811	22350.51
901.989	22676.13
902.168	22489.77
902.347	22942.37
902.526	22348.46
902.705	22457
902.884	22434.47
903.063	23128.74
903.242	22971.04
903.42	22360.75
903.599	22655.65
903.778	22594.22
903.957	23050.91
904.135	22395.56
904.314	22485.67
904.493	22579.88
904.672	22727.33
904.85	22031.02
905.029	22295.21
905.207	22661.8
905.386	23067.3
905.565	21969.58
905.743	21877.43
905.922	22117.04
906.1	22323.88
906.279	21975.73
906.457	21867.19
906.636	22301.36
906.814	21922.48
906.993	21973.68
907.171	22082.22
907.35	22088.37
907.528	22362.79
907.707	22051.5
907.885	21547.7
908.063	22219.44
908.242	21918.39
908.42	21732.02
908.598	21093.05
908.777	21480.12
908.955	21430.97
909.133	21301.95
909.311	21009.09
909.49	21439.16
909.668	21320.38
909.846	21127.87
910.024	20841.15
910.202	21684.92
910.38	21686.97
910.559	21029.57
910.737	20828.87
910.915	21551.8
911.093	21295.8
911.271	20880.07
911.449	21142.21
911.627	21172.92
911.805	21435.06
911.983	20910.78
912.161	20460.23
912.339	20923.07
912.517	21123.77
912.695	20884.16
912.872	20687.56
913.05	20921.02
913.228	20703.94
913.406	20943.55
913.584	20755.14
913.762	20994.75
913.939	20525.77
914.117	20490.95
914.295	20394.7
914.473	20603.59
914.65	20697.8
914.828	20198.09
915.006	19991.25
915.184	19960.53
915.361	20237
915.539	20484.81
915.716	20185.8
915.894	20404.94
916.072	20687.56
916.249	20259.53
916.427	19991.25
916.604	20077.26
916.782	20120.27
916.959	19831.51
917.137	19602.13
917.314	19835.6
917.492	20083.41
917.669	19774.16
917.847	19843.79
918.024	20030.16
918.201	19587.8
918.379	19548.89
918.556	19346.14
918.733	19880.66
918.911	19399.38
919.088	19643.09
919.265	19149.53
919.442	19366.62
919.62	19143.39
919.797	19084
919.974	19276.51
920.151	19180.25
920.328	18985.69
920.506	18776.8
920.683	19167.96
920.86	18817.76
921.037	18924.26
921.214	18727.65
921.391	18676.45
921.568	18658.02
921.745	18459.37
921.922	18242.28
922.099	18287.34
922.276	18862.82
922.453	18504.42
922.63	18223.85
922.807	18211.56
922.984	18074.35
923.161	17967.85
923.338	18174.7
923.514	17634.03
923.691	17894.13
923.868	18162.41
924.045	18060.01
924.222	17861.36
924.399	17871.6
924.575	17906.41
924.752	17922.8
924.929	17715.95
925.105	18207.47
925.282	17814.26
925.459	17578.74
925.635	17500.92
925.812	17488.63
925.989	17277.69
926.165	17580.79
926.342	16990.97
926.518	17158.91
926.695	17273.59
926.871	16868.09
927.048	16636.67
927.224	17115.9
927.401	16870.14
927.577	16831.23
927.754	16503.56
927.93	17289.98
928.107	16935.68
928.283	16407.3
928.459	16866.05
928.636	16972.54
928.812	16360.2
928.988	16225.03
929.165	16179.98
929.341	16241.42
929.517	16554.76
929.693	16698.11
929.87	15776.53
930.046	16659.2
930.222	15991.56
930.398	15854.35
930.574	15813.39
930.751	16177.93
930.927	15774.48
931.103	15792.91
931.279	15475.48
931.455	15635.22
931.631	15512.34
931.807	15260.44
931.983	15125.27
932.159	15282.97
932.335	15686.42
932.511	15067.93
932.687	14883.61
932.863	15176.47
933.039	14904.09
933.215	14451.49
933.391	14490.4
933.566	14678.82
933.742	14721.82
933.918	14527.27
934.094	14136.1
934.27	14377.76
934.445	14127.91
934.621	14076.71
934.797	13677.36
934.973	14197.54
935.148	13896.49
935.324	13298.49
935.5	13093.69
935.675	13439.79
935.851	13235
936.027	12913.47
936.202	12659.52
936.378	12827.45
936.553	12901.18
936.729	12577.6
936.904	12092.23
937.08	11567.95
937.255	11875.15
937.431	11574.1
937.606	11389.78
937.782	11262.8
937.957	11518.8
938.133	11004.76
938.308	10687.32
938.483	10824.54
938.659	10494.82
938.834	10402.66
939.009	10281.83
939.185	10310.5
939.36	10013.54
939.535	9634.67
939.71	9737.07
939.886	10175.33
940.061	9943.91
940.236	9681.77
940.411	9503.6
940.586	9513.84
940.761	9382.77
940.937	9345.91
941.112	9114.48
941.287	9184.12
941.462	9091.96
941.637	8606.59
941.812	8733.56
941.987	8848.25
942.162	8768.38
942.337	8651.64
942.512	8577.92
942.687	8698.75
942.862	8776.57
943.037	8233.86
943.212	7941
943.386	8506.24
943.561	8403.84
943.736	8387.46
943.911	8602.49
944.086	8639.36
944.26	8457.09
944.435	8328.06
944.61	8393.6
944.785	8676.22
944.959	8719.23
945.134	8178.56
945.309	8039.3
945.483	8190.85
945.658	8631.16
945.833	8117.12
946.007	8129.41
946.182	8883.06
946.357	8117.12
946.531	8287.11
946.706	8260.48
946.88	8014.73
947.055	8489.85
947.229	8260.48
947.404	8307.59
947.578	8545.15
947.752	8346.5
947.927	8227.71
948.101	8274.82
948.276	8483.71
948.45	8643.45
948.624	8565.63
948.799	8522.62
948.973	8743.8
949.147	8278.91
949.321	8649.6
949.496	8487.81
949.67	8964.98
949.844	8543.1
950.018	8491.9
950.193	8649.6
950.367	9280.37
950.541	8635.26
950.715	8944.5
950.889	8706.94
951.063	8936.31
951.237	9010.04
951.411	8459.13
951.585	8608.64
951.759	9274.23
951.933	8872.82
952.107	8645.5
952.281	8950.65
952.455	9261.94
952.629	9104.25
952.803	8926.07
952.977	8938.36
953.151	9337.71
953.325	9280.37
953.499	9089.91
953.672	8725.37
953.846	8842.11
954.02	8993.65
954.194	8778.62
954.368	9026.42
954.541	9569.13
954.715	9245.55
954.889	9282.42
955.062	8960.89
955.236	9247.6
955.41	9309.04
955.583	9311.09
955.757	8940.41
955.93	9235.32
956.104	9139.06
956.278	9098.1
956.451	9216.88
956.625	9393.01
956.798	9974.63
956.972	9628.53
957.145	9325.43
957.319	9726.83
957.492	9380.72
957.665	9460.59
957.839	9311.09
958.012	9587.57
958.185	9429.87
958.359	9345.91
958.532	9515.89
958.705	9569.13
958.879	9538.41
959.052	9517.93
959.225	9288.56
959.398	9231.22
959.572	9532.27
959.745	9356.15
959.918	9259.89
960.091	9266.03
960.264	9522.03
960.438	9163.64
960.611	9132.92
960.784	9655.15
960.957	9165.68
961.13	9544.56
961.303	9263.99
961.476	9567.09
961.649	9513.84
961.822	9339.76
961.995	9380.72
962.168	9423.73
962.341	9468.78
962.514	9374.58
962.686	9354.1
962.859	9706.35
963.032	9593.71
963.205	9130.87
963.378	8987.51
963.551	9538.41
963.723	9403.25
963.896	9171.83
964.069	9180.02
964.242	9419.63
964.414	9636.72
964.587	9171.83
964.76	9433.97
964.932	9497.46
965.105	9198.45
965.278	9253.75
965.45	9067.38
965.623	9266.03
965.795	9517.93
965.968	8981.37
966.14	9102.2
966.313	9335.67
966.485	9159.54
966.658	9151.35
966.83	8989.56
967.003	9517.93
967.175	9343.86
967.348	9012.09
967.52	9214.84
967.692	9542.51
967.865	9360.24
968.037	8964.98
968.209	9286.51
968.382	8938.36
968.554	9425.78
968.726	8844.15
968.898	8907.64
969.071	9278.32
969.243	8956.79
969.415	8868.73
969.587	8971.13
969.759	9628.53
969.932	9243.51
970.104	8913.78
970.276	8586.11
970.448	8799.1
970.62	8799.1
970.792	8878.97
970.964	8663.93
971.136	9313.14
971.308	8823.67
971.48	8551.29
971.652	8719.23
971.824	9130.87
971.996	8436.61
972.168	8739.71
972.339	8612.73
972.511	9077.62
972.683	8788.86
972.855	8547.2
973.027	8563.58
973.199	8559.49
973.37	8665.98
973.542	8553.34
973.714	8369.02
973.886	8516.48
974.057	8690.56
974.229	8319.87
974.401	8409.98
974.572	8059.78
974.744	8090.5
974.915	8131.46
975.087	8235.91
975.259	8764.28
975.43	8448.9
975.602	8207.23
975.773	8043.4
975.945	8137.6
976.116	8674.17
976.288	8244.1
976.459	8330.11
976.63	8143.75
976.802	8545.15
976.973	8188.8
977.145	8235.91
977.316	8911.74
977.487	8469.37
977.659	8362.88
977.83	7941
978.001	8452.99
978.172	8233.86
978.344	8043.4
978.515	7967.62
978.686	8022.92
978.857	8457.09
979.028	7902.09
979.2	7928.71
979.371	8012.68
979.542	8063.88
979.713	7844.74
979.884	7314.32
980.055	7742.35
980.226	7873.42
980.397	7936.9
980.568	7644.04
980.739	8229.76
980.91	7713.67
981.081	7949.19
981.252	7404.43
981.423	7871.37
981.594	8080.26
981.765	7342.99
981.936	7771.02
982.106	7938.95
982.277	7984.01
982.448	7316.37
982.619	7441.29
982.79	7590.8
982.96	7951.24
983.131	7541.64
983.302	7281.55
983.472	7494.54
983.643	7574.41
983.814	7533.45
983.984	7265.17
984.155	7422.86
984.326	7693.19
984.496	7596.94
984.667	7011.22
984.837	7164.82
985.008	7553.93
985.178	7508.88
985.349	7037.84
985.519	7261.07
985.69	7099.28
985.86	7199.63
986.031	7168.91
986.201	7244.69
986.371	7152.53
986.542	6949.78
986.712	6859.67
986.882	7160.72
987.053	7256.98
987.223	6728.6
987.393	6863.77
987.563	6880.15
987.734	7201.68
987.904	7179.15
988.074	6767.51
988.244	6953.88
988.414	6861.72
988.585	6566.81
988.755	6765.46
988.925	6847.38
989.095	7207.83
989.265	6564.76
989.435	6515.61
989.605	6777.75
989.775	6714.27
989.945	6636.44
990.115	6497.18
990.285	6802.33
990.455	6646.68
990.625	6474.65
990.795	6417.31
990.965	6919.06
991.134	6333.34
991.304	6464.41
991.474	6355.87
991.644	6718.36
991.814	6775.7
991.984	6245.28
992.153	6362.01
992.323	6374.3
992.493	6400.93
992.662	6101.92
992.832	6292.38
993.002	6421.41
993.171	6261.66
993.341	5874.6
993.511	6093.73
993.68	6372.25
993.85	6394.78
994.019	5850.02
994.189	5845.93
994.358	6341.54
994.528	6179.75
994.697	5721
994.867	5886.89
995.036	6398.88
995.206	6015.91
995.375	5716.9
995.544	5866.41
995.714	6067.11
995.883	5915.56
996.052	5804.97
996.222	5493.68
996.391	6300.58
996.56	5665.71
996.73	5458.86
996.899	5694.38
997.068	6110.11
997.237	5841.83
997.406	5307.31
997.576	5360.56
997.745	5673.9
997.914	5669.8
998.083	5290.93
998.252	5501.87
998.421	5618.6
998.59	5370.8
998.759	5311.41
998.928	5204.91
999.097	5915.56
999.266	5483.44
999.435	5344.17
999.604	5079.99
999.773	6071.2
999.942	5452.72
1000.111	5102.51
1000.28	5122.99
1000.448	5235.63
1000.617	5129.14
1000.786	5399.47
1000.955	4991.92
1001.124	5460.91
1001.292	6007.72
1001.461	4983.73
1001.63	5075.89
1001.798	5641.13
1001.967	5626.79
1002.136	4719.54
1002.304	4813.75
1002.473	5137.33
1002.642	5139.38
1002.81	4979.64
1002.979	4916.15
1003.147	5176.24
1003.316	5622.7
1003.484	4971.44
1003.653	4688.82
1003.821	5088.18
1003.99	5016.5
1004.158	5047.22
1004.327	4701.11
1004.495	5049.27
1004.663	4615.1
1004.832	4604.86
1005	4271.04
1005.168	5053.36
1005.337	4961.2
1005.505	4391.87
1005.673	4697.02
1005.842	4823.99
1006.01	4932.53
1006.178	4303.81
1006.346	4185.02
1006.514	4697.02
1006.683	5086.13
1006.851	4518.84
1007.019	4520.89
1007.187	4488.12
1007.355	4381.63
1007.523	4123.59
1007.691	4254.66
1007.859	4303.81
1008.027	4891.57
1008.195	4387.77
1008.363	4246.46
1008.531	4543.42
1008.699	4293.57
1008.867	4121.54
1009.035	4197.31
1009.203	4467.64
1009.37	4293.57
1009.538	4060.1
1009.706	4389.82
1009.874	4449.21
1010.042	4305.85
1010.209	3838.92
1010.377	4029.38
1010.545	4463.55
1010.713	4369.34
1010.88	3861.45
1011.048	4025.28
1011.216	4205.5
1011.383	4434.88
1011.551	3933.12
1011.718	3851.21
1011.886	4209.6
1012.054	4125.63
1012.221	3752.9
1012.389	3783.62
1012.556	4113.35
1012.724	4524.99
1012.891	3767.24
1013.058	3707.85
1013.226	4082.63
1013.393	4064.19
1013.561	3576.78
1013.728	3466.19
1013.895	4217.79
1014.063	4156.35
1014.23	3460.04
1014.397	3458
1014.565	3974.08
1014.732	3873.73
1014.899	3605.45
1015.066	3410.89
1015.233	3740.61
1015.401	3826.63
1015.568	3539.91
1015.735	3468.24
1015.902	3693.51
1016.069	3775.43
1016.236	3435.47
1016.403	3406.8
1016.57	3283.92
1016.737	3791.81
1016.904	3396.56
1017.071	3087.31
1017.238	3480.52
1017.405	3677.13
1017.572	3390.41
1017.739	3417.04
1017.906	3492.81
1018.073	3572.68
1018.24	3253.2
1018.407	3224.53
1018.573	3730.38
1018.74	3478.47
1018.907	3163.09
1019.074	2989.01
1019.241	3472.33
1019.407	3398.6
1019.574	2964.43
1019.741	2896.85
1019.907	3431.37
1020.074	3380.17
1020.241	2810.84
1020.407	2915.28
1020.574	3460.04
1020.74	3210.19
1020.907	3029.97
1021.073	2935.76
1021.24	3603.4
1021.406	3494.86
1021.573	2819.03
1021.739	2874.32
1021.906	3285.97
1022.072	2989.01
1022.239	2855.89
1022.405	2653.14
1022.571	3122.13
1022.738	2866.13
1022.904	2694.1
1023.07	2681.82
1023.237	2855.89
1023.403	3154.9
1023.569	2778.07
1023.735	2671.58
1023.902	2952.15
1024.068	2927.57
1024.234	2620.38
1024.4	2560.98
1024.566	3011.54
1024.732	3042.26
1024.898	2565.08
1025.065	2489.31
1025.231	3025.87
1025.397	2702.29
1025.563	2378.72
1025.729	2393.05
1025.895	2431.96
1026.061	2632.66
1026.227	2294.75
1026.392	2362.33
1026.558	2958.29
1026.724	2841.56
1026.89	2348
1027.056	2479.07
1027.222	2841.56
1027.388	2532.31
1027.553	2126.82
1027.719	2294.75
1027.885	2933.72
1028.051	2810.84
1028.216	2161.63
1028.382	2325.47
1028.548	2837.46
1028.713	2579.42
1028.879	2110.43
1029.045	2378.72
1029.21	2833.36
1029.376	2872.28
1029.541	2190.3
1029.707	2114.53
1029.873	2560.98
1030.038	2532.31
1030.204	2046.94
1030.369	2083.81
1030.534	2556.89
1030.7	2321.37
1030.865	2159.58
1031.031	1876.96
1031.196	2495.45
1031.361	2427.87
1031.527	1991.65
1031.692	2079.71
1031.857	1903.59
1032.023	2456.54
1032.188	1895.4
1032.353	2132.96
1032.518	2655.19
1032.684	2296.8
1032.849	1997.79
1033.014	2053.09
1033.179	2249.69
1033.344	2264.03
1033.509	2034.66
1033.674	1971.17
1033.839	2440.15
1034.004	2354.14
1034.17	1901.54
1034.335	1842.15
1034.5	1940.45
1034.664	1876.96
1034.829	1715.17
1034.994	1926.11
1035.159	2284.51
1035.324	2141.15
1035.489	1756.13
1035.654	1704.93
1035.819	2264.03
1035.984	2003.94
1036.148	1883.11
1036.313	1709.03
1036.478	2149.34
1036.643	1991.65
1036.807	1682.41
1036.972	1655.78
1037.137	2417.63
1037.301	2016.23
1037.466	1563.62
1037.631	1725.41
1037.795	2204.64
1037.96	1977.31
1038.124	1958.88
1038.289	1446.89
1038.454	1991.65
1038.618	2178.01
1038.783	1727.46
1038.947	1700.84
1039.111	2061.28
1039.276	1661.93
1039.44	1555.43
1039.605	2008.03
1039.769	1741.8
1039.933	1801.19
1040.098	1643.49
1040.262	1799.14
1040.426	1979.36
1040.591	1932.26
1040.755	1420.27
1040.919	1414.12
1041.083	1864.68
1041.248	1715.17
1041.412	1385.45
1041.576	1367.02
1041.74	1653.73
1041.904	1995.75
1042.068	1383.4
1042.232	1567.72
1042.397	1934.31
1042.561	1752.04
1042.725	1182.7
1042.889	1539.05
1043.053	1885.16
1043.217	1809.38
1043.381	1487.85
1043.544	1072.11
1043.708	1915.87
1043.872	1416.17
1044.036	1197.04
1044.2	1080.3
1044.364	1893.35
1044.528	2046.94
1044.691	4076.48
1044.855	1117.17
1045.019	1758.18
1045.183	1608.68
1045.346	1276.91
1045.51	1117.17
1045.674	1573.86
1045.837	1631.21
1046.001	1254.38
1046.165	1137.65
1046.328	2014.18
1046.492	1645.54
1046.655	1342.44
1046.819	1151.98
1046.983	1375.21
1047.146	1629.16
1047.31	1139.69
1047.473	969.71
1047.636	1444.84
1047.8	1350.64
1047.963	1297.39
1048.127	1012.72
1048.29	1305.58
