Data from Hydrogel_Ink_Intensity_Test_1_USB4F045381__77__00077.txt Node

Date: Mon Jul 31 10:56:09 EDT 2023
User: mmckonesweet
Spectrometer: USB4F04538
Trigger mode: 4
Integration Time (sec): 9.000000E-1
Scans to average: 1
Electric dark correction enabled: true
Nonlinearity correction enabled: false
Boxcar width: 0
XAxis mode: Wavelengths
Number of Pixels in Spectrum: 3648
>>>>>Begin Spectral Data<<<<<
345.52	-1026.89
345.736	-1026.89
345.952	-1026.89
346.168	-1073.99
346.384	-942.92
346.6	-199.51
346.816	-146.26
347.032	-250.71
347.248	318.63
347.464	-258.9
347.68	-185.17
347.896	144.55
348.112	371.88
348.328	-60.24
348.544	-27.48
348.76	29.87
348.975	263.33
349.191	-285.52
349.407	-187.22
349.623	58.54
349.839	-70.48
350.055	-121.68
350.27	13.48
350.486	140.46
350.702	257.19
350.918	251.05
351.133	-111.44
351.349	175.27
351.565	435.36
351.781	-260.95
351.996	-58.2
352.212	253.09
352.428	-103.25
352.644	-219.99
352.859	-162.64
353.075	240.81
353.291	11.43
353.506	-136.02
353.722	-275.28
353.938	-78.68
354.153	416.93
354.369	15.53
354.584	-217.94
354.8	316.58
355.016	-271.19
355.231	-205.65
355.447	-41.81
355.662	99.5
355.878	752.8
356.093	-340.82
356.309	-78.68
356.524	-236.37
356.74	261.29
356.955	-322.38
357.171	-0.85
357.386	236.71
357.602	-209.75
357.817	-64.34
358.033	-162.64
358.248	365.73
358.464	132.26
358.679	-105.3
358.895	-351.06
359.11	44.2
359.325	349.35
359.541	304.29
359.756	-45.91
359.972	-271.19
360.187	187.56
360.402	-240.47
360.618	-224.08
360.833	992.41
361.048	56.49
361.264	-179.03
361.479	-138.07
361.694	-31.57
361.909	271.53
362.125	-195.41
362.34	-176.98
362.555	232.62
362.77	83.11
362.986	-226.13
363.201	-187.22
363.416	150.7
363.631	124.07
363.847	-146.26
364.062	-170.83
364.277	298.15
364.492	107.69
364.707	-158.55
364.922	-320.34
365.138	265.38
365.353	339.11
365.568	-260.95
365.783	-125.78
365.998	115.88
366.213	543.91
366.428	-336.72
366.643	25.77
366.858	283.81
367.073	218.28
367.288	-121.68
367.503	-258.9
367.718	93.35
367.933	279.72
368.148	-301.9
368.363	-121.68
368.578	27.82
368.793	373.92
369.008	-203.6
369.223	-209.75
369.438	210.09
369.653	398.5
369.868	-219.99
370.083	-273.23
370.298	105.64
370.513	357.54
370.728	29.87
370.943	-189.27
371.157	-76.63
371.372	480.42
371.587	-240.47
371.802	-281.43
372.017	81.07
372.232	457.89
372.446	-41.81
372.661	-310.1
372.876	228.52
373.091	142.5
373.306	-47.96
373.52	-158.55
373.735	-101.2
373.95	363.69
374.165	-64.34
374.379	-109.4
374.594	-129.88
374.809	146.6
375.023	3.24
375.238	-215.89
375.453	292.01
375.667	-215.89
375.882	-179.03
376.097	-146.26
376.311	54.44
376.526	23.72
376.741	-215.89
376.955	183.46
377.17	582.82
377.384	537.76
377.599	-101.2
377.813	-209.75
378.028	650.4
378.242	173.22
378.457	-117.59
378.672	-336.72
378.886	-13.14
379.101	-2.9
379.315	-269.14
379.53	-150.36
379.744	251.05
379.958	242.85
380.173	-123.73
380.387	-131.92
380.602	205.99
380.816	-88.92
381.031	-142.16
381.245	-146.26
381.459	205.99
381.674	2765.95
381.888	-240.47
382.103	97.45
382.317	-113.49
382.531	511.14
382.746	-74.58
382.96	-207.7
383.174	7.34
383.388	449.7
383.603	156.84
383.817	-222.03
384.031	212.14
384.246	425.12
384.46	-19.29
384.674	378.02
384.888	9.39
385.103	83.11
385.317	-242.51
385.531	33.96
385.745	418.98
385.959	277.67
386.174	-168.79
386.388	-252.75
386.602	-21.33
386.816	-101.2
387.03	-76.63
387.244	-54.1
387.458	60.59
387.672	343.21
387.887	-252.75
388.101	-353.1
388.315	306.34
388.529	171.18
388.743	-105.3
388.957	-207.7
389.171	400.55
389.385	-150.36
389.599	-37.72
389.813	25.77
390.027	152.74
390.241	683.17
390.455	-148.31
390.669	-35.67
390.883	-76.63
391.097	451.75
391.311	48.3
391.525	-133.97
391.738	189.61
391.952	230.57
392.166	-27.48
392.38	-256.85
392.594	328.87
392.808	357.54
393.022	-37.72
393.236	-56.15
393.449	214.18
393.663	240.81
393.877	-258.9
394.091	-80.72
394.305	-13.14
394.518	-39.76
394.732	-150.36
394.946	-99.16
395.16	509.09
395.373	230.57
395.587	-150.36
395.801	-209.75
396.015	365.73
396.228	218.28
396.442	-219.99
396.656	-287.57
396.869	296.1
397.083	519.33
397.297	-21.33
397.51	-123.73
397.724	406.69
397.938	148.65
398.151	-238.42
398.365	-269.14
398.578	273.57
398.792	423.08
399.005	74.92
399.219	-80.72
399.433	210.09
399.646	208.04
399.86	99.5
400.073	72.87
400.287	283.81
400.5	62.63
400.714	-0.85
400.927	-11.09
401.141	312.49
401.354	1178.78
401.567	148.65
401.781	-228.18
401.994	285.86
402.208	597.15
402.421	-88.92
402.635	-80.72
402.848	-56.15
403.061	253.09
403.275	-62.29
403.488	-150.36
403.701	599.2
403.915	302.25
404.128	101.55
404.341	-80.72
404.555	240.81
404.768	70.83
404.981	-19.29
405.195	-68.44
405.408	582.82
405.621	353.45
405.834	54.44
406.048	-129.88
406.261	466.08
406.474	582.82
406.687	-105.3
406.9	40.11
407.114	148.65
407.327	222.38
407.54	-312.14
407.753	-269.14
407.966	-47.96
408.179	341.16
408.392	-162.64
408.605	-310.1
408.819	224.42
409.032	281.77
409.245	-101.2
409.458	105.64
409.671	337.06
409.884	394.4
410.097	-179.03
410.31	52.39
410.523	312.49
410.736	52.39
410.949	-72.53
411.162	-13.14
411.375	521.38
411.588	386.21
411.801	9.39
412.014	-60.24
412.227	193.7
412.44	23.72
412.653	-105.3
412.865	105.64
413.078	355.49
413.291	212.14
413.504	-21.33
413.717	-117.59
413.93	429.22
414.143	-56.15
414.356	-39.76
414.568	-260.95
414.781	283.81
414.994	271.53
415.207	13.48
415.42	-27.48
415.632	378.02
415.845	550.05
416.058	-189.27
416.271	-197.46
416.483	109.74
416.696	482.47
416.909	-103.25
417.121	-82.77
417.334	310.44
417.547	582.82
417.759	-111.44
417.972	-154.45
418.185	19.63
418.397	341.16
418.61	11.43
418.823	-84.82
419.035	527.52
419.248	181.42
419.46	1.19
419.673	42.15
419.885	257.19
420.098	76.97
420.311	-138.07
420.523	-330.58
420.736	349.35
420.948	230.57
421.161	-82.77
421.373	-279.38
421.586	246.95
421.798	-33.62
422.01	-224.08
422.223	23.72
422.435	83.11
422.648	285.86
422.86	-33.62
423.073	-93.01
423.285	455.84
423.497	-154.45
423.71	-47.96
423.922	-105.3
424.134	378.02
424.347	615.59
424.559	214.18
424.771	222.38
424.984	79.02
425.196	240.81
425.408	-189.27
425.621	-133.97
425.833	418.98
426.045	443.56
426.257	-115.54
426.47	-21.33
426.682	283.81
426.894	369.83
427.106	-72.53
427.318	-47.96
427.531	27.82
427.743	345.25
427.955	-19.29
428.167	406.69
428.379	412.84
428.591	191.66
428.804	87.21
429.016	-64.34
429.228	152.74
429.44	212.14
429.652	97.45
429.864	-121.68
430.076	179.37
430.288	165.03
430.5	1.19
430.712	158.89
430.924	443.56
431.136	363.69
431.348	-265.04
431.56	-86.87
431.772	122.02
431.984	128.17
432.196	-52.05
432.408	-7
432.62	126.12
432.832	357.54
433.044	238.76
433.256	119.98
433.468	406.69
433.679	-160.59
433.891	-29.52
434.103	312.49
434.315	539.81
434.527	402.6
434.739	95.4
434.95	81.07
435.162	421.03
435.374	81.07
435.586	74.92
435.798	1.19
436.009	5.29
436.221	173.22
436.433	-4.95
436.645	38.06
436.856	165.03
437.068	527.52
437.28	-2.9
437.491	328.87
437.703	380.07
437.915	357.54
438.126	119.98
438.338	281.77
438.55	220.33
438.761	414.88
438.973	70.83
439.184	60.59
439.396	328.87
439.608	472.23
439.819	-31.57
440.031	146.6
440.242	359.59
440.454	468.13
440.665	128.17
440.877	126.12
441.088	369.83
441.3	210.09
441.511	-197.46
441.723	-15.19
441.934	289.96
442.146	310.44
442.357	189.61
442.569	347.3
442.78	330.92
442.991	691.36
443.203	337.06
443.414	-52.05
443.626	689.31
443.837	162.98
444.048	40.11
444.26	-168.79
444.471	277.67
444.682	562.34
444.894	-72.53
445.105	-41.81
445.316	593.06
445.528	427.17
445.739	99.5
445.95	113.83
446.161	337.06
446.373	607.39
446.584	87.21
446.795	79.02
447.006	533.67
447.217	685.22
447.429	-15.19
447.64	7.34
447.851	570.53
448.062	359.59
448.273	-99.16
448.484	9.39
448.695	509.09
448.907	332.97
449.118	132.26
449.329	357.54
449.54	242.85
449.751	130.22
449.962	60.59
450.173	64.68
450.384	609.44
450.595	566.43
450.806	62.63
451.017	183.46
451.228	627.87
451.439	646.3
451.65	95.4
451.861	-176.98
452.072	183.46
452.283	341.16
452.494	275.62
452.705	50.35
452.915	748.7
453.126	418.98
453.337	212.14
453.548	7.34
453.759	730.27
453.97	890.01
454.181	429.22
454.391	154.79
454.602	453.8
454.813	545.95
455.024	242.85
455.235	152.74
455.445	388.26
455.656	531.62
455.867	349.35
456.078	101.55
456.288	341.16
456.499	617.63
456.71	83.11
456.921	351.4
457.131	511.14
457.342	494.76
457.553	230.57
457.763	162.98
457.974	552.1
458.184	611.49
458.395	156.84
458.606	-21.33
458.816	683.17
459.027	887.97
459.237	341.16
459.448	87.21
459.659	785.57
459.869	1057.95
460.08	36.01
460.29	271.53
460.501	926.88
460.711	322.73
460.922	48.3
461.132	214.18
461.343	1119.39
461.553	205.99
461.764	171.18
461.974	251.05
462.184	644.26
462.395	668.83
462.605	330.92
462.816	117.93
463.026	537.76
463.236	791.71
463.447	171.18
463.657	152.74
463.867	713.89
464.078	435.36
464.288	320.68
464.498	279.72
464.709	418.98
464.919	468.13
465.129	328.87
465.339	230.57
465.55	642.21
465.76	801.95
465.97	351.4
466.18	261.29
466.391	861.34
466.601	769.18
466.811	468.13
467.021	103.59
467.231	734.37
467.441	881.82
467.651	365.73
467.862	107.69
468.072	693.41
468.282	926.88
468.492	349.35
468.702	468.13
468.912	670.88
469.122	1272.98
469.332	705.7
469.542	394.4
469.752	853.15
469.962	734.37
470.172	337.06
470.382	406.69
470.592	904.35
470.802	933.02
471.012	533.67
471.222	382.12
471.432	957.6
471.642	904.35
471.852	539.81
472.062	402.6
472.272	683.17
472.482	443.56
472.691	437.41
472.901	314.53
473.111	857.25
473.321	1418.39
473.531	427.17
473.741	609.44
473.95	967.84
474.16	939.16
474.37	631.97
474.58	523.43
474.79	1250.46
474.999	1107.1
475.209	519.33
475.419	707.74
475.628	736.42
475.838	1197.21
476.048	744.61
476.258	500.9
476.467	1281.18
476.677	820.38
476.886	906.4
477.096	804
477.306	795.81
477.515	1223.83
477.725	804
477.935	795.81
478.144	1442.96
478.354	861.34
478.563	806.05
478.773	699.55
478.982	1117.34
479.192	1344.66
479.401	808.09
479.611	773.28
479.82	840.86
480.03	1148.06
480.239	740.51
480.449	777.37
480.658	1447.06
480.868	1041.56
481.077	1041.56
481.287	826.53
481.496	1299.61
481.705	1514.64
481.915	1234.07
482.124	1025.18
482.333	1270.94
482.543	1440.92
482.752	1070.23
482.961	971.93
483.171	1416.34
483.38	1240.22
483.589	1213.59
483.799	937.12
484.008	1221.78
484.217	1344.66
484.426	1062.04
484.636	930.97
484.845	1352.85
485.054	916.64
485.263	1381.53
485.472	1051.8
485.682	1660.05
485.891	1365.14
486.1	959.64
486.309	1105.05
486.518	1442.96
486.727	1774.74
486.936	1094.81
487.146	1344.66
487.355	1756.3
487.564	1158.3
487.773	1180.82
487.982	1121.43
488.191	1254.55
488.4	1492.12
488.609	1258.65
488.818	1254.55
489.027	2102.41
489.236	1895.57
489.445	1166.49
489.654	1107.1
489.863	1641.62
490.072	1578.13
490.281	1666.19
490.49	1322.13
490.698	1916.05
490.907	1850.51
491.116	1346.71
491.325	1229.98
491.534	1905.81
491.743	1676.43
491.952	1371.29
492.16	1453.2
492.369	1780.88
492.578	1846.41
492.787	1463.44
492.996	1152.15
493.204	1442.96
493.413	2172.04
493.622	1221.78
493.831	1225.88
494.039	2081.93
494.248	1531.03
494.457	1438.87
494.665	1332.37
494.874	1950.86
495.083	2190.47
495.291	1617.04
495.5	1434.77
495.709	1922.19
495.917	1832.08
496.126	1567.89
496.335	1404.05
496.543	1586.32
496.752	1981.58
496.96	1758.35
497.169	1463.44
497.377	1821.84
497.586	2040.97
497.794	1705.1
498.003	1348.76
498.211	1873.04
498.42	2112.65
498.628	1662.1
498.837	1545.36
499.045	1934.48
499.254	1922.19
499.462	1655.95
499.671	1578.13
499.879	2442.37
500.087	2221.19
500.296	1629.33
500.504	1664.15
500.713	2018.44
500.921	2595.97
501.129	1578.13
501.338	1737.87
501.546	2057.36
501.754	2016.4
501.962	1840.27
502.171	1647.76
502.379	2161.8
502.587	2542.72
502.795	1864.85
503.004	1678.48
503.212	2038.92
503.42	2227.34
503.628	1914
503.837	1877.13
504.045	2188.43
504.253	2516.1
504.461	1746.06
504.669	1647.76
504.877	2301.06
505.085	2305.16
505.294	1610.9
505.502	1979.53
505.71	2258.06
505.918	2247.82
506.126	1827.98
506.334	1934.48
506.542	2106.51
506.75	2163.85
506.958	2094.22
507.166	1832.08
507.374	1918.09
507.582	2610.31
507.79	2004.11
507.998	1764.5
508.206	2309.26
508.414	2364.55
508.622	1942.67
508.83	1901.71
509.037	2415.75
509.245	2133.13
509.453	1897.61
509.661	1787.02
509.869	2491.52
510.077	2188.43
510.285	2077.83
510.492	1787.02
510.7	2794.62
510.908	2131.08
511.116	1993.87
511.324	1846.41
511.531	2282.63
511.739	2278.54
511.947	2278.54
512.155	2368.65
512.362	2389.13
512.57	2149.51
512.778	1926.29
512.985	1889.42
513.193	2628.74
513.401	2610.31
513.608	2104.46
513.816	2069.64
514.024	2415.75
514.231	2684.03
514.439	2129.03
514.646	2081.93
514.854	2595.97
515.061	2540.68
515.269	2118.79
515.477	2016.4
515.684	2217.1
515.892	2778.24
516.099	1942.67
516.307	1987.72
516.514	2483.33
516.722	2788.48
516.929	2274.44
517.136	2081.93
517.344	2868.35
517.551	2643.07
517.759	2065.55
517.966	2335.88
518.173	2493.57
518.381	2438.28
518.588	2364.55
518.796	2299.02
519.003	2579.59
519.21	2507.91
519.418	2133.13
519.625	2577.54
519.832	2569.35
520.039	2649.22
520.247	1870.99
520.454	2311.3
520.661	2716.8
520.868	2665.6
521.076	2272.39
521.283	2407.56
521.49	3247.23
521.697	2727.04
521.904	2401.41
522.112	2458.76
522.319	2681.99
522.526	2843.78
522.733	2307.21
522.94	2425.99
523.147	2675.84
523.354	2882.69
523.561	2188.43
523.768	2532.48
523.975	2845.82
524.183	2675.84
524.39	2434.18
524.597	2253.96
524.804	2659.46
525.011	2536.58
525.218	2405.51
525.425	2413.7
525.632	3093.63
525.838	2421.89
526.045	2524.29
526.252	2339.97
526.459	4072.56
526.666	3808.37
526.873	2542.72
527.08	2305.16
527.287	3298.42
527.494	2878.59
527.701	2350.21
527.907	2393.22
528.114	2929.79
528.321	2786.43
528.528	2348.17
528.735	2442.37
528.941	2643.07
529.148	2638.98
529.355	2616.45
529.562	2567.3
529.768	3163.26
529.975	2626.69
530.182	2585.73
530.388	2507.91
530.595	3101.82
530.802	2606.21
531.008	2677.89
531.215	2667.65
531.422	3675.25
531.628	3775.6
531.835	2739.33
532.042	2815.1
532.248	2954.37
532.455	2925.69
532.661	2751.62
532.868	2602.11
533.074	3081.34
533.281	3159.16
533.487	2854.02
533.694	2559.11
533.9	2813.06
534.107	3150.97
534.313	2643.07
534.52	2614.4
534.726	3208.31
534.933	3574.9
535.139	2589.83
535.345	2628.74
535.552	3146.87
535.758	3079.29
535.965	2958.46
536.171	2827.39
536.377	3335.29
536.584	3468.41
536.79	2890.88
536.996	3007.61
537.203	3173.5
537.409	3275.9
537.615	2880.64
537.821	2933.89
538.028	3345.53
538.234	3265.66
538.44	2843.78
538.646	3040.38
538.853	3480.69
539.059	3034.24
539.265	3236.99
539.471	2780.29
539.677	3499.13
539.883	3138.68
540.09	2929.79
540.296	3478.65
540.502	3171.45
540.708	2976.89
540.914	3159.16
541.12	2974.85
541.326	3339.38
541.532	3183.74
541.738	3118.2
541.944	3161.21
542.15	3429.49
542.356	3202.17
542.562	2864.25
542.768	3087.48
542.974	3869.81
543.18	3765.36
543.386	2862.21
543.592	2978.94
543.798	3863.66
544.004	3599.48
544.21	3077.24
544.415	3144.83
544.621	3419.25
544.827	3677.3
545.033	3050.62
545.239	3343.48
545.445	3179.64
545.651	3636.34
545.856	3187.83
546.062	3114.11
546.268	3279.99
546.474	3492.98
546.679	3181.69
546.885	3249.27
547.091	3333.24
547.297	3978.35
547.502	3220.6
547.708	2987.13
547.914	3378.3
548.119	3744.88
548.325	3067
548.531	3130.49
548.736	3988.59
548.942	3339.38
549.147	3138.68
549.353	3505.27
549.559	3849.33
549.764	3722.35
549.97	3056.76
550.175	3265.66
550.381	3576.95
550.586	3523.7
550.792	3421.3
550.997	3282.04
551.203	3665.01
551.408	3824.75
551.614	3130.49
551.819	3232.89
552.025	3984.49
552.23	4043.88
552.435	3157.11
552.641	3597.43
552.846	3421.3
553.052	3959.92
553.257	3535.99
553.462	3345.53
553.668	3495.03
553.873	3988.59
554.078	3337.34
554.283	3517.56
554.489	3777.65
554.694	3630.2
554.899	3396.73
555.105	3564.66
555.31	3818.61
555.515	4009.07
555.72	3517.56
555.925	3310.71
556.131	4011.12
556.336	3646.58
556.541	3372.15
556.746	3454.07
556.951	3927.15
557.156	4101.23
557.361	3552.37
557.567	3785.84
557.772	4211.82
557.977	3982.45
558.182	3427.45
558.387	3531.89
558.592	3644.53
558.797	4082.8
559.002	3605.62
559.207	3679.35
559.412	3822.7
559.617	4193.39
559.822	3617.91
560.027	3576.95
560.232	3923.05
560.437	3980.4
560.642	3480.69
560.847	3476.6
561.051	3886.19
561.256	3847.28
561.461	3613.81
561.666	3439.73
561.871	3923.05
562.076	4007.02
562.281	3597.43
562.485	3548.28
562.69	4056.17
562.895	4109.42
563.1	3560.56
563.305	3478.65
563.509	4240.49
563.714	4461.67
563.919	3716.21
564.123	3718.26
564.328	3992.69
564.533	4281.45
564.737	3640.44
564.942	3732.59
565.147	4504.68
565.351	4490.34
565.556	3712.11
565.761	3777.65
565.965	4144.24
566.17	3900.53
566.374	3628.15
566.579	3738.74
566.784	4011.12
566.988	3888.24
567.193	3720.31
567.397	3576.95
567.602	3601.52
567.806	4031.6
568.011	3677.3
568.215	3744.88
568.42	4148.33
568.624	3851.38
568.828	3757.17
569.033	3855.47
569.237	4314.22
569.442	4217.96
569.646	3703.92
569.85	3683.44
570.055	3892.34
570.259	4248.68
570.463	4015.21
570.668	3673.2
570.872	4265.07
571.076	4009.07
571.281	4023.41
571.485	4015.21
571.689	4123.76
571.893	4240.49
572.098	4066.41
572.302	3767.41
572.506	4207.72
572.71	4263.02
572.914	3929.2
573.119	3695.73
573.323	4389.99
573.527	4414.57
573.731	3800.18
573.935	3798.13
574.139	4273.26
574.343	4103.28
574.547	3781.74
574.751	3947.63
574.955	4418.66
575.159	4441.19
575.364	3980.4
575.568	3902.58
575.772	4236.39
575.976	4629.6
576.18	3849.33
576.383	3843.18
576.587	4625.51
576.791	4484.2
576.995	3705.97
577.199	3892.34
577.403	4433
577.607	4457.57
577.811	3904.62
578.015	4066.41
578.219	4482.15
578.422	4602.98
578.626	4183.15
578.83	4220.01
579.034	4389.99
579.238	4406.38
579.442	3986.54
579.645	4349.03
579.849	4308.07
580.053	4426.86
580.257	3994.73
580.46	4172.91
580.664	4564.07
580.868	4420.71
581.071	4441.19
581.275	4088.94
581.479	4027.5
581.682	4523.11
581.886	3974.25
582.09	4234.35
582.293	4535.4
582.497	4762.72
582.7	4340.84
582.904	4129.9
583.107	4426.86
583.311	4463.72
583.515	4154.48
583.718	4244.59
583.922	4531.3
584.125	4916.32
584.329	4211.82
584.532	4353.13
584.735	4899.94
584.939	4543.59
585.142	3906.67
585.346	4164.72
585.549	4539.49
585.753	4410.47
585.956	4381.8
586.159	4375.66
586.363	4901.98
586.566	4725.86
586.769	4220.01
586.973	4080.75
587.176	4555.88
587.379	4592.74
587.582	4629.6
587.786	4461.67
587.989	4422.76
588.192	5266.52
588.395	4592.74
588.599	4664.42
588.802	4650.08
589.005	4689
589.208	4258.92
589.411	4275.31
589.615	4881.5
589.818	5071.97
590.021	4486.25
590.224	4578.4
590.427	4965.47
590.63	4881.5
590.833	4277.35
591.036	4330.6
591.239	4678.76
591.442	4504.68
591.645	4721.76
591.848	4308.07
592.051	4834.4
592.254	4988
592.457	4476.01
592.66	4666.47
592.863	4711.52
593.066	4834.4
593.269	4605.03
593.472	4549.73
593.675	4525.16
593.878	4867.17
594.081	4758.63
594.284	4476.01
594.486	4918.37
594.689	4932.7
594.892	4738.15
595.095	4625.51
595.298	4850.78
595.5	4832.35
595.703	4732
595.906	4607.08
596.109	5174.36
596.311	4953.18
596.514	4285.55
596.717	4674.66
596.92	5104.73
597.122	4904.03
597.325	4330.6
597.528	4461.67
597.73	5311.58
597.933	4854.88
598.136	4695.14
598.338	4353.13
598.541	5145.69
598.743	5213.28
598.946	4734.05
599.148	4732
599.351	5143.64
599.554	5186.65
599.756	4793.44
599.959	4660.32
600.161	5313.63
600.363	5442.65
600.566	4863.07
600.768	4555.88
600.971	5278.81
601.173	5026.91
601.376	4729.95
601.578	4725.86
601.78	5170.27
601.983	5641.3
602.185	4559.97
602.388	4928.61
602.59	5008.48
602.792	4924.51
602.995	4852.83
603.197	4756.58
603.399	5284.95
603.601	5192.8
603.804	4744.29
604.006	4772.96
604.208	5065.82
604.41	4543.59
604.613	5047.39
604.815	4580.45
605.017	5590.1
605.219	4721.76
605.421	5096.54
605.623	4961.37
605.826	5461.08
606.028	5463.13
606.23	4732
606.432	4828.26
606.634	5639.25
606.836	5399.64
607.038	4689
607.24	4944.99
607.442	5235.8
607.644	4998.24
607.846	4973.66
608.048	4854.88
608.25	5618.77
608.452	5018.72
608.654	4813.92
608.856	4807.78
609.058	5200.99
609.26	5059.68
609.462	4883.55
609.664	4965.47
609.866	5672.02
610.067	5336.15
610.269	4957.28
610.471	4881.5
610.673	4975.71
610.875	5438.55
611.077	4867.17
611.278	4934.75
611.48	5110.88
611.682	5479.51
611.884	5037.15
612.085	4996.19
612.287	5033.05
612.489	5319.77
612.69	4764.77
612.892	5108.83
613.094	5354.58
613.295	5424.22
613.497	4682.85
613.699	4936.8
613.9	5600.34
614.102	5397.59
614.304	4924.51
614.505	4682.85
614.707	5233.75
614.908	5084.25
615.11	4727.91
615.311	4985.95
615.513	5350.49
615.714	5465.18
615.916	4805.73
616.117	5084.25
616.319	5252.19
616.52	5426.26
616.722	4875.36
616.923	4955.23
617.124	5450.84
617.326	5403.74
617.527	5006.43
617.729	5108.83
617.93	5336.15
618.131	5170.27
618.333	4668.52
618.534	4969.57
618.735	4879.46
618.937	5590.1
619.138	4953.18
619.339	4695.14
619.54	5321.82
619.742	5200.99
619.943	5135.45
620.144	5051.49
620.345	5473.37
620.546	5477.46
620.748	4985.95
620.949	4977.76
621.15	5456.98
621.351	5401.69
621.552	4867.17
621.753	4762.72
621.954	4838.5
622.155	5637.2
622.356	4908.13
622.558	5260.38
622.759	5645.4
622.96	5669.97
623.161	5088.35
623.362	4891.74
623.563	5313.63
623.764	5215.32
623.965	5098.59
624.166	5287
624.366	5375.06
624.567	5325.91
624.768	4805.73
624.969	5043.29
625.17	5315.67
625.371	5596.25
625.572	5098.59
625.773	4985.95
625.973	5565.53
626.174	5370.97
626.375	5278.81
626.576	5168.22
626.777	5549.14
626.977	6024.27
627.178	5061.73
627.379	5164.12
627.58	5315.67
627.78	5280.86
627.981	5276.76
628.182	5217.37
628.382	5430.36
628.583	4899.94
628.784	5063.77
628.984	5346.39
629.185	5694.55
629.386	5647.44
629.586	5182.56
629.787	5022.81
629.987	5657.68
630.188	5555.29
630.388	5026.91
630.589	5274.71
630.79	5964.88
630.99	5375.06
631.191	5114.97
631.391	5268.57
631.591	5543
631.792	5839.95
631.992	5319.77
632.193	5125.21
632.393	5952.59
632.594	5512.28
632.794	5145.69
632.994	5301.34
633.195	5407.83
633.395	5524.57
633.595	5121.12
633.796	5407.83
633.996	5211.23
634.196	5641.3
634.397	5094.49
634.597	5205.08
634.797	5276.76
634.997	5930.06
635.198	5379.16
635.398	5039.2
635.598	5563.48
635.798	5891.15
635.998	5618.77
636.199	5188.7
636.399	5375.06
636.599	5385.3
636.799	5370.97
636.999	5409.88
637.199	5672.02
637.399	5690.45
637.599	5145.69
637.799	5342.3
637.999	5319.77
638.199	5948.5
638.399	5342.3
638.599	5475.42
638.799	5561.43
638.999	5946.45
639.199	5485.65
639.399	5514.33
639.599	5989.46
639.799	5350.49
639.999	5264.47
640.199	5186.65
640.399	5620.82
640.599	5438.55
640.799	5334.11
640.998	5499.99
641.198	5786.71
641.398	5719.12
641.598	5436.5
641.798	5377.11
641.997	6442.06
642.197	5481.56
642.397	5401.69
642.597	5287
642.796	5805.14
642.996	5985.36
643.196	5624.92
643.395	5198.94
643.595	5762.13
643.795	5305.43
643.994	5278.81
644.194	5473.37
644.394	5792.85
644.593	5665.88
644.793	5399.64
644.992	5514.33
645.192	5643.35
645.392	5162.08
645.591	5342.3
645.791	5409.88
645.99	5893.2
646.19	5641.3
646.389	5567.57
646.589	5573.72
646.788	5895.25
646.987	5655.64
647.187	5588.05
647.386	5629.01
647.586	5622.87
647.785	5755.99
647.984	5493.85
648.184	5459.03
648.383	5686.36
648.582	5624.92
648.782	5424.22
648.981	5719.12
649.18	5579.86
649.38	5776.47
649.579	5403.74
649.778	5239.9
649.977	5930.06
650.177	5862.48
650.376	5432.41
650.575	5256.28
650.774	6126.67
650.973	5440.6
651.173	5444.7
651.372	5592.15
651.571	5719.12
651.77	6057.04
651.969	5463.13
652.168	5536.85
652.367	5461.08
652.566	5794.9
652.765	5350.49
652.964	5778.51
653.163	6245.45
653.362	5649.49
653.561	5575.77
653.76	5366.87
653.959	5825.62
654.158	5956.69
654.357	5862.48
654.556	5528.66
654.755	5755.99
654.954	6061.13
655.153	5391.45
655.352	5629.01
655.551	6052.94
655.749	5592.15
655.948	5712.98
656.147	5729.36
656.346	5815.38
656.545	5760.08
656.743	5524.57
656.942	5762.13
657.141	5856.34
657.34	5690.45
657.538	5543
657.737	5493.85
657.936	5784.66
658.135	5860.43
658.333	5436.5
658.532	5702.74
658.731	6210.64
658.929	5999.7
659.128	6073.42
659.326	5536.85
659.525	6151.24
659.724	5866.58
659.922	5346.39
660.121	5407.83
660.319	5829.71
660.518	5661.78
660.716	5497.94
660.915	5469.27
661.113	6251.6
661.312	5618.77
661.51	5602.39
661.709	5534.81
661.907	6118.48
662.105	6302.79
662.304	5649.49
662.502	5602.39
662.701	6237.26
662.899	5733.46
663.097	5981.26
663.296	5360.73
663.494	6325.32
663.692	6194.25
663.891	5543
664.089	5571.67
664.287	5897.3
664.485	6214.73
664.684	5755.99
664.882	5796.95
665.08	5842
665.278	5950.54
665.476	5604.44
665.675	5923.92
665.873	6280.27
666.071	6149.2
666.269	5547.09
666.467	5815.38
666.665	5991.5
666.863	5866.58
667.061	5817.43
667.259	5614.68
667.457	5866.58
667.655	5934.16
667.853	5456.98
668.051	5882.96
668.249	5694.55
668.447	6042.7
668.645	5545.05
668.843	6038.61
669.041	6040.65
669.239	5692.5
669.437	5649.49
669.635	5837.91
669.833	5665.88
670.031	6059.09
670.229	5717.08
670.426	5694.55
670.624	5774.42
670.822	5620.82
671.02	5594.2
671.218	5692.5
671.415	5737.56
671.613	5792.85
671.811	5764.18
672.009	5676.12
672.206	6149.2
672.404	5827.67
672.602	5782.61
672.799	5715.03
672.997	5885.01
673.195	6091.85
673.392	5846.1
673.59	5479.51
673.788	6112.33
673.985	5424.22
674.183	5676.12
674.38	5514.33
674.578	6022.22
674.775	5614.68
674.973	5518.42
675.17	5497.94
675.368	6313.03
675.565	5964.88
675.763	5452.89
675.96	5612.63
676.158	6061.13
676.355	5882.96
676.553	5696.6
676.75	5774.42
676.947	5897.3
677.145	5768.27
677.342	5598.29
677.539	5506.13
677.737	5858.39
677.934	6169.68
678.131	5655.64
678.329	5524.57
678.526	6249.55
678.723	6087.76
678.92	5719.12
679.118	5776.47
679.315	5575.77
679.512	6171.72
679.709	5653.59
679.906	5698.64
680.104	5973.07
680.301	5893.2
680.498	5174.36
680.695	5497.94
680.892	5530.71
681.089	5694.55
681.286	5583.96
681.483	5280.86
681.68	5755.99
681.877	5928.02
682.075	5579.86
682.272	5655.64
682.469	5620.82
682.665	5637.2
682.862	5481.56
683.059	5432.41
683.256	5768.27
683.453	5667.92
683.65	5631.06
683.847	5571.67
684.044	5868.63
684.241	5446.74
684.438	5624.92
684.635	5477.46
684.831	6141
685.028	6210.64
685.225	5493.85
685.422	5620.82
685.619	5612.63
685.815	5844.05
686.012	5672.02
686.209	5657.68
686.405	5407.83
686.602	5989.46
686.799	5231.71
686.996	5303.39
687.192	5401.69
687.389	6188.11
687.586	5420.12
687.782	5547.09
687.979	6173.77
688.175	5780.56
688.372	5649.49
688.568	5454.94
688.765	5522.52
688.962	5891.15
689.158	5676.12
689.355	5145.69
689.551	5880.91
689.748	5465.18
689.944	5596.25
690.14	5190.75
690.337	5948.5
690.533	5540.95
690.73	5641.3
690.926	5461.08
691.123	5833.81
691.319	5543
691.515	5090.4
691.712	5590.1
691.908	5669.97
692.104	5641.3
692.301	5567.57
692.497	5293.15
692.693	5960.78
692.889	5854.29
693.086	5719.12
693.282	5252.19
693.478	5778.51
693.674	6112.33
693.87	5385.3
694.067	5311.58
694.263	5641.3
694.459	5547.09
694.655	5672.02
694.851	5413.98
695.047	5788.75
695.243	5909.58
695.439	5624.92
695.635	5317.72
695.831	5735.51
696.027	5715.03
696.224	5194.84
696.42	5715.03
696.615	6071.37
696.811	5768.27
697.007	5172.32
697.203	5332.06
697.399	5665.88
697.595	5981.26
697.791	5162.08
697.987	5727.32
698.183	5409.88
698.379	5348.44
698.575	5358.68
698.77	5303.39
698.966	5784.66
699.162	5829.71
699.358	5192.8
699.554	5262.43
699.749	5704.79
699.945	5688.4
700.141	5483.61
700.337	5499.99
700.532	5512.28
700.728	5463.13
700.924	5203.04
701.119	5252.19
701.315	5721.17
701.511	5454.94
701.706	5383.26
701.902	5215.32
702.097	5395.54
702.293	5846.1
702.489	5475.42
702.684	5223.51
702.88	5540.95
703.075	5418.07
703.271	5313.63
703.466	5235.8
703.662	5432.41
703.857	5553.24
704.053	5309.53
704.248	5293.15
704.443	5798.99
704.639	5688.4
704.834	5438.55
705.03	5254.23
705.225	5612.63
705.42	5803.09
705.616	5366.87
705.811	5200.99
706.006	5506.13
706.202	5297.24
706.397	5489.75
706.592	5227.61
706.787	5569.62
706.983	5557.33
707.178	5581.91
707.373	5256.28
707.568	5653.59
707.763	5661.78
707.959	5289.05
708.154	5203.04
708.349	5581.91
708.544	5577.81
708.739	5491.8
708.934	5211.23
709.129	5645.4
709.324	5796.95
709.519	5121.12
709.714	5080.16
709.909	5723.22
710.104	5565.53
710.299	5323.87
710.494	5178.46
710.689	5608.53
710.884	5540.95
711.079	5256.28
711.274	5461.08
711.469	5610.58
711.664	5608.53
711.859	5317.72
712.054	5463.13
712.249	5502.04
712.443	5721.17
712.638	5207.13
712.833	5149.79
713.028	5399.64
713.223	5366.87
713.417	5467.22
713.612	5149.79
713.807	5700.69
714.002	5991.5
714.196	5401.69
714.391	5157.98
714.586	5536.85
714.78	5483.61
714.975	5282.91
715.17	5221.47
715.364	5153.88
715.559	5586.01
715.754	4715.62
715.948	5121.12
716.143	5786.71
716.337	5338.2
716.532	5383.26
716.726	5264.47
716.921	5590.1
717.115	5782.61
717.31	4893.79
717.504	5758.03
717.699	5260.38
717.893	5649.49
718.088	5020.77
718.282	4881.5
718.476	5358.68
718.671	5407.83
718.865	5018.72
719.059	5049.44
719.254	5209.18
719.448	5641.3
719.642	6573.13
719.837	4965.47
720.031	5446.74
720.225	5444.7
720.419	5028.96
720.614	4981.85
720.808	5487.7
721.002	5178.46
721.196	4990.05
721.39	4975.71
721.585	5461.08
721.779	5295.19
721.973	5080.16
722.167	4811.87
722.361	5358.68
722.555	5616.72
722.749	4953.18
722.943	4957.28
723.137	5016.67
723.331	5348.44
723.525	5121.12
723.719	4938.85
723.913	5604.44
724.107	5497.94
724.301	4803.68
724.495	4973.66
724.689	5663.83
724.883	5543
725.077	4809.83
725.271	4965.47
725.465	5590.1
725.659	5280.86
725.853	5153.88
726.046	4834.4
726.24	5106.78
726.434	5456.98
726.628	4838.5
726.822	5178.46
727.015	5448.79
727.209	5391.45
727.403	5086.3
727.596	4922.46
727.79	5375.06
727.984	5475.42
728.177	5164.12
728.371	5031.01
728.565	5338.2
728.758	4971.61
728.952	5010.53
729.146	4852.83
729.339	5489.75
729.533	5272.67
729.726	4897.89
729.92	4875.36
730.113	5481.56
730.307	5315.67
730.5	4983.9
730.694	4912.22
730.887	5184.6
731.081	5227.61
731.274	5039.2
731.468	5053.53
731.661	5330.01
731.854	4949.09
732.048	5104.73
732.241	4858.98
732.435	5076.06
732.628	5192.8
732.821	4988
733.014	4875.36
733.208	4820.07
733.401	5334.11
733.594	5012.57
733.788	4953.18
733.981	5524.57
734.174	5338.2
734.367	4785.25
734.56	5043.29
734.754	5506.13
734.947	5309.53
735.14	5012.57
735.333	4942.94
735.526	5295.19
735.719	5059.68
735.912	4959.33
736.105	4881.5
736.298	5276.76
736.491	4973.66
736.684	4957.28
736.877	4918.37
737.07	5182.56
737.263	5506.13
737.456	4916.32
737.649	4828.26
737.842	5133.4
738.035	5246.04
738.228	5000.29
738.421	5102.68
738.614	5368.92
738.807	5362.78
739	4826.21
739.192	4791.39
739.385	5168.22
739.578	5456.98
739.771	5184.6
739.964	4947.04
740.156	5192.8
740.349	5098.59
740.542	5010.53
740.735	4844.64
740.927	4777.06
741.12	4824.16
741.313	4826.21
741.505	4977.76
741.698	5203.04
741.891	5227.61
742.083	4885.6
742.276	4983.9
742.468	5145.69
742.661	5133.4
742.854	5043.29
743.046	4904.03
743.239	5592.15
743.431	5082.21
743.624	5037.15
743.816	4752.48
744.009	5250.14
744.201	5264.47
744.393	4871.26
744.586	4555.88
744.778	5309.53
744.971	5016.67
745.163	4940.9
745.355	4725.86
745.548	5223.51
745.74	4858.98
745.932	4942.94
746.125	4842.59
746.317	5450.84
746.509	5207.13
746.702	4752.48
746.894	4836.45
747.086	5229.66
747.278	5413.98
747.471	4969.57
747.663	4826.21
747.855	5162.08
748.047	5510.23
748.239	4959.33
748.431	4834.4
748.623	5448.79
748.815	5526.61
749.008	4693.09
749.2	4674.66
749.392	5256.28
749.584	5137.5
749.776	4940.9
749.968	4920.42
750.16	5518.42
750.352	5071.97
750.544	4875.36
750.736	4732
750.928	5225.56
751.12	4990.05
751.311	4818.02
751.503	4869.22
751.695	5006.43
751.887	5018.72
752.079	4619.36
752.271	4729.95
752.463	5514.33
752.654	5184.6
752.846	4619.36
753.038	4760.67
753.23	4875.36
753.421	5055.58
753.613	4752.48
753.805	4838.5
753.997	5190.75
754.188	5211.23
754.38	4691.04
754.572	4744.29
754.763	4818.02
754.955	5133.4
755.146	4746.34
755.338	4695.14
755.53	5131.36
755.721	5076.06
755.913	4516.97
756.104	4594.79
756.296	4875.36
756.487	5125.21
756.679	4607.08
756.87	4684.9
757.062	4791.39
757.253	5047.39
757.445	4500.58
757.636	4916.32
757.827	4906.08
758.019	5567.57
758.21	4674.66
758.401	4697.19
758.593	5342.3
758.784	5172.32
758.975	4594.79
759.167	4439.14
759.358	5176.41
759.549	5006.43
759.74	4578.4
759.932	4584.55
760.123	5200.99
760.314	4867.17
760.505	4789.35
760.696	4582.5
760.888	5342.3
761.079	4904.03
761.27	4498.53
761.461	4338.79
761.652	5186.65
761.843	4756.58
762.034	4637.8
762.225	4760.67
762.416	4912.22
762.607	4736.1
762.798	4576.36
762.989	4508.77
763.18	5588.05
763.371	4449.38
763.562	4461.67
763.753	4566.12
763.944	4891.74
764.135	4893.79
764.326	4594.79
764.517	4408.42
764.708	4693.09
764.899	4721.76
765.089	4351.08
765.28	4224.11
765.471	4785.25
765.662	4944.99
765.853	4502.63
766.043	4256.87
766.234	4908.13
766.425	4930.66
766.615	4478.05
766.806	4293.74
766.997	4944.99
767.187	4818.02
767.378	4314.22
767.569	4082.8
767.759	4916.32
767.95	4541.54
768.141	4410.47
768.331	4299.88
768.522	4566.12
768.712	4867.17
768.903	4412.52
769.093	4285.55
769.284	4920.42
769.474	4715.62
769.665	4144.24
769.855	3990.64
770.046	4711.52
770.236	4465.77
770.426	4461.67
770.617	4353.13
770.807	4654.18
770.998	4744.29
771.188	4410.47
771.378	4152.43
771.569	4654.18
771.759	4818.02
771.949	4187.24
772.139	3994.73
772.33	4740.19
772.52	4828.26
772.71	4277.35
772.9	4099.18
773.09	4908.13
773.281	4965.47
773.471	4228.2
773.661	4269.16
773.851	4652.13
774.041	4445.29
774.231	4050.03
774.421	4295.79
774.611	4789.35
774.802	4459.62
774.992	4199.53
775.182	4070.51
775.372	4416.62
775.562	4760.67
775.752	4121.71
775.942	4125.8
776.131	4760.67
776.321	4580.45
776.511	4236.39
776.701	4131.95
776.891	4725.86
777.081	4252.78
777.271	4211.82
777.461	4017.26
777.651	4508.77
777.84	4590.69
778.03	4242.54
778.22	4121.71
778.41	4672.61
778.599	4334.7
778.789	4029.55
778.979	4090.99
779.169	4478.05
779.358	4428.9
779.548	4359.27
779.738	3787.89
779.927	4346.98
780.117	4136.04
780.307	4115.56
780.496	3912.81
780.686	4457.57
780.875	4682.85
781.065	3970.16
781.254	4021.36
781.444	4332.65
781.633	4336.74
781.823	4015.21
782.012	4009.07
782.202	4170.86
782.391	4181.1
782.581	3669.11
782.77	4119.66
782.96	4326.5
783.149	4168.81
783.338	4115.56
783.528	3708.02
783.717	4469.86
783.906	4588.64
784.096	4054.12
784.285	3751.03
784.474	3978.35
784.663	4097.13
784.853	3986.54
785.042	3882.1
785.231	4162.67
785.42	4375.66
785.61	3982.45
785.799	3757.17
785.988	4162.67
786.177	4078.7
786.366	3937.39
786.555	4213.87
786.744	4373.61
786.933	4244.59
787.122	3695.73
787.312	3798.13
787.501	4054.12
787.69	4273.26
787.879	3658.87
788.068	3777.65
788.257	3665.01
788.445	4088.94
788.634	3818.61
788.823	3757.17
789.012	4809.83
789.201	4349.03
789.39	3736.69
789.579	3882.1
789.768	4228.2
789.957	4093.04
790.145	3744.88
790.334	3591.28
790.523	3939.44
790.712	3992.69
790.9	3955.82
791.089	3757.17
791.278	4289.64
791.467	4170.86
791.655	4162.67
791.844	4185.19
792.033	3853.42
792.221	4033.65
792.41	3869.81
792.599	3671.15
792.787	4191.34
792.976	4062.32
793.164	3726.45
793.353	3691.63
793.541	4148.33
793.73	4078.7
793.918	3726.45
794.107	3685.49
794.295	3902.58
794.484	4047.98
794.672	3818.61
794.861	3767.41
795.049	4121.71
795.238	4404.33
795.426	3462.26
795.614	3806.32
795.803	4025.45
795.991	4498.53
796.179	3533.94
796.368	3642.48
796.556	4056.17
796.744	3622
796.932	3640.44
797.121	3622
797.309	3970.16
797.497	4220.01
797.685	3609.72
797.874	3777.65
798.062	3748.98
798.25	4197.48
798.438	3576.95
798.626	3613.81
798.814	4027.5
799.002	4363.37
799.19	3796.08
799.378	3755.12
799.566	4254.83
799.755	4291.69
799.943	3783.79
800.131	3495.03
800.318	4002.93
800.506	4093.04
800.694	3556.47
800.882	3554.42
801.07	4125.8
801.258	3921.01
801.446	3636.34
801.634	3490.93
801.822	3861.62
802.01	3982.45
802.197	3673.2
802.385	3808.37
802.573	3753.07
802.761	3751.03
802.949	3771.51
803.136	3458.17
803.324	3961.97
803.512	4191.34
803.699	3779.7
803.887	3468.41
804.075	4400.23
804.262	3871.86
804.45	3529.84
804.638	3654.77
804.825	3712.11
805.013	3773.55
805.201	3728.5
805.388	3472.5
805.576	4015.21
805.763	4263.02
805.951	3671.15
806.138	3804.27
806.326	4447.33
806.513	4162.67
806.701	3826.8
806.888	3601.52
807.075	4047.98
807.263	4404.33
807.45	3646.58
807.638	3710.07
807.825	4398.18
808.012	4138.09
808.2	3771.51
808.387	3972.21
808.574	4082.8
808.761	4299.88
808.949	3812.46
809.136	3765.36
809.323	3906.67
809.51	4017.26
809.698	3953.77
809.885	3863.66
810.072	4064.36
810.259	4166.76
810.446	3867.76
810.633	3601.52
810.82	4203.63
811.008	4365.42
811.195	3892.34
811.382	3763.31
811.569	4080.75
811.756	3628.15
811.943	3816.56
812.13	3617.91
812.317	3867.76
812.504	3865.71
812.691	3896.43
812.878	3757.17
813.064	4236.39
813.251	4023.41
813.438	3581.04
813.625	3830.9
813.812	3910.77
813.999	3839.09
814.186	3845.23
814.372	3834.99
814.559	4072.56
814.746	4428.9
814.933	3777.65
815.12	3892.34
815.306	3787.89
815.493	3853.42
815.68	3744.88
815.866	3716.21
816.053	4377.7
816.24	4441.19
816.426	3966.06
816.613	3642.48
816.799	4334.7
816.986	4293.74
817.173	3761.27
817.359	3755.12
817.546	4009.07
817.732	3730.55
817.919	3452.02
818.105	3816.56
818.292	3867.76
818.478	4195.43
818.665	3748.98
818.851	3730.55
819.037	4545.64
819.224	4142.19
819.41	3505.27
819.597	3544.18
819.783	4402.28
819.969	4113.52
820.156	3867.76
820.342	3617.91
820.528	4725.86
820.714	4027.5
820.901	3882.1
821.087	3703.92
821.273	4289.64
821.459	3841.14
821.646	3710.07
821.832	3699.83
822.018	3837.04
822.204	4015.21
822.39	3662.96
822.576	3533.94
822.762	4105.32
822.948	3998.83
823.134	3886.19
823.32	3595.38
823.507	3550.32
823.693	4068.46
823.879	3966.06
824.065	3566.71
824.25	3753.07
824.436	3810.42
824.622	3738.74
824.808	3544.18
824.994	3880.05
825.18	3691.63
825.366	3476.6
825.552	3613.81
825.738	3912.81
825.923	4039.79
826.109	3802.22
826.295	3585.14
826.481	3615.86
826.667	3812.46
826.852	3665.01
827.038	3462.26
827.224	4064.36
827.409	4238.44
827.595	3460.21
827.781	3603.57
827.966	4017.26
828.152	4009.07
828.338	3615.86
828.523	3351.67
828.709	3710.07
828.894	4097.13
829.08	3513.46
829.266	3550.32
829.451	3642.48
829.637	3968.11
829.822	3474.55
830.008	3423.35
830.193	3931.25
830.378	4166.76
830.564	3552.37
830.749	3286.14
830.935	3820.66
831.12	3961.97
831.305	3314.81
831.491	3568.76
831.676	3501.17
831.861	3896.43
832.047	3585.14
832.232	3271.8
832.417	4023.41
832.602	3759.22
832.788	3286.14
832.973	3421.3
833.158	3673.2
833.343	3740.79
833.528	3585.14
833.714	3617.91
833.899	3867.76
834.084	4060.27
834.269	3521.65
834.454	3490.93
834.639	3802.22
834.824	3665.01
835.009	3525.75
835.194	3531.89
835.379	3767.41
835.564	4093.04
835.749	3527.8
835.934	3220.6
836.119	3984.49
836.304	3804.27
836.489	3368.06
836.674	3841.14
836.859	3533.94
837.044	3761.27
837.228	3378.3
837.413	3327.1
837.598	3777.65
837.783	3968.11
837.968	3468.41
838.152	3200.12
838.337	3255.42
838.522	3947.63
838.707	3781.74
838.891	3495.03
839.076	3845.23
839.261	3769.46
839.445	3413.11
839.63	3400.82
839.815	3945.58
839.999	3675.25
840.184	3241.08
840.368	3243.13
840.553	3787.89
840.737	3912.81
840.922	3351.67
841.106	3167.35
841.291	3302.52
841.475	3550.32
841.66	3359.86
841.844	3198.07
842.029	4318.31
842.213	3349.62
842.397	3286.14
842.582	3105.92
842.766	3863.66
842.951	3732.59
843.135	3210.36
843.319	3294.33
843.504	3712.11
843.688	3728.5
843.872	2909.31
844.056	3175.55
844.241	3497.08
844.425	3380.34
844.609	3525.75
844.793	2888.83
844.977	3683.44
845.161	3521.65
845.346	2958.46
845.53	3099.77
845.714	3589.24
845.898	3796.08
846.082	2948.22
846.266	3159.16
846.45	3550.32
846.634	3574.9
846.818	3148.92
847.002	3236.99
847.186	3654.77
847.37	3232.89
847.554	3171.45
847.738	3255.42
847.922	3443.83
848.106	3538.04
848.29	2960.51
848.473	3150.97
848.657	3548.28
848.841	3417.21
849.025	3148.92
849.209	2974.85
849.392	3535.99
849.576	3339.38
849.76	2872.45
849.944	3019.9
850.127	3597.43
850.311	3032.19
850.495	2948.22
850.678	3052.67
850.862	3736.69
851.046	3748.98
851.229	3275.9
851.413	2892.93
851.596	3261.56
851.78	3259.51
851.964	3316.86
852.147	3093.63
852.331	4011.12
852.514	3640.44
852.698	3175.55
852.881	2763.9
853.065	3427.45
853.248	3353.72
853.431	3089.53
853.615	3155.07
853.798	3880.05
853.982	3232.89
854.165	3239.03
854.348	3007.61
854.532	3058.81
854.715	3050.62
854.898	3013.76
855.081	2993.28
855.265	3525.75
855.448	3728.5
855.631	2915.45
855.814	2868.35
855.997	3585.14
856.181	3277.94
856.364	2978.94
856.547	2962.56
856.73	3269.75
856.913	3265.66
857.096	2788.48
857.279	3005.56
857.462	3040.38
857.645	3392.63
857.828	3091.58
858.011	3019.9
858.194	3091.58
858.377	3523.7
858.56	2720.9
858.743	2884.73
858.926	2995.32
859.109	3253.37
859.292	2937.98
859.475	2731.14
859.658	3437.69
859.841	3310.71
860.023	2733.18
860.206	2874.49
860.389	3247.23
860.572	3376.25
860.755	2966.65
860.937	2878.59
861.12	3110.01
861.303	3271.8
861.486	3032.19
861.668	2841.73
861.851	3284.09
862.034	3146.87
862.216	3069.05
862.399	2587.78
862.581	3093.63
862.764	3535.99
862.947	2942.08
863.129	2831.49
863.312	2782.34
863.494	3550.32
863.677	3155.07
863.859	2667.65
864.042	3267.7
864.224	3337.34
864.406	2694.27
864.589	2638.98
864.771	3144.83
864.954	2722.95
865.136	2573.44
865.318	2612.35
865.501	3112.06
865.683	2737.28
865.865	2681.99
866.048	2677.89
866.23	3087.48
866.412	2940.03
866.594	2548.87
866.777	2772.1
866.959	3044.48
867.141	2983.04
867.323	2821.25
867.505	2716.8
867.687	2913.41
867.869	3036.28
868.052	2757.76
868.234	2653.31
868.416	2983.04
868.598	3198.07
868.78	2700.42
868.962	2618.5
869.144	3206.27
869.326	3062.91
869.508	2690.18
869.69	2571.4
869.872	2860.16
870.054	3150.97
870.236	2507.91
870.417	2591.88
870.599	2985.09
870.781	3363.96
870.963	2811.01
871.145	2497.67
871.327	2587.78
871.508	3146.87
871.69	2602.11
871.872	2567.3
872.054	2813.06
872.235	3044.48
872.417	2610.31
872.599	2614.4
872.78	3325.05
872.962	2917.5
873.144	2552.96
873.325	2688.13
873.507	3298.42
873.689	2837.63
873.87	2499.72
874.052	2790.53
874.233	2700.42
874.415	3122.3
874.596	2647.17
874.778	2555.01
874.959	2888.83
875.141	3249.27
875.322	2802.82
875.503	2438.28
875.685	3077.24
875.866	2552.96
876.048	2573.44
876.229	2546.82
876.41	2790.53
876.592	3030.14
876.773	2561.16
876.954	2417.8
877.136	3210.36
877.317	2796.67
877.498	2555.01
877.679	2622.59
877.86	2909.31
878.042	2735.23
878.223	2575.49
878.404	2962.56
878.585	2980.99
878.766	3439.73
878.947	3103.87
879.128	2720.9
879.309	2983.04
879.49	3116.16
879.672	2532.48
879.853	2770.05
880.034	2714.75
880.215	2964.61
880.396	2720.9
880.576	2516.1
880.757	2763.9
880.938	3327.1
881.119	2491.52
881.3	2692.23
881.481	2886.78
881.662	3734.64
881.843	2471.04
882.023	2466.95
882.204	2962.56
882.385	2993.28
882.566	2579.59
882.747	2714.75
882.927	2983.04
883.108	3048.57
883.289	2712.71
883.469	2927.74
883.65	2884.73
883.831	3044.48
884.011	2843.78
884.192	2634.88
884.373	3417.21
884.553	3118.2
884.734	2843.78
884.914	3071.1
885.095	3765.36
885.275	3353.72
885.456	3009.66
885.636	2690.18
885.817	2935.93
885.997	3030.14
886.178	2647.17
886.358	2770.05
886.538	3110.01
886.719	4129.9
886.899	2559.11
887.08	2851.97
887.26	3312.76
887.44	2811.01
887.621	2585.73
887.801	2958.46
887.981	3515.51
888.161	3239.03
888.342	2903.17
888.522	2684.03
888.702	3282.04
888.882	3153.02
889.062	2964.61
889.242	2528.39
889.423	3581.04
889.603	3189.88
889.783	2944.13
889.963	2780.29
890.143	3286.14
890.323	3337.34
890.503	2827.39
890.683	2858.11
890.863	3187.83
891.043	3245.18
891.223	2849.92
891.403	2925.69
891.583	3103.87
891.763	3007.61
891.943	2811.01
892.122	2886.78
892.302	3044.48
892.482	3075.2
892.662	2935.93
892.842	2856.06
893.022	3271.8
893.201	3095.68
893.381	2884.73
893.561	2770.05
893.741	3204.22
893.92	3153.02
894.1	3089.53
894.28	2745.47
894.459	3296.38
894.639	3261.56
894.819	2817.15
894.998	2901.12
895.178	3155.07
895.357	3144.83
895.537	2782.34
895.716	2679.94
895.896	2983.04
896.075	3351.67
896.255	2692.23
896.434	2575.49
896.614	3292.28
896.793	3466.36
896.973	2888.83
897.152	2763.9
897.331	3132.54
897.511	3253.37
897.69	2716.8
897.87	2821.25
898.049	3249.27
898.228	2892.93
898.407	2888.83
898.587	2985.09
898.766	2815.1
898.945	3230.84
899.124	2827.39
899.304	2827.39
899.483	3157.11
899.662	3482.74
899.841	2733.18
900.02	2657.41
900.199	3200.12
900.378	3064.96
900.557	2579.59
900.737	2608.26
900.916	3075.2
901.095	3054.72
901.274	2962.56
901.453	2583.68
901.632	2665.6
901.811	2745.47
901.989	2577.54
902.168	2561.16
902.347	3075.2
902.526	2706.56
902.705	2565.25
902.884	2571.4
903.063	3191.93
903.242	3134.59
903.42	2407.56
903.599	2610.31
903.778	3165.31
903.957	3087.48
904.135	2677.89
904.314	2575.49
904.493	2749.57
904.672	2942.08
904.85	2350.21
905.029	2509.96
905.207	2901.12
905.386	3482.74
905.565	2321.54
905.743	2458.76
905.922	2593.92
906.1	2868.35
906.279	2309.26
906.457	2454.66
906.636	2589.83
906.814	2581.64
906.993	2374.79
907.171	2237.58
907.35	2704.51
907.528	2772.1
907.707	2628.74
907.885	2159.75
908.063	3013.76
908.242	2479.24
908.42	2393.22
908.598	2088.07
908.777	2679.94
908.955	2311.3
909.133	2546.82
909.311	2077.83
909.49	2579.59
909.668	2483.33
909.846	2329.74
910.024	2028.68
910.202	2495.62
910.38	2737.28
910.559	2172.04
910.737	2190.47
910.915	2499.72
911.093	2583.68
911.271	2456.71
911.449	2591.88
911.627	2688.13
911.805	3130.49
911.983	2323.59
912.161	2301.06
912.339	2753.66
912.517	2919.55
912.695	2409.61
912.872	2458.76
913.05	2487.43
913.228	2745.47
913.406	2280.58
913.584	2423.94
913.762	2765.95
913.939	2471.04
914.117	2483.33
914.295	2253.96
914.473	2806.91
914.65	2782.34
914.828	2374.79
915.006	2344.07
915.184	2499.72
915.361	2761.86
915.539	2542.72
915.716	2495.62
915.894	2724.99
916.072	2688.13
916.249	2669.7
916.427	2534.53
916.604	2376.84
916.782	2741.38
916.959	2253.96
917.137	2305.16
917.314	2819.2
917.492	2741.38
917.669	2397.32
917.847	2434.18
918.024	2690.18
918.201	2409.61
918.379	2446.47
918.556	2430.09
918.733	2669.7
918.911	2536.58
919.088	2567.3
919.265	2174.09
919.442	2714.75
919.62	2475.14
919.797	2276.49
919.974	2174.09
920.151	2677.89
920.328	2477.19
920.506	2327.69
920.683	2434.18
920.86	2294.92
921.037	2382.98
921.214	2448.52
921.391	2186.38
921.568	2749.57
921.745	2483.33
921.922	2294.92
922.099	2270.34
922.276	2829.44
922.453	2526.34
922.63	2233.48
922.807	2561.16
922.984	2565.25
923.161	2305.16
923.338	2215.05
923.514	2153.61
923.691	2419.85
923.868	2524.29
924.045	2071.69
924.222	2155.66
924.399	2360.45
924.575	2571.4
924.752	2342.02
924.929	2395.27
925.105	2548.87
925.282	2301.06
925.459	2243.72
925.635	2190.47
925.812	2423.94
925.989	2213
926.165	2317.45
926.342	1987.72
926.518	2249.86
926.695	2407.56
926.871	2133.13
927.048	2028.68
927.224	2520.2
927.401	2309.26
927.577	2159.75
927.754	1930.38
927.93	2528.39
928.107	2557.06
928.283	1930.38
928.459	2083.98
928.636	2430.09
928.812	2266.25
928.988	2012.3
929.165	1938.57
929.341	2165.9
929.517	2372.74
929.693	2339.97
929.87	1705.1
930.046	2344.07
930.222	2182.28
930.398	1873.04
930.574	2094.22
930.751	2165.9
930.927	1967.24
931.103	2079.88
931.279	2075.79
931.455	2106.51
931.631	2167.95
931.807	1739.92
931.983	1811.6
932.159	1954.96
932.335	2249.86
932.511	1836.17
932.687	1971.34
932.863	2159.75
933.039	2131.08
933.215	1754.26
933.391	1746.06
933.566	2026.64
933.742	2090.12
933.918	1942.67
934.094	1598.61
934.27	2098.31
934.445	2094.22
934.621	1891.47
934.797	1633.43
934.973	2241.67
935.148	2071.69
935.324	1647.76
935.5	1445.01
935.675	2129.03
935.851	1950.86
936.027	1614.99
936.202	1762.45
936.378	1844.37
936.553	1807.5
936.729	2073.74
936.904	1483.92
937.08	1506.45
937.255	1481.88
937.431	1377.43
937.606	1283.22
937.782	1451.16
937.957	1707.15
938.133	1356.95
938.308	1242.26
938.483	1506.45
938.659	1397.91
938.834	1414.29
939.009	1195.16
939.185	1451.16
939.36	1275.03
939.535	898.2
939.71	1377.43
939.886	1598.61
940.061	1471.64
940.236	1264.79
940.411	1250.46
940.586	1627.28
940.761	1545.36
940.937	1070.23
941.112	1090.71
941.287	1356.95
941.462	1281.18
941.637	1076.38
941.812	1158.3
941.987	1455.25
942.162	1258.65
942.337	1115.29
942.512	1004.7
942.687	1574.03
942.862	1387.67
943.037	963.74
943.212	724.13
943.386	1227.93
943.561	1301.65
943.736	1125.53
943.911	1301.65
944.086	1381.53
944.26	1240.22
944.435	996.51
944.61	1100.95
944.785	1582.23
944.959	1701.01
945.134	1062.04
945.309	849.05
945.483	1016.99
945.658	1393.81
945.833	636.06
946.007	896.16
946.182	1660.05
946.357	1031.32
946.531	914.59
946.706	969.88
946.88	838.81
947.055	1291.41
947.229	969.88
947.404	945.31
947.578	1590.42
947.752	1143.96
947.927	896.16
948.101	857.25
948.276	1342.61
948.45	1279.13
948.624	1219.74
948.799	1016.99
948.973	1330.33
949.147	980.12
949.321	1070.23
949.496	1023.13
949.67	1500.31
949.844	1182.87
950.018	1025.18
950.193	1094.81
950.367	1727.63
950.541	1232.02
950.715	1135.77
950.889	1199.26
951.063	1129.63
951.237	1477.78
951.411	894.11
951.585	908.44
951.759	1361.05
951.933	1254.55
952.107	1070.23
952.281	1051.8
952.455	1684.62
952.629	1488.02
952.803	1014.94
952.977	1051.8
953.151	1524.88
953.325	1420.44
953.499	1270.94
953.672	955.55
953.846	1160.34
954.02	1197.21
954.194	1086.62
954.368	1090.71
954.541	1438.87
954.715	1135.77
954.889	1229.98
955.062	984.22
955.236	1332.37
955.41	1150.11
955.583	1199.26
955.757	926.88
955.93	1223.83
956.104	1176.73
956.278	1025.18
956.451	1211.54
956.625	1408.15
956.798	1760.4
956.972	1313.94
957.145	1041.56
957.319	1381.53
957.492	1395.86
957.665	1234.07
957.839	1021.08
958.012	1461.4
958.185	1250.46
958.359	1182.87
958.532	1465.49
958.705	1440.92
958.879	1420.44
959.052	1094.81
959.225	924.83
959.398	1322.13
959.572	1256.6
959.745	1080.47
959.918	1148.06
960.091	1275.03
960.264	1549.46
960.438	1000.6
960.611	1137.82
960.784	1520.79
960.957	1184.92
961.13	1567.89
961.303	1064.09
961.476	1369.24
961.649	1539.22
961.822	1150.11
961.995	1158.3
962.168	1393.81
962.341	1395.86
962.514	1148.06
962.686	1094.81
962.859	1389.72
963.032	1393.81
963.205	1057.95
963.378	894.11
963.551	1496.21
963.723	1408.15
963.896	1279.13
964.069	1344.66
964.242	1418.39
964.414	1709.2
964.587	1203.35
964.76	1154.2
964.932	1397.91
965.105	1248.41
965.278	1037.47
965.45	1047.71
965.623	1377.43
965.795	1469.59
965.968	961.69
966.14	1111.19
966.313	1289.37
966.485	1313.94
966.658	1094.81
966.83	996.51
967.003	1639.57
967.175	1559.7
967.348	1035.42
967.52	1133.72
967.692	1795.22
967.865	1469.59
968.037	1115.29
968.209	1313.94
968.382	1344.66
968.554	1461.4
968.726	1090.71
968.898	1033.37
969.071	1315.99
969.243	1371.29
969.415	1006.75
969.587	1074.33
969.759	1744.02
969.932	1533.08
970.104	1004.7
970.276	863.39
970.448	1246.36
970.62	1162.39
970.792	1197.21
970.964	1135.77
971.136	1801.36
971.308	1389.72
971.48	1148.06
971.652	1092.76
971.824	1711.25
971.996	1229.98
972.168	1082.52
972.339	1131.67
972.511	1590.42
972.683	1307.8
972.855	1330.33
973.027	1107.1
973.199	1232.02
973.37	1363.09
973.542	1162.39
973.714	1062.04
973.886	1221.78
974.057	1561.75
974.229	920.73
974.401	998.56
974.572	1158.3
974.744	822.43
974.915	943.26
975.087	1010.84
975.259	1643.67
975.43	1016.99
975.602	998.56
975.773	847.01
975.945	1053.85
976.116	1422.48
976.288	951.45
976.459	1180.82
976.63	1127.58
976.802	1356.95
976.973	953.5
977.145	1229.98
977.316	1662.1
977.487	1631.38
977.659	1143.96
977.83	906.4
978.001	1604.75
978.172	1164.44
978.344	941.21
978.515	1016.99
978.686	1082.52
978.857	1471.64
979.028	890.01
979.2	842.91
979.371	1492.12
979.542	1307.8
979.713	1084.57
979.884	562.34
980.055	1008.8
980.226	1141.91
980.397	910.49
980.568	804
980.739	1424.53
980.91	1125.53
981.081	1096.86
981.252	867.49
981.423	1232.02
981.594	1268.89
981.765	804
981.936	1092.76
982.106	1092.76
982.277	1475.73
982.448	951.45
982.619	1021.08
982.79	1049.75
982.96	1340.57
983.131	980.12
983.302	613.54
983.472	1066.14
983.643	1182.87
983.814	978.08
983.984	758.94
984.155	1053.85
984.326	1295.51
984.496	1016.99
984.667	758.94
984.837	990.36
985.008	1348.76
985.178	1082.52
985.349	937.12
985.519	1027.23
985.69	963.74
985.86	902.3
986.031	818.33
986.201	1148.06
986.371	1125.53
986.542	699.55
986.712	660.64
986.882	1115.29
987.053	1189.02
987.223	738.46
987.393	863.39
987.563	906.4
987.734	1135.77
987.904	1037.47
988.074	732.32
988.244	1064.09
988.414	832.67
988.585	677.02
988.755	885.92
988.925	978.08
989.095	1334.42
989.265	699.55
989.435	748.7
989.605	1096.86
989.775	1129.63
989.945	1002.65
990.115	650.4
990.285	992.41
990.455	1066.14
990.625	838.81
990.795	728.22
990.965	1399.96
991.134	724.13
991.304	636.06
991.474	644.26
991.644	980.12
991.814	1229.98
991.984	619.68
992.153	541.86
992.323	890.01
992.493	1006.75
992.662	476.32
992.832	818.33
993.002	959.64
993.171	1023.13
993.341	525.47
993.511	791.71
993.68	767.13
993.85	1082.52
994.019	521.38
994.189	523.43
994.358	928.92
994.528	799.9
994.697	367.78
994.867	521.38
995.036	1010.84
995.206	816.29
995.375	550.05
995.544	785.57
995.714	1062.04
995.883	822.43
996.052	656.54
996.222	283.81
996.391	1289.37
996.56	857.25
996.73	490.66
996.899	390.31
997.068	1176.73
997.237	914.59
997.406	527.52
997.576	427.17
997.745	898.2
997.914	902.3
998.083	279.72
998.252	595.11
998.421	799.9
998.59	742.56
998.759	414.88
998.928	324.77
999.097	1039.51
999.266	957.6
999.435	625.83
999.604	222.38
999.773	1330.33
999.942	836.77
1000.111	330.92
1000.28	314.53
1000.448	500.9
1000.617	558.24
1000.786	652.45
1000.955	251.05
1001.124	914.59
1001.292	1494.16
1001.461	488.61
1001.63	357.54
1001.798	1008.8
1001.967	1016.99
1002.136	347.3
1002.304	445.6
1002.473	855.2
1002.642	867.49
1002.81	418.98
1002.979	443.56
1003.147	887.97
1003.316	1313.94
1003.484	363.69
1003.653	341.16
1003.821	976.03
1003.99	576.67
1004.158	535.71
1004.327	400.55
1004.495	822.43
1004.663	566.43
1004.832	474.28
1005	300.2
1005.168	783.52
1005.337	758.94
1005.505	185.51
1005.673	607.39
1005.842	869.53
1006.01	851.1
1006.178	224.42
1006.346	281.77
1006.514	732.32
1006.683	953.5
1006.851	312.49
1007.019	459.94
1007.187	441.51
1007.355	246.95
1007.523	181.42
1007.691	124.07
1007.859	363.69
1008.027	912.54
1008.195	312.49
1008.363	269.48
1008.531	814.24
1008.699	459.94
1008.867	124.07
1009.035	302.25
1009.203	969.88
1009.37	533.67
1009.538	341.16
1009.706	689.31
1009.874	720.03
1010.042	652.45
1010.209	246.95
1010.377	242.85
1010.545	793.76
1010.713	566.43
1010.88	259.24
1011.048	287.91
1011.216	519.33
1011.383	900.25
1011.551	191.66
1011.718	109.74
1011.886	797.85
1012.054	640.16
1012.221	156.84
1012.389	130.22
1012.556	615.59
1012.724	937.12
1012.891	312.49
1013.058	109.74
1013.226	707.74
1013.393	693.41
1013.561	74.92
1013.728	42.15
1013.895	758.94
1014.063	668.83
1014.23	-9.05
1014.397	152.74
1014.565	730.27
1014.732	570.53
1014.899	107.69
1015.066	50.35
1015.233	543.91
1015.401	648.35
1015.568	230.57
1015.735	261.29
1015.902	586.91
1016.069	666.78
1016.236	93.35
1016.403	128.17
1016.57	287.91
1016.737	730.27
1016.904	197.8
1017.071	66.73
1017.238	451.75
1017.405	693.41
1017.572	156.84
1017.739	404.64
1017.906	543.91
1018.073	720.03
1018.24	68.78
1018.407	173.22
1018.573	769.18
1018.74	445.6
1018.907	117.93
1019.074	-23.38
1019.241	742.56
1019.407	531.62
1019.574	113.83
1019.741	-27.48
1019.907	431.27
1020.074	648.35
1020.241	-68.44
1020.407	-7
1020.574	541.86
1020.74	588.96
1020.907	152.74
1021.073	27.82
1021.24	1037.47
1021.406	775.33
1021.573	17.58
1021.739	54.44
1021.906	763.04
1022.072	418.98
1022.239	33.96
1022.405	91.31
1022.571	511.14
1022.738	308.39
1022.904	74.92
1023.07	199.85
1023.237	427.17
1023.403	693.41
1023.569	-17.24
1023.735	33.96
1023.902	500.9
1024.068	527.52
1024.234	1.19
1024.4	-7
1024.566	468.13
1024.732	627.87
1024.898	52.39
1025.065	-27.48
1025.231	646.3
1025.397	330.92
1025.563	95.4
1025.729	-27.48
1025.895	29.87
1026.061	183.46
1026.227	-271.19
1026.392	42.15
1026.558	720.03
1026.724	441.51
1026.89	-99.16
1027.056	95.4
1027.222	525.47
1027.388	275.62
1027.553	27.82
1027.719	9.39
1027.885	781.47
1028.051	550.05
1028.216	-142.16
1028.382	38.06
1028.548	576.67
1028.713	332.97
1028.879	-127.83
1029.045	210.09
1029.21	728.22
1029.376	609.44
1029.541	81.07
1029.707	76.97
1029.873	431.27
1030.038	527.52
1030.204	15.53
1030.369	91.31
1030.534	605.35
1030.7	345.25
1030.865	-43.86
1031.031	-35.67
1031.196	466.08
1031.361	398.5
1031.527	13.48
1031.692	-31.57
1031.857	23.72
1032.023	443.56
1032.188	-97.11
1032.353	25.77
1032.518	746.66
1032.684	472.23
1032.849	-179.03
1033.014	17.58
1033.179	574.63
1033.344	490.66
1033.509	128.17
1033.674	44.2
1033.839	550.05
1034.004	541.86
1034.17	17.58
1034.335	-101.2
1034.5	279.72
1034.664	218.28
1034.829	-11.09
1034.994	1.19
1035.159	386.21
1035.324	476.32
1035.489	-7
1035.654	-19.29
1035.819	763.04
1035.984	453.8
1036.148	-64.34
1036.313	58.54
1036.478	586.91
1036.643	339.11
1036.807	-58.2
1036.972	-88.92
1037.137	619.68
1037.301	351.4
1037.466	-199.51
1037.631	83.11
1037.795	607.39
1037.96	435.36
1038.124	109.74
1038.289	-183.12
1038.454	476.32
1038.618	492.71
1038.783	-86.87
1038.947	70.83
1039.111	324.77
1039.276	257.19
1039.44	-111.44
1039.605	472.23
1039.769	271.53
1039.933	312.49
1040.098	136.36
1040.262	128.17
1040.426	570.53
1040.591	468.13
1040.755	-95.06
1040.919	-7
1041.083	416.93
1041.248	275.62
1041.412	-195.41
1041.576	-99.16
1041.74	263.33
1041.904	529.57
1042.068	-142.16
1042.232	5.29
1042.397	476.32
1042.561	455.84
1042.725	-230.23
1042.889	29.87
1043.053	507.04
1043.217	472.23
1043.381	27.82
1043.544	-199.51
1043.708	609.44
1043.872	140.46
1044.036	-322.38
1044.2	-160.59
1044.364	570.53
1044.528	701.6
1044.691	2929.79
1044.855	-152.4
1045.019	556.19
1045.183	480.42
1045.346	-101.2
1045.51	-121.68
1045.674	435.36
1045.837	410.79
1046.001	-4.95
1046.165	-21.33
1046.328	947.36
1046.492	447.65
1046.655	115.88
1046.819	-33.62
1046.983	332.97
1047.146	378.02
1047.31	62.63
1047.473	-258.9
1047.636	423.08
1047.8	185.51
1047.963	-113.49
1048.127	-88.92
1048.29	165.03
