Data from Hydrogel_Ink_Intensity_Test_1_USB4F045381__13__00013.txt Node

Date: Mon Jul 31 10:37:57 EDT 2023
User: mmckonesweet
Spectrometer: USB4F04538
Trigger mode: 4
Integration Time (sec): 9.000000E-1
Scans to average: 1
Electric dark correction enabled: true
Nonlinearity correction enabled: false
Boxcar width: 0
XAxis mode: Wavelengths
Number of Pixels in Spectrum: 3648
>>>>>Begin Spectral Data<<<<<
345.52	-920.9
345.736	-920.9
345.952	-920.9
346.168	-992.58
346.384	-947.53
346.6	-157.01
346.816	-185.68
347.032	-240.98
347.248	236.2
347.464	-97.62
347.68	-116.05
347.896	68.27
348.112	385.7
348.328	-44.37
348.544	-95.57
348.76	10.92
348.975	236.2
349.191	-179.54
349.407	6.83
349.623	88.75
349.839	23.21
350.055	12.97
350.27	121.51
350.486	260.77
350.702	455.33
350.918	316.07
351.133	-48.47
351.349	219.82
351.565	434.85
351.781	-48.47
351.996	-19.8
352.212	406.18
352.428	-48.47
352.644	53.93
352.859	-81.24
353.075	305.83
353.291	53.93
353.506	-64.85
353.722	-58.71
353.938	-11.61
354.153	524.96
354.369	199.34
354.584	-138.58
354.8	514.72
355.016	-183.63
355.231	-118.1
355.447	60.07
355.662	121.51
355.878	887.45
356.093	-165.2
356.309	41.64
356.524	-118.1
356.74	275.11
356.955	-87.38
357.171	123.56
357.386	168.62
357.602	-144.72
357.817	19.11
358.033	-54.61
358.248	441
358.464	201.38
358.679	-50.52
358.895	-197.97
359.11	51.88
359.325	414.37
359.541	303.78
359.756	144.04
359.972	-251.22
360.187	139.94
360.402	-64.85
360.618	-75.09
360.833	950.94
361.048	182.95
361.264	31.4
361.479	39.59
361.694	31.4
361.909	293.54
362.125	-136.53
362.34	84.65
362.555	268.97
362.77	125.61
362.986	-116.05
363.201	-66.9
363.416	291.49
363.631	113.32
363.847	-23.89
364.062	-54.61
364.277	234.15
364.492	271.01
364.707	12.97
364.922	-161.11
365.138	354.98
365.353	381.6
365.568	-122.2
365.783	-19.8
365.998	238.25
366.213	727.71
366.428	-146.77
366.643	281.25
366.858	385.7
367.073	252.58
367.288	12.97
367.503	-52.56
367.718	78.51
367.933	420.52
368.148	-193.87
368.363	158.38
368.578	74.41
368.793	512.67
369.008	74.41
369.223	-79.19
369.438	348.84
369.653	535.2
369.868	-62.8
370.083	15.02
370.298	164.52
370.513	457.38
370.728	223.91
370.943	-7.51
371.157	-116.05
371.372	715.42
371.587	-118.1
371.802	-124.24
372.017	232.1
372.232	604.83
372.446	119.46
372.661	-40.28
372.876	400.04
373.091	314.02
373.306	154.28
373.52	-120.15
373.735	-60.76
373.95	602.79
374.165	107.18
374.379	-3.41
374.594	53.93
374.809	172.71
375.023	205.48
375.238	-13.65
375.453	404.13
375.667	-11.61
375.882	76.46
376.097	-17.75
376.311	129.7
376.526	213.67
376.741	2.73
376.955	330.41
377.17	772.77
377.384	756.38
377.599	172.71
377.813	-56.66
378.028	707.23
378.242	371.36
378.457	144.04
378.672	-40.28
378.886	275.11
379.101	193.19
379.315	-60.76
379.53	96.94
379.744	393.89
379.958	336.55
380.173	53.93
380.387	62.12
380.602	373.41
380.816	94.89
381.031	125.61
381.245	62.12
381.459	404.13
381.674	2714.24
381.888	31.4
382.103	336.55
382.317	113.32
382.531	733.86
382.746	152.23
382.96	103.08
383.174	90.79
383.388	615.07
383.603	287.4
383.817	10.92
384.031	373.41
384.246	658.08
384.46	256.68
384.674	570.02
384.888	340.65
385.103	238.25
385.317	-17.75
385.531	160.42
385.745	543.39
385.959	574.11
386.174	64.17
386.388	86.7
386.602	291.49
386.816	111.27
387.03	178.86
387.244	213.67
387.458	377.51
387.672	672.42
387.887	35.5
388.101	-19.8
388.315	725.66
388.529	393.89
388.743	135.85
388.957	88.75
389.171	563.87
389.385	131.75
389.599	201.38
389.813	424.61
390.027	397.99
390.241	1012.38
390.455	244.39
390.669	275.11
390.883	301.73
391.097	813.73
391.311	479.91
391.525	215.72
391.738	490.15
391.952	527.01
392.166	287.4
392.38	199.34
392.594	774.81
392.808	694.94
393.022	320.17
393.236	268.97
393.449	500.39
393.663	549.54
393.877	152.23
394.091	203.43
394.305	326.31
394.518	242.34
394.732	205.48
394.946	252.58
395.16	762.53
395.373	506.53
395.587	189.1
395.801	287.4
396.015	658.08
396.228	580.26
396.442	103.08
396.656	58.03
396.869	801.44
397.083	836.25
397.297	426.66
397.51	301.73
397.724	823.97
397.938	518.82
398.151	131.75
398.365	133.8
398.578	602.79
398.792	862.88
399.005	502.43
399.219	383.65
399.433	518.82
399.646	737.95
399.86	512.67
400.073	463.52
400.287	653.98
400.5	463.52
400.714	559.78
400.927	414.37
401.141	774.81
401.354	1518.23
401.567	668.32
401.781	264.87
401.994	854.69
402.208	1143.45
402.421	461.48
402.635	453.28
402.848	541.35
403.061	901.79
403.275	494.24
403.488	352.93
403.701	1071.77
403.915	750.24
404.128	674.46
404.341	404.13
404.555	647.84
404.768	651.94
404.981	559.78
405.195	375.46
405.408	1008.28
405.621	871.07
405.834	506.53
406.048	404.13
406.261	952.99
406.474	1049.24
406.687	477.86
406.9	621.22
407.114	694.94
407.327	799.39
407.54	451.24
407.753	363.17
407.966	506.53
408.179	901.79
408.392	477.86
408.605	268.97
408.819	701.09
409.032	803.49
409.245	418.47
409.458	690.85
409.671	903.84
409.884	1028.76
410.097	377.51
410.31	740
410.523	801.44
410.736	701.09
410.949	639.65
411.162	645.79
411.375	1198.74
411.588	1018.52
411.801	750.24
412.014	625.31
412.227	838.3
412.44	676.51
412.653	606.88
412.865	809.63
413.078	993.95
413.291	1004.19
413.504	733.86
413.717	576.16
413.93	1061.53
414.143	680.61
414.356	713.38
414.568	592.55
414.781	1069.72
414.994	930.46
415.207	754.34
415.42	787.1
415.632	1161.88
415.845	1243.8
416.058	574.11
416.271	623.27
416.483	877.21
416.696	1288.85
416.909	715.42
417.121	639.65
417.334	1184.41
417.547	1381.01
417.759	676.51
417.972	717.47
418.185	694.94
418.397	1213.08
418.61	733.86
418.823	764.57
419.035	1278.62
419.248	977.56
419.46	819.87
419.673	862.88
419.885	1282.71
420.098	905.88
420.311	828.06
420.523	545.44
420.736	1174.17
420.948	1090.2
421.161	901.79
421.373	733.86
421.586	1077.91
421.798	950.94
422.01	707.23
422.223	871.07
422.435	983.71
422.648	1262.23
422.86	856.73
423.073	852.64
423.285	1368.73
423.497	840.35
423.71	979.61
423.922	828.06
424.134	1311.38
424.347	1544.85
424.559	1174.17
424.771	1346.2
424.984	1092.25
425.196	1270.42
425.408	869.02
425.621	809.63
425.833	1563.28
426.045	1553.04
426.257	1028.76
426.47	975.52
426.682	1348.25
426.894	1428.12
427.106	1000.09
427.318	1028.76
427.531	1170.07
427.743	1440.4
427.955	991.9
428.167	1452.69
428.379	1436.31
428.591	1120.92
428.804	1317.53
429.016	1088.15
429.228	1221.27
429.44	1448.6
429.652	1366.68
429.864	1086.11
430.076	1297.05
430.288	1299.09
430.5	1258.14
430.712	1295
430.924	1733.26
431.136	1557.14
431.348	1014.43
431.56	1170.07
431.772	1460.88
431.984	1421.97
432.196	1186.46
432.408	1295
432.62	1292.95
432.832	1663.63
433.044	1518.23
433.256	1493.65
433.468	1766.03
433.679	1272.47
433.891	1217.18
434.103	1639.06
434.315	1954.44
434.527	1714.83
434.739	1505.94
434.95	1602.19
435.162	1815.18
435.374	1499.8
435.586	1622.67
435.798	1393.3
436.009	1512.08
436.221	1659.54
436.433	1467.03
436.645	1479.32
436.856	1481.36
437.068	1893.01
437.28	1548.95
437.491	1852.05
437.703	1866.38
437.915	1788.56
438.126	1630.87
438.338	1972.88
438.55	1753.74
438.761	2050.7
438.973	1626.77
439.184	1612.43
439.396	1786.51
439.608	2091.66
439.819	1561.23
440.031	1788.56
440.242	2015.88
440.454	2048.65
440.665	1796.75
440.877	1761.94
441.088	1970.83
441.3	1776.27
441.511	1612.43
441.723	1792.66
441.934	1917.58
442.146	1893.01
442.357	1999.5
442.569	2050.7
442.78	2062.99
442.991	2507.4
443.203	2194.06
443.414	1878.67
443.626	2364.04
443.837	1981.07
444.048	1919.63
444.26	1788.56
444.471	2030.22
444.682	2419.33
444.894	1751.7
445.105	1749.65
445.316	2249.35
445.528	2310.79
445.739	2036.36
445.95	2056.84
446.161	2142.86
446.373	2474.63
446.584	2097.8
446.795	2062.99
447.006	2515.59
447.217	2724.48
447.429	1866.38
447.64	2122.38
447.851	2413.19
448.062	2247.3
448.273	1995.4
448.484	2083.47
448.695	2460.29
448.907	2267.78
449.118	2163.34
449.329	2253.45
449.54	2290.31
449.751	2146.95
449.962	2105.99
450.173	2138.76
450.384	2613.89
450.595	2667.14
450.806	2214.54
451.017	2241.16
451.228	2687.62
451.439	2687.62
451.65	2243.21
451.861	2099.85
452.072	2351.75
452.283	2470.53
452.494	2521.73
452.705	2237.06
452.915	3000.96
453.126	2646.66
453.337	2552.45
453.548	2382.47
453.759	2851.46
453.97	3197.56
454.181	2724.48
454.391	2398.85
454.602	2652.8
454.813	2767.49
455.024	2597.51
455.235	2540.16
455.445	2871.93
455.656	2906.75
455.867	2704
456.078	2558.6
456.288	2624.13
456.499	2933.37
456.71	2581.12
456.921	2986.62
457.131	2974.33
457.342	3009.15
457.553	2767.49
457.763	2720.39
457.974	3148.41
458.184	3011.2
458.395	2771.58
458.606	2691.71
458.816	3297.91
459.027	3641.97
459.237	3072.64
459.448	2851.46
459.659	3461.75
459.869	3787.38
460.08	3031.68
460.29	3146.36
460.501	3838.58
460.711	3187.32
460.922	3031.68
461.132	3068.54
461.343	4104.81
461.553	3185.27
461.764	3236.47
461.974	3146.36
462.184	3521.14
462.395	3732.08
462.605	3437.17
462.816	3320.44
463.026	3465.85
463.236	3981.93
463.447	3424.89
463.657	3431.03
463.867	4088.43
464.078	3646.07
464.288	3732.08
464.498	3662.45
464.709	3826.29
464.919	3783.28
465.129	3551.86
465.339	3705.46
465.55	4080.24
465.76	4188.78
465.97	3717.75
466.18	3773.04
466.391	4430.44
466.601	4133.48
466.811	4108.91
467.021	3955.31
467.231	4416.1
467.441	4526.69
467.651	4129.39
467.862	4057.71
468.072	4409.96
468.282	4874.85
468.492	4254.31
468.702	4471.4
468.912	4670.05
469.122	5177.95
469.332	4856.42
469.542	4493.93
469.752	5321.31
469.962	4958.81
470.172	4715.11
470.382	4854.37
470.592	5079.65
470.802	5349.98
471.012	4950.62
471.222	5053.02
471.432	5532.25
471.642	5554.77
471.852	5456.47
472.062	4997.73
472.272	5356.12
472.482	5239.39
472.691	5182.04
472.901	5384.79
473.111	5562.97
473.321	6556.23
473.531	5583.45
473.741	5704.28
473.95	6070.86
474.16	6195.79
474.37	5882.45
474.58	5870.16
474.79	6697.54
474.999	6349.39
475.209	5892.69
475.419	6363.72
475.628	6373.96
475.838	6685.25
476.048	6283.85
476.258	6122.06
476.467	7135.81
476.677	6871.62
476.886	6822.47
477.096	6971.97
477.306	6791.75
477.515	7209.53
477.725	6896.19
477.935	6937.15
478.144	7666.23
478.354	7160.38
478.563	7389.75
478.773	7047.74
478.982	7733.81
479.192	7971.38
479.401	7385.66
479.611	7475.77
479.82	7643.7
480.03	7979.57
480.239	7911.99
480.449	7731.76
480.658	8415.79
480.868	8092.21
481.077	8233.52
481.287	8081.97
481.496	8593.96
481.705	8880.68
481.915	8401.45
482.124	8608.3
482.333	8688.17
482.543	9189.92
482.752	8432.17
482.961	8585.77
483.171	9275.93
483.38	8960.55
483.589	8978.98
483.799	8841.76
484.008	9298.46
484.217	9525.79
484.426	9280.03
484.636	9030.18
484.845	9536.03
485.054	9269.79
485.263	9812.5
485.472	9484.83
485.682	10193.42
485.891	9708.05
486.1	9513.5
486.309	9826.84
486.518	9990.67
486.727	10578.44
486.936	10174.99
487.146	10005.01
487.355	10723.85
487.564	10201.61
487.773	10408.46
487.982	10463.75
488.191	10404.36
488.4	10781.19
488.609	10584.59
488.818	10682.89
489.027	11454.97
489.236	11373.05
489.445	10881.54
489.654	10936.84
489.863	11477.5
490.072	11301.37
490.281	11280.89
490.49	11194.88
490.698	11821.56
490.907	11694.58
491.116	11741.69
491.325	11330.05
491.534	12237.3
491.743	11964.92
491.952	11956.72
492.16	11583.99
492.369	11778.55
492.578	12374.51
492.787	11919.86
492.996	11876.85
493.204	12061.17
493.413	12669.42
493.622	11917.81
493.831	11979.25
494.039	12753.38
494.248	12315.12
494.457	12452.33
494.665	12419.57
494.874	12833.25
495.083	13175.27
495.291	12902.89
495.5	12677.61
495.709	13285.86
495.917	13089.25
496.126	12931.56
496.335	13054.44
496.543	13394.4
496.752	13363.68
496.96	13341.15
497.169	13144.55
497.377	13599.2
497.586	14037.46
497.794	13644.25
498.003	13218.27
498.211	13679.07
498.42	14285.26
498.628	13756.89
498.837	13640.15
499.045	14346.7
499.254	14070.23
499.462	13732.31
499.671	14121.43
499.879	14633.42
500.087	14514.64
500.296	13914.58
500.504	14127.57
500.713	14631.37
500.921	15079.88
501.129	14305.74
501.338	14445.01
501.546	14750.15
501.754	14844.36
501.962	14821.83
502.171	14412.24
502.379	15124.93
502.587	15262.15
502.795	14692.81
503.004	14686.67
503.212	15219.14
503.42	15417.79
503.628	15129.03
503.837	15143.36
504.045	15421.89
504.253	15835.58
504.461	15421.89
504.669	15081.92
504.877	15270.34
505.085	15856.06
505.294	15294.91
505.502	15675.84
505.71	15817.15
505.918	16126.39
506.126	15385.02
506.334	15413.7
506.542	15794.62
506.75	16155.06
506.958	16085.43
507.166	15892.92
507.374	15907.26
507.582	16867.75
507.79	16153.01
507.998	16069.05
508.206	16388.53
508.414	16329.14
508.622	16327.09
508.83	16163.25
509.037	16980.39
509.245	16165.3
509.453	16239.03
509.661	16544.17
509.869	16746.92
510.077	16499.12
510.285	16896.42
510.492	16415.15
510.7	17609.12
510.908	16857.51
511.116	16595.37
511.324	16759.21
511.531	16990.63
511.739	17166.76
511.947	16800.17
512.155	16761.26
512.362	17197.48
512.57	16894.38
512.778	16957.86
512.985	16921
513.193	17158.56
513.401	17686.94
513.608	17308.07
513.816	17525.15
514.024	17756.57
514.231	17672.6
514.439	17193.38
514.646	17576.35
514.854	18031
515.061	17885.59
515.269	17263.01
515.477	17656.22
515.684	17719.71
515.892	17955.22
516.099	17619.36
516.307	17775
516.514	18287
516.722	18649.49
516.929	17973.66
517.136	17883.55
517.344	18665.87
517.551	18327.95
517.759	18200.98
517.966	18092.44
518.173	18338.19
518.381	18483.6
518.588	18309.52
518.796	18272.66
519.003	18672.01
519.21	18620.81
519.418	18698.64
519.625	18712.97
519.832	18889.1
520.039	18911.63
520.247	18731.4
520.454	18739.6
520.661	19495.3
520.868	19149.19
521.076	19022.22
521.283	18893.19
521.49	19667.33
521.697	19169.67
521.904	19141
522.112	19126.66
522.319	19638.65
522.526	19327.36
522.733	19399.04
522.94	19325.32
523.147	19304.84
523.354	19825.02
523.561	19390.85
523.768	19763.58
523.975	20203.89
524.183	19798.4
524.39	19853.69
524.597	19876.22
524.804	19990.91
525.011	19896.7
525.218	19771.77
525.425	20035.96
525.632	20269.43
525.838	20111.74
526.045	20218.23
526.252	19927.42
526.459	21428.58
526.666	21315.94
526.873	20142.46
527.08	20277.62
527.287	20810.09
527.494	20547.95
527.701	20349.3
527.907	20433.27
528.114	21061.99
528.321	20822.38
528.528	20599.15
528.735	20676.98
528.941	20851.05
529.148	20732.27
529.355	20935.02
529.562	20625.78
529.768	21684.58
529.975	20775.28
530.182	21053.8
530.388	21160.3
530.595	21410.15
530.802	21088.62
531.008	21393.76
531.215	21320.04
531.422	22319.45
531.628	22178.14
531.835	21363.04
532.042	21508.45
532.248	21743.97
532.455	22171.99
532.661	21694.82
532.868	21827.93
533.074	22073.69
533.281	22223.19
533.487	22128.99
533.694	22026.59
533.9	21959
534.107	22335.83
534.313	22200.66
534.52	22296.92
534.726	22548.82
534.933	22954.32
535.139	22167.9
535.345	21887.32
535.552	22532.43
535.758	22358.36
535.965	22550.87
536.171	22550.87
536.377	23050.57
536.584	23085.39
536.79	22358.36
536.996	22716.75
537.203	23073.1
537.409	23026
537.615	23081.29
537.821	22788.43
538.028	23728.45
538.234	23472.45
538.44	22874.45
538.646	23128.39
538.853	23619.91
539.059	23341.38
539.265	23296.33
539.471	22683.98
539.677	23707.97
539.883	23626.05
540.09	22968.65
540.296	23935.29
540.502	23662.91
540.708	23587.14
540.914	23691.59
541.12	23787.84
541.326	24150.33
541.532	24068.41
541.738	23955.77
541.944	24011.07
542.15	24414.52
542.356	24754.48
542.562	24205.63
542.768	24193.34
542.974	25112.88
543.18	25164.07
543.386	24310.07
543.592	24197.43
543.798	24838.45
544.004	25016.62
544.21	24299.83
544.415	25008.43
544.621	25110.83
544.827	25004.33
545.033	24572.21
545.239	24887.6
545.445	25080.11
545.651	24979.76
545.856	25143.59
546.062	25209.13
546.268	25116.97
546.474	25336.1
546.679	24797.49
546.885	25286.95
547.091	25026.86
547.297	25829.66
547.502	25215.27
547.708	25033
547.914	25493.8
548.119	25727.27
548.325	25078.06
548.531	24891.69
548.736	26110.24
548.942	25338.15
549.147	25129.26
549.353	25850.14
549.559	26183.96
549.764	25708.83
549.97	25377.06
550.175	25647.4
550.381	26235.16
550.586	25626.92
550.792	25700.64
550.997	26130.72
551.203	25925.92
551.408	26376.47
551.614	25430.31
551.819	25839.9
552.025	26431.77
552.23	26794.26
552.435	26255.64
552.641	26743.06
552.846	26446.1
553.052	27001.1
553.257	26456.34
553.462	26376.47
553.668	26648.85
553.873	27031.82
554.078	26738.96
554.283	26542.36
554.489	27224.33
554.694	27154.7
554.899	26714.39
555.105	26753.3
555.31	26867.98
555.515	27396.36
555.72	27156.75
555.925	26882.32
556.131	27789.57
556.336	27197.71
556.541	27412.74
556.746	27205.9
556.951	27719.94
557.156	28096.77
557.361	27244.81
557.567	27463.94
557.772	28299.51
557.977	27672.84
558.182	27609.35
558.387	27515.14
558.592	27394.31
558.797	28000.51
559.002	27554.05
559.207	27885.83
559.412	27977.98
559.617	28080.38
559.822	27734.28
560.027	27642.12
560.232	28102.91
560.437	28369.15
560.642	27617.54
560.847	27746.56
561.051	28383.48
561.256	28399.87
561.461	28186.88
561.666	27977.98
561.871	28154.11
562.076	28780.79
562.281	28184.83
562.485	27877.63
562.69	28504.31
562.895	28334.33
563.1	28352.76
563.305	28059.9
563.509	28743.92
563.714	28889.33
563.919	28334.33
564.123	28309.75
564.328	28616.95
564.533	29247.72
564.737	27939.07
564.942	28213.5
565.147	29210.86
565.351	29423.85
565.556	28614.9
565.761	28629.24
565.965	28934.39
566.17	28987.63
566.374	29018.35
566.579	29022.45
566.784	28885.23
566.988	29096.17
567.193	28678.39
567.397	28680.44
567.602	29413.61
567.806	29260.01
568.011	29323.5
568.215	29208.81
568.42	29569.26
568.624	29391.08
568.828	29440.23
569.033	29382.89
569.237	29759.72
569.442	29829.35
569.646	28831.99
569.85	29180.14
570.055	29782.24
570.259	29599.97
570.463	29536.49
570.668	29511.91
570.872	29663.46
571.076	29712.61
571.281	29792.48
571.485	30019.81
571.689	30163.17
571.893	30040.29
572.098	30038.24
572.302	30140.64
572.506	30296.28
572.71	30077.15
572.914	30025.95
573.119	29757.67
573.323	30318.81
573.527	30550.23
573.731	30175.45
573.935	30308.57
574.139	30537.94
574.343	30152.93
574.547	30036.19
574.751	30345.44
574.955	30857.43
575.159	31002.83
575.364	30341.34
575.568	30216.41
575.772	30533.85
575.976	31039.7
576.18	30349.53
576.383	30621.91
576.587	31181.01
576.791	31066.32
576.995	30666.97
577.199	30617.82
577.403	31250.64
577.607	31944.9
577.811	30896.34
578.015	30779.6
578.219	31232.21
578.422	31279.31
578.626	30988.5
578.83	31097.04
579.034	31369.42
579.238	31381.71
579.442	31256.78
579.645	31244.49
579.849	31424.72
580.053	32186.56
580.257	31310.03
580.46	31658.18
580.664	32037.06
580.868	31815.88
581.071	31609.03
581.275	31494.35
581.479	31430.86
581.682	31920.32
581.886	31578.31
582.09	31905.99
582.293	32225.47
582.497	32014.53
582.7	32108.74
582.904	32088.26
583.107	32071.87
583.311	32014.53
583.515	32094.4
583.718	32135.36
583.922	32381.12
584.125	32805.05
584.329	31949
584.532	32528.57
584.735	32932.02
584.939	32184.51
585.142	31914.18
585.346	32184.51
585.549	32694.46
585.753	32479.42
585.956	32350.4
586.159	32825.53
586.363	33306.8
586.566	33013.94
586.769	32608.44
586.973	32403.64
587.176	33054.9
587.379	32911.54
587.582	33089.71
587.786	33085.62
587.989	33124.53
588.192	33550.51
588.395	33095.86
588.599	33503.4
588.802	33368.24
589.005	33134.77
589.208	33304.75
589.411	33130.67
589.615	33257.65
589.818	33882.28
590.021	33761.45
590.224	33697.96
590.427	33806.5
590.63	33630.38
590.833	33345.71
591.036	33362.09
591.239	33663.14
591.442	33472.68
591.645	34115.75
591.848	34158.75
592.051	34140.32
592.254	33919.14
592.457	33605.8
592.66	34222.24
592.863	34132.13
593.066	34220.19
593.269	34048.16
593.472	34406.56
593.675	34369.69
593.878	34359.45
594.081	34207.9
594.284	33986.72
594.486	34642.07
594.689	34793.62
594.892	34312.35
595.095	34697.37
595.298	34549.92
595.5	34779.29
595.703	34730.14
595.906	34396.32
596.109	35031.19
596.311	35262.61
596.514	34226.34
596.717	34977.94
596.92	35440.78
597.122	35172.5
597.325	34644.12
597.528	35104.92
597.73	35600.52
597.933	35057.81
598.136	35178.64
598.338	34392.22
598.541	35453.07
598.743	36010.12
598.946	34986.13
599.148	35555.47
599.351	35356.82
599.554	35797.13
599.756	35223.7
599.959	35424.4
600.161	35838.09
600.363	36444.29
600.566	35686.54
600.768	35295.38
600.971	36239.49
601.173	35496.08
601.376	35451.02
601.578	35655.82
601.78	35633.29
601.983	36155.52
602.185	35651.72
602.388	35625.1
602.59	36159.62
602.792	36024.45
602.995	35879.05
603.197	35205.27
603.399	36585.6
603.601	36466.81
603.804	35862.66
604.006	35614.86
604.208	35707.02
604.41	35713.16
604.613	36151.43
604.815	36034.69
605.017	36714.62
605.219	36155.52
605.421	35920.01
605.623	36001.93
605.826	37099.64
606.028	36444.29
606.23	36339.84
606.432	35858.57
606.634	37056.63
606.836	36470.91
607.038	36354.18
607.24	36010.12
607.442	36667.52
607.644	36831.35
607.846	35946.63
608.048	35917.96
608.25	36386.94
608.452	36196.48
608.654	36192.39
608.856	36122.76
609.058	36851.83
609.26	37159.03
609.462	36558.97
609.664	36763.77
609.866	37329.01
610.067	37199.99
610.269	36614.27
610.471	36647.04
610.673	37044.34
610.875	36696.19
611.077	36487.29
611.278	36806.78
611.48	36513.92
611.682	37257.33
611.884	36817.02
612.085	36499.58
612.287	36982.9
612.489	37236.85
612.69	36636.8
612.892	36757.63
613.094	37214.32
613.295	37075.06
613.497	36427.9
613.699	36970.61
613.9	37324.91
614.102	37142.64
614.304	36755.58
614.505	36307.07
614.707	37021.81
614.908	36745.34
615.11	36890.74
615.311	37027.96
615.513	37406.83
615.714	37539.95
615.916	36784.25
616.117	36915.32
616.319	37093.49
616.52	37331.06
616.722	37232.75
616.923	37189.75
617.124	37376.11
617.326	37417.07
617.527	37011.57
617.729	36987
617.93	37304.43
618.131	37800.04
618.333	36814.97
618.534	37353.58
618.735	37064.82
618.937	37423.22
619.138	37210.23
619.339	37341.3
619.54	37455.98
619.742	37408.88
619.943	37367.92
620.144	37199.99
620.345	37527.66
620.546	37476.46
620.748	37286
620.949	37316.72
621.15	37425.26
621.351	37296.24
621.552	37236.85
621.753	36874.36
621.954	37169.27
622.155	37587.05
622.356	37054.58
622.558	37484.65
622.759	37365.87
622.96	37646.44
623.161	37128.31
623.362	37156.98
623.563	37886.06
623.764	37746.79
623.965	36903.03
624.166	38207.59
624.366	37146.74
624.567	37496.94
624.768	37038.2
624.969	37242.99
625.17	37451.89
625.371	37797.99
625.572	37650.54
625.773	37335.15
625.973	37900.39
626.174	37726.31
626.375	37492.85
626.576	37949.54
626.777	37683.31
626.977	37970.02
627.178	37380.21
627.379	37603.44
627.58	37369.97
627.78	37691.5
627.981	37640.3
628.182	37845.1
628.382	38178.92
628.583	37496.94
628.784	37650.54
628.984	37822.57
629.185	38273.12
629.386	38080.61
629.586	38033.51
629.787	37820.52
629.987	38127.72
630.188	38256.74
630.388	38021.22
630.589	37578.86
630.79	38766.68
630.99	38238.31
631.191	37922.92
631.391	38031.46
631.591	37886.06
631.792	38682.72
631.992	37877.86
632.193	38355.04
632.393	38719.58
632.594	38105.19
632.794	37922.92
632.994	38185.06
633.195	38488.16
633.395	38447.2
633.595	37564.53
633.796	38361.19
633.996	38344.8
634.196	38410.34
634.397	38115.43
634.597	38328.42
634.797	38326.37
634.997	38912.09
635.198	38568.03
635.398	38240.36
635.598	38678.62
635.798	38697.05
635.998	38629.47
636.199	38211.68
636.399	38539.36
636.599	37982.31
636.799	38252.64
636.999	38531.17
637.199	38844.51
637.399	38715.48
637.599	38334.56
637.799	38039.65
637.999	38850.65
638.199	39268.44
638.399	38858.84
638.599	38439.01
638.799	38881.37
638.999	39718.99
639.199	38893.66
639.399	39409.75
639.599	39780.43
639.799	38516.83
639.999	38979.67
640.199	38877.27
640.399	39100.5
640.599	37877.86
640.799	38838.36
640.998	39311.44
641.198	39284.82
641.398	39229.52
641.598	39059.54
641.798	38963.29
641.997	40036.42
642.197	39235.67
642.397	39473.23
642.597	39176.28
642.796	39614.54
642.996	39450.7
643.196	39043.16
643.395	38672.48
643.595	39532.62
643.795	38750.3
643.994	39606.35
644.194	39258.2
644.394	39583.82
644.593	39370.83
644.793	39237.72
644.992	39598.16
645.192	39587.92
645.392	38977.62
645.591	39546.96
645.791	39204.95
645.99	39860.3
646.19	39643.21
646.389	39706.7
646.589	38918.23
646.788	40061
646.987	39809.1
647.187	39815.24
647.386	39671.89
647.586	39575.63
647.785	40120.39
647.984	39571.53
648.184	39604.3
648.383	39661.65
648.582	39565.39
648.782	39573.58
648.981	39729.23
649.18	39434.32
649.38	40204.36
649.579	39850.06
649.778	39471.18
649.977	40259.65
650.177	40042.57
650.376	39516.24
650.575	39727.18
650.774	40091.72
650.973	39911.5
651.173	39260.24
651.372	39727.18
651.571	39827.53
651.77	40032.33
651.969	40142.92
652.168	39966.79
652.367	39854.15
652.566	40323.14
652.765	39940.17
652.964	40196.17
653.163	40472.64
653.362	40087.62
653.561	39645.26
653.76	40222.79
653.959	39841.87
654.158	40190.02
654.357	40001.61
654.556	39989.32
654.755	40394.82
654.954	40286.28
655.153	39925.83
655.352	40065.1
655.551	40175.69
655.749	40175.69
655.948	39940.17
656.147	40181.83
656.346	40400.96
656.545	40349.76
656.743	40355.91
656.942	40079.43
657.141	40661.05
657.34	39907.4
657.538	40409.15
657.737	39956.55
657.936	40607.81
658.135	40685.63
658.333	39913.55
658.532	40300.61
658.731	40634.43
658.929	40611.9
659.128	39946.31
659.326	40104.01
659.525	41013.3
659.724	40677.44
659.922	40212.55
660.121	39974.98
660.319	40304.71
660.518	40331.33
660.716	40087.62
660.915	40583.23
661.113	40765.5
661.312	40169.54
661.51	40734.78
661.709	40417.35
661.907	40745.02
662.105	41127.99
662.304	40532.03
662.502	40550.46
662.701	41017.4
662.899	40785.98
663.097	40869.95
663.296	40251.46
663.494	41158.71
663.692	40826.94
663.891	40388.67
664.089	40286.28
664.287	40984.63
664.485	40751.16
664.684	40521.79
664.882	40656.96
665.08	40513.6
665.278	41089.08
665.476	40296.52
665.675	40796.22
665.873	40982.59
666.071	40951.87
666.269	40357.95
666.467	40095.81
666.665	40638.53
666.863	40366.15
667.061	40466.5
667.259	40796.22
667.457	41046.07
667.655	40575.04
667.853	40317
668.051	40427.59
668.249	40181.83
668.447	40667.2
668.645	39845.96
668.843	40986.68
669.041	40826.94
669.239	40351.81
669.437	40298.56
669.635	41410.61
669.833	40552.51
670.031	40751.16
670.229	40269.89
670.426	40579.14
670.624	40237.12
670.822	40464.45
671.02	40329.28
671.218	40427.59
671.415	40167.49
671.613	40501.31
671.811	40411.2
672.009	40536.13
672.206	40806.46
672.404	40802.36
672.602	40384.58
672.799	40259.65
672.997	40419.39
673.195	40503.36
673.392	40611.9
673.59	40034.38
673.788	40249.41
673.985	39786.57
674.183	40122.44
674.38	40255.56
674.578	40534.08
674.775	40247.36
674.973	39970.89
675.17	40050.76
675.368	40859.71
675.565	40654.91
675.763	40245.32
675.96	39868.49
676.158	40493.12
676.355	40153.16
676.553	39884.87
676.75	39921.74
676.947	40523.84
677.145	40310.85
677.342	40106.05
677.539	40054.86
677.737	40183.88
677.934	40456.26
678.131	39948.36
678.329	40347.71
678.526	40192.07
678.723	40333.38
678.92	40149.06
679.118	39645.26
679.315	39530.58
679.512	40618.05
679.709	40144.97
679.906	39909.45
680.104	40101.96
680.301	39903.31
680.498	39413.84
680.695	39610.45
680.892	39565.39
681.089	39692.36
681.286	40112.2
681.483	38903.9
681.68	39977.03
681.877	39940.17
682.075	39456.85
682.272	40046.66
682.469	39430.22
682.665	39487.57
682.862	39188.56
683.059	39055.45
683.256	39876.68
683.453	39848.01
683.65	39684.17
683.847	39741.52
684.044	39802.96
684.241	39356.5
684.438	39690.32
684.635	38991.96
684.831	40163.4
685.028	39929.93
685.225	39391.31
685.422	38854.75
685.619	39616.59
685.815	39731.28
686.012	39475.28
686.209	39026.78
686.405	39217.24
686.602	39874.63
686.799	38721.63
686.996	39354.45
687.192	38862.94
687.389	39362.64
687.586	38996.06
687.782	39186.52
687.979	39426.13
688.175	39354.45
688.372	38905.94
688.568	39211.09
688.765	38318.18
688.962	39694.41
689.158	39067.73
689.355	38875.23
689.551	38989.91
689.748	39014.49
689.944	39358.55
690.14	38561.89
690.337	39069.78
690.533	38905.94
690.73	38692.96
690.926	39163.99
691.123	38979.67
691.319	38563.93
691.515	38723.68
691.712	38555.74
691.908	38907.99
692.104	38692.96
692.301	38719.58
692.497	38215.78
692.693	39127.13
692.889	39000.15
693.086	38449.25
693.282	38121.57
693.478	38451.3
693.674	39190.61
693.87	38490.21
694.067	38338.66
694.263	38762.59
694.459	38697.05
694.655	38430.82
694.851	38318.18
695.047	38742.11
695.243	38951
695.439	38250.6
695.635	37992.55
695.831	38586.46
696.027	38418.53
696.224	38084.71
696.42	38322.27
696.615	38928.47
696.811	38252.64
697.007	38133.86
697.203	37886.06
697.399	38160.48
697.595	38649.95
697.791	37892.2
697.987	38072.42
698.183	38017.13
698.379	37828.71
698.575	37886.06
698.77	38023.27
698.966	38008.93
699.162	38127.72
699.358	37812.33
699.554	37673.07
699.749	38641.76
699.945	38424.67
700.141	37916.78
700.337	37552.24
700.532	37855.34
700.728	37564.53
700.924	37455.98
701.119	37660.78
701.315	37752.94
701.511	37511.28
701.706	38281.31
701.902	37552.24
702.097	38000.74
702.293	37978.22
702.489	37724.27
702.684	37875.82
702.88	37742.7
703.075	37433.46
703.271	37300.34
703.466	37658.73
703.662	37345.39
703.857	37785.71
704.053	37433.46
704.248	37605.48
704.443	37986.41
704.639	37740.65
704.834	37564.53
705.03	37363.82
705.225	37574.77
705.42	37585.01
705.616	37329.01
705.811	37453.94
706.006	37367.92
706.202	37300.34
706.397	37154.93
706.592	36989.05
706.787	37466.22
706.983	37351.54
707.178	37505.13
707.373	37247.09
707.568	37429.36
707.763	37314.67
707.959	37269.62
708.154	37455.98
708.349	37109.88
708.544	37513.33
708.739	37329.01
708.934	36585.6
709.129	37122.16
709.324	37124.21
709.519	37199.99
709.714	37015.67
709.909	37922.92
710.104	37171.32
710.299	37007.48
710.494	36921.46
710.689	37267.57
710.884	36978.81
711.079	36872.31
711.274	36933.75
711.469	37466.22
711.664	37445.74
711.859	37161.08
712.054	37242.99
712.249	36921.46
712.443	37419.12
712.638	36503.68
712.833	36655.23
713.028	37214.32
713.223	36876.41
713.417	36995.19
713.612	36794.49
713.807	37113.97
714.002	37458.03
714.196	37388.4
714.391	36399.23
714.586	36712.57
714.78	36819.06
714.975	36597.88
715.17	36124.8
715.364	36808.82
715.559	36913.27
715.754	36440.19
715.948	36040.84
716.143	36888.7
716.337	36610.17
716.532	36546.68
716.726	36403.33
716.921	36460.67
717.115	36921.46
717.31	36366.46
717.504	36481.15
717.699	36339.84
717.893	36409.47
718.088	36108.42
718.282	36290.69
718.476	36094.08
718.671	36190.34
718.865	35641.48
719.059	35604.62
719.254	36042.88
719.448	35917.96
719.642	37546.09
719.837	35520.65
720.031	36145.28
720.225	36026.5
720.419	35754.12
720.614	35711.11
720.808	36262.02
721.002	35786.89
721.196	35606.67
721.39	35420.3
721.585	36067.46
721.779	35758.22
721.973	35588.24
722.167	34928.79
722.361	35600.52
722.555	35729.55
722.749	35547.28
722.943	35553.42
723.137	34812.06
723.331	35713.16
723.525	35227.79
723.719	35545.23
723.913	35883.14
724.107	35459.21
724.301	35250.32
724.495	35041.43
724.689	35897.48
724.883	35377.29
725.077	35602.57
725.271	35340.43
725.465	35752.07
725.659	35344.53
725.853	35278.99
726.046	35371.15
726.24	34971.8
726.434	35180.69
726.628	35166.35
726.822	35086.48
727.015	35627.15
727.209	35264.66
727.403	35289.23
727.596	34947.22
727.79	35563.66
727.984	35545.23
728.177	35389.58
728.371	35350.67
728.565	35580.04
728.758	35379.34
728.952	34924.69
729.146	35090.58
729.339	35578
729.533	35559.56
729.726	35115.15
729.92	34969.75
730.113	35459.21
730.307	35426.45
730.5	34873.49
730.694	35121.3
730.887	34846.87
731.081	35442.83
731.274	35453.07
731.468	34971.8
731.661	34863.25
731.854	35166.35
732.048	35231.89
732.241	35006.61
732.435	35049.62
732.628	35457.17
732.821	35219.6
733.014	34664.6
733.208	34885.78
733.401	35451.02
733.594	35035.28
733.788	34799.77
733.981	35276.94
734.174	35260.56
734.367	34723.99
734.56	35217.55
734.754	35111.06
734.947	34898.07
735.14	34953.37
735.333	35192.98
735.526	35412.11
735.719	34738.33
735.912	34795.67
736.105	34680.99
736.298	35100.82
736.491	34640.03
736.684	34726.04
736.877	34635.93
737.07	35158.16
737.263	35020.95
737.456	34533.53
737.649	34558.11
737.842	34392.22
738.035	34967.7
738.228	34545.82
738.421	34736.28
738.614	35311.76
738.807	34760.86
739	34549.92
739.192	34623.64
739.385	34812.06
739.578	34525.34
739.771	34502.81
739.964	34496.67
740.156	34889.88
740.349	34523.29
740.542	34656.41
740.735	34521.24
740.927	34334.88
741.12	34707.61
741.313	34011.3
741.505	34668.7
741.698	34461.85
741.891	34691.23
742.083	34609.31
742.276	34277.54
742.468	34705.56
742.661	34341.02
742.854	34021.54
743.046	34007.2
743.239	34797.72
743.431	34420.89
743.624	34212
743.816	33802.41
744.009	34418.85
744.201	34240.67
744.393	34003.11
744.586	33902.76
744.778	34549.92
744.971	34295.97
745.163	33751.21
745.355	33679.53
745.548	33968.29
745.74	34207.9
745.932	34123.94
746.125	33773.74
746.317	34740.38
746.509	34345.12
746.702	33804.45
746.894	33927.33
747.086	33695.91
747.278	34400.41
747.471	33937.57
747.663	33747.11
747.855	34293.92
748.047	34537.63
748.239	34023.59
748.431	33829.03
748.623	34664.6
748.815	34054.31
749.008	33700.01
749.2	33673.38
749.392	34283.68
749.584	33837.22
749.776	34039.97
749.968	33689.77
750.16	34283.68
750.352	34146.47
750.544	33620.14
750.736	33693.86
750.928	34277.54
751.12	33921.19
751.311	33231.02
751.503	33904.81
751.695	34121.89
751.887	33484.97
752.079	33255.6
752.271	33253.55
752.463	34463.9
752.654	33947.81
752.846	33265.84
753.038	33222.83
753.23	33323.18
753.421	33777.83
753.613	32870.58
753.805	33949.86
753.997	33743.02
754.188	33511.6
754.38	33036.47
754.572	33102
754.763	33382.57
754.955	33405.1
755.146	33247.41
755.338	32970.93
755.53	33317.04
755.721	33134.77
755.913	32725.18
756.104	32485.56
756.296	33134.77
756.487	32884.92
756.679	32821.43
756.87	32395.45
757.062	32817.33
757.253	33153.2
757.445	32929.97
757.636	32733.37
757.827	33032.37
758.019	33274.03
758.21	32417.98
758.401	32770.23
758.593	33294.51
758.784	32868.53
758.975	32170.18
759.167	32221.38
759.358	32780.47
759.549	33134.77
759.74	32467.13
759.932	32393.4
760.123	32485.56
760.314	32264.38
760.505	32329.92
760.696	31903.94
760.888	32530.62
761.079	31916.23
761.27	32071.87
761.461	31879.36
761.652	32716.98
761.843	32049.35
762.034	32129.22
762.225	31977.67
762.416	32172.22
762.607	32012.48
762.798	31822.02
762.989	31707.33
763.18	32602.3
763.371	31760.58
763.562	31592.65
763.753	31420.62
763.944	32051.39
764.135	32118.98
764.326	31570.12
764.517	31441.1
764.708	31291.6
764.899	31461.58
765.089	30908.63
765.28	31193.29
765.471	31430.86
765.662	31715.53
765.853	30820.56
766.043	30591.19
766.234	32071.87
766.425	31332.56
766.615	31211.73
766.806	30914.77
766.997	31187.15
767.187	31000.79
767.378	30755.03
767.569	30529.75
767.759	31125.71
767.95	31256.78
768.141	30968.02
768.331	30720.21
768.522	30269.66
768.712	30894.29
768.903	31004.88
769.093	30560.47
769.284	31316.17
769.474	30908.63
769.665	30146.78
769.855	30423.26
770.046	30968.02
770.236	30361.82
770.426	30167.26
770.617	30167.26
770.807	30443.74
770.998	30527.7
771.188	30394.59
771.378	30384.35
771.569	30447.83
771.759	30570.71
771.949	29833.44
772.139	29862.11
772.33	29970.66
772.52	30744.79
772.71	30007.52
772.9	29747.43
773.09	30159.07
773.281	30245.09
773.471	29532.39
773.661	29729
773.851	30017.76
774.041	29739.24
774.231	29589.74
774.421	29946.08
774.611	29841.64
774.802	29749.48
774.992	29573.35
775.182	29405.42
775.372	29579.5
775.562	29788.39
775.752	29540.58
775.942	29335.79
776.131	30066.91
776.321	29415.66
776.511	29223.15
776.701	29249.77
776.891	29685.99
777.081	28973.3
777.271	28958.96
777.461	29071.6
777.651	29294.83
777.84	29458.67
778.03	28897.52
778.22	28852.47
778.41	29343.98
778.599	29018.35
778.789	28883.19
778.979	28586.23
779.169	28983.54
779.358	28811.51
779.548	29094.13
779.738	28797.17
779.927	28913.91
780.117	28537.08
780.307	28672.25
780.496	28158.2
780.686	29081.84
780.875	29180.14
781.065	28342.52
781.254	28322.04
781.444	28592.37
781.633	28500.22
781.823	28141.82
782.012	28154.11
782.202	28133.63
782.391	28174.59
782.581	28231.93
782.77	28438.78
782.96	28678.39
783.149	27982.08
783.338	27750.66
783.528	27408.65
783.717	28127.49
783.906	28414.2
784.096	28135.68
784.285	27844.87
784.474	27885.83
784.663	28102.91
784.853	27840.77
785.042	27836.67
785.231	27834.63
785.42	27867.39
785.61	28023.04
785.799	27398.41
785.988	27803.91
786.177	27382.02
786.366	27484.42
786.555	27396.36
786.744	27781.38
786.933	27486.47
787.122	27412.74
787.312	27111.69
787.501	27445.51
787.69	27728.13
787.879	27386.12
788.068	26908.94
788.257	27066.64
788.445	26898.7
788.634	27390.22
788.823	26888.46
789.012	27834.63
789.201	27304.2
789.39	26997.01
789.579	26401.05
789.768	26724.63
789.957	27066.64
790.145	26501.4
790.334	26667.28
790.523	26693.91
790.712	27115.79
790.9	26896.66
791.089	26554.65
791.278	27164.94
791.467	26616.08
791.655	26698
791.844	26876.18
792.033	26335.51
792.221	26624.28
792.41	26472.73
792.599	25551.14
792.787	26675.48
792.976	27218.19
793.164	26022.17
793.353	26130.72
793.541	26661.14
793.73	26695.96
793.918	26194.2
794.107	26126.62
794.295	26409.24
794.484	26464.53
794.672	26237.21
794.861	25905.44
795.049	26378.52
795.238	26491.16
795.426	25805.09
795.614	26011.93
795.803	25917.73
795.991	26460.44
796.179	26059.04
796.368	25880.86
796.556	26220.83
796.744	25690.4
796.932	25921.82
797.121	25575.72
797.309	25770.27
797.497	25954.59
797.685	25458.98
797.874	25786.66
798.062	26005.79
798.25	26200.35
798.438	25727.27
798.626	25852.19
798.814	26241.31
799.002	26120.48
799.19	25659.68
799.378	25712.93
799.566	26190.11
799.755	26077.47
799.943	25475.37
800.131	25592.1
800.318	25590.05
800.506	25706.79
800.694	25655.59
800.882	25907.49
801.07	26104.09
801.258	25792.8
801.446	25729.31
801.634	25575.72
801.822	25708.83
802.01	26220.83
802.197	25895.2
802.385	25725.22
802.573	25803.04
802.761	25815.33
802.949	25770.27
803.136	25540.9
803.324	26442.01
803.512	26206.49
803.699	25688.35
803.887	25645.35
804.075	26177.82
804.262	25866.53
804.45	25702.69
804.638	25954.59
804.825	25893.15
805.013	25557.28
805.201	26165.53
805.388	25686.31
805.576	26364.18
805.763	26753.3
805.951	25794.85
806.138	26007.84
806.326	26620.18
806.513	26200.35
806.701	26048.8
806.888	25850.14
807.075	26407.19
807.263	26548.5
807.45	25919.78
807.638	26016.03
807.825	26530.07
808.012	26624.28
808.2	25911.58
808.387	26448.15
808.574	26245.4
808.761	26597.65
808.949	25645.35
809.136	26396.95
809.323	26136.86
809.51	26087.71
809.698	26442.01
809.885	25665.83
810.072	26345.75
810.259	26759.44
810.446	26200.35
810.633	26194.2
810.82	27003.15
811.008	26956.05
811.195	26448.15
811.382	26265.88
811.569	26497.3
811.756	25741.6
811.943	26143
812.13	26253.59
812.317	26095.9
812.504	26532.12
812.691	26194.2
812.878	26087.71
813.064	26579.22
813.251	26452.25
813.438	26136.86
813.625	26251.55
813.812	26251.55
813.999	26691.86
814.186	26282.27
814.372	26360.09
814.559	26587.41
814.746	26454.29
814.933	26118.43
815.12	26384.66
815.306	26255.64
815.493	26100
815.68	26321.18
815.866	26122.52
816.053	26611.99
816.24	26947.86
816.426	26444.06
816.613	26169.63
816.799	26781.97
816.986	26655
817.173	26040.61
817.359	25786.66
817.546	26427.67
817.732	25684.26
817.919	25884.96
818.105	26245.4
818.292	26138.91
818.478	26175.77
818.665	26083.61
818.851	26095.9
819.037	26587.41
819.224	26083.61
819.41	25837.86
819.597	25706.79
819.783	26192.15
819.969	26122.52
820.156	25762.08
820.342	26108.19
820.528	26800.4
820.714	25934.11
820.901	26056.99
821.087	25702.69
821.273	26644.76
821.459	26018.08
821.646	25671.97
821.832	25624.87
822.018	25790.75
822.204	25626.92
822.39	25530.66
822.576	25561.38
822.762	26200.35
822.948	26091.8
823.134	25403.69
823.32	25432.36
823.507	25579.81
823.693	25442.6
823.879	25995.55
824.065	25555.24
824.25	25737.51
824.436	25714.98
824.622	25366.82
824.808	25348.39
824.994	25618.72
825.18	25286.95
825.366	25491.75
825.552	25295.14
825.738	25282.86
825.923	25827.62
826.109	25350.44
826.295	25133.36
826.481	24693.04
826.667	25319.72
826.852	25338.15
827.038	24944.94
827.224	25485.61
827.409	25725.22
827.595	24512.82
827.781	25225.51
827.966	25411.88
828.152	25432.36
828.338	25047.34
828.523	24621.36
828.709	25215.27
828.894	25661.73
829.08	24705.33
829.266	24871.22
829.451	24936.75
829.637	25112.88
829.822	24795.44
830.008	24643.89
830.193	25141.55
830.378	25006.38
830.564	24723.76
830.749	24363.32
830.935	24838.45
831.12	24758.58
831.305	24131.9
831.491	24475.96
831.676	24523.06
831.861	25145.64
832.047	24772.91
832.232	24484.15
832.417	24908.08
832.602	24774.96
832.788	24248.63
832.973	24265.02
833.158	24242.49
833.343	24367.41
833.528	24213.82
833.714	24080.7
833.899	24301.88
834.084	24688.95
834.269	24170.81
834.454	23818.56
834.639	24441.14
834.824	24420.66
835.009	24025.4
835.194	24103.23
835.379	24512.82
835.564	24449.33
835.749	23998.78
835.934	23621.95
836.119	23945.53
836.304	23611.71
836.489	23519.56
836.674	24338.74
836.859	23746.88
837.044	24115.51
837.228	23789.89
837.413	23716.16
837.598	24066.36
837.783	24064.32
837.968	23343.43
838.152	23308.61
838.337	23300.42
838.522	23882.05
838.707	24097.08
838.891	23648.58
839.076	23540.04
839.261	23822.66
839.445	23273.8
839.63	23335.24
839.815	23763.26
839.999	23302.47
840.184	23114.06
840.368	23122.25
840.553	23296.33
840.737	23748.93
840.922	23112.01
841.106	22978.89
841.291	23265.61
841.475	23540.04
841.66	23071.05
841.844	22954.32
842.029	23949.63
842.213	22950.22
842.397	22956.36
842.582	22690.13
842.766	23247.18
842.951	23296.33
843.135	22716.75
843.319	22978.89
843.504	23247.18
843.688	23007.56
843.872	22544.72
844.056	22561.11
844.241	22829.39
844.425	22870.35
844.609	22856.01
844.793	22075.74
844.977	23034.19
845.161	22712.66
845.346	22274.39
845.53	22464.85
845.714	22563.15
845.898	23050.57
846.082	22296.92
846.266	22534.48
846.45	22403.41
846.634	22427.99
846.818	22171.99
847.002	21940.57
847.186	22720.85
847.37	21938.52
847.554	21684.58
847.738	21985.63
847.922	22323.54
848.106	22384.98
848.29	21926.24
848.473	21991.77
848.657	21848.41
848.841	21819.74
849.025	21922.14
849.209	21547.36
849.392	22294.87
849.576	21764.45
849.76	21354.85
849.944	21952.86
850.127	21936.48
850.311	21440.87
850.495	21248.36
850.678	21340.52
850.862	22143.32
851.046	22174.04
851.229	21795.17
851.413	21332.33
851.596	21346.66
851.78	21352.8
851.964	21676.38
852.147	21354.85
852.331	21959
852.514	21733.73
852.698	21385.57
852.881	21111.14
853.065	21616.99
853.248	21256.55
853.431	21320.04
853.615	21117.29
853.798	22145.37
853.982	21184.87
854.165	21201.26
854.348	20695.41
854.532	21094.76
854.715	20965.74
854.898	21291.37
855.081	21213.54
855.265	21434.72
855.448	21385.57
855.631	20722.03
855.814	20545.91
855.997	21315.94
856.181	21051.75
856.364	21102.95
856.547	20734.32
856.73	21184.87
856.913	20871.53
857.096	20619.63
857.279	20793.71
857.462	20666.74
857.645	21066.09
857.828	20930.92
858.011	20636.02
858.194	20740.46
858.377	20820.33
858.56	20054.39
858.743	20578.67
858.926	20423.03
859.109	20488.56
859.292	20277.62
859.475	20179.32
859.658	20449.65
859.841	20681.07
860.023	20038.01
860.206	19923.32
860.389	20607.34
860.572	20590.96
860.755	19990.91
860.937	20257.14
861.12	20146.55
861.303	20310.39
861.486	19820.92
861.668	20072.82
861.851	20468.08
862.034	20140.41
862.216	20003.19
862.399	19483.01
862.581	19888.51
862.764	19919.23
862.947	19620.22
863.129	19528.06
863.312	19413.38
863.494	20195.7
863.677	19882.36
863.859	19102.09
864.042	19691.9
864.224	20007.29
864.406	19640.7
864.589	19179.91
864.771	19800.44
864.954	19310.98
865.136	18928.01
865.318	18653.58
865.501	19411.33
865.683	18999.69
865.865	19151.24
866.048	18966.92
866.23	19083.66
866.412	19184.01
866.594	18891.15
866.777	18643.34
866.959	19206.53
867.141	18917.77
867.323	19184.01
867.505	19526.02
867.687	19022.22
867.869	18977.16
868.052	18999.69
868.234	18753.93
868.416	19319.17
868.598	19126.66
868.78	18770.32
868.962	18729.36
869.144	19239.3
869.326	18968.97
869.508	18727.31
869.69	18641.29
869.872	18803.08
870.054	19272.07
870.236	18403.73
870.417	18751.88
870.599	18856.33
870.781	19136.9
870.963	18807.18
871.145	18428.31
871.327	18444.69
871.508	18827.66
871.69	18301.33
871.872	18907.53
872.054	18784.65
872.235	18932.11
872.417	18743.69
872.599	18454.93
872.78	19134.85
872.962	18923.91
873.144	18465.17
873.325	18594.19
873.507	19161.48
873.689	18833.8
873.87	18399.63
874.052	18764.17
874.233	18747.79
874.415	18823.56
874.596	18622.86
874.778	18590.09
874.959	18647.44
875.141	18862.47
875.322	18403.73
875.503	18348.43
875.685	18700.69
875.866	18254.23
876.048	18235.8
876.229	18465.17
876.41	18915.72
876.592	18928.01
876.773	18776.46
876.954	18055.58
877.136	19087.75
877.317	18647.44
877.498	18545.04
877.679	18485.65
877.86	18743.69
878.042	18626.96
878.223	18563.47
878.404	18915.72
878.585	19036.55
878.766	19253.64
878.947	18964.87
879.128	18737.55
879.309	19050.89
879.49	18989.45
879.672	18780.56
879.853	18839.95
880.034	18729.36
880.215	18903.43
880.396	18874.76
880.576	18903.43
880.757	18755.98
880.938	19290.5
881.119	19007.88
881.3	18622.86
881.481	19353.99
881.662	19767.68
881.843	18891.15
882.023	18913.67
882.204	19145.09
882.385	19214.73
882.566	18923.91
882.747	19167.62
882.927	19427.71
883.108	19341.7
883.289	18913.67
883.469	19493.25
883.65	19466.63
883.831	19485.06
884.011	19360.13
884.192	19411.33
884.373	19743.1
884.553	19794.3
884.734	19476.87
884.914	19798.4
885.095	20136.31
885.275	20011.39
885.456	19435.91
885.636	19165.57
885.817	19755.39
885.997	19558.78
886.178	19360.13
886.358	19487.11
886.538	20140.41
886.719	20679.02
886.899	19566.98
887.08	19747.2
887.26	20246.9
887.44	19388.8
887.621	19476.87
887.801	19741.05
887.981	20758.89
888.161	20085.11
888.342	19534.21
888.522	19644.8
888.702	20134.26
888.882	20322.68
889.062	20031.86
889.242	19665.28
889.423	20253.05
889.603	20236.66
889.783	20048.25
889.963	19751.29
890.143	20101.5
890.323	20441.46
890.503	19874.17
890.683	19624.32
890.863	20093.3
891.043	20111.74
891.223	19718.53
891.403	20011.39
891.583	20275.57
891.763	20255.09
891.943	19923.32
892.122	19763.58
892.302	20099.45
892.482	20226.42
892.662	19585.41
892.842	19501.44
893.022	19906.94
893.201	19519.87
893.381	19728.77
893.561	19546.5
893.741	20255.09
893.92	20015.48
894.1	19908.99
894.28	19874.17
894.459	20083.06
894.639	20060.54
894.819	19554.69
894.998	19802.49
895.178	20334.96
895.357	20099.45
895.537	19272.07
895.716	19302.79
895.896	19818.88
896.075	19724.67
896.255	19585.41
896.434	19229.06
896.614	19937.66
896.793	19964.28
896.973	19601.79
897.152	19364.23
897.331	19849.6
897.511	19450.24
897.69	18899.34
897.87	19177.86
898.049	19659.13
898.228	19517.82
898.407	19394.95
898.587	19356.04
898.766	19181.96
898.945	19458.43
899.124	18622.86
899.304	19087.75
899.483	19331.46
899.662	19671.42
899.841	18579.86
900.02	18801.04
900.199	19237.25
900.378	19038.6
900.557	18733.45
900.737	18293.14
900.916	19077.51
901.095	18907.53
901.274	18837.9
901.453	18422.16
901.632	18629.01
901.811	18497.94
901.989	18403.73
902.168	18252.18
902.347	18610.57
902.526	18264.47
902.705	17977.75
902.884	18198.93
903.063	18657.68
903.242	18772.36
903.42	17793.44
903.599	18059.67
903.778	18424.21
903.957	18479.5
904.135	17834.39
904.314	17668.51
904.493	17758.62
904.672	17981.85
904.85	17115.56
905.029	17430.94
905.207	17435.04
905.386	18061.72
905.565	16968.1
905.743	17088.93
905.922	16976.3
906.1	17230.24
906.279	16923.05
906.457	16398.77
906.636	17088.93
906.814	16787.88
906.993	16599.47
907.171	16478.64
907.35	16884.14
907.528	16685.48
907.707	16540.08
907.885	16249.27
908.063	16933.29
908.242	16236.98
908.42	16126.39
908.598	16073.14
908.777	16265.65
908.955	15907.26
909.133	15722.94
909.311	15798.71
909.49	16120.24
909.668	16134.58
909.846	15983.03
910.024	15755.71
910.202	16447.92
910.38	16525.74
910.559	16087.48
910.737	16236.98
910.915	16767.4
911.093	16363.95
911.271	16587.18
911.449	16699.82
911.627	16853.42
911.805	16996.78
911.983	16529.84
912.161	16679.34
912.339	16908.71
912.517	17256.87
912.695	16777.64
912.872	16673.2
913.05	16816.55
913.228	17043.88
913.406	16699.82
913.584	16689.58
913.762	17281.44
913.939	16533.93
914.117	16812.46
914.295	16529.84
914.473	17265.06
914.65	17033.64
914.828	16687.53
915.006	16642.48
915.184	16783.79
915.361	16882.09
915.539	16478.64
915.716	16961.96
915.894	16824.75
916.072	17193.38
916.249	16544.17
916.427	16728.49
916.604	16427.44
916.782	16744.88
916.959	16212.4
917.137	16515.5
917.314	16830.89
917.492	16693.68
917.669	16329.14
917.847	16593.33
918.024	16824.75
918.201	16581.04
918.379	16499.12
918.556	16277.94
918.733	16660.91
918.911	16128.44
919.088	16462.26
919.265	15991.22
919.442	16673.2
919.62	16179.64
919.797	15911.35
919.974	16206.26
920.151	16396.72
920.328	16175.54
920.506	15948.22
920.683	16212.4
920.86	15765.95
921.037	15774.14
921.214	15772.09
921.391	15882.68
921.568	16007.61
921.745	15776.19
921.922	15792.57
922.099	15624.64
922.276	16038.33
922.453	16075.19
922.63	15524.29
922.807	15845.82
922.984	15876.54
923.161	15743.42
923.338	15516.09
923.514	15487.42
923.691	15858.1
923.868	15972.79
924.045	15454.65
924.222	15563.2
924.399	15741.37
924.575	15753.66
924.752	15245.76
924.929	15253.95
925.105	15526.33
925.282	15040.97
925.459	14981.57
925.635	15149.51
925.812	15237.57
925.989	14959.05
926.165	14987.72
926.342	14680.52
926.518	14897.61
926.695	14817.74
926.871	14729.67
927.048	14485.97
927.224	14936.52
927.401	14473.68
927.577	14369.23
927.754	14447.05
927.93	14934.47
928.107	14719.43
928.283	14465.49
928.459	14662.09
928.636	14688.71
928.812	14545.36
928.988	14213.59
929.165	14115.28
929.341	14189.01
929.517	14393.81
929.693	14576.08
929.87	13644.25
930.046	14113.24
930.222	13961.69
930.398	13777.37
930.574	13963.73
930.751	13906.39
930.927	13959.64
931.103	13511.13
931.279	13812.18
931.455	13398.49
931.631	13961.69
931.807	13318.62
931.983	13271.52
932.159	13240.8
932.335	13689.31
932.511	13289.95
932.687	13029.86
932.863	13664.73
933.039	13109.73
933.215	12866.02
933.391	12737
933.566	12913.13
933.742	12872.17
933.918	12636.65
934.094	12491.24
934.27	12556.78
934.445	12468.72
934.621	12298.73
934.797	12057.07
934.973	12380.65
935.148	12272.11
935.324	11551.23
935.5	11561.47
935.675	11772.41
935.851	11676.15
936.027	11350.53
936.202	11215.36
936.378	11469.31
936.553	11190.78
936.729	11149.82
936.904	10650.12
937.08	10484.23
937.255	10269.2
937.431	10045.97
937.606	9706.01
937.782	10185.23
937.957	9935.38
938.133	9679.38
938.308	9550.36
938.483	9558.55
938.659	9251.36
938.834	9085.47
939.009	8938.02
939.185	9263.65
939.36	8776.23
939.535	8436.27
939.71	8739.37
939.886	8727.08
940.061	8880.68
940.236	8399.4
940.411	8217.13
940.586	8710.69
940.761	8520.23
940.937	8096.3
941.112	7940.66
941.287	8075.82
941.462	8108.59
941.637	7479.86
941.812	7801.4
941.987	7772.72
942.162	7854.64
942.337	7629.37
942.512	7559.74
942.687	7897.65
942.862	7928.37
943.037	7193.15
943.212	7150.14
943.386	7574.07
943.561	7459.38
943.736	7420.47
943.911	7645.75
944.086	7696.95
944.26	7428.67
944.435	7299.64
944.61	7432.76
944.785	7879.22
944.959	7873.07
945.134	7133.76
945.309	7103.04
945.483	7363.13
945.658	7701.05
945.833	7043.65
946.007	7162.43
946.182	7680.57
946.357	7211.58
946.531	7273.02
946.706	7213.63
946.88	6974.02
947.055	7625.27
947.229	7330.36
947.404	7156.29
947.578	7694.9
947.752	7352.89
947.927	7295.55
948.101	7201.34
948.276	7625.27
948.45	7768.63
948.624	7445.05
948.799	7365.18
948.973	7668.28
949.147	7348.79
949.321	7600.69
949.496	7660.09
949.67	8268.33
949.844	7717.43
950.018	7567.93
950.193	7496.25
950.367	8313.39
950.541	7842.35
950.715	7756.34
950.889	7907.89
951.063	7737.91
951.237	8053.3
951.411	7502.39
951.585	7606.84
951.759	8006.19
951.933	7817.78
952.107	7670.33
952.281	8069.68
952.455	8364.59
952.629	8217.13
952.803	8018.48
952.977	7862.83
953.151	8403.5
953.325	8149.55
953.499	8028.72
953.672	7807.54
953.846	8028.72
954.02	8061.49
954.194	7819.83
954.368	7922.23
954.541	8360.49
954.715	8004.14
954.889	8030.77
955.062	7930.42
955.236	8286.76
955.41	8153.65
955.583	8256.04
955.757	7803.44
955.93	8288.81
956.104	7959.09
956.278	8104.49
956.451	8407.59
956.625	8401.45
956.798	8831.52
956.972	8567.34
957.145	7934.51
957.319	8460.84
957.492	8276.52
957.665	8374.83
957.839	8243.76
958.012	8561.19
958.185	8190.51
958.359	8194.61
958.532	8315.44
958.705	8505.9
958.879	8548.9
959.052	8245.8
959.225	8258.09
959.398	8401.45
959.572	8579.62
959.745	8272.43
959.918	8360.49
960.091	8385.07
960.264	8618.54
960.438	8196.65
960.611	8116.78
960.784	8712.74
960.957	8178.22
961.13	8479.27
961.303	8243.76
961.476	8563.24
961.649	8643.11
961.822	8206.89
961.995	8483.37
962.168	8528.42
962.341	8559.14
962.514	7995.95
962.686	8112.69
962.859	8571.43
963.032	8614.44
963.205	8055.34
963.378	7950.9
963.551	8598.06
963.723	8362.54
963.896	8116.78
964.069	8350.25
964.242	8356.4
964.414	8581.67
964.587	8251.95
964.76	8401.45
964.932	8354.35
965.105	8438.31
965.278	8315.44
965.45	8260.14
965.623	8278.57
965.795	8499.75
965.968	8139.31
966.14	7981.62
966.313	8417.83
966.485	8161.84
966.658	7989.81
966.83	7969.33
967.003	8645.16
967.175	8479.27
967.348	8008.24
967.52	8086.06
967.692	8538.66
967.865	8270.38
968.037	7946.8
968.209	8342.06
968.382	8237.61
968.554	8282.67
968.726	7993.9
968.898	7793.2
969.071	8131.12
969.243	8026.67
969.415	7840.31
969.587	8075.82
969.759	8491.56
969.932	8337.96
970.104	8190.51
970.276	7725.62
970.448	8090.16
970.62	7963.19
970.792	8165.93
970.964	7979.57
971.136	8475.18
971.308	8182.32
971.48	7645.75
971.652	7881.27
971.824	8413.74
971.996	7881.27
972.168	7672.37
972.339	7789.11
972.511	7909.94
972.683	7647.8
972.855	7836.21
973.027	7643.7
973.199	7922.23
973.37	7819.83
973.542	7684.66
973.714	7606.84
973.886	7832.12
974.057	7918.13
974.229	7574.07
974.401	7258.68
974.572	7541.3
974.744	7297.6
974.915	7436.86
975.087	7477.82
975.259	8077.87
975.43	7506.49
975.602	7359.03
975.773	7299.64
975.945	7252.54
976.116	7690.81
976.288	7342.65
976.459	7383.61
976.63	7297.6
976.802	7488.06
976.973	7365.18
977.145	7338.55
977.316	7776.82
977.487	7483.96
977.659	7326.27
977.83	7467.58
978.001	7926.32
978.172	7455.29
978.344	7166.53
978.515	7144
978.686	7191.1
978.857	7633.46
979.028	7084.61
979.2	7041.6
979.371	7533.11
979.542	7305.79
979.713	7146.05
979.884	6642.25
980.055	6994.5
980.226	6961.73
980.397	6933.06
980.568	6793.8
980.739	7381.56
980.91	6826.56
981.081	7033.41
981.252	6859.33
981.423	7082.56
981.594	7264.83
981.765	6582.85
981.936	6849.09
982.106	7014.98
982.277	7088.7
982.448	6683.2
982.619	6785.6
982.79	6695.49
982.96	7010.88
983.131	6597.19
983.302	6410.82
983.472	6681.16
983.643	6599.24
983.814	6496.84
983.984	6554.18
984.155	6558.28
984.326	6922.82
984.496	6580.81
984.667	6396.49
984.837	6662.73
985.008	6867.52
985.178	6498.89
985.349	6208.08
985.519	6457.93
985.69	6283.85
985.86	6294.09
986.031	6117.97
986.201	6464.07
986.371	6502.98
986.542	6095.44
986.712	5851.73
986.882	6457.93
987.053	6398.54
987.223	6025.81
987.393	6249.04
987.563	6138.44
987.734	6328.91
987.904	6376.01
988.074	5945.94
988.244	6257.23
988.414	6140.49
988.585	6015.57
988.755	6066.77
988.925	5888.59
989.095	6531.66
989.265	5763.67
989.435	5890.64
989.605	6103.63
989.775	6105.68
989.945	5884.5
990.115	5747.28
990.285	6079.05
990.455	6034
990.625	5780.05
990.795	5726.8
990.965	6251.08
991.134	5589.59
991.304	5653.08
991.474	5536.34
991.644	5933.65
991.814	6185.55
991.984	5388.89
992.153	5433.94
992.323	5790.29
992.493	5655.12
992.662	5448.28
992.832	5587.54
993.002	5749.33
993.171	5675.6
993.341	5245.53
993.511	5372.5
993.68	5567.06
993.85	5558.87
994.019	4975.2
994.189	5167.71
994.358	5485.14
994.528	5360.22
994.697	5010.01
994.867	4999.77
995.036	5560.92
995.206	5435.99
995.375	5091.93
995.544	5106.27
995.714	5362.26
995.883	5134.94
996.052	5274.2
996.222	4848.22
996.391	5837.39
996.56	5163.61
996.73	4880.99
996.899	4850.27
997.068	5540.44
997.237	5235.29
997.406	4844.13
997.576	4954.72
997.745	5100.12
997.914	4979.29
998.083	4813.41
998.252	4788.83
998.421	4901.47
998.59	4807.27
998.759	4680.29
998.928	4579.94
999.097	5485.14
999.266	5042.78
999.435	4788.83
999.604	4387.43
999.773	5474.9
999.942	4743.78
1000.111	4487.78
1000.28	4500.07
1000.448	4534.89
1000.617	4643.43
1000.786	4567.65
1000.955	4358.76
1001.124	4831.84
1001.292	5300.83
1001.461	4430.44
1001.63	4358.76
1001.798	4950.62
1001.967	4854.37
1002.136	4199.02
1002.304	4164.2
1002.473	4569.7
1002.642	4420.2
1002.81	4280.94
1002.979	4276.84
1003.147	4594.28
1003.316	5034.59
1003.484	4338.28
1003.653	4088.43
1003.821	4749.92
1003.99	4246.12
1004.158	4301.42
1004.327	4070
1004.495	4567.65
1004.663	4194.92
1004.832	4211.31
1005	3760.75
1005.168	4369
1005.337	4244.07
1005.505	3918.45
1005.673	4113
1005.842	4471.4
1006.01	4262.51
1006.178	3879.54
1006.346	3943.02
1006.514	4207.21
1006.683	4291.18
1006.851	3707.51
1007.019	3852.91
1007.187	3836.53
1007.355	3725.94
1007.523	3582.58
1007.691	3641.97
1007.859	3703.41
1008.027	4090.48
1008.195	3682.93
1008.363	3506.81
1008.531	4196.97
1008.699	3711.6
1008.867	3459.7
1009.035	3504.76
1009.203	4133.48
1009.37	3754.61
1009.538	3596.92
1009.706	3885.68
1009.874	3822.19
1010.042	3603.06
1010.209	3310.2
1010.377	3469.94
1010.545	3959.41
1010.713	3564.15
1010.88	3377.78
1011.048	3461.75
1011.216	3535.48
1011.383	3947.12
1011.551	3355.26
1011.718	3320.44
1011.886	3758.71
1012.054	3476.09
1012.221	3146.36
1012.389	3187.32
1012.556	3363.45
1012.724	3805.81
1012.891	3181.18
1013.058	2943.61
1013.226	3517.04
1013.393	3594.87
1013.561	3005.05
1013.728	2996.86
1013.895	3529.33
1014.063	3371.64
1014.23	2941.57
1014.397	3013.24
1014.565	3506.81
1014.732	3259
1014.899	2857.6
1015.066	2830.98
1015.233	3154.55
1015.401	3244.67
1015.568	2998.91
1015.735	2800.26
1015.902	3054.2
1016.069	3265.14
1016.236	2820.74
1016.403	2699.91
1016.57	2871.93
1016.737	3201.66
1016.904	2824.83
1017.071	2665.09
1017.238	2912.89
1017.405	3183.23
1017.572	2646.66
1017.739	2927.23
1017.906	2996.86
1018.073	3191.42
1018.24	2613.89
1018.407	2650.75
1018.573	3185.27
1018.74	2830.98
1018.907	2431.62
1019.074	2464.39
1019.241	3066.49
1019.407	2869.89
1019.574	2364.04
1019.741	2476.68
1019.907	2792.06
1020.074	2749.06
1020.241	2232.97
1020.407	2366.09
1020.574	2773.63
1020.74	3007.1
1020.907	2376.33
1021.073	2376.33
1021.24	3037.82
1021.406	3089.02
1021.573	2282.12
1021.739	2419.33
1021.906	2871.93
1022.072	2544.26
1022.239	2292.36
1022.405	2292.36
1022.571	2601.6
1022.738	2173.58
1022.904	2278.02
1023.07	2321.03
1023.237	2503.3
1023.403	2812.54
1023.569	2255.5
1023.735	2130.57
1023.902	2548.36
1024.068	2527.88
1024.234	2060.94
1024.4	2036.36
1024.566	2628.23
1024.732	2630.27
1024.898	2218.63
1025.065	1940.11
1025.231	2617.99
1025.397	2292.36
1025.563	2208.39
1025.729	1880.72
1025.895	2005.64
1026.061	2110.09
1026.227	1911.44
1026.392	2054.8
1026.558	2603.65
1026.724	2392.71
1026.89	1884.81
1027.056	2085.51
1027.222	2450.05
1027.388	2159.24
1027.553	1997.45
1027.719	1850
1027.885	2566.79
1028.051	2347.65
1028.216	1804.94
1028.382	1927.82
1028.548	2460.29
1028.713	2040.46
1028.879	1823.37
1029.045	2044.56
1029.21	2417.29
1029.376	2333.32
1029.541	1923.73
1029.707	1872.53
1029.873	2292.36
1030.038	2208.39
1030.204	1763.98
1030.369	1669.78
1030.534	2202.25
1030.7	1970.83
1030.865	1806.99
1031.031	1712.78
1031.196	2204.3
1031.361	2056.84
1031.527	1657.49
1031.692	1710.74
1031.857	1684.11
1032.023	2192.01
1032.188	1626.77
1032.353	1723.02
1032.518	2329.22
1032.684	1923.73
1032.849	1534.61
1033.014	1606.29
1033.179	2175.63
1033.344	2167.43
1033.509	1727.12
1033.674	1608.34
1033.839	2122.38
1034.004	2067.08
1034.17	1630.87
1034.335	1399.45
1034.5	1790.61
1034.664	1624.72
1034.829	1510.04
1034.994	1485.46
1035.159	1991.31
1035.324	1925.77
1035.489	1477.27
1035.654	1616.53
1035.819	2071.18
1035.984	1796.75
1036.148	1557.14
1036.313	1557.14
1036.478	2034.32
1036.643	1768.08
1036.807	1403.54
1036.972	1464.98
1037.137	2151.05
1037.301	1772.18
1037.466	1297.05
1037.631	1467.03
1037.795	2019.98
1037.96	1665.68
1038.124	1602.19
1038.289	1176.22
1038.454	1854.09
1038.618	1845.9
1038.783	1344.15
1038.947	1469.08
1039.111	1694.35
1039.276	1544.85
1039.44	1192.6
1039.605	1819.28
1039.769	1462.93
1039.933	1557.14
1040.098	1401.49
1040.262	1405.59
1040.426	1927.82
1040.591	1720.98
1040.755	1215.13
1040.919	1264.28
1041.083	1612.43
1041.248	1464.98
1041.412	1104.54
1041.576	1106.59
1041.74	1485.46
1041.904	1827.47
1042.068	1110.68
1042.232	1176.22
1042.397	1663.63
1042.561	1526.42
1042.725	973.47
1042.889	1282.71
1043.053	1706.64
1043.217	1518.23
1043.381	1141.4
1043.544	959.13
1043.708	1737.36
1043.872	1157.78
1044.036	905.88
1044.2	1020.57
1044.364	1647.25
1044.528	1780.37
1044.691	5534.29
1044.855	942.75
1045.019	1778.32
1045.183	1495.7
1045.346	1106.59
1045.51	944.8
1045.674	1477.27
1045.837	1567.38
1046.001	1045.15
1046.165	1051.29
1046.328	1839.76
1046.492	1393.3
1046.655	1120.92
1046.819	1149.59
1046.983	1254.04
1047.146	1395.35
1047.31	1106.59
1047.473	762.53
1047.636	1286.81
1047.8	1039
1047.963	959.13
1048.127	963.23
1048.29	971.42
