Data from Hydrogel_Ink_Intensity_Test_1_USB4F045381__79__00079.txt Node

Date: Mon Jul 31 10:56:54 EDT 2023
User: mmckonesweet
Spectrometer: USB4F04538
Trigger mode: 4
Integration Time (sec): 9.000000E-1
Scans to average: 1
Electric dark correction enabled: true
Nonlinearity correction enabled: false
Boxcar width: 0
XAxis mode: Wavelengths
Number of Pixels in Spectrum: 3648
>>>>>Begin Spectral Data<<<<<
345.52	-1069.04
345.736	-1069.04
345.952	-1069.04
346.168	-1058.8
346.384	-1044.46
346.6	-137.21
346.816	-233.47
347.032	-262.14
347.248	249.85
347.464	-219.13
347.68	-77.82
347.896	102.4
348.112	385.02
348.328	-88.06
348.544	-53.25
348.76	43.01
348.975	290.81
349.191	-223.23
349.407	-167.93
349.623	-38.91
349.839	-86.01
350.055	-163.84
350.27	2.05
350.486	135.17
350.702	256
350.918	176.13
351.133	-217.08
351.349	110.59
351.565	335.87
351.781	-253.95
351.996	-45.06
352.212	352.25
352.428	-182.27
352.644	-225.28
352.859	-266.24
353.075	309.24
353.291	-2.05
353.506	-184.32
353.722	-284.67
353.938	-86.01
354.153	471.03
354.369	102.4
354.584	-249.85
354.8	258.04
355.016	-290.81
355.231	-245.76
355.447	-129.02
355.662	141.31
355.878	876.53
356.093	-356.35
356.309	-81.92
356.524	-290.81
356.74	198.65
356.955	-299
357.171	-200.7
357.386	122.88
357.602	-233.47
357.817	-96.25
358.033	-174.08
358.248	397.31
358.464	98.3
358.679	-178.17
358.895	-372.73
359.11	-69.63
359.325	249.85
359.541	180.22
359.756	-59.39
359.972	-362.49
360.187	126.97
360.402	-219.13
360.618	-126.97
360.833	1019.89
361.048	178.17
361.264	-192.51
361.479	-86.01
361.694	65.53
361.909	77.82
362.125	-262.14
362.34	-133.12
362.555	342.01
362.77	114.69
362.986	-288.76
363.201	-116.73
363.416	243.71
363.631	45.06
363.847	-272.38
364.062	-202.75
364.277	192.51
364.492	-2.05
364.707	-206.84
364.922	-385.02
365.138	225.28
365.353	286.72
365.568	-339.96
365.783	-219.13
365.998	32.77
366.213	628.73
366.428	-219.13
366.643	22.53
366.858	327.68
367.073	251.9
367.288	-157.69
367.503	-225.28
367.718	153.6
367.933	331.77
368.148	-342.01
368.363	-57.34
368.578	-32.77
368.793	421.88
369.008	-212.99
369.223	-311.29
369.438	210.94
369.653	415.74
369.868	-311.29
370.083	-253.95
370.298	69.63
370.513	432.12
370.728	45.06
370.943	-217.08
371.157	-151.55
371.372	559.1
371.587	-360.44
371.802	-266.24
372.017	81.92
372.232	378.87
372.446	-32.77
372.661	-264.19
372.876	192.51
373.091	241.66
373.306	-92.16
373.52	-292.86
373.735	-174.08
373.95	391.16
374.165	-77.82
374.379	-131.07
374.594	-155.65
374.809	86.01
375.023	30.72
375.238	-280.57
375.453	223.23
375.667	-194.56
375.882	-169.98
376.097	-270.33
376.311	49.15
376.526	104.45
376.741	-217.08
376.955	133.12
377.17	589.82
377.384	524.28
377.599	-108.54
377.813	-286.72
378.028	598.01
378.242	176.13
378.457	-75.77
378.672	-331.77
378.886	59.39
379.101	8.19
379.315	-366.59
379.53	-196.61
379.744	114.69
379.958	153.6
380.173	-198.65
380.387	-194.56
380.602	49.15
380.816	-188.41
381.031	-229.37
381.245	-217.08
381.459	233.47
381.674	2748.37
381.888	-307.2
382.103	114.69
382.317	-217.08
382.531	464.89
382.746	6.14
382.96	-153.6
383.174	-65.53
383.388	417.79
383.603	24.58
383.817	-321.53
384.031	102.4
384.246	466.94
384.46	12.29
384.674	305.15
384.888	-32.77
385.103	98.3
385.317	-258.04
385.531	-51.2
385.745	397.31
385.959	364.54
386.174	-147.45
386.388	-243.71
386.602	18.43
386.816	-81.92
387.03	-94.21
387.244	-73.73
387.458	79.87
387.672	372.73
387.887	-266.24
388.101	-215.04
388.315	364.54
388.529	86.01
388.743	-215.04
388.957	-315.39
389.171	438.27
389.385	-165.89
389.599	-167.93
389.813	55.3
390.027	184.32
390.241	604.15
390.455	-108.54
390.669	-104.45
390.883	-16.38
391.097	491.51
391.311	-8.19
391.525	-204.8
391.738	241.66
391.952	141.31
392.166	-104.45
392.38	-284.67
392.594	317.44
392.808	290.81
393.022	-75.77
393.236	-57.34
393.449	235.52
393.663	212.99
393.877	-198.65
394.091	-69.63
394.305	-139.26
394.518	-114.69
394.732	-231.42
394.946	-53.25
395.16	518.14
395.373	112.64
395.587	-274.43
395.801	-194.56
396.015	317.44
396.228	319.48
396.442	-262.14
396.656	-299
396.869	397.31
397.083	520.18
397.297	14.34
397.51	-135.17
397.724	284.67
397.938	122.88
398.151	-262.14
398.365	-286.72
398.578	333.82
398.792	376.83
399.005	34.82
399.219	-135.17
399.433	186.37
399.646	299
399.86	-4.1
400.073	-30.72
400.287	266.24
400.5	-34.82
400.714	-63.49
400.927	-63.49
401.141	376.83
401.354	1066.99
401.567	251.9
401.781	-253.95
401.994	315.39
402.208	618.49
402.421	-131.07
402.635	-77.82
402.848	32.77
403.061	389.11
403.275	-90.11
403.488	-208.89
403.701	585.72
403.915	344.06
404.128	77.82
404.341	-122.88
404.555	235.52
404.768	-26.62
404.981	53.25
405.195	-100.35
405.408	561.14
405.621	356.35
405.834	20.48
406.048	-147.45
406.261	380.92
406.474	491.51
406.687	-180.22
406.9	-28.67
407.114	145.41
407.327	233.47
407.54	-229.37
407.753	-325.63
407.966	-86.01
408.179	372.73
408.392	-126.97
408.605	-278.52
408.819	276.48
409.032	352.25
409.245	-212.99
409.458	40.96
409.671	282.62
409.884	487.42
410.097	-282.62
410.31	81.92
410.523	366.59
410.736	49.15
410.949	-108.54
411.162	-38.91
411.375	499.7
411.588	413.69
411.801	126.97
412.014	-151.55
412.227	147.45
412.44	30.72
412.653	-40.96
412.865	0
413.078	284.67
413.291	364.54
413.504	-30.72
413.717	-112.64
413.93	339.96
414.143	-18.43
414.356	8.19
414.568	-266.24
414.781	313.34
414.994	210.94
415.207	34.82
415.42	-57.34
415.632	399.35
415.845	618.49
416.058	-192.51
416.271	-225.28
416.483	272.38
416.696	557.05
416.909	-90.11
417.121	-184.32
417.334	284.67
417.547	573.43
417.759	-94.21
417.972	-124.93
418.185	36.86
418.397	333.82
418.61	-86.01
418.823	-61.44
419.035	608.25
419.248	135.17
419.46	-75.77
419.673	-8.19
419.885	317.44
420.098	86.01
420.311	-122.88
420.523	-208.89
420.736	344.06
420.948	126.97
421.161	-77.82
421.373	-233.47
421.586	256
421.798	-20.48
422.01	-264.19
422.223	120.83
422.435	30.72
422.648	344.06
422.86	-53.25
423.073	-67.58
423.285	393.21
423.497	-114.69
423.71	-135.17
423.922	-36.86
424.134	372.73
424.347	573.43
424.559	219.13
424.771	292.86
424.984	116.73
425.196	239.61
425.408	-188.41
425.621	-102.4
425.833	493.56
426.045	497.66
426.257	-192.51
426.47	-55.3
426.682	307.2
426.894	307.2
427.106	-45.06
427.318	-116.73
427.531	114.69
427.743	352.25
427.955	-28.67
428.167	409.59
428.379	325.63
428.591	159.74
428.804	122.88
429.016	-143.36
429.228	124.93
429.44	348.15
429.652	202.75
429.864	-133.12
430.076	126.97
430.288	192.51
430.5	18.43
430.712	108.54
430.924	532.47
431.136	301.05
431.348	-114.69
431.56	-59.39
431.772	215.04
431.984	116.73
432.196	-45.06
432.408	-34.82
432.62	215.04
432.832	337.91
433.044	227.32
433.256	194.56
433.468	440.31
433.679	6.14
433.891	-45.06
434.103	237.56
434.315	616.44
434.527	466.94
434.739	233.47
434.95	178.17
435.162	385.02
435.374	167.93
435.586	-43.01
435.798	36.86
436.009	40.96
436.221	225.28
436.433	90.11
436.645	28.67
436.856	149.5
437.068	598.01
437.28	-47.1
437.491	290.81
437.703	548.86
437.915	290.81
438.126	133.12
438.338	358.39
438.55	331.77
438.761	456.7
438.973	129.02
439.184	65.53
439.396	323.58
439.608	446.46
439.819	-73.73
440.031	225.28
440.242	489.46
440.454	454.65
440.665	172.03
440.877	249.85
441.088	450.55
441.3	258.04
441.511	-114.69
441.723	-12.29
441.934	389.11
442.146	378.87
442.357	241.66
442.569	411.64
442.78	389.11
442.991	741.36
443.203	401.4
443.414	16.38
443.626	688.12
443.837	147.45
444.048	-2.05
444.26	-45.06
444.471	425.98
444.682	532.47
444.894	-36.86
445.105	-53.25
445.316	598.01
445.528	407.55
445.739	151.55
445.95	98.3
446.161	335.87
446.373	516.09
446.584	169.98
446.795	57.34
447.006	561.14
447.217	724.98
447.429	36.86
447.64	40.96
447.851	718.84
448.062	350.2
448.273	55.3
448.484	141.31
448.695	557.05
448.907	301.05
449.118	204.8
449.329	376.83
449.54	235.52
449.751	217.08
449.962	65.53
450.173	-22.53
450.384	679.93
450.595	804.85
450.806	53.25
451.017	169.98
451.228	731.12
451.439	661.49
451.65	192.51
451.861	-61.44
452.072	122.88
452.283	360.44
452.494	442.36
452.705	165.89
452.915	767.99
453.126	456.7
453.337	237.56
453.548	180.22
453.759	739.32
453.97	919.54
454.181	409.59
454.391	247.8
454.602	468.98
454.813	581.62
455.024	196.61
455.235	137.21
455.445	583.67
455.656	507.9
455.867	327.68
456.078	196.61
456.288	397.31
456.499	630.77
456.71	174.08
456.921	425.98
457.131	589.82
457.342	526.33
457.553	294.91
457.763	311.29
457.974	653.3
458.184	684.02
458.395	241.66
458.606	71.68
458.816	800.76
459.027	847.86
459.237	360.44
459.448	151.55
459.659	780.28
459.869	1138.67
460.08	98.3
460.29	440.31
460.501	1003.5
460.711	468.98
460.922	104.45
461.132	290.81
461.343	1183.73
461.553	272.38
461.764	342.01
461.974	403.45
462.184	741.36
462.395	716.79
462.605	413.69
462.816	290.81
463.026	737.27
463.236	835.57
463.447	380.92
463.657	348.15
463.867	817.14
464.078	542.71
464.288	497.66
464.498	350.2
464.709	595.96
464.919	755.7
465.129	569.34
465.339	313.34
465.55	649.21
465.76	911.35
465.97	526.33
466.18	407.55
466.391	860.15
466.601	747.51
466.811	497.66
467.021	460.79
467.231	833.52
467.441	956.4
467.651	538.62
467.862	186.37
468.072	696.31
468.282	1003.5
468.492	536.57
468.702	530.42
468.912	724.98
469.122	1372.14
469.332	811
469.542	413.69
469.752	1003.5
469.962	778.23
470.172	511.99
470.382	456.7
470.592	1013.74
470.802	1101.81
471.012	763.89
471.222	503.8
471.432	1110
471.642	1087.47
471.852	743.41
472.062	618.49
472.272	942.07
472.482	706.55
472.691	622.58
472.901	579.58
473.111	937.97
473.321	1552.36
473.531	638.97
473.741	884.72
473.95	1196.01
474.16	1091.57
474.37	892.91
474.58	700.41
474.79	1521.64
474.999	1202.16
475.209	622.58
475.419	835.57
475.628	1052.66
475.838	1302.51
476.048	913.39
476.258	675.83
476.467	1464.3
476.677	1013.74
476.886	1095.66
477.096	919.54
477.306	921.59
477.515	1490.92
477.725	1017.84
477.935	1040.37
478.144	1601.51
478.354	1015.79
478.563	989.17
478.773	862.19
478.982	1447.91
479.192	1589.22
479.401	1116.14
479.611	974.83
479.82	1003.5
480.03	1406.95
480.239	1089.52
480.449	970.74
480.658	1765.35
480.868	1187.82
481.077	1175.53
481.287	1112.05
481.496	1478.63
481.705	1843.17
481.915	1525.74
482.124	1402.86
482.333	1607.66
482.543	1902.56
482.752	1257.45
482.961	1118.19
483.171	1654.76
483.38	1538.02
483.589	1322.99
483.799	1243.12
484.008	1581.03
484.217	1787.88
484.426	1378.28
484.636	1175.53
484.845	1740.77
485.054	1208.3
485.263	1679.33
485.472	1306.6
485.682	2095.07
485.891	1708.01
486.1	1327.08
486.309	1497.07
486.518	1865.7
486.727	1953.76
486.936	1378.28
487.146	1576.94
487.355	2084.83
487.564	1556.46
487.773	1460.2
487.982	1515.5
488.191	1583.08
488.4	1849.32
488.609	1478.63
488.818	1521.64
489.027	2355.16
489.236	2332.64
489.445	1593.32
489.654	1525.74
489.863	2101.22
490.072	2045.92
490.281	2115.55
490.49	1695.72
490.698	2308.06
490.907	2330.59
491.116	1806.31
491.325	1472.49
491.534	2441.18
491.743	2107.36
491.952	1869.8
492.16	1806.31
492.369	2133.98
492.578	2383.84
492.787	1830.88
492.996	1751.01
493.204	1900.52
493.413	2602.97
493.622	1593.32
493.831	1665
494.039	2521.05
494.248	1791.97
494.457	1839.08
494.665	1791.97
494.874	2400.22
495.083	2707.41
495.291	1990.63
495.5	1816.55
495.709	2500.57
495.917	2338.78
496.126	2027.49
496.335	1822.69
496.543	2097.12
496.752	2252.77
496.96	2256.86
497.169	1931.23
497.377	2320.35
497.586	2555.86
497.794	2215.9
498.003	1906.66
498.211	2303.96
498.42	2650.07
498.628	2121.7
498.837	1920.99
499.045	2641.88
499.254	2469.85
499.462	2088.93
499.671	2107.36
499.879	2797.53
500.087	2643.93
500.296	2191.33
500.504	2041.82
500.713	2598.87
500.921	3004.37
501.129	2080.74
501.338	2174.94
501.546	2654.17
501.754	2457.56
501.962	2201.57
502.171	2093.02
502.379	2695.13
502.587	2930.64
502.795	2404.32
503.004	2293.73
503.212	2600.92
503.42	2809.81
503.628	2322.4
503.837	2285.53
504.045	2969.55
504.253	2949.07
504.461	2265.05
504.669	2142.18
504.877	2756.57
505.085	2961.36
505.294	2156.51
505.502	2482.14
505.71	2711.51
505.918	2701.27
506.126	2373.6
506.334	2283.49
506.542	2627.54
506.75	2740.18
506.958	2621.4
507.166	2449.37
507.374	2598.87
507.582	3254.22
507.79	2527.19
507.998	2443.23
508.206	2887.64
508.414	2873.3
508.622	2482.14
508.83	2584.54
509.037	3123.15
509.245	2731.99
509.453	2467.8
509.661	2525.15
509.869	3012.56
510.077	2721.75
510.285	2713.56
510.492	2344.92
510.7	3477.45
510.908	2639.83
511.116	2533.34
511.324	2494.43
511.531	2818.01
511.739	2897.88
511.947	2678.74
512.155	3110.86
512.362	3076.05
512.57	2705.37
512.778	2486.23
512.985	2478.04
513.193	3368.91
513.401	3352.52
513.608	2826.2
513.816	2740.18
514.024	3100.62
514.231	3260.37
514.439	2678.74
514.646	2707.41
514.854	3354.57
515.061	3327.95
515.269	2691.03
515.477	2693.08
515.684	2901.97
515.892	3235.79
516.099	2633.69
516.307	2645.98
516.514	3264.46
516.722	3479.5
516.929	2660.31
517.136	2811.86
517.344	3452.88
517.551	3323.85
517.759	2731.99
517.966	2711.51
518.173	2981.84
518.381	3246.03
518.588	2873.3
518.796	2822.1
519.003	3360.72
519.21	3211.22
519.418	2996.18
519.625	3239.89
519.832	3299.28
520.039	3327.95
520.247	2758.61
520.454	2928.6
520.661	3477.45
520.868	3317.71
521.076	2916.31
521.283	3071.95
521.49	3809.22
521.697	3502.03
521.904	3071.95
522.112	2912.21
522.319	3682.25
522.526	3454.92
522.733	2981.84
522.94	3014.61
523.147	3301.33
523.354	3512.27
523.561	3010.51
523.768	3219.41
523.975	3731.4
524.183	3520.46
524.39	3133.39
524.597	3012.56
524.804	3379.15
525.011	3346.38
525.218	3266.51
525.425	3067.86
525.632	3792.84
525.838	3327.95
526.045	3104.72
526.252	3198.93
526.459	4739
526.666	4550.59
526.873	3059.67
527.08	3166.16
527.287	3899.33
527.494	3739.59
527.701	3055.57
527.907	3215.31
528.114	3659.72
528.321	3477.45
528.528	3418.06
528.735	3215.31
528.941	3555.27
529.148	3397.58
529.355	3379.15
529.562	3325.9
529.768	4026.31
529.975	3385.29
530.182	3391.44
530.388	3196.88
530.595	3805.13
530.802	3473.35
531.008	3583.95
531.215	3463.12
531.422	4386.75
531.628	4480.96
531.835	3452.88
532.042	3456.97
532.248	3491.79
532.455	3776.45
532.661	3452.88
532.868	3450.83
533.074	3823.56
533.281	4075.46
533.487	3508.17
533.694	3397.58
533.9	3717.06
534.107	3971.01
534.313	3510.22
534.52	3344.33
534.726	4173.76
534.933	4263.87
535.139	3567.56
535.345	3336.14
535.552	3837.89
535.758	3997.64
535.965	3534.79
536.171	3506.12
536.377	4153.28
536.584	4171.71
536.79	3694.54
536.996	3762.12
537.203	3993.54
537.409	4061.12
537.615	3731.4
537.821	3663.82
538.028	4222.91
538.234	4071.36
538.44	3758.02
538.646	3715.02
538.853	4143.04
539.059	3856.33
539.265	4173.76
539.471	3657.67
539.677	4102.08
539.883	3942.34
540.09	3737.54
540.296	4239.3
540.502	4167.62
540.708	3932.1
540.914	4011.97
541.12	3841.99
541.326	4302.78
541.532	4227.01
541.738	3964.87
541.944	3928
542.15	4456.38
542.356	3981.25
542.562	3743.69
542.768	3962.82
542.974	4800.44
543.18	4526.01
543.386	3727.3
543.592	3760.07
543.798	4657.08
544.004	4579.26
544.21	3882.95
544.415	4095.94
544.621	4495.29
544.827	4575.16
545.033	4011.97
545.239	4341.69
545.445	4128.7
545.651	4435.9
545.856	4059.07
546.062	4149.18
546.268	4335.55
546.474	4429.76
546.679	4116.42
546.885	4149.18
547.091	4216.77
547.297	4839.35
547.502	4069.31
547.708	3968.96
547.914	4224.96
548.119	4511.68
548.325	4067.27
548.531	4087.75
548.736	4829.11
548.942	4292.54
549.147	4155.33
549.353	4390.85
549.559	4777.91
549.764	4595.64
549.97	4097.99
550.175	4206.53
550.381	4603.83
550.586	4388.8
550.792	4265.92
550.997	4222.91
551.203	4630.46
551.408	4808.63
551.614	4097.99
551.819	4192.19
552.025	5017.52
552.23	4925.36
552.435	4267.97
552.641	4437.95
552.846	4462.52
553.052	4904.89
553.257	4554.68
553.462	4517.82
553.668	4513.72
553.873	4915.12
554.078	4374.46
554.283	4284.35
554.489	4689.85
554.694	4788.15
554.899	4296.64
555.105	4779.96
555.31	4927.41
555.515	4941.75
555.72	4394.94
555.925	4235.2
556.131	4970.42
556.336	4661.18
556.541	4501.44
556.746	4272.06
556.951	5232.56
557.156	5095.35
557.361	4634.55
557.567	4788.15
557.772	5244.85
557.977	5058.48
558.182	4446.14
558.387	4548.54
558.592	4657.08
558.797	5150.64
559.002	4583.35
559.207	4685.75
559.412	4917.17
559.617	5400.49
559.822	4566.97
560.027	4530.11
560.232	5038
560.437	4960.18
560.642	4505.53
560.847	4526.01
561.051	4872.12
561.256	4855.73
561.461	4739
561.666	4462.52
561.871	4837.3
562.076	5244.85
562.281	4661.18
562.485	4618.17
562.69	5083.06
562.895	5042.1
563.1	4755.38
563.305	4587.45
563.509	5255.09
563.714	5541.8
563.919	4607.93
564.123	4747.19
564.328	4788.15
564.533	5355.44
564.737	4804.53
564.942	4616.12
565.147	5398.45
565.351	5474.22
565.556	4784.05
565.761	4923.32
565.965	5054.39
566.17	4872.12
566.374	4538.3
566.579	4581.31
566.784	5046.19
566.988	5056.43
567.193	4583.35
567.397	4646.84
567.602	4863.93
567.806	4988.85
568.011	4933.56
568.215	4978.61
568.42	5181.36
568.624	5093.3
568.828	4761.53
569.033	5035.96
569.237	5386.16
569.442	5361.58
569.646	4550.59
569.85	4845.49
570.055	5193.65
570.259	5425.07
570.463	5201.84
570.668	5005.24
570.872	5091.25
571.076	5287.86
571.281	4835.25
571.485	5130.16
571.689	5377.97
571.893	5390.25
572.098	5160.88
572.302	5017.52
572.506	5470.12
572.71	5345.2
572.914	5003.19
573.119	5025.72
573.323	5707.69
573.527	5607.34
573.731	5029.81
573.935	5003.19
574.139	5451.69
574.343	5175.22
574.547	5164.98
574.751	5066.67
574.955	5504.94
575.159	5707.69
575.364	5273.52
575.568	5033.91
575.772	5406.64
575.976	5754.79
576.18	5064.63
576.383	4939.7
576.587	5760.94
576.791	5451.69
576.995	4849.59
577.199	4902.84
577.403	5744.55
577.607	5765.03
577.811	5083.06
578.015	5306.29
578.219	5599.15
578.422	5730.22
578.626	5277.62
578.83	5607.34
579.034	5762.98
579.238	5541.8
579.442	5265.33
579.645	5609.39
579.849	5566.38
580.053	5566.38
580.257	5341.1
580.46	5380.01
580.664	5988.26
580.868	5652.39
581.071	5396.4
581.275	5353.39
581.479	5328.81
581.682	5750.7
581.886	5269.42
582.09	5369.77
582.293	5781.42
582.497	5996.45
582.7	5603.24
582.904	5310.38
583.107	5554.09
583.311	5599.15
583.515	5404.59
583.718	5439.4
583.922	5885.86
584.125	6172.58
584.329	5314.48
584.532	5429.17
584.735	6051.75
584.939	5892.01
585.142	5275.57
585.346	5259.18
585.549	5803.94
585.753	5584.81
585.956	5410.73
586.159	5476.27
586.363	5988.26
586.566	5910.44
586.769	5328.81
586.973	5349.29
587.176	6010.79
587.379	6025.12
587.582	5762.98
587.786	5689.26
587.989	5894.05
588.192	6498.2
588.395	5636.01
588.599	5992.36
588.802	5982.12
589.005	6074.28
589.208	5558.19
589.411	5722.02
589.615	6219.68
589.818	6252.45
590.021	5961.64
590.224	5812.14
590.427	6143.91
590.63	6057.89
590.833	5611.43
591.036	5588.91
591.239	5984.16
591.442	5771.18
591.645	6008.74
591.848	5693.35
592.051	6170.53
592.254	6174.63
592.457	5857.19
592.66	5853.09
592.863	6123.43
593.066	6160.29
593.269	5805.99
593.472	5910.44
593.675	5969.83
593.878	6352.8
594.081	5967.78
594.284	5576.62
594.486	6381.47
594.689	6148
594.892	5830.57
595.095	5904.29
595.298	6377.37
595.5	5930.92
595.703	6082.47
595.906	6064.04
596.109	6410.14
596.311	6426.53
596.514	5746.6
596.717	6010.79
596.92	6659.99
597.122	6385.57
597.325	5697.45
597.528	5918.63
597.73	6614.94
597.933	6219.68
598.136	5898.15
598.338	5640.11
598.541	6401.95
598.743	6563.74
598.946	5926.82
599.148	6270.88
599.351	6633.37
599.554	6590.36
599.756	6201.25
599.959	5957.54
600.161	6670.23
600.363	7034.77
600.566	6496.16
600.768	6049.7
600.971	6731.67
601.173	6635.42
601.376	6188.96
601.578	6240.16
601.78	6447.01
601.983	6891.41
602.185	6066.08
602.388	6215.59
602.59	6621.08
602.792	6401.95
602.995	6356.89
603.197	5961.64
603.399	6637.47
603.601	6741.91
603.804	5920.68
604.006	5941.16
604.208	6373.28
604.41	6225.82
604.613	6473.63
604.815	6254.5
605.017	6971.29
605.219	6330.27
605.421	6416.29
605.623	6379.42
605.826	6930.33
606.028	6891.41
606.23	6256.54
606.432	6401.95
606.634	6848.41
606.836	6952.85
607.038	6168.48
607.24	6317.98
607.442	6645.66
607.644	6590.36
607.846	6389.66
608.048	6270.88
608.25	6748.06
608.452	6330.27
608.654	6479.77
608.856	6076.32
609.058	6549.4
609.26	6741.91
609.462	6410.14
609.664	6492.06
609.866	7028.63
610.067	6696.86
610.269	6244.26
610.471	6207.39
610.673	6485.92
610.875	6819.74
611.077	6043.56
611.278	6299.55
611.48	6770.58
611.682	7034.77
611.884	6377.37
612.085	6254.5
612.287	6502.3
612.489	6680.47
612.69	6162.34
612.892	6148
613.094	6872.98
613.295	6686.62
613.497	6309.79
613.699	6332.32
613.9	7014.29
614.102	6868.89
614.304	6471.58
614.505	6150.05
614.707	6739.87
614.908	6600.6
615.11	6150.05
615.311	6395.81
615.513	6930.33
615.714	6860.7
615.916	6195.11
616.117	6438.81
616.319	6758.3
616.52	6782.87
616.722	6229.92
616.923	6369.18
617.124	7045.01
617.326	6688.67
617.527	6520.73
617.729	6518.68
617.93	6920.09
618.131	6791.06
618.333	6418.33
618.534	6453.15
618.735	6668.19
618.937	6973.33
619.138	6225.82
619.339	6287.26
619.54	6797.21
619.742	6733.72
619.943	6580.12
620.144	6524.83
620.345	6969.24
620.546	6819.74
620.748	6324.13
620.949	6545.31
621.15	6760.34
621.351	6639.51
621.552	6344.61
621.753	6191.01
621.954	6518.68
622.155	7241.62
622.356	6188.96
622.558	6616.99
622.759	6625.18
622.96	7368.59
623.161	6561.69
623.362	6522.78
623.563	6770.58
623.764	6911.89
623.965	6696.86
624.166	6696.86
624.366	6539.16
624.567	6860.7
624.768	6170.53
624.969	6479.77
625.17	6563.74
625.371	6854.55
625.572	6336.42
625.773	6352.8
625.973	6963.09
626.174	7024.53
626.375	6573.98
626.576	6700.95
626.777	6932.37
626.977	7405.45
627.178	6518.68
627.379	6483.87
627.58	6893.46
627.78	6649.75
627.981	6672.28
628.182	6674.33
628.382	6997.91
628.583	6475.68
628.784	6606.75
628.984	6690.71
629.185	6973.33
629.386	6975.38
629.586	6590.36
629.787	6533.02
629.987	7061.4
630.188	6913.94
630.388	6596.51
630.589	6676.38
630.79	7544.72
630.99	7063.44
631.191	6795.16
631.391	6612.89
631.591	6872.98
631.792	7212.95
631.992	6875.03
632.193	6653.85
632.393	7346.06
632.594	6811.54
632.794	6514.59
632.994	6682.52
633.195	6766.49
633.395	6868.89
633.595	6631.32
633.796	6782.87
633.996	6893.46
634.196	7298.96
634.397	6518.68
634.597	6721.43
634.797	6983.57
634.997	7313.3
635.198	6832.02
635.398	6410.14
635.598	6981.53
635.798	7174.03
635.998	6991.77
636.199	6610.84
636.399	6829.98
636.599	6748.06
636.799	6700.95
636.999	6889.37
637.199	6995.86
637.399	7174.03
637.599	6590.36
637.799	6719.39
637.999	6799.26
638.199	7303.06
638.399	6598.56
638.599	6502.3
638.799	7268.24
638.999	7450.51
639.199	6995.86
639.399	6934.42
639.599	7413.65
639.799	6928.28
639.999	6668.19
640.199	6453.15
640.399	7024.53
640.599	6889.37
640.799	7004.05
640.998	7241.62
641.198	7483.28
641.398	7159.7
641.598	6989.72
641.798	6887.32
641.997	8091.52
642.197	7241.62
642.397	6915.99
642.597	6811.54
642.796	7327.63
642.996	7477.13
643.196	6870.94
643.395	6664.09
643.595	7294.86
643.795	6780.82
643.994	6864.79
644.194	6981.53
644.394	7301.01
644.593	7231.38
644.793	6844.31
644.992	7069.59
645.192	7301.01
645.392	6696.86
645.591	7167.89
645.791	6977.43
645.99	7475.09
646.19	7190.42
646.389	6950.81
646.589	6895.51
646.788	7468.94
646.987	7227.28
647.187	7524.24
647.386	7149.46
647.586	7092.12
647.785	7569.29
647.984	7114.64
648.184	6934.42
648.383	7124.88
648.582	7071.64
648.782	7116.69
648.981	7024.53
649.18	6942.61
649.38	7198.61
649.579	6748.06
649.778	7018.39
649.977	7389.07
650.177	7360.4
650.376	6893.46
650.575	6827.93
650.774	7655.31
650.973	7124.88
651.173	6817.69
651.372	6885.27
651.571	7235.47
651.77	7483.28
651.969	7024.53
652.168	7249.81
652.367	7245.71
652.566	7368.59
652.765	7155.6
652.964	7370.64
653.163	7892.87
653.362	7288.72
653.561	7190.42
653.76	7061.4
653.959	7364.5
654.158	7667.6
654.357	7231.38
654.556	7012.24
654.755	7634.83
654.954	7522.19
655.153	7061.4
655.352	7212.95
655.551	7600.01
655.749	7384.98
655.948	7229.33
656.147	7157.65
656.346	7389.07
656.545	7210.9
656.743	7266.19
656.942	7081.88
657.141	7522.19
657.34	7354.26
657.538	7161.75
657.737	7249.81
657.936	7305.1
658.135	7403.41
658.333	7231.38
658.532	7344.02
658.731	8017.8
658.929	7708.55
659.128	7565.2
659.326	7204.75
659.525	7813
659.724	7475.09
659.922	7026.58
660.121	7028.63
660.319	7389.07
660.518	7190.42
660.716	6926.23
660.915	6999.96
661.113	7835.53
661.312	7258
661.51	7346.06
661.709	7024.53
661.907	7540.62
662.105	7944.07
662.304	7223.19
662.502	7233.43
662.701	7913.35
662.899	7468.94
663.097	7503.76
663.296	6959
663.494	7622.54
663.692	7753.61
663.891	7202.71
664.089	7061.4
664.287	7626.64
664.485	7647.12
664.684	7176.08
664.882	7518.09
665.08	7401.36
665.278	7518.09
665.476	7073.68
665.675	7430.03
665.873	7923.59
666.071	7696.27
666.269	6924.18
666.467	7319.44
666.665	7597.96
666.863	7548.81
667.061	7329.68
667.259	7020.44
667.457	7341.97
667.655	7729.03
667.853	6995.86
668.051	7296.91
668.249	7206.8
668.447	7737.23
668.645	7077.78
668.843	7311.25
669.041	7483.28
669.239	7327.63
669.437	7282.58
669.635	7374.74
669.833	7366.54
670.031	7749.51
670.229	7264.15
670.426	7223.19
670.624	7245.71
670.822	7198.61
671.02	7288.72
671.218	7192.47
671.415	7137.17
671.613	7464.85
671.811	7384.98
672.009	7223.19
672.206	7712.65
672.404	7548.81
672.602	7405.45
672.799	7423.89
672.997	7679.88
673.195	7673.74
673.392	7315.34
673.59	6877.08
673.788	7579.53
673.985	6983.57
674.183	7118.74
674.38	7270.29
674.578	7470.99
674.775	7061.4
674.973	6995.86
675.17	7073.68
675.368	7776.14
675.565	7419.79
675.763	7147.41
675.96	7124.88
676.158	7731.08
676.355	7280.53
676.553	7307.15
676.75	7247.76
676.947	7475.09
677.145	7243.67
677.342	7413.65
677.539	7479.18
677.737	7440.27
677.934	7802.76
678.131	7296.91
678.329	7047.06
678.526	7794.57
678.723	7528.33
678.92	7206.8
679.118	7012.24
679.315	7149.46
679.512	7661.45
679.709	7247.76
679.906	7233.43
680.104	7704.46
680.301	7294.86
680.498	6989.72
680.695	7126.93
680.892	7368.59
681.089	7194.51
681.286	7221.14
681.483	6979.48
681.68	7466.89
681.877	7542.67
682.075	7258
682.272	7485.33
682.469	7296.91
682.665	7421.84
682.862	7049.11
683.059	6789.02
683.256	7397.26
683.453	7450.51
683.65	7141.27
683.847	7372.69
684.044	7470.99
684.241	7100.31
684.438	7331.73
684.635	6959
684.831	7651.21
685.028	7804.81
685.225	6903.7
685.422	7133.08
685.619	7344.02
685.815	7307.15
686.012	7176.08
686.209	7147.41
686.405	7094.16
686.602	7475.09
686.799	6889.37
686.996	7141.27
687.192	7008.15
687.389	7567.24
687.586	7063.44
687.782	6870.94
687.979	7616.4
688.175	7630.73
688.372	7141.27
688.568	6975.38
688.765	7002.01
688.962	7561.1
689.158	7165.84
689.355	6711.19
689.551	7401.36
689.748	7194.51
689.944	7014.29
690.14	6844.31
690.337	7376.78
690.533	7231.38
690.73	7077.78
690.926	7069.59
691.123	7368.59
691.319	7186.32
691.515	6891.41
691.712	7004.05
691.908	7366.54
692.104	7231.38
692.301	7053.2
692.497	6926.23
692.693	7317.39
692.889	7335.82
693.086	7092.12
693.282	6791.06
693.478	7053.2
693.674	7657.36
693.87	6786.97
694.067	6700.95
694.263	7233.43
694.459	6987.67
694.655	7088.02
694.851	7004.05
695.047	7231.38
695.243	7399.31
695.439	7051.16
695.635	6836.12
695.831	7491.47
696.027	7217.04
696.224	7014.29
696.42	7258
696.615	7554.96
696.811	7468.94
697.007	6946.71
697.203	6975.38
697.399	7022.48
697.595	7253.91
697.791	6866.84
697.987	6991.77
698.183	6858.65
698.379	6901.65
698.575	6934.42
698.77	6797.21
698.966	7245.71
699.162	7317.39
699.358	6977.43
699.554	6981.53
699.749	7245.71
699.945	7262.1
700.141	6856.6
700.337	6934.42
700.532	7049.11
700.728	6868.89
700.924	6844.31
701.119	6659.99
701.315	7188.37
701.511	6879.13
701.706	7204.75
701.902	6866.84
702.097	6991.77
702.293	6983.57
702.489	6789.02
702.684	6838.17
702.88	6973.33
703.075	6838.17
703.271	6647.71
703.466	6561.69
703.662	6926.23
703.857	7065.49
704.053	6674.33
704.248	6768.54
704.443	7157.65
704.639	7278.48
704.834	6959
705.03	6668.19
705.225	6963.09
705.42	7237.52
705.616	6909.85
705.811	6770.58
706.006	7038.87
706.202	6905.75
706.397	6789.02
706.592	6713.24
706.787	7081.88
706.983	6952.85
707.178	7028.63
707.373	6821.78
707.568	6954.9
707.763	7194.51
707.959	6803.35
708.154	6786.97
708.349	6895.51
708.544	6926.23
708.739	6772.63
708.934	6444.96
709.129	7165.84
709.324	7286.67
709.519	6578.08
709.714	6594.46
709.909	7278.48
710.104	6952.85
710.299	6825.88
710.494	6760.34
710.689	6969.24
710.884	7020.44
711.079	6848.41
711.274	6909.85
711.469	6924.18
711.664	7110.55
711.859	6600.6
712.054	6688.67
712.249	7045.01
712.443	7204.75
712.638	6602.65
712.833	6641.56
713.028	6827.93
713.223	6827.93
713.417	6850.46
713.612	6610.84
713.807	7081.88
714.002	7606.16
714.196	6803.35
714.391	6600.6
714.586	7002.01
714.78	6967.19
714.975	6623.13
715.17	6508.44
715.364	6793.11
715.559	7024.53
715.754	6209.44
715.948	6354.85
716.143	7176.08
716.337	6883.22
716.532	6864.79
716.726	6578.08
716.921	6887.32
717.115	7069.59
717.31	6287.26
717.504	7004.05
717.699	6690.71
717.893	7126.93
718.088	6598.56
718.282	6559.64
718.476	6764.44
718.671	6594.46
718.865	6698.91
719.059	6373.28
719.254	6684.57
719.448	7098.26
719.642	7868.3
719.837	6072.23
720.031	6805.4
720.225	6934.42
720.419	6549.4
720.614	6262.69
720.808	6897.56
721.002	6598.56
721.196	6461.34
721.39	6444.96
721.585	6920.09
721.779	6737.82
721.973	6557.6
722.167	6258.59
722.361	6709.15
722.555	6840.22
722.749	6430.62
722.943	6490.01
723.137	6410.14
723.331	6655.9
723.525	6461.34
723.719	6328.22
723.913	6965.14
724.107	7024.53
724.301	6090.66
724.495	6369.18
724.689	6999.96
724.883	6897.56
725.077	6264.74
725.271	6434.72
725.465	6889.37
725.659	6717.34
725.853	6655.9
726.046	6209.44
726.24	6471.58
726.434	6909.85
726.628	6172.58
726.822	6418.33
727.015	6969.24
727.209	6836.12
727.403	6494.11
727.596	6383.52
727.79	7002.01
727.984	7038.87
728.177	6389.66
728.371	6465.44
728.565	6768.54
728.758	6307.74
728.952	6145.95
729.146	6328.22
729.339	6950.81
729.533	6733.72
729.726	6250.4
729.92	6295.46
730.113	6819.74
730.307	6692.76
730.5	6111.14
730.694	6369.18
730.887	6506.4
731.081	6766.49
731.274	6299.55
731.468	6416.29
731.661	6631.32
731.854	6627.23
732.048	6311.84
732.241	6283.17
732.435	6449.05
732.628	6414.24
732.821	6344.61
733.014	6344.61
733.208	6383.52
733.401	6688.67
733.594	6326.18
733.788	6387.61
733.981	6860.7
734.174	6809.5
734.367	6156.19
734.56	6373.28
734.754	6743.96
734.947	6672.28
735.14	6207.39
735.333	6401.95
735.526	6885.27
735.719	6510.49
735.912	6344.61
736.105	6340.51
736.298	6614.94
736.491	6317.98
736.684	6143.91
736.877	6274.98
737.07	6750.11
737.263	6930.33
737.456	6111.14
737.649	6160.29
737.842	6406.05
738.035	6500.25
738.228	6268.83
738.421	6254.5
738.614	6936.47
738.807	6713.24
739	5939.11
739.192	6207.39
739.385	6688.67
739.578	6686.62
739.771	6625.18
739.964	6205.35
740.156	6573.98
740.349	6399.9
740.542	6338.46
740.735	6113.19
740.927	6102.95
741.12	6360.99
741.313	6162.34
741.505	6238.11
741.698	6416.29
741.891	6645.66
742.083	6385.57
742.276	6160.29
742.468	6510.49
742.661	6426.53
742.854	6166.43
743.046	6016.93
743.239	6858.65
743.431	6397.85
743.624	6088.61
743.816	6090.66
744.009	6404
744.201	6545.31
744.393	6477.73
744.586	6086.56
744.778	6737.82
744.971	6328.22
745.163	6025.12
745.355	6315.94
745.548	6344.61
745.74	6211.49
745.932	6188.96
746.125	6188.96
746.317	6799.26
746.509	6313.89
746.702	6201.25
746.894	6369.18
747.086	6424.48
747.278	6862.74
747.471	6498.2
747.663	6172.58
747.855	6342.56
748.047	6791.06
748.239	6115.23
748.431	6258.59
748.623	6940.57
748.815	6791.06
749.008	6076.32
749.2	5900.2
749.392	6619.03
749.584	6410.14
749.776	6360.99
749.968	6324.13
750.16	6875.03
750.352	6336.42
750.544	6096.8
750.736	6035.36
750.928	6410.14
751.12	6588.32
751.311	5961.64
751.503	6141.86
751.695	6424.48
751.887	6281.12
752.079	5844.9
752.271	6152.1
752.463	6887.32
752.654	6477.73
752.846	6170.53
753.038	6117.28
753.23	6266.78
753.421	6580.12
753.613	6021.03
753.805	6240.16
753.997	6494.11
754.188	6530.97
754.38	5975.97
754.572	6215.59
754.763	6227.87
754.955	6473.63
755.146	6115.23
755.338	6068.13
755.53	6307.74
755.721	6340.51
755.913	5937.06
756.104	5992.36
756.296	5998.5
756.487	6473.63
756.679	5758.89
756.87	5914.53
757.062	6023.08
757.253	6379.42
757.445	6029.22
757.636	5894.05
757.827	6320.03
758.019	6743.96
758.21	5732.26
758.401	5885.86
758.593	6457.25
758.784	6358.94
758.975	5738.41
759.167	5916.58
759.358	6342.56
759.549	6416.29
759.74	5832.61
759.932	5808.04
760.123	6457.25
760.314	6115.23
760.505	6023.08
760.696	5836.71
760.888	6703
761.079	6113.19
761.27	5765.03
761.461	5640.11
761.652	6428.57
761.843	5937.06
762.034	5906.34
762.225	6143.91
762.416	6018.98
762.607	6141.86
762.798	5861.29
762.989	5885.86
763.18	6860.7
763.371	5797.8
763.562	5810.09
763.753	5805.99
763.944	6434.72
764.135	6221.73
764.326	5959.59
764.517	5730.22
764.708	5967.78
764.899	6086.56
765.089	5535.66
765.28	5435.31
765.471	6068.13
765.662	6281.12
765.853	5816.23
766.043	5595.05
766.234	6283.17
766.425	6234.02
766.615	5724.07
766.806	5609.39
766.997	5894.05
767.187	5879.72
767.378	5568.43
767.569	5402.54
767.759	6037.41
767.95	5851.05
768.141	5820.33
768.331	5529.52
768.522	5742.5
768.712	6016.93
768.903	5361.58
769.093	5324.72
769.284	6217.63
769.474	5894.05
769.665	5439.4
769.855	5429.17
770.046	5988.26
770.236	5601.19
770.426	5693.35
770.617	5570.47
770.807	5861.29
770.998	5717.93
771.188	5636.01
771.378	5361.58
771.569	5783.46
771.759	5857.19
771.949	5328.81
772.139	5332.91
772.33	5685.16
772.52	5869.48
772.71	5343.15
772.9	5318.57
773.09	6109.09
773.281	5969.83
773.471	5400.49
773.661	5291.95
773.851	6043.56
774.041	5468.08
774.231	5224.37
774.421	5433.26
774.611	6182.82
774.802	5617.58
774.992	5451.69
775.182	5142.45
775.372	5711.78
775.562	5762.98
775.752	5394.35
775.942	5207.98
776.131	6014.88
776.321	5779.37
776.511	5484.46
776.701	4954.04
776.891	5865.38
777.081	5390.25
777.271	5285.81
777.461	5214.13
777.651	5722.02
777.84	5795.75
778.03	5269.42
778.22	5261.23
778.41	5840.81
778.599	5320.62
778.789	5320.62
778.979	5126.07
779.169	5547.95
779.358	5492.65
779.548	5541.8
779.738	4995
779.927	5691.31
780.117	5121.97
780.307	5283.76
780.496	4999.09
780.686	5652.39
780.875	5803.94
781.065	5177.26
781.254	5023.67
781.444	5359.53
781.633	5488.56
781.823	5021.62
782.012	5058.48
782.202	5326.77
782.391	5517.23
782.581	4855.73
782.77	5212.08
782.96	5568.43
783.149	5320.62
783.338	4984.76
783.528	4808.63
783.717	5722.02
783.906	5769.13
784.096	5226.42
784.285	5052.34
784.474	5201.84
784.663	5083.06
784.853	5058.48
785.042	5126.07
785.231	5193.65
785.42	5642.15
785.61	5078.96
785.799	4724.66
785.988	5095.35
786.177	5140.4
786.366	5218.22
786.555	5308.34
786.744	5433.26
786.933	5279.66
787.122	4880.31
787.312	5015.48
787.501	5171.12
787.69	5504.94
787.879	4968.37
788.068	4945.84
788.257	4886.45
788.445	4964.28
788.634	5007.28
788.823	4695.99
789.012	5719.98
789.201	5373.87
789.39	4837.3
789.579	4804.53
789.768	5124.02
789.957	5095.35
790.145	4630.46
790.334	4599.74
790.523	5183.41
790.712	5013.43
790.9	4812.73
791.089	4644.79
791.278	5269.42
791.467	5111.73
791.655	5005.24
791.844	5236.66
792.033	4865.97
792.221	4947.89
792.41	4812.73
792.599	4612.03
792.787	5244.85
792.976	5117.87
793.164	4474.81
793.353	4739
793.541	5222.32
793.73	5138.35
793.918	4917.17
794.107	4845.49
794.295	4956.08
794.484	4911.03
794.672	4796.34
794.861	4601.79
795.049	5107.63
795.238	5461.93
795.426	4499.39
795.614	4730.81
795.803	4970.42
795.991	5279.66
796.179	4681.66
796.368	4634.55
796.556	5126.07
796.744	4714.42
796.932	4755.38
797.121	4569.02
797.309	4788.15
797.497	5164.98
797.685	4691.9
797.874	4640.7
798.062	4911.03
798.25	5234.61
798.438	4489.15
798.626	4636.6
798.814	4964.28
799.002	5308.34
799.19	4782.01
799.378	4913.08
799.566	5339.05
799.755	5244.85
799.943	4820.92
800.131	4657.08
800.318	4949.94
800.506	5273.52
800.694	4607.93
800.882	4722.62
801.07	5218.22
801.258	4790.2
801.446	4683.7
801.634	4695.99
801.822	4956.08
802.01	4827.06
802.197	4607.93
802.385	4763.58
802.573	5042.1
802.761	4751.29
802.949	4652.98
803.136	4405.18
803.324	5244.85
803.512	5138.35
803.699	4706.23
803.887	4513.72
804.075	5302.19
804.262	4755.38
804.45	4526.01
804.638	4720.57
804.825	4736.95
805.013	4739
805.201	4743.1
805.388	4513.72
805.576	4870.07
805.763	5332.91
805.951	4573.11
806.138	4667.32
806.326	5199.79
806.513	5042.1
806.701	4700.09
806.888	4691.9
807.075	5072.82
807.263	5279.66
807.45	4681.66
807.638	4759.48
807.825	5468.08
808.012	5091.25
808.2	4689.85
808.387	4972.47
808.574	5033.91
808.761	5443.5
808.949	4675.51
809.136	4839.35
809.323	4935.6
809.51	5058.48
809.698	5128.11
809.885	4835.25
810.072	4929.46
810.259	5181.36
810.446	4800.44
810.633	4607.93
810.82	5160.88
811.008	5414.83
811.195	4935.6
811.382	4779.96
811.569	5060.53
811.756	4644.79
811.943	4876.21
812.13	4706.23
812.317	4837.3
812.504	5005.24
812.691	4865.97
812.878	4822.97
813.064	5500.84
813.251	5134.26
813.438	4517.82
813.625	4870.07
813.812	4904.89
813.999	5093.3
814.186	4825.01
814.372	4573.11
814.559	4898.74
814.746	5392.3
814.933	4765.62
815.12	5005.24
815.306	5029.81
815.493	4730.81
815.68	4835.25
815.866	4802.49
816.053	5328.81
816.24	5449.64
816.426	4812.73
816.613	4751.29
816.799	5478.32
816.986	5498.8
817.173	4861.88
817.359	4779.96
817.546	5068.72
817.732	4650.94
817.919	4632.51
818.105	4894.65
818.292	4958.13
818.478	5242.8
818.665	4861.88
818.851	4777.91
819.037	5482.41
819.224	5005.24
819.41	4560.83
819.597	4569.02
819.783	5418.93
819.969	5040.05
820.156	4597.69
820.342	4489.15
820.528	5824.42
820.714	4765.62
820.901	4919.22
821.087	4622.27
821.273	5316.53
821.459	4769.72
821.646	4558.78
821.832	4652.98
822.018	4878.26
822.204	4956.08
822.39	4657.08
822.576	4501.44
822.762	5052.34
822.948	5091.25
823.134	4921.27
823.32	4519.87
823.507	4523.96
823.693	5027.76
823.879	5048.24
824.065	4521.91
824.25	5119.92
824.436	4579.26
824.622	4585.4
824.808	4564.92
824.994	4620.22
825.18	4667.32
825.366	4366.27
825.552	4452.28
825.738	4714.42
825.923	4906.93
826.109	4698.04
826.295	4333.5
826.481	4851.64
826.667	4599.74
826.852	4657.08
827.038	4530.11
827.224	4966.32
827.409	5199.79
827.595	4429.76
827.781	4566.97
827.966	5099.44
828.152	5128.11
828.338	4577.21
828.523	4210.62
828.709	4675.51
828.894	5238.7
829.08	4526.01
829.266	4413.37
829.451	4665.27
829.637	4997.04
829.822	4579.26
830.008	4421.56
830.193	5058.48
830.378	4945.84
830.564	4472.76
830.749	4456.38
830.935	4868.02
831.12	4800.44
831.305	4331.45
831.491	4640.7
831.676	4491.2
831.861	4882.36
832.047	4517.82
832.232	4337.6
832.417	4997.04
832.602	4759.48
832.788	4517.82
832.973	4304.83
833.158	4648.89
833.343	4800.44
833.528	4562.87
833.714	4530.11
833.899	4857.78
834.084	5058.48
834.269	4476.86
834.454	4491.2
834.639	4935.6
834.824	4652.98
835.009	4605.88
835.194	4624.31
835.379	4829.11
835.564	5001.14
835.749	4552.63
835.934	4171.71
836.119	4777.91
836.304	4648.89
836.489	4313.02
836.674	4618.17
836.859	4190.14
837.044	4913.08
837.228	4362.17
837.413	4233.15
837.598	4687.8
837.783	4829.11
837.968	4435.9
838.152	4071.36
838.337	4140.99
838.522	4896.69
838.707	4863.93
838.891	4456.38
839.076	4589.5
839.261	4741.05
839.445	4374.46
839.63	4274.11
839.815	4898.74
839.999	4394.94
840.184	4235.2
840.368	4235.2
840.553	4724.66
840.737	4687.8
840.922	4054.98
841.106	4186.05
841.291	4206.53
841.475	4620.22
841.66	4085.7
841.844	4302.78
842.029	5300.14
842.213	4237.25
842.397	4147.14
842.582	3858.37
842.766	4876.21
842.951	4659.13
843.135	4122.56
843.319	4261.82
843.504	4440
843.688	4890.55
843.872	3841.99
844.056	4067.27
844.241	4577.21
844.425	4327.36
844.609	4489.15
844.793	4079.55
844.977	4751.29
845.161	4536.25
845.346	3983.3
845.53	4071.36
845.714	4415.42
845.898	4763.58
846.082	3805.13
846.266	4083.65
846.45	4319.17
846.634	4526.01
846.818	4026.31
847.002	4233.15
847.186	4583.35
847.37	4075.46
847.554	3954.63
847.738	4173.76
847.922	4345.79
848.106	4558.78
848.29	3844.04
848.473	3921.86
848.657	4310.97
848.841	4272.06
849.025	4097.99
849.209	3762.12
849.392	4536.25
849.576	4401.08
849.76	3823.56
849.944	3960.77
850.127	4665.27
850.311	3932.1
850.495	3737.54
850.678	3835.85
850.862	4636.6
851.046	4650.94
851.229	4222.91
851.413	3833.8
851.596	4227.01
851.78	4241.34
851.964	3897.28
852.147	3880.9
852.331	4902.84
852.514	4384.7
852.698	4108.23
852.881	3698.63
853.065	4413.37
853.248	3944.39
853.431	3821.51
853.615	4120.51
853.798	4710.33
853.982	4120.51
854.165	3991.49
854.348	3727.3
854.532	3964.87
854.715	3930.05
854.898	3749.83
855.081	3717.06
855.265	4267.97
855.448	4513.72
855.631	3706.82
855.814	3870.66
855.997	4181.95
856.181	3952.58
856.364	3856.33
856.547	3647.43
856.73	4093.89
856.913	3971.01
857.096	3717.06
857.279	3758.02
857.462	3743.69
857.645	4204.48
857.828	3928
858.011	3737.54
858.194	4052.93
858.377	4124.61
858.56	3502.03
858.743	3758.02
858.926	3831.75
859.109	3876.8
859.292	3641.29
859.475	3506.12
859.658	4177.86
859.841	4118.47
860.023	3618.76
860.206	3639.24
860.389	4009.92
860.572	4351.93
860.755	3592.14
860.937	3776.45
861.12	3954.63
861.303	3903.43
861.486	3678.15
861.668	3674.06
861.851	4081.6
862.034	3893.19
862.216	3731.4
862.399	3461.07
862.581	4001.73
862.764	4249.54
862.947	3579.85
863.129	3602.38
863.312	3518.41
863.494	4188.1
863.677	3815.37
863.859	3307.47
864.042	4032.45
864.224	4310.97
864.406	3469.26
864.589	3418.06
864.771	3841.99
864.954	3356.62
865.136	3385.29
865.318	3317.71
865.501	3895.24
865.683	3262.41
865.865	3487.69
866.048	3321.81
866.23	3813.32
866.412	3719.11
866.594	3256.27
866.777	3528.65
866.959	3858.37
867.141	3600.33
867.323	3698.63
867.505	3637.19
867.687	3639.24
867.869	3690.44
868.052	3518.41
868.234	3354.57
868.416	3755.97
868.598	3915.72
868.78	3473.35
868.962	3418.06
869.144	4001.73
869.326	3930.05
869.508	3479.5
869.69	3344.33
869.872	3608.52
870.054	3846.09
870.236	3317.71
870.417	3379.15
870.599	3657.67
870.781	3977.16
870.963	3469.26
871.145	3272.65
871.327	3375.05
871.508	3919.81
871.69	3489.74
871.872	3364.81
872.054	3596.23
872.235	3839.94
872.417	3514.31
872.599	3301.33
872.78	4190.14
872.962	3706.82
873.144	3237.84
873.325	3375.05
873.507	4087.75
873.689	3602.38
873.87	3205.07
874.052	3465.16
874.233	3758.02
874.415	3940.29
874.596	3338.19
874.778	3366.86
874.959	3690.44
875.141	3897.28
875.322	3309.52
875.503	3166.16
875.685	3788.74
875.866	3178.45
876.048	3344.33
876.229	3182.54
876.41	3504.07
876.592	3624.9
876.773	3442.64
876.954	3231.69
877.136	4069.31
877.317	3450.83
877.498	3022.8
877.679	3518.41
877.86	3766.21
878.042	3706.82
878.223	3198.93
878.404	3684.3
878.585	4003.78
878.766	4155.33
878.947	3585.99
879.128	3508.17
879.309	3788.74
879.49	3872.71
879.672	3407.82
879.853	3266.51
880.034	3338.19
880.215	3614.66
880.396	3444.68
880.576	3461.07
880.757	3448.78
880.938	3997.64
881.119	3293.13
881.3	3289.04
881.481	3366.86
881.662	4571.07
881.843	3362.76
882.023	3211.22
882.204	3846.09
882.385	3729.35
882.566	3301.33
882.747	3332.05
882.927	3622.86
883.108	3925.96
883.289	3299.28
883.469	3616.71
883.65	3719.11
883.831	3755.97
884.011	3545.03
884.192	3467.21
884.373	4112.32
884.553	3995.59
884.734	3602.38
884.914	3706.82
885.095	4499.39
885.275	4224.96
885.456	3829.7
885.636	3413.96
885.817	3719.11
885.997	3796.93
886.178	3495.88
886.358	3606.47
886.538	3821.51
886.719	4931.51
886.899	3442.64
887.08	3629
887.26	4110.27
887.44	3618.76
887.621	3438.54
887.801	3608.52
887.981	4407.23
888.161	3870.66
888.342	3641.29
888.522	3502.03
888.702	4038.59
888.882	4315.07
889.062	3612.62
889.242	3456.97
889.423	4106.18
889.603	4077.51
889.783	3805.13
889.963	3463.12
890.143	4116.42
890.323	4245.44
890.503	3563.47
890.683	3688.39
890.863	3864.52
891.043	3899.33
891.223	3872.71
891.403	3878.85
891.583	3882.95
891.763	3932.1
891.943	3723.21
892.122	3514.31
892.302	3895.24
892.482	3878.85
892.662	3547.08
892.842	3710.92
893.022	3880.9
893.201	3762.12
893.381	3788.74
893.561	3641.29
893.741	4065.22
893.92	3956.68
894.1	3665.86
894.28	3704.78
894.459	4100.03
894.639	3938.24
894.819	3616.71
894.998	3669.96
895.178	4095.94
895.357	3966.92
895.537	3465.16
895.716	3409.87
895.896	3909.57
896.075	4272.06
896.255	3626.95
896.434	3332.05
896.614	4140.99
896.793	4124.61
896.973	3680.2
897.152	3651.53
897.331	3786.69
897.511	3854.28
897.69	3239.89
897.87	3585.99
898.049	4054.98
898.228	3753.93
898.407	3629
898.587	3645.38
898.766	3561.42
898.945	3901.38
899.124	3645.38
899.304	3430.35
899.483	3919.81
899.662	4208.58
899.841	3442.64
900.02	3370.96
900.199	4052.93
900.378	3833.8
900.557	3229.65
900.737	3280.85
900.916	3864.52
901.095	3823.56
901.274	3659.72
901.453	3319.76
901.632	3268.56
901.811	3274.7
901.989	3137.49
902.168	3225.55
902.347	3839.94
902.526	3604.43
902.705	3248.08
902.884	3420.11
903.063	3895.24
903.242	3962.82
903.42	3266.51
903.599	3422.16
903.778	3813.32
903.957	3835.85
904.135	3379.15
904.314	3291.09
904.493	3538.89
904.672	3669.96
904.85	3207.12
905.029	3217.36
905.207	3430.35
905.386	4083.65
905.565	2914.26
905.743	3033.04
905.922	3196.88
906.1	3575.75
906.279	2942.93
906.457	2990.03
906.636	3186.64
906.814	3207.12
906.993	2949.07
907.171	3018.71
907.35	3403.72
907.528	3461.07
907.707	3102.67
907.885	2955.22
908.063	3551.18
908.242	3018.71
908.42	2899.92
908.598	2758.61
908.777	3338.19
908.955	2994.13
909.133	3069.91
909.311	2832.34
909.49	3182.54
909.668	3078.1
909.846	2752.47
910.024	2729.94
910.202	3157.97
910.38	3313.61
910.559	2709.46
910.737	2834.39
910.915	3229.65
911.093	3272.65
911.271	3024.85
911.449	3149.78
911.627	3379.15
911.805	3692.49
911.983	2936.79
912.161	3012.56
912.339	3303.37
912.517	3612.62
912.695	3405.77
912.872	3035.09
913.05	3043.28
913.228	3524.55
913.406	3010.51
913.584	2940.88
913.762	3571.66
913.939	3225.55
914.117	3047.38
914.295	2955.22
914.473	3540.94
914.65	3387.34
914.828	3006.42
915.006	2940.88
915.184	3061.71
915.361	3438.54
915.539	3074
915.716	3256.27
915.894	3344.33
916.072	3508.17
916.249	3207.12
916.427	3139.54
916.604	3063.76
916.782	3237.84
916.959	2883.54
917.137	3051.47
917.314	3252.17
917.492	3444.68
917.669	3035.09
917.847	2994.13
918.024	3235.79
918.201	3055.57
918.379	3110.86
918.556	2975.7
918.733	3434.44
918.911	3080.14
919.088	2955.22
919.265	2979.79
919.442	3178.45
919.62	3030.99
919.797	2832.34
919.974	2791.38
920.151	3207.12
920.328	3162.06
920.506	2826.2
920.683	3164.11
920.86	3063.76
921.037	3125.2
921.214	2922.45
921.391	2969.55
921.568	3299.28
921.745	2744.28
921.922	2877.4
922.099	2854.87
922.276	3411.92
922.453	3219.41
922.63	2822.1
922.807	3186.64
922.984	3264.46
923.161	2912.21
923.338	2936.79
923.514	2752.47
923.691	3137.49
923.868	3184.59
924.045	2731.99
924.222	2754.52
924.399	3078.1
924.575	3344.33
924.752	2850.77
924.929	2992.08
925.105	3153.87
925.282	2856.92
925.459	2750.42
925.635	2856.92
925.812	3123.15
925.989	2854.87
926.165	2924.5
926.342	2564.06
926.518	2731.99
926.695	3020.75
926.871	2680.79
927.048	2572.25
927.224	3325.9
927.401	2832.34
927.577	2654.17
927.754	2641.88
927.93	3174.35
928.107	3264.46
928.283	2701.27
928.459	2658.26
928.636	2981.84
928.812	2813.91
928.988	2547.67
929.165	2514.91
929.341	2891.73
929.517	2912.21
929.693	2951.12
929.87	2408.41
930.046	3014.61
930.222	2691.03
930.398	2453.47
930.574	2568.15
930.751	2881.49
930.927	2633.69
931.103	2543.58
931.279	2574.3
931.455	2486.23
931.631	2881.49
931.807	2285.53
931.983	2289.63
932.159	2367.45
932.335	2775
932.511	2502.62
932.687	2574.3
932.863	2629.59
933.039	2523.1
933.215	2240.48
933.391	2242.53
933.566	2523.1
933.742	2594.78
933.918	2437.08
934.094	2095.07
934.27	2623.45
934.445	2584.54
934.621	2396.12
934.797	2109.41
934.973	2674.65
935.148	2645.98
935.324	2150.37
935.5	1859.56
935.675	2609.11
935.851	2338.78
936.027	2144.22
936.202	2138.08
936.378	2318.3
936.553	2187.23
936.729	2404.32
936.904	1957.86
937.08	1863.65
937.255	1886.18
937.431	1775.59
937.606	1621.99
937.782	1884.13
937.957	2021.35
938.133	1791.97
938.308	1603.56
938.483	1931.23
938.659	1773.54
938.834	1734.63
939.009	1648.61
939.185	1783.78
939.36	1552.36
939.535	1171.44
939.71	1660.9
939.886	1941.47
940.061	1880.04
940.236	1677.29
940.411	1495.02
940.586	1945.57
940.761	1834.98
940.937	1431.53
941.112	1310.7
941.287	1671.14
941.462	1652.71
941.637	1277.93
941.812	1449.96
941.987	1587.18
942.162	1552.36
942.337	1353.71
942.512	1310.7
942.687	1736.68
942.862	1748.97
943.037	1165.29
943.212	1052.66
943.386	1468.39
943.561	1566.7
943.736	1447.91
943.911	1693.67
944.086	1697.77
944.26	1617.9
944.435	1267.69
944.61	1351.66
944.785	1748.97
944.959	2084.83
945.134	1441.77
945.309	1167.34
945.483	1255.4
945.658	1732.58
945.833	1075.18
946.007	1079.28
946.182	1929.19
946.357	1179.63
946.531	1304.56
946.706	1267.69
946.88	1066.99
947.055	1597.42
947.229	1335.28
947.404	1200.11
947.578	1763.3
947.752	1472.49
947.927	1191.92
948.101	1222.64
948.276	1535.98
948.45	1456.11
948.624	1429.48
948.799	1247.21
948.973	1646.57
949.147	1243.12
949.321	1353.71
949.496	1325.04
949.67	1818.6
949.844	1503.21
950.018	1359.85
950.193	1333.23
950.367	2107.36
950.541	1458.15
950.715	1384.43
950.889	1390.57
951.063	1460.2
951.237	1730.53
951.411	1077.23
951.585	1214.45
951.759	1736.68
951.933	1576.94
952.107	1308.65
952.281	1462.25
952.455	1900.52
952.629	1847.27
952.803	1232.88
952.977	1318.89
953.151	1865.7
953.325	1779.68
953.499	1662.95
953.672	1224.69
953.846	1478.63
954.02	1624.04
954.194	1175.53
954.368	1282.03
954.541	1763.3
954.715	1548.26
954.889	1519.59
955.062	1277.93
955.236	1562.6
955.41	1701.86
955.583	1697.77
955.757	1294.32
955.93	1662.95
956.104	1472.49
956.278	1392.62
956.451	1486.83
956.625	1839.08
956.798	2076.64
956.972	1703.91
957.145	1339.37
957.319	1740.77
957.492	1626.09
957.665	1691.62
957.839	1329.13
958.012	1769.45
958.185	1642.47
958.359	1443.82
958.532	1574.89
958.705	1781.73
958.879	1740.77
959.052	1503.21
959.225	1224.69
959.398	1589.22
959.572	1742.82
959.745	1562.6
959.918	1452.01
960.091	1662.95
960.264	1818.6
960.438	1279.98
960.611	1462.25
960.784	1988.58
960.957	1527.78
961.13	1910.75
961.303	1392.62
961.476	1673.19
961.649	1880.04
961.822	1392.62
961.995	1392.62
962.168	1769.45
962.341	1812.45
962.514	1415.15
962.686	1394.67
962.859	1830.88
963.032	1798.12
963.205	1429.48
963.378	1241.07
963.551	1769.45
963.723	1646.57
963.896	1523.69
964.069	1748.97
964.242	1617.9
964.414	1884.13
964.587	1439.72
964.76	1540.07
964.932	1660.9
965.105	1699.81
965.278	1472.49
965.45	1396.71
965.623	1789.92
965.795	1929.19
965.968	1400.81
966.14	1439.72
966.313	1581.03
966.485	1751.01
966.658	1327.08
966.83	1390.57
967.003	1863.65
967.175	1814.5
967.348	1449.96
967.52	1585.13
967.692	2060.26
967.865	1746.92
968.037	1378.28
968.209	1712.1
968.382	1697.77
968.554	1761.25
968.726	1404.91
968.898	1275.88
969.071	1712.1
969.243	1748.97
969.415	1439.72
969.587	1503.21
969.759	2113.5
969.932	1720.29
970.104	1402.86
970.276	1140.72
970.448	1441.77
970.62	1476.59
970.792	1509.35
970.964	1372.14
971.136	2039.78
971.308	1660.9
971.48	1279.98
971.652	1382.38
971.824	1884.13
971.996	1568.74
972.168	1402.86
972.339	1413.1
972.511	1843.17
972.683	1546.22
972.855	1531.88
973.027	1538.02
973.199	1621.99
973.37	1812.45
973.542	1531.88
973.714	1538.02
973.886	1519.59
974.057	1708.01
974.229	1232.88
974.401	1380.33
974.572	1431.53
974.744	1173.49
974.915	1284.08
975.087	1302.51
975.259	1859.56
975.43	1392.62
975.602	1325.04
975.773	1241.07
975.945	1363.95
976.116	1716.2
976.288	1228.78
976.459	1484.78
976.63	1437.67
976.802	1669.09
976.973	1218.54
977.145	1544.17
977.316	1933.28
977.487	1880.04
977.659	1472.49
977.83	1273.84
978.001	1839.08
978.172	1540.07
978.344	1234.93
978.515	1306.6
978.686	1243.12
978.857	1841.12
979.028	1208.3
979.2	1189.87
979.371	1773.54
979.542	1486.83
979.713	1359.85
979.884	882.67
980.055	1302.51
980.226	1437.67
980.397	1167.34
980.568	1185.77
980.739	1720.29
980.91	1341.42
981.081	1415.15
981.252	1093.62
981.423	1411.05
981.594	1603.56
981.765	1052.66
981.936	1196.01
982.106	1282.03
982.277	1722.34
982.448	1093.62
982.619	1355.76
982.79	1292.27
982.96	1609.7
983.131	1187.82
983.302	909.3
983.472	1359.85
983.643	1429.48
983.814	1279.98
983.984	1099.76
984.155	1339.37
984.326	1546.22
984.496	1228.78
984.667	1144.81
984.837	1163.25
985.008	1646.57
985.178	1361.9
985.349	1038.32
985.519	1329.13
985.69	1234.93
985.86	1118.19
986.031	1087.47
986.201	1363.95
986.371	1466.35
986.542	1011.7
986.712	833.52
986.882	1409
987.053	1456.11
987.223	1044.46
987.393	1101.81
987.563	1105.9
987.734	1427.43
987.904	1339.37
988.074	1058.8
988.244	1384.43
988.414	1118.19
988.585	956.4
988.755	999.41
988.925	1320.94
989.095	1695.72
989.265	919.54
989.435	999.41
989.605	1322.99
989.775	1456.11
989.945	1296.36
990.115	843.76
990.285	1224.69
990.455	1253.36
990.625	978.93
990.795	813.04
990.965	1540.07
991.134	1138.67
991.304	792.56
991.474	868.34
991.644	1259.5
991.814	1615.85
991.984	874.48
992.153	901.11
992.323	1089.52
992.493	1185.77
992.662	700.41
992.832	962.55
993.002	1185.77
993.171	1265.64
993.341	653.3
993.511	978.93
993.68	989.17
993.85	1259.5
994.019	724.98
994.189	743.41
994.358	1171.44
994.528	1030.13
994.697	446.46
994.867	694.26
995.036	1312.75
995.206	974.83
995.375	677.88
995.544	874.48
995.714	1245.16
995.883	968.69
996.052	993.26
996.222	532.47
996.391	1603.56
996.56	1114.09
996.73	688.12
996.899	579.58
997.068	1462.25
997.237	1036.27
997.406	729.08
997.576	589.82
997.745	1081.33
997.914	1019.89
998.083	579.58
998.252	759.8
998.421	978.93
998.59	845.81
998.759	632.82
998.928	446.46
999.097	1306.6
999.266	1118.19
999.435	835.57
999.604	495.61
999.773	1523.69
999.942	942.07
1000.111	487.42
1000.28	481.27
1000.448	759.8
1000.617	696.31
1000.786	821.24
1000.955	511.99
1001.124	1132.53
1001.292	1628.14
1001.461	618.49
1001.63	587.77
1001.798	1286.12
1001.967	1265.64
1002.136	419.83
1002.304	516.09
1002.473	964.59
1002.642	903.15
1002.81	536.57
1002.979	589.82
1003.147	1081.33
1003.316	1425.39
1003.484	493.56
1003.653	552.95
1003.821	1228.78
1003.99	790.52
1004.158	690.17
1004.327	669.69
1004.495	946.16
1004.663	663.54
1004.832	643.06
1005	374.78
1005.168	923.63
1005.337	770.04
1005.505	393.21
1005.673	659.45
1005.842	940.02
1006.01	940.02
1006.178	466.94
1006.346	440.31
1006.514	958.45
1006.683	1101.81
1006.851	534.52
1007.019	507.9
1007.187	651.25
1007.355	407.55
1007.523	294.91
1007.691	243.71
1007.859	483.32
1008.027	1112.05
1008.195	372.73
1008.363	286.72
1008.531	950.26
1008.699	645.11
1008.867	364.54
1009.035	415.74
1009.203	1171.44
1009.37	731.12
1009.538	475.13
1009.706	888.82
1009.874	804.85
1010.042	790.52
1010.209	204.8
1010.377	282.62
1010.545	1003.5
1010.713	716.79
1010.88	315.39
1011.048	456.7
1011.216	587.77
1011.383	989.17
1011.551	346.11
1011.718	196.61
1011.886	946.16
1012.054	806.9
1012.221	241.66
1012.389	364.54
1012.556	714.74
1012.724	1075.18
1012.891	462.84
1013.058	110.59
1013.226	796.66
1013.393	921.59
1013.561	247.8
1013.728	151.55
1013.895	845.81
1014.063	841.72
1014.23	169.98
1014.397	294.91
1014.565	872.43
1014.732	632.82
1014.899	184.32
1015.066	169.98
1015.233	606.2
1015.401	858.1
1015.568	350.2
1015.735	399.35
1015.902	659.45
1016.069	677.88
1016.236	184.32
1016.403	145.41
1016.57	464.89
1016.737	835.57
1016.904	274.43
1017.071	153.6
1017.238	436.22
1017.405	837.62
1017.572	253.95
1017.739	454.65
1017.906	704.5
1018.073	880.63
1018.24	118.78
1018.407	372.73
1018.573	929.78
1018.74	563.19
1018.907	274.43
1019.074	-6.14
1019.241	806.9
1019.407	628.73
1019.574	256
1019.741	139.26
1019.907	618.49
1020.074	679.93
1020.241	-14.34
1020.407	32.77
1020.574	651.25
1020.74	679.93
1020.907	135.17
1021.073	184.32
1021.24	1050.61
1021.406	856.05
1021.573	159.74
1021.739	184.32
1021.906	778.23
1022.072	511.99
1022.239	190.46
1022.405	196.61
1022.571	530.42
1022.738	344.06
1022.904	133.12
1023.07	151.55
1023.237	458.74
1023.403	776.18
1023.569	237.56
1023.735	202.75
1023.902	608.25
1024.068	620.53
1024.234	-28.67
1024.4	32.77
1024.566	548.86
1024.732	598.01
1024.898	61.44
1025.065	-22.53
1025.231	657.4
1025.397	364.54
1025.563	116.73
1025.729	94.21
1025.895	-36.86
1026.061	380.92
1026.227	-90.11
1026.392	102.4
1026.558	741.36
1026.724	679.93
1026.89	71.68
1027.056	129.02
1027.222	593.91
1027.388	389.11
1027.553	98.3
1027.719	20.48
1027.885	876.53
1028.051	608.25
1028.216	-73.73
1028.382	28.67
1028.548	593.91
1028.713	372.73
1028.879	-63.49
1029.045	233.47
1029.21	774.13
1029.376	684.02
1029.541	53.25
1029.707	108.54
1029.873	503.8
1030.038	587.77
1030.204	12.29
1030.369	18.43
1030.534	733.17
1030.7	305.15
1030.865	49.15
1031.031	-6.14
1031.196	522.23
1031.361	528.38
1031.527	57.34
1031.692	-34.82
1031.857	118.78
1032.023	626.68
1032.188	45.06
1032.353	88.06
1032.518	720.89
1032.684	499.7
1032.849	-65.53
1033.014	69.63
1033.179	567.29
1033.344	514.04
1033.509	69.63
1033.674	96.25
1033.839	581.62
1034.004	581.62
1034.17	28.67
1034.335	-45.06
1034.5	268.28
1034.664	204.8
1034.829	-32.77
1034.994	16.38
1035.159	473.08
1035.324	462.84
1035.489	36.86
1035.654	55.3
1035.819	675.83
1035.984	460.79
1036.148	6.14
1036.313	81.92
1036.478	651.25
1036.643	356.35
1036.807	-81.92
1036.972	-36.86
1037.137	671.73
1037.301	432.12
1037.466	-229.37
1037.631	-18.43
1037.795	692.21
1037.96	425.98
1038.124	196.61
1038.289	-124.93
1038.454	536.57
1038.618	522.23
1038.783	20.48
1038.947	20.48
1039.111	434.17
1039.276	325.63
1039.44	0
1039.605	468.98
1039.769	270.33
1039.933	405.5
1040.098	67.58
1040.262	198.65
1040.426	598.01
1040.591	552.95
1040.755	-53.25
1040.919	28.67
1041.083	413.69
1041.248	405.5
1041.412	-176.13
1041.576	-55.3
1041.74	309.24
1041.904	497.66
1042.068	-94.21
1042.232	47.1
1042.397	542.71
1042.561	382.97
1042.725	-225.28
1042.889	167.93
1043.053	559.1
1043.217	516.09
1043.381	77.82
1043.544	-141.31
1043.708	618.49
1043.872	131.07
1044.036	-294.91
1044.2	-229.37
1044.364	567.29
1044.528	677.88
1044.691	5078.96
1044.855	-149.5
1045.019	528.38
1045.183	526.33
1045.346	-18.43
1045.51	-147.45
1045.674	423.93
1045.837	419.83
1046.001	-92.16
1046.165	-151.55
1046.328	837.62
1046.492	487.42
1046.655	122.88
1046.819	-38.91
1046.983	288.76
1047.146	430.07
1047.31	30.72
1047.473	-249.85
1047.636	256
1047.8	217.08
1047.963	26.62
1048.127	-63.49
1048.29	135.17
