Data from Hydrogel_Ink_Intensity_Test_1_USB4F045381__41__00041.txt Node

Date: Mon Jul 31 10:46:14 EDT 2023
User: mmckonesweet
Spectrometer: USB4F04538
Trigger mode: 4
Integration Time (sec): 9.000000E-1
Scans to average: 1
Electric dark correction enabled: true
Nonlinearity correction enabled: false
Boxcar width: 0
XAxis mode: Wavelengths
Number of Pixels in Spectrum: 3648
>>>>>Begin Spectral Data<<<<<
345.52	-912.2
345.736	-912.2
345.952	-912.2
346.168	-1022.79
346.384	-1014.6
346.6	-64.34
346.816	-236.37
347.032	-279.38
347.248	283.81
347.464	-160.59
347.68	-146.26
347.896	66.73
348.112	431.27
348.328	-111.44
348.544	-76.63
348.76	52.39
348.975	240.81
349.191	-299.86
349.407	-217.94
349.623	17.58
349.839	-4.95
350.055	-88.92
350.27	83.11
350.486	156.84
350.702	371.88
350.918	273.57
351.133	-158.55
351.349	226.47
351.565	386.21
351.781	-193.36
351.996	83.11
352.212	289.96
352.428	-54.1
352.644	-160.59
352.859	-285.52
353.075	402.6
353.291	13.48
353.506	-60.24
353.722	-213.84
353.938	-15.19
354.153	423.08
354.369	103.59
354.584	-191.31
354.8	263.33
355.016	-306
355.231	-252.75
355.447	-27.48
355.662	99.5
355.878	828.57
356.093	-322.38
356.309	29.87
356.524	-230.23
356.74	195.75
356.955	-115.54
357.171	52.39
357.386	138.41
357.602	-219.99
357.817	-70.48
358.033	-179.03
358.248	339.11
358.464	148.65
358.679	-105.3
358.895	-281.43
359.11	-35.67
359.325	324.77
359.541	271.53
359.756	27.82
359.972	-262.99
360.187	185.51
360.402	-88.92
360.618	-93.01
360.833	961.69
361.048	177.32
361.264	-150.36
361.479	9.39
361.694	-7
361.909	271.53
362.125	-183.12
362.34	-123.73
362.555	205.99
362.77	25.77
362.986	-252.75
363.201	-189.27
363.416	222.38
363.631	95.4
363.847	-80.72
364.062	-181.07
364.277	230.57
364.492	128.17
364.707	-131.92
364.922	-371.54
365.138	296.1
365.353	380.07
365.568	-217.94
365.783	-166.74
365.998	146.6
366.213	574.63
366.428	-162.64
366.643	66.73
366.858	259.24
367.073	228.52
367.288	-82.77
367.503	-199.51
367.718	126.12
367.933	345.25
368.148	-230.23
368.363	-13.14
368.578	64.68
368.793	457.89
369.008	-103.25
369.223	-136.02
369.438	335.01
369.653	455.84
369.868	-222.03
370.083	-211.79
370.298	140.46
370.513	507.04
370.728	146.6
370.943	-189.27
371.157	-146.26
371.372	640.16
371.587	-265.04
371.802	-215.89
372.017	142.5
372.232	453.8
372.446	9.39
372.661	-248.66
372.876	238.76
373.091	103.59
373.306	-25.43
373.52	-226.13
373.735	-133.97
373.95	486.56
374.165	-54.1
374.379	-97.11
374.594	-31.57
374.809	189.61
375.023	122.02
375.238	-201.55
375.453	335.01
375.667	-174.93
375.882	-158.55
376.097	-166.74
376.311	193.7
376.526	-2.9
376.741	-166.74
376.955	160.94
377.17	611.49
377.384	531.62
377.599	-23.38
377.813	-209.75
378.028	529.57
378.242	246.95
378.457	-13.14
378.672	-310.1
378.886	271.53
379.101	-33.62
379.315	-303.95
379.53	-47.96
379.744	361.64
379.958	236.71
380.173	-113.49
380.387	-99.16
380.602	138.41
380.816	-56.15
381.031	-199.51
381.245	11.43
381.459	210.09
381.674	2653.31
381.888	-156.5
382.103	205.99
382.317	-185.17
382.531	548
382.746	-68.44
382.96	-154.45
383.174	-29.52
383.388	476.32
383.603	167.08
383.817	-170.83
384.031	234.66
384.246	517.28
384.46	50.35
384.674	400.55
384.888	68.78
385.103	183.46
385.317	-185.17
385.531	66.73
385.745	390.31
385.959	406.69
386.174	-80.72
386.388	-152.4
386.602	58.54
386.816	-97.11
387.03	-25.43
387.244	-43.86
387.458	251.05
387.672	404.64
387.887	-154.45
388.101	-172.88
388.315	466.08
388.529	249
388.743	-113.49
388.957	-117.59
389.171	474.28
389.385	-95.06
389.599	-56.15
389.813	160.94
390.027	263.33
390.241	742.56
390.455	9.39
390.669	46.25
390.883	54.44
391.097	525.47
391.311	74.92
391.525	29.87
391.738	261.29
391.952	314.53
392.166	85.16
392.38	-88.92
392.594	404.64
392.808	472.23
393.022	-23.38
393.236	1.19
393.449	296.1
393.663	283.81
393.877	-121.68
394.091	-2.9
394.305	-37.72
394.518	25.77
394.732	-80.72
394.946	-11.09
395.16	572.58
395.373	140.46
395.587	-80.72
395.801	-56.15
396.015	464.04
396.228	357.54
396.442	-158.55
396.656	-256.85
396.869	492.71
397.083	498.85
397.297	74.92
397.51	-17.24
397.724	525.47
397.938	251.05
398.151	-80.72
398.365	-183.12
398.578	322.73
398.792	523.43
399.005	66.73
399.219	23.72
399.433	238.76
399.646	261.29
399.86	103.59
400.073	140.46
400.287	367.78
400.5	169.13
400.714	150.7
400.927	97.45
401.141	392.36
401.354	1182.87
401.567	287.91
401.781	-117.59
401.994	394.4
402.208	746.66
402.421	109.74
402.635	97.45
402.848	177.32
403.061	392.36
403.275	66.73
403.488	-50
403.701	631.97
403.915	451.75
404.128	189.61
404.341	15.53
404.555	312.49
404.768	232.62
404.981	136.36
405.195	3.24
405.408	693.41
405.621	367.78
405.834	203.94
406.048	-15.19
406.261	629.92
406.474	644.26
406.687	13.48
406.9	269.48
407.114	257.19
407.327	324.77
407.54	-15.19
407.753	-121.68
407.966	-9.05
408.179	431.27
408.392	-80.72
408.605	-105.3
408.819	355.49
409.032	404.64
409.245	-7
409.458	261.29
409.671	470.18
409.884	535.71
410.097	-95.06
410.31	232.62
410.523	447.65
410.736	265.38
410.949	134.31
411.162	70.83
411.375	660.64
411.588	543.91
411.801	265.38
412.014	42.15
412.227	230.57
412.44	158.89
412.653	58.54
412.865	242.85
413.078	644.26
413.291	390.31
413.504	201.9
413.717	52.39
413.93	492.71
414.143	181.42
414.356	156.84
414.568	-109.4
414.781	476.32
414.994	375.97
415.207	173.22
415.42	187.56
415.632	488.61
415.845	814.24
416.058	-35.67
416.271	5.29
416.483	304.29
416.696	810.14
416.909	117.93
417.121	140.46
417.334	548
417.547	783.52
417.759	101.55
417.972	31.91
418.185	150.7
418.397	550.05
418.61	81.07
418.823	144.55
419.035	717.98
419.248	361.64
419.46	197.8
419.673	193.7
419.885	558.24
420.098	267.43
420.311	171.18
420.523	-68.44
420.736	472.23
420.948	287.91
421.161	111.78
421.373	-33.62
421.586	474.28
421.798	85.16
422.01	66.73
422.223	316.58
422.435	189.61
422.648	533.67
422.86	138.41
423.073	93.35
423.285	562.34
423.497	60.59
423.71	101.55
423.922	134.31
424.134	652.45
424.347	730.27
424.559	427.17
424.771	439.46
424.984	335.01
425.196	459.94
425.408	60.59
425.621	17.58
425.833	625.83
426.045	740.51
426.257	93.35
426.47	193.7
426.682	525.47
426.894	693.41
427.106	224.42
427.318	279.72
427.531	218.28
427.743	611.49
427.955	253.09
428.167	681.12
428.379	597.15
428.591	257.19
428.804	320.68
429.016	246.95
429.228	341.16
429.44	603.3
429.652	484.52
429.864	105.64
430.076	355.49
430.288	472.23
430.5	316.58
430.712	328.87
430.924	666.78
431.136	537.76
431.348	103.59
431.56	173.22
431.772	429.22
431.984	476.32
432.196	187.56
432.408	345.25
432.62	359.59
432.832	664.74
433.044	519.33
433.256	476.32
433.468	636.06
433.679	154.79
433.891	124.07
434.103	556.19
434.315	877.73
434.527	730.27
434.739	369.83
434.95	384.16
435.162	722.08
435.374	418.98
435.586	443.56
435.798	375.97
436.009	259.24
436.221	533.67
436.433	345.25
436.645	459.94
436.856	402.6
437.068	853.15
437.28	347.3
437.491	644.26
437.703	824.48
437.915	677.02
438.126	488.61
438.338	631.97
438.55	611.49
438.761	736.42
438.973	392.36
439.184	378.02
439.396	629.92
439.608	863.39
439.819	314.53
440.031	548
440.242	810.14
440.454	752.8
440.665	476.32
440.877	570.53
441.088	763.04
441.3	679.07
441.511	345.25
441.723	359.59
441.934	754.85
442.146	801.95
442.357	566.43
442.569	812.19
442.78	750.75
442.991	1156.25
443.203	765.09
443.414	304.29
443.626	898.2
443.837	451.75
444.048	439.46
444.26	259.24
444.471	709.79
444.682	879.77
444.894	242.85
445.105	353.45
445.316	1045.66
445.528	906.4
445.739	576.67
445.95	531.62
446.161	840.86
446.373	1162.39
446.584	527.52
446.795	595.11
447.006	828.57
447.217	1162.39
447.429	394.4
447.64	476.32
447.851	1078.43
448.062	812.19
448.273	421.03
448.484	490.66
448.695	771.23
448.907	756.9
449.118	781.47
449.329	767.13
449.54	666.78
449.751	679.07
449.962	603.3
450.173	535.71
450.384	1148.06
450.595	1158.3
450.806	654.5
451.017	629.92
451.228	1225.88
451.439	1014.94
451.65	597.15
451.861	349.35
452.072	709.79
452.283	883.87
452.494	918.68
452.705	609.44
452.915	1225.88
453.126	1039.51
453.337	709.79
453.548	693.41
453.759	1207.45
453.97	1416.34
454.181	937.12
454.391	634.02
454.602	847.01
454.813	1006.75
455.024	681.12
455.235	693.41
455.445	1066.14
455.656	1121.43
455.867	875.68
456.078	615.59
456.288	861.34
456.499	1068.19
456.71	707.74
456.921	1035.42
457.131	1193.11
457.342	1053.85
457.553	771.23
457.763	795.81
457.974	1289.37
458.184	1234.07
458.395	777.37
458.606	746.66
458.816	1297.56
459.027	1457.3
459.237	922.78
459.448	689.31
459.659	1322.13
459.869	1592.47
460.08	662.69
460.29	992.41
460.501	1559.7
460.711	967.84
460.922	746.66
461.132	879.77
461.343	1858.7
461.553	814.24
461.764	959.64
461.974	939.16
462.184	1356.95
462.395	1299.61
462.605	1049.75
462.816	902.3
463.026	1313.94
463.236	1545.36
463.447	910.49
463.657	947.36
463.867	1553.55
464.078	1242.26
464.288	1176.73
464.498	1041.56
464.709	1350.81
464.919	1395.86
465.129	1156.25
465.339	1074.33
465.55	1422.48
465.76	1440.92
465.97	1203.35
466.18	1164.44
466.391	1664.15
466.601	1479.83
466.811	1322.13
467.021	1164.44
467.231	1655.95
467.441	1662.1
467.651	1275.03
467.862	1086.62
468.072	1510.55
468.282	1846.41
468.492	1238.17
468.702	1463.44
468.912	1651.86
469.122	2270.34
469.332	1625.23
469.542	1299.61
469.752	1961.1
469.962	1709.2
470.172	1467.54
470.382	1488.02
470.592	1987.72
470.802	2024.59
471.012	1729.68
471.222	1528.98
471.432	1967.24
471.642	1985.68
471.852	1696.91
472.062	1428.63
472.272	1711.25
472.482	1639.57
472.691	1524.88
472.901	1354.9
473.111	1930.38
473.321	2587.78
473.531	1698.96
473.741	1877.13
473.95	2184.33
474.16	2184.33
474.37	1924.24
474.58	1836.17
474.79	2536.58
474.999	2313.35
475.209	1903.76
475.419	1948.81
475.628	2225.29
475.838	2391.17
476.048	2047.12
476.258	1914
476.467	2589.83
476.677	2102.41
476.886	2282.63
477.096	2155.66
477.306	2210.95
477.515	2643.07
477.725	2249.86
477.935	2219.14
478.144	2880.64
478.354	2423.94
478.563	2428.04
478.773	2278.54
478.982	2806.91
479.192	2901.12
479.401	2520.2
479.611	2376.84
479.82	2499.72
480.03	2794.62
480.239	2442.37
480.449	2530.44
480.658	3159.16
480.868	2673.79
481.077	2722.95
481.287	2614.4
481.496	2970.75
481.705	3327.1
481.915	2940.03
482.124	2913.41
482.333	3056.76
482.543	3310.71
482.752	2839.68
482.961	2737.28
483.171	3218.55
483.38	2970.75
483.589	2874.49
483.799	2737.28
484.008	3048.57
484.217	3376.25
484.426	3058.81
484.636	2940.03
484.845	3267.7
485.054	2854.02
485.263	3368.06
485.472	3101.82
485.682	3685.49
485.891	3421.3
486.1	3069.05
486.309	3241.08
486.518	3607.67
486.727	3771.51
486.936	3271.8
487.146	3396.73
487.355	3845.23
487.564	3351.67
487.773	3361.91
487.982	3486.84
488.191	3538.04
488.4	3579
488.609	3343.48
488.818	3560.56
489.027	4158.57
489.236	4111.47
489.445	3753.07
489.654	3519.6
489.863	4158.57
490.072	3773.55
490.281	3871.86
490.49	3660.91
490.698	4267.11
490.907	4199.53
491.116	3875.95
491.325	3679.35
491.534	4320.36
491.743	4105.32
491.952	3957.87
492.16	3949.68
492.369	4156.52
492.578	4383.85
492.787	3949.68
492.996	3966.06
493.204	3947.63
493.413	4811.87
493.622	3865.71
493.831	3853.42
494.039	4695.14
494.248	4090.99
494.457	4021.36
494.665	3773.55
494.874	4566.12
495.083	4983.9
495.291	4183.15
495.5	4232.3
495.709	4664.42
495.917	4609.12
496.126	4287.59
496.335	4211.82
496.543	4338.79
496.752	4598.88
496.96	4527.21
497.169	4267.11
497.377	4637.8
497.586	4912.22
497.794	4412.52
498.003	4158.57
498.211	4549.73
498.42	5168.22
498.628	4609.12
498.837	4607.08
499.045	4881.5
499.254	4885.6
499.462	4627.56
499.671	4615.27
499.879	5276.76
500.087	5067.87
500.296	4613.22
500.504	4590.69
500.713	4918.37
500.921	5629.01
501.129	4707.43
501.338	4686.95
501.546	5112.92
501.754	5028.96
501.962	4764.77
502.171	4795.49
502.379	5237.85
502.587	5450.84
502.795	4906.08
503.004	4858.98
503.212	5325.91
503.42	5446.74
503.628	4994.14
503.837	5033.05
504.045	5375.06
504.253	5737.56
504.461	4801.63
504.669	4838.5
504.877	5594.2
505.085	5614.68
505.294	4713.57
505.502	5256.28
505.71	5407.83
505.918	5481.56
506.126	5188.7
506.334	5100.64
506.542	5420.12
506.75	5555.29
506.958	5209.18
507.166	5213.28
507.374	5413.98
507.582	5995.6
507.79	5387.35
507.998	5237.85
508.206	5772.37
508.414	5768.27
508.622	5112.92
508.83	5508.18
509.037	6128.72
509.245	5450.84
509.453	5250.14
509.661	5395.54
509.869	5958.74
510.077	5719.12
510.285	5538.9
510.492	5223.51
510.7	6515.78
510.908	5708.88
511.116	5528.66
511.324	5459.03
511.531	5651.54
511.739	5938.26
511.947	5981.26
512.155	6024.27
512.362	5887.06
512.57	5704.79
512.778	5551.19
512.985	5522.52
513.193	6194.25
513.401	6253.64
513.608	5876.82
513.816	5813.33
514.024	6229.07
514.231	6425.67
514.439	5731.41
514.646	5977.17
514.854	6292.55
515.061	6388.81
515.269	5712.98
515.477	5739.6
515.684	5964.88
515.892	6310.99
516.099	5811.28
516.307	5747.79
516.514	6358.09
516.722	6609.99
516.929	6059.09
517.136	5876.82
517.344	6704.2
517.551	6331.47
517.759	5950.54
517.966	6231.12
518.173	6243.4
518.381	6300.75
518.588	5981.26
518.796	6038.61
519.003	6427.72
519.21	6403.14
519.418	6194.25
519.625	6384.71
519.832	6569.03
520.039	6333.51
520.247	6098
520.454	6083.66
520.661	6691.91
520.868	6612.04
521.076	6411.34
521.283	6190.16
521.49	7193.66
521.697	6937.66
521.904	6251.6
522.112	6460.49
522.319	6933.57
522.526	6773.83
522.733	6440.01
522.94	6540.36
523.147	6771.78
523.354	7023.68
523.561	6458.44
523.768	6689.86
523.975	6911.04
524.183	6982.72
524.39	6792.26
524.597	6476.87
524.804	6952
525.011	6855.75
525.218	6581.32
525.425	6650.95
525.632	7367.74
525.838	6734.92
526.045	6640.71
526.252	6804.55
526.459	8291.37
526.666	7746.61
526.873	6767.68
527.08	6800.45
527.287	7455.8
527.494	7390.27
527.701	6773.83
527.907	6659.14
528.114	7220.28
528.321	7203.9
528.528	6984.77
528.735	6911.04
528.941	7181.37
529.148	6972.48
529.355	7089.21
529.562	6954.05
529.768	7584.82
529.975	7205.95
530.182	7117.89
530.388	6818.88
530.595	7494.71
530.802	6999.1
531.008	7279.68
531.215	7044.16
531.422	8059.95
531.628	8242.22
531.835	7312.44
532.042	7285.82
532.248	7148.61
532.455	7640.12
532.661	7246.91
532.868	7298.11
533.074	7752.76
533.281	7865.39
533.487	7463.99
533.694	7308.35
533.9	7449.66
534.107	7545.91
534.313	7363.64
534.52	7357.5
534.726	8158.25
534.933	8121.39
535.139	7451.7
535.345	7361.59
535.552	8014.9
535.758	7726.13
535.965	7502.9
536.171	7662.65
536.377	8105.01
536.584	8258.6
536.79	7625.78
536.996	7703.61
537.203	7986.22
537.409	8021.04
537.615	7713.84
537.821	7750.71
538.028	8457.26
538.234	8176.69
538.44	7740.47
538.646	7568.44
538.853	8186.93
539.059	8152.11
539.265	8053.81
539.471	7566.39
539.677	8311.85
539.883	8121.39
540.09	7996.46
540.296	8338.48
540.502	8164.4
540.708	8180.78
540.914	8082.48
541.12	7834.68
541.326	8573.99
541.532	8320.04
541.738	8170.54
541.944	8234.03
542.15	8641.57
542.356	8328.24
542.562	8205.36
542.768	8252.46
542.974	8967.2
543.18	9049.12
543.386	8326.19
543.592	8246.32
543.798	9032.74
544.004	8848.42
544.21	8246.32
544.415	8485.93
544.621	8873
544.827	8791.08
545.033	8244.27
545.239	8539.18
545.445	8612.9
545.651	8703.01
545.856	8352.81
546.062	8344.62
546.268	8657.96
546.474	8868.9
546.679	8383.53
546.885	8473.64
547.091	8502.31
547.297	9137.18
547.502	8440.87
547.708	8172.59
547.914	8541.22
548.119	9126.94
548.325	8375.34
548.531	8414.25
548.736	9253.92
548.942	8700.97
549.147	8623.14
549.353	8895.52
549.559	9137.18
549.764	9022.5
549.97	8754.21
550.175	8746.02
550.381	9147.42
550.586	8778.79
550.792	8723.49
550.997	8723.49
551.203	9128.99
551.408	9131.04
551.614	8856.61
551.819	8789.03
552.025	9493.53
552.23	9425.95
552.435	8664.1
552.641	9212.96
552.846	9241.63
553.052	9704.47
553.257	9104.42
553.462	9165.85
553.668	9077.79
553.873	9602.07
554.078	9182.24
554.283	8838.18
554.489	9485.34
554.694	9610.26
554.899	8954.91
555.105	9419.8
555.31	9507.87
555.515	9593.88
555.72	9356.32
555.925	9196.57
556.131	9765.91
556.336	9380.89
556.541	8997.92
556.746	9313.31
556.951	9888.79
557.156	9622.55
557.361	9554.97
557.567	9468.95
557.772	10130.45
557.977	9913.36
558.182	9266.21
558.387	9221.15
558.592	9567.26
558.797	9944.08
559.002	9389.08
559.207	9327.64
559.412	9720.85
559.617	10101.78
559.822	9595.93
560.027	9401.37
560.232	9677.85
560.437	9796.63
560.642	9378.84
560.847	9409.56
561.051	9786.39
561.256	9843.73
561.461	9571.35
561.666	9550.87
561.871	9985.04
562.076	9937.94
562.281	9741.33
562.485	9405.47
562.69	9954.32
562.895	9974.8
563.1	9612.31
563.305	9643.03
563.509	10339.34
563.714	10703.88
563.919	9540.63
564.123	9636.89
564.328	10017.81
564.533	10169.36
564.737	9614.36
564.942	9677.85
565.147	10374.16
565.351	10460.17
565.556	9802.77
565.761	9845.78
565.965	10052.63
566.17	10007.57
566.374	9819.16
566.579	9683.99
566.784	10062.87
566.988	10032.15
567.193	9597.98
567.397	9972.75
567.602	9884.69
567.806	10091.54
568.011	9716.76
568.215	10095.63
568.42	10142.74
568.624	10155.02
568.828	9935.89
569.033	10150.93
569.237	10447.88
569.442	10402.83
569.646	9776.15
569.85	10101.78
570.055	10378.25
570.259	10271.76
570.463	10327.05
570.668	10208.27
570.872	10402.83
571.076	10331.15
571.281	10212.37
571.485	10355.72
571.689	10505.23
571.893	10648.58
572.098	10335.24
572.302	10144.78
572.506	10707.98
572.71	10415.12
572.914	10241.04
573.119	10247.18
573.323	11039.75
573.527	10908.68
573.731	10202.13
573.935	10259.47
574.139	10687.5
574.343	10554.38
574.547	10451.98
574.751	10540.04
574.955	10943.49
575.159	10939.4
575.364	10411.02
575.568	10404.88
575.772	10753.03
575.976	11109.38
576.18	10501.13
576.383	10320.91
576.587	10968.07
576.791	11092.99
576.995	10380.3
577.199	10302.48
577.403	11103.23
577.607	11248.64
577.811	10316.81
578.015	10884.1
578.219	11080.71
578.422	11099.14
578.626	10617.86
578.83	10898.44
579.034	11256.83
579.238	10880
579.442	10724.36
579.645	10990.59
579.849	10990.59
580.053	10980.36
580.257	10519.56
580.46	10834.95
580.664	11486.2
580.868	11340.8
581.071	11027.46
581.275	10953.73
581.479	10853.38
581.682	11303.93
581.886	10845.19
582.09	10963.97
582.293	11529.21
582.497	11244.54
582.7	10890.24
582.904	10990.59
583.107	11359.23
583.311	11201.54
583.515	11256.83
583.718	11326.46
583.922	11430.91
584.125	11781.11
584.329	11045.89
584.532	11254.78
584.735	11625.47
584.939	11191.3
585.142	10808.33
585.346	10978.31
585.549	11774.97
585.753	11222.02
585.956	11334.65
586.159	11480.06
586.363	11887.61
586.566	11850.74
586.769	11377.66
586.973	11254.78
587.176	11707.38
587.379	11854.84
587.582	11738.1
587.786	11629.56
587.989	11408.38
588.192	12325.87
588.395	11238.4
588.599	11568.12
588.802	11877.37
589.005	11877.37
589.208	11629.56
589.411	11543.55
589.615	11662.33
589.818	12364.78
590.021	11672.57
590.224	11691
590.427	11926.52
590.63	12258.29
590.833	11383.8
591.036	11314.17
591.239	11916.28
591.442	11756.54
591.645	11750.39
591.848	11748.34
592.051	12055.54
592.254	12225.52
592.457	11660.28
592.66	11858.93
592.863	11920.37
593.066	12211.18
593.269	11959.28
593.472	11774.97
593.675	11871.22
593.878	12233.71
594.081	11918.32
594.284	11686.9
594.486	12514.28
594.689	12061.68
594.892	12002.29
595.095	11848.69
595.298	12315.63
595.5	11971.57
595.703	11979.76
595.906	12028.92
596.109	12620.78
596.311	12671.98
596.514	11824.12
596.717	12348.4
596.92	12653.55
597.122	12440.56
597.325	11674.62
597.528	11996.15
597.73	12862.44
597.933	12426.22
598.136	12080.11
598.338	11947
598.541	12583.91
598.743	12839.91
598.946	12272.62
599.148	12104.69
599.351	12690.41
599.554	12839.91
599.756	12276.72
599.959	12450.8
600.161	12633.07
600.363	13183.97
600.566	12352.49
600.768	12143.6
600.971	12968.93
601.173	12772.33
601.376	12405.74
601.578	12315.63
601.78	12626.92
601.983	13179.87
602.185	12170.22
602.388	12624.87
602.59	12698.6
602.792	12526.57
602.995	12745.7
603.197	12391.41
603.399	12921.83
603.601	12837.86
603.804	12491.76
604.006	12155.89
604.208	12596.2
604.41	12225.52
604.613	13009.89
604.815	12504.04
605.017	13253.6
605.219	12610.54
605.421	12565.48
605.623	12686.31
605.826	13378.53
606.028	12981.22
606.23	12477.42
606.432	12446.7
606.634	13497.31
606.836	13229.02
607.038	12301.29
607.24	12790.76
607.442	12899.3
607.644	12923.88
607.846	12841.96
608.048	12618.73
608.25	13063.14
608.452	12719.08
608.654	12846.05
608.856	12479.47
609.058	12753.9
609.26	13145.06
609.462	12780.52
609.664	12839.91
609.866	13175.78
610.067	13159.39
610.269	12952.55
610.471	12559.34
610.673	12893.16
610.875	13124.58
611.077	12669.93
611.278	12860.39
611.48	12801
611.682	13505.5
611.884	13083.62
612.085	12708.84
612.287	12737.51
612.489	13163.49
612.69	12665.83
612.892	12923.88
613.094	13218.78
613.295	13073.38
613.497	12600.3
613.699	12946.41
613.9	13325.28
614.102	13222.88
614.304	12868.58
614.505	12534.76
614.707	13169.63
614.908	12944.36
615.11	12717.03
615.311	12932.07
615.513	13114.34
615.714	13343.71
615.916	12669.93
616.117	12745.7
616.319	13149.15
616.52	13435.87
616.722	12694.5
616.923	12801
617.124	13356
617.326	13267.94
617.527	13067.24
617.729	13251.55
617.93	13296.61
618.131	13568.99
618.333	12839.91
618.534	12794.86
618.735	12995.56
618.937	13601.76
619.138	13013.99
619.339	12784.62
619.54	13288.42
619.742	13065.19
619.943	13075.43
620.144	13067.24
620.345	13331.42
620.546	13296.61
620.748	12811.24
620.949	13018.08
621.15	13337.57
621.351	13186.02
621.552	12876.77
621.753	12870.63
621.954	12880.87
622.155	13700.06
622.356	12997.6
622.558	13267.94
622.759	13231.07
622.96	13726.68
623.161	12755.94
623.362	12821.48
623.563	13595.61
623.764	13394.91
623.965	13312.99
624.166	13442.01
624.366	13071.33
624.567	13525.98
624.768	12960.74
624.969	13026.28
625.17	13347.81
625.371	13532.12
625.572	13071.33
625.773	12907.49
625.973	13568.99
626.174	13818.84
626.375	13339.62
626.576	13409.25
626.777	13732.83
626.977	13956.05
627.178	13124.58
627.379	13267.94
627.58	13347.81
627.78	13745.11
627.981	13358.05
628.182	13456.35
628.382	13609.95
628.583	13067.24
628.784	13190.11
628.984	13206.5
629.185	13644.76
629.386	13607.9
629.586	13425.63
629.787	13229.02
629.987	13677.53
630.188	13458.4
630.388	13089.76
630.589	13163.49
630.79	14128.08
630.99	13534.17
631.191	13296.61
631.391	13331.42
631.591	13665.24
631.792	13867.99
631.992	13429.73
632.193	13401.05
632.393	13859.8
632.594	13655
632.794	13343.71
632.994	13640.67
633.195	13968.34
633.395	13749.21
633.595	13194.21
633.796	13749.21
633.996	13499.36
634.196	13986.77
634.397	13323.23
634.597	13333.47
634.797	13695.96
634.997	14357.46
635.198	13648.86
635.398	13147.11
635.598	13822.94
635.798	14263.25
635.998	13874.13
636.199	13341.66
636.399	13769.69
636.599	13048.8
636.799	13593.56
636.999	13794.26
637.199	13927.38
637.399	14289.87
637.599	13523.93
637.799	13368.29
637.999	13560.8
638.199	14119.89
638.399	13460.45
638.599	13384.67
638.799	14189.52
638.999	14263.25
639.199	13806.55
639.399	13677.53
639.599	14210
639.799	13198.31
639.999	13534.17
640.199	13517.79
640.399	13747.16
640.599	13439.97
640.799	13949.91
640.998	14076.88
641.198	14314.45
641.398	14150.61
641.598	13751.26
641.798	13904.85
641.997	14883.78
642.197	14089.17
642.397	13882.33
642.597	13804.5
642.796	14240.72
642.996	14171.09
643.196	13876.18
643.395	13708.25
643.595	14267.34
643.795	13439.97
643.994	13595.61
644.194	13904.85
644.394	14511.05
644.593	14007.25
644.793	13585.37
644.992	13984.73
645.192	14289.87
645.392	13734.87
645.591	13937.62
645.791	13913.05
645.99	14273.49
646.19	14181.33
646.389	13820.89
646.589	13728.73
646.788	14420.94
646.987	14144.47
647.187	14072.79
647.386	14226.39
647.586	14293.97
647.785	14461.9
647.984	14150.61
648.184	14095.32
648.383	14201.81
648.582	14111.7
648.782	14007.25
648.981	13994.97
649.18	13829.08
649.38	14261.2
649.579	14101.46
649.778	13943.77
649.977	14595.02
650.177	14226.39
650.376	13884.37
650.575	13878.23
650.774	14566.35
650.973	14140.37
651.173	13855.7
651.372	13947.86
651.571	14255.06
651.77	14549.96
651.969	14107.6
652.168	14138.32
652.367	14283.73
652.566	14422.99
652.765	13933.53
652.964	14355.41
653.163	14625.74
653.362	14414.8
653.561	14201.81
653.76	13939.67
653.959	14353.36
654.158	14666.7
654.357	14363.6
654.556	13994.97
654.755	14451.66
654.954	14492.62
655.153	14072.79
655.352	14009.3
655.551	14742.47
655.749	14304.21
655.948	14279.63
656.147	14490.57
656.346	14371.79
656.545	14730.19
656.743	14132.18
656.942	14291.92
657.141	14296.02
657.34	14240.72
657.538	14099.41
657.737	14265.3
657.936	14656.46
658.135	14664.65
658.333	14353.36
658.532	14574.54
658.731	14898.12
658.929	14668.75
659.128	14480.33
659.326	14144.47
659.525	14918.6
659.724	14654.41
659.922	14074.84
660.121	14136.27
660.319	14756.81
660.518	14468.05
660.716	14224.34
660.915	14400.46
661.113	15121.35
661.312	14300.11
661.51	14461.9
661.709	14189.52
661.907	14791.62
662.105	14865.35
662.304	14199.76
662.502	14437.33
662.701	14808.01
662.899	14521.29
663.097	14697.42
663.296	14242.77
663.494	15018.95
663.692	14990.28
663.891	14021.59
664.089	14269.39
664.287	14623.69
664.485	14947.27
664.684	14316.5
664.882	14322.64
665.08	14425.04
665.278	14599.12
665.476	14132.18
665.675	14556.11
665.873	14756.81
666.071	14808.01
666.269	14306.26
666.467	14334.93
666.665	14523.34
666.863	14277.58
667.061	14466
667.259	14273.49
667.457	14480.33
667.655	14736.33
667.853	14164.95
668.051	14361.55
668.249	14205.91
668.447	14787.53
668.645	14244.82
668.843	14703.56
669.041	14584.78
669.239	14386.13
669.437	14410.7
669.635	14533.58
669.833	14619.6
670.031	14795.72
670.229	14357.46
670.426	14517.2
670.624	14339.02
670.822	14226.39
671.02	14162.9
671.218	14509.01
671.415	14418.89
671.613	14246.87
671.811	14255.06
672.009	14310.35
672.206	15021
672.404	14576.59
672.602	14422.99
672.799	14185.43
672.997	14638.03
673.195	14846.92
673.392	14398.41
673.59	14277.58
673.788	14556.11
673.985	14093.27
674.183	14384.08
674.38	14263.25
674.578	14791.62
674.775	14386.13
674.973	14021.59
675.17	14275.54
675.368	14820.3
675.565	14592.97
675.763	14427.09
675.96	14023.64
676.158	14834.63
676.355	14121.94
676.553	14287.82
676.75	14189.52
676.947	14322.64
677.145	14267.34
677.342	14361.55
677.539	14336.98
677.737	14420.94
677.934	15176.64
678.131	14449.61
678.329	14332.88
678.526	14779.34
678.723	14625.74
678.92	14166.99
679.118	14193.62
679.315	14078.93
679.512	14887.88
679.709	14363.6
679.906	14216.15
680.104	14627.79
680.301	14316.5
680.498	14142.42
680.695	14158.8
680.892	14111.7
681.089	14005.2
681.286	14136.27
681.483	13882.33
681.68	14463.95
681.877	14803.91
682.075	14058.45
682.272	14441.42
682.469	14326.74
682.665	14330.83
682.862	13919.19
683.059	13999.06
683.256	14193.62
683.453	14238.67
683.65	14013.4
683.847	14056.4
684.044	13982.68
684.241	13937.62
684.438	14277.58
684.635	13921.24
684.831	14937.03
685.028	14791.62
685.225	13962.2
685.422	13984.73
685.619	14158.8
685.815	14287.82
686.012	13937.62
686.209	13837.27
686.405	13980.63
686.602	14261.2
686.799	13581.28
686.996	13872.09
687.192	13988.82
687.389	14666.7
687.586	13824.98
687.782	13902.81
687.979	14648.27
688.175	14281.68
688.372	14064.6
688.568	13855.7
688.765	13954.01
688.962	14463.95
689.158	13714.39
689.355	13544.41
689.551	14394.32
689.748	13710.3
689.944	13833.18
690.14	13583.32
690.337	14318.54
690.533	14023.64
690.73	13824.98
690.926	13808.6
691.123	13872.09
691.319	13913.05
691.515	13571.04
691.712	13898.71
691.908	13908.95
692.104	13990.87
692.301	13698.01
692.497	13579.23
692.693	14302.16
692.889	14377.94
693.086	14005.2
693.282	13505.5
693.478	13888.47
693.674	14552.01
693.87	13839.32
694.067	13761.5
694.263	14040.02
694.459	13878.23
694.655	13704.15
694.851	13779.93
695.047	13937.62
695.243	14181.33
695.439	13695.96
695.635	13669.34
695.831	14136.27
696.027	13896.66
696.224	13540.32
696.42	13673.43
696.615	14029.78
696.811	13730.78
697.007	13312.99
697.203	13577.18
697.399	13917.14
697.595	14017.49
697.791	13638.62
697.987	13550.56
698.183	13284.32
698.379	13532.12
698.575	13548.51
698.77	13411.29
698.966	13792.22
699.162	14091.22
699.358	13497.31
699.554	13439.97
699.749	13734.87
699.945	13808.6
700.141	13274.08
700.337	13702.11
700.532	13704.15
700.728	13503.45
700.924	13460.45
701.119	13261.79
701.315	13683.67
701.511	13607.9
701.706	13439.97
701.902	13190.11
702.097	13616.09
702.293	13972.44
702.489	13677.53
702.684	13566.94
702.88	13544.41
703.075	13525.98
703.271	13376.48
703.466	13132.77
703.662	13519.84
703.857	13890.52
704.053	13181.92
704.248	13431.77
704.443	13698.01
704.639	13890.52
704.834	13343.71
705.03	13530.08
705.225	13714.39
705.42	13587.42
705.616	13462.49
705.811	13140.96
706.006	13448.16
706.202	13421.53
706.397	13411.29
706.592	13312.99
706.787	13568.99
706.983	13437.92
707.178	13571.04
707.373	13478.88
707.568	13800.41
707.763	13601.76
707.959	13319.14
708.154	13136.87
708.349	13390.81
708.544	13812.7
708.739	13442.01
708.934	13026.28
709.129	13814.74
709.324	13755.35
709.519	13192.16
709.714	13200.35
709.909	13698.01
710.104	13439.97
710.299	13339.62
710.494	13085.67
710.689	13347.81
710.884	13333.47
711.079	13118.43
711.274	13153.25
711.469	13622.23
711.664	13595.61
711.859	13218.78
712.054	13231.07
712.249	13399.01
712.443	13501.4
712.638	12936.17
712.833	13149.15
713.028	13151.2
713.223	13202.4
713.417	13519.84
713.612	13235.17
713.807	13263.84
714.002	13943.77
714.196	13239.26
714.391	12989.41
714.586	13571.04
714.78	13169.63
714.975	13079.52
715.17	13024.23
715.364	13286.37
715.559	13665.24
715.754	12604.39
715.948	13128.67
716.143	13954.01
716.337	13294.56
716.532	13177.83
716.726	12823.53
716.921	13437.92
717.115	13728.73
717.31	12766.18
717.504	13310.94
717.699	13081.57
717.893	13497.31
718.088	12878.82
718.282	12977.12
718.476	13300.7
718.671	13048.8
718.865	12923.88
719.059	12821.48
719.254	13218.78
719.448	13327.33
719.642	13278.18
719.837	12669.93
720.031	13208.55
720.225	13364.19
720.419	12729.32
720.614	12780.52
720.808	13435.87
721.002	13087.71
721.196	12592.11
721.39	12790.76
721.585	13241.31
721.779	12954.6
721.973	12678.12
722.167	12444.65
722.361	12981.22
722.555	13183.97
722.749	12502
722.943	12934.12
723.137	12620.78
723.331	13102.05
723.525	12508.14
723.719	12444.65
723.913	13042.66
724.107	13130.72
724.301	12596.2
724.495	12575.72
724.689	13132.77
724.883	13087.71
725.077	12764.14
725.271	12749.8
725.465	13044.71
725.659	12850.15
725.853	12751.85
726.046	12755.94
726.24	12585.96
726.434	13052.9
726.628	12524.52
726.822	12649.45
727.015	12954.6
727.209	12702.7
727.403	12604.39
727.596	12381.17
727.79	12856.29
727.984	13202.4
728.177	12512.24
728.371	12612.59
728.565	13085.67
728.758	12364.78
728.952	12555.24
729.146	12450.8
729.339	13063.14
729.533	12805.1
729.726	12569.58
729.92	12542.96
730.113	13208.55
730.307	12987.36
730.5	12362.73
730.694	12358.64
730.887	12682.22
731.081	13114.34
731.274	12561.39
731.468	12395.5
731.661	12817.38
731.854	12692.46
732.048	12592.11
732.241	12246
732.435	12862.44
732.628	12884.97
732.821	12612.59
733.014	12585.96
733.208	12549.1
733.401	12862.44
733.594	12645.35
733.788	12362.73
733.981	13126.63
734.174	12755.94
734.367	12461.04
734.56	12723.18
734.754	13046.76
734.947	12905.45
735.14	12508.14
735.333	12502
735.526	13011.94
735.719	12581.87
735.912	12391.41
736.105	12565.48
736.298	12596.2
736.491	12282.86
736.684	12477.42
736.877	12370.93
737.07	12532.72
737.263	13040.61
737.456	12563.43
737.649	12403.69
737.842	12436.46
738.035	12764.14
738.228	12366.83
738.421	12461.04
738.614	12903.4
738.807	13034.47
739	12278.77
739.192	12116.98
739.385	12755.94
739.578	13063.14
739.771	12805.1
739.964	12321.77
740.156	12712.94
740.349	12534.76
740.542	12665.83
740.735	12157.94
740.927	12227.57
741.12	12383.21
741.313	12149.75
741.505	12286.96
741.698	12504.04
741.891	12409.84
742.083	12436.46
742.276	12329.97
742.468	12502
742.661	12631.02
742.854	12139.51
743.046	12260.34
743.239	12778.47
743.431	12278.77
743.624	12243.95
743.816	12125.17
744.009	12409.84
744.201	12420.08
744.393	12198.9
744.586	12092.4
744.778	12854.25
744.971	12321.77
745.163	12276.72
745.355	12280.82
745.548	12354.54
745.74	12262.38
745.932	12153.84
746.125	11971.57
746.317	12895.21
746.509	12360.69
746.702	12121.07
746.894	12030.96
747.086	12463.08
747.278	12682.22
747.471	11885.56
747.663	12301.29
747.855	12229.62
748.047	12569.58
748.239	12241.9
748.431	12059.63
748.623	12776.42
748.815	12659.69
749.008	11895.8
749.2	12116.98
749.392	12401.65
749.584	12415.98
749.776	12280.82
749.968	12323.82
750.16	12631.02
750.352	12137.46
750.544	12035.06
750.736	11883.51
750.928	12428.27
751.12	12256.24
751.311	11768.82
751.503	12104.69
751.695	12280.82
751.887	12104.69
752.079	12231.66
752.271	11947
752.463	13243.36
752.654	12506.09
752.846	12110.83
753.038	11979.76
753.23	12141.55
753.421	12424.17
753.613	12010.48
753.805	12073.97
753.997	12260.34
754.188	12266.48
754.38	11723.77
754.572	12010.48
754.763	12321.77
754.955	12190.7
755.146	11795.45
755.338	11981.81
755.53	12315.63
755.721	12188.66
755.913	11854.84
756.104	11699.19
756.296	12051.44
756.487	12241.9
756.679	11727.86
756.87	11793.4
757.062	11858.93
757.253	12030.96
757.445	11738.1
757.636	11957.24
757.827	11987.96
758.019	12520.43
758.21	11650.04
758.401	11719.67
758.593	12381.17
758.784	12139.51
758.975	11346.94
759.167	11457.53
759.358	12059.63
759.549	11942.9
759.74	11353.09
759.932	11326.46
760.123	11858.93
760.314	11738.1
760.505	11713.53
760.696	11506.68
760.888	12125.17
761.079	11586.55
761.27	11211.78
761.461	11508.73
761.652	12057.59
761.843	11666.42
762.034	11269.12
762.225	11799.54
762.416	11506.68
762.607	11482.11
762.798	11506.68
762.989	11146.24
763.18	12278.77
763.371	11172.86
763.562	11269.12
763.753	11400.19
763.944	11817.97
764.135	11865.08
764.326	11469.82
764.517	11256.83
764.708	11650.04
764.899	11691
765.089	11029.51
765.28	11056.13
765.471	11637.75
765.662	11625.47
765.853	11387.9
766.043	11111.43
766.234	11953.14
766.425	11600.89
766.615	11146.24
766.806	11193.34
766.997	11797.49
767.187	11416.57
767.378	11029.51
767.569	10787.85
767.759	11451.39
767.95	11357.18
768.141	11148.29
768.331	10828.81
768.522	11252.73
768.712	11529.21
768.903	10875.91
769.093	10894.34
769.284	11699.19
769.474	11166.72
769.665	10720.26
769.855	10830.85
770.046	11572.22
770.236	11125.76
770.426	10978.31
770.617	10679.3
770.807	11170.82
770.998	10888.2
771.188	10998.79
771.378	10664.97
771.569	11346.94
771.759	11252.73
771.949	10533.9
772.139	10615.82
772.33	10955.78
772.52	11305.98
772.71	10728.45
772.9	10499.08
773.09	11127.81
773.281	11260.93
773.471	10554.38
773.661	10734.6
773.851	10961.92
774.041	10908.68
774.231	10329.1
774.421	10701.83
774.611	11168.77
774.802	10830.85
774.992	10382.35
775.182	10621.96
775.372	10761.22
775.562	10767.37
775.752	10595.34
775.942	10537.99
776.131	11000.83
776.321	10689.54
776.511	10341.39
776.701	10327.05
776.891	10699.78
777.081	10224.65
777.271	10533.9
777.461	10206.22
777.651	10646.54
777.84	10818.57
778.03	10413.07
778.22	10318.86
778.41	10953.73
778.599	10415.12
778.789	10245.13
778.979	10193.94
779.169	10671.11
779.358	10318.86
779.548	10486.79
779.738	9966.61
779.927	10550.28
780.117	10304.53
780.307	10003.47
780.496	9698.33
780.686	10716.17
780.875	10802.18
781.065	9997.33
781.254	9786.39
781.444	10325.01
781.633	10402.83
781.823	10015.76
782.012	10257.42
782.202	10109.97
782.391	10400.78
782.581	9915.41
782.77	10322.96
782.96	10421.26
783.149	9995.28
783.338	9901.08
783.528	9757.72
783.717	10376.2
783.906	10589.19
784.096	9976.85
784.285	9872.4
784.474	10146.83
784.663	10030.1
784.853	9888.79
785.042	9933.84
785.231	10026
785.42	10351.63
785.61	9827.35
785.799	9608.22
785.988	10048.53
786.177	9991.19
786.366	10015.76
786.555	10187.79
786.744	10302.48
786.933	9964.56
787.122	9587.74
787.312	9511.96
787.501	9821.2
787.69	9948.18
787.879	9710.61
788.068	9569.3
788.257	9638.94
788.445	9833.49
788.634	9886.74
788.823	9679.89
789.012	10664.97
789.201	10093.58
789.39	9901.08
789.579	9473.05
789.768	9804.82
789.957	10085.39
790.145	9522.2
790.334	9325.6
790.523	9856.02
790.712	9546.78
790.9	9622.55
791.089	9434.14
791.278	10026
791.467	9675.8
791.655	9706.52
791.844	10048.53
792.033	9581.59
792.221	9683.99
792.41	9640.98
792.599	9088.03
792.787	9757.72
792.976	9995.28
793.164	9376.8
793.353	9366.56
793.541	9913.36
793.73	9819.16
793.918	9634.84
794.107	9247.77
794.295	9675.8
794.484	9755.67
794.672	9223.2
794.861	9178.14
795.049	9667.61
795.238	9925.65
795.426	9077.79
795.614	9153.57
795.803	9745.43
795.991	9741.33
796.179	9423.9
796.368	9315.36
796.556	9679.89
796.744	9012.26
796.932	9303.07
797.121	9098.27
797.309	9282.59
797.497	9659.42
797.685	9135.14
797.874	9167.9
798.062	9206.81
798.25	9661.46
798.438	9174.05
798.626	9202.72
798.814	9518.11
799.002	10048.53
799.19	9577.5
799.378	9118.75
799.566	9743.38
799.755	9770.01
799.943	9145.38
800.131	9120.8
800.318	9341.98
800.506	9436.19
800.694	9182.24
800.882	9194.53
801.07	9770.01
801.258	9380.89
801.446	9108.51
801.634	9143.33
801.822	9245.73
802.01	9352.22
802.197	9045.02
802.385	9237.53
802.573	9317.4
802.761	9176.09
802.949	9442.33
803.136	9157.66
803.324	9520.15
803.512	9550.87
803.699	9337.88
803.887	9051.17
804.075	9808.92
804.262	9446.43
804.45	9018.4
804.638	9243.68
804.825	9147.42
805.013	9348.12
805.201	9468.95
805.388	9135.14
805.576	9419.8
805.763	9970.71
805.951	9233.44
806.138	9266.21
806.326	9931.8
806.513	9716.76
806.701	9276.45
806.888	9378.84
807.075	9767.96
807.263	9974.8
807.45	9167.9
807.638	9501.72
807.825	9915.41
808.012	9798.68
808.2	9305.12
808.387	9628.7
808.574	9770.01
808.761	9937.94
808.949	9229.34
809.136	9444.38
809.323	9516.06
809.51	9497.63
809.698	9485.34
809.885	9649.18
810.072	9511.96
810.259	9966.61
810.446	9380.89
810.633	9415.71
810.82	9868.31
811.008	10079.25
811.195	9561.11
811.382	9593.88
811.569	9597.98
811.756	9255.97
811.943	9501.72
812.13	9368.6
812.317	9530.39
812.504	9667.61
812.691	9327.64
812.878	9407.52
813.064	10028.05
813.251	9733.14
813.438	9458.71
813.625	9559.06
813.812	9561.11
813.999	9532.44
814.186	9548.82
814.372	9499.67
814.559	9954.32
814.746	10069.01
814.933	9262.11
815.12	9464.86
815.306	9497.63
815.493	9442.33
815.68	9526.3
815.866	9661.46
816.053	10056.72
816.24	10284.05
816.426	9608.22
816.613	9389.08
816.799	9772.05
816.986	9712.66
817.173	9505.82
817.359	9251.87
817.546	9712.66
817.732	9440.28
817.919	9075.74
818.105	9638.94
818.292	9710.61
818.478	9696.28
818.665	9532.44
818.851	9485.34
819.037	10193.94
819.224	9694.23
819.41	9303.07
819.597	9262.11
819.783	9815.06
819.969	9731.09
820.156	9247.77
820.342	9178.14
820.528	10433.55
820.714	9456.67
820.901	9700.37
821.087	9190.43
821.273	10005.52
821.459	9475.1
821.646	9258.01
821.832	9081.89
822.018	9667.61
822.204	9180.19
822.39	9376.8
822.576	8963.11
822.762	9595.93
822.948	9479.19
823.134	9372.7
823.32	8928.29
823.507	8967.2
823.693	9237.53
823.879	9471
824.065	8979.49
824.25	9464.86
824.436	9135.14
824.622	9235.49
824.808	8889.38
824.994	9208.86
825.18	9112.61
825.366	8969.25
825.552	9141.28
825.738	9364.51
825.923	9573.4
826.109	9167.9
826.295	9038.88
826.481	9155.61
826.667	9192.48
826.852	9006.11
827.038	9194.53
827.224	9729.05
827.409	9804.82
827.595	8721.45
827.781	9241.63
827.966	9468.95
828.152	9311.26
828.338	8973.35
828.523	8623.14
828.709	9159.71
828.894	9413.66
829.08	8813.6
829.266	8916
829.451	8846.37
829.637	9094.18
829.822	8903.71
830.008	8696.87
830.193	9135.14
830.378	9362.46
830.564	8967.2
830.749	8885.28
830.935	9280.54
831.12	9415.71
831.305	8780.84
831.491	8766.5
831.676	8537.13
831.861	9004.07
832.047	8633.38
832.232	8617
832.417	9387.04
832.602	9036.83
832.788	8772.64
832.973	8684.58
833.158	8999.97
833.343	8967.2
833.528	8819.75
833.714	8868.9
833.899	8989.73
834.084	9106.46
834.269	8989.73
834.454	8573.99
834.639	9239.58
834.824	8848.42
835.009	8457.26
835.194	8698.92
835.379	8913.95
835.564	9151.52
835.749	8696.87
835.934	8444.97
836.119	8873
836.304	8752.17
836.489	8449.07
836.674	8528.94
836.859	8692.77
837.044	9032.74
837.228	8498.22
837.413	8363.05
837.598	8875.04
837.783	8967.2
837.968	8551.46
838.152	8176.69
838.337	8369.19
838.522	8739.88
838.707	8619.05
838.891	8737.83
839.076	8535.08
839.261	8784.93
839.445	8479.79
839.63	8590.38
839.815	8899.62
839.999	8465.45
840.184	8145.97
840.368	8528.94
840.553	8729.64
840.737	8860.71
840.922	8234.03
841.106	8025.14
841.291	8166.45
841.475	8647.72
841.66	8213.55
841.844	8094.77
842.029	9337.88
842.213	8240.17
842.397	8334.38
842.582	7953.46
842.766	8760.36
842.951	8717.35
843.135	7986.22
843.319	8260.65
843.504	8379.43
843.688	8576.04
843.872	7947.31
844.056	8129.58
844.241	8455.21
844.425	8293.42
844.609	8332.33
844.793	8123.44
844.977	8594.47
845.161	8404.01
845.346	8008.75
845.53	8014.9
845.714	8096.82
845.898	8827.94
846.082	7922.74
846.266	7857.2
846.45	8309.8
846.634	8123.44
846.818	7928.88
847.002	8195.12
847.186	8414.25
847.37	7939.12
847.554	7943.22
847.738	7965.75
847.922	8289.32
848.106	8199.21
848.29	7742.52
848.473	7681.08
848.657	8244.27
848.841	8129.58
849.025	7795.76
849.209	7531.58
849.392	8272.94
849.576	8062
849.76	7433.27
849.944	7781.43
850.127	8492.07
850.311	7648.31
850.495	7564.34
850.678	7609.4
850.862	8373.29
851.046	8207.41
851.229	7853.11
851.413	7470.14
851.596	8010.8
851.78	7922.74
851.964	7924.79
852.147	7556.15
852.331	8508.46
852.514	8305.71
852.698	7683.13
852.881	7412.79
853.065	8254.51
853.248	7849.01
853.431	7736.37
853.615	7853.11
853.798	8365.1
853.982	7863.35
854.165	7611.45
854.348	7603.25
854.532	7586.87
854.715	7627.83
854.898	7711.8
855.081	7613.49
855.265	7932.98
855.448	8117.29
855.631	7502.9
855.814	7629.88
855.997	7971.89
856.181	7713.84
856.364	7681.08
856.547	7324.73
856.73	7697.46
856.913	7562.3
857.096	7441.47
857.279	7511.1
857.462	7554.1
857.645	7873.59
857.828	7490.62
858.011	7291.96
858.194	7414.84
858.377	7642.17
858.56	7177.28
858.743	7281.72
858.926	7218.24
859.109	7742.52
859.292	7285.82
859.475	7308.35
859.658	7789.62
859.841	7611.45
860.023	7179.33
860.206	7115.84
860.389	7625.78
860.572	7744.56
860.755	7318.59
860.937	7195.71
861.12	7345.21
861.303	7304.25
861.486	7070.78
861.668	6992.96
861.851	7646.26
862.034	7578.68
862.216	7351.35
862.399	7007.3
862.581	7502.9
862.764	7754.8
862.947	7013.44
863.129	7113.79
863.312	7173.18
863.494	7445.56
863.677	7423.03
863.859	7001.15
864.042	7437.37
864.224	7799.86
864.406	7365.69
864.589	6902.85
864.771	7294.01
864.954	7035.97
865.136	6890.56
865.318	6708.29
865.501	7103.55
865.683	6745.16
865.865	6765.64
866.048	6818.88
866.23	7033.92
866.412	6980.67
866.594	6640.71
866.777	6827.07
866.959	7267.39
867.141	6679.62
867.323	7056.45
867.505	7021.63
867.687	6882.37
867.869	7150.65
868.052	6853.7
868.234	6601.8
868.416	7009.34
868.598	7425.08
868.78	6624.33
868.962	6636.61
869.144	7255.1
869.326	7175.23
869.508	6569.03
869.69	6587.46
869.872	6878.27
870.054	7107.65
870.236	6607.94
870.417	6665.28
870.599	6816.83
870.781	7318.59
870.963	6706.24
871.145	6714.44
871.327	6779.97
871.508	7205.95
871.69	6771.78
871.872	6845.51
872.054	7111.74
872.235	7070.78
872.417	6812.74
872.599	6571.08
872.78	7302.2
872.962	7064.64
873.144	6564.93
873.325	6696
873.507	7238.72
873.689	6997.06
873.87	6775.88
874.052	6667.33
874.233	6667.33
874.415	7230.52
874.596	6863.94
874.778	6603.85
874.959	7007.3
875.141	7263.29
875.322	6663.24
875.503	6497.35
875.685	7160.89
875.866	6526.02
876.048	6435.91
876.229	6446.15
876.41	6700.1
876.592	6935.62
876.773	6609.99
876.954	6300.75
877.136	7076.93
877.317	6722.63
877.498	6458.44
877.679	6863.94
877.86	7167.04
878.042	6908.99
878.223	6444.1
878.404	6827.07
878.585	7146.56
878.766	7328.83
878.947	6876.23
879.128	6868.03
879.309	7154.75
879.49	7255.1
879.672	6696
879.853	6802.5
880.034	6992.96
880.215	7089.21
880.396	6814.79
880.576	6691.91
880.757	6767.68
880.938	7337.02
881.119	6718.53
881.3	6693.96
881.481	6843.46
881.662	7820.34
881.843	6558.79
882.023	6456.39
882.204	7160.89
882.385	6966.34
882.566	6769.73
882.747	6622.28
882.927	7011.39
883.108	7087.17
883.289	6788.16
883.469	7230.52
883.65	6980.67
883.831	7124.03
884.011	6915.14
884.192	7058.49
884.373	7349.31
884.553	7271.48
884.734	6913.09
884.914	7009.34
885.095	7865.39
885.275	7527.48
885.456	7242.81
885.636	6892.61
885.817	7285.82
885.997	7220.28
886.178	7064.64
886.358	7119.93
886.538	7294.01
886.719	8258.6
886.899	7169.09
887.08	7128.13
887.26	7478.33
887.44	7015.49
887.621	7091.26
887.801	7038.02
887.981	7973.94
888.161	7568.44
888.342	7083.07
888.522	7201.85
888.702	7615.54
888.882	7574.58
889.062	7136.32
889.242	6939.71
889.423	7734.32
889.603	7337.02
889.783	7236.67
889.963	6898.75
890.143	7633.97
890.323	7719.99
890.503	7171.13
890.683	7134.27
890.863	7267.39
891.043	7593.01
891.223	7154.75
891.403	7423.03
891.583	7337.02
891.763	7322.68
891.943	7175.23
892.122	7138.37
892.302	7496.76
892.482	7214.14
892.662	7150.65
892.842	7085.12
893.022	7228.48
893.201	7142.46
893.381	7191.61
893.561	6931.52
893.741	7468.09
893.92	7230.52
894.1	7056.45
894.28	6952
894.459	7533.62
894.639	7394.36
894.819	6947.9
894.998	7281.72
895.178	7275.58
895.357	7355.45
895.537	6976.58
895.716	6970.43
895.896	6968.38
896.075	7683.13
896.255	6990.91
896.434	6792.26
896.614	7631.93
896.793	7586.87
896.973	7283.77
897.152	6921.28
897.331	7236.67
897.511	7386.17
897.69	6702.15
897.87	6857.79
898.049	7382.07
898.228	7271.48
898.407	7052.35
898.587	7040.06
898.766	6949.95
898.945	7150.65
899.124	7021.63
899.304	6718.53
899.483	7255.1
899.662	7480.38
899.841	6591.56
900.02	6593.61
900.199	7361.59
900.378	7136.32
900.557	6595.65
900.737	6489.16
900.916	6818.88
901.095	7189.56
901.274	6808.64
901.453	6462.54
901.632	6562.89
901.811	6687.81
901.989	6452.3
902.168	6448.2
902.347	6974.53
902.526	6626.37
902.705	6542.41
902.884	6399.05
903.063	7044.16
903.242	7152.7
903.42	6241.36
903.599	6632.52
903.778	6827.07
903.957	6931.52
904.135	6433.86
904.314	6376.52
904.493	6816.83
904.672	6667.33
904.85	6304.84
905.029	6243.4
905.207	6407.24
905.386	7029.82
905.565	6112.33
905.743	6165.58
905.922	6259.79
906.1	6644.81
906.279	5870.67
906.457	5981.26
906.636	6212.68
906.814	6040.65
906.993	5872.72
907.171	5694.55
907.35	6427.72
907.528	6208.59
907.707	6042.7
907.885	5868.63
908.063	6339.66
908.242	5999.7
908.42	5964.88
908.598	5481.56
908.777	6011.98
908.955	5868.63
909.133	5971.02
909.311	5682.26
909.49	6098
909.668	5987.41
909.846	5715.03
910.024	5694.55
910.202	6143.05
910.38	6229.07
910.559	5684.31
910.737	5770.32
910.915	6206.54
911.093	6296.65
911.271	5997.65
911.449	6143.05
911.627	6231.12
911.805	6724.68
911.983	6106.19
912.161	6011.98
912.339	6397
912.517	6724.68
912.695	6167.63
912.872	6114.38
913.05	6036.56
913.228	6329.42
913.406	6011.98
913.584	5999.7
913.762	6476.87
913.939	6239.31
914.117	5973.07
914.295	5989.46
914.473	6452.3
914.65	6382.67
914.828	5956.69
915.006	5825.62
915.184	5874.77
915.361	6360.14
915.539	6044.75
915.716	6098
915.894	6407.24
916.072	6548.55
916.249	6200.4
916.427	6048.85
916.604	5968.98
916.782	6216.78
916.959	5723.22
917.137	5708.88
917.314	6233.16
917.492	6321.23
917.669	6014.03
917.847	5932.11
918.024	6263.88
918.201	5899.34
918.379	5936.21
918.556	5866.58
918.733	6231.12
918.911	5891.15
919.088	6165.58
919.265	5907.54
919.442	6138.96
919.62	6071.37
919.797	5747.79
919.974	5561.43
920.151	6138.96
920.328	6059.09
920.506	5903.44
920.683	6083.66
920.86	5741.65
921.037	5801.04
921.214	5805.14
921.391	5665.88
921.568	6087.76
921.745	5860.43
921.922	5809.23
922.099	5647.44
922.276	6190.16
922.453	6038.61
922.63	5524.57
922.807	5870.67
922.984	5837.91
923.161	5778.51
923.338	5835.86
923.514	5434.46
923.691	5950.54
923.868	5930.06
924.045	5432.41
924.222	5459.03
924.399	5895.25
924.575	5839.95
924.752	5543
924.929	5610.58
925.105	5778.51
925.282	5485.65
925.459	5491.8
925.635	5565.53
925.812	5723.22
925.989	5481.56
926.165	5645.4
926.342	5356.63
926.518	5350.49
926.695	5596.25
926.871	5469.27
927.048	5080.16
927.224	5796.95
927.401	5452.89
927.577	5471.32
927.754	5346.39
927.93	5876.82
928.107	5633.11
928.283	5063.77
928.459	5233.75
928.636	5538.9
928.812	5426.26
928.988	5203.04
929.165	5024.86
929.341	5323.87
929.517	5639.25
929.693	5469.27
929.87	4854.88
930.046	5491.8
930.222	5047.39
930.398	5018.72
930.574	5084.25
930.751	5313.63
930.927	5149.79
931.103	5127.26
931.279	4998.24
931.455	4924.51
931.631	5248.09
931.807	4510.82
931.983	4756.58
932.159	4822.11
932.335	5235.8
932.511	4801.63
932.687	4643.94
932.863	5014.62
933.039	4899.94
933.215	4516.97
933.391	4625.51
933.566	4777.06
933.742	4926.56
933.918	4502.63
934.094	4359.27
934.27	4650.08
934.445	4590.69
934.621	4406.38
934.797	4371.56
934.973	4777.06
935.148	4578.4
935.324	4320.36
935.5	3941.49
935.675	4490.34
935.851	4416.62
936.027	4050.03
936.202	4043.88
936.378	4228.2
936.553	4099.18
936.729	4174.95
936.904	3738.74
937.08	3744.88
937.255	3808.37
937.431	3681.39
937.606	3499.13
937.782	3660.91
937.957	3781.74
938.133	3558.52
938.308	3271.8
938.483	3558.52
938.659	3294.33
938.834	3306.62
939.009	3263.61
939.185	3490.93
939.36	3343.48
939.535	2813.06
939.71	3349.62
939.886	3617.91
940.061	3394.68
940.236	3153.02
940.411	2987.13
940.586	3499.13
940.761	3220.6
940.937	2888.83
941.112	2815.1
941.287	3069.05
941.462	3161.21
941.637	2667.65
941.812	2911.36
941.987	2960.51
942.162	2968.7
942.337	2794.62
942.512	2694.27
942.687	3218.55
942.862	2983.04
943.037	2378.89
943.212	2296.97
943.386	2864.25
943.561	2825.34
943.736	2765.95
943.911	2706.56
944.086	3034.24
944.26	2849.92
944.435	2487.43
944.61	2626.69
944.785	3042.43
944.959	3329.14
945.134	2665.6
945.309	2485.38
945.483	2616.45
945.658	2757.76
945.833	2307.21
946.007	2483.33
946.182	3296.38
946.357	2720.9
946.531	2337.93
946.706	2530.44
946.88	2487.43
947.055	2831.49
947.229	2663.55
947.404	2432.13
947.578	3030.14
947.752	2847.87
947.927	2446.47
948.101	2503.81
948.276	2784.38
948.45	2880.64
948.624	2706.56
948.799	2524.29
948.973	2958.46
949.147	2716.8
949.321	2665.6
949.496	2731.14
949.67	3089.53
949.844	2995.32
950.018	2702.47
950.193	2794.62
950.367	3341.43
950.541	2903.17
950.715	2993.28
950.889	3056.76
951.063	2909.31
951.237	2997.37
951.411	2638.98
951.585	2604.16
951.759	3153.02
951.933	2901.12
952.107	2804.86
952.281	2815.1
952.455	3353.72
952.629	3122.3
952.803	2835.58
952.977	2772.1
953.151	3130.49
953.325	3282.04
953.499	2913.41
953.672	2647.17
953.846	2843.78
954.02	2921.6
954.194	2854.02
954.368	2763.9
954.541	3200.12
954.715	2987.13
954.889	3026.04
955.062	2757.76
955.236	3085.44
955.41	2978.94
955.583	3036.28
955.757	2811.01
955.93	2972.8
956.104	2856.06
956.278	2921.6
956.451	2964.61
956.625	3218.55
956.798	3628.15
956.972	2966.65
957.145	2913.41
957.319	3044.48
957.492	3175.55
957.665	3036.28
957.839	2892.93
958.012	3220.6
958.185	3007.61
958.359	2845.82
958.532	3138.68
958.705	3402.87
958.879	3277.94
959.052	3087.48
959.225	2729.09
959.398	3214.46
959.572	3220.6
959.745	3103.87
959.918	2946.17
960.091	3028.09
960.264	3333.24
960.438	2808.96
960.611	2989.18
960.784	3306.62
960.957	3060.86
961.13	3185.79
961.303	2921.6
961.476	3320.95
961.649	3355.77
961.822	2925.69
961.995	3034.24
962.168	3343.48
962.341	3392.63
962.514	3021.95
962.686	2944.13
962.859	3183.74
963.032	3435.64
963.205	2933.89
963.378	2759.81
963.551	3204.22
963.723	3257.46
963.896	3042.43
964.069	3011.71
964.242	3196.03
964.414	3429.49
964.587	3005.56
964.76	2991.23
964.932	3314.81
965.105	3220.6
965.278	2819.2
965.45	2880.64
965.623	3013.76
965.795	3294.33
965.968	2897.02
966.14	2819.2
966.313	3118.2
966.485	3105.92
966.658	2937.98
966.83	2765.95
967.003	3386.49
967.175	3329.14
967.348	2974.85
967.52	2897.02
967.692	3357.82
967.865	3220.6
968.037	2989.18
968.209	3120.25
968.382	3099.77
968.554	3277.94
968.726	2964.61
968.898	2868.35
969.071	3024
969.243	3114.11
969.415	2849.92
969.587	2933.89
969.759	3497.08
969.932	3337.34
970.104	2880.64
970.276	2690.18
970.448	3120.25
970.62	2905.21
970.792	2862.21
970.964	2958.46
971.136	3456.12
971.308	3189.88
971.48	2661.51
971.652	2700.42
971.824	3359.86
971.996	2903.17
972.168	2811.01
972.339	2796.67
972.511	3187.83
972.683	2745.47
972.855	2991.23
973.027	2751.62
973.199	2915.45
973.37	3101.82
973.542	2866.3
973.714	2860.16
973.886	2909.31
974.057	3261.56
974.229	2503.81
974.401	2731.14
974.572	2806.91
974.744	2538.63
974.915	2522.24
975.087	2733.18
975.259	3159.16
975.43	2811.01
975.602	2585.73
975.773	2493.57
975.945	2655.36
976.116	3083.39
976.288	2577.54
976.459	2759.81
976.63	2837.63
976.802	2923.65
976.973	2561.16
977.145	2653.31
977.316	3146.87
977.487	3112.06
977.659	2743.42
977.83	2722.95
978.001	3175.55
978.172	2759.81
978.344	2452.61
978.515	2542.72
978.686	2602.11
978.857	3101.82
979.028	2479.24
979.2	2366.6
979.371	2999.42
979.542	2712.71
979.713	2626.69
979.884	2090.12
980.055	2618.5
980.226	2602.11
980.397	2346.12
980.568	2378.89
980.739	2929.79
980.91	2632.83
981.081	2704.51
981.252	2280.58
981.423	2841.73
981.594	2960.51
981.765	2370.69
981.936	2573.44
982.106	2579.59
982.277	2907.26
982.448	2342.02
982.619	2655.36
982.79	2507.91
982.96	2829.44
983.131	2335.88
983.302	2139.27
983.472	2415.75
983.643	2698.37
983.814	2370.69
983.984	2215.05
984.155	2573.44
984.326	2761.86
984.496	2514.05
984.667	2378.89
984.837	2157.71
985.008	2864.25
985.178	2464.9
985.349	2305.16
985.519	2395.27
985.69	2276.49
985.86	2213
986.031	2124.94
986.201	2473.09
986.371	2507.91
986.542	2004.11
986.712	1961.1
986.882	2528.39
987.053	2518.15
987.223	2188.43
987.393	2219.14
987.563	2296.97
987.734	2503.81
987.904	2507.91
988.074	2057.36
988.244	2266.25
988.414	2051.21
988.585	2053.26
988.755	2217.1
988.925	2178.19
989.095	2729.09
989.265	2059.4
989.435	2249.86
989.605	2417.8
989.775	2393.22
989.945	2258.06
990.115	1918.09
990.285	2264.2
990.455	2278.54
990.625	2256.01
990.795	2030.73
990.965	2628.74
991.134	2038.92
991.304	1946.76
991.474	1924.24
991.644	2233.48
991.814	2489.48
991.984	1774.74
992.153	1830.03
992.323	2157.71
992.493	2120.84
992.662	1696.91
992.832	2118.79
993.002	2217.1
993.171	2194.57
993.341	1694.86
993.511	2034.83
993.68	1899.66
993.85	2217.1
994.019	1668.24
994.189	1766.54
994.358	2223.24
994.528	1957
994.697	1569.94
994.867	1653.91
995.036	2194.57
995.206	1926.29
995.375	1641.62
995.544	1864.85
995.714	1963.15
995.883	1895.57
996.052	1862.8
996.222	1537.17
996.391	2552.96
996.56	1854.61
996.73	1713.3
996.899	1565.84
997.068	2262.15
997.237	1918.09
997.406	1571.99
997.576	1594.51
997.745	2010.25
997.914	1995.92
998.083	1455.25
998.252	1651.86
998.421	1977.48
998.59	1592.47
998.759	1477.78
998.928	1412.25
999.097	2260.1
999.266	1914
999.435	1641.62
999.604	1504.4
999.773	2215.05
999.942	1815.69
1000.111	1381.53
1000.28	1201.3
1000.448	1604.75
1000.617	1561.75
1000.786	1678.48
1000.955	1344.66
1001.124	2016.4
1001.292	2395.27
1001.461	1402.01
1001.63	1301.65
1001.798	2018.44
1001.967	2061.45
1002.136	1270.94
1002.304	1451.16
1002.473	1647.76
1002.642	1815.69
1002.81	1442.96
1002.979	1356.95
1003.147	1795.22
1003.316	2235.53
1003.484	1402.01
1003.653	1272.98
1003.821	1944.72
1003.99	1569.94
1004.158	1643.67
1004.327	1402.01
1004.495	1744.02
1004.663	1344.66
1004.832	1434.77
1005	1103
1005.168	1684.62
1005.337	1580.18
1005.505	1119.39
1005.673	1504.4
1005.842	1653.91
1006.01	1701.01
1006.178	1117.34
1006.346	1287.32
1006.514	1668.24
1006.683	1819.79
1006.851	1272.98
1007.019	1283.22
1007.187	1361.05
1007.355	1143.96
1007.523	947.36
1007.691	1012.89
1007.859	1164.44
1008.027	1713.3
1008.195	1098.91
1008.363	1039.51
1008.531	1670.29
1008.699	1348.76
1008.867	1004.7
1009.035	1127.58
1009.203	1725.58
1009.37	1432.72
1009.538	1162.39
1009.706	1541.27
1009.874	1502.36
1010.042	1438.87
1010.209	976.03
1010.377	1055.9
1010.545	1598.61
1010.713	1461.4
1010.88	1068.19
1011.048	1197.21
1011.216	1272.98
1011.383	1701.01
1011.551	996.51
1011.718	1049.75
1011.886	1481.88
1012.054	1275.03
1012.221	847.01
1012.389	1031.32
1012.556	1336.47
1012.724	1758.35
1012.891	1086.62
1013.058	863.39
1013.226	1307.8
1013.393	1494.16
1013.561	806.05
1013.728	775.33
1013.895	1453.2
1014.063	1356.95
1014.23	814.24
1014.397	947.36
1014.565	1481.88
1014.732	1289.37
1014.899	838.81
1015.066	748.7
1015.233	1240.22
1015.401	1410.2
1015.568	838.81
1015.735	963.74
1015.902	1221.78
1016.069	1270.94
1016.236	795.81
1016.403	769.18
1016.57	943.26
1016.737	1311.89
1016.904	890.01
1017.071	797.85
1017.238	1049.75
1017.405	1293.46
1017.572	791.71
1017.739	947.36
1017.906	1266.84
1018.073	1285.27
1018.24	728.22
1018.407	804
1018.573	1377.43
1018.74	1035.42
1018.907	734.37
1019.074	562.34
1019.241	1258.65
1019.407	1111.19
1019.574	670.88
1019.741	697.5
1019.907	1031.32
1020.074	1184.92
1020.241	484.52
1020.407	556.19
1020.574	1090.71
1020.74	1211.54
1020.907	728.22
1021.073	662.69
1021.24	1598.61
1021.406	1340.57
1021.573	677.02
1021.739	795.81
1021.906	1225.88
1022.072	1035.42
1022.239	681.12
1022.405	674.98
1022.571	1000.6
1022.738	814.24
1022.904	572.58
1023.07	754.85
1023.237	1080.47
1023.403	1299.61
1023.569	672.93
1023.735	627.87
1023.902	1053.85
1024.068	1076.38
1024.234	504.99
1024.4	603.3
1024.566	1062.04
1024.732	1066.14
1024.898	513.19
1025.065	398.5
1025.231	1072.28
1025.397	869.53
1025.563	580.77
1025.729	453.8
1025.895	578.72
1026.061	650.4
1026.227	316.58
1026.392	578.72
1026.558	1229.98
1026.724	1035.42
1026.89	566.43
1027.056	662.69
1027.222	943.26
1027.388	838.81
1027.553	435.36
1027.719	537.76
1027.885	1225.88
1028.051	998.56
1028.216	392.36
1028.382	578.72
1028.548	1146.01
1028.713	799.9
1028.879	322.73
1029.045	654.5
1029.21	1225.88
1029.376	1094.81
1029.541	476.32
1029.707	484.52
1029.873	1033.37
1030.038	1127.58
1030.204	410.79
1030.369	554.15
1030.534	1051.8
1030.7	775.33
1030.865	531.62
1031.031	398.5
1031.196	988.32
1031.361	980.12
1031.527	416.93
1031.692	423.08
1031.857	480.42
1032.023	1002.65
1032.188	427.17
1032.353	423.08
1032.518	1189.02
1032.684	812.19
1032.849	214.18
1033.014	416.93
1033.179	982.17
1033.344	906.4
1033.509	504.99
1033.674	464.04
1033.839	918.68
1034.004	808.09
1034.17	433.32
1034.335	322.73
1034.5	709.79
1034.664	623.78
1034.829	341.16
1034.994	435.36
1035.159	836.77
1035.324	765.09
1035.489	468.13
1035.654	328.87
1035.819	967.84
1035.984	842.91
1036.148	414.88
1036.313	351.4
1036.478	937.12
1036.643	760.99
1036.807	289.96
1036.972	328.87
1037.137	978.08
1037.301	668.83
1037.466	169.13
1037.631	588.96
1037.795	941.21
1037.96	808.09
1038.124	498.85
1038.289	236.71
1038.454	801.95
1038.618	859.29
1038.783	390.31
1038.947	478.37
1039.111	697.5
1039.276	582.82
1039.44	302.25
1039.605	703.65
1039.769	621.73
1039.933	679.07
1040.098	341.16
1040.262	504.99
1040.426	869.53
1040.591	822.43
1040.755	212.14
1040.919	267.43
1041.083	791.71
1041.248	550.05
1041.412	134.31
1041.576	195.75
1041.74	578.72
1041.904	853.15
1042.068	353.45
1042.232	285.86
1042.397	912.54
1042.561	707.74
1042.725	19.63
1042.889	375.97
1043.053	734.37
1043.217	779.42
1043.381	439.46
1043.544	140.46
1043.708	797.85
1043.872	382.12
1044.036	27.82
1044.2	160.94
1044.364	881.82
1044.528	1055.9
1044.691	1576.08
1044.855	52.39
1045.019	1029.27
1045.183	722.08
1045.346	322.73
1045.51	158.89
1045.674	760.99
1045.837	709.79
1046.001	236.71
1046.165	216.23
1046.328	1135.77
1046.492	662.69
1046.655	474.28
1046.819	267.43
1046.983	388.26
1047.146	672.93
1047.31	292.01
1047.473	-39.76
1047.636	498.85
1047.8	441.51
1047.963	312.49
1048.127	124.07
1048.29	294.05
