Data from Hydrogel_Ink_Intensity_Test_1_USB4F045381__76__00076.txt Node

Date: Mon Jul 31 10:56:08 EDT 2023
User: mmckonesweet
Spectrometer: USB4F04538
Trigger mode: 4
Integration Time (sec): 9.000000E-1
Scans to average: 1
Electric dark correction enabled: true
Nonlinearity correction enabled: false
Boxcar width: 0
XAxis mode: Wavelengths
Number of Pixels in Spectrum: 3648
>>>>>Begin Spectral Data<<<<<
345.52	-1033.54
345.736	-1033.54
345.952	-1033.54
346.168	-990.53
346.384	-943.43
346.6	-114
346.816	-187.73
347.032	-224.59
347.248	326.31
347.464	-224.59
347.68	-126.29
347.896	90.79
348.112	367.27
348.328	-91.48
348.544	-77.14
348.76	-32.08
348.975	293.54
349.191	-220.5
349.407	-171.35
349.623	72.36
349.839	-58.71
350.055	-185.68
350.27	8.87
350.486	189.1
350.702	365.22
350.918	291.49
351.133	-177.49
351.349	172.71
351.565	492.2
351.781	-216.4
351.996	-71
352.212	373.41
352.428	-93.52
352.644	-228.69
352.859	-261.46
353.075	189.1
353.291	80.55
353.506	-42.32
353.722	-210.26
353.938	-79.19
354.153	463.52
354.369	121.51
354.584	-173.39
354.8	299.69
355.016	-267.6
355.231	-290.13
355.447	-52.56
355.662	115.37
355.878	856.73
356.093	-216.4
356.309	8.87
356.524	-200.02
356.74	225.96
356.955	-228.69
357.171	-30.04
357.386	111.27
357.602	-251.22
357.817	-81.24
358.033	-169.3
358.248	305.83
358.464	113.32
358.679	-101.72
358.895	-300.37
359.11	58.03
359.325	240.3
359.541	225.96
359.756	-1.37
359.972	-230.74
360.187	225.96
360.402	-105.81
360.618	-126.29
360.833	946.84
361.048	139.94
361.264	-148.82
361.479	-60.76
361.694	2.73
361.909	242.34
362.125	-286.03
362.34	-75.09
362.555	287.4
362.77	103.08
362.986	-249.17
363.201	-107.86
363.416	154.28
363.631	10.92
363.847	-169.3
364.062	-150.87
364.277	189.1
364.492	82.6
364.707	-175.44
364.922	-281.94
365.138	209.58
365.353	266.92
365.568	-365.9
365.783	-206.16
365.998	115.37
366.213	516.77
366.428	-255.31
366.643	68.27
366.858	275.11
367.073	242.34
367.288	-101.72
367.503	-249.17
367.718	113.32
367.933	316.07
368.148	-363.86
368.363	-66.9
368.578	-50.52
368.793	502.43
369.008	-128.34
369.223	-271.7
369.438	277.16
369.653	428.71
369.868	-216.4
370.083	-261.46
370.298	150.18
370.513	408.23
370.728	70.31
370.943	-138.58
371.157	-142.68
371.372	567.97
371.587	-310.61
371.802	-251.22
372.017	-7.51
372.232	492.2
372.446	-93.52
372.661	-281.94
372.876	246.44
373.091	137.9
373.306	-140.63
373.52	-249.17
373.735	-136.53
373.95	449.19
374.165	-89.43
374.379	-101.72
374.594	-68.95
374.809	107.18
375.023	43.69
375.238	-163.15
375.453	320.17
375.667	-245.07
375.882	-68.95
376.097	-99.67
376.311	37.55
376.526	37.55
376.741	-175.44
376.955	119.46
377.17	467.62
377.384	570.02
377.599	-32.08
377.813	-249.17
378.028	502.43
378.242	187.05
378.457	-83.28
378.672	-257.36
378.886	103.08
379.101	0.68
379.315	-331.09
379.53	-159.06
379.744	283.3
379.958	213.67
380.173	-171.35
380.387	-177.49
380.602	162.47
380.816	-42.32
381.031	-171.35
381.245	-75.09
381.459	164.52
381.674	2691.71
381.888	-179.54
382.103	55.98
382.317	-126.29
382.531	477.86
382.746	17.07
382.96	-236.88
383.174	17.07
383.388	426.66
383.603	168.62
383.817	-269.65
384.031	195.24
384.246	490.15
384.46	-40.28
384.674	418.47
384.888	23.21
385.103	33.45
385.317	-232.79
385.531	-15.7
385.745	436.9
385.959	400.04
386.174	-169.3
386.388	-202.07
386.602	55.98
386.816	-111.96
387.03	-66.9
387.244	-114
387.458	45.74
387.672	490.15
387.887	-202.07
388.101	-265.55
388.315	375.46
388.529	201.38
388.743	-142.68
388.957	-118.1
389.171	332.45
389.385	-150.87
389.599	-118.1
389.813	62.12
390.027	123.56
390.241	668.32
390.455	-48.47
390.669	-138.58
390.883	-81.24
391.097	516.77
391.311	64.17
391.525	-165.2
391.738	168.62
391.952	254.63
392.166	21.16
392.38	-181.59
392.594	344.74
392.808	330.41
393.022	-56.66
393.236	-173.39
393.449	240.3
393.663	271.01
393.877	-292.18
394.091	-91.48
394.305	35.5
394.518	-56.66
394.732	-236.88
394.946	-81.24
395.16	393.89
395.373	148.14
395.587	-204.11
395.801	-249.17
396.015	326.31
396.228	258.73
396.442	-142.68
396.656	-283.98
396.869	400.04
397.083	549.54
397.297	-13.65
397.51	-150.87
397.724	340.65
397.938	123.56
398.151	-292.18
398.365	-232.79
398.578	295.59
398.792	459.43
399.005	-7.51
399.219	8.87
399.433	209.58
399.646	250.53
399.86	-21.84
400.073	-1.37
400.287	250.53
400.5	137.9
400.714	-1.37
400.927	21.16
401.141	348.84
401.354	1251.99
401.567	225.96
401.781	-109.91
401.994	357.03
402.208	692.9
402.421	-62.8
402.635	-68.95
402.848	74.41
403.061	414.37
403.275	-32.08
403.488	-222.55
403.701	574.11
403.915	266.92
404.128	49.83
404.341	-116.05
404.555	277.16
404.768	70.31
404.981	29.35
405.195	-175.44
405.408	555.68
405.621	365.22
405.834	144.04
406.048	-191.83
406.261	471.72
406.474	545.44
406.687	-148.82
406.9	37.55
407.114	205.48
407.327	293.54
407.54	-163.15
407.753	-273.75
407.966	-19.8
408.179	369.32
408.392	-148.82
408.605	-230.74
408.819	203.43
409.032	135.85
409.245	-109.91
409.458	137.9
409.671	324.26
409.884	479.91
410.097	-163.15
410.31	53.93
410.523	287.4
410.736	78.51
410.949	29.35
411.162	86.7
411.375	590.5
411.588	381.6
411.801	68.27
412.014	-120.15
412.227	203.43
412.44	17.07
412.653	-81.24
412.865	29.35
413.078	447.14
413.291	283.3
413.504	-34.13
413.717	-109.91
413.93	367.27
414.143	-17.75
414.356	-89.43
414.568	-294.22
414.781	381.6
414.994	299.69
415.207	27.31
415.42	-38.23
415.632	348.84
415.845	635.55
416.058	-206.16
416.271	-197.97
416.483	189.1
416.696	582.31
416.909	-58.71
417.121	-89.43
417.334	373.41
417.547	604.83
417.759	-68.95
417.972	-56.66
418.185	103.08
418.397	443.04
418.61	-58.71
418.823	21.16
419.035	586.4
419.248	232.1
419.46	-85.33
419.673	58.03
419.885	332.45
420.098	135.85
420.311	-89.43
420.523	-261.46
420.736	338.6
420.948	146.09
421.161	-17.75
421.373	-238.93
421.586	307.88
421.798	55.98
422.01	-187.73
422.223	25.26
422.435	80.55
422.648	297.64
422.86	-101.72
423.073	-83.28
423.285	492.2
423.497	-144.72
423.71	-132.44
423.922	-83.28
424.134	359.08
424.347	522.91
424.559	211.62
424.771	252.58
424.984	146.09
425.196	357.03
425.408	-191.83
425.621	-134.48
425.833	559.78
426.045	424.61
426.257	-138.58
426.47	-48.47
426.682	297.64
426.894	410.28
427.106	-13.65
427.318	-40.28
427.531	53.93
427.743	344.74
427.955	-40.28
428.167	408.23
428.379	359.08
428.591	172.71
428.804	-19.8
429.016	-27.99
429.228	152.23
429.44	443.04
429.652	225.96
429.864	-177.49
430.076	178.86
430.288	115.37
430.5	37.55
430.712	148.14
430.924	447.14
431.136	301.73
431.348	-193.87
431.56	-93.52
431.772	238.25
431.984	191.14
432.196	-105.81
432.408	-50.52
432.62	180.9
432.832	266.92
433.044	316.07
433.256	119.46
433.468	352.93
433.679	-91.48
433.891	-93.52
434.103	240.3
434.315	623.27
434.527	365.22
434.739	203.43
434.95	92.84
435.162	432.8
435.374	152.23
435.586	2.73
435.798	53.93
436.009	2.73
436.221	182.95
436.433	39.59
436.645	113.32
436.856	174.76
437.068	541.35
437.28	-77.14
437.491	250.53
437.703	457.38
437.915	266.92
438.126	27.31
438.338	311.97
438.55	307.88
438.761	367.27
438.973	86.7
439.184	10.92
439.396	225.96
439.608	426.66
439.819	-50.52
440.031	187.05
440.242	443.04
440.454	408.23
440.665	76.46
440.877	117.42
441.088	377.51
441.3	221.86
441.511	-132.44
441.723	-5.46
441.934	316.07
442.146	381.6
442.357	225.96
442.569	338.6
442.78	248.49
442.991	717.47
443.203	426.66
443.414	-7.51
443.626	684.7
443.837	111.27
444.048	19.11
444.26	-134.48
444.471	434.85
444.682	504.48
444.894	-64.85
445.105	-85.33
445.316	594.59
445.528	447.14
445.739	211.62
445.95	244.39
446.161	311.97
446.373	574.11
446.584	66.22
446.795	70.31
447.006	490.15
447.217	678.56
447.429	-17.75
447.64	96.94
447.851	651.94
448.062	332.45
448.273	-154.96
448.484	64.17
448.695	459.43
448.907	344.74
449.118	172.71
449.329	408.23
449.54	283.3
449.751	207.53
449.962	119.46
450.173	29.35
450.384	578.21
450.595	653.98
450.806	131.75
451.017	180.9
451.228	686.75
451.439	594.59
451.65	133.8
451.861	-183.63
452.072	187.05
452.283	371.36
452.494	348.84
452.705	103.08
452.915	748.19
453.126	529.06
453.337	86.7
453.548	123.56
453.759	535.2
453.97	864.93
454.181	316.07
454.391	137.9
454.602	463.52
454.813	541.35
455.024	271.01
455.235	144.04
455.445	432.8
455.656	570.02
455.867	359.08
456.078	123.56
456.288	320.17
456.499	584.35
456.71	94.89
456.921	424.61
457.131	539.3
457.342	541.35
457.553	283.3
457.763	213.67
457.974	559.78
458.184	631.46
458.395	148.14
458.606	129.7
458.816	703.14
459.027	895.64
459.237	357.03
459.448	29.35
459.659	694.94
459.869	965.28
460.08	43.69
460.29	348.84
460.501	963.23
460.711	383.65
460.922	113.32
461.132	193.19
461.343	1063.58
461.553	178.86
461.764	193.19
461.974	223.91
462.184	733.86
462.395	604.83
462.605	334.5
462.816	113.32
463.026	590.5
463.236	764.57
463.447	207.53
463.657	170.66
463.867	791.2
464.078	410.28
464.288	381.6
464.498	262.82
464.709	514.72
464.919	570.02
465.129	342.69
465.339	234.15
465.55	684.7
465.76	756.38
465.97	361.13
466.18	195.24
466.391	713.38
466.601	668.32
466.811	402.08
467.021	268.97
467.231	750.24
467.441	907.93
467.651	424.61
467.862	62.12
468.072	565.92
468.282	918.17
468.492	314.02
468.702	486.05
468.912	750.24
469.122	1284.76
469.332	742.05
469.542	289.45
469.752	959.13
469.962	664.22
470.172	291.49
470.382	357.03
470.592	946.84
470.802	1020.57
471.012	608.93
471.222	457.38
471.432	930.46
471.642	946.84
471.852	541.35
472.062	488.1
472.272	746.14
472.482	502.43
472.691	387.75
472.901	397.99
473.111	725.66
473.321	1340.05
473.531	471.72
473.741	656.03
473.95	1020.57
474.16	985.76
474.37	713.38
474.58	361.13
474.79	1305.24
474.999	1028.76
475.209	512.67
475.419	602.79
475.628	873.12
475.838	1229.46
476.048	711.33
476.258	455.33
476.467	1188.5
476.677	830.11
476.886	893.6
477.096	783.01
477.306	723.62
477.515	1301.14
477.725	793.25
477.935	774.81
478.144	1348.25
478.354	963.23
478.563	768.67
478.773	694.94
478.982	1225.37
479.192	1227.42
479.401	850.59
479.611	694.94
479.82	854.69
480.03	1127.07
480.239	803.49
480.449	774.81
480.658	1452.69
480.868	854.69
481.077	909.98
481.287	832.16
481.496	1372.82
481.705	1401.49
481.915	1239.7
482.124	1071.77
482.333	1292.95
482.543	1637.01
482.752	1204.89
482.961	920.22
483.171	1368.73
483.38	1102.49
483.589	1043.1
483.799	1036.95
484.008	1378.97
484.217	1464.98
484.426	1090.2
484.636	879.26
484.845	1284.76
485.054	934.56
485.263	1405.59
485.472	991.9
485.682	1706.64
485.891	1340.05
486.1	1077.91
486.309	1098.39
486.518	1604.24
486.727	1831.57
486.936	1028.76
487.146	1327.77
487.355	1782.42
487.564	1208.98
487.773	1219.22
487.982	1231.51
488.191	1409.69
488.4	1553.04
488.609	1200.79
488.818	1235.61
489.027	2108.04
489.236	1897.1
489.445	1254.04
489.654	1159.83
489.863	1888.91
490.072	1626.77
490.281	1561.23
490.49	1239.7
490.698	1909.39
490.907	1936.01
491.116	1278.62
491.325	1243.8
491.534	1995.4
491.743	1686.16
491.952	1450.64
492.16	1323.67
492.369	1725.07
492.578	1940.11
492.787	1469.08
492.996	1274.52
493.204	1383.06
493.413	2181.77
493.622	1194.65
493.831	1170.07
494.039	2112.14
494.248	1462.93
494.457	1295
494.665	1327.77
494.874	1909.39
495.083	2218.63
495.291	1495.7
495.5	1479.32
495.709	1985.16
495.917	1882.77
496.126	1591.95
496.335	1446.55
496.543	1753.74
496.752	1831.57
496.96	1780.37
497.169	1350.29
497.377	1876.62
497.586	2146.95
497.794	1727.12
498.003	1409.69
498.211	1901.2
498.42	2216.58
498.628	1759.89
498.837	1579.67
499.045	1966.73
499.254	1929.87
499.462	1516.18
499.671	1510.04
499.879	2423.43
500.087	2110.09
500.296	1585.81
500.504	1696.4
500.713	2032.27
500.921	2558.6
501.129	1616.53
501.338	1766.03
501.546	2077.32
501.754	2044.56
501.962	1684.11
502.171	1667.73
502.379	2026.12
502.587	2398.85
502.795	1761.94
503.004	1770.13
503.212	2009.74
503.42	2275.98
503.628	1866.38
503.837	1944.2
504.045	2284.17
504.253	2536.07
504.461	1831.57
504.669	1684.11
504.877	2343.56
505.085	2488.96
505.294	1718.93
505.502	1981.07
505.71	2259.59
505.918	2384.52
506.126	1600.15
506.334	1794.7
506.542	2220.68
506.75	2351.75
506.958	2036.36
507.166	1962.64
507.374	2167.43
507.582	2638.47
507.79	2005.64
507.998	1870.48
508.206	2427.53
508.414	2265.74
508.622	2030.22
508.83	1995.4
509.037	2556.55
509.245	2200.2
509.453	1831.57
509.661	1909.39
509.869	2534.02
510.077	2163.34
510.285	2136.71
510.492	1790.61
510.7	2996.86
510.908	2192.01
511.116	2017.93
511.324	1950.35
511.531	2304.65
511.739	2376.33
511.947	2300.55
512.155	2433.67
512.362	2189.96
512.57	2081.42
512.778	2046.6
512.985	1815.18
513.193	2642.56
513.401	2769.54
513.608	1974.92
513.816	2056.84
514.024	2482.82
514.231	2708.1
514.439	2214.54
514.646	2085.51
514.854	2542.21
515.061	2609.79
515.269	2128.52
515.477	2124.43
515.684	2284.17
515.892	2732.67
516.099	2005.64
516.307	1862.29
516.514	2663.04
516.722	2876.03
516.929	2114.19
517.136	2103.95
517.344	2882.17
517.551	2642.56
517.759	2091.66
517.966	2282.12
518.173	2331.27
518.381	2480.77
518.588	2308.74
518.796	2210.44
519.003	2718.34
519.21	2437.77
519.418	2177.67
519.625	2443.91
519.832	2486.92
520.039	2613.89
520.247	2052.75
520.454	2265.74
520.661	2744.96
520.868	2724.48
521.076	2278.02
521.283	2370.18
521.49	3226.23
521.697	2689.67
521.904	2335.37
522.112	2382.47
522.319	2904.7
522.526	2751.1
522.733	2398.85
522.94	2267.78
523.147	2499.2
523.354	2775.68
523.561	2202.25
523.768	2314.89
523.975	2904.7
524.183	2777.73
524.39	2390.66
524.597	2222.73
524.804	2658.95
525.011	2513.54
525.218	2439.81
525.425	2382.47
525.632	3025.53
525.838	2632.32
526.045	2572.93
526.252	2507.4
526.459	3830.38
526.666	3596.92
526.873	2585.22
527.08	2427.53
527.287	3269.24
527.494	3166.84
527.701	2478.72
527.907	2314.89
528.114	2904.7
528.321	2824.83
528.528	2482.82
528.735	2491.01
528.941	2626.18
529.148	2691.71
529.355	2724.48
529.562	2511.49
529.768	3189.37
529.975	2642.56
530.182	2740.86
530.388	2443.91
530.595	3103.36
530.802	2636.42
531.008	2755.2
531.215	2617.99
531.422	3650.16
531.628	3566.2
531.835	2769.54
532.042	2755.2
532.248	2732.67
532.455	3089.02
532.661	2642.56
532.868	2708.1
533.074	3029.63
533.281	3351.16
533.487	2712.19
533.694	2767.49
533.9	2939.52
534.107	3103.36
534.313	2759.3
534.52	2589.32
534.726	3181.18
534.933	3603.06
535.139	2675.33
535.345	2611.84
535.552	3166.84
535.758	3103.36
535.965	2962.05
536.171	2785.92
536.377	3355.26
536.584	3420.79
536.79	2720.39
536.996	2966.14
537.203	3095.16
537.409	3252.86
537.615	2841.22
537.821	3136.12
538.028	3277.43
538.234	3310.2
538.44	2773.63
538.646	2830.98
538.853	3310.2
539.059	3234.43
539.265	3371.64
539.471	2732.67
539.677	3363.45
539.883	3134.07
540.09	2906.75
540.296	3263.1
540.502	3238.52
540.708	3021.44
540.914	3185.27
541.12	2953.85
541.326	3359.35
541.532	3330.68
541.738	3068.54
541.944	3164.79
542.15	3590.77
542.356	3246.71
542.562	2892.41
542.768	3086.97
542.974	3979.89
543.18	3754.61
543.386	3003
543.592	2808.45
543.798	3678.83
544.004	3664.5
544.21	3138.17
544.415	3175.03
544.621	3447.41
544.827	3791.47
545.033	3064.44
545.239	3259
545.445	3369.59
545.651	3537.52
545.856	3101.31
546.062	2931.33
546.268	3304.06
546.474	3355.26
546.679	3197.56
546.885	3117.69
547.091	3289.72
547.297	4043.37
547.502	3261.05
547.708	3060.35
547.914	3197.56
548.119	3680.88
548.325	3228.28
548.531	2957.95
548.736	3920.49
548.942	3191.42
549.147	3109.5
549.353	3453.56
549.559	3920.49
549.764	3807.86
549.97	3283.58
550.175	3211.9
550.381	3705.46
550.586	3392.12
550.792	3322.49
550.997	3201.66
551.203	3793.52
551.408	3793.52
551.614	3328.63
551.819	3252.86
552.025	3961.45
552.23	4010.61
552.435	3277.43
552.641	3582.58
552.846	3488.37
553.052	3998.32
553.257	3496.57
553.462	3367.54
553.668	3402.36
553.873	3928.69
554.078	3412.6
554.283	3531.38
554.489	3842.67
554.694	3691.12
554.899	3152.51
555.105	3650.16
555.31	3809.9
555.515	4029.04
555.72	3625.59
555.925	3353.21
556.131	3922.54
556.336	3736.18
556.541	3426.93
556.746	3398.26
556.951	4131.44
557.156	4145.77
557.361	3584.63
557.567	3691.12
557.772	4276.84
557.977	4018.8
558.182	3498.61
558.387	3463.8
558.592	3576.44
558.797	4209.26
559.002	3633.78
559.207	3568.24
559.412	3641.97
559.617	4424.3
559.822	3492.47
560.027	3422.84
560.232	3930.73
560.437	4002.41
560.642	3551.86
560.847	3447.41
561.051	3906.16
561.256	3744.37
561.461	3523.19
561.666	3625.59
561.871	3975.79
562.076	3986.03
562.281	3719.79
562.485	3506.81
562.69	4127.34
562.895	4133.48
563.1	3752.56
563.305	3566.2
563.509	4254.31
563.714	4440.68
563.919	3555.96
564.123	3641.97
564.328	3770.99
564.533	4211.31
564.737	3545.72
564.942	3768.95
565.147	4414.06
565.351	4428.39
565.556	3758.71
565.761	3775.09
565.965	4129.39
566.17	3650.16
566.374	3697.27
566.579	3715.7
566.784	4082.28
566.988	3887.73
567.193	3502.71
567.397	3707.51
567.602	3842.67
567.806	4057.71
568.011	3793.52
568.215	3779.18
568.42	3986.03
568.624	4043.37
568.828	3770.99
569.033	3783.28
569.237	4231.79
569.442	4262.51
569.646	3682.93
569.85	3916.4
570.055	3994.22
570.259	4162.16
570.463	3936.88
570.668	3922.54
570.872	3973.74
571.076	4043.37
571.281	4043.37
571.485	3920.49
571.689	4153.96
571.893	4268.65
572.098	3850.86
572.302	3889.78
572.506	4319.85
572.71	4264.55
572.914	3986.03
573.119	3859.06
573.323	4616.8
573.527	4569.7
573.731	3861.1
573.935	3818.1
574.139	4219.5
574.343	4072.04
574.547	3900.02
574.751	4061.8
574.955	4565.6
575.159	4561.51
575.364	3877.49
575.568	3932.78
575.772	4143.72
575.976	4526.69
576.18	4051.56
576.383	3830.38
576.587	4551.27
576.791	4428.39
576.995	3799.66
577.199	3779.18
577.403	4577.89
577.607	4436.58
577.811	3994.22
578.015	4121.2
578.219	4422.25
578.422	4528.74
578.626	4067.95
578.83	4190.83
579.034	4651.62
579.238	4475.49
579.442	3947.12
579.645	4362.86
579.849	4407.91
580.053	4321.9
580.257	4184.68
580.46	4084.33
580.664	4485.73
580.868	4690.53
581.071	4389.48
581.275	4166.25
581.479	4143.72
581.682	4547.17
581.886	4026.99
582.09	4203.11
582.293	4672.1
582.497	4594.28
582.7	4448.87
582.904	4207.21
583.107	4446.82
583.311	4438.63
583.515	4268.65
583.718	4209.26
583.922	4553.32
584.125	5055.07
584.329	4065.9
584.532	4481.64
584.735	4749.92
584.939	4416.1
585.142	3986.03
585.346	4172.4
585.549	4616.8
585.753	4385.38
585.956	4203.11
586.159	4473.45
586.363	5005.92
586.566	4797.03
586.769	4205.16
586.973	4115.05
587.176	4608.61
587.379	4799.07
587.582	4520.55
587.786	4459.11
587.989	4477.54
588.192	5177.95
588.395	4313.7
588.599	4661.86
588.802	4766.31
589.005	4833.89
589.208	4291.18
589.411	4356.71
589.615	4960.86
589.818	5118.56
590.021	4760.16
590.224	4516.45
590.427	4815.46
590.63	4741.73
590.833	4186.73
591.036	4412.01
591.239	4655.72
591.442	4551.27
591.645	4622.95
591.848	4457.06
592.051	4837.98
592.254	4911.71
592.457	4522.6
592.66	4559.46
592.863	4809.31
593.066	4883.04
593.269	4477.54
593.472	4586.08
593.675	4668
593.878	5059.17
594.081	4559.46
594.284	4346.47
594.486	5108.32
594.689	4930.14
594.892	4725.35
595.095	4643.43
595.298	5079.65
595.5	4653.67
595.703	4655.72
595.906	4678.24
596.109	5227.1
596.311	5136.99
596.514	4293.23
596.717	4559.46
596.92	5231.19
597.122	5100.12
597.325	4289.13
597.528	4579.94
597.73	5184.09
597.933	5003.87
598.136	4622.95
598.338	4428.39
598.541	5173.85
598.743	5309.02
598.946	4547.17
599.148	4713.06
599.351	5182.04
599.554	5343.83
599.756	4786.79
599.959	4682.34
600.161	5249.63
600.363	5415.51
600.566	5014.11
600.768	4756.07
600.971	5517.91
601.173	5118.56
601.376	4653.67
601.578	4821.6
601.78	5161.56
601.983	5479
602.185	4629.09
602.388	4942.43
602.59	5192.28
602.792	4926.05
602.995	4989.53
603.197	4803.17
603.399	5372.5
603.601	5210.72
603.804	4684.39
604.006	4973.15
604.208	5124.7
604.41	4735.59
604.613	5007.97
604.815	4749.92
605.017	5671.51
605.219	4934.24
605.421	5204.57
605.623	4502.12
605.826	5325.4
606.028	5448.28
606.23	4975.2
606.432	4850.27
606.634	5507.67
606.836	5562.97
607.038	4608.61
607.24	4936.29
607.442	5202.52
607.644	4997.73
607.846	4883.04
608.048	4751.97
608.25	5325.4
608.452	4813.41
608.654	4919.9
608.856	4698.72
609.058	5028.45
609.26	5321.31
609.462	4858.46
609.664	4960.86
609.866	5472.86
610.067	5249.63
610.269	5167.71
610.471	5030.49
610.673	5108.32
610.875	5302.87
611.077	4854.37
611.278	5022.3
611.48	5270.11
611.682	5497.43
611.884	5024.35
612.085	5014.11
612.287	5044.83
612.489	5292.63
612.69	4776.55
612.892	4956.77
613.094	5497.43
613.295	5313.11
613.497	4837.98
613.699	4995.68
613.9	5624.4
614.102	5161.56
614.304	4825.7
614.505	4797.03
614.707	5169.76
614.908	5204.57
615.11	4665.96
615.311	5157.47
615.513	5462.62
615.714	5538.39
615.916	4805.22
616.117	4803.17
616.319	5141.08
616.52	5440.09
616.722	4893.28
616.923	4856.42
617.124	5589.59
617.326	5173.85
617.527	5188.19
617.729	5161.56
617.93	5444.18
618.131	5409.37
618.333	5071.45
618.534	4942.43
618.735	4973.15
618.937	5669.46
619.138	4870.75
619.339	4792.93
619.54	5403.22
619.742	5300.83
619.943	5337.69
620.144	5059.17
620.345	5427.8
620.546	5546.58
620.748	5042.78
620.949	5079.65
621.15	5345.88
621.351	5325.4
621.552	4995.68
621.753	4766.31
621.954	4993.63
622.155	5730.9
622.356	4983.39
622.558	5132.89
622.759	5538.39
622.96	5722.71
623.161	4981.34
623.362	5038.69
623.563	5380.7
623.764	5364.31
623.965	5071.45
624.166	5241.43
624.366	5173.85
624.567	5446.23
624.768	4827.74
624.969	5116.51
625.17	5173.85
625.371	5513.81
625.572	5093.98
625.773	4635.24
625.973	5384.79
626.174	5648.98
626.375	5157.47
626.576	5186.14
626.777	5472.86
626.977	5872.21
627.178	5214.81
627.379	5284.44
627.58	5407.32
627.78	5360.22
627.981	4985.44
628.182	5259.87
628.382	5687.89
628.583	5057.12
628.784	5005.92
628.984	5274.2
629.185	5859.92
629.386	5522.01
629.586	5208.67
629.787	4850.27
629.987	5630.55
630.188	5313.11
630.388	5083.74
630.589	5263.96
630.79	6054.48
630.99	5421.66
631.191	5124.7
631.391	5257.82
631.591	5683.8
631.792	5718.61
631.992	5292.63
632.193	5098.08
632.393	5818.96
632.594	5485.14
632.794	5157.47
632.994	5208.67
633.195	5280.35
633.395	5505.62
633.595	5098.08
633.796	5349.98
633.996	5270.11
634.196	5853.78
634.397	5075.55
634.597	5309.02
634.797	5263.96
634.997	5784.15
635.198	5667.41
635.398	5149.28
635.598	5591.64
635.798	5833.3
635.998	5675.6
636.199	5018.21
636.399	5354.07
636.599	5268.06
636.799	5200.48
636.999	5546.58
637.199	5663.32
637.399	5712.47
637.599	5190.24
637.799	5313.11
637.999	5392.98
638.199	5864.02
638.399	5284.44
638.599	5096.03
638.799	5624.4
638.999	5986.9
639.199	5458.52
639.399	5341.79
639.599	5837.39
639.799	5231.19
639.999	5149.28
640.199	5114.46
640.399	5671.51
640.599	5802.58
640.799	5454.42
640.998	5636.69
641.198	5927.5
641.398	5673.56
641.598	5462.62
641.798	5458.52
641.997	6629.96
642.197	5591.64
642.397	5448.28
642.597	5263.96
642.796	5886.54
642.996	6079.05
643.196	5464.66
643.395	5177.95
643.595	5679.7
643.795	5288.54
643.994	5366.36
644.194	5532.25
644.394	5966.42
644.593	5804.63
644.793	5313.11
644.992	5644.88
645.192	5704.28
645.392	5284.44
645.591	5511.77
645.791	5507.67
645.99	5800.53
646.19	5548.63
646.389	5386.84
646.589	5460.57
646.788	5937.74
646.987	5997.14
647.187	5861.97
647.386	5735
647.586	5636.69
647.785	5898.83
647.984	5532.25
648.184	5595.73
648.383	5536.34
648.582	5442.14
648.782	5640.79
648.981	5694.04
649.18	5444.18
649.38	5642.84
649.579	5491.29
649.778	5448.28
649.977	5909.07
650.177	5784.15
650.376	5327.45
650.575	5333.59
650.774	6052.43
650.973	5530.2
651.173	5202.52
651.372	5634.64
651.571	5806.67
651.77	5751.38
651.969	5536.34
652.168	5556.82
652.367	5567.06
652.566	5771.86
652.765	5542.49
652.964	5976.66
653.163	6138.44
653.362	5792.34
653.561	5503.57
653.76	5567.06
653.959	5638.74
654.158	5976.66
654.357	5700.18
654.556	5452.38
654.755	5904.98
654.954	5980.75
655.153	5634.64
655.352	5704.28
655.551	6120.01
655.749	5673.56
655.948	5616.21
656.147	5876.31
656.346	5937.74
656.545	5702.23
656.743	5687.89
656.942	5419.61
657.141	5775.95
657.34	5648.98
657.538	5726.8
657.737	5556.82
657.936	5585.49
658.135	5995.09
658.333	5714.52
658.532	5788.24
658.731	6120.01
658.929	6011.47
659.128	5851.73
659.326	5530.2
659.525	6261.32
659.724	5786.19
659.922	5356.12
660.121	5347.93
660.319	6066.77
660.518	5722.71
660.716	5679.7
660.915	5485.14
661.113	6146.64
661.312	5468.76
661.51	5751.38
661.709	5497.43
661.907	6005.33
662.105	6173.26
662.304	5784.15
662.502	5616.21
662.701	6117.97
662.899	5825.11
663.097	5802.58
663.296	5323.35
663.494	6163.02
663.692	6316.62
663.891	5630.55
664.089	5489.24
664.287	5976.66
664.485	6167.12
664.684	5616.21
664.882	5831.25
665.08	5911.12
665.278	5890.64
665.476	5675.6
665.675	5947.98
665.873	6234.7
666.071	6146.64
666.269	5626.45
666.467	5771.86
666.665	6038.09
666.863	5782.1
667.061	5753.43
667.259	5579.35
667.457	5816.91
667.655	5997.14
667.853	5571.16
668.051	5626.45
668.249	5661.27
668.447	6042.19
668.645	5444.18
668.843	5825.11
669.041	6013.52
669.239	5800.53
669.437	5808.72
669.635	5823.06
669.833	5853.78
670.031	5993.04
670.229	5642.84
670.426	5700.18
670.624	5923.41
670.822	5610.07
671.02	5681.75
671.218	5655.12
671.415	5538.39
671.613	5943.89
671.811	5794.39
672.009	5716.56
672.206	6152.78
672.404	5878.35
672.602	5710.42
672.799	5753.43
672.997	5970.51
673.195	6255.18
673.392	5667.41
673.59	5515.86
673.788	6109.77
673.985	5601.88
674.183	5651.03
674.38	5620.31
674.578	6136.4
674.775	5730.9
674.973	5601.88
675.17	5651.03
675.368	6107.73
675.565	6087.25
675.763	5507.67
675.96	5472.86
676.158	6203.98
676.355	5702.23
676.553	5640.79
676.75	5489.24
676.947	5784.15
677.145	5857.87
677.342	5798.48
677.539	5743.19
677.737	5993.04
677.934	6394.44
678.131	5802.58
678.329	5583.45
678.526	6302.28
678.723	5976.66
678.92	5771.86
679.118	5669.46
679.315	5591.64
679.512	6197.84
679.709	5321.31
679.906	5663.32
680.104	6091.34
680.301	5923.41
680.498	5323.35
680.695	5468.76
680.892	5567.06
681.089	5708.37
681.286	5601.88
681.483	5155.42
681.68	5933.65
681.877	5821.01
682.075	5593.69
682.272	5737.04
682.469	5679.7
682.665	5501.53
682.862	5444.18
683.059	5403.22
683.256	5790.29
683.453	5790.29
683.65	5540.44
683.847	5517.91
684.044	5851.73
684.241	5509.72
684.438	5749.33
684.635	5370.46
684.831	6072.91
685.028	6056.53
685.225	5497.43
685.422	5728.85
685.619	5839.44
685.815	5868.11
686.012	5616.21
686.209	5489.24
686.405	5526.1
686.602	5997.14
686.799	5282.39
686.996	5497.43
687.192	5411.42
687.389	6128.21
687.586	5419.61
687.782	5341.79
687.979	6066.77
688.175	5952.08
688.372	5405.27
688.568	5462.62
688.765	5597.78
688.962	6173.26
689.158	5677.65
689.355	5251.67
689.551	6126.16
689.748	5603.93
689.944	5470.81
690.14	5427.8
690.337	5970.51
690.533	5624.4
690.73	5714.52
690.926	5534.29
691.123	5628.5
691.319	5646.93
691.515	5413.46
691.712	5474.9
691.908	5726.8
692.104	5798.48
692.301	5599.83
692.497	5284.44
692.693	5968.46
692.889	5884.5
693.086	5685.84
693.282	5302.87
693.478	5583.45
693.674	5925.46
693.87	5528.15
694.067	5429.85
694.263	5808.72
694.459	5495.38
694.655	5620.31
694.851	5515.86
695.047	5644.88
695.243	5927.5
695.439	5661.27
695.635	5386.84
695.831	5792.34
696.027	5683.8
696.224	5239.39
696.42	5837.39
696.615	6007.38
696.811	5718.61
697.007	5163.61
697.203	5315.16
697.399	5769.81
697.595	5937.74
697.791	5286.49
697.987	5474.9
698.183	5286.49
698.379	5384.79
698.575	5347.93
698.77	5372.5
698.966	5773.91
699.162	5876.31
699.358	5366.36
699.554	5292.63
699.749	5800.53
699.945	5644.88
700.141	5403.22
700.337	5501.53
700.532	5476.95
700.728	5460.57
700.924	5108.32
701.119	5034.59
701.315	5679.7
701.511	5380.7
701.706	5431.9
701.902	5059.17
702.097	5395.03
702.293	5675.6
702.489	5376.6
702.684	5288.54
702.88	5562.97
703.075	5407.32
703.271	5251.67
703.466	5239.39
703.662	5554.77
703.857	5698.13
704.053	5257.82
704.248	5186.14
704.443	5735
704.639	5657.17
704.834	5300.83
705.03	5223
705.225	5470.81
705.42	5837.39
705.616	5378.65
705.811	5167.71
706.006	5493.33
706.202	5515.86
706.397	5349.98
706.592	5003.87
706.787	5663.32
706.983	5452.38
707.178	5524.05
707.373	5468.76
707.568	5782.1
707.763	5661.27
707.959	5288.54
708.154	5167.71
708.349	5741.14
708.544	5648.98
708.739	5587.54
708.934	5198.43
709.129	5603.93
709.324	5648.98
709.519	5280.35
709.714	5194.33
709.909	5962.32
710.104	5698.13
710.299	5118.56
710.494	5300.83
710.689	5708.37
710.884	5431.9
711.079	5333.59
711.274	5657.17
711.469	5698.13
711.664	5567.06
711.859	5134.94
712.054	5464.66
712.249	5622.36
712.443	5597.78
712.638	5102.17
712.833	5087.84
713.028	5376.6
713.223	5237.34
713.417	5577.3
713.612	5204.57
713.807	5628.5
714.002	6009.42
714.196	5255.77
714.391	5364.31
714.586	5554.77
714.78	5495.38
714.975	5208.67
715.17	5153.37
715.364	5399.13
715.559	5730.9
715.754	4862.56
715.948	5038.69
716.143	5784.15
716.337	5565.01
716.532	5425.75
716.726	5249.63
716.921	5372.5
717.115	5966.42
717.31	4993.63
717.504	5626.45
717.699	5263.96
717.893	5507.67
718.088	5071.45
718.282	4934.24
718.476	5421.66
718.671	5378.65
718.865	5091.93
719.059	5042.78
719.254	5364.31
719.448	5710.42
719.642	6367.82
719.837	4749.92
720.031	5648.98
720.225	5601.88
720.419	5143.13
720.614	5007.97
720.808	5515.86
721.002	5175.9
721.196	5083.74
721.39	4975.2
721.585	5548.63
721.779	5327.45
721.973	5155.42
722.167	4754.02
722.361	5556.82
722.555	5364.31
722.749	5155.42
722.943	4905.57
723.137	4878.94
723.331	5335.64
723.525	5132.89
723.719	4897.38
723.913	5487.19
724.107	5530.2
724.301	4833.89
724.495	5093.98
724.689	5759.57
724.883	5687.89
725.077	4985.44
725.271	4967.01
725.465	5474.9
725.659	5225.05
725.853	5061.21
726.046	4837.98
726.24	5036.64
726.434	5390.94
726.628	4936.29
726.822	4969.05
727.015	5388.89
727.209	5528.15
727.403	5007.97
727.596	4852.32
727.79	5542.49
727.984	5651.03
728.177	4864.61
728.371	5065.31
728.565	5431.9
728.758	5001.82
728.952	4977.25
729.146	4973.15
729.339	5306.97
729.533	5247.58
729.726	5014.11
729.92	4930.14
730.113	5612.12
730.307	5419.61
730.5	4993.63
730.694	4928.1
730.887	5034.59
731.081	5450.33
731.274	4987.49
731.468	5118.56
731.661	5284.44
731.854	5173.85
732.048	5061.21
732.241	4862.56
732.435	4995.68
732.628	5212.76
732.821	5040.73
733.014	4872.8
733.208	4985.44
733.401	5440.09
733.594	4985.44
733.788	4936.29
733.981	5515.86
734.174	5435.99
734.367	4971.1
734.56	5038.69
734.754	5562.97
734.947	5251.67
735.14	4797.03
735.333	5087.84
735.526	5395.03
735.719	5108.32
735.912	4907.62
736.105	4971.1
736.298	5136.99
736.491	5173.85
736.684	4948.58
736.877	4887.14
737.07	5163.61
737.263	5499.48
737.456	5091.93
737.649	4928.1
737.842	5057.12
738.035	5233.24
738.228	4932.19
738.421	5055.07
738.614	5374.55
738.807	5194.33
739	4784.74
739.192	4672.1
739.385	5331.55
739.578	5210.72
739.771	5309.02
739.964	4938.34
740.156	5300.83
740.349	4983.39
740.542	5085.79
740.735	4788.83
740.927	4860.51
741.12	4872.8
741.313	4813.41
741.505	5091.93
741.698	5300.83
741.891	5257.82
742.083	4952.67
742.276	4987.49
742.468	5210.72
742.661	4940.38
742.854	4946.53
743.046	4659.81
743.239	5472.86
743.431	5153.37
743.624	4964.96
743.816	4811.36
744.009	5018.21
744.201	5196.38
744.393	5216.86
744.586	4913.76
744.778	5319.26
744.971	5040.73
745.163	4936.29
745.355	5040.73
745.548	5038.69
745.74	4979.29
745.932	5020.25
746.125	4764.26
746.317	5593.69
746.509	5274.2
746.702	4868.7
746.894	4964.96
747.086	5204.57
747.278	5378.65
747.471	4958.82
747.663	5003.87
747.855	5134.94
748.047	5311.07
748.239	4682.34
748.431	4788.83
748.623	5440.09
748.815	5517.91
749.008	4706.91
749.2	4637.28
749.392	5276.25
749.584	5196.38
749.776	4856.42
749.968	4993.63
750.16	5503.57
750.352	5059.17
750.544	4887.14
750.736	4723.3
750.928	5268.06
751.12	5026.4
751.311	4805.22
751.503	4903.52
751.695	5208.67
751.887	5001.82
752.079	4577.89
752.271	4743.78
752.463	5976.66
752.654	5425.75
752.846	4856.42
753.038	4739.68
753.23	4842.08
753.421	5247.58
753.613	4729.44
753.805	4997.73
753.997	5120.6
754.188	5319.26
754.38	4565.6
754.572	4792.93
754.763	4967.01
754.955	5001.82
755.146	4792.93
755.338	4790.88
755.53	5126.75
755.721	5024.35
755.913	4534.89
756.104	4688.48
756.296	5003.87
756.487	5251.67
756.679	4629.09
756.87	4827.74
757.062	4764.26
757.253	5180
757.445	4567.65
757.636	4696.67
757.827	4944.48
758.019	5509.72
758.21	4446.82
758.401	4657.76
758.593	5485.14
758.784	5237.34
758.975	4377.19
759.167	4563.56
759.358	4979.29
759.549	5272.15
759.74	4598.37
759.932	4645.48
760.123	5104.22
760.314	4559.46
760.505	4706.91
760.696	4551.27
760.888	5374.55
761.079	4686.44
761.27	4563.56
761.461	4381.29
761.652	5354.07
761.843	4663.91
762.034	4575.84
762.225	4788.83
762.416	4874.85
762.607	4854.37
762.798	4467.3
762.989	4416.1
763.18	5659.22
763.371	4731.49
763.562	4418.15
763.753	4463.21
763.944	4962.91
764.135	4991.58
764.326	4741.73
764.517	4471.4
764.708	4776.55
764.899	4874.85
765.089	4379.24
765.28	4184.68
765.471	4876.9
765.662	4907.62
765.853	4516.45
766.043	4477.54
766.234	5001.82
766.425	4870.75
766.615	4440.68
766.806	4237.93
766.997	4979.29
767.187	4741.73
767.378	4346.47
767.569	4264.55
767.759	4739.68
767.95	4786.79
768.141	4538.98
768.331	4364.9
768.522	4575.84
768.712	4829.79
768.903	4293.23
769.093	4182.63
769.284	4969.05
769.474	4682.34
769.665	4182.63
769.855	4248.17
770.046	4545.13
770.236	4575.84
770.426	4506.21
770.617	4178.54
770.807	4661.86
770.998	4538.98
771.188	4504.17
771.378	4319.85
771.569	4780.64
771.759	4602.47
771.949	4182.63
772.139	4168.3
772.33	4555.37
772.52	4919.9
772.71	4225.64
772.9	3981.93
773.09	4938.34
773.281	4811.36
773.471	4299.37
773.661	4151.92
773.851	4756.07
774.041	4412.01
774.231	3924.59
774.421	4387.43
774.611	4899.42
774.802	4477.54
774.992	4207.21
775.182	4090.48
775.372	4276.84
775.562	4577.89
775.752	4254.31
775.942	4223.59
776.131	4799.07
776.321	4651.62
776.511	4141.68
776.701	4084.33
776.891	4579.94
777.081	4207.21
777.271	4379.24
777.461	4108.91
777.651	4498.02
777.84	4674.15
778.03	4209.26
778.22	3971.69
778.41	4698.72
778.599	4153.96
778.789	4217.45
778.979	3965.55
779.169	4559.46
779.358	4254.31
779.548	4366.95
779.738	3871.34
779.927	4536.93
780.117	4088.43
780.307	4166.25
780.496	3773.04
780.686	4461.16
780.875	4778.59
781.065	3994.22
781.254	4121.2
781.444	4405.86
781.633	4389.48
781.823	3891.82
782.012	3998.32
782.202	4119.15
782.391	4223.59
782.581	3760.75
782.77	4094.57
782.96	4516.45
783.149	4143.72
783.338	3867.25
783.528	3814
783.717	4596.32
783.906	4553.32
784.096	4067.95
784.285	3945.07
784.474	4205.16
784.663	4078.19
784.853	3945.07
785.042	3871.34
785.231	4043.37
785.42	4477.54
785.61	4186.73
785.799	3797.62
785.988	4108.91
786.177	4158.06
786.366	3904.11
786.555	4121.2
786.744	4469.35
786.933	4024.94
787.122	3949.17
787.312	3742.32
787.501	4031.09
787.69	4282.99
787.879	3918.45
788.068	3723.89
788.257	3895.92
788.445	4227.69
788.634	3906.16
788.823	3723.89
789.012	4751.97
789.201	4412.01
789.39	3826.29
789.579	3840.62
789.768	4008.56
789.957	4248.17
790.145	3881.58
790.334	3531.38
790.523	3945.07
790.712	3820.14
790.9	3879.54
791.089	3537.52
791.278	4272.75
791.467	4237.93
791.655	3957.36
791.844	4166.25
792.033	4092.52
792.221	4063.85
792.41	3756.66
792.599	3420.79
792.787	4119.15
792.976	4235.88
793.164	3586.68
793.353	3689.07
793.541	4262.51
793.73	4094.57
793.918	3848.82
794.107	3727.99
794.295	3996.27
794.484	3943.02
794.672	3707.51
794.861	3623.54
795.049	4121.2
795.238	4448.87
795.426	3670.64
795.614	3814
795.803	4088.43
795.991	4321.9
796.179	3744.37
796.368	3660.4
796.556	4207.21
796.744	3709.55
796.932	3646.07
797.121	3617.4
797.309	3914.35
797.497	4151.92
797.685	3570.29
797.874	3504.76
798.062	3828.34
798.25	4266.6
798.438	3635.83
798.626	3574.39
798.814	4022.89
799.002	4381.29
799.19	3871.34
799.378	3725.94
799.566	4264.55
799.755	4262.51
799.943	3861.1
800.131	3693.17
800.318	4057.71
800.506	4055.66
800.694	3549.81
800.882	3725.94
801.07	4264.55
801.258	3834.48
801.446	3687.03
801.634	3744.37
801.822	3854.96
802.01	4010.61
802.197	3695.22
802.385	3865.2
802.573	4012.65
802.761	3809.9
802.949	3791.47
803.136	3603.06
803.324	4293.23
803.512	3994.22
803.699	3586.68
803.887	3330.68
804.075	4192.87
804.262	3742.32
804.45	3502.71
804.638	3738.23
804.825	3746.42
805.013	3736.18
805.201	3723.89
805.388	3484.28
805.576	3863.15
805.763	4452.97
805.951	3723.89
806.138	3867.25
806.326	4559.46
806.513	4166.25
806.701	3633.78
806.888	3498.61
807.075	3977.84
807.263	4330.09
807.45	3531.38
807.638	3900.02
807.825	4393.58
808.012	4305.51
808.2	3625.59
808.387	3891.82
808.574	4043.37
808.761	4309.61
808.949	3652.21
809.136	3768.95
809.323	3934.83
809.51	4088.43
809.698	4026.99
809.885	3904.11
810.072	4160.11
810.259	4293.23
810.446	3695.22
810.633	3713.65
810.82	4459.11
811.008	4369
811.195	3873.39
811.382	3666.55
811.569	3934.83
811.756	3654.26
811.943	3658.35
812.13	3650.16
812.317	3850.86
812.504	3887.73
812.691	3967.6
812.878	3848.82
813.064	4303.47
813.251	4010.61
813.438	3742.32
813.625	3963.5
813.812	3969.65
813.999	3924.59
814.186	3883.63
814.372	3756.66
814.559	4270.7
814.746	4248.17
814.933	3668.59
815.12	3801.71
815.306	3715.7
815.493	3846.77
815.68	3723.89
815.866	3793.52
816.053	4127.34
816.24	4473.45
816.426	3701.36
816.613	3551.86
816.799	4162.16
816.986	4354.66
817.173	3674.74
817.359	3533.43
817.546	4041.32
817.732	3721.84
817.919	3650.16
818.105	3697.27
818.292	3959.41
818.478	4174.44
818.665	3832.43
818.851	3674.74
819.037	4399.72
819.224	4010.61
819.41	3580.53
819.597	3701.36
819.783	4364.9
819.969	4135.53
820.156	3721.84
820.342	3644.02
820.528	4684.39
820.714	3928.69
820.901	3981.93
821.087	3654.26
821.273	4274.79
821.459	3818.1
821.646	3662.45
821.832	3676.79
822.018	3850.86
822.204	3848.82
822.39	3807.86
822.576	3510.9
822.762	4012.65
822.948	3990.13
823.134	3873.39
823.32	3672.69
823.507	3494.52
823.693	4051.56
823.879	3977.84
824.065	3445.37
824.25	3897.97
824.436	3568.24
824.622	3682.93
824.808	3525.24
824.994	3713.65
825.18	3680.88
825.366	3334.78
825.552	3531.38
825.738	3760.75
825.923	4182.63
826.109	3777.14
826.295	3594.87
826.481	3742.32
826.667	3816.05
826.852	3689.07
827.038	3404.41
827.224	4186.73
827.409	4258.41
827.595	3566.2
827.781	3682.93
827.966	4151.92
828.152	4072.04
828.338	3510.9
828.523	3396.21
828.709	3578.48
828.894	4096.62
829.08	3584.63
829.266	3527.28
829.451	3803.76
829.637	4031.09
829.822	3625.59
830.008	3490.42
830.193	4141.68
830.378	4190.83
830.564	3658.35
830.749	3465.85
830.935	3977.84
831.12	3994.22
831.305	3576.44
831.491	3517.04
831.676	3566.2
831.861	4022.89
832.047	3525.24
832.232	3267.19
832.417	3967.6
832.602	3711.6
832.788	3537.52
832.973	3242.62
833.158	3756.66
833.343	3770.99
833.528	3576.44
833.714	3572.34
833.899	3805.81
834.084	4070
834.269	3654.26
834.454	3445.37
834.639	3957.36
834.824	3842.67
835.009	3551.86
835.194	3494.52
835.379	4082.28
835.564	3977.84
835.749	3564.15
835.934	3265.14
836.119	3805.81
836.304	3617.4
836.489	3369.59
836.674	3631.73
836.859	3322.49
837.044	3848.82
837.228	3420.79
837.413	3324.54
837.598	3779.18
837.783	3814
837.968	3373.69
838.152	3285.62
838.337	3289.72
838.522	3893.87
838.707	3684.98
838.891	3672.69
839.076	3781.23
839.261	3830.38
839.445	3322.49
839.63	3480.18
839.815	4153.96
839.999	3560.05
840.184	3355.26
840.368	3367.54
840.553	3854.96
840.737	3818.1
840.922	3234.43
841.106	3168.89
841.291	3334.78
841.475	3611.25
841.66	3285.62
841.844	3349.11
842.029	4248.17
842.213	3222.14
842.397	3336.82
842.582	3043.96
842.766	3785.33
842.951	3797.62
843.135	3187.32
843.319	3162.75
843.504	3727.99
843.688	3797.62
843.872	3119.74
844.056	3170.94
844.241	3785.33
844.425	3482.23
844.609	3486.33
844.793	3062.4
844.977	3691.12
845.161	3637.88
845.346	3123.83
845.53	3046.01
845.714	3476.09
845.898	3957.36
846.082	3097.21
846.266	2972.29
846.45	3394.17
846.634	3539.57
846.818	3070.59
847.002	3338.87
847.186	3707.51
847.37	3175.03
847.554	2931.33
847.738	3424.89
847.922	3625.59
848.106	3531.38
848.29	2945.66
848.473	3103.36
848.657	3474.04
848.841	3377.78
849.025	3109.5
849.209	2916.99
849.392	3623.54
849.576	3299.96
849.76	2896.51
849.944	3232.38
850.127	3781.23
850.311	3172.99
850.495	3027.58
850.678	2849.41
850.862	3723.89
851.046	3699.31
851.229	3355.26
851.413	3068.54
851.596	3314.3
851.78	3269.24
851.964	3316.34
852.147	3138.17
852.331	4192.87
852.514	3588.72
852.698	3117.69
852.881	2884.22
853.065	3545.72
853.248	3324.54
853.431	3064.44
853.615	3158.65
853.798	3740.27
853.982	3281.53
854.165	3121.79
854.348	2972.29
854.532	2906.75
854.715	3078.78
854.898	3152.51
855.081	3072.64
855.265	3603.06
855.448	3732.08
855.631	2871.93
855.814	2992.76
855.997	3504.76
856.181	3250.81
856.364	3089.02
856.547	2896.51
856.73	3244.67
856.913	3254.91
857.096	2859.65
857.279	3029.63
857.462	3082.88
857.645	3322.49
857.828	3056.25
858.011	3170.94
858.194	3019.39
858.377	3347.06
858.56	2835.07
858.743	2878.08
858.926	3056.25
859.109	3330.68
859.292	2871.93
859.475	2787.97
859.658	3426.93
859.841	3316.34
860.023	2572.93
860.206	2716.29
860.389	3256.95
860.572	3562.1
860.755	2820.74
860.937	2892.41
861.12	3121.79
861.303	3164.79
861.486	2941.57
861.668	2822.78
861.851	3240.57
862.034	3207.8
862.216	2896.51
862.399	2593.41
862.581	3142.27
862.764	3529.33
862.947	2896.51
863.129	2751.1
863.312	2822.78
863.494	3367.54
863.677	3162.75
863.859	2697.86
864.042	3324.54
864.224	3357.3
864.406	2865.79
864.589	2527.88
864.771	3023.48
864.954	2945.66
865.136	2740.86
865.318	2507.4
865.501	3211.9
865.683	2634.37
865.865	2814.59
866.048	2691.71
866.23	3005.05
866.412	3125.88
866.594	2646.66
866.777	2695.81
866.959	3127.93
867.141	2794.11
867.323	3031.68
867.505	2826.88
867.687	2779.78
867.869	2919.04
868.052	2763.39
868.234	2644.61
868.416	2955.9
868.598	3119.74
868.78	2724.48
868.962	2552.45
869.144	3033.72
869.326	3252.86
869.508	2638.47
869.69	2685.57
869.872	2835.07
870.054	3072.64
870.236	2425.48
870.417	2601.6
870.599	2736.77
870.781	3326.58
870.963	2773.63
871.145	2521.73
871.327	2675.33
871.508	3203.71
871.69	2615.94
871.872	2749.06
872.054	2841.22
872.235	3123.83
872.417	2679.43
872.599	2613.89
872.78	3326.58
872.962	3033.72
873.144	2415.24
873.325	2605.7
873.507	3297.91
873.689	2869.89
873.87	2470.53
874.052	2720.39
874.233	2783.87
874.415	3115.64
874.596	2642.56
874.778	2486.92
874.959	2912.89
875.141	3035.77
875.322	2685.57
875.503	2585.22
875.685	3046.01
875.866	2499.2
876.048	2556.55
876.229	2439.81
876.41	2792.06
876.592	2972.29
876.773	2628.23
876.954	2302.6
877.136	3340.92
877.317	2882.17
877.498	2613.89
877.679	2587.27
877.86	3181.18
878.042	2730.62
878.223	2634.37
878.404	2972.29
878.585	2960
878.766	3338.87
878.947	3037.82
879.128	2755.2
879.309	3134.07
879.49	3218.04
879.672	2744.96
879.853	2591.36
880.034	2722.43
880.215	2912.89
880.396	2646.66
880.576	2755.2
880.757	2747.01
880.938	3154.55
881.119	2613.89
881.3	2722.43
881.481	2855.55
881.662	3746.42
881.843	2579.08
882.023	2583.17
882.204	3031.68
882.385	2947.71
882.566	2675.33
882.747	2566.79
882.927	2896.51
883.108	3039.87
883.289	2663.04
883.469	2964.09
883.65	2906.75
883.831	2921.09
884.011	2863.74
884.192	2769.54
884.373	3244.67
884.553	3134.07
884.734	2888.32
884.914	3119.74
885.095	3811.95
885.275	3437.17
885.456	2962.05
885.636	2597.51
885.817	2976.38
885.997	2953.85
886.178	2681.47
886.358	2847.36
886.538	3236.47
886.719	4117.1
886.899	2730.62
887.08	2884.22
887.26	3277.43
887.44	2859.65
887.621	2751.1
887.801	2910.85
887.981	3584.63
888.161	3097.21
888.342	2890.37
888.522	2863.74
888.702	3349.11
888.882	3357.3
889.062	3144.31
889.242	2552.45
889.423	3564.15
889.603	3244.67
889.783	2888.32
889.963	2812.54
890.143	3277.43
890.323	3390.07
890.503	2771.58
890.683	2878.08
890.863	2986.62
891.043	3117.69
891.223	2941.57
891.403	3095.16
891.583	3224.19
891.763	3175.03
891.943	2923.13
892.122	2761.34
892.302	3177.08
892.482	3115.64
892.662	2888.32
892.842	2822.78
893.022	3246.71
893.201	2845.31
893.381	3031.68
893.561	2814.59
893.741	3265.14
893.92	3175.03
894.1	2908.8
894.28	2955.9
894.459	3304.06
894.639	3048.06
894.819	2851.46
894.998	2994.81
895.178	3240.57
895.357	3254.91
895.537	2683.52
895.716	2740.86
895.896	3185.27
896.075	3355.26
896.255	2724.48
896.434	2519.68
896.614	3252.86
896.793	3359.35
896.973	2912.89
897.152	2880.13
897.331	3187.32
897.511	3134.07
897.69	2667.14
897.87	2734.72
898.049	3224.19
898.228	3084.92
898.407	3027.58
898.587	2773.63
898.766	2800.26
898.945	3273.34
899.124	2972.29
899.304	2830.98
899.483	3172.99
899.662	3447.41
899.841	2736.77
900.02	2499.2
900.199	3234.43
900.378	2970.24
900.557	2597.51
900.737	2577.03
900.916	2900.61
901.095	2972.29
901.274	2957.95
901.453	2519.68
901.632	2699.91
901.811	2581.12
901.989	2585.22
902.168	2583.17
902.347	3029.63
902.526	2847.36
902.705	2540.16
902.884	2718.34
903.063	3144.31
903.242	3037.82
903.42	2595.46
903.599	2675.33
903.778	3064.44
903.957	3117.69
904.135	2617.99
904.314	2511.49
904.493	2812.54
904.672	2830.98
904.85	2433.67
905.029	2503.3
905.207	2884.22
905.386	3396.21
905.565	2372.23
905.743	2470.53
905.922	2601.6
906.1	3050.11
906.279	2169.48
906.457	2347.65
906.636	2495.11
906.814	2654.85
906.993	2361.99
907.171	2353.8
907.35	2755.2
907.528	2857.6
907.707	2466.44
907.885	2228.87
908.063	3011.2
908.242	2454.15
908.42	2288.26
908.598	2122.38
908.777	2749.06
908.955	2421.38
909.133	2437.77
909.311	2232.97
909.49	2499.2
909.668	2585.22
909.846	2329.22
910.024	1997.45
910.202	2564.74
910.38	2695.81
910.559	2374.28
910.737	2189.96
910.915	2675.33
911.093	2642.56
911.271	2407.05
911.449	2562.69
911.627	2720.39
911.805	3105.4
911.983	2417.29
912.161	2273.93
912.339	2681.47
912.517	3068.54
912.695	2497.16
912.872	2380.42
913.05	2505.35
913.228	2810.5
913.406	2445.96
913.584	2355.85
913.762	2863.74
913.939	2560.64
914.117	2316.94
914.295	2321.03
914.473	2785.92
914.65	2640.51
914.828	2378.37
915.006	2396.81
915.184	2361.99
915.361	2812.54
915.539	2519.68
915.716	2685.57
915.894	2607.75
916.072	2951.81
916.249	2415.24
916.427	2617.99
916.604	2423.43
916.782	2755.2
916.959	2245.26
917.137	2382.47
917.314	2671.23
917.492	2753.15
917.669	2585.22
917.847	2445.96
918.024	2781.82
918.201	2437.77
918.379	2445.96
918.556	2374.28
918.733	2704
918.911	2601.6
919.088	2617.99
919.265	2425.48
919.442	2675.33
919.62	2753.15
919.797	2235.02
919.974	2245.26
920.151	2617.99
920.328	2617.99
920.506	2402.95
920.683	2644.61
920.86	2265.74
921.037	2390.66
921.214	2402.95
921.391	2323.08
921.568	2699.91
921.745	2474.63
921.922	2353.8
922.099	2364.04
922.276	2777.73
922.453	2687.62
922.63	2235.02
922.807	2470.53
922.984	2650.75
923.161	2460.29
923.338	2353.8
923.514	2185.87
923.691	2427.53
923.868	2564.74
924.045	2210.44
924.222	2067.08
924.399	2519.68
924.575	2675.33
924.752	2357.89
924.929	2265.74
925.105	2521.73
925.282	2300.55
925.459	2318.98
925.635	2101.9
925.812	2411.14
925.989	2306.7
926.165	2241.16
926.342	2079.37
926.518	2136.71
926.695	2380.42
926.871	2105.99
927.048	1938.06
927.224	2509.44
927.401	2456.2
927.577	2253.45
927.754	2044.56
927.93	2679.43
928.107	2478.72
928.283	2026.12
928.459	2298.5
928.636	2466.44
928.812	2167.43
928.988	1970.83
929.165	1907.34
929.341	2280.07
929.517	2345.61
929.693	2333.32
929.87	1925.77
930.046	2335.37
930.222	2153.1
930.398	1915.53
930.574	1972.88
930.751	2216.58
930.927	2163.34
931.103	2081.42
931.279	1983.12
931.455	1835.66
931.631	2308.74
931.807	1784.46
931.983	1854.09
932.159	1831.57
932.335	2177.67
932.511	1811.09
932.687	1890.96
932.863	2114.19
933.039	2206.34
933.215	1852.05
933.391	1766.03
933.566	1929.87
933.742	2153.1
933.918	1845.9
934.094	1639.06
934.27	2054.8
934.445	2065.04
934.621	1944.2
934.797	1696.4
934.973	2216.58
935.148	2077.32
935.324	1585.81
935.5	1393.3
935.675	2091.66
935.851	2085.51
936.027	1598.1
936.202	1659.54
936.378	1893.01
936.553	1716.88
936.729	2073.23
936.904	1477.27
937.08	1616.53
937.255	1589.91
937.431	1401.49
937.606	1254.04
937.782	1489.56
937.957	1659.54
938.133	1485.46
938.308	1338.01
938.483	1598.1
938.659	1352.34
938.834	1340.05
939.009	1137.31
939.185	1438.36
939.36	1319.57
939.535	940.7
939.71	1362.58
939.886	1796.75
940.061	1440.4
940.236	1479.32
940.411	1186.46
940.586	1602.19
940.761	1493.65
940.937	1149.59
941.112	1045.15
941.287	1342.1
941.462	1266.33
941.637	1049.24
941.812	998.04
941.987	1321.62
942.162	1266.33
942.337	1153.69
942.512	1086.11
942.687	1544.85
942.862	1460.88
943.037	938.65
943.212	783.01
943.386	1299.09
943.561	1348.25
943.736	1192.6
943.911	1274.52
944.086	1323.67
944.26	1399.45
944.435	1063.58
944.61	1139.35
944.785	1585.81
944.959	1737.36
945.134	1055.39
945.309	987.8
945.483	1118.87
945.658	1579.67
945.833	733.86
946.007	680.61
946.182	1618.58
946.357	922.27
946.531	897.69
946.706	924.32
946.88	944.8
947.055	1295
947.229	1047.19
947.404	918.17
947.578	1550.99
947.752	1120.92
947.927	907.93
948.101	801.44
948.276	1295
948.45	1260.18
948.624	1241.75
948.799	891.55
948.973	1335.96
949.147	957.08
949.321	1077.91
949.496	1055.39
949.67	1507.99
949.844	1233.56
950.018	932.51
950.193	1075.87
950.367	1712.78
950.541	1182.36
950.715	1221.27
950.889	1292.95
951.063	1125.02
951.237	1383.06
951.411	778.91
951.585	934.56
951.759	1374.87
951.933	1161.88
952.107	996
952.281	1299.09
952.455	1690.26
952.629	1505.94
952.803	1082.01
952.977	1002.14
953.151	1432.21
953.325	1292.95
953.499	1215.13
953.672	967.32
953.846	1069.72
954.02	1303.19
954.194	1104.54
954.368	1077.91
954.541	1483.41
954.715	1223.32
954.889	1096.35
955.062	1045.15
955.236	1299.09
955.41	1276.57
955.583	1348.25
955.757	1051.29
955.93	1280.66
956.104	1022.62
956.278	1061.53
956.451	1159.83
956.625	1501.84
956.798	1806.99
956.972	1307.29
957.145	1039
957.319	1288.86
957.492	1323.67
957.665	1385.11
957.839	1026.72
958.012	1348.25
958.185	1217.18
958.359	1059.48
958.532	1352.34
958.705	1610.39
958.879	1462.93
959.052	1264.28
959.225	922.27
959.398	1354.39
959.572	1381.01
959.745	1159.83
959.918	1135.26
960.091	1303.19
960.264	1475.22
960.438	971.42
960.611	1045.15
960.784	1538.71
960.957	1233.56
961.13	1442.45
961.303	1077.91
961.476	1399.45
961.649	1546.9
961.822	1016.48
961.995	1196.7
962.168	1553.04
962.341	1434.26
962.514	1090.2
962.686	1090.2
962.859	1501.84
963.032	1542.8
963.205	1063.58
963.378	961.18
963.551	1462.93
963.723	1395.35
963.896	1290.9
964.069	1374.87
964.242	1362.58
964.414	1594
964.587	1061.53
964.76	1192.6
964.932	1372.82
965.105	1292.95
965.278	1172.12
965.45	1180.31
965.623	1378.97
965.795	1426.07
965.968	1168.02
966.14	1184.41
966.313	1274.52
966.485	1362.58
966.658	1077.91
966.83	1008.28
967.003	1536.66
967.175	1497.75
967.348	1129.11
967.52	1217.18
967.692	1630.87
967.865	1446.55
968.037	1206.94
968.209	1309.33
968.382	1364.63
968.554	1634.96
968.726	1133.21
968.898	1020.57
969.071	1381.01
969.243	1413.78
969.415	1139.35
969.587	1084.06
969.759	1790.61
969.932	1483.41
970.104	1151.64
970.276	725.66
970.448	1110.68
970.62	1217.18
970.792	1297.05
970.964	1118.87
971.136	1696.4
971.308	1514.13
971.48	946.84
971.652	1094.3
971.824	1696.4
971.996	1223.32
972.168	1026.72
972.339	1127.07
972.511	1493.65
972.683	1204.89
972.855	1350.29
973.027	1020.57
973.199	1256.09
973.37	1493.65
973.542	1200.79
973.714	1221.27
973.886	1200.79
974.057	1505.94
974.229	864.93
974.401	940.7
974.572	1094.3
974.744	760.48
974.915	1047.19
975.087	955.04
975.259	1550.99
975.43	1170.07
975.602	967.32
975.773	912.03
975.945	1016.48
976.116	1438.36
976.288	909.98
976.459	1213.08
976.63	1102.49
976.802	1413.78
976.973	987.8
977.145	1151.64
977.316	1696.4
977.487	1546.9
977.659	1112.73
977.83	983.71
978.001	1661.59
978.172	1219.22
978.344	901.79
978.515	1008.28
978.686	1090.2
978.857	1557.14
979.028	975.52
979.2	940.7
979.371	1501.84
979.542	1219.22
979.713	1147.55
979.884	557.73
980.055	1041.05
980.226	1137.31
980.397	899.74
980.568	789.15
980.739	1477.27
980.91	1053.34
981.081	1077.91
981.252	922.27
981.423	1262.23
981.594	1338.01
981.765	754.34
981.936	948.89
982.106	1168.02
982.277	1446.55
982.448	893.6
982.619	1020.57
982.79	1055.39
982.96	1432.21
983.131	996
983.302	713.38
983.472	1043.1
983.643	1282.71
983.814	983.71
983.984	897.69
984.155	1043.1
984.326	1282.71
984.496	963.23
984.667	934.56
984.837	920.22
985.008	1364.63
985.178	1139.35
985.349	860.83
985.519	1073.82
985.69	938.65
985.86	912.03
986.031	742.05
986.201	1202.84
986.371	1184.41
986.542	821.92
986.712	563.87
986.882	1041.05
987.053	1276.57
987.223	672.42
987.393	1067.67
987.563	924.32
987.734	1211.03
987.904	1125.02
988.074	760.48
988.244	1194.65
988.414	942.75
988.585	696.99
988.755	807.58
988.925	944.8
989.095	1401.49
989.265	692.9
989.435	807.58
989.605	1157.78
989.775	1192.6
989.945	1020.57
990.115	748.19
990.285	1039
990.455	1118.87
990.625	860.83
990.795	709.28
990.965	1401.49
991.134	809.63
991.304	565.92
991.474	672.42
991.644	1067.67
991.814	1356.44
991.984	565.92
992.153	633.51
992.323	901.79
992.493	946.84
992.662	561.83
992.832	912.03
993.002	1024.67
993.171	985.76
993.341	490.15
993.511	873.12
993.68	762.53
993.85	1180.31
994.019	535.2
994.189	506.53
994.358	887.45
994.528	760.48
994.697	334.5
994.867	504.48
995.036	1094.3
995.206	826.01
995.375	551.59
995.544	787.1
995.714	946.84
995.883	823.97
996.052	617.12
996.222	443.04
996.391	1360.53
996.56	877.21
996.73	506.53
996.899	432.8
997.068	1118.87
997.237	885.41
997.406	490.15
997.576	432.8
997.745	948.89
997.914	946.84
998.083	365.22
998.252	481.96
998.421	950.94
998.59	680.61
998.759	481.96
998.928	332.45
999.097	1086.11
999.266	885.41
999.435	623.27
999.604	397.99
999.773	1223.32
999.942	688.8
1000.111	228.01
1000.28	332.45
1000.448	529.06
1000.617	473.76
1000.786	549.54
1000.955	408.23
1001.124	961.18
1001.292	1413.78
1001.461	424.61
1001.63	373.41
1001.798	1073.82
1001.967	1045.15
1002.136	271.01
1002.304	299.69
1002.473	740
1002.642	832.16
1002.81	522.91
1002.979	432.8
1003.147	866.97
1003.316	1385.11
1003.484	455.33
1003.653	268.97
1003.821	983.71
1003.99	676.51
1004.158	590.5
1004.327	465.57
1004.495	866.97
1004.663	524.96
1004.832	506.53
1005	225.96
1005.168	844.45
1005.337	674.46
1005.505	197.29
1005.673	557.73
1005.842	836.25
1006.01	819.87
1006.178	273.06
1006.346	359.08
1006.514	840.35
1006.683	996
1006.851	318.12
1007.019	438.95
1007.187	481.96
1007.355	131.75
1007.523	164.52
1007.691	213.67
1007.859	432.8
1008.027	959.13
1008.195	338.6
1008.363	154.28
1008.531	862.88
1008.699	539.3
1008.867	205.48
1009.035	287.4
1009.203	1039
1009.37	703.14
1009.538	332.45
1009.706	828.06
1009.874	727.71
1010.042	572.07
1010.209	213.67
1010.377	205.48
1010.545	866.97
1010.713	574.11
1010.88	137.9
1011.048	273.06
1011.216	535.2
1011.383	946.84
1011.551	146.09
1011.718	158.38
1011.886	821.92
1012.054	586.4
1012.221	250.53
1012.389	240.3
1012.556	604.83
1012.724	975.52
1012.891	383.65
1013.058	43.69
1013.226	752.29
1013.393	768.67
1013.561	58.03
1013.728	70.31
1013.895	770.72
1014.063	662.18
1014.23	55.98
1014.397	156.33
1014.565	711.33
1014.732	457.38
1014.899	178.86
1015.066	146.09
1015.233	625.31
1015.401	762.53
1015.568	293.54
1015.735	279.21
1015.902	527.01
1016.069	615.07
1016.236	228.01
1016.403	98.99
1016.57	295.59
1016.737	744.1
1016.904	264.87
1017.071	90.79
1017.238	414.37
1017.405	694.94
1017.572	213.67
1017.739	303.78
1017.906	686.75
1018.073	662.18
1018.24	27.31
1018.407	156.33
1018.573	735.9
1018.74	432.8
1018.907	172.71
1019.074	-5.46
1019.241	768.67
1019.407	578.21
1019.574	62.12
1019.741	-42.32
1019.907	537.25
1020.074	647.84
1020.241	-212.31
1020.407	60.07
1020.574	600.74
1020.74	639.65
1020.907	168.62
1021.073	-15.7
1021.24	938.65
1021.406	709.28
1021.573	-32.08
1021.739	58.03
1021.906	727.71
1022.072	338.6
1022.239	111.27
1022.405	96.94
1022.571	518.82
1022.738	240.3
1022.904	98.99
1023.07	168.62
1023.237	567.97
1023.403	840.35
1023.569	207.53
1023.735	162.47
1023.902	508.58
1024.068	443.04
1024.234	-23.89
1024.4	103.08
1024.566	549.54
1024.732	576.16
1024.898	25.26
1025.065	-40.28
1025.231	602.79
1025.397	377.51
1025.563	121.51
1025.729	51.88
1025.895	-81.24
1026.061	221.86
1026.227	-114
1026.392	185
1026.558	606.88
1026.724	443.04
1026.89	0.68
1027.056	94.89
1027.222	570.02
1027.388	268.97
1027.553	21.16
1027.719	80.55
1027.885	783.01
1028.051	576.16
1028.216	-171.35
1028.382	51.88
1028.548	623.27
1028.713	283.3
1028.879	4.78
1029.045	230.06
1029.21	647.84
1029.376	645.79
1029.541	25.26
1029.707	62.12
1029.873	570.02
1030.038	576.16
1030.204	37.55
1030.369	25.26
1030.534	623.27
1030.7	260.77
1030.865	15.02
1031.031	-48.47
1031.196	520.87
1031.361	412.32
1031.527	-3.41
1031.692	-66.9
1031.857	-19.8
1032.023	443.04
1032.188	-122.2
1032.353	8.87
1032.518	662.18
1032.684	359.08
1032.849	-73.04
1033.014	68.27
1033.179	557.73
1033.344	553.63
1033.509	133.8
1033.674	25.26
1033.839	615.07
1034.004	639.65
1034.17	-40.28
1034.335	-126.29
1034.5	199.34
1034.664	168.62
1034.829	-36.18
1034.994	10.92
1035.159	436.9
1035.324	529.06
1035.489	-126.29
1035.654	31.4
1035.819	703.14
1035.984	504.48
1036.148	76.46
1036.313	-23.89
1036.478	561.83
1036.643	373.41
1036.807	-25.94
1036.972	-44.37
1037.137	631.46
1037.301	307.88
1037.466	-152.91
1037.631	53.93
1037.795	680.61
1037.96	502.43
1038.124	197.29
1038.289	-130.39
1038.454	516.77
1038.618	473.76
1038.783	15.02
1038.947	37.55
1039.111	447.14
1039.276	275.11
1039.44	-21.84
1039.605	467.62
1039.769	301.73
1039.933	395.94
1040.098	84.65
1040.262	172.71
1040.426	584.35
1040.591	494.24
1040.755	-60.76
1040.919	-27.99
1041.083	486.05
1041.248	344.74
1041.412	-177.49
1041.576	-122.2
1041.74	281.25
1041.904	596.64
1042.068	-81.24
1042.232	90.79
1042.397	514.72
1042.561	408.23
1042.725	-275.79
1042.889	23.21
1043.053	514.72
1043.217	389.8
1043.381	119.46
1043.544	-240.98
1043.708	651.94
1043.872	168.62
1044.036	-240.98
1044.2	-195.92
1044.364	549.54
1044.528	737.95
1044.691	3005.05
1044.855	-142.68
1045.019	594.59
1045.183	549.54
1045.346	-27.99
1045.51	-138.58
1045.674	531.11
1045.837	477.86
1046.001	-79.19
1046.165	-157.01
1046.328	852.64
1046.492	441
1046.655	152.23
1046.819	76.46
1046.983	264.87
1047.146	473.76
1047.31	-1.37
1047.473	-228.69
1047.636	365.22
1047.8	131.75
1047.963	-21.84
1048.127	-216.4
1048.29	211.62
