Data from Hydrogel_Ink_Intensity_Test_1_USB4F045381__53__00053.txt Node

Date: Mon Jul 31 10:49:44 EDT 2023
User: mmckonesweet
Spectrometer: USB4F04538
Trigger mode: 4
Integration Time (sec): 9.000000E-1
Scans to average: 1
Electric dark correction enabled: true
Nonlinearity correction enabled: false
Boxcar width: 0
XAxis mode: Wavelengths
Number of Pixels in Spectrum: 3648
>>>>>Begin Spectral Data<<<<<
345.52	-1030.47
345.736	-1030.47
345.952	-1030.47
346.168	-1020.23
346.384	-1063.24
346.6	-158.03
346.816	-203.09
347.032	-305.49
347.248	304.81
347.464	-178.51
347.68	-119.12
347.896	157.35
348.112	403.11
348.328	-88.4
348.544	-84.31
348.76	-8.53
348.975	280.23
349.191	-203.09
349.407	-184.66
349.623	67.24
349.839	-72.02
350.055	-182.61
350.27	61.1
350.486	222.89
350.702	394.92
350.918	212.65
351.133	-244.05
351.349	140.97
351.565	382.63
351.781	-217.43
351.996	-6.49
352.212	390.82
352.428	-182.61
352.644	-244.05
352.859	-276.82
353.075	323.24
353.291	-104.79
353.506	-4.44
353.722	-264.53
353.938	-29.01
354.153	439.97
354.369	57
354.584	-174.42
354.8	186.02
355.016	-323.92
355.231	-239.95
355.447	-31.06
355.662	122.54
355.878	855.71
356.093	-291.15
356.309	9.9
356.524	-229.71
356.74	163.5
356.955	-192.85
357.171	-35.16
357.386	85.67
357.602	-278.87
357.817	-26.96
358.033	-133.46
358.248	353.96
358.464	214.7
358.679	-129.36
358.895	-325.97
359.11	-18.77
359.325	353.96
359.541	231.08
359.756	-67.92
359.972	-178.51
360.187	206.5
360.402	-172.37
360.618	-174.42
360.833	949.92
361.048	126.63
361.264	-162.13
361.479	-47.44
361.694	61.1
361.909	229.03
362.125	-198.99
362.34	-96.6
362.555	253.61
362.77	28.33
362.986	-274.77
363.201	-203.09
363.416	237.22
363.631	104.11
363.847	-123.22
364.062	-149.84
364.277	229.03
364.492	163.5
364.707	-141.65
364.922	-385.36
365.138	292.52
365.353	337.57
365.568	-250.19
365.783	-153.94
365.998	48.81
366.213	661.15
366.428	-174.42
366.643	120.49
366.858	269.99
367.073	222.89
367.288	-59.73
367.503	-160.08
367.718	116.39
367.933	313
368.148	-237.91
368.363	-43.35
368.578	-35.16
368.793	470.69
369.008	-110.93
369.223	-219.47
369.438	292.52
369.653	302.76
369.868	-248.15
370.083	-223.57
370.298	102.06
370.513	474.79
370.728	13.99
370.943	-127.32
371.157	-137.56
371.372	528.03
371.587	-280.91
371.802	-174.42
372.017	73.39
372.232	358.05
372.446	-22.87
372.661	-317.78
372.876	222.89
373.091	243.37
373.306	-37.2
373.52	-244.05
373.735	-123.22
373.95	392.87
374.165	-33.11
374.379	-72.02
374.594	-153.94
374.809	231.08
375.023	77.48
375.238	-211.28
375.453	364.2
375.667	-252.24
375.882	-96.6
376.097	-133.46
376.311	20.14
376.526	32.43
376.741	-211.28
376.955	167.59
377.17	566.95
377.384	636.58
377.599	-45.4
377.813	-244.05
378.028	663.2
378.242	196.26
378.457	-55.64
378.672	-268.63
378.886	102.06
379.101	-22.87
379.315	-301.39
379.53	-88.4
379.744	214.7
379.958	231.08
380.173	-104.79
380.387	-155.99
380.602	116.39
380.816	-20.82
381.031	-94.55
381.245	-94.55
381.459	272.04
381.674	2731.65
381.888	-211.28
382.103	75.43
382.317	-147.8
382.531	517.79
382.746	-22.87
382.96	-162.13
383.174	-121.17
383.388	505.51
383.603	95.91
383.817	-285.01
384.031	269.99
384.246	501.41
384.46	118.44
384.674	347.81
384.888	38.57
385.103	167.59
385.317	-282.96
385.531	-6.49
385.745	358.05
385.959	388.77
386.174	-149.84
386.388	-143.7
386.602	46.76
386.816	-39.25
387.03	-45.4
387.244	13.99
387.458	177.83
387.672	427.68
387.887	-250.19
388.101	-178.51
388.315	433.83
388.529	128.68
388.743	-102.74
388.957	-205.14
389.171	478.88
389.385	-69.97
389.599	-59.73
389.813	128.68
390.027	108.2
390.241	712.35
390.455	-82.26
390.669	40.62
390.883	26.28
391.097	562.85
391.311	102.06
391.525	-45.4
391.738	317.09
391.952	210.6
392.166	75.43
392.38	-121.17
392.594	411.3
392.808	444.07
393.022	9.9
393.236	24.23
393.449	245.41
393.663	284.33
393.877	-55.64
394.091	26.28
394.305	26.28
394.518	-47.44
394.732	-129.36
394.946	1.71
395.16	532.13
395.373	128.68
395.587	-74.07
395.801	-133.46
396.015	382.63
396.228	325.29
396.442	-147.8
396.656	-221.52
396.869	462.5
397.083	575.14
397.297	50.86
397.51	-86.36
397.724	405.16
397.938	278.18
398.151	-149.84
398.365	-162.13
398.578	329.38
398.792	599.71
399.005	134.82
399.219	-55.64
399.433	298.66
399.646	370.34
399.86	128.68
400.073	212.65
400.287	403.11
400.5	83.63
400.714	149.16
400.927	75.43
401.141	329.38
401.354	1160.86
401.567	292.52
401.781	-112.98
401.994	396.96
402.208	743.07
402.421	52.91
402.635	-2.39
402.848	161.45
403.061	466.6
403.275	13.99
403.488	-112.98
403.701	550.56
403.915	427.68
404.128	130.73
404.341	-10.58
404.555	362.15
404.768	134.82
404.981	204.46
405.195	-35.16
405.408	673.44
405.621	388.77
405.834	235.18
406.048	-45.4
406.261	554.66
406.474	583.33
406.687	-67.92
406.9	226.98
407.114	276.13
407.327	425.64
407.54	-115.03
407.753	-80.21
407.966	169.64
408.179	435.88
408.392	22.19
408.605	-194.9
408.819	329.38
409.032	386.72
409.245	9.9
409.458	243.37
409.671	419.49
409.884	634.53
410.097	-63.83
410.31	202.41
410.523	446.12
410.736	204.46
410.949	132.78
411.162	112.3
411.375	597.67
411.588	452.26
411.801	167.59
412.014	18.09
412.227	233.13
412.44	169.64
412.653	3.75
412.865	259.75
413.078	607.91
413.291	454.31
413.504	155.3
413.717	-22.87
413.93	497.32
414.143	173.74
414.356	110.25
414.568	-90.45
414.781	380.58
414.994	419.49
415.207	163.5
415.42	177.83
415.632	485.03
415.845	820.89
416.058	50.86
416.271	-18.77
416.483	272.04
416.696	726.69
416.909	-18.77
417.121	30.38
417.334	444.07
417.547	775.84
417.759	42.67
417.972	34.47
418.185	235.18
418.397	591.52
418.61	140.97
418.823	161.45
419.035	648.86
419.248	425.64
419.46	198.31
419.673	282.28
419.885	345.77
420.098	278.18
420.311	130.73
420.523	-59.73
420.736	566.95
420.948	417.44
421.161	163.5
421.373	-2.39
421.586	462.5
421.798	204.46
422.01	5.8
422.223	327.33
422.435	274.09
422.648	497.32
422.86	140.97
423.073	145.06
423.285	622.24
423.497	63.15
423.71	112.3
423.922	67.24
424.134	558.75
424.347	765.6
424.559	497.32
424.771	507.55
424.984	282.28
425.196	558.75
425.408	67.24
425.621	136.87
425.833	732.83
426.045	720.54
426.257	87.72
426.47	235.18
426.682	523.94
426.894	544.42
427.106	272.04
427.318	267.94
427.531	345.77
427.743	655.01
427.955	239.27
428.167	712.35
428.379	568.99
428.591	419.49
428.804	247.46
429.016	173.74
429.228	411.3
429.44	568.99
429.652	431.78
429.864	161.45
430.076	507.55
430.288	423.59
430.5	329.38
430.712	310.95
430.924	749.22
431.136	521.89
431.348	93.87
431.56	190.12
431.772	564.9
431.984	394.92
432.196	198.31
432.408	296.61
432.62	380.58
432.832	599.71
433.044	638.62
433.256	390.82
433.468	687.78
433.679	190.12
433.891	247.46
434.103	589.47
434.315	923.29
434.527	771.74
434.739	429.73
434.95	495.27
435.162	720.54
435.374	362.15
435.586	388.77
435.798	319.14
436.009	370.34
436.221	472.74
436.433	421.54
436.645	370.34
436.856	466.6
437.068	812.7
437.28	247.46
437.491	616.1
437.703	736.93
437.915	595.62
438.126	528.03
438.338	659.1
438.55	591.52
438.761	790.17
438.973	411.3
439.184	413.35
439.396	575.14
439.608	712.35
439.819	335.53
440.031	435.88
440.242	931.48
440.454	767.65
440.665	509.6
440.877	515.75
441.088	796.32
441.3	667.3
441.511	290.47
441.723	458.4
441.934	620.19
442.146	562.85
442.357	724.64
442.569	806.56
442.78	724.64
442.991	1062.55
443.203	853.66
443.414	337.57
443.626	1066.65
443.837	614.05
444.048	509.6
444.26	343.72
444.471	814.75
444.682	956.06
444.894	337.57
445.105	376.48
445.316	966.3
445.528	865.95
445.739	677.54
445.95	597.67
446.161	759.46
446.373	999.07
446.584	521.89
446.795	571.04
447.006	1009.31
447.217	1152.67
447.429	509.6
447.64	419.49
447.851	1029.79
448.062	814.75
448.273	421.54
448.484	519.84
448.695	980.64
448.907	689.82
449.118	566.95
449.329	753.31
449.54	743.07
449.751	612
449.962	556.71
450.173	685.73
450.384	1087.13
450.595	1121.95
450.806	667.3
451.017	681.63
451.228	1167
451.439	1083.03
451.65	607.91
451.861	360.1
452.072	687.78
452.283	876.19
452.494	855.71
452.705	626.34
452.915	1300.12
453.126	1025.69
453.337	693.92
453.548	632.48
453.759	1253.02
453.97	1484.44
454.181	956.06
454.391	749.22
454.602	968.35
454.813	1005.21
455.024	775.84
455.235	691.87
455.445	1023.64
455.656	1083.03
455.867	845.47
456.078	771.74
456.288	765.6
456.499	1099.42
456.71	702.11
456.921	1060.51
457.131	1156.76
457.342	1013.4
457.553	804.51
457.763	790.17
457.974	1185.43
458.184	1212.06
458.395	831.13
458.606	822.94
458.816	1349.27
459.027	1509.01
459.237	972.44
459.448	677.54
459.659	1379.99
459.869	1595.03
460.08	669.34
460.29	1093.27
460.501	1730.19
460.711	1095.32
460.922	765.6
461.132	927.39
461.343	1869.45
461.553	915.1
461.764	906.91
461.974	884.38
462.184	1377.94
462.395	1269.4
462.605	1115.8
462.816	759.46
463.026	1293.97
463.236	1580.69
463.447	1029.79
463.657	1029.79
463.867	1490.58
464.078	1281.69
464.288	1216.15
464.498	1148.57
464.709	1322.65
464.919	1304.21
465.129	1111.71
465.339	1074.84
465.55	1543.83
465.76	1625.75
465.97	1095.32
466.18	1193.62
466.391	1697.42
466.601	1590.93
466.811	1193.62
467.021	1160.86
467.231	1722
467.441	1797.78
467.651	1232.54
467.862	1037.98
468.072	1656.47
468.282	1832.59
468.492	1185.43
468.702	1453.72
468.912	1672.85
469.122	2238.09
469.332	1681.04
469.542	1484.44
469.752	1955.47
469.962	1762.96
470.172	1396.37
470.382	1502.87
470.592	2016.91
470.802	2096.78
471.012	1635.99
471.222	1672.85
471.432	2084.49
471.642	2031.24
471.852	1752.72
472.062	1533.59
472.272	2029.2
472.482	1705.62
472.691	1603.22
472.901	1566.35
473.111	2006.67
473.321	2498.18
473.531	1666.71
473.741	1783.44
473.95	2168.46
474.16	2377.35
474.37	2008.72
474.58	1848.97
474.79	2653.83
474.999	2369.16
475.209	1842.83
475.419	2193.03
475.628	2270.86
475.838	2514.56
476.048	2041.48
476.258	1902.22
476.467	2633.35
476.677	2330.25
476.886	2373.25
477.096	2334.34
477.306	2293.38
477.515	2686.59
477.725	2348.68
477.935	2283.14
478.144	2946.69
478.354	2487.94
478.563	2465.41
478.773	2344.58
478.982	2811.52
479.192	2889.34
479.401	2551.43
479.611	2334.34
479.82	2623.11
480.03	2811.52
480.239	2463.37
480.449	2557.57
480.658	3108.48
480.868	2739.84
481.077	2834.05
481.287	2698.88
481.496	3024.51
481.705	3253.88
481.915	3053.18
482.124	2999.93
482.333	3188.35
482.543	3481.21
482.752	2788.99
482.961	2780.8
483.171	3278.46
483.38	3126.91
483.589	3151.48
483.799	2985.6
484.008	3241.59
484.217	3378.81
484.426	2942.59
484.636	3038.84
484.845	3368.57
485.054	2993.79
485.263	3335.8
485.472	3202.68
485.682	3847.79
485.891	3479.16
486.1	3012.22
486.309	3038.84
486.518	3630.71
486.727	3944.05
486.936	3106.43
487.146	3368.57
487.355	3915.37
487.564	3315.32
487.773	3501.69
487.982	3391.09
488.191	3507.83
488.4	3757.68
488.609	3532.4
488.818	3675.76
489.027	4402.79
489.236	4359.78
489.445	3706.48
489.654	3552.88
489.863	4114.03
490.072	3997.29
490.281	4062.83
490.49	3737.2
490.698	4380.26
490.907	4347.5
491.116	3747.44
491.325	3679.86
491.534	4365.93
491.743	4329.06
491.952	4105.84
492.16	3952.24
492.369	4460.13
492.578	4445.8
492.787	4058.73
492.996	3970.67
493.204	4136.56
493.413	4888.16
493.622	3925.61
493.831	3907.18
494.039	4793.95
494.248	4193.9
494.457	4058.73
494.665	4034.16
494.874	4777.57
495.083	5052
495.291	4236.91
495.5	4238.95
495.709	4906.59
495.917	4640.36
496.126	4345.45
496.335	4484.71
496.543	4726.37
496.752	4806.24
496.96	4623.97
497.169	4361.83
497.377	4722.27
497.586	5029.47
497.794	4617.83
498.003	4320.87
498.211	4832.86
498.42	5281.37
498.628	4642.4
498.837	4630.12
499.045	5107.29
499.254	5066.33
499.462	4798.05
499.671	4628.07
499.879	5504.6
500.087	5131.87
500.296	4591.2
500.504	4828.77
500.713	5246.55
500.921	5551.7
501.129	4796
501.338	4820.58
501.546	5482.07
501.754	5000.8
501.962	5035.61
502.171	4949.6
502.379	5461.59
502.587	5750.35
502.795	4955.74
503.004	5082.72
503.212	5416.54
503.42	5551.7
503.628	5066.33
503.837	5381.72
504.045	5510.74
504.253	5815.89
504.461	5004.89
504.669	4877.92
504.877	5443.16
505.085	5918.29
505.294	5158.49
505.502	5264.99
505.71	5604.95
505.918	5729.88
506.126	5287.51
506.334	5144.16
506.542	5535.32
506.75	5518.93
506.958	5547.61
507.166	5396.06
507.374	5590.61
507.582	6168.14
507.79	5572.18
507.998	5377.62
508.206	5711.44
508.414	5897.81
508.622	5477.98
508.83	5445.21
509.037	6207.05
509.245	5715.54
509.453	5555.8
509.661	5430.87
509.869	6127.18
510.077	5733.97
510.285	5705.3
510.492	5451.35
510.7	6604.36
510.908	5795.41
511.116	5705.3
511.324	5639.76
511.531	5883.47
511.739	6114.89
511.947	5797.46
512.155	6143.56
512.362	6254.16
512.57	5770.83
512.778	5690.96
512.985	5670.48
513.193	6227.53
513.401	6514.25
513.608	5887.57
513.816	5731.92
514.024	6188.62
514.231	6436.42
514.439	5731.92
514.646	5889.62
514.854	6286.92
515.061	6374.99
515.269	6164.04
515.477	5957.2
515.684	6096.46
515.892	6633.03
516.099	5932.62
516.307	6075.98
516.514	6628.93
516.722	6876.74
516.929	6374.99
517.136	5944.91
517.344	6782.53
517.551	6702.66
517.759	6184.52
517.966	6313.55
518.173	6374.99
518.381	6565.45
518.588	6323.79
518.796	6291.02
519.003	6657.61
519.21	6620.74
519.418	6207.05
519.625	6581.83
519.832	6667.84
520.039	6788.68
520.247	6205
520.454	6293.07
520.661	7028.29
520.868	6710.85
521.076	6428.23
521.283	6643.27
521.49	7368.25
521.697	6989.38
521.904	6762.05
522.112	6628.93
522.319	7026.24
522.526	6723.14
522.733	6702.66
522.94	6542.92
523.147	6911.55
523.354	6977.09
523.561	6635.08
523.768	6719.04
523.975	7366.2
524.183	7120.45
524.39	6880.83
524.597	6604.36
524.804	7003.71
525.011	6815.3
525.218	6915.65
525.425	6899.27
525.632	7196.22
525.838	6940.22
526.045	6901.31
526.252	7001.66
526.459	8635.94
526.666	8097.33
526.873	6921.79
527.08	6852.16
527.287	7824.95
527.494	7315
527.701	6932.03
527.907	7083.58
528.114	7642.68
528.321	7312.96
528.528	7300.67
528.735	7167.55
528.941	7306.81
529.148	7284.28
529.355	7114.3
529.562	7151.17
529.768	7771.7
529.975	7390.78
530.182	7126.59
530.388	7048.77
530.595	7919.15
530.802	7196.22
531.008	7521.85
531.215	7216.7
531.422	8422.95
531.628	8320.56
531.835	7511.61
532.042	7579.19
532.248	7722.55
532.455	7751.22
532.661	7441.98
532.868	7398.97
533.074	7960.11
533.281	7964.21
533.487	7546.42
533.694	7558.71
533.9	7743.03
534.107	7953.97
534.313	7624.25
534.52	7573.05
534.726	8099.38
534.933	8572.46
535.139	7657.01
535.345	7517.75
535.552	8117.81
535.758	7898.67
535.965	7816.76
536.171	7702.07
536.377	8300.08
536.584	8463.91
536.79	7544.38
536.996	8068.66
537.203	8310.32
537.409	8437.29
537.615	8109.61
537.821	7972.4
538.028	8455.72
538.234	8367.66
538.44	8082.99
538.646	7984.69
538.853	8381.99
539.059	8341.04
539.265	8427.05
539.471	7861.81
539.677	8513.06
539.883	8324.65
540.09	8191.53
540.296	8701.48
540.502	8635.94
540.708	8230.45
540.914	8455.72
541.12	8212.01
541.326	8652.33
541.532	8492.59
541.738	8484.39
541.944	8328.75
542.15	8873.51
542.356	8648.23
542.562	8193.58
542.768	8523.3
542.974	9111.07
543.18	9023.01
543.386	8451.63
543.592	8363.56
543.798	9063.97
544.004	8912.42
544.21	8476.2
544.415	8705.57
544.621	8812.07
544.827	9092.64
545.033	8517.16
545.239	8820.26
545.445	8713.77
545.651	8826.4
545.856	8609.32
546.062	8705.57
546.268	8672.81
546.474	9012.77
546.679	8713.77
546.885	8775.2
547.091	8955.43
547.297	9451.03
547.502	8875.56
547.708	8545.83
547.914	8719.91
548.119	9229.85
548.325	8699.43
548.531	8521.26
548.736	9213.47
548.942	8971.81
549.147	8750.63
549.353	8824.36
549.559	9424.41
549.764	9176.61
549.97	8719.91
550.175	8857.12
550.381	9543.19
550.586	9039.39
550.792	8951.33
550.997	8775.2
551.203	9176.61
551.408	9616.92
551.614	8814.12
551.819	8996.39
552.025	9868.82
552.23	9731.61
552.435	9209.37
552.641	9365.02
552.846	9236
553.052	9618.97
553.257	9412.12
553.462	9233.95
553.668	9156.13
553.873	9846.29
554.078	9344.54
554.283	9168.41
554.489	9965.07
554.694	9819.67
554.899	9279.01
555.105	9471.51
555.31	9795.09
555.515	9895.44
555.72	9522.71
555.925	9434.65
556.131	10094.1
556.336	9479.71
556.541	9580.06
556.746	9612.82
556.951	10133.01
557.156	10149.39
557.361	9578.01
557.567	9801.24
557.772	10372.62
557.977	9973.27
558.182	9518.62
558.387	9584.15
558.592	9840.15
558.797	10104.34
559.002	9672.22
559.207	9803.29
559.412	10100.24
559.617	10341.9
559.822	9766.42
560.027	9592.34
560.232	10026.51
560.437	10194.45
560.642	9362.97
560.847	9711.13
561.051	9893.4
561.256	10137.1
561.461	9809.43
561.666	9731.61
561.871	10380.81
562.076	10302.99
562.281	9809.43
562.485	9616.92
562.69	10472.97
562.895	10384.91
563.1	9905.68
563.305	9692.69
563.509	10438.16
563.714	10827.27
563.919	9739.8
564.123	9915.92
564.328	10124.82
564.533	10489.35
564.737	9829.91
564.942	9881.11
565.147	10814.98
565.351	10964.48
565.556	10180.11
565.761	10053.14
565.965	10423.82
566.17	10114.58
566.374	10071.57
566.579	10040.85
566.784	10495.5
566.988	10378.76
567.193	9956.88
567.397	10069.52
567.602	10262.03
567.806	10208.78
568.011	10130.96
568.215	10253.84
568.42	10536.46
568.624	10460.68
568.828	10200.59
569.033	10300.94
569.237	10683.91
569.442	10733.06
569.646	10065.43
569.85	10401.29
570.055	10659.34
570.259	10688.01
570.463	10632.71
570.668	10399.24
570.872	10438.16
571.076	10591.75
571.281	10425.87
571.485	10503.69
571.689	10843.65
571.893	10884.61
572.098	10681.86
572.302	10714.63
572.506	10595.85
572.71	10771.97
572.914	10636.81
573.119	10538.51
573.323	10997.25
573.527	11167.23
573.731	10632.71
573.935	10657.29
574.139	11070.98
574.343	10696.2
574.547	10794.5
574.751	10683.91
574.955	11232.77
575.159	11589.11
575.364	10733.06
575.568	10561.03
575.772	11075.07
575.976	11382.27
576.18	10405.39
576.383	10835.46
576.587	11372.03
576.791	11269.63
576.995	10718.73
577.199	10565.13
577.403	11281.92
577.607	11306.49
577.811	10952.2
578.015	11007.49
578.219	11357.69
578.422	11466.24
578.626	11083.27
578.83	11056.64
579.034	11505.15
579.238	11351.55
579.442	10909.19
579.645	11365.89
579.849	11073.03
580.053	11560.44
580.257	11077.12
580.46	11247.1
580.664	11521.53
580.868	11351.55
581.071	11347.45
581.275	11236.86
581.479	10997.25
581.682	11601.4
581.886	11251.2
582.09	11277.82
582.293	11748.86
582.497	11687.42
582.7	11345.41
582.904	11220.48
583.107	11554.3
583.311	11607.55
583.515	11243.01
583.718	11159.04
583.922	11699.7
584.125	12051.95
584.329	11144.7
584.532	11333.12
584.735	12002.8
584.939	11808.25
585.142	11132.42
585.346	11150.85
585.549	11769.34
585.753	11728.38
585.956	11521.53
586.159	11654.65
586.363	12353.01
586.566	11957.75
586.769	11435.52
586.973	11480.57
587.176	11949.56
587.379	12322.29
587.582	11709.94
587.786	11802.1
587.989	12004.85
588.192	12619.24
588.395	11896.31
588.599	12277.23
588.802	11988.47
589.005	12092.91
589.208	11841.01
589.411	11537.91
589.615	12021.24
589.818	12594.67
590.021	12109.3
590.224	11877.88
590.427	12062.19
590.63	12344.81
590.833	11830.77
591.036	11931.12
591.239	12228.08
591.442	11769.34
591.645	12246.51
591.848	12076.53
592.051	12238.32
592.254	12555.76
592.457	12078.58
592.66	11734.52
592.863	12279.28
593.066	12500.46
593.269	11908.6
593.472	12148.21
593.675	12336.62
593.878	12475.88
594.081	12119.54
594.284	12152.31
594.486	12578.28
594.689	12363.25
594.892	12248.56
595.095	12418.54
595.298	12529.13
595.5	12326.38
595.703	12551.66
595.906	12355.05
596.109	12914.15
596.311	12682.73
596.514	12078.58
596.717	12312.05
596.92	12887.53
597.122	12764.65
597.325	12029.43
597.528	12324.33
597.73	13147.62
597.933	12838.37
598.136	12260.85
598.338	12062.19
598.541	12686.83
598.743	13100.51
598.946	12430.83
599.148	12643.82
599.351	13106.66
599.554	13323.74
599.756	12494.32
599.959	13002.21
600.161	12973.54
600.363	13465.05
600.566	12744.17
600.768	12457.45
600.971	13293.02
601.173	12994.02
601.376	12658.15
601.578	12705.26
601.78	13051.36
601.983	13671.9
602.185	12715.5
602.388	12961.25
602.59	13043.17
602.792	12735.98
602.995	12623.34
603.197	12830.18
603.399	13374.94
603.601	13317.6
603.804	12721.64
604.006	12672.49
604.208	13073.89
604.41	12760.55
604.613	12848.61
604.815	12869.09
605.017	13551.07
605.219	13004.26
605.421	13114.85
605.623	12740.07
605.826	13608.41
606.028	13583.84
606.23	12678.63
606.432	12551.66
606.634	13729.24
606.836	13436.38
607.038	12686.83
607.24	13108.71
607.442	13297.12
607.644	13422.05
607.846	13336.03
608.048	12647.91
608.25	13618.65
608.452	13141.47
608.654	12979.68
608.856	12518.89
609.058	13178.34
609.26	13422.05
609.462	13350.37
609.664	13219.3
609.866	13628.89
610.067	13395.42
610.269	13209.06
610.471	13026.79
610.673	13133.28
610.875	13757.91
611.077	12893.67
611.278	13000.16
611.48	13510.11
611.682	13635.03
611.884	13508.06
612.085	13153.76
612.287	13389.28
612.489	13598.17
612.69	12996.07
612.892	13323.74
613.094	13837.78
613.295	13426.14
613.497	12867.05
613.699	13188.58
613.9	13675.99
614.102	13755.86
614.304	13051.36
614.505	13057.51
614.707	13366.75
614.908	13473.25
615.11	12930.53
615.311	13188.58
615.513	13514.2
615.714	13792.73
615.916	13133.28
616.117	13188.58
616.319	13319.65
616.52	13821.4
616.722	13231.58
616.923	13153.76
617.124	13819.35
617.326	13614.55
617.527	13311.46
617.729	13362.65
617.93	13477.34
618.131	13653.47
618.333	13153.76
618.534	13327.84
618.735	13438.43
618.937	13942.23
619.138	13084.13
619.339	13026.79
619.54	13794.78
619.742	13397.47
619.943	13217.25
620.144	13331.94
620.345	13719
620.546	13866.46
620.748	13379.04
620.949	13376.99
621.15	13768.15
621.351	13446.62
621.552	13200.87
621.753	13022.69
621.954	13383.13
622.155	13919.7
622.356	13182.43
622.558	13346.27
622.759	13682.14
622.96	14022.1
623.161	13370.85
623.362	13239.78
623.563	13743.58
623.764	13534.68
623.965	13303.26
624.166	13608.41
624.366	13643.23
624.567	13774.3
624.768	13223.39
624.969	13280.74
625.17	13653.47
625.371	13641.18
625.572	13454.81
625.773	13217.25
625.973	13823.45
626.174	14116.31
626.375	13610.46
626.576	13542.88
626.777	13979.09
626.977	14366.16
627.178	13536.73
627.379	13618.65
627.58	13852.12
627.78	14144.98
627.981	13491.68
628.182	13710.81
628.382	14339.54
628.583	13551.07
628.784	13385.18
628.984	13446.62
629.185	14140.88
629.386	14015.96
629.586	13745.62
629.787	13534.68
629.987	14306.77
630.188	14144.98
630.388	13612.51
630.589	13811.16
630.79	14595.53
630.99	14007.76
631.191	13786.58
631.391	13712.86
631.591	13888.98
631.792	14192.08
631.992	14228.95
632.193	13592.03
632.393	14392.78
632.594	13680.09
632.794	13618.65
632.994	13944.28
633.195	14097.88
633.395	14114.26
633.595	13635.03
633.796	13938.13
633.996	14046.68
634.196	14323.15
634.397	13764.06
634.597	13929.94
634.797	13911.51
634.997	14192.08
635.198	13813.21
635.398	13579.74
635.598	14120.4
635.798	14212.56
635.998	14144.98
636.199	13778.39
636.399	13862.36
636.599	13897.17
636.799	13823.45
636.999	14026.2
637.199	14116.31
637.399	14386.64
637.599	13839.83
637.799	13786.58
637.999	13845.98
638.199	14300.62
638.399	13649.37
638.599	13835.74
638.799	14448.08
638.999	14814.66
639.199	13905.37
639.399	14095.83
639.599	14585.29
639.799	13960.66
639.999	14099.92
640.199	13823.45
640.399	14284.24
640.599	14003.67
640.799	14226.9
640.998	14290.38
641.198	14448.08
641.398	14364.11
641.598	14069.2
641.798	14046.68
641.997	15029.7
642.197	14079.44
642.397	14253.52
642.597	14194.13
642.796	14710.22
642.996	14691.79
643.196	14300.62
643.395	14140.88
643.595	14605.77
643.795	13745.62
643.994	14032.34
644.194	14347.73
644.394	14702.03
644.593	14421.45
644.793	14122.45
644.992	14337.49
645.192	14194.13
645.392	14140.88
645.591	14265.81
645.791	14386.64
645.99	14513.61
646.19	14431.69
646.389	14175.7
646.589	14171.6
646.788	14974.41
646.987	14730.7
647.187	14816.71
647.386	14413.26
647.586	14419.41
647.785	14661.07
647.984	14247.38
648.184	14403.02
648.383	14577.1
648.582	14527.95
648.782	14286.29
648.981	14558.67
649.18	14274
649.38	14818.76
649.579	14325.2
649.778	14294.48
649.977	14894.54
650.177	14945.73
650.376	14456.27
650.575	14204.37
650.774	15189.44
650.973	14456.27
651.173	14173.65
651.372	14288.34
651.571	14792.14
651.77	14872.01
651.969	14497.23
652.168	14636.49
652.367	14362.06
652.566	14720.46
652.765	14540.24
652.964	14689.74
653.163	15097.28
653.362	14771.66
653.561	14634.44
653.76	14691.79
653.959	14896.58
654.158	14935.49
654.357	14568.91
654.556	14618.06
654.755	14822.86
654.954	14960.07
655.153	14329.3
655.352	14767.56
655.551	15234.5
655.749	14777.8
655.948	14777.8
656.147	14777.8
656.346	14958.02
656.545	14532.04
656.743	14568.91
656.942	14601.68
657.141	14775.75
657.34	14456.27
657.538	14650.83
657.737	14683.59
657.936	14804.42
658.135	14585.29
658.333	14603.72
658.532	14734.79
658.731	15465.92
658.929	15125.96
659.128	15017.41
659.326	14636.49
659.525	15285.7
659.724	14966.21
659.922	14605.77
660.121	14620.11
660.319	14611.92
660.518	14640.59
660.716	14441.93
660.915	14728.65
661.113	15265.22
661.312	14450.13
661.51	14814.66
661.709	14644.68
661.907	14886.34
662.105	15164.87
662.304	14765.51
662.502	14714.31
662.701	15236.55
662.899	14874.06
663.097	15089.09
663.296	14581.2
663.494	15439.3
663.692	15349.18
663.891	14484.94
664.089	14597.58
664.287	14949.83
664.485	15308.23
664.684	14527.95
664.882	14779.85
665.08	14747.08
665.278	15111.62
665.476	14634.44
665.675	14964.17
665.873	15472.06
666.071	15074.76
666.269	14849.48
666.467	14876.1
666.665	14829
666.863	14691.79
667.061	14831.05
667.259	14624.2
667.457	14855.62
667.655	15244.74
667.853	14706.12
668.051	14722.51
668.249	14683.59
668.447	15001.03
668.645	14583.24
668.843	15109.57
669.041	15250.88
669.239	14736.84
669.437	14712.27
669.635	14915.02
669.833	15062.47
670.031	15066.56
670.229	15015.37
670.426	14921.16
670.624	15021.51
670.822	14613.96
671.02	14659.02
671.218	14646.73
671.415	14595.53
671.613	14869.96
671.811	14855.62
672.009	14757.32
672.206	15291.84
672.404	14730.7
672.602	14929.35
672.799	14837.19
672.997	14919.11
673.195	14865.86
673.392	15230.4
673.59	14323.15
673.788	14958.02
673.985	14167.51
674.183	14886.34
674.38	14767.56
674.578	15021.51
674.775	14859.72
674.973	14462.41
675.17	14579.15
675.368	15381.95
675.565	15230.4
675.763	14482.89
675.96	14489.04
676.158	15248.83
676.355	14755.27
676.553	14601.68
676.75	14519.76
676.947	14853.58
677.145	14802.38
677.342	14605.77
677.539	14638.54
677.737	14755.27
677.934	15310.27
678.131	14603.72
678.329	14398.93
678.526	15295.94
678.723	15033.8
678.92	14769.61
679.118	14562.76
679.315	14482.89
679.512	15277.51
679.709	14669.26
679.906	14417.36
680.104	15246.79
680.301	14677.45
680.498	14441.93
680.695	14400.97
680.892	14575.05
681.089	14706.12
681.286	14517.71
681.483	14413.26
681.68	14736.84
681.877	14915.02
682.075	14452.17
682.272	14661.07
682.469	14642.64
682.665	14646.73
682.862	14343.63
683.059	14153.17
683.256	14624.2
683.453	14714.31
683.65	14478.8
683.847	14228.95
684.044	14564.81
684.241	14210.51
684.438	14548.43
684.635	14130.64
684.831	14984.65
685.028	15013.32
685.225	14312.91
685.422	14310.86
685.619	14536.14
685.815	14740.94
686.012	14292.43
686.209	14409.17
686.405	14245.33
686.602	14542.28
686.799	14142.93
686.996	14194.13
687.192	14415.31
687.389	14837.19
687.586	14198.23
687.782	14271.95
687.979	14833.1
688.175	14628.3
688.372	14241.23
688.568	14298.58
688.765	14292.43
688.962	14849.48
689.158	14306.77
689.355	13985.24
689.551	14556.62
689.748	14216.66
689.944	14253.52
690.14	14114.26
690.337	14757.32
690.533	14423.5
690.73	14255.57
690.926	14278.1
691.123	14441.93
691.319	14101.97
691.515	14134.74
691.712	14255.57
691.908	14448.08
692.104	14257.62
692.301	14216.66
692.497	13831.64
692.693	14738.89
692.889	14257.62
693.086	14204.37
693.282	13823.45
693.478	14267.86
693.674	14507.47
693.87	14106.07
694.067	14077.4
694.263	14265.81
694.459	14159.31
694.655	14120.4
694.851	14271.95
695.047	14355.92
695.243	14429.65
695.439	13905.37
695.635	13987.29
695.831	14403.02
696.027	13993.43
696.224	13848.02
696.42	14486.99
696.615	14403.02
696.811	14278.1
697.007	13671.9
697.203	13870.55
697.399	14169.55
697.595	14452.17
697.791	13678.04
697.987	13960.66
698.183	13919.7
698.379	13911.51
698.575	13854.17
698.77	13975
698.966	14237.14
699.162	14505.42
699.358	13831.64
699.554	13831.64
699.749	14067.16
699.945	14298.58
700.141	13966.81
700.337	13966.81
700.532	14058.96
700.728	13829.59
700.924	13798.87
701.119	13684.19
701.315	14013.91
701.511	13919.7
701.706	13903.32
701.902	13719
702.097	14106.07
702.293	14079.44
702.489	13788.63
702.684	13942.23
702.88	14013.91
703.075	13876.69
703.271	13489.63
703.466	13723.1
703.662	14022.1
703.857	14159.31
704.053	13579.74
704.248	13753.82
704.443	14251.47
704.639	14157.27
704.834	14003.67
705.03	13659.61
705.225	14073.3
705.42	14194.13
705.616	13641.18
705.811	13444.57
706.006	13759.96
706.202	13725.15
706.397	13809.11
706.592	13549.02
706.787	13948.37
706.983	13645.27
707.178	13802.97
707.373	13727.19
707.568	13966.81
707.763	14011.86
707.959	13764.06
708.154	13592.03
708.349	13700.57
708.544	14050.77
708.739	13702.62
708.934	13225.44
709.129	13895.13
709.324	13964.76
709.519	13645.27
709.714	13389.28
709.909	14056.92
710.104	13616.6
710.299	13630.94
710.494	13690.33
710.689	13952.47
710.884	13911.51
711.079	13755.86
711.274	14046.68
711.469	13893.08
711.664	13899.22
711.859	13577.69
712.054	13678.04
712.249	13768.15
712.443	14110.16
712.638	13368.8
712.833	13272.54
713.028	13696.47
713.223	13528.54
713.417	13581.79
713.612	13452.77
713.807	13766.1
714.002	14106.07
714.196	13731.29
714.391	13295.07
714.586	13993.43
714.78	13575.64
714.975	13327.84
715.17	13303.26
715.364	13420
715.559	13874.65
715.754	12682.73
715.948	13223.39
716.143	13872.6
716.337	13293.02
716.532	13389.28
716.726	13340.13
716.921	13665.75
717.115	13764.06
717.31	12998.12
717.504	13815.26
717.699	13379.04
717.893	13692.38
718.088	12989.92
718.282	13131.23
718.476	13440.48
718.671	13350.37
718.865	13059.56
719.059	13022.69
719.254	13286.88
719.448	13655.51
719.642	14613.96
719.837	12846.57
720.031	13553.12
720.225	13481.44
720.419	13266.4
720.614	12932.58
720.808	13536.73
721.002	13192.67
721.196	13000.16
721.39	13004.26
721.585	13481.44
721.779	13305.31
721.973	13217.25
722.167	12735.98
722.361	13415.9
722.555	13362.65
722.749	12932.58
722.943	12975.59
723.137	13108.71
723.331	13336.03
723.525	12979.68
723.719	12801.51
723.913	13211.11
724.107	13557.21
724.301	12893.67
724.495	12832.23
724.689	13639.13
724.883	13364.7
725.077	12848.61
725.271	12998.12
725.465	13348.32
725.659	13100.51
725.853	12928.49
726.046	12742.12
726.24	12791.27
726.434	13346.27
726.628	12791.27
726.822	12942.82
727.015	13680.09
727.209	13424.09
727.403	12975.59
727.596	12596.71
727.79	13297.12
727.984	13409.76
728.177	12879.33
728.371	13028.84
728.565	13270.5
728.758	12731.88
728.952	12588.52
729.146	12903.91
729.339	13321.7
729.533	13092.32
729.726	12926.44
729.92	12807.66
730.113	13260.26
730.307	13284.83
730.5	12688.87
730.694	12748.26
730.887	12987.88
731.081	13073.89
731.274	12766.7
731.468	13016.55
731.661	12785.13
731.854	12914.15
732.048	12848.61
732.241	12883.43
732.435	12932.58
732.628	13086.18
732.821	12969.44
733.014	12709.35
733.208	12918.25
733.401	13274.59
733.594	12778.98
733.788	12817.9
733.981	13362.65
734.174	13264.35
734.367	12670.44
734.56	12948.97
734.754	13268.45
734.947	12715.5
735.14	12707.3
735.333	12883.43
735.526	13301.22
735.719	12828.13
735.912	12660.2
736.105	12809.7
736.298	12766.7
736.491	12817.9
736.684	12674.54
736.877	12756.46
737.07	12899.81
737.263	13153.76
737.456	12699.11
737.649	12469.74
737.842	12649.96
738.035	13047.27
738.228	12699.11
738.421	12813.8
738.614	13127.14
738.807	13278.69
739	12615.15
739.192	12715.5
739.385	13063.65
739.578	13133.28
739.771	12797.42
739.964	12555.76
740.156	12973.54
740.349	12672.49
740.542	12674.54
740.735	12459.5
740.927	12674.54
741.12	12512.75
741.313	12408.3
741.505	12758.5
741.698	12871.14
741.891	12750.31
742.083	12582.38
742.276	12641.77
742.468	12738.02
742.661	12821.99
742.854	12664.3
743.046	12455.4
743.239	13286.88
743.431	13211.11
743.624	12426.73
743.816	12441.07
744.009	12557.8
744.201	12723.69
744.393	12697.06
744.586	12310
744.778	12842.47
744.971	12801.51
745.163	12660.2
745.355	12439.02
745.548	12406.25
745.74	12641.77
745.932	12377.58
746.125	12459.5
746.317	13376.99
746.509	12711.4
746.702	12350.96
746.894	12244.46
747.086	12494.32
747.278	12803.56
747.471	12496.36
747.663	12633.58
747.855	12860.9
748.047	13166.05
748.239	12336.62
748.431	12420.59
748.623	12975.59
748.815	12848.61
749.008	12357.1
749.2	12215.79
749.392	12826.09
749.584	12783.08
749.776	12336.62
749.968	12486.12
750.16	13123.04
750.352	12580.33
750.544	12383.73
750.736	12283.38
750.928	12791.27
751.12	12504.56
751.311	12252.66
751.503	12426.73
751.695	12451.31
751.887	12412.4
752.079	12248.56
752.271	12353.01
752.463	13178.34
752.654	12541.42
752.846	12281.33
753.038	12324.33
753.23	12191.22
753.421	12817.9
753.613	12310
753.805	12400.11
753.997	12844.52
754.188	12494.32
754.38	12275.18
754.572	12185.07
754.763	12389.87
754.955	12492.27
755.146	12166.64
755.338	12258.8
755.53	12482.03
755.721	12504.56
755.913	11937.27
756.104	11914.74
756.296	12316.14
756.487	12516.84
756.679	12011
756.87	12142.07
757.062	12109.3
757.253	12424.69
757.445	11888.12
757.636	12150.26
757.827	12195.31
758.019	12916.2
758.21	11912.69
758.401	12004.85
758.593	12590.57
758.784	12516.84
758.975	11746.81
759.167	11896.31
759.358	12332.53
759.549	12299.76
759.74	11896.31
759.932	11814.39
760.123	12434.92
760.314	12234.22
760.505	11957.75
760.696	11855.35
760.888	12514.8
761.079	12051.95
761.27	11693.56
761.461	11496.96
761.652	12328.43
761.843	11972.08
762.034	11650.55
762.225	11818.49
762.416	12051.95
762.607	11806.2
762.798	11677.18
762.989	11697.66
763.18	12649.96
763.371	11773.43
763.562	11742.71
763.753	11750.9
763.944	12135.92
764.135	11922.93
764.326	11697.66
764.517	11568.63
764.708	11853.3
764.899	11730.42
765.089	11501.05
765.28	11363.84
765.471	11873.78
765.662	11849.21
765.853	11447.8
766.043	11316.73
766.234	12008.95
766.425	11660.79
766.615	11585.02
766.806	11347.45
766.997	11924.98
767.187	11525.63
767.378	11396.6
767.569	11107.84
767.759	11716.09
767.95	11546.11
768.141	11650.55
768.331	11089.41
768.522	11486.72
768.712	11507.2
768.903	11068.93
769.093	11113.99
769.284	11687.42
769.474	11681.27
769.665	11175.42
769.855	10886.66
770.046	11812.34
770.236	11374.08
770.426	11263.49
770.617	11101.7
770.807	11441.66
770.998	11499
771.188	11097.6
771.378	10933.76
771.569	11488.76
771.759	11529.72
771.949	11003.39
772.139	10915.33
772.33	11277.82
772.52	11701.75
772.71	10935.81
772.9	11087.36
773.09	11587.07
773.281	11671.03
773.471	10941.96
773.661	10995.2
773.851	11212.29
774.041	11142.66
774.231	10851.85
774.421	10903.04
774.611	11367.93
774.802	11138.56
774.992	10864.13
775.182	10841.61
775.372	11144.7
775.562	11230.72
775.752	10825.22
775.942	10442.25
776.131	11347.45
776.321	11036.16
776.511	10788.36
776.701	10573.32
776.891	11263.49
777.081	10487.31
777.271	10802.69
777.461	10493.45
777.651	11027.97
777.84	11068.93
778.03	10597.9
778.22	10442.25
778.41	11091.46
778.599	10491.4
778.789	10462.73
778.979	10630.66
779.169	10821.13
779.358	10595.85
779.548	10802.69
779.738	10339.85
779.927	10954.24
780.117	10427.92
780.307	10491.4
780.496	10247.69
780.686	10796.55
780.875	11068.93
781.065	10415.63
781.254	10325.52
781.444	10610.18
781.633	10452.49
781.823	10276.37
782.012	10137.1
782.202	10507.79
782.391	10503.69
782.581	10292.75
782.77	10229.26
782.96	10706.44
783.149	10407.44
783.338	10053.14
783.528	10288.65
783.717	10806.79
783.906	10825.22
784.096	10223.12
784.285	10104.34
784.474	10380.81
784.663	10083.86
784.853	10268.17
785.042	10173.97
785.231	10233.36
785.42	10747.4
785.61	10110.48
785.799	9965.07
785.988	10198.54
786.177	10020.37
786.366	10141.2
786.555	10098.19
786.744	10645
786.933	10282.51
787.122	9954.83
787.312	9838.1
787.501	10057.23
787.69	10270.22
787.879	9989.65
788.068	9831.96
788.257	9913.88
788.445	10014.23
788.634	9920.02
788.823	9870.87
789.012	10946.05
789.201	10419.72
789.39	9778.71
789.579	9817.62
789.768	10130.96
789.957	10180.11
790.145	9670.17
790.334	9666.07
790.523	9975.31
790.712	9969.17
790.9	9922.07
791.089	9561.62
791.278	10223.12
791.467	10153.49
791.655	9893.4
791.844	10247.69
792.033	9899.54
792.221	9856.53
792.41	9469.47
792.599	9432.6
792.787	10038.8
792.976	10161.68
793.164	9467.42
793.353	9950.74
793.541	10049.04
793.73	10122.77
793.918	9696.79
794.107	9569.82
794.295	9815.57
794.484	9788.95
794.672	9532.95
794.861	9616.92
795.049	9883.16
795.238	10126.86
795.426	9455.13
795.614	9649.69
795.803	9997.84
795.991	10044.95
796.179	9502.23
796.368	9651.74
796.556	9936.4
796.744	9446.94
796.932	9367.07
797.121	9225.76
797.309	9586.2
797.497	9883.16
797.685	9475.61
797.874	9350.68
798.062	9627.16
798.25	9987.6
798.438	9344.54
798.626	9418.27
798.814	9874.96
799.002	10364.43
799.19	9399.84
799.378	9459.23
799.566	9911.83
799.755	9989.65
799.943	9645.59
800.131	9213.47
800.318	9750.04
800.506	9793.05
800.694	9324.06
800.882	9324.06
801.07	10100.24
801.258	9643.54
801.446	9451.03
801.634	9426.46
801.822	9463.32
802.01	9565.72
802.197	9274.91
802.385	9537.05
802.573	9764.37
802.761	9618.97
802.949	9307.68
803.136	9033.25
803.324	9958.93
803.512	9850.39
803.699	9397.79
803.887	9293.34
804.075	9881.11
804.262	9379.36
804.45	9430.55
804.638	9578.01
804.825	9512.47
805.013	9549.34
805.201	9451.03
805.388	9442.84
805.576	9612.82
805.763	10239.5
805.951	9512.47
806.138	9516.57
806.326	10309.13
806.513	9971.22
806.701	9545.24
806.888	9289.24
807.075	9819.67
807.263	10212.88
807.45	9483.8
807.638	9791
807.825	10382.86
808.012	9887.25
808.2	9604.63
808.387	9823.76
808.574	9979.41
808.761	10098.19
808.949	9338.4
809.136	9842.2
809.323	9504.28
809.51	9928.21
809.698	9803.29
809.885	9659.93
810.072	9893.4
810.259	10063.38
810.446	9713.17
810.633	9498.14
810.82	10126.86
811.008	10266.13
811.195	9893.4
811.382	9866.77
811.569	9995.79
811.756	9532.95
811.943	9889.3
812.13	9743.89
812.317	9879.06
812.504	9823.76
812.691	9735.7
812.878	9776.66
813.064	10212.88
813.251	9909.78
813.438	9596.44
813.625	9704.98
813.812	9819.67
813.999	9901.59
814.186	9745.94
814.372	9815.57
814.559	9897.49
814.746	10085.9
814.933	9496.09
815.12	9635.35
815.306	9707.03
815.493	9803.29
815.68	9528.86
815.866	9743.89
816.053	10208.78
816.24	10358.28
816.426	9621.02
816.613	9729.56
816.799	10143.25
816.986	10036.75
817.173	9627.16
817.359	9573.91
817.546	9932.31
817.732	9412.12
817.919	9315.87
818.105	9831.96
818.292	9825.81
818.478	9807.38
818.665	9715.22
818.851	9563.67
819.037	10221.07
819.224	9672.22
819.41	9448.99
819.597	9614.87
819.783	10196.5
819.969	9881.11
820.156	9737.75
820.342	9381.4
820.528	10575.37
820.714	9766.42
820.901	9815.57
821.087	9451.03
821.273	10274.32
821.459	9545.24
821.646	9403.93
821.832	9377.31
822.018	9774.61
822.204	9723.41
822.39	9393.69
822.576	9219.61
822.762	10008.08
822.948	9655.83
823.134	9649.69
823.32	9346.59
823.507	9408.03
823.693	9645.59
823.879	9756.18
824.065	9360.92
824.25	9713.17
824.436	9383.45
824.622	9412.12
824.808	9342.49
824.994	9254.43
825.18	9322.01
825.366	9209.37
825.552	9184.8
825.738	9487.9
825.923	9715.22
826.109	9569.82
826.295	9082.4
826.481	9479.71
826.667	9391.64
826.852	9360.92
827.038	9268.77
827.224	9887.25
827.409	9907.73
827.595	9051.68
827.781	9485.85
827.966	9690.65
828.152	9575.96
828.338	9106.98
828.523	8881.7
828.709	9328.16
828.894	9614.87
829.08	9162.27
829.266	9106.98
829.451	9098.78
829.637	9303.58
829.822	9225.76
830.008	8984.1
830.193	9584.15
830.378	9834
830.564	9170.46
830.749	8875.56
830.935	9469.47
831.12	9369.12
831.305	8932.9
831.491	8977.95
831.676	8932.9
831.861	9598.49
832.047	8965.67
832.232	8891.94
832.417	9377.31
832.602	9188.89
832.788	8939.04
832.973	8762.92
833.158	9051.68
833.343	9197.09
833.528	8877.6
833.714	8869.41
833.899	9289.24
834.084	9563.67
834.269	9176.61
834.454	9041.44
834.639	9479.71
834.824	9100.83
835.009	9033.25
835.194	8971.81
835.379	9180.7
835.564	9205.28
835.749	8873.51
835.934	8748.58
836.119	9180.7
836.304	8971.81
836.489	8816.16
836.674	8838.69
836.859	8726.05
837.044	9348.64
837.228	8850.98
837.413	8566.31
837.598	9119.26
837.783	9209.37
837.968	8840.74
838.152	8511.02
838.337	8504.87
838.522	9055.78
838.707	9190.94
838.891	8678.95
839.076	8775.2
839.261	9004.58
839.445	8513.06
839.63	8709.67
839.815	9201.18
839.999	8709.67
840.184	8551.98
840.368	8283.69
840.553	8910.37
840.737	8967.71
840.922	8441.39
841.106	8410.67
841.291	8316.46
841.475	8908.32
841.66	8291.88
841.844	8496.68
842.029	9563.67
842.213	8402.47
842.397	8480.3
842.582	8381.99
842.766	9188.89
842.951	8920.61
843.135	8599.08
843.319	8345.13
843.504	8797.73
843.688	8795.68
843.872	8246.83
844.056	8410.67
844.241	8570.41
844.425	8482.35
844.609	8496.68
844.793	8005.17
844.977	8640.04
845.161	8490.54
845.346	8009.26
845.53	8019.5
845.714	8379.95
845.898	8840.74
846.082	8013.36
846.266	8175.15
846.45	8529.45
846.634	8402.47
846.818	8189.49
847.002	8533.54
847.186	8533.54
847.37	8277.55
847.554	8183.34
847.738	8226.35
847.922	8549.93
848.106	8453.67
848.29	8091.18
848.473	8089.14
848.657	8511.02
848.841	8277.55
849.025	8085.04
849.209	7990.83
849.392	8345.13
849.576	8119.85
849.76	7730.74
849.944	8142.38
850.127	8515.11
850.311	7876.15
850.495	7896.63
850.678	7812.66
850.862	8594.98
851.046	8637.99
851.229	8162.86
851.413	7849.52
851.596	8300.08
851.78	8181.29
851.964	8119.85
852.147	7978.54
852.331	8836.64
852.514	8361.52
852.698	7790.13
852.881	7487.03
853.065	8162.86
853.248	7923.25
853.431	7841.33
853.615	7786.04
853.798	8549.93
853.982	8076.85
854.165	7886.39
854.348	7712.31
854.532	7671.35
854.715	7837.24
854.898	7882.29
855.081	7679.54
855.265	8320.56
855.448	8470.06
855.631	7482.94
855.814	7734.84
855.997	8162.86
856.181	7980.59
856.364	7763.51
856.547	7452.22
856.73	8056.37
856.913	7882.29
857.096	7538.23
857.279	7726.64
857.462	7648.82
857.645	8062.51
857.828	7788.08
858.011	7501.37
858.194	7706.17
858.377	8060.46
858.56	7415.35
858.743	7677.49
858.926	7507.51
859.109	7783.99
859.292	7527.99
859.475	7155.26
859.658	8052.27
859.841	7964.21
860.023	7300.67
860.206	7220.8
860.389	7796.28
860.572	7968.31
860.755	7362.11
860.937	7319.1
861.12	7460.41
861.303	7523.9
861.486	7396.92
861.668	7267.9
861.851	7579.19
862.034	7706.17
862.216	7239.23
862.399	7056.96
862.581	7575.1
862.764	7855.67
862.947	7284.28
863.129	6979.14
863.312	7142.97
863.494	7636.53
863.677	7216.7
863.859	7044.67
864.042	7665.21
864.224	7697.97
864.406	7382.59
864.589	6764.1
864.771	7370.3
864.954	7061.05
865.136	7022.14
865.318	6932.03
865.501	7396.92
865.683	6993.47
865.865	7089.73
866.048	7059.01
866.23	7276.09
866.412	7249.47
866.594	7022.14
866.777	7196.22
866.959	7476.79
867.141	7155.26
867.323	7179.84
867.505	7163.45
867.687	7233.08
867.869	7347.77
868.052	7075.39
868.234	6917.7
868.416	7251.52
868.598	7267.9
868.78	6970.94
868.962	6925.89
869.144	7493.18
869.326	7509.56
869.508	6817.35
869.69	6882.88
869.872	6803.01
870.054	7337.53
870.236	6731.33
870.417	6798.91
870.599	7110.21
870.781	7497.27
870.963	7153.21
871.145	6886.98
871.327	6942.27
871.508	7427.64
871.69	6915.65
871.872	6725.19
872.054	7013.95
872.235	7032.38
872.417	6776.39
872.599	6659.65
872.78	7360.06
872.962	7202.36
873.144	6719.04
873.325	6817.35
873.507	7407.16
873.689	7059.01
873.87	6692.42
874.052	6874.69
874.233	6934.08
874.415	7208.51
874.596	6735.43
874.778	6657.61
874.959	7196.22
875.141	7214.65
875.322	6817.35
875.503	6633.03
875.685	7116.35
875.866	6565.45
876.048	6696.52
876.229	6815.3
876.41	6950.46
876.592	7255.61
876.773	6610.5
876.954	6673.99
877.136	7280.19
877.317	6811.2
877.498	6633.03
877.679	6700.61
877.86	7079.49
878.042	7065.15
878.223	6686.28
878.404	7138.88
878.585	7163.45
878.766	7556.66
878.947	7196.22
879.128	6948.42
879.309	7247.42
879.49	7454.26
879.672	6989.38
879.853	7063.1
880.034	6829.63
880.215	6946.37
880.396	6813.25
880.576	6995.52
880.757	6917.7
880.938	7429.69
881.119	6946.37
881.3	6846.02
881.481	6899.27
881.662	7722.55
881.843	6872.64
882.023	6817.35
882.204	7233.08
882.385	7290.43
882.566	6929.98
882.747	6673.99
882.927	7206.46
883.108	7319.1
883.289	6934.08
883.469	7231.04
883.65	7048.77
883.831	7206.46
884.011	7104.06
884.192	7046.72
884.373	7390.78
884.553	7325.24
884.734	7265.85
884.914	7370.3
885.095	8050.22
885.275	7661.11
885.456	7380.54
885.636	6925.89
885.817	7433.79
885.997	7378.49
886.178	7095.87
886.358	7243.32
886.538	7468.6
886.719	8545.83
886.899	7099.97
887.08	7216.7
887.26	7605.81
887.44	7353.91
887.621	7120.45
887.801	7327.29
887.981	8021.55
888.161	7710.26
888.342	7259.71
888.522	7419.45
888.702	7822.9
888.882	7763.51
889.062	7423.55
889.242	7036.48
889.423	7837.24
889.603	7671.35
889.783	7360.06
889.963	7210.56
890.143	7665.21
890.323	7745.08
890.503	7196.22
890.683	7075.39
890.863	7464.5
891.043	7464.5
891.223	7349.82
891.403	7280.19
891.583	7554.62
891.763	7597.62
891.943	7255.61
892.122	7013.95
892.302	7632.44
892.482	7466.55
892.662	7452.22
892.842	7294.52
893.022	7476.79
893.201	7419.45
893.381	7345.72
893.561	7310.91
893.741	7806.52
893.92	7579.19
894.1	7296.57
894.28	7294.52
894.459	7546.42
894.639	7489.08
894.819	7331.39
894.998	7296.57
895.178	7587.38
895.357	7532.09
895.537	7065.15
895.716	7259.71
895.896	7224.89
896.075	7878.19
896.255	7085.63
896.434	6864.45
896.614	7630.39
896.793	7620.15
896.973	7134.78
897.152	7026.24
897.331	7521.85
897.511	7591.48
897.69	7140.93
897.87	7054.91
898.049	7253.56
898.228	7403.07
898.407	7253.56
898.587	7263.8
898.766	7081.53
898.945	7345.72
899.124	7056.96
899.304	7116.35
899.483	7358.01
899.662	7720.5
899.841	6944.32
900.02	6948.42
900.199	7317.05
900.378	7116.35
900.557	6721.09
900.737	6760
900.916	7099.97
901.095	7317.05
901.274	7192.12
901.453	6538.82
901.632	6803.01
901.811	6747.72
901.989	6692.42
902.168	6862.4
902.347	7050.82
902.526	6757.96
902.705	6635.08
902.884	6661.7
903.063	7198.27
903.242	7026.24
903.42	6508.1
903.599	6714.95
903.778	7038.53
903.957	7214.65
904.135	6706.76
904.314	6665.8
904.493	6882.88
904.672	6909.51
904.85	6618.69
905.029	6473.29
905.207	6778.44
905.386	7200.32
905.565	6266.44
905.743	6325.83
905.922	6293.07
906.1	6753.86
906.279	6153.8
906.457	6088.27
906.636	6479.43
906.814	6362.7
906.993	5953.1
907.171	6008.4
907.35	6465.1
907.528	6422.09
907.707	6223.44
907.885	5785.17
908.063	6561.35
908.242	6026.83
908.42	5914.19
908.598	5776.98
908.777	6358.6
908.955	6188.62
909.133	6092.37
909.311	5951.06
909.49	6168.14
909.668	6147.66
909.846	6088.27
910.024	5738.07
910.202	6278.73
910.38	6080.08
910.559	5828.18
910.737	5840.47
910.915	6233.68
911.093	6280.78
911.271	5973.58
911.449	6301.26
911.627	6344.27
911.805	6843.97
911.983	6096.46
912.161	6139.47
912.339	6495.82
912.517	6817.35
912.695	6264.4
912.872	6202.96
913.05	6311.5
913.228	6434.38
913.406	6268.49
913.584	6106.7
913.762	6495.82
913.939	6274.63
914.117	6145.61
914.295	6039.12
914.473	6467.14
914.65	6551.11
914.828	6049.36
915.006	6045.26
915.184	6051.41
915.361	6485.58
915.539	6145.61
915.716	6280.78
915.894	6448.71
916.072	6538.82
916.249	6393.42
916.427	6139.47
916.604	6059.6
916.782	6415.94
916.959	6014.54
917.137	5897.81
917.314	6477.38
917.492	6555.21
917.669	6200.91
917.847	5983.82
918.024	6321.74
918.201	6149.71
918.379	6059.6
918.556	5992.02
918.733	6510.15
918.911	6268.49
919.088	6270.54
919.265	5928.53
919.442	6276.68
919.62	6258.25
919.797	5969.49
919.974	5842.51
920.151	6393.42
920.328	6202.96
920.506	5920.34
920.683	6303.31
920.86	5836.37
921.037	5746.26
921.214	5906
921.391	5854.8
921.568	6166.09
921.745	5963.34
921.922	6022.73
922.099	5641.81
922.276	6288.97
922.453	6256.2
922.63	5891.66
922.807	6067.79
922.984	6094.41
923.161	5858.9
923.338	5676.63
923.514	5637.72
923.691	5848.66
923.868	5893.71
924.045	5529.17
924.222	5506.65
924.399	5817.94
924.575	6147.66
924.752	5779.03
924.929	5688.92
925.105	6035.02
925.282	5543.51
925.459	5406.3
925.635	5834.32
925.812	5813.84
925.989	5736.02
926.165	5629.52
926.342	5359.19
926.518	5461.59
926.695	5836.37
926.871	5394.01
927.048	5252.7
927.224	5690.96
927.401	5549.65
927.577	5402.2
927.754	5170.78
927.93	5848.66
928.107	5709.4
928.283	5256.79
928.459	5377.62
928.636	5766.74
928.812	5508.69
928.988	5144.16
929.165	5025.37
929.341	5402.2
929.517	5615.19
929.693	5539.41
929.87	5000.8
930.046	5383.77
930.222	5199.45
930.398	5000.8
930.574	5117.53
930.751	5275.23
930.927	5226.07
931.103	5158.49
931.279	5047.9
931.455	4931.17
931.631	5199.45
931.807	4853.34
931.983	4873.82
932.159	4646.5
932.335	5187.16
932.511	4820.58
932.687	4867.68
932.863	4982.37
933.039	4851.3
933.215	4687.46
933.391	4628.07
933.566	4818.53
933.742	4863.58
933.918	4601.44
934.094	4365.93
934.27	4693.6
934.445	4755.04
934.621	4669.03
934.797	4400.74
934.973	4892.26
935.148	4703.84
935.324	4261.48
935.5	4030.06
935.675	4834.91
935.851	4464.23
936.027	4132.46
936.202	4005.49
936.378	4398.7
936.553	4101.74
936.729	4304.49
936.904	3772.02
937.08	3851.89
937.255	3806.83
937.431	3745.39
937.606	3628.66
937.782	3729.01
937.957	3839.6
938.133	3610.23
938.308	3477.11
938.483	3643
938.659	3380.86
938.834	3468.92
939.009	3231.35
939.185	3487.35
939.36	3284.6
939.535	2961.02
939.71	3221.11
939.886	3493.49
940.061	3341.94
940.236	3233.4
940.411	2942.59
940.586	3331.7
940.761	3352.18
940.937	2979.45
941.112	2791.04
941.287	3049.08
941.462	3090.04
941.637	2844.29
941.812	2881.15
941.987	3210.87
942.162	3094.14
942.337	2989.69
942.512	2647.68
942.687	3264.12
942.862	3118.72
943.037	2614.91
943.212	2287.24
943.386	2864.77
943.561	2872.96
943.736	2850.43
943.911	2862.72
944.086	3044.99
944.26	2811.52
944.435	2709.12
944.61	2705.03
944.785	3114.62
944.959	3346.04
945.134	2727.55
945.309	2643.59
945.483	2649.73
945.658	3108.48
945.833	2416.26
946.007	2496.13
946.182	3407.48
946.357	2590.34
946.531	2592.39
946.706	2610.82
946.88	2514.56
947.055	2905.73
947.229	2594.44
947.404	2498.18
947.578	3262.07
947.752	2827.9
947.927	2539.14
948.101	2367.11
948.276	2942.59
948.45	2952.83
948.624	2770.56
948.799	2602.63
948.973	3067.52
949.147	2616.96
949.321	2725.51
949.496	2600.58
949.67	3188.35
949.844	2862.72
950.018	2784.9
950.193	2928.25
950.367	3479.16
950.541	2979.45
950.715	2977.41
950.889	2879.1
951.063	3126.91
951.237	3165.82
951.411	2573.96
951.585	2481.8
951.759	3190.39
951.933	2854.53
952.107	2743.94
952.281	3047.04
952.455	3423.86
952.629	3235.45
952.803	2778.75
952.977	2864.77
953.151	3378.81
953.325	3145.34
953.499	3073.66
953.672	2762.37
953.846	2952.83
954.02	3044.99
954.194	2958.97
954.368	2877.05
954.541	3337.85
954.715	2922.11
954.889	3116.67
955.062	2844.29
955.236	3137.15
955.41	3034.75
955.583	2958.97
955.757	2813.57
955.93	3139.19
956.104	2938.49
956.278	2922.11
956.451	3075.71
956.625	3204.73
956.798	3628.66
956.972	3249.79
957.145	3016.32
957.319	3151.48
957.492	3339.9
957.665	3163.77
957.839	2905.73
958.012	3313.27
958.185	3034.75
958.359	2942.59
958.532	3217.02
958.705	3300.98
958.879	3307.13
959.052	3149.43
959.225	2797.18
959.398	3278.46
959.572	3243.64
959.745	3040.89
959.918	3065.47
960.091	3237.5
960.264	3286.65
960.438	2776.7
960.611	2991.74
960.784	3364.47
960.957	3176.06
961.13	3380.86
961.303	3008.12
961.476	3188.35
961.649	3497.59
961.822	3032.7
961.995	3088
962.168	3325.56
962.341	3313.27
962.514	2995.84
962.686	2985.6
962.859	3360.38
963.032	3212.92
963.205	2870.91
963.378	2791.04
963.551	3475.06
963.723	3235.45
963.896	3135.1
964.069	3030.65
964.242	3122.81
964.414	3452.53
964.587	3065.47
964.76	2971.26
964.932	3247.74
965.105	3171.96
965.278	3012.22
965.45	2934.4
965.623	3380.86
965.795	3319.42
965.968	2885.25
966.14	2954.88
966.313	3210.87
966.485	3292.79
966.658	2846.34
966.83	2920.06
967.003	3528.31
967.175	3348.09
967.348	2969.21
967.52	2834.05
967.692	3511.93
967.865	3229.31
968.037	3051.13
968.209	3296.89
968.382	3147.39
968.554	3241.59
968.726	2995.84
968.898	2909.82
969.071	3210.87
969.243	3204.73
969.415	2905.73
969.587	2985.6
969.759	3550.84
969.932	3280.5
970.104	2909.82
970.276	2516.61
970.448	3038.84
970.62	2899.58
970.792	2950.78
970.964	2971.26
971.136	3516.02
971.308	2973.31
971.48	2758.27
971.652	2778.75
971.824	3493.49
971.996	2922.11
972.168	2958.97
972.339	2881.15
972.511	3450.49
972.683	2913.92
972.855	3061.37
973.027	2879.1
973.199	3190.39
973.37	3219.07
973.542	2969.21
973.714	2823.81
973.886	3001.98
974.057	3151.48
974.229	2684.55
974.401	2815.62
974.572	2926.21
974.744	2455.17
974.915	2541.19
975.087	2705.03
975.259	3315.32
975.43	2758.27
975.602	2676.35
975.773	2645.63
975.945	2817.66
976.116	2999.93
976.288	2608.77
976.459	2889.34
976.63	2772.61
976.802	3016.32
976.973	2559.62
977.145	2795.14
977.316	3468.92
977.487	3188.35
977.659	2633.35
977.83	2625.15
978.001	3206.78
978.172	2961.02
978.344	2555.52
978.515	2625.15
978.686	2725.51
978.857	3114.62
979.028	2625.15
979.2	2535.04
979.371	3032.7
979.542	2692.74
979.713	2819.71
979.884	2184.84
980.055	2621.06
980.226	2739.84
980.397	2393.73
980.568	2336.39
980.739	3116.67
980.91	2713.22
981.081	2672.26
981.252	2363.01
981.423	2813.57
981.594	3008.12
981.765	2451.08
981.936	2576
982.106	2756.22
982.277	2911.87
982.448	2469.51
982.619	2623.11
982.79	2399.88
982.96	2809.47
983.131	2506.37
983.302	2180.75
983.472	2551.43
983.643	2819.71
983.814	2463.37
983.984	2274.95
984.155	2565.76
984.326	2825.86
984.496	2436.74
984.667	2483.84
984.837	2489.99
985.008	2848.38
985.178	2557.57
985.349	2506.37
985.519	2422.41
985.69	2303.62
985.86	2307.72
986.031	2150.03
986.201	2625.15
986.371	2623.11
986.542	2152.07
986.712	1996.43
986.882	2569.86
987.053	2612.87
987.223	2213.51
987.393	2285.19
987.563	2186.89
987.734	2727.55
987.904	2504.32
988.074	2152.07
988.244	2297.48
988.414	2180.75
988.585	2150.03
988.755	2219.66
988.925	2399.88
989.095	2752.13
989.265	1932.94
989.435	2217.61
989.605	2496.13
989.775	2430.6
989.945	2373.25
990.115	1887.89
990.285	2225.8
990.455	2330.25
990.625	2084.49
990.795	2074.25
990.965	2545.28
991.134	2006.67
991.304	2039.44
991.474	2045.58
991.644	2158.22
991.814	2518.66
991.984	1810.06
992.153	1844.88
992.323	2219.66
992.493	2215.56
992.662	1711.76
992.832	2000.52
993.002	2205.32
993.171	2250.38
993.341	1832.59
993.511	2090.63
993.68	2098.83
993.85	2260.62
994.019	1619.6
994.189	1758.86
994.358	2160.27
994.528	1996.43
994.697	1607.31
994.867	1748.62
995.036	2283.14
995.206	2092.68
995.375	1836.69
995.544	1928.85
995.714	2203.27
995.883	1986.19
996.052	1894.03
996.222	1623.7
996.391	2442.89
996.56	2004.62
996.73	1685.14
996.899	1619.6
997.068	2330.25
997.237	2033.29
997.406	1681.04
997.576	1582.74
997.745	2082.44
997.914	2018.96
998.083	1443.48
998.252	1666.71
998.421	2000.52
998.59	1693.33
998.759	1509.01
998.928	1529.49
999.097	2240.14
999.266	2008.72
999.435	1820.3
999.604	1351.32
999.773	2315.91
999.942	1805.97
1000.111	1439.38
1000.28	1298.07
1000.448	1640.08
1000.617	1543.83
1000.786	1701.52
1000.955	1379.99
1001.124	1949.32
1001.292	2465.41
1001.461	1455.76
1001.63	1386.13
1001.798	2193.03
1001.967	2115.21
1002.136	1304.21
1002.304	1386.13
1002.473	1828.49
1002.642	1814.16
1002.81	1472.15
1002.979	1433.24
1003.147	1980.04
1003.316	2223.75
1003.484	1580.69
1003.653	1423
1003.821	2068.11
1003.99	1681.04
1004.158	1498.77
1004.327	1455.76
1004.495	1887.89
1004.663	1445.52
1004.832	1404.57
1005	1105.56
1005.168	1789.58
1005.337	1730.19
1005.505	1093.27
1005.673	1519.25
1005.842	1775.25
1006.01	1783.44
1006.178	1144.47
1006.346	1259.16
1006.514	1646.23
1006.683	1838.73
1006.851	1287.83
1007.019	1324.69
1007.187	1332.89
1007.355	1115.8
1007.523	1062.55
1007.691	1068.7
1007.859	1287.83
1008.027	1799.82
1008.195	1222.3
1008.363	1062.55
1008.531	1822.35
1008.699	1377.94
1008.867	986.78
1009.035	1087.13
1009.203	1818.25
1009.37	1490.58
1009.538	1326.74
1009.706	1584.79
1009.874	1459.86
1010.042	1312.41
1010.209	931.48
1010.377	999.07
1010.545	1642.13
1010.713	1468.05
1010.88	1040.03
1011.048	1248.92
1011.216	1296.02
1011.383	1693.33
1011.551	984.73
1011.718	960.16
1011.886	1527.44
1012.054	1363.61
1012.221	839.33
1012.389	992.92
1012.556	1230.49
1012.724	1783.44
1012.891	1156.76
1013.058	890.53
1013.226	1443.48
1013.393	1560.21
1013.561	878.24
1013.728	777.89
1013.895	1447.57
1014.063	1379.99
1014.23	824.99
1014.397	1087.13
1014.565	1496.72
1014.732	1267.35
1014.899	853.66
1015.066	880.29
1015.233	1312.41
1015.401	1355.41
1015.568	927.39
1015.735	1052.31
1015.902	1199.77
1016.069	1369.75
1016.236	894.62
1016.403	755.36
1016.57	902.81
1016.737	1504.92
1016.904	824.99
1017.071	738.98
1017.238	939.68
1017.405	1390.23
1017.572	775.84
1017.739	990.88
1017.906	1226.39
1018.073	1316.5
1018.24	734.88
1018.407	833.18
1018.573	1365.65
1018.74	1025.69
1018.907	796.32
1019.074	560.8
1019.241	1388.18
1019.407	1119.9
1019.574	728.74
1019.741	620.19
1019.907	1203.86
1020.074	1197.72
1020.241	489.12
1020.407	702.11
1020.574	1156.76
1020.74	1216.15
1020.907	704.16
1021.073	568.99
1021.24	1615.51
1021.406	1365.65
1021.573	614.05
1021.739	704.16
1021.906	1293.97
1022.072	976.54
1022.239	755.36
1022.405	597.67
1022.571	1101.47
1022.738	763.55
1022.904	554.66
1023.07	708.26
1023.237	1136.28
1023.403	1216.15
1023.569	648.86
1023.735	728.74
1023.902	1068.7
1024.068	949.92
1024.234	507.55
1024.4	513.7
1024.566	1011.36
1024.732	1103.51
1024.898	589.47
1025.065	427.68
1025.231	1167
1025.397	829.09
1025.563	564.9
1025.729	411.3
1025.895	480.93
1026.061	689.82
1026.227	415.4
1026.392	587.43
1026.558	1169.05
1026.724	915.1
1026.89	495.27
1027.056	601.76
1027.222	1001.12
1027.388	808.61
1027.553	456.36
1027.719	485.03
1027.885	1199.77
1028.051	1023.64
1028.216	229.03
1028.382	595.62
1028.548	1011.36
1028.713	792.22
1028.879	364.2
1029.045	642.72
1029.21	1119.9
1029.376	1103.51
1029.541	609.95
1029.707	448.16
1029.873	980.64
1030.038	1068.7
1030.204	458.4
1030.369	550.56
1030.534	945.82
1030.7	804.51
1030.865	413.35
1031.031	368.29
1031.196	898.72
1031.361	839.33
1031.527	333.48
1031.692	429.73
1031.857	382.63
1032.023	929.44
1032.188	407.2
1032.353	476.84
1032.518	1193.62
1032.684	802.46
1032.849	321.19
1033.014	568.99
1033.179	902.81
1033.344	806.56
1033.509	501.41
1033.674	452.26
1033.839	968.35
1034.004	921.24
1034.17	405.16
1034.335	306.85
1034.5	669.34
1034.664	630.43
1034.829	405.16
1034.994	374.44
1035.159	728.74
1035.324	849.57
1035.489	409.25
1035.654	370.34
1035.819	1130.14
1035.984	771.74
1036.148	489.12
1036.313	390.82
1036.478	1070.75
1036.643	818.85
1036.807	349.86
1036.972	167.59
1037.137	1019.55
1037.301	763.55
1037.466	190.12
1037.631	429.73
1037.795	935.58
1037.96	781.98
1038.124	450.21
1038.289	198.31
1038.454	880.29
1038.618	845.47
1038.783	335.53
1038.947	413.35
1039.111	708.26
1039.276	591.52
1039.44	276.13
1039.605	781.98
1039.769	585.38
1039.933	583.33
1040.098	358.05
1040.262	562.85
1040.426	870.05
1040.591	851.61
1040.755	259.75
1040.919	315.05
1041.083	734.88
1041.248	679.58
1041.412	110.25
1041.576	159.4
1041.74	632.48
1041.904	868
1042.068	198.31
1042.232	341.67
1042.397	843.42
1042.561	724.64
1042.725	77.48
1042.889	399.01
1043.053	808.61
1043.217	804.51
1043.381	462.5
1043.544	140.97
1043.708	857.76
1043.872	253.61
1044.036	-12.63
1044.2	67.24
1044.364	835.23
1044.528	951.96
1044.691	5146.2
1044.855	116.39
1045.019	878.24
1045.183	816.8
1045.346	360.1
1045.51	198.31
1045.674	714.4
1045.837	675.49
1046.001	286.37
1046.165	136.87
1046.328	1205.91
1046.492	763.55
1046.655	429.73
1046.819	296.61
1046.983	472.74
1047.146	636.58
1047.31	247.46
1047.473	30.38
1047.636	583.33
1047.8	388.77
1047.963	255.65
1048.127	102.06
1048.29	370.34
