Data from Hydrogel_Ink_Intensity_Test_1_USB4F045381__26__00026.txt Node

Date: Mon Jul 31 10:40:29 EDT 2023
User: mmckonesweet
Spectrometer: USB4F04538
Trigger mode: 4
Integration Time (sec): 9.000000E-1
Scans to average: 1
Electric dark correction enabled: true
Nonlinearity correction enabled: false
Boxcar width: 0
XAxis mode: Wavelengths
Number of Pixels in Spectrum: 3648
>>>>>Begin Spectral Data<<<<<
345.52	-1012.38
345.736	-1012.38
345.952	-1012.38
346.168	-1034.91
346.384	-1028.76
346.6	-123.56
346.816	-256.68
347.032	-203.43
347.248	230.74
347.464	-191.14
347.68	-98.99
347.896	154.96
348.112	408.91
348.328	-119.46
348.544	-119.46
348.76	83.28
348.975	234.83
349.191	-236.2
349.407	-148.14
349.623	-8.87
349.839	-49.83
350.055	-33.45
350.27	95.57
350.486	216.4
350.702	367.95
350.918	304.46
351.133	-160.42
351.349	234.83
351.565	421.2
351.781	-144.04
351.996	118.1
352.212	365.9
352.428	-109.23
352.644	-148.14
352.859	-170.66
353.075	331.09
353.291	-55.98
353.506	-45.74
353.722	-213.67
353.938	15.7
354.153	544.08
354.369	130.39
354.584	-148.14
354.8	187.73
355.016	-260.77
355.231	-195.24
355.447	-8.87
355.662	165.2
355.878	859.46
356.093	-242.34
356.309	36.18
356.524	-203.43
356.74	236.88
356.955	-78.51
357.171	7.51
357.386	171.35
357.602	-213.67
357.817	48.47
358.033	-53.93
358.248	466.25
358.464	238.93
358.679	-125.61
358.895	-242.34
359.11	21.84
359.325	310.61
359.541	240.98
359.756	68.95
359.972	-311.97
360.187	132.44
360.402	-64.17
360.618	-119.46
360.833	949.57
361.048	208.21
361.264	-115.37
361.479	91.48
361.694	87.38
361.909	150.87
362.125	-197.29
362.34	-103.08
362.555	324.94
362.77	132.44
362.986	-195.24
363.201	-47.79
363.416	171.35
363.631	62.8
363.847	-98.99
364.062	-53.93
364.277	236.88
364.492	154.96
364.707	-84.65
364.922	-332.45
365.138	255.31
365.353	394.58
365.568	-86.7
365.783	-12.97
365.998	105.81
366.213	630.09
366.428	-113.32
366.643	132.44
366.858	357.71
367.073	286.03
367.288	-103.08
367.503	-172.71
367.718	144.72
367.933	306.51
368.148	-221.86
368.363	1.37
368.578	95.57
368.793	519.5
369.008	-60.07
369.223	-148.14
369.438	255.31
369.653	468.3
369.868	-131.75
370.083	-158.38
370.298	169.3
370.513	476.49
370.728	118.1
370.943	-55.98
371.157	-137.9
371.372	523.6
371.587	-80.55
371.802	-172.71
372.017	165.2
372.232	488.78
372.446	99.67
372.661	-193.19
372.876	271.7
373.091	298.32
373.306	-23.21
373.52	-105.13
373.735	-33.45
373.95	476.49
374.165	44.37
374.379	11.61
374.594	-12.97
374.809	173.39
375.023	218.45
375.238	-125.61
375.453	265.55
375.667	-111.27
375.882	-33.45
376.097	-76.46
376.311	146.77
376.526	71
376.741	-78.51
376.955	273.75
377.17	775.5
377.384	666.96
377.599	36.18
377.813	-152.23
378.028	677.19
378.242	238.93
378.457	52.56
378.672	-191.14
378.886	308.56
379.101	44.37
379.315	-144.04
379.53	-35.5
379.744	271.7
379.958	232.79
380.173	64.85
380.387	-6.83
380.602	312.66
380.816	34.13
381.031	42.32
381.245	19.8
381.459	390.48
381.674	2721.07
381.888	-31.4
382.103	306.51
382.317	-49.83
382.531	589.13
382.746	140.63
382.96	66.9
383.174	52.56
383.388	501.07
383.603	308.56
383.817	-103.08
384.031	300.37
384.246	582.99
384.46	249.17
384.674	476.49
384.888	175.44
385.103	202.07
385.317	-8.87
385.531	171.35
385.745	580.94
385.959	474.45
386.174	-23.21
386.388	-74.41
386.602	128.34
386.816	99.67
387.03	109.91
387.244	222.55
387.458	341.33
387.672	562.51
387.887	36.18
388.101	-86.7
388.315	556.36
388.529	290.13
388.743	154.96
388.957	-47.79
389.171	582.99
389.385	60.76
389.599	177.49
389.813	310.61
390.027	359.76
390.241	818.5
390.455	109.91
390.669	167.25
390.883	171.35
391.097	664.91
391.311	298.32
391.525	142.68
391.738	486.73
391.952	406.86
392.166	234.83
392.38	95.57
392.594	595.28
392.808	585.04
393.022	214.35
393.236	234.83
393.449	474.45
393.663	380.24
393.877	56.66
394.091	228.69
394.305	224.59
394.518	249.17
394.732	52.56
394.946	191.83
395.16	619.85
395.373	372.05
395.587	167.25
395.801	150.87
396.015	687.43
396.228	550.22
396.442	19.8
396.656	-10.92
396.869	580.94
397.083	740.68
397.297	259.41
397.51	107.86
397.724	656.72
397.938	474.45
398.151	-8.87
398.365	126.29
398.578	652.62
398.792	613.71
399.005	318.8
399.219	218.45
399.433	531.79
399.646	564.56
399.86	474.45
400.073	413.01
400.287	519.5
400.5	431.44
400.714	433.49
400.927	429.39
401.141	615.76
401.354	1422.66
401.567	669
401.781	173.39
401.994	808.26
402.208	1023.3
402.421	318.8
402.635	240.98
402.848	449.87
403.061	718.15
403.275	439.63
403.488	255.31
403.701	920.9
403.915	689.48
404.128	427.34
404.341	372.05
404.555	554.32
404.768	400.72
404.981	527.69
405.195	298.32
405.408	974.15
405.621	681.29
405.834	523.6
406.048	290.13
406.261	863.56
406.474	1008.97
406.687	269.65
406.9	441.68
407.114	576.84
407.327	658.76
407.54	243.03
407.753	308.56
407.966	308.56
408.179	828.74
408.392	277.84
408.605	228.69
408.819	732.49
409.032	759.11
409.245	402.77
409.458	511.31
409.671	847.18
409.884	898.38
410.097	259.41
410.31	609.61
410.523	714.06
410.736	585.04
410.949	535.89
411.162	490.83
411.375	1019.21
411.588	853.32
411.801	644.43
412.014	361.81
412.227	611.66
412.44	535.89
412.653	501.07
412.865	755.02
413.078	955.72
413.291	812.36
413.504	576.84
413.717	527.69
413.93	902.47
414.143	529.74
414.356	548.17
414.568	404.82
414.781	955.72
414.994	822.6
415.207	505.17
415.42	644.43
415.632	918.86
415.845	1224
416.058	492.88
416.271	486.73
416.483	734.54
416.696	1219.91
416.909	568.65
417.121	619.85
417.334	961.86
417.547	1236.29
417.759	603.47
417.972	562.51
418.185	630.09
418.397	896.33
418.61	550.22
418.823	589.13
419.035	1160.52
419.248	843.08
419.46	740.68
419.673	761.16
419.885	978.25
420.098	834.89
420.311	683.34
420.523	466.25
420.736	1072.45
420.948	949.57
421.161	705.87
421.373	599.37
421.586	968.01
421.798	771.4
422.01	472.4
422.223	789.83
422.435	724.3
422.648	1170.76
422.86	730.44
423.073	646.48
423.285	1156.42
423.497	609.61
423.71	701.77
423.922	712.01
424.134	1152.32
424.347	1332.54
424.559	990.53
424.771	1021.25
424.984	908.62
425.196	1121.6
425.408	656.72
425.621	769.35
425.833	1342.78
426.045	1314.11
426.257	660.81
426.47	855.37
426.682	1088.84
426.894	1187.14
427.106	775.5
427.318	908.62
427.531	941.38
427.743	1307.97
427.955	939.33
428.167	1289.54
428.379	1287.49
428.591	1117.51
428.804	996.68
429.016	884.04
429.228	1058.12
429.44	1330.5
429.652	1148.23
429.864	816.46
430.076	1183.04
430.288	1181
430.5	1008.97
430.712	1146.18
430.924	1420.61
431.136	1307.97
431.348	888.14
431.56	996.68
431.772	1277.25
431.984	1150.28
432.196	1072.45
432.408	1158.47
432.62	1189.19
432.832	1379.65
433.044	1385.79
433.256	1316.16
433.468	1346.88
433.679	1019.21
433.891	968.01
434.103	1387.84
434.315	1764.67
434.527	1549.63
434.739	1330.5
434.95	1453.38
435.162	1627.45
435.374	1283.39
435.586	1221.95
435.798	1252.67
436.009	1191.24
436.221	1287.49
436.433	1316.16
436.645	1238.34
436.856	1346.88
437.068	1793.34
437.28	1346.88
437.491	1551.68
437.703	1733.95
437.915	1592.64
438.126	1439.04
438.338	1600.83
438.55	1561.92
438.761	1684.8
438.973	1393.98
439.184	1465.66
439.396	1594.68
439.608	1764.67
439.819	1254.72
440.031	1389.89
440.242	1858.87
440.454	1793.34
440.665	1492.29
440.877	1701.18
441.088	1756.47
441.3	1561.92
441.511	1312.07
441.723	1480
441.934	1703.23
442.146	1774.91
442.357	1707.32
442.569	1764.67
442.78	1676.6
442.991	2063.67
443.203	1832.25
443.414	1529.15
443.626	2073.91
443.837	1568.06
444.048	1441.09
444.26	1344.83
444.471	1793.34
444.682	2026.81
444.894	1322.31
445.105	1443.14
445.316	1989.94
445.528	1963.32
445.739	1717.56
445.95	1799.48
446.161	1948.98
446.373	2143.54
446.584	1875.26
446.795	1643.84
447.006	2157.88
447.217	2422.06
447.429	1553.73
447.64	1660.22
447.851	2141.49
448.062	2075.96
448.273	1678.65
448.484	1848.63
448.695	2006.33
448.907	1957.18
449.118	1766.71
449.329	2084.15
449.54	1961.27
449.751	1830.2
449.962	1830.2
450.173	1768.76
450.384	2288.95
450.595	2374.96
450.806	1862.97
451.017	1969.46
451.228	2409.78
451.439	2354.48
451.65	1985.85
451.861	1727.8
452.072	2084.15
452.283	2092.34
452.494	2131.25
452.705	1959.22
452.915	2571.57
453.126	2262.32
453.337	2035
453.548	1875.26
453.759	2577.71
453.97	2856.23
454.181	2313.52
454.391	2198.84
454.602	2317.62
454.813	2518.32
455.024	2293.04
455.235	2194.74
455.445	2340.15
455.656	2610.48
455.867	2247.99
456.078	2309.43
456.288	2364.72
456.499	2610.48
456.71	2139.44
456.921	2471.22
457.131	2651.44
457.342	2534.7
457.553	2413.87
457.763	2321.71
457.974	2854.19
458.184	2735.4
458.395	2530.61
458.606	2356.53
458.816	3056.93
459.027	3165.48
459.237	2653.48
459.448	2477.36
459.659	2932.01
459.869	3280.16
460.08	2358.58
460.29	2899.24
460.501	3333.41
460.711	2932.01
460.922	2536.75
461.132	2772.27
461.343	3599.65
461.553	2780.46
461.764	2633.01
461.974	2770.22
462.184	3267.88
462.395	3108.13
462.605	2927.91
462.816	2829.61
463.026	3208.48
463.236	3427.62
463.447	2948.39
463.657	2934.06
463.867	3452.19
464.078	3312.93
464.288	3210.53
464.498	3263.78
464.709	3421.47
464.919	3314.98
465.129	3327.27
465.339	3233.06
465.55	3501.34
465.76	3671.33
465.97	3310.88
466.18	3317.03
466.391	3872.03
466.601	3708.19
466.811	3458.34
467.021	3450.14
467.231	3892.51
467.441	4025.62
467.651	3749.15
467.862	3446.05
468.072	4011.29
468.282	4386.07
468.492	3751.2
468.702	3855.64
468.912	4119.83
469.122	4605.2
469.332	4173.08
469.542	3882.27
469.752	4373.78
469.962	4336.92
470.172	4162.84
470.382	4074.78
470.592	4531.47
470.802	4883.72
471.012	4459.79
471.222	4551.95
471.432	4893.96
471.642	4926.73
471.852	4689.17
472.062	4451.6
472.272	4812.04
472.482	4521.23
472.691	4576.53
472.901	4545.81
473.111	5139.72
473.321	5823.74
473.531	4656.4
473.741	5092.62
473.95	5342.47
474.16	5426.43
474.37	5115.14
474.58	5147.91
474.79	5981.43
474.999	5473.54
475.209	5012.74
475.419	5375.24
475.628	5733.63
475.838	5862.65
476.048	5477.63
476.258	5463.3
476.467	6323.44
476.677	6028.54
476.886	6006.01
477.096	5883.13
477.306	6073.59
477.515	6434.04
477.725	5944.57
477.935	6112.5
478.144	6679.79
478.354	6264.05
478.563	6360.31
478.773	6327.54
478.982	6831.34
479.192	7042.28
479.401	6491.38
479.611	6542.58
479.82	6558.96
480.03	7068.91
480.239	6669.55
480.449	6604.02
480.658	7431.4
480.868	7105.77
481.077	7095.53
481.287	6894.83
481.496	7496.93
481.705	7738.59
481.915	7484.64
482.124	7554.27
482.333	7734.5
482.543	7847.13
482.752	7640.29
482.961	7621.86
483.171	8002.78
483.38	7879.9
483.589	7855.33
483.799	7857.37
484.008	8166.62
484.217	8490.2
484.426	8119.51
484.636	8031.45
484.845	8393.94
485.054	8219.86
485.263	8600.79
485.472	8193.24
485.682	8979.66
485.891	8641.75
486.1	8293.59
486.309	8649.94
486.518	8961.23
486.727	9213.13
486.936	8631.51
487.146	8629.46
487.355	9477.32
487.564	8967.37
487.773	9008.33
487.982	8875.21
488.191	9317.58
488.4	9411.78
488.609	9288.9
488.818	9430.21
489.027	10116.28
489.236	10118.33
489.445	9637.06
489.654	9530.56
489.863	10286.26
490.072	9997.5
490.281	9925.82
490.49	9907.39
490.698	10446.01
490.907	10560.69
491.116	10036.41
491.325	10083.52
491.534	10704.05
491.743	10376.38
491.952	10519.73
492.16	10335.42
492.369	10562.74
492.578	10822.83
492.787	10437.81
492.996	10409.14
493.204	10658.99
493.413	11289.77
493.622	10560.69
493.831	10515.64
494.039	11435.17
494.248	10679.47
494.457	11005.1
494.665	10835.12
494.874	11273.39
495.083	11664.55
495.291	11336.87
495.5	11244.71
495.709	11562.15
495.917	11525.29
496.126	11500.71
496.335	11484.33
496.543	11748.51
496.752	11656.36
496.96	11719.84
497.169	11582.63
497.377	11740.32
497.586	12012.7
497.794	11953.31
498.003	11541.67
498.211	11973.79
498.42	12522.65
498.628	12090.52
498.837	11885.73
499.045	12397.72
499.254	12582.04
499.462	11955.36
499.671	12194.97
499.879	12752.02
500.087	12989.58
500.296	12115.1
500.504	12438.68
500.713	12860.56
500.921	13307.02
501.129	12328.09
501.338	12549.27
501.546	13094.03
501.754	12909.71
501.962	12803.22
502.171	12672.15
502.379	13323.4
502.587	13438.09
502.795	13026.45
503.004	12893.33
503.212	13399.18
503.42	13636.74
503.628	13151.37
503.837	13442.18
504.045	13833.35
504.253	14111.87
504.461	13151.37
504.669	13210.76
504.877	13745.28
505.085	14173.31
505.294	13628.55
505.502	13743.24
505.71	13743.24
505.918	14087.29
506.126	13532.29
506.334	13427.85
506.542	14066.81
506.75	13851.78
506.958	13945.98
507.166	13927.55
507.374	14040.19
507.582	14654.58
507.79	14308.48
507.998	13958.27
508.206	14484.6
508.414	14494.84
508.622	14161.02
508.83	14195.84
509.037	14922.87
509.245	14597.24
509.453	14179.45
509.661	14296.19
509.869	14630.01
510.077	14533.75
510.285	14658.68
510.492	14197.88
510.7	15393.9
510.908	14656.63
511.116	14453.88
511.324	14550.14
511.531	14972.02
511.739	15277.16
511.947	14922.87
512.155	14976.11
512.362	15146.09
512.57	14875.76
512.778	15209.58
512.985	14947.44
513.193	15520.87
513.401	15615.08
513.608	15158.38
513.816	15006.83
514.024	15488.1
514.231	15676.52
514.439	15060.08
514.646	15348.84
514.854	15936.61
515.061	15924.32
515.269	15293.55
515.477	15664.23
515.684	15432.81
515.892	16092.26
516.099	15324.27
516.307	15651.94
516.514	16069.73
516.722	16329.82
516.929	15805.54
517.136	15649.89
517.344	16135.26
517.551	16188.51
517.759	15862.88
517.966	15862.88
518.173	16227.42
518.381	16512.09
518.588	16182.37
518.796	16053.34
519.003	16602.2
519.21	16321.63
519.418	16174.17
519.625	16487.51
519.832	16489.56
520.039	16559.19
520.247	16190.56
520.454	16413.79
520.661	17097.81
520.868	16845.91
521.076	16557.14
521.283	16622.68
521.49	17460.3
521.697	17220.69
521.904	16755.8
522.112	16587.86
522.319	17253.45
522.526	17192.01
522.733	16817.24
522.94	16936.02
523.147	17167.44
523.354	17445.96
523.561	17116.24
523.768	17437.77
523.975	17751.11
524.183	17644.62
524.39	17603.66
524.597	17228.88
524.804	17335.37
525.011	17540.17
525.218	17339.47
525.425	17484.87
525.632	18099.27
525.838	17990.72
526.045	17306.7
526.252	17529.93
526.459	19192.88
526.666	18779.19
526.873	17947.72
527.08	17878.08
527.287	18416.7
527.494	18107.46
527.701	17734.73
527.907	17720.39
528.114	18416.7
528.321	18046.02
528.528	18242.62
528.735	17992.77
528.941	18224.19
529.148	18136.13
529.355	18363.45
529.562	18168.9
529.768	18922.55
529.975	18193.47
530.182	18562.11
530.388	18451.52
530.595	19131.44
530.802	18326.59
531.008	19385.39
531.215	18576.44
531.422	19645.48
531.628	19876.9
531.835	18840.63
532.042	19016.76
532.248	19414.06
532.455	18918.45
532.661	19192.88
532.868	18885.69
533.074	19463.21
533.281	19516.46
533.487	19041.33
533.694	19317.81
533.9	19684.39
534.107	19813.41
534.313	19123.25
534.52	19170.35
534.726	20081.7
534.933	20116.51
535.139	19559.47
535.345	19663.91
535.552	20106.27
535.758	20261.92
535.965	19809.32
536.171	19881
536.377	20216.86
536.584	20671.51
536.79	19893.29
536.996	20210.72
537.203	20118.56
537.409	20501.53
537.615	20089.89
537.821	20184.1
538.028	20767.77
538.234	20454.43
538.44	20327.46
538.646	20147.23
538.853	21025.81
539.059	20440.09
539.265	20671.51
539.471	20290.59
539.677	20571.16
539.883	20874.26
540.09	20450.33
540.296	21183.51
540.502	21318.67
540.708	20614.17
540.914	21146.64
541.12	20900.89
541.326	21791.75
541.532	21091.35
541.738	21251.09
541.944	21234.71
542.15	21847.05
542.356	21249.04
542.562	21369.87
542.768	21138.45
542.974	22098.95
543.18	22176.77
543.386	21392.4
543.592	21322.77
543.798	22119.43
544.004	21836.81
544.21	21816.33
544.415	21437.45
544.621	22035.46
544.827	22211.59
545.033	21705.74
545.239	22137.86
545.445	22121.48
545.651	22414.34
545.856	21896.2
546.062	22154.24
546.268	22352.9
546.474	22012.93
546.679	21926.92
546.885	22123.52
547.091	22270.98
547.297	22766.59
547.502	22115.33
547.708	21820.42
547.914	22041.6
548.119	22477.82
548.325	22148.1
548.531	21781.51
548.736	22862.84
548.942	22215.68
549.147	22109.19
549.353	22696.95
549.559	22965.24
549.764	22721.53
549.97	22070.28
550.175	22672.38
550.381	22930.42
550.586	22592.51
550.792	22690.81
550.997	22715.39
551.203	23239.67
551.408	23206.9
551.614	22672.38
551.819	22981.62
552.025	23327.73
552.23	23903.21
552.435	23069.69
552.641	23630.83
552.846	23301.11
553.052	23925.74
553.257	23405.55
553.462	23553.01
553.668	23100.4
553.873	23845.87
554.078	23372.78
554.283	23477.23
554.489	23874.54
554.694	23854.06
554.899	23452.66
555.105	23921.64
555.31	23987.18
555.515	24259.56
555.72	24058.85
555.925	23704.56
556.131	24194.02
556.336	24058.85
556.541	24042.47
556.746	23921.64
556.951	24660.96
557.156	24536.03
557.361	24325.09
557.567	24769.5
557.772	24906.71
557.977	24771.55
558.182	24157.16
558.387	24439.78
558.592	24019.94
558.797	25021.4
559.002	24478.69
559.207	24630.24
559.412	24759.26
559.617	25222.1
559.822	24478.69
560.027	24259.56
560.232	24742.88
560.437	25140.18
560.642	24196.07
560.847	24708.06
561.051	24900.57
561.256	24765.4
561.461	24638.43
561.666	24656.86
561.871	25156.57
562.076	24869.85
562.281	24888.28
562.485	24916.95
562.69	25246.68
562.895	25408.47
563.1	24841.18
563.305	24853.47
563.509	25562.06
563.714	25758.67
563.919	24871.9
564.123	25117.65
564.328	25123.8
564.533	25781.2
564.737	25000.92
564.942	25218
565.147	26010.57
565.351	25918.41
565.556	25168.85
565.761	25224.15
565.965	25691.09
566.17	25398.23
566.374	25299.92
566.579	25416.66
566.784	25412.56
566.988	25715.66
567.193	25744.33
567.397	25492.43
567.602	25517.01
567.806	25643.98
568.011	25449.42
568.215	25949.13
568.42	25914.31
568.624	25856.97
568.828	25650.13
569.033	25703.37
569.237	26139.59
569.442	26414.02
569.646	25402.32
569.85	25785.29
570.055	26461.12
570.259	26217.41
570.463	26014.66
570.668	26215.37
570.872	26203.08
571.076	26174.41
571.281	26041.29
571.485	26237.89
571.689	26422.21
571.893	26543.04
572.098	26606.53
572.302	26364.87
572.506	26479.55
572.71	26686.4
572.914	26317.76
573.119	26317.76
573.323	26592.19
573.527	27095.99
573.731	26538.94
573.935	26739.65
574.139	27012.03
574.343	26446.79
574.547	26586.05
574.751	26844.09
574.955	27478.96
575.159	27603.89
575.364	26770.36
575.568	26454.98
575.772	27227.06
575.976	27466.67
576.18	26837.95
576.383	27093.94
576.587	27132.86
576.791	27640.75
576.995	26844.09
577.199	26856.38
577.403	27595.7
577.607	27814.83
577.811	27308.98
578.015	27014.07
578.219	27395
578.422	27550.64
578.626	27450.29
578.83	27319.22
579.034	27452.34
579.238	27767.73
579.442	27397.04
579.645	27990.95
579.849	27546.54
580.053	27720.62
580.257	27472.82
580.46	28212.13
580.664	28285.86
580.868	28025.77
581.071	28107.69
581.275	28044.2
581.479	27710.38
581.682	28275.62
581.886	27870.12
582.09	28249
582.293	28304.29
582.497	28412.84
582.7	28433.32
582.904	28076.97
583.107	28394.4
583.311	28244.9
583.515	28371.88
583.718	28146.6
583.922	28994.46
584.125	29014.94
584.329	28294.05
584.532	28263.33
584.735	28941.21
584.939	28871.58
585.142	27894.7
585.346	28617.63
585.549	28824.48
585.753	28742.56
585.956	29002.65
586.159	28867.48
586.363	29608.85
586.566	29248.41
586.769	28359.59
586.973	28898.2
587.176	29174.68
587.379	29551.51
587.582	29516.69
587.786	28996.51
587.989	29246.36
588.192	29842.32
588.395	29338.52
588.599	29365.14
588.802	29686.67
589.005	29608.85
589.208	29389.72
589.411	29387.67
589.615	29723.54
589.818	30235.53
590.021	29727.63
590.224	29770.64
590.427	29889.42
590.63	29873.04
590.833	29315.99
591.036	29490.07
591.239	29848.46
591.442	29559.7
591.645	29780.88
591.848	29942.67
592.051	30380.93
592.254	30290.82
592.457	29963.15
592.66	29940.62
592.863	30208.9
593.066	30161.8
593.269	30184.33
593.472	30323.59
593.675	30049.16
593.878	30319.49
594.081	30272.39
594.284	30036.87
594.486	30825.34
594.689	30612.35
594.892	30276.49
595.095	30438.28
595.298	30538.63
595.5	30485.38
595.703	30964.6
595.906	30794.62
596.109	31312.76
596.311	31214.46
596.514	30315.4
596.717	30960.51
596.92	31300.47
597.122	30671.75
597.325	30276.49
597.528	30581.63
597.73	31740.78
597.933	31153.02
598.136	31087.48
598.338	30747.52
598.541	31402.87
598.743	31816.56
598.946	30937.98
599.148	31515.51
599.351	31640.43
599.554	31384.44
599.756	31310.71
599.959	31591.28
600.161	31607.67
600.363	32156.52
600.566	31828.85
600.768	31261.56
600.971	31933.29
601.173	31775.6
601.376	31542.13
601.578	31290.23
601.78	31972.21
601.983	32123.76
602.185	31363.96
602.388	31691.63
602.59	31777.65
602.792	31734.64
602.995	31886.19
603.197	31644.53
603.399	32172.91
603.601	31996.78
603.804	31640.43
604.006	31935.34
604.208	31710.07
604.41	31531.89
604.613	32170.86
604.815	31871.85
605.017	32582.5
605.219	31796.08
605.421	31933.29
605.623	31828.85
605.826	32971.61
606.028	32594.79
606.23	31972.21
606.432	31759.22
606.634	33131.36
606.836	32713.57
607.038	31675.25
607.24	32199.53
607.442	32365.42
607.644	32181.1
607.846	32361.32
608.048	32377.7
608.25	32377.7
608.452	32619.36
608.654	32193.39
608.856	31861.62
609.058	32545.64
609.26	32482.15
609.462	32174.95
609.664	32369.51
609.866	32836.45
610.067	32904.03
610.269	32584.55
610.471	32441.19
610.673	32359.27
610.875	33100.64
611.077	32152.43
611.278	32453.48
611.48	32467.81
611.682	33219.42
611.884	32734.05
612.085	32242.54
612.287	32680.8
612.489	32537.44
612.69	32242.54
612.892	32553.83
613.094	33377.11
613.295	32480.1
613.497	32174.95
613.699	32951.13
613.9	32916.32
614.102	33051.48
614.304	32340.84
614.505	32043.88
614.707	32473.96
614.908	32273.26
615.11	32332.65
615.311	32713.57
615.513	33012.57
615.714	33192.79
615.916	32492.39
616.117	32494.44
616.319	32930.65
616.52	32930.65
616.722	32680.8
616.923	32988
617.124	33299.29
617.326	32836.45
617.527	32676.71
617.729	32965.47
617.93	33393.5
618.131	33010.53
618.333	32484.2
618.534	32713.57
618.735	33172.32
618.937	33514.33
619.138	32629.6
619.339	32516.97
619.54	32836.45
619.742	33018.72
619.943	33139.55
620.144	33033.05
620.345	33203.03
620.546	33049.44
620.748	32807.78
620.949	32879.46
621.15	32951.13
621.351	32846.69
621.552	32856.93
621.753	32887.65
621.954	32793.44
622.155	32899.94
622.356	32715.62
622.558	33076.06
622.759	33178.46
622.96	33444.69
623.161	33031.01
623.362	32729.95
623.563	33465.17
623.764	32994.14
623.965	33436.5
624.166	33491.8
624.366	33315.67
624.567	33237.85
624.768	33293.15
624.969	32953.18
625.17	33215.32
625.371	33473.37
625.572	33031.01
625.773	32711.52
625.973	33383.26
626.174	33198.94
626.375	33471.32
626.576	33108.83
626.777	33803.09
626.977	33543
627.178	33200.99
627.379	33307.48
627.58	33508.18
627.78	33463.13
627.981	33074.01
628.182	33555.29
628.382	33772.37
628.583	33139.55
628.784	33098.59
628.984	33262.43
629.185	33792.85
629.386	33491.8
629.586	33629.01
629.787	33225.56
629.987	33983.31
630.188	33598.29
630.388	33387.35
630.589	33282.91
630.79	33921.87
630.99	33923.92
631.191	33567.57
631.391	33755.99
631.591	34198.35
631.792	34247.5
631.992	33760.08
632.193	33846.1
632.393	34128.72
632.594	33983.31
632.794	33592.15
632.994	33813.33
633.195	33964.88
633.395	34265.93
633.595	33823.57
633.796	34179.92
633.996	33688.4
634.196	34126.67
634.397	33925.97
634.597	34032.46
634.797	34116.43
634.997	34456.39
635.198	34059.09
635.398	33653.59
635.598	34550.6
635.798	34161.48
635.998	34237.26
636.199	34007.89
636.399	34349.9
636.599	34124.62
636.799	33819.47
636.999	34138.96
637.199	34575.17
637.399	34446.15
637.599	33983.31
637.799	33751.89
637.999	34362.18
638.199	34706.24
638.399	34059.09
638.599	33944.4
638.799	34663.24
638.999	35117.89
639.199	34394.95
639.399	34384.71
639.599	34972.48
639.799	33964.88
639.999	34495.3
640.199	34274.12
640.399	34249.55
640.599	33473.37
640.799	34653
640.998	34693.96
641.198	34376.52
641.398	34386.76
641.598	34726.72
641.798	34640.71
641.997	35435.32
642.197	34542.41
642.397	35031.87
642.597	34464.58
642.796	34966.34
642.996	34872.13
643.196	34659.14
643.395	34147.15
643.595	34947.9
643.795	34487.11
643.994	34714.44
644.194	34739.01
644.394	35109.69
644.593	34763.59
644.793	34843.46
644.992	34843.46
645.192	35529.53
645.392	34579.27
645.591	35164.99
645.791	34915.14
645.99	35130.17
646.19	35097.41
646.389	35320.63
646.589	35099.45
646.788	35175.23
646.987	35201.85
647.187	35597.11
647.386	35240.76
647.586	35427.13
647.785	35418.94
647.984	35347.26
648.184	35312.44
648.383	34788.16
648.582	35072.83
648.782	35001.15
648.981	35332.92
649.18	35251
649.38	35740.47
649.579	35259.2
649.778	35390.27
649.977	35994.42
650.177	35531.58
650.376	35390.27
650.575	35171.13
650.774	35951.41
650.973	35369.79
651.173	34743.11
651.372	35064.64
651.571	35806
651.77	35603.25
651.969	35341.11
652.168	35478.33
652.367	35566.39
652.566	35476.28
652.765	35265.34
652.964	35795.76
653.163	35578.68
653.362	35849.01
653.561	35318.59
653.76	35550.01
653.959	35799.86
654.158	36055.86
654.357	35531.58
654.556	35521.34
654.755	35916.59
654.954	35431.22
655.153	34999.1
655.352	35746.61
655.551	35851.06
655.749	35709.75
655.948	35040.06
656.147	35939.12
656.346	35904.31
656.545	35855.15
656.743	35685.17
656.942	35969.84
657.141	35736.37
657.34	35662.65
657.538	35697.46
657.737	35855.15
657.936	35975.98
658.135	35986.22
658.333	35433.27
658.532	35644.21
658.731	36297.52
658.929	35986.22
659.128	36160.3
659.326	35787.57
659.525	36440.87
659.724	36145.97
659.922	35511.1
660.121	35662.65
660.319	36070.19
660.518	35400.51
660.716	35429.18
660.915	36174.64
661.113	36602.66
661.312	35633.97
661.51	35820.34
661.709	35664.69
661.907	36234.03
662.105	36256.56
662.304	35713.84
662.502	35857.2
662.701	36827.94
662.899	35883.83
663.097	35814.19
663.296	35674.93
663.494	36412.2
663.692	36447.02
663.891	35777.33
664.089	35713.84
664.287	36148.01
664.485	36348.71
664.684	35795.76
664.882	36023.09
665.08	35783.48
665.278	36440.87
665.476	35513.14
665.675	36092.72
665.873	36576.04
666.071	36184.88
666.269	35932.98
666.467	35801.91
666.665	36264.75
666.863	35670.84
667.061	35971.89
667.259	35783.48
667.457	36406.06
667.655	36195.12
667.853	35943.22
668.051	35709.75
668.249	36094.77
668.447	36408.11
668.645	35789.62
668.843	36313.9
669.041	36248.36
669.239	35937.07
669.437	35945.26
669.635	36336.43
669.833	35957.55
670.031	36084.53
670.229	36086.57
670.426	35822.39
670.624	36111.15
670.822	35752.76
671.02	35806
671.218	36031.28
671.415	35836.72
671.613	36025.14
671.811	35928.88
672.009	36354.86
672.206	36313.9
672.404	36047.66
672.602	35900.21
672.799	36070.19
672.997	36342.57
673.195	36035.38
673.392	35898.16
673.59	35484.47
673.788	35769.14
673.985	35324.73
674.183	35879.73
674.38	35912.5
674.578	36344.62
674.775	35486.52
674.973	35337.02
675.17	35392.31
675.368	36129.58
675.565	36068.14
675.763	35394.36
675.96	35474.23
676.158	35984.18
676.355	35271.48
676.553	35521.34
676.75	35851.06
676.947	35525.43
677.145	35857.2
677.342	35541.81
677.539	35621.69
677.737	35763
677.934	36002.61
678.131	35631.93
678.329	35222.33
678.526	36055.86
678.723	35572.53
678.92	36051.76
679.118	35158.84
679.315	35298.11
679.512	36016.94
679.709	35369.79
679.906	35375.93
680.104	35781.43
680.301	35728.18
680.498	34806.59
680.695	34900.8
680.892	35517.24
681.089	35273.53
681.286	35328.83
681.483	34771.78
681.68	35461.94
681.877	35347.26
682.075	34962.24
682.272	35050.3
682.469	35222.33
682.665	35410.74
682.862	34900.8
683.059	34943.81
683.256	35033.92
683.453	35515.19
683.65	35208
683.847	35099.45
684.044	35164.99
684.241	35015.49
684.438	35148.6
684.635	34747.2
684.831	35533.62
685.028	35416.89
685.225	34548.55
685.422	34763.59
685.619	34818.88
685.815	34636.61
686.012	34878.27
686.209	34718.53
686.405	34483.02
686.602	35144.51
686.799	34564.93
686.996	34925.38
687.192	34607.94
687.389	35019.58
687.586	34597.7
687.782	34612.04
687.979	35629.88
688.175	34700.1
688.372	34890.56
688.568	34597.7
688.765	34464.58
688.962	35201.85
689.158	34579.27
689.355	34790.21
689.551	34478.92
689.748	34526.02
689.944	34681.67
690.14	33932.11
690.337	34802.5
690.533	34632.52
690.73	34155.34
690.926	34886.46
691.123	34186.06
691.319	34648.9
691.515	34159.44
691.712	34179.92
691.908	34620.23
692.104	34505.54
692.301	34192.2
692.497	33981.26
692.693	34669.38
692.889	34626.37
693.086	34405.19
693.282	34034.51
693.478	34188.11
693.674	34855.75
693.87	34173.77
694.067	34048.85
694.263	34241.35
694.459	34095.95
694.655	34165.58
694.851	34253.64
695.047	34054.99
695.243	34534.21
695.439	34022.22
695.635	33794.9
695.831	34323.27
696.027	34059.09
696.224	34136.91
696.42	34077.52
696.615	34419.53
696.811	34188.11
697.007	33375.06
697.203	33790.8
697.399	33801.04
697.595	34573.13
697.791	33332.06
697.987	33637.2
698.183	33696.6
698.379	33307.48
698.575	33872.72
698.77	33512.28
698.966	33770.32
699.162	34347.85
699.358	33672.02
699.554	33936.21
699.749	34132.81
699.945	33917.78
700.141	33547.09
700.337	33577.81
700.532	33784.66
700.728	33674.07
700.924	33745.75
701.119	33258.33
701.315	33772.37
701.511	33764.18
701.706	33459.03
701.902	32772.96
702.097	33923.92
702.293	33997.65
702.489	33106.78
702.684	33577.81
702.88	33366.87
703.075	33332.06
703.271	33598.29
703.466	33248.09
703.662	33446.74
703.857	33870.67
704.053	33426.26
704.248	33461.08
704.443	33663.83
704.639	33395.54
704.834	33166.17
705.03	33532.76
705.225	33475.41
705.42	33610.58
705.616	33057.63
705.811	32775.01
706.006	33407.83
706.202	33327.96
706.397	33022.81
706.592	32918.37
706.787	32930.65
706.983	33190.75
707.178	33837.9
707.373	33272.67
707.568	33375.06
707.763	33205.08
707.959	33293.15
708.154	33256.28
708.349	32795.49
708.544	33151.84
708.739	32656.23
708.934	32394.09
709.129	33237.85
709.324	33459.03
709.519	32891.74
709.714	33053.53
709.909	33370.97
710.104	32838.5
710.299	32406.37
710.494	32834.4
710.689	32711.52
710.884	33330.01
711.079	33078.11
711.274	32547.68
711.469	33528.66
711.664	32779.11
711.859	32650.08
712.054	32891.74
712.249	32992.09
712.443	32729.95
712.638	32613.22
712.833	32496.49
713.028	32897.89
713.223	32885.6
713.417	32715.62
713.612	32480.1
713.807	33059.68
714.002	33317.72
714.196	32648.04
714.391	31929.2
714.586	32871.26
714.78	32754.53
714.975	32498.53
715.17	32519.01
715.364	32742.24
715.559	32889.7
715.754	31857.52
715.948	32131.95
716.143	32600.93
716.337	32172.91
716.532	32699.23
716.726	32406.37
716.921	32197.48
717.115	32666.47
717.31	31880.05
717.504	32865.12
717.699	32381.8
717.893	32314.22
718.088	31763.31
718.282	31798.13
718.476	32133.99
718.671	32068.46
718.865	32074.6
719.059	31964.01
719.254	32127.85
719.448	32107.37
719.642	33160.03
719.837	31492.98
720.031	32346.98
720.225	31892.33
720.419	32033.64
720.614	31525.75
720.808	31898.48
721.002	31665.01
721.196	31441.78
721.39	31366.01
721.585	32678.75
721.779	31861.62
721.973	31486.84
722.167	31249.27
722.361	31703.92
722.555	31898.48
722.749	31923.05
722.943	31628.15
723.137	31419.25
723.331	31695.73
723.525	31505.27
723.719	31044.48
723.913	31779.7
724.107	31535.99
724.301	31478.64
724.495	31118.2
724.689	31888.24
724.883	31757.17
725.077	31331.19
725.271	31263.61
725.465	31314.81
725.659	31015.8
725.853	31390.58
726.046	31122.3
726.24	31013.76
726.434	31638.39
726.628	31011.71
726.822	31093.63
727.015	31785.84
727.209	31308.66
727.403	31374.2
727.596	30872.45
727.79	31325.05
727.984	31546.23
728.177	31265.66
728.371	31386.49
728.565	31189.88
728.758	31247.22
728.952	30616.45
729.146	31290.23
729.339	31787.89
729.533	31478.64
729.726	31036.28
729.92	31349.62
730.113	31630.19
730.307	31595.38
730.5	30659.46
730.694	30933.89
730.887	31056.76
731.081	31423.35
731.274	31288.18
731.468	30866.3
731.661	31404.92
731.854	31128.44
732.048	30976.89
732.241	31095.67
732.435	31353.72
732.628	31425.4
732.821	31159.16
733.014	31069.05
733.208	31103.87
733.401	31419.25
733.594	31179.64
733.788	31128.44
733.981	31490.93
734.174	31361.91
734.367	30839.68
734.56	31226.74
734.754	31562.61
734.947	31202.17
735.14	31103.87
735.333	30913.41
735.526	31353.72
735.719	30942.08
735.912	30579.59
736.105	30987.13
736.298	31167.35
736.491	30923.65
736.684	30788.48
736.877	30823.29
737.07	31054.72
737.263	30780.29
737.456	30792.58
737.649	30710.66
737.842	30948.22
738.035	31067
738.228	30288.78
738.421	30669.7
738.614	31202.17
738.807	31320.95
739	30249.86
739.192	30286.73
739.385	31202.17
739.578	31036.28
739.771	30907.26
739.964	30483.33
740.156	31224.7
740.349	30606.21
740.542	30651.27
740.735	30202.76
740.927	30376.84
741.12	30563.2
741.313	30131.08
741.505	30624.64
741.698	31193.98
741.891	30716.8
742.083	30382.98
742.276	30688.13
742.468	30614.4
742.661	30337.93
742.854	30323.59
743.046	30065.55
743.239	31044.48
743.431	30593.92
743.624	30223.24
743.816	29903.76
744.009	30356.36
744.201	30694.27
744.393	30393.22
744.586	30075.79
744.778	30985.08
744.971	30612.35
745.163	30364.55
745.355	30172.04
745.548	29866.89
745.74	30116.75
745.932	29959.05
746.125	30145.42
746.317	30897.02
746.509	30403.46
746.702	30346.12
746.894	29987.72
747.086	29938.57
747.278	30598.02
747.471	29965.2
747.663	30051.21
747.855	29950.86
748.047	30487.43
748.239	29961.1
748.431	29875.09
748.623	30579.59
748.815	30444.42
749.008	29852.56
749.2	29825.93
749.392	30587.78
749.584	30026.64
749.776	29946.76
749.968	30305.16
750.16	30692.22
750.352	30151.56
750.544	29791.12
750.736	29803.41
750.928	30299.01
751.12	30077.83
751.311	29500.31
751.503	30028.68
751.695	30018.44
751.887	29776.78
752.079	29463.44
752.271	29598.61
752.463	30681.99
752.654	29918.09
752.846	29658
753.038	29457.3
753.23	29561.75
753.421	29737.87
753.613	29649.81
753.805	29922.19
753.997	29705.1
754.188	29967.24
754.38	29395.86
754.572	29277.08
754.763	29612.95
754.955	29211.54
755.146	29438.87
755.338	29379.48
755.53	29639.57
755.721	29598.61
755.913	29215.64
756.104	28859.29
756.296	29363.09
756.487	29262.74
756.679	29373.33
756.87	28922.78
757.062	29131.67
757.253	29477.78
757.445	29053.85
757.636	29506.45
757.827	28924.83
758.019	30059.4
758.21	28930.97
758.401	29021.08
758.593	29326.23
758.784	29315.99
758.975	28306.34
759.167	28488.61
759.358	28724.13
759.549	29322.13
759.74	28519.33
759.932	28627.87
760.123	29010.84
760.314	28699.55
760.505	28556.19
760.696	28433.32
760.888	29004.7
761.079	28365.73
761.27	28298.15
761.461	28218.28
761.652	28324.77
761.843	28459.94
762.034	28597.15
762.225	28371.88
762.416	28537.76
762.607	28283.81
762.798	28283.81
762.989	28093.35
763.18	28951.45
763.371	28201.89
763.562	27937.71
763.753	28107.69
763.944	28167.08
764.135	28511.14
764.326	27931.56
764.517	27700.14
764.708	28214.18
764.899	27759.53
765.089	27876.27
765.28	27661.23
765.471	27777.97
765.662	27970.47
765.853	27906.99
766.043	27358.13
766.234	28287.91
766.425	27739.05
766.615	27728.81
766.806	27478.96
766.997	27843.5
767.187	27712.43
767.378	27423.67
767.569	27163.57
767.759	27171.77
767.95	27771.82
768.141	27560.88
768.331	27139
768.522	27134.9
768.712	27591.6
768.903	27055.03
769.093	27212.73
769.284	27575.22
769.474	27421.62
769.665	26727.36
769.855	26577.86
770.046	27712.43
770.236	27024.31
770.426	27341.75
770.617	26766.27
770.807	27143.1
770.998	26827.71
771.188	26680.25
771.378	26760.12
771.569	27108.28
771.759	27065.27
771.949	26360.77
772.139	26547.14
772.33	26840
772.52	27130.81
772.71	26411.97
772.9	26389.44
773.09	26938.3
773.281	27001.79
773.471	26129.35
773.661	26305.48
773.851	26913.72
774.041	26385.35
774.231	26233.8
774.421	26180.55
774.611	26641.34
774.802	26594.24
774.992	25859.02
775.182	26215.37
775.372	26414.02
775.562	26500.03
775.752	26282.95
775.942	25842.63
776.131	26588.1
776.321	25922.51
776.511	25869.26
776.701	25975.75
776.891	26004.42
777.081	25656.27
777.271	25760.72
777.461	25850.83
777.651	26069.96
777.84	26117.06
778.03	25703.37
778.22	25449.42
778.41	26149.83
778.599	25990.09
778.789	25510.86
778.979	25379.79
779.169	25836.49
779.358	25512.91
779.548	25705.42
779.738	25203.67
779.927	25613.26
780.117	25330.64
780.307	24953.82
780.496	25158.61
780.686	25633.74
780.875	25668.56
781.065	25560.02
781.254	25039.83
781.444	25426.9
781.633	25275.35
781.823	24800.22
782.012	24523.74
782.202	25349.07
782.391	24941.53
782.581	24779.74
782.77	24777.69
782.96	25332.69
783.149	24796.12
783.338	24697.82
783.528	24974.3
783.717	24640.48
783.906	25433.04
784.096	24660.96
784.285	24339.43
784.474	24601.57
784.663	24394.72
784.853	24595.42
785.042	24443.87
785.231	24314.85
785.42	25101.27
785.61	24562.65
785.799	24423.39
785.988	24277.99
786.177	24353.76
786.366	24525.79
786.555	24656.86
786.744	24820.7
786.933	24296.42
787.122	24255.46
787.312	24325.09
787.501	24060.9
787.69	24402.91
787.879	23772.14
788.068	24253.41
788.257	23948.26
788.445	24228.84
788.634	23817.19
788.823	24171.49
789.012	24706.01
789.201	24781.79
789.39	23929.83
789.579	23518.19
789.768	23917.54
789.957	24284.13
790.145	23727.08
790.334	23817.19
790.523	24099.81
790.712	23688.17
790.9	23972.84
791.089	23628.78
791.278	23843.82
791.467	23925.74
791.655	23823.34
791.844	23823.34
792.033	23399.41
792.221	23565.29
792.41	23200.76
792.599	22823.93
792.787	23694.32
792.976	23892.97
793.164	23163.89
793.353	23448.56
793.541	24007.65
793.73	23884.78
793.918	23507.95
794.107	23079.93
794.295	23239.67
794.484	23182.32
794.672	23335.92
794.861	23268.34
795.049	23348.21
795.238	23831.53
795.426	23241.71
795.614	23274.48
795.803	23317.49
795.991	23768.04
796.179	22907.9
796.368	22830.07
796.556	23223.28
796.744	22805.5
796.932	23075.83
797.121	22629.37
797.309	23061.49
797.497	23200.76
797.685	23153.65
797.874	22887.42
798.062	23221.23
798.25	23284.72
798.438	22828.02
798.626	23122.93
798.814	23432.18
799.002	23600.11
799.19	22965.24
799.378	22692.86
799.566	22905.85
799.755	23266.29
799.943	22934.52
800.131	22684.67
800.318	23112.69
800.506	23051.25
800.694	22434.81
800.882	22805.5
801.07	23251.95
801.258	23073.78
801.446	23182.32
801.634	22422.53
801.822	22907.9
802.01	23034.87
802.197	22834.17
802.385	22852.6
802.573	22844.41
802.761	22821.88
802.949	22844.41
803.136	22641.66
803.324	23260.15
803.512	23147.51
803.699	23026.68
803.887	22367.23
804.075	23645.16
804.262	22793.21
804.45	22709.24
804.638	22778.87
804.825	22961.14
805.013	22817.79
805.201	22758.39
805.388	22578.17
805.576	23225.33
805.763	23542.77
805.951	23317.49
806.138	23202.8
806.326	23661.55
806.513	23217.14
806.701	23088.12
806.888	22930.42
807.075	23276.53
807.263	23741.42
807.45	22897.66
807.638	23219.19
807.825	23684.08
808.012	23254
808.2	23329.78
808.387	23512.05
808.574	23380.98
808.761	23598.06
808.949	22668.28
809.136	23376.88
809.323	23329.78
809.51	23503.85
809.698	23196.66
809.885	23319.54
810.072	23583.73
810.259	23606.25
810.446	23161.84
810.633	23280.63
810.82	23800.81
811.008	23802.86
811.195	23165.94
811.382	23102.45
811.569	23393.26
811.756	23106.55
811.943	23356.4
812.13	23010.29
812.317	23409.65
812.504	23690.22
812.691	23540.72
812.878	23405.55
813.064	23722.99
813.251	23258.1
813.438	23237.62
813.625	23000.05
813.812	23610.35
813.999	23616.49
814.186	23133.17
814.372	23274.48
814.559	23340.02
814.746	23938.02
814.933	23337.97
815.12	23299.06
815.306	23229.43
815.493	23452.66
815.68	23311.35
815.866	22983.67
816.053	23804.91
816.24	24169.44
816.426	23327.73
816.613	23145.46
816.799	23538.67
816.986	23714.8
817.173	23118.84
817.359	23026.68
817.546	23460.85
817.732	22776.83
817.919	23012.34
818.105	23380.98
818.292	23475.18
818.478	23372.78
818.665	23090.16
818.851	23122.93
819.037	23768.04
819.224	23628.78
819.41	23061.49
819.597	22572.03
819.783	23684.08
819.969	23290.87
820.156	22840.31
820.342	22834.17
820.528	23849.96
820.714	22989.81
820.901	23315.44
821.087	22985.72
821.273	23616.49
821.459	23092.21
821.646	22690.81
821.832	23096.31
822.018	23301.11
822.204	22938.62
822.39	23161.84
822.576	22873.08
822.762	23145.46
822.948	22969.33
823.134	23053.3
823.32	22658.04
823.507	22479.87
823.693	22676.48
823.879	22920.18
824.065	22629.37
824.25	22889.46
824.436	22776.83
824.622	22543.36
824.808	22252.55
824.994	22359.04
825.18	22463.49
825.366	22344.7
825.552	22629.37
825.738	22703.1
825.923	22785.02
826.109	22895.61
826.295	22129.67
826.481	22246.4
826.667	22330.37
826.852	22477.82
827.038	22148.1
827.224	22649.85
827.409	22860.79
827.595	21949.45
827.781	22395.9
827.966	22565.88
828.152	22705.15
828.338	22150.15
828.523	21820.42
828.709	22012.93
828.894	22250.5
829.08	22039.56
829.266	21580.81
829.451	21834.76
829.637	21922.82
829.822	21828.62
830.008	21629.96
830.193	22123.52
830.378	22256.64
830.564	21924.87
830.749	21355.54
830.935	22277.12
831.12	21982.21
831.305	21851.14
831.491	21568.52
831.676	21285.9
831.861	21863.43
832.047	21845
832.232	21507.09
832.417	21994.5
832.602	21732.36
832.788	21474.32
832.973	21812.23
833.158	21666.83
833.343	21715.98
833.528	22000.65
833.714	21410.83
833.899	21963.78
834.084	21828.62
834.269	21916.68
834.454	21068.82
834.639	21892.1
834.824	21566.48
835.009	21472.27
835.194	21468.17
835.379	21607.44
835.564	21826.57
835.749	21502.99
835.934	20995.09
836.119	21824.52
836.304	21107.73
836.489	21156.88
836.674	21089.3
836.859	21259.28
837.044	21679.11
837.228	20995.09
837.413	20900.89
837.598	21515.28
837.783	21226.51
837.968	21083.16
838.152	20876.31
838.337	20798.49
838.522	21584.91
838.707	21314.58
838.891	21142.55
839.076	20900.89
839.261	21203.99
839.445	20886.55
839.63	21042.2
839.815	21363.73
839.999	20696.09
840.184	20585.5
840.368	20614.17
840.553	20735
840.737	20997.14
840.922	20126.75
841.106	20413.47
841.291	20362.27
841.475	20603.93
841.66	20538.4
841.844	20182.05
842.029	21050.39
842.213	20370.46
842.397	20077.6
842.582	20233.25
842.766	20612.12
842.951	20773.91
843.135	20286.5
843.319	20280.35
843.504	20392.99
843.688	20708.38
843.872	20096.03
844.056	20102.18
844.241	20382.75
844.425	19911.72
844.609	20196.39
844.793	19760.17
844.977	20218.91
845.161	20153.38
845.346	19661.87
845.53	19805.22
845.714	20167.71
845.898	20442.14
846.082	19516.46
846.266	19827.75
846.45	20102.18
846.634	19858.47
846.818	19414.06
847.002	19772.46
847.186	20007.97
847.37	19350.57
847.554	19479.6
847.738	19334.19
847.922	19532.84
848.106	19944.48
848.29	19313.71
848.473	19461.16
848.657	19895.33
848.841	19602.47
849.025	19360.81
849.209	18940.98
849.392	19633.19
849.576	19686.44
849.76	19000.37
849.944	19446.83
850.127	19885.09
850.311	19131.44
850.495	19018.8
850.678	19131.44
850.862	19676.2
851.046	19813.41
851.229	19450.92
851.413	18977.84
851.596	19242.03
851.78	19039.28
851.964	19049.52
852.147	19000.37
852.331	19881
852.514	19317.81
852.698	18805.81
852.881	18646.07
853.065	19389.49
853.248	18994.23
853.431	18961.46
853.615	18742.33
853.798	19414.06
853.982	19287.09
854.165	18820.15
854.348	18549.82
854.532	18580.54
854.715	18883.64
854.898	18500.67
855.081	18768.95
855.265	19096.63
855.448	19291.18
855.631	18320.45
855.814	18234.43
855.997	18764.85
856.181	18566.2
856.364	18654.26
856.547	18234.43
856.73	18861.11
856.913	18555.96
857.096	18125.89
857.279	18490.43
857.462	18633.78
857.645	18629.69
857.828	18496.57
858.011	18484.28
858.194	18392.12
858.377	18689.08
858.56	18136.13
858.743	18052.16
858.926	18072.64
859.109	18424.89
859.292	18011.2
859.475	18113.6
859.658	18504.76
859.841	18164.8
860.023	17906.76
860.206	17732.68
860.389	18164.8
860.572	18412.6
860.755	17855.56
860.937	17495.11
861.12	17757.25
861.303	17841.22
861.486	17861.7
861.668	17683.53
861.851	18062.4
862.034	17857.6
862.216	17495.11
862.399	17269.84
862.581	17798.21
862.764	17972.29
862.947	17628.23
863.129	17192.01
863.312	17196.11
863.494	17998.91
863.677	17509.45
863.859	17284.17
864.042	17865.8
864.224	17847.36
864.406	17491.02
864.589	16952.4
864.771	17560.65
864.954	16825.43
865.136	17101.9
865.318	16823.38
865.501	17048.66
865.683	16530.52
865.865	16950.35
866.048	16800.85
866.23	17214.54
866.412	17013.84
866.594	16911.44
866.777	16936.02
866.959	17065.04
867.141	16790.61
867.323	16931.92
867.505	16944.21
867.687	16743.51
867.869	16991.31
868.052	16913.49
868.234	16796.76
868.416	16936.02
868.598	17263.69
868.78	16761.94
868.962	16645.21
869.144	17132.62
869.326	16919.64
869.508	16442.46
869.69	16419.93
869.872	16622.68
870.054	17140.82
870.236	16663.64
870.417	16514.14
870.599	16923.73
870.781	17253.45
870.963	16766.04
871.145	16467.03
871.327	16303.2
871.508	17146.96
871.69	16528.47
871.872	16637.02
872.054	16852.05
872.235	16714.84
872.417	16370.78
872.599	16231.52
872.78	16981.07
872.962	16673.88
873.144	16231.52
873.325	16231.52
873.507	16974.93
873.689	16573.53
873.87	16077.92
874.052	16452.7
874.233	16557.14
874.415	16548.95
874.596	16413.79
874.778	15942.75
874.959	16450.65
875.141	16708.69
875.322	16231.52
875.503	15996
875.685	16766.04
875.866	16333.92
876.048	16137.31
876.229	15832.16
876.41	16282.72
876.592	16385.12
876.773	16225.37
876.954	15805.54
877.136	16749.65
877.317	16366.68
877.498	16106.59
877.679	16411.74
877.86	16604.25
878.042	16333.92
878.223	16254.05
878.404	16612.44
878.585	16641.11
878.766	16899.16
878.947	16696.41
879.128	16893.01
879.309	16829.52
879.49	16993.36
879.672	16583.77
879.853	16817.24
880.034	16559.19
880.215	16704.6
880.396	16579.67
880.576	16618.58
880.757	16688.21
880.938	17333.32
881.119	16794.71
881.3	16620.63
881.481	16974.93
881.662	17669.19
881.843	16483.42
882.023	16880.72
882.204	16931.92
882.385	17214.54
882.566	16960.59
882.747	16837.72
882.927	17042.51
883.108	17019.99
883.289	16991.31
883.469	17222.73
883.65	17106
883.831	17364.04
884.011	17065.04
884.192	17192.01
884.373	17802.31
884.553	17429.58
884.734	17386.57
884.914	17658.95
885.095	18220.1
885.275	17988.67
885.456	17243.21
885.636	16876.63
885.817	17392.72
885.997	17519.69
886.178	17318.99
886.358	17413.2
886.538	17620.04
886.719	18396.22
886.899	17335.37
887.08	17267.79
887.26	17876.04
887.44	17503.31
887.621	17284.17
887.801	17570.89
887.981	18000.96
888.161	17761.35
888.342	17423.44
888.522	17339.47
888.702	17683.53
888.882	18248.77
889.062	17603.66
889.242	17185.87
889.423	17900.61
889.603	17976.39
889.783	17587.27
889.963	17560.65
890.143	17982.53
890.323	18033.73
890.503	17634.38
890.683	17765.45
890.863	17587.27
891.043	17869.89
891.223	17777.73
891.403	17747.01
891.583	17607.75
891.763	17695.82
891.943	17294.41
892.122	17380.43
892.302	17554.51
892.482	17730.63
892.662	17429.58
892.842	17353.8
893.022	17929.28
893.201	17568.84
893.381	17697.86
893.561	17370.19
893.741	17818.69
893.92	17833.03
894.1	17400.91
894.28	17521.74
894.459	17538.12
894.639	17970.24
894.819	17452.11
894.998	17830.98
895.178	17658.95
895.357	17718.34
895.537	16938.07
895.716	17345.61
895.896	17550.41
896.075	17890.37
896.255	17034.32
896.434	16856.15
896.614	17853.51
896.793	17720.39
896.973	17282.13
897.152	17312.85
897.331	17136.72
897.511	17337.42
897.69	16872.53
897.87	17249.36
898.049	17345.61
898.228	17192.01
898.407	17175.63
898.587	16929.87
898.766	16976.98
898.945	17095.76
899.124	17169.49
899.304	16825.43
899.483	17003.6
899.662	17300.56
899.841	16637.02
900.02	16829.52
900.199	16948.31
900.378	16796.76
900.557	16632.92
900.737	16571.48
900.916	16567.38
901.095	17026.13
901.274	16706.65
901.453	16372.83
901.632	16356.44
901.811	16243.81
901.989	16055.39
902.168	16184.41
902.347	16645.21
902.526	16168.03
902.705	16055.39
902.884	16036.96
903.063	16774.23
903.242	16419.93
903.42	15809.64
903.599	15920.23
903.778	16202.85
903.957	16221.28
904.135	15998.05
904.314	15621.22
904.493	15864.93
904.672	16057.44
904.85	15426.67
905.029	15185.01
905.207	15357.03
905.386	16358.49
905.565	14976.11
905.743	15043.7
905.922	15244.4
906.1	15260.78
906.279	14546.04
906.457	14597.24
906.636	14916.72
906.814	14707.83
906.993	14472.31
907.171	14642.29
907.35	14949.49
907.528	14832.75
907.707	14699.64
907.885	14363.77
908.063	14935.15
908.242	14453.88
908.42	14361.72
908.598	14230.65
908.777	14531.7
908.955	14261.37
909.133	14142.59
909.311	13763.72
909.49	14263.42
909.668	14470.26
909.846	14101.63
910.024	13735.04
910.202	14617.72
910.38	14630.01
910.559	14167.17
910.737	14144.64
910.915	14652.53
911.093	14822.52
911.271	14466.17
911.449	14775.41
911.627	14890.1
911.805	15334.51
911.983	14791.8
912.161	14550.14
912.339	14929.01
912.517	15371.37
912.695	15074.42
912.872	14634.1
913.05	14781.56
913.228	15017.07
913.406	14728.31
913.584	14660.73
913.762	15070.32
913.939	15047.79
914.117	14865.52
914.295	14650.49
914.473	15002.74
914.65	15197.29
914.828	14777.46
915.006	14711.92
915.184	14732.4
915.361	15248.49
915.539	14736.5
915.716	14861.43
915.894	15008.88
916.072	15119.47
916.249	14687.35
916.427	14867.57
916.604	14410.87
916.782	14842.99
916.959	14621.81
917.137	14601.33
917.314	15031.41
917.492	14664.82
917.669	14462.07
917.847	14660.73
918.024	14824.56
918.201	14374.01
918.379	14695.54
918.556	14433.4
918.733	14820.47
918.911	14386.3
919.088	14609.53
919.265	14169.21
919.442	14560.38
919.62	14363.77
919.797	14271.61
919.974	14013.57
920.151	14347.39
920.328	14285.95
920.506	14023.81
920.683	14249.08
920.86	13821.06
921.037	14126.21
921.214	14181.5
921.391	14009.47
921.568	14265.47
921.745	13939.84
921.922	13986.94
922.099	13945.98
922.276	14392.44
922.453	14128.25
922.63	13911.17
922.807	14146.69
922.984	14126.21
923.161	13681.8
923.338	13929.6
923.514	13520.01
923.691	13812.87
923.868	14093.44
924.045	13970.56
924.222	13601.93
924.399	13833.35
924.575	13831.3
924.752	13528.2
924.929	13819.01
925.105	13800.58
925.282	13362.31
925.459	13520.01
925.635	13388.94
925.812	13499.53
925.989	13276.3
926.165	13380.75
926.342	13171.85
926.518	13075.6
926.695	13151.37
926.871	12803.22
927.048	12772.5
927.224	13409.42
927.401	13051.02
927.577	12956.82
927.754	12762.26
927.93	13216.91
928.107	13214.86
928.283	12729.49
928.459	12950.67
928.636	12948.62
928.812	12688.53
928.988	12360.86
929.165	12438.68
929.341	12682.39
929.517	12778.64
929.693	12457.11
929.87	12129.44
930.046	12457.11
930.222	12199.07
930.398	12166.3
930.574	12272.79
930.751	12358.81
930.927	12262.55
931.103	12375.19
931.279	12098.72
931.455	11947.17
931.631	12070.05
931.807	11697.31
931.983	11699.36
932.159	11738.27
932.335	11754.66
932.511	11787.43
932.687	11578.53
932.863	11953.31
933.039	11631.78
933.215	11265.19
933.391	11185.32
933.566	11361.45
933.742	11467.94
933.918	11302.06
934.094	11017.39
934.27	11048.11
934.445	10955.95
934.621	10855.6
934.797	10607.8
934.973	11037.87
935.148	10851.5
935.324	10327.22
935.5	10140.86
935.675	10675.38
935.851	10417.33
936.027	10024.12
936.202	9903.29
936.378	9862.33
936.553	9823.42
936.729	9983.16
936.904	9327.82
937.08	9198.79
937.255	9151.69
937.431	8899.79
937.606	8899.79
937.782	8883.41
937.957	8916.17
938.133	8510.68
938.308	8428.76
938.483	8547.54
938.659	8262.87
938.834	8211.67
939.009	7970.01
939.185	8008.92
939.36	7730.4
939.535	7275.75
939.71	7593.19
939.886	7963.87
940.061	7744.74
940.236	7478.5
940.411	7199.98
940.586	7544.03
940.761	7552.23
940.937	7202.02
941.112	7036.14
941.287	6986.99
941.462	7013.61
941.637	6954.22
941.812	6892.78
941.987	6984.94
942.162	6966.51
942.337	6837.49
942.512	6565.11
942.687	7185.64
942.862	7001.32
943.037	6352.12
943.212	6276.34
943.386	6595.82
943.561	6530.29
943.736	6593.78
943.911	6812.91
944.086	6726.89
944.26	6595.82
944.435	6419.7
944.61	6552.82
944.785	7034.09
944.959	7005.42
945.134	6362.36
945.309	6210.81
945.483	6411.51
945.658	6843.63
945.833	6145.27
946.007	6380.79
946.182	7042.28
946.357	6341.88
946.531	6249.72
946.706	6245.62
946.88	6276.34
947.055	6728.94
947.229	6419.7
947.404	6292.73
947.578	7013.61
947.752	6642.93
947.927	6386.93
948.101	6290.68
948.276	6726.89
948.45	6767.85
948.624	6710.51
948.799	6358.26
948.973	7023.85
949.147	6499.57
949.321	6651.12
949.496	6661.36
949.67	7066.86
949.844	6886.64
950.018	6622.45
950.193	6655.22
950.367	7427.3
950.541	6819.05
950.715	7091.43
950.889	6966.51
951.063	7101.67
951.237	7285.99
951.411	6724.85
951.585	6827.25
951.759	7298.28
951.933	7247.08
952.107	6921.45
952.281	7173.35
952.455	7523.55
952.629	7668.96
952.803	7038.19
952.977	6954.22
953.151	7341.29
953.325	7290.09
953.499	7075.05
953.672	7017.71
953.846	6882.54
954.02	7089.39
954.194	7091.43
954.368	7064.81
954.541	7519.46
954.715	7095.53
954.889	7189.74
955.062	7001.32
955.236	7464.16
955.41	7138.54
955.583	7449.83
955.757	6862.06
955.93	7208.17
956.104	7095.53
956.278	7314.66
956.451	7355.62
956.625	7431.4
956.798	8096.99
956.972	7498.98
957.145	7265.51
957.319	7419.11
957.492	7517.41
957.665	7513.31
957.839	7369.96
958.012	7484.64
958.185	7615.71
958.359	7386.34
958.532	7574.75
958.705	7693.54
958.879	7527.65
959.052	7474.4
959.225	7109.86
959.398	7494.88
959.572	7800.03
959.745	7429.35
959.918	7388.39
960.091	7304.42
960.264	7816.41
960.438	7005.42
960.611	7269.61
960.784	7744.74
960.957	7566.56
961.13	7638.24
961.303	7259.37
961.476	7439.59
961.649	7693.54
961.822	7257.32
961.995	7394.53
962.168	7650.53
962.341	7617.76
962.514	7466.21
962.686	7253.22
962.859	7597.28
963.032	7642.34
963.205	7337.19
963.378	7195.88
963.551	7558.37
963.723	7521.51
963.896	7290.09
964.069	7392.48
964.242	7320.81
964.414	7830.75
964.587	7503.07
964.76	7421.16
964.932	7582.95
965.105	7531.75
965.278	7292.13
965.45	7267.56
965.623	7408.87
965.795	7582.95
965.968	7318.76
966.14	7245.03
966.313	7490.79
966.485	7484.64
966.658	7322.85
966.83	7210.22
967.003	7707.87
967.175	7572.71
967.348	7052.52
967.52	7259.37
967.692	7789.79
967.865	7470.31
968.037	7236.84
968.209	7429.35
968.382	7251.17
968.554	7605.47
968.726	7136.49
968.898	7017.71
969.071	7265.51
969.243	7300.33
969.415	7163.11
969.587	7191.78
969.759	7877.85
969.932	7541.99
970.104	7099.62
970.276	6761.71
970.448	6892.78
970.62	7056.62
970.792	7173.35
970.964	6823.15
971.136	7677.15
971.308	7431.4
971.48	6933.74
971.652	6946.03
971.824	7503.07
971.996	6943.98
972.168	6898.92
972.339	6925.55
972.511	7247.08
972.683	7048.43
972.855	7103.72
973.027	6794.48
973.199	6999.27
973.37	6962.41
973.542	7050.47
973.714	6898.92
973.886	7009.51
974.057	6964.46
974.229	6540.53
974.401	6735.09
974.572	6587.63
974.744	6331.64
974.915	6599.92
975.087	6468.85
975.259	7349.48
975.43	6538.48
975.602	6712.56
975.773	6313.2
975.945	6548.72
976.116	7046.38
976.288	6515.95
976.459	6487.28
976.63	6550.77
976.802	6710.51
976.973	6415.6
977.145	6591.73
977.316	6968.56
977.487	6671.6
977.659	6571.25
977.83	6237.43
978.001	6769.9
978.172	6589.68
978.344	6323.44
978.515	6186.23
978.686	6397.17
978.857	6761.71
979.028	6290.68
979.2	6214.9
979.371	6421.75
979.542	6483.19
979.713	6229.24
979.884	5942.52
980.055	6223.09
980.226	6194.42
980.397	6116.6
980.568	5987.58
980.739	6479.09
980.91	6253.81
981.081	6087.93
981.252	5981.43
981.423	6417.65
981.594	6436.08
981.765	5911.8
981.936	6073.59
982.106	6298.87
982.277	6540.53
982.448	5928.19
982.619	6137.08
982.79	5954.81
982.96	6282.49
983.131	5833.98
983.302	5391.62
983.472	5799.16
983.643	5995.77
983.814	6034.68
983.984	5635.33
984.155	5862.65
984.326	6122.74
984.496	5805.31
984.667	5696.77
984.837	5532.93
985.008	6204.66
985.178	5895.42
985.349	5545.22
985.519	5756.16
985.69	5807.36
985.86	5618.94
986.031	5557.5
986.201	5807.36
986.371	5965.05
986.542	5477.63
986.712	5166.34
986.882	5952.76
987.053	5899.52
987.223	5340.42
987.393	5635.33
987.563	5506.31
987.734	5895.42
987.904	5729.53
988.074	5276.93
988.244	5670.14
988.414	5459.2
988.585	5326.08
988.755	5305.6
988.925	5377.28
989.095	5866.75
989.265	5301.51
989.435	5135.62
989.605	5534.98
989.775	5348.61
989.945	5485.83
990.115	5027.08
990.285	5207.3
990.455	5256.45
990.625	5002.5
990.795	5020.94
990.965	5479.68
991.134	4975.88
991.304	4975.88
991.474	4977.93
991.644	5190.92
991.814	5670.14
991.984	4779.28
992.153	4703.5
992.323	5205.25
992.493	5090.57
992.662	4726.03
992.832	4926.73
993.002	5217.54
993.171	5053.7
993.341	4666.64
993.511	4912.39
993.68	4787.47
993.85	4959.5
994.019	4601.1
994.189	4365.59
994.358	4949.26
994.528	4824.33
994.697	4431.12
994.867	4418.83
995.036	4918.54
995.206	4793.61
995.375	4510.99
995.544	4715.79
995.714	4707.6
995.883	4517.14
996.052	4549.9
996.222	4166.93
996.391	5152.01
996.56	4537.62
996.73	4300.05
996.899	4123.93
997.068	4982.03
997.237	4789.52
997.406	4234.52
997.576	4177.17
997.745	4527.38
997.914	4777.23
998.083	4023.58
998.252	4134.17
998.421	4343.06
998.59	4250.9
998.759	4179.22
998.928	4048.15
999.097	4754.7
999.266	4459.79
999.435	4207.89
999.604	4037.91
999.773	4785.42
999.942	4257.04
1000.111	3992.86
1000.28	3884.31
1000.448	3953.94
1000.617	4128.02
1000.786	4115.73
1000.955	3841.31
1001.124	4193.56
1001.292	4576.53
1001.461	3831.07
1001.63	3845.4
1001.798	4500.75
1001.967	4312.34
1002.136	3517.73
1002.304	3603.74
1002.473	4091.16
1002.642	4089.11
1002.81	3759.39
1002.979	3697.95
1003.147	4080.92
1003.316	4527.38
1003.484	3743
1003.653	3466.53
1003.821	4259.09
1003.99	3929.37
1004.158	3685.66
1004.327	3732.76
1004.495	3837.21
1004.663	3566.88
1004.832	3771.68
1005	3394.85
1005.168	4009.24
1005.337	3829.02
1005.505	3335.46
1005.673	3585.31
1005.842	3941.66
1006.01	3900.7
1006.178	3286.31
1006.346	3376.42
1006.514	3704.09
1006.683	3968.28
1006.851	3319.07
1007.019	3247.4
1007.187	3345.7
1007.355	3153.19
1007.523	3054.89
1007.691	3099.94
1007.859	3257.64
1008.027	3747.1
1008.195	3261.73
1008.363	3089.7
1008.531	3716.38
1008.699	3339.55
1008.867	2985.26
1009.035	3138.85
1009.203	3663.13
1009.37	3394.85
1009.538	2983.21
1009.706	3468.58
1009.874	3378.47
1010.042	3259.68
1010.209	2827.56
1010.377	2876.71
1010.545	3503.39
1010.713	3247.4
1010.88	2962.73
1011.048	2946.34
1011.216	3128.61
1011.383	3556.64
1011.551	2862.38
1011.718	2755.88
1011.886	3278.12
1012.054	3142.95
1012.221	2743.6
1012.389	2796.84
1012.556	3020.07
1012.724	3460.38
1012.891	2819.37
1013.058	2647.34
1013.226	3161.38
1013.393	3101.99
1013.561	2483.5
1013.728	2420.02
1013.895	2989.35
1014.063	3151.14
1014.23	2424.11
1014.397	2534.7
1014.565	3075.37
1014.732	2817.32
1014.899	2501.94
1015.066	2338.1
1015.233	2884.91
1015.401	2936.1
1015.568	2565.42
1015.735	2706.73
1015.902	2764.08
1016.069	2968.87
1016.236	2473.26
1016.403	2401.58
1016.57	2506.03
1016.737	2751.79
1016.904	2329.91
1017.071	2266.42
1017.238	2420.02
1017.405	2876.71
1017.572	2379.06
1017.739	2424.11
1017.906	2630.96
1018.073	2690.35
1018.24	2108.73
1018.407	2250.03
1018.573	2721.07
1018.74	2483.5
1018.907	2270.51
1019.074	1936.7
1019.241	2809.13
1019.407	2497.84
1019.574	1996.09
1019.741	1971.51
1019.907	2606.38
1020.074	2415.92
1020.241	1895.74
1020.407	2063.67
1020.574	2499.89
1020.74	2561.33
1020.907	2061.62
1021.073	1940.79
1021.24	2798.89
1021.406	2659.63
1021.573	1994.04
1021.739	2051.38
1021.906	2493.74
1022.072	2198.84
1022.239	1883.45
1022.405	2037.05
1022.571	2334
1022.738	2135.35
1022.904	1785.15
1023.07	1934.65
1023.237	2250.03
1023.403	2434.35
1023.569	1905.98
1023.735	1905.98
1023.902	2239.8
1024.068	2299.19
1024.234	1772.86
1024.4	1809.72
1024.566	2192.69
1024.732	2250.03
1024.898	1711.42
1025.065	1600.83
1025.231	2327.86
1025.397	2080.05
1025.563	1828.15
1025.729	1707.32
1025.895	1647.93
1026.061	1723.71
1026.227	1502.53
1026.392	1756.47
1026.558	2219.32
1026.724	2131.25
1026.89	1529.15
1027.056	1797.43
1027.222	2139.44
1027.388	1967.42
1027.553	1678.65
1027.719	1469.76
1027.885	2372.91
1028.051	2114.87
1028.216	1449.28
1028.382	1561.92
1028.548	2086.2
1028.713	1697.08
1028.879	1443.14
1029.045	1805.63
1029.21	2290.99
1029.376	2069.81
1029.541	1506.62
1029.707	1457.47
1029.873	2075.96
1030.038	2010.42
1030.204	1410.37
1030.369	1523.01
1030.534	2059.57
1030.7	1750.33
1030.865	1455.42
1031.031	1504.57
1031.196	1807.67
1031.361	1785.15
1031.527	1418.56
1031.692	1332.54
1031.857	1418.56
1032.023	1885.5
1032.188	1299.78
1032.353	1350.98
1032.518	2018.61
1032.684	1842.49
1032.849	1244.48
1033.014	1412.42
1033.179	1869.11
1033.344	1824.06
1033.509	1453.38
1033.674	1326.4
1033.839	1838.39
1034.004	1838.39
1034.17	1361.22
1034.335	1178.95
1034.5	1670.46
1034.664	1533.25
1034.829	1205.57
1034.994	1277.25
1035.159	1733.95
1035.324	1752.38
1035.489	1314.11
1035.654	1244.48
1035.819	1803.58
1035.984	1699.13
1036.148	1355.07
1036.313	1271.11
1036.478	1834.3
1036.643	1529.15
1036.807	1150.28
1036.972	1072.45
1037.137	1908.02
1037.301	1494.33
1037.466	1094.98
1037.631	1162.56
1037.795	1744.19
1037.96	1531.2
1038.124	1391.94
1038.289	1111.36
1038.454	1690.94
1038.618	1566.01
1038.783	1244.48
1038.947	1281.35
1039.111	1467.71
1039.276	1391.94
1039.44	1086.79
1039.605	1514.81
1039.769	1379.65
1039.933	1396.03
1040.098	1162.56
1040.262	1248.58
1040.426	1611.07
1040.591	1531.2
1040.755	904.52
1040.919	912.71
1041.083	1477.95
1041.248	1264.96
1041.412	990.53
1041.576	931.14
1041.74	1283.39
1041.904	1387.84
1042.068	873.8
1042.232	1027.4
1042.397	1506.62
1042.561	1391.94
1042.725	687.43
1042.889	1037.64
1043.053	1400.13
1043.217	1363.26
1043.381	1144.13
1043.544	804.17
1043.708	1484.09
1043.872	1045.83
1044.036	648.52
1044.2	834.89
1044.364	1400.13
1044.528	1523.01
1044.691	2274.61
1044.855	832.84
1045.019	1553.73
1045.183	1389.89
1045.346	935.24
1045.51	867.66
1045.674	1310.02
1045.837	1348.93
1046.001	908.62
1046.165	810.31
1046.328	1641.79
1046.492	1404.22
1046.655	1039.69
1046.819	877.9
1046.983	1080.64
1047.146	1322.31
1047.31	873.8
1047.473	568.65
1047.636	1154.37
1047.8	1078.6
1047.963	798.03
1048.127	685.39
1048.29	933.19
