Data from Hydrogel_Ink_Intensity_Test_1_USB4F045381__42__00042.txt Node

Date: Mon Jul 31 10:46:48 EDT 2023
User: mmckonesweet
Spectrometer: USB4F04538
Trigger mode: 4
Integration Time (sec): 9.000000E-1
Scans to average: 1
Electric dark correction enabled: true
Nonlinearity correction enabled: false
Boxcar width: 0
XAxis mode: Wavelengths
Number of Pixels in Spectrum: 3648
>>>>>Begin Spectral Data<<<<<
345.52	-1012.38
345.736	-1012.38
345.952	-1012.38
346.168	-989.85
346.384	-975.52
346.6	-70.31
346.816	-211.62
347.032	-221.86
347.248	351.57
347.464	-185
347.68	-135.85
347.896	73.04
348.112	365.9
348.328	-53.93
348.544	-107.18
348.76	-8.87
348.975	204.11
349.191	-205.48
349.407	-168.62
349.623	32.08
349.839	-12.97
350.055	-82.6
350.27	46.42
350.486	187.73
350.702	331.09
350.918	341.33
351.133	-187.05
351.349	152.92
351.565	359.76
351.781	-262.82
351.996	44.37
352.212	396.62
352.428	-141.99
352.644	-201.38
352.859	-115.37
353.075	331.09
353.291	-12.97
353.506	-60.07
353.722	-225.96
353.938	-49.83
354.153	490.83
354.369	105.81
354.584	-242.34
354.8	249.17
355.016	-271.01
355.231	-256.68
355.447	-76.46
355.662	97.62
355.878	793.93
356.093	-338.6
356.309	11.61
356.524	-217.77
356.74	283.99
356.955	-228.01
357.171	-60.07
357.386	130.39
357.602	-203.43
357.817	-68.27
358.033	-139.94
358.248	423.25
358.464	150.87
358.679	-166.57
358.895	-316.07
359.11	11.61
359.325	314.7
359.541	326.99
359.756	-35.5
359.972	-242.34
360.187	148.82
360.402	-154.28
360.618	-144.04
360.833	927.05
361.048	159.06
361.264	-125.61
361.479	-41.64
361.694	32.08
361.909	308.56
362.125	-111.27
362.34	-107.18
362.555	312.66
362.77	177.49
362.986	-211.62
363.201	-166.57
363.416	173.39
363.631	97.62
363.847	-187.05
364.062	-103.08
364.277	238.93
364.492	144.72
364.707	-123.56
364.922	-305.83
365.138	273.75
365.353	345.42
365.568	-228.01
365.783	-115.37
365.998	173.39
366.213	539.98
366.428	-141.99
366.643	3.41
366.858	263.51
367.073	187.73
367.288	-8.87
367.503	-180.9
367.718	208.21
367.933	314.7
368.148	-271.01
368.363	-37.55
368.578	1.37
368.793	488.78
369.008	-98.99
369.223	-146.09
369.438	359.76
369.653	464.21
369.868	-176.81
370.083	-148.14
370.298	161.11
370.513	406.86
370.728	93.52
370.943	-182.95
371.157	-180.9
371.372	531.79
371.587	-232.1
371.802	-211.62
372.017	54.61
372.232	470.35
372.446	-58.03
372.661	-172.71
372.876	228.69
373.091	183.63
373.306	-82.6
373.52	-176.81
373.735	-115.37
373.95	447.82
374.165	-76.46
374.379	-25.26
374.594	-98.99
374.809	118.1
375.023	73.04
375.238	-205.48
375.453	267.6
375.667	-168.62
375.882	-27.31
376.097	-211.62
376.311	157.01
376.526	71
376.741	-141.99
376.955	109.91
377.17	587.08
377.384	570.7
377.599	-109.22
377.813	-166.57
378.028	585.04
378.242	312.66
378.457	-94.89
378.672	-273.06
378.886	150.87
379.101	-41.64
379.315	-279.21
379.53	-101.03
379.744	236.88
379.958	253.27
380.173	-217.77
380.387	-154.28
380.602	167.25
380.816	-111.27
381.031	-160.42
381.245	-156.33
381.459	226.64
381.674	1070.41
381.888	-141.99
382.103	46.42
382.317	-176.81
382.531	478.54
382.746	-62.12
382.96	-92.84
383.174	-29.35
383.388	492.88
383.603	73.04
383.817	-119.46
384.031	208.21
384.246	619.85
384.46	36.18
384.674	388.43
384.888	87.38
385.103	130.39
385.317	-223.91
385.531	15.7
385.745	339.28
385.959	390.48
386.174	-137.9
386.388	-195.24
386.602	107.86
386.816	-86.7
387.03	-15.02
387.244	-47.79
387.458	130.39
387.672	466.25
387.887	-182.95
388.101	-176.81
388.315	400.72
388.529	204.11
388.743	-60.07
388.957	-156.33
389.171	355.66
389.385	-74.41
389.599	-23.21
389.813	150.87
390.027	126.29
390.241	679.24
390.455	-53.93
390.669	23.89
390.883	15.7
391.097	546.13
391.311	105.81
391.525	-45.74
391.738	200.02
391.952	326.99
392.166	30.04
392.38	-96.94
392.594	462.16
392.808	365.9
393.022	-37.55
393.236	-80.55
393.449	261.46
393.663	238.93
393.877	-164.52
394.091	21.85
394.305	89.43
394.518	15.7
394.732	-189.1
394.946	-90.79
395.16	503.12
395.373	171.35
395.587	-144.04
395.801	-170.66
396.015	437.58
396.228	361.81
396.442	-174.76
396.656	-182.95
396.869	476.49
397.083	474.45
397.297	-21.16
397.51	-21.16
397.724	435.53
397.938	232.79
398.151	-174.76
398.365	-103.08
398.578	347.47
398.792	458.06
399.005	138.58
399.219	30.04
399.433	150.87
399.646	302.42
399.86	148.82
400.073	202.07
400.287	326.99
400.5	44.37
400.714	128.34
400.927	13.65
401.141	314.7
401.354	1205.57
401.567	343.38
401.781	-103.08
401.994	413.01
402.208	802.12
402.421	-8.87
402.635	46.42
402.848	171.35
403.061	472.4
403.275	130.39
403.488	-135.85
403.701	679.24
403.915	326.99
404.128	283.99
404.341	21.85
404.555	326.99
404.768	191.83
404.981	187.73
405.195	-4.78
405.408	685.39
405.621	367.95
405.834	197.97
406.048	-51.88
406.261	593.23
406.474	593.23
406.687	3.41
406.9	253.27
407.114	267.6
407.327	363.86
407.54	-84.65
407.753	-164.52
407.966	52.56
408.179	396.62
408.392	1.37
408.605	-228.01
408.819	355.66
409.032	326.99
409.245	-8.87
409.458	238.93
409.671	445.77
409.884	533.84
410.097	-160.42
410.31	165.2
410.523	370
410.736	167.25
410.949	208.21
411.162	54.61
411.375	554.32
411.588	503.12
411.801	179.54
412.014	44.37
412.227	329.04
412.44	169.3
412.653	42.32
412.865	261.46
413.078	552.27
413.291	447.82
413.504	19.8
413.717	-21.16
413.93	390.48
414.143	105.81
414.356	89.43
414.568	-72.36
414.781	476.49
414.994	404.82
415.207	114
415.42	179.54
415.632	558.41
415.845	750.92
416.058	-58.03
416.271	-4.78
416.483	288.08
416.696	730.44
416.909	95.57
417.121	-0.68
417.334	439.63
417.547	716.11
417.759	79.19
417.972	7.51
418.185	189.78
418.397	550.22
418.61	107.86
418.823	27.99
419.035	695.63
419.248	269.65
419.46	197.97
419.673	202.07
419.885	437.58
420.098	204.11
420.311	109.91
420.523	-154.28
420.736	564.56
420.948	326.99
421.161	58.71
421.373	9.56
421.586	279.89
421.798	263.51
422.01	-21.16
422.223	300.37
422.435	288.08
422.648	537.93
422.86	157.01
423.073	171.35
423.285	599.37
423.497	13.65
423.71	105.81
423.922	134.48
424.134	535.89
424.347	736.59
424.559	413.01
424.771	406.86
424.984	232.79
425.196	470.35
425.408	48.47
425.621	36.18
425.833	699.72
426.045	703.82
426.257	58.71
426.47	146.77
426.682	470.35
426.894	453.97
427.106	161.11
427.318	259.41
427.531	236.88
427.743	609.61
427.955	183.63
428.167	605.52
428.379	460.11
428.591	384.34
428.804	267.6
429.016	200.02
429.228	312.66
429.44	462.16
429.652	394.58
429.864	-12.97
430.076	343.38
430.288	396.62
430.5	247.12
430.712	347.47
430.924	687.43
431.136	499.02
431.348	50.52
431.56	175.44
431.772	398.67
431.984	302.42
432.196	138.58
432.408	288.08
432.62	269.65
432.832	458.06
433.044	550.22
433.256	421.2
433.468	630.09
433.679	154.96
433.891	73.04
434.103	460.11
434.315	832.84
434.527	669
434.739	353.62
434.95	400.72
435.162	705.87
435.374	341.33
435.586	314.7
435.798	195.92
436.009	322.9
436.221	423.25
436.433	310.61
436.645	388.43
436.856	402.77
437.068	896.33
437.28	255.31
437.491	595.28
437.703	689.48
437.915	564.56
438.126	351.57
438.338	591.18
438.55	548.17
438.761	759.11
438.973	294.22
439.184	357.71
439.396	548.17
439.608	736.59
439.819	255.31
440.031	423.25
440.242	750.92
440.454	736.59
440.665	355.66
440.877	511.31
441.088	718.15
441.3	531.79
441.511	183.63
441.723	310.61
441.934	576.84
442.146	560.46
442.357	503.12
442.569	728.39
442.78	593.23
442.991	1029.45
443.203	720.2
443.414	396.62
443.626	968.01
443.837	431.44
444.048	286.03
444.26	228.69
444.471	628.04
444.682	890.18
444.894	245.07
445.105	259.41
445.316	836.94
445.528	748.87
445.739	507.21
445.95	413.01
446.161	724.3
446.373	855.37
446.584	417.1
446.795	484.69
447.006	847.18
447.217	1008.97
447.429	275.79
447.64	341.33
447.851	998.73
448.062	740.68
448.273	294.22
448.484	480.59
448.695	783.69
448.907	646.48
449.118	589.13
449.329	679.24
449.54	619.85
449.751	533.84
449.962	535.89
450.173	421.2
450.384	970.05
450.595	1072.45
450.806	447.82
451.017	492.88
451.228	1068.36
451.439	990.53
451.65	523.6
451.861	294.22
452.072	490.83
452.283	757.07
452.494	783.69
452.705	511.31
452.915	1152.32
453.126	900.42
453.337	642.38
453.548	568.65
453.759	1054.02
453.97	1291.59
454.181	793.93
454.391	546.13
454.602	935.24
454.813	916.81
455.024	703.82
455.235	552.27
455.445	900.42
455.656	1033.54
455.867	740.68
456.078	673.1
456.288	666.96
456.499	1105.22
456.71	492.88
456.921	847.18
457.131	1070.41
457.342	1039.69
457.553	677.2
457.763	630.09
457.974	1019.21
458.184	1072.45
458.395	517.45
458.606	568.65
458.816	1221.95
459.027	1436.99
459.237	900.42
459.448	537.93
459.659	1226.05
459.869	1578.3
460.08	482.64
460.29	927.05
460.501	1441.09
460.711	945.48
460.922	683.34
461.132	755.02
461.343	1658.17
461.553	783.69
461.764	705.87
461.974	804.17
462.184	1158.47
462.395	1195.33
462.605	900.42
462.816	740.68
463.026	1133.89
463.236	1436.99
463.447	851.27
463.657	863.56
463.867	1375.55
464.078	1158.47
464.288	994.63
464.498	849.22
464.709	1213.76
464.919	1137.99
465.129	982.34
465.339	957.77
465.55	1338.69
465.76	1443.14
465.97	976.2
466.18	867.66
466.391	1484.09
466.601	1396.03
466.811	1090.88
467.021	984.39
467.231	1377.6
467.441	1531.2
467.651	1086.79
467.862	834.89
468.072	1381.7
468.282	1844.54
468.492	1137.99
468.702	1224
468.912	1420.61
469.122	1971.51
469.332	1535.29
469.542	1129.8
469.752	1707.32
469.962	1400.13
470.172	1146.18
470.382	1408.32
470.592	1711.42
470.802	1764.67
471.012	1383.74
471.222	1346.88
471.432	1871.16
471.642	1774.91
471.852	1518.91
472.062	1371.46
472.272	1553.73
472.482	1424.7
472.691	1385.79
472.901	1408.32
473.111	1731.9
473.321	2334
473.531	1430.85
473.741	1729.85
473.95	1944.89
474.16	1969.46
474.37	1645.88
474.58	1465.66
474.79	2391.34
474.999	2057.53
475.209	1543.49
475.419	1672.51
475.628	1858.87
475.838	2284.85
476.048	1776.95
476.258	1662.27
476.467	2387.25
476.677	1920.31
476.886	2094.39
477.096	1971.51
477.306	1996.09
477.515	2280.75
477.725	1957.18
477.935	1961.27
478.144	2553.13
478.354	2012.47
478.563	2133.3
478.773	1967.42
478.982	2645.29
479.192	2643.25
479.401	2229.56
479.611	2082.1
479.82	2161.97
480.03	2460.98
480.239	2215.22
480.449	2196.79
480.658	2835.75
480.868	2354.48
481.077	2397.49
481.287	2272.56
481.496	2649.39
481.705	3015.98
481.915	2747.69
482.124	2698.54
482.333	2710.83
482.543	3095.85
482.752	2731.31
482.961	2327.86
483.171	3048.74
483.38	2694.44
483.589	2706.73
483.799	2673.96
484.008	2823.47
484.217	3091.75
484.426	2671.92
484.636	2598.19
484.845	2907.43
485.054	2618.67
485.263	2983.21
485.472	2764.08
485.682	3435.81
485.891	2950.44
486.1	2712.88
486.309	2809.13
486.518	3245.35
486.727	3472.67
486.936	2854.19
487.146	2997.54
487.355	3364.13
487.564	2964.78
487.773	3122.47
487.982	2952.49
488.191	3099.94
488.4	3489.06
488.609	3192.1
488.818	3269.92
489.027	3917.08
489.236	3714.33
489.445	3089.7
489.654	3110.18
489.863	3794.2
490.072	3527.97
490.281	3564.83
490.49	3314.98
490.698	3833.11
490.907	3992.86
491.116	3298.59
491.325	3247.4
491.534	3958.04
491.743	3724.57
491.952	3468.58
492.16	3384.61
492.369	3802.4
492.578	3949.85
492.787	3542.3
492.996	3228.96
493.204	3622.17
493.413	4199.7
493.622	3345.7
493.831	3480.86
494.039	4105.49
494.248	3624.22
494.457	3753.24
494.665	3501.34
494.874	4171.03
495.083	4566.29
495.291	3800.35
495.5	3675.42
495.709	4209.94
495.917	3978.52
496.126	3872.03
496.335	3865.88
496.543	4068.63
496.752	4279.57
496.96	4103.45
497.169	3630.37
497.377	4279.57
497.586	4502.8
497.794	4138.26
498.003	3710.24
498.211	4255
498.42	4750.6
498.628	4035.86
498.837	3904.79
499.045	4455.7
499.254	4345.11
499.462	4017.43
499.671	4039.96
499.879	4885.77
500.087	4535.57
500.296	4060.44
500.504	4255
500.713	4566.29
500.921	5047.56
501.129	4154.65
501.338	4228.37
501.546	4531.47
501.754	4642.06
501.962	4322.58
502.171	4291.86
502.379	4766.99
502.587	4920.59
502.795	4377.87
503.004	4261.14
503.212	4746.51
503.42	4893.96
503.628	4384.02
503.837	4529.42
504.045	5002.5
504.253	5201.16
504.461	4666.64
504.669	4441.36
504.877	4990.22
505.085	5084.42
505.294	4427.03
505.502	4883.72
505.71	4805.9
505.918	5180.68
506.126	4531.47
506.334	4551.95
506.542	4965.64
506.75	5065.99
506.958	4898.06
507.166	4883.72
507.374	4920.59
507.582	5508.35
507.79	4908.3
507.998	4662.54
508.206	5098.76
508.414	5268.74
508.622	4719.89
508.83	4871.43
509.037	5543.17
509.245	4982.03
509.453	4748.56
509.661	4758.8
509.869	5192.97
510.077	5059.85
510.285	5061.9
510.492	4658.45
510.7	5977.34
510.908	5227.78
511.116	5020.94
511.324	4840.72
511.531	5096.71
511.739	5371.14
511.947	5324.04
512.155	5539.07
512.362	5475.59
512.57	5078.28
512.778	4914.44
512.985	5020.94
513.193	5664
513.401	5799.16
513.608	5100.81
513.816	5244.17
514.024	5717.25
514.231	5569.79
514.439	5213.45
514.646	5242.12
514.854	5670.14
515.061	5530.88
515.269	5184.77
515.477	5141.77
515.684	5383.43
515.892	5924.09
516.099	5369.09
516.307	5178.63
516.514	5858.56
516.722	5946.62
516.929	5467.39
517.136	5205.25
517.344	5924.09
517.551	5879.04
517.759	5418.24
517.966	5434.63
518.173	5573.89
518.381	5813.5
518.588	5469.44
518.796	5391.62
519.003	6001.91
519.21	5762.3
519.418	5627.14
519.625	5786.88
519.832	5819.64
520.039	5958.91
520.247	5295.36
520.454	5614.85
520.661	6216.95
520.868	6200.57
521.076	5600.51
521.283	5528.83
521.49	6640.88
521.697	6311.16
521.904	5840.12
522.112	5786.88
522.319	6104.31
522.526	5997.82
522.733	5745.92
522.94	5842.17
523.147	6358.26
523.354	6397.17
523.561	5827.84
523.768	5903.61
523.975	6442.23
524.183	6290.68
524.39	6147.32
524.597	5954.81
524.804	6063.35
525.011	6030.59
525.218	6067.45
525.425	6073.59
525.632	6622.45
525.838	6132.98
526.045	5979.39
526.252	6098.17
526.459	7507.17
526.666	7247.08
526.873	6165.75
527.08	6098.17
527.287	6685.94
527.494	6599.92
527.701	6139.13
527.907	6163.7
528.114	6788.33
528.321	6571.25
528.528	6360.31
528.735	6235.38
528.941	6522.1
529.148	6405.36
529.355	6292.73
529.562	6196.47
529.768	7122.15
529.975	6526.19
530.182	6452.47
530.388	6108.41
530.595	6974.7
530.802	6407.41
531.008	6593.78
531.215	6272.25
531.422	7425.25
531.628	7421.16
531.835	6548.72
532.042	6679.79
532.248	6610.16
532.455	6954.22
532.661	6526.19
532.868	6565.11
533.074	6923.5
533.281	7126.25
533.487	6864.11
533.694	6571.25
533.9	6649.07
534.107	7152.87
534.313	6776.05
534.52	6638.83
534.726	7238.89
534.933	7632.1
535.139	6647.02
535.345	6780.14
535.552	7109.86
535.758	7107.82
535.965	7052.52
536.171	6788.33
536.377	7339.24
536.584	7531.75
536.79	6937.84
536.996	6890.73
537.203	7386.34
537.409	7199.98
537.615	6884.59
537.821	7073
538.028	7458.02
538.234	7525.6
538.44	7019.75
538.646	7150.82
538.853	7525.6
539.059	7468.26
539.265	7558.37
539.471	6819.05
539.677	7550.18
539.883	7533.79
540.09	7273.7
540.296	7695.58
540.502	7435.49
540.708	7255.27
540.914	7507.17
541.12	7390.44
541.326	7746.78
541.532	7501.03
541.738	7460.07
541.944	7265.51
542.15	7902.43
542.356	7724.26
542.562	7455.97
542.768	7470.31
542.974	8203.48
543.18	8205.53
543.386	7427.3
543.592	7406.82
543.798	8123.61
544.004	8103.13
544.21	7544.03
544.415	7523.55
544.621	7802.08
544.827	8109.27
545.033	7638.24
545.239	7711.97
545.445	7564.51
545.651	8031.45
545.856	7709.92
546.062	7584.99
546.268	7881.95
546.474	8039.64
546.679	7736.54
546.885	7859.42
547.091	7890.14
547.297	8309.97
547.502	7910.62
547.708	7568.61
547.914	7910.62
548.119	8320.21
548.325	7656.67
548.531	7677.15
548.736	8516.82
548.942	8058.07
549.147	7937.24
549.353	8021.21
549.559	8453.33
549.764	8328.41
549.97	7890.14
550.175	8070.36
550.381	8160.47
550.586	7998.68
550.792	7996.64
550.997	7961.82
551.203	8203.48
551.408	8535.25
551.614	7869.66
551.819	8113.37
552.025	8711.38
552.23	8901.84
552.435	8139.99
552.641	8377.56
552.846	8449.24
553.052	9008.33
553.257	8164.57
553.462	8340.69
553.668	8295.64
553.873	8637.65
554.078	8355.03
554.283	8189.14
554.489	8682.7
554.694	8819.92
554.899	8371.41
555.105	8688.85
555.31	8738
555.515	8840.4
555.72	8484.05
555.925	8264.92
556.131	8670.42
556.336	8445.14
556.541	8383.7
556.746	8426.71
556.951	8924.37
557.156	9125.07
557.361	8590.55
557.567	8682.7
557.772	9456.84
557.977	8842.45
558.182	8525.01
558.387	8500.44
558.592	8645.84
558.797	9075.91
559.002	8754.38
559.207	8690.9
559.412	8754.38
559.617	9430.21
559.822	8752.34
560.027	8555.73
560.232	8776.91
560.437	9129.16
560.642	8369.37
560.847	8649.94
561.051	9071.82
561.256	9145.55
561.461	8987.85
561.666	8574.16
561.871	8862.93
562.076	9239.75
562.281	8678.61
562.485	8758.48
562.69	9114.83
562.895	9272.52
563.1	8764.62
563.305	8703.18
563.509	9514.18
563.714	9645.25
563.919	8764.62
564.123	8783.06
564.328	8973.52
564.533	9686.21
564.737	8842.45
564.942	8936.65
565.147	9512.13
565.351	9712.83
565.556	9012.43
565.761	9295.05
565.965	9456.84
566.17	8924.37
566.374	9047.24
566.579	9012.43
566.784	9245.9
566.988	9280.71
567.193	8897.74
567.397	8989.9
567.602	9206.98
567.806	9274.57
568.011	9135.31
568.215	9252.04
568.42	9393.35
568.624	9325.77
568.828	9006.28
569.033	9280.71
569.237	9555.14
569.442	9710.79
569.646	8746.19
569.85	9276.62
570.055	9454.79
570.259	9540.8
570.463	9395.4
570.668	9106.63
570.872	9465.03
571.076	9321.67
571.281	9303.24
571.485	9473.22
571.689	9649.35
571.893	9862.33
572.098	9493.7
572.302	9336.01
572.506	9663.68
572.71	9630.91
572.914	9526.47
573.119	9497.8
573.323	10167.48
573.527	10075.32
573.731	9426.12
573.935	9448.65
574.139	9761.98
574.343	9630.91
574.547	9528.52
574.751	9673.92
574.955	10116.28
575.159	10171.58
575.364	9438.41
575.568	9403.59
575.772	9694.4
575.976	10026.17
576.18	9571.52
576.383	9585.86
576.587	10257.59
576.791	10056.89
576.995	9469.12
577.199	9481.41
577.403	10159.29
577.607	10243.26
577.811	9499.84
578.015	9612.48
578.219	10079.42
578.422	10206.39
578.626	9913.53
578.83	9954.49
579.034	10292.41
579.238	10060.99
579.442	9690.31
579.645	10173.63
579.849	9974.97
580.053	10276.02
580.257	9893.05
580.46	10177.72
580.664	10396.85
580.868	10095.8
581.071	10237.11
581.275	10124.47
581.479	9907.39
581.682	10534.07
581.886	9804.99
582.09	10011.84
582.293	10466.49
582.497	10851.5
582.7	10220.73
582.904	9950.4
583.107	10435.77
583.311	10226.87
583.515	10005.69
583.718	10181.82
583.922	10484.92
584.125	10978.48
584.329	10134.71
584.532	10339.51
584.735	10720.43
584.939	10407.09
585.142	10212.54
585.346	10175.67
585.549	10775.73
585.753	10511.54
585.956	10398.9
586.159	10626.23
586.363	11158.7
586.566	10831.02
586.769	10333.37
586.973	10341.56
587.176	10679.47
587.379	11013.29
587.582	10656.95
587.786	10626.23
587.989	10634.42
588.192	11500.71
588.395	10575.03
588.599	10671.28
588.802	10890.42
589.005	10695.86
589.208	10480.82
589.411	10687.67
589.615	11007.15
589.818	11156.65
590.021	10814.64
590.224	10697.91
590.427	11105.45
590.63	11107.5
590.833	10482.87
591.036	10599.6
591.239	10874.03
591.442	10882.22
591.645	10984.62
591.848	10720.43
592.051	11271.34
592.254	11244.71
592.457	10736.82
592.66	10833.07
592.863	11058.35
593.066	11267.24
593.269	10816.69
593.472	10837.17
593.675	10990.77
593.878	11287.72
594.081	10900.66
594.284	10691.76
594.486	11109.55
594.689	11168.94
594.892	10869.94
595.095	11056.3
595.298	11488.42
595.5	11058.35
595.703	11197.61
595.906	10982.57
596.109	11572.39
596.311	11441.32
596.514	10747.06
596.717	11195.56
596.92	11754.66
597.122	11300.01
597.325	10747.06
597.528	10947.76
597.73	11652.26
597.933	11414.7
598.136	11205.8
598.338	10917.04
598.541	11486.37
598.743	11588.77
598.946	11101.36
599.148	11039.92
599.351	11525.29
599.554	11682.98
599.756	11369.64
599.959	11259.05
600.161	11799.71
600.363	12012.7
600.566	11707.55
600.768	11130.03
600.971	11988.13
601.173	11758.75
601.376	11207.85
601.578	11525.29
601.78	11838.62
601.983	12274.84
602.185	11437.22
602.388	11592.87
602.59	11830.43
602.792	11541.67
602.995	11635.88
603.197	11500.71
603.399	11877.54
603.601	12000.41
603.804	11404.46
604.006	11478.18
604.208	11549.86
604.41	11316.39
604.613	11838.62
604.815	11318.44
605.017	12565.65
605.219	11594.92
605.421	12029.09
605.623	11285.67
605.826	12000.41
606.028	12141.72
606.23	11455.65
606.432	11486.37
606.634	12332.19
606.836	12053.66
607.038	11486.37
607.24	11803.81
607.442	11885.73
607.644	11816.1
607.846	11629.73
608.048	11760.8
608.25	12377.24
608.452	11891.87
608.654	11992.22
608.856	11492.52
609.058	12209.31
609.26	12336.28
609.462	11844.77
609.664	11732.13
609.866	12457.11
610.067	12244.12
610.269	11895.97
610.471	11703.46
610.673	11924.64
610.875	12174.49
611.077	11730.08
611.278	11959.45
611.48	11889.82
611.682	12215.45
611.884	12024.99
612.085	11840.67
612.287	11771.04
612.489	12158.11
612.69	11492.52
612.892	12039.33
613.094	12600.47
613.295	11852.96
613.497	11615.4
613.699	11947.17
613.9	12579.99
614.102	12332.19
614.304	11869.34
614.505	11902.11
614.707	12266.65
614.908	12076.19
615.11	11834.53
615.311	11875.49
615.513	12516.5
615.714	12348.57
615.916	11754.66
616.117	11830.43
616.319	12145.82
616.52	12258.46
616.722	11949.22
616.923	11934.88
617.124	12246.17
617.326	12237.98
617.527	11916.45
617.729	12266.65
617.93	12326.04
618.131	12199.07
618.333	11928.74
618.534	11969.69
618.735	12123.29
618.937	12504.21
619.138	11812
619.339	11707.55
619.54	12772.5
619.742	12266.65
619.943	12141.72
620.144	12315.8
620.345	12563.61
620.546	12639.38
620.748	12102.81
620.949	12037.28
621.15	12391.58
621.351	12323.99
621.552	12037.28
621.753	11711.65
621.954	11773.09
622.155	12582.04
622.356	11838.62
622.558	12113.05
622.759	12416.15
622.96	12629.14
623.161	12315.8
623.362	11965.6
623.563	12438.68
623.764	12369.05
623.965	12102.81
624.166	12641.43
624.366	12467.35
624.567	12418.2
624.768	11869.34
624.969	12041.37
625.17	12305.56
625.371	12596.37
625.572	12231.83
625.773	12039.33
625.973	12557.46
626.174	12315.8
626.375	12237.98
626.576	12262.55
626.777	12577.94
626.977	12831.89
627.178	12111
627.379	12364.95
627.58	12323.99
627.78	12262.55
627.981	12328.09
628.182	12442.78
628.382	12784.79
628.583	12233.88
628.784	12139.68
628.984	12315.8
629.185	12739.73
629.386	12645.52
629.586	12428.44
629.787	12102.81
629.987	12885.14
630.188	12397.72
630.388	12317.85
630.589	12119.2
630.79	13137.04
630.99	12741.78
631.191	12090.52
631.391	12430.49
631.591	12606.61
631.792	13038.73
631.992	12410.01
632.193	12305.56
632.393	12887.18
632.594	12608.66
632.794	12254.36
632.994	12346.52
633.195	12764.31
633.395	12633.24
633.595	12459.16
633.796	12747.92
633.996	12448.92
634.196	12817.55
634.397	12154.01
634.597	12428.44
634.797	12280.99
634.997	12807.31
635.198	12502.17
635.398	12291.23
635.598	12706.96
635.798	13331.59
635.998	12727.44
636.199	12203.16
636.399	12649.62
636.599	12407.96
636.799	12457.11
636.999	12747.92
637.199	12684.44
637.399	13079.69
637.599	12639.38
637.799	12541.08
637.999	12905.62
638.199	13507.72
638.399	12448.92
638.599	12817.55
638.799	13235.34
638.999	13520.01
639.199	12948.62
639.399	12639.38
639.599	13370.51
639.799	12608.66
639.999	12663.96
640.199	12635.28
640.399	12985.49
640.599	12612.76
640.799	12909.71
640.998	12829.84
641.198	13212.81
641.398	12930.19
641.598	12663.96
641.798	13036.69
641.997	13941.89
642.197	13003.92
642.397	13020.3
642.597	12883.09
642.796	13264.01
642.996	13347.98
643.196	12717.2
643.395	12799.12
643.595	13341.83
643.795	12758.16
643.994	13028.49
644.194	12833.94
644.394	13221
644.593	13376.65
644.793	13018.25
644.992	12895.38
645.192	13132.94
645.392	12700.82
645.591	12862.61
645.791	13067.41
645.99	13374.6
646.19	13251.72
646.389	12928.14
646.589	12967.06
646.788	13339.79
646.987	13171.85
647.187	13202.57
647.386	12969.1
647.586	13231.24
647.785	13493.38
647.984	13309.07
648.184	13286.54
648.383	13282.44
648.582	13114.51
648.782	13122.7
648.981	13141.13
649.18	13114.51
649.38	13347.98
649.579	13053.07
649.778	13122.7
649.977	13601.93
650.177	13524.1
650.376	12950.67
650.575	12840.08
650.774	13573.25
650.973	13161.61
651.173	13114.51
651.372	13001.87
651.571	13405.32
651.77	13687.94
651.969	13190.28
652.168	13341.83
652.367	13081.74
652.566	13327.5
652.765	13124.75
652.964	13485.19
653.163	13849.73
653.362	13556.87
653.561	13077.65
653.76	13157.52
653.959	13487.24
654.158	13753.48
654.357	13626.5
654.556	13165.71
654.755	13626.5
654.954	13677.7
655.153	13223.05
655.352	13479.05
655.551	13689.99
655.749	13347.98
655.948	13192.33
656.147	13180.04
656.346	13728.9
656.545	13431.94
656.743	13456.52
656.942	13141.13
657.141	13544.58
657.34	13431.94
657.538	13337.74
657.737	13417.61
657.936	13646.98
658.135	13692.04
658.333	13106.32
658.532	13366.41
658.731	14130.3
658.929	13839.49
659.128	13563.01
659.326	13059.21
659.525	13804.67
659.724	13554.82
659.922	13173.9
660.121	13167.76
660.319	13585.54
660.518	13223.05
660.716	12991.63
660.915	13243.53
661.113	13941.89
661.312	13311.11
661.51	13444.23
661.709	13225.1
661.907	13571.21
662.105	13884.55
662.304	13253.77
662.502	13626.5
662.701	14144.64
662.899	13442.18
663.097	13733
663.296	13003.92
663.494	14013.57
663.692	13698.18
663.891	13509.77
664.089	13364.36
664.287	13624.45
664.485	13847.68
664.684	13431.94
664.882	13436.04
665.08	13597.83
665.278	13493.38
665.476	13085.84
665.675	13673.6
665.873	14044.29
666.071	13773.96
666.269	13339.79
666.467	13595.78
666.665	13778.05
666.863	13337.74
667.061	13591.69
667.259	13386.89
667.457	13735.04
667.655	13821.06
667.853	13261.96
668.051	13298.83
668.249	13300.87
668.447	13646.98
668.645	13249.68
668.843	13694.08
669.041	13761.67
669.239	13386.89
669.437	13249.68
669.635	13548.68
669.833	13497.48
670.031	13880.45
670.229	13479.05
670.426	13591.69
670.624	13384.84
670.822	13241.48
671.02	13321.35
671.218	13378.7
671.415	13444.23
671.613	13599.88
671.811	13384.84
672.009	13511.82
672.206	13751.43
672.404	13372.55
672.602	13730.95
672.799	13624.45
672.997	13636.74
673.195	14007.42
673.392	13636.74
673.59	13171.85
673.788	13403.27
673.985	12981.39
674.183	13429.9
674.38	13128.84
674.578	13755.52
674.775	13335.69
674.973	13188.24
675.17	13083.79
675.368	13853.83
675.565	13749.38
675.763	13171.85
675.96	13360.27
676.158	13902.98
676.355	13327.5
676.553	13382.79
676.75	13431.94
676.947	13560.97
677.145	13403.27
677.342	13487.24
677.539	13288.59
677.737	13663.36
677.934	13923.46
678.131	13550.73
678.329	13309.07
678.526	13782.15
678.723	13692.04
678.92	13216.91
679.118	13143.18
679.315	13192.33
679.512	13841.54
679.709	13433.99
679.906	13290.63
680.104	13743.24
680.301	13466.76
680.498	13360.27
680.695	13194.38
680.892	13319.31
681.089	13272.2
681.286	13429.9
681.483	13075.6
681.68	13452.42
681.877	13503.62
682.075	13270.15
682.272	13270.15
682.469	13438.09
682.665	13384.84
682.862	13145.23
683.059	13143.18
683.256	13368.46
683.453	13659.27
683.65	13141.13
683.847	13051.02
684.044	13458.57
684.241	13110.41
684.438	13413.51
684.635	12809.36
684.831	13640.84
685.028	13612.17
685.225	12913.81
685.422	13100.17
685.619	13282.44
685.815	13296.78
686.012	13067.41
686.209	13067.41
686.405	12749.97
686.602	13530.25
686.799	12950.67
686.996	12934.29
687.192	12948.62
687.389	13689.99
687.586	12809.36
687.782	13194.38
687.979	13522.06
688.175	13524.1
688.372	13001.87
688.568	13089.93
688.765	13137.04
688.962	13282.44
689.158	13016.21
689.355	12850.32
689.551	13178
689.748	13038.73
689.944	13012.11
690.14	12899.47
690.337	13296.78
690.533	13075.6
690.73	13020.3
690.926	13126.8
691.123	12991.63
691.319	12932.24
691.515	12823.7
691.712	12864.66
691.908	13335.69
692.104	13059.21
692.301	13143.18
692.497	13137.04
692.693	13286.54
692.889	13419.66
693.086	12721.3
693.282	12623
693.478	13075.6
693.674	13384.84
693.87	12897.42
694.067	12878.99
694.263	13149.32
694.459	13122.7
694.655	13407.37
694.851	13132.94
695.047	13218.96
695.243	13374.6
695.439	13075.6
695.635	12932.24
695.831	13122.7
696.027	12749.97
696.224	12541.08
696.42	12919.95
696.615	13266.06
696.811	13100.17
697.007	12534.93
697.203	12778.64
697.399	13012.11
697.595	13184.14
697.791	12752.02
697.987	13026.45
698.183	12782.74
698.379	12917.9
698.575	13022.35
698.77	12719.25
698.966	12911.76
699.162	13343.88
699.358	12815.51
699.554	12645.52
699.749	13012.11
699.945	13159.56
700.141	12819.6
700.337	12698.77
700.532	12840.08
700.728	12717.2
700.924	12639.38
701.119	12428.44
701.315	12835.99
701.511	12545.17
701.706	12674.2
701.902	12432.54
702.097	12948.62
702.293	12924.05
702.489	12768.4
702.684	12643.48
702.88	12797.07
703.075	12561.56
703.271	12385.43
703.466	12670.1
703.662	12811.41
703.857	12922
704.053	12659.86
704.248	12692.63
704.443	13010.06
704.639	13034.64
704.834	12498.07
705.03	12338.33
705.225	12756.11
705.42	13094.03
705.616	12571.8
705.811	12412.06
706.006	12854.42
706.202	12586.13
706.397	12610.71
706.592	12391.58
706.787	12704.92
706.983	12602.52
707.178	12844.18
707.373	12444.82
707.568	12631.19
707.763	12956.82
707.959	12436.63
708.154	12438.68
708.349	12645.52
708.544	12782.74
708.739	12743.83
708.934	12399.77
709.129	12717.2
709.324	13153.42
709.519	12424.34
709.714	12491.93
709.909	13089.93
710.104	12821.65
710.299	12143.77
710.494	12582.04
710.689	12698.77
710.884	12563.61
711.079	12375.19
711.274	12465.3
711.469	12905.62
711.664	12631.19
711.859	12410.01
712.054	12422.3
712.249	12588.18
712.443	12725.4
712.638	12119.2
712.833	12145.82
713.028	12526.74
713.223	12579.99
713.417	12553.37
713.612	12364.95
713.807	12782.74
714.002	13120.65
714.196	12559.51
714.391	12176.54
714.586	12651.67
714.78	12246.17
714.975	12584.09
715.17	12407.96
715.364	12534.93
715.559	12895.38
715.754	12080.28
715.948	12295.32
716.143	12891.28
716.337	12618.9
716.532	12588.18
716.726	12385.43
716.921	12762.26
717.115	13042.83
717.31	12350.62
717.504	12854.42
717.699	12407.96
717.893	12543.13
718.088	12405.91
718.282	12111
718.476	12555.41
718.671	12356.76
718.865	12076.19
719.059	12149.92
719.254	12299.42
719.448	12567.7
719.642	13495.43
719.837	11791.52
720.031	12586.13
720.225	12407.96
720.419	12063.9
720.614	12000.41
720.808	12502.17
721.002	12137.63
721.196	11932.83
721.39	11680.93
721.585	12291.23
721.779	12258.46
721.973	11945.12
722.167	11711.65
722.361	12293.27
722.555	12381.34
722.749	12053.66
722.943	11875.49
723.137	12000.41
723.331	12356.76
723.525	11861.15
723.719	12135.58
723.913	12377.24
724.107	12534.93
724.301	11998.37
724.495	11930.78
724.689	12567.7
724.883	12579.99
725.077	11789.47
725.271	11965.6
725.465	12326.04
725.659	12213.4
725.853	12127.39
726.046	11783.33
726.24	12037.28
726.434	12246.17
726.628	11955.36
726.822	11830.43
727.015	12528.79
727.209	12364.95
727.403	12010.65
727.596	11766.95
727.79	12260.51
727.984	12444.82
728.177	11678.88
728.371	11941.02
728.565	12260.51
728.758	11781.28
728.952	11869.34
729.146	11711.65
729.339	12326.04
729.533	12094.62
729.726	11934.88
729.92	11826.34
730.113	12328.09
730.307	12186.78
730.5	12113.05
730.694	11783.33
730.887	11848.86
731.081	12209.31
731.274	12070.05
731.468	12065.95
731.661	12256.41
731.854	12166.3
732.048	11988.13
732.241	11748.51
732.435	12053.66
732.628	12100.76
732.821	11986.08
733.014	11809.95
733.208	11930.78
733.401	12215.45
733.594	11824.29
733.788	11728.03
733.981	12506.26
734.174	12135.58
734.367	11721.89
734.56	11883.68
734.754	12082.33
734.947	12231.83
735.14	11719.84
735.333	11791.52
735.526	12215.45
735.719	11644.07
735.912	11820.19
736.105	11926.69
736.298	12180.64
736.491	12027.04
736.684	11582.63
736.877	11613.35
737.07	11898.02
737.263	12217.5
737.456	11654.31
737.649	11568.29
737.842	11895.97
738.035	12068
738.228	11586.72
738.421	12031.13
738.614	12369.05
738.807	12328.09
739	11687.08
739.192	11414.7
739.385	12192.92
739.578	12176.54
739.771	12080.28
739.964	11449.51
740.156	12055.71
740.349	11738.27
740.542	11719.84
740.735	11500.71
740.927	11560.1
741.12	11736.23
741.313	11531.43
741.505	11881.63
741.698	11910.3
741.891	11779.23
742.083	11900.06
742.276	11627.68
742.468	12129.44
742.661	11875.49
742.854	11664.55
743.046	11687.08
743.239	12115.1
743.431	11820.19
743.624	11668.64
743.816	11275.43
744.009	11629.73
744.201	11916.45
744.393	11592.87
744.586	11455.65
744.778	12006.56
744.971	11777.19
745.163	11513
745.355	11486.37
745.548	11930.78
745.74	11904.16
745.932	11566.24
746.125	11670.69
746.317	12725.4
746.509	11992.22
746.702	11412.65
746.894	11508.9
747.086	12008.61
747.278	12190.88
747.471	11793.57
747.663	11707.55
747.855	11766.95
748.047	12240.03
748.239	11504.81
748.431	11279.53
748.623	12133.53
748.815	11932.83
749.008	11283.63
749.2	11312.3
749.392	11814.05
749.584	11586.72
749.776	11492.52
749.968	11803.81
750.16	11984.03
750.352	11791.52
750.544	11472.04
750.736	11478.18
750.928	11973.79
751.12	11781.28
751.311	11297.96
751.503	11435.17
751.695	11951.26
751.887	11582.63
752.079	11123.88
752.271	11308.2
752.463	12438.68
752.654	11846.82
752.846	11293.86
753.038	11220.14
753.23	11336.87
753.421	11807.91
753.613	11279.53
753.805	11482.28
753.997	11814.05
754.188	11793.57
754.38	11093.16
754.572	11347.11
754.763	11433.13
754.955	11670.69
755.146	11541.67
755.338	11211.95
755.53	11717.79
755.721	11488.42
755.913	11056.3
756.104	10986.67
756.296	11441.32
756.487	11744.42
756.679	11105.45
756.87	11035.82
757.062	11480.23
757.253	11603.11
757.445	11457.7
757.636	11246.76
757.827	11318.44
758.019	11916.45
758.21	11058.35
758.401	10869.94
758.593	11908.26
758.784	11658.4
758.975	10792.11
759.167	10806.45
759.358	11353.26
759.549	11418.79
759.74	11001.01
759.932	10792.11
760.123	11324.58
760.314	11115.69
760.505	11144.36
760.696	10953.9
760.888	11609.25
761.079	10888.37
761.27	10978.48
761.461	10693.81
761.652	11611.3
761.843	11048.11
762.034	10939.57
762.225	11170.99
762.416	11142.32
762.607	11064.49
762.798	10951.85
762.989	10683.57
763.18	11881.63
763.371	10790.06
763.562	10675.38
763.753	10749.11
763.944	11291.82
764.135	11023.53
764.326	10951.85
764.517	10890.42
764.708	10964.14
764.899	11021.49
765.089	10665.14
765.28	10398.9
765.471	11146.41
765.662	11207.85
765.853	10945.71
766.043	10286.26
766.234	10953.9
766.425	11060.4
766.615	10783.92
766.806	10538.16
766.997	11199.66
767.187	11054.25
767.378	10638.51
767.569	10417.33
767.759	10976.43
767.95	10841.26
768.141	10792.11
768.331	10310.84
768.522	10683.57
768.712	10972.33
768.903	10337.46
769.093	10439.86
769.284	11099.31
769.474	10486.97
769.665	10192.06
769.855	10085.56
770.046	11005.1
770.236	10398.9
770.426	10552.5
770.617	10308.79
770.807	10540.21
770.998	10517.68
771.188	10536.12
771.378	10065.08
771.569	10851.5
771.759	10806.45
771.949	10081.47
772.139	10114.24
772.33	10542.26
772.52	10779.82
772.71	10108.09
772.9	9942.21
773.09	10652.85
773.281	10509.49
773.471	9972.93
773.661	10069.18
773.851	10620.08
774.041	10085.56
774.231	10183.87
774.421	10175.67
774.611	10470.58
774.802	10374.33
774.992	10116.28
775.182	9991.36
775.372	10106.04
775.562	10489.01
775.752	10030.27
775.942	9995.45
776.131	10669.23
776.321	10468.53
776.511	10001.6
776.701	9891.01
776.891	10224.83
777.081	9753.79
777.271	9991.36
777.461	9827.52
777.651	10400.95
777.84	10372.28
778.03	10149.05
778.22	9761.98
778.41	10384.57
778.599	9929.92
778.789	9956.54
778.979	9878.72
779.169	10157.24
779.358	9987.26
779.548	10286.26
779.738	9774.27
779.927	9936.06
780.117	9864.38
780.307	9622.72
780.496	9510.08
780.686	10222.78
780.875	10251.45
781.065	9667.78
781.254	9718.98
781.444	9974.97
781.633	9927.87
781.823	9624.77
782.012	9397.45
782.202	9534.66
782.391	9669.83
782.581	9440.45
782.77	9639.11
782.96	9981.12
783.149	9729.22
783.338	9508.04
783.528	9309.38
783.717	9979.07
783.906	10079.42
784.096	9553.09
784.285	9501.89
784.474	9495.75
784.663	9491.65
784.853	9374.92
785.042	9336.01
785.231	9714.88
785.42	9938.11
785.61	9643.2
785.799	9258.18
785.988	9354.44
786.177	9524.42
786.366	9538.76
786.555	9770.18
786.744	9938.11
786.933	9571.52
787.122	9219.27
787.312	9145.55
787.501	9403.59
787.69	9678.02
787.879	9223.37
788.068	9125.07
788.257	9014.48
788.445	9268.42
788.634	9352.39
788.823	9000.14
789.012	10036.41
789.201	9821.38
789.39	9233.61
789.579	8899.79
789.768	9297.1
789.957	9444.55
790.145	9129.16
790.334	8746.19
790.523	9262.28
790.712	9112.78
790.9	9184.46
791.089	8791.25
791.278	9688.26
791.467	9481.41
791.655	9315.53
791.844	9667.78
792.033	9274.57
792.221	9157.83
792.41	9129.16
792.599	8838.35
792.787	9317.58
792.976	9499.84
793.164	8926.41
793.353	8930.51
793.541	9499.84
793.73	9458.89
793.918	9020.62
794.107	8987.85
794.295	9172.17
794.484	9249.99
794.672	9008.33
794.861	8848.59
795.049	9305.29
795.238	9438.41
795.426	8613.07
795.614	8854.73
795.803	9243.85
795.991	9387.21
796.179	8901.84
796.368	8852.69
796.556	9436.36
796.744	8799.44
796.932	8768.72
797.121	8785.1
797.309	8948.94
797.497	9235.66
797.685	8824.01
797.874	8830.16
798.062	8944.84
798.25	9286.86
798.438	8508.63
798.626	8588.5
798.814	9186.51
799.002	9565.38
799.19	8928.46
799.378	8699.09
799.566	9139.4
799.755	9301.19
799.943	8994
800.131	8768.72
800.318	9065.68
800.506	9385.16
800.694	8842.45
800.882	8850.64
801.07	9415.88
801.258	9186.51
801.446	8758.48
801.634	8789.2
801.822	9018.57
802.01	9047.24
802.197	8864.97
802.385	8891.6
802.573	9108.68
802.761	8844.49
802.949	9114.83
803.136	8729.81
803.324	9354.44
803.512	9260.23
803.699	8703.18
803.887	8619.22
804.075	9288.9
804.262	9118.92
804.45	8557.78
804.638	9006.28
804.825	8858.83
805.013	8926.41
805.201	8875.21
805.388	8735.95
805.576	8977.61
805.763	9608.39
805.951	8811.73
806.138	8875.21
806.326	9682.11
806.513	9135.31
806.701	8944.84
806.888	9018.57
807.075	9133.26
807.263	9462.98
807.45	8654.03
807.638	8903.89
807.825	9706.69
808.012	9442.5
808.2	8907.98
808.387	9016.52
808.574	9192.65
808.761	9526.47
808.949	8744.14
809.136	9112.78
809.323	8795.34
809.51	9086.15
809.698	9106.63
809.885	9002.19
810.072	9288.9
810.259	9612.48
810.446	9135.31
810.633	9112.78
810.82	9600.19
811.008	9827.52
811.195	9204.94
811.382	8973.52
811.569	9372.87
811.756	8918.22
811.943	9180.36
812.13	8821.97
812.317	9034.96
812.504	9170.12
812.691	9067.72
812.878	9166.03
813.064	9688.26
813.251	9174.22
813.438	9084.11
813.625	9145.55
813.812	9333.96
813.999	8991.95
814.186	9256.14
814.372	9037
814.559	9430.21
814.746	9592
814.933	8883.41
815.12	9069.77
815.306	9157.83
815.493	9098.44
815.68	8932.56
815.866	8950.99
816.053	9266.38
816.24	9772.22
816.426	9084.11
816.613	8891.6
816.799	9180.36
816.986	9510.08
817.173	8828.11
817.359	8875.21
817.546	9274.57
817.732	8740.05
817.919	8846.54
818.105	9084.11
818.292	9159.88
818.478	9387.21
818.665	9073.87
818.851	8916.17
819.037	9721.02
819.224	9331.91
819.41	8694.99
819.597	8867.02
819.783	9448.65
819.969	9381.06
820.156	9018.57
820.342	8899.79
820.528	10247.35
820.714	9299.14
820.901	9153.74
821.087	8973.52
821.273	9645.25
821.459	9168.07
821.646	8766.67
821.832	8905.93
822.018	9215.18
822.204	9200.84
822.39	8950.99
822.576	8758.48
822.762	9155.79
822.948	8899.79
823.134	8893.65
823.32	8688.85
823.507	8830.16
823.693	9123.02
823.879	9166.03
824.065	8860.88
824.25	9202.89
824.436	8776.91
824.622	8647.89
824.808	8740.05
824.994	8932.56
825.18	9055.44
825.366	8686.8
825.552	8533.2
825.738	8963.28
825.923	9163.98
826.109	8977.61
826.295	8748.24
826.481	8842.45
826.667	9006.28
826.852	8809.68
827.038	8674.51
827.224	9223.37
827.409	9268.42
827.595	8281.3
827.781	8574.16
827.966	9051.34
828.152	9178.31
828.338	8735.95
828.523	8590.55
828.709	8760.53
828.894	9149.64
829.08	8627.41
829.266	8410.33
829.451	8662.23
829.637	8666.32
829.822	8705.23
830.008	8588.5
830.193	9063.63
830.378	9163.98
830.564	8508.63
830.749	8180.95
830.935	8723.66
831.12	8772.82
831.305	8475.86
831.491	8596.69
831.676	8385.75
831.861	8899.79
832.047	8441.04
832.232	8309.97
832.417	8985.8
832.602	8641.75
832.788	8207.58
832.973	8203.48
833.158	8565.97
833.343	8555.73
833.528	8312.02
833.714	8434.9
833.899	8594.64
834.084	8971.47
834.269	8545.49
834.454	8068.31
834.639	8959.18
834.824	8600.79
835.009	8553.68
835.194	8361.17
835.379	8744.14
835.564	8889.55
835.749	8381.65
835.934	8187.1
836.119	8514.77
836.304	8533.2
836.489	8078.55
836.674	8363.22
836.859	8363.22
837.044	8873.17
837.228	8258.78
837.413	7980.25
837.598	8510.68
837.783	8680.66
837.968	8416.47
838.152	7939.29
838.337	8119.51
838.522	8588.5
838.707	8656.08
838.891	8402.13
839.076	8271.06
839.261	8416.47
839.445	7927
839.63	8254.68
839.815	8617.17
839.999	8264.92
840.184	8125.66
840.368	8236.25
840.553	8549.59
840.737	8342.74
840.922	7914.72
841.106	7836.89
841.291	8135.9
841.475	8295.64
841.66	7994.59
841.844	7857.37
842.029	8791.25
842.213	8010.97
842.397	7943.39
842.582	7826.65
842.766	8516.82
842.951	8518.87
843.135	7933.15
843.319	7791.84
843.504	8119.51
843.688	8068.31
843.872	7613.67
844.056	7824.61
844.241	8244.44
844.425	7998.68
844.609	8006.88
844.793	7359.72
844.977	8226.01
845.161	8072.41
845.346	7664.86
845.53	7656.67
845.714	8033.5
845.898	8254.68
846.082	7351.53
846.266	7568.61
846.45	8023.26
846.634	8060.12
846.818	7697.63
847.002	7832.8
847.186	8066.27
847.37	7646.43
847.554	7632.1
847.738	7654.62
847.922	7869.66
848.106	8201.43
848.29	7490.79
848.473	7621.86
848.657	7822.56
848.841	7879.9
849.025	7435.49
849.209	7423.2
849.392	7853.28
849.576	7863.52
849.76	7484.64
849.944	7697.63
850.127	7984.35
850.311	7355.62
850.495	7374.05
850.678	7163.11
850.862	7939.29
851.046	8060.12
851.229	7689.44
851.413	7265.51
851.596	7728.35
851.78	7591.14
851.964	7611.62
852.147	7517.41
852.331	8375.51
852.514	8123.61
852.698	7455.97
852.881	7230.69
853.065	7881.95
853.248	7552.23
853.431	7421.16
853.615	7558.37
853.798	8144.09
853.982	7568.61
854.165	7498.98
854.348	7400.68
854.532	7349.48
854.715	7349.48
854.898	7361.77
855.081	7312.61
855.265	7687.39
855.448	7902.43
855.631	7150.82
855.814	7081.19
855.997	7810.27
856.181	7423.2
856.364	7320.81
856.547	7032.04
856.73	7412.96
856.913	7378.15
857.096	7097.58
857.279	7077.1
857.462	7191.78
857.645	7466.21
857.828	7242.98
858.011	7318.76
858.194	7175.4
858.377	7556.32
858.56	7015.66
858.743	7146.73
858.926	7052.52
859.109	7372
859.292	6921.45
859.475	6878.44
859.658	7597.28
859.841	7455.97
860.023	6905.07
860.206	6907.12
860.389	7226.6
860.572	7486.69
860.755	7023.85
860.937	7075.05
861.12	7175.4
861.303	7269.61
861.486	7062.76
861.668	6741.23
861.851	7369.96
862.034	7433.44
862.216	6941.93
862.399	6585.58
862.581	7247.08
862.764	7564.51
862.947	7042.28
863.129	6778.09
863.312	6814.96
863.494	7402.72
863.677	7091.43
863.859	6704.37
864.042	7257.32
864.224	7306.47
864.406	6872.3
864.589	6552.82
864.771	7091.43
864.954	6755.57
865.136	6685.94
865.318	6618.35
865.501	7087.34
865.683	6589.68
865.865	6749.42
866.048	6667.5
866.23	6927.6
866.412	6972.65
866.594	6667.5
866.777	6657.26
866.959	7048.43
867.141	6661.36
867.323	6876.4
867.505	6696.18
867.687	6739.18
867.869	6745.33
868.052	6825.2
868.234	6329.59
868.416	6847.72
868.598	6786.29
868.78	6575.35
868.962	6415.6
869.144	7175.4
869.326	7011.56
869.508	6610.16
869.69	6405.36
869.872	6712.56
870.054	6804.72
870.236	6245.62
870.417	6401.27
870.599	6577.39
870.781	6956.27
870.963	6618.35
871.145	6352.12
871.327	6591.73
871.508	6759.66
871.69	6546.67
871.872	6421.75
872.054	6722.8
872.235	6874.35
872.417	6286.58
872.599	6397.17
872.78	7068.91
872.962	6964.46
873.144	6302.97
873.325	6417.65
873.507	6984.94
873.689	6743.28
873.87	6536.43
874.052	6464.75
874.233	6628.59
874.415	6892.78
874.596	6536.43
874.778	6270.2
874.959	6755.57
875.141	6900.97
875.322	6565.11
875.503	6444.27
875.685	6831.34
875.866	6276.34
876.048	6362.36
876.229	6464.75
876.41	6503.67
876.592	6860.01
876.773	6427.89
876.954	6221.05
877.136	6837.49
877.317	6671.6
877.498	6210.81
877.679	6540.53
877.86	6862.06
878.042	6647.02
878.223	6366.45
878.404	6753.52
878.585	6831.34
878.766	7146.73
878.947	6728.94
879.128	6675.7
879.309	6763.76
879.49	6915.31
879.672	6618.35
879.853	6456.56
880.034	6757.61
880.215	6726.89
880.396	6513.91
880.576	6638.83
880.757	6601.97
880.938	6968.56
881.119	6413.56
881.3	6583.54
881.481	6657.26
881.662	7722.21
881.843	6530.29
882.023	6563.06
882.204	6853.87
882.385	6837.49
882.566	6493.43
882.747	6466.8
882.927	6907.12
883.108	7003.37
883.289	6610.16
883.469	6851.82
883.65	7029.99
883.831	6755.57
884.011	6837.49
884.192	6714.61
884.373	7367.91
884.553	7001.32
884.734	6866.16
884.914	6911.21
885.095	7795.93
885.275	7513.31
885.456	7058.67
885.636	6749.42
885.817	7093.48
885.997	7075.05
886.178	6669.55
886.358	6823.15
886.538	7245.03
886.719	8105.18
886.899	6774
887.08	7087.34
887.26	7451.88
887.44	6810.86
887.621	6753.52
887.801	7060.71
887.981	7544.03
888.161	7423.2
888.342	6933.74
888.522	6763.76
888.702	7472.36
888.882	7304.42
889.062	6927.6
889.242	6659.31
889.423	7435.49
889.603	7335.14
889.783	7177.45
889.963	6728.94
890.143	7357.67
890.323	7384.29
890.503	6894.83
890.683	6853.87
890.863	7212.26
891.043	7124.2
891.223	6941.93
891.403	6970.6
891.583	7101.67
891.763	7107.82
891.943	6819.05
892.122	6704.37
892.302	7163.11
892.482	7056.62
892.662	7093.48
892.842	6849.77
893.022	7189.74
893.201	6958.32
893.381	7044.33
893.561	6782.19
893.741	7359.72
893.92	7007.47
894.1	6937.84
894.28	6849.77
894.459	7095.53
894.639	7359.72
894.819	6817.01
894.998	7132.39
895.178	7314.66
895.357	7058.67
895.537	6716.65
895.716	6741.23
895.896	6782.19
896.075	7372
896.255	6741.23
896.434	6470.9
896.614	7396.58
896.793	7335.14
896.973	7077.1
897.152	6917.36
897.331	7214.31
897.511	7199.98
897.69	6456.56
897.87	6882.54
898.049	7093.48
898.228	6835.44
898.407	6810.86
898.587	6878.44
898.766	6704.37
898.945	7009.51
899.124	6761.71
899.304	6776.05
899.483	7060.71
899.662	7361.77
899.841	6544.63
900.02	6606.06
900.199	7253.22
900.378	6978.79
900.557	6536.43
900.737	6354.16
900.916	6954.22
901.095	6866.16
901.274	6489.33
901.453	6284.53
901.632	6558.96
901.811	6434.04
901.989	6487.28
902.168	6262.01
902.347	6792.43
902.526	6462.71
902.705	6321.4
902.884	6208.76
903.063	6765.81
903.242	6757.61
903.42	6186.23
903.599	6548.72
903.778	6718.7
903.957	6769.9
904.135	6286.58
904.314	6403.32
904.493	6489.33
904.672	6483.19
904.85	6157.56
905.029	6178.04
905.207	6491.38
905.386	6978.79
905.565	5903.61
905.743	5987.58
905.922	6143.22
906.1	6169.85
906.279	5670.14
906.457	5686.53
906.636	6098.17
906.814	6073.59
906.993	5657.85
907.171	5598.46
907.35	6253.81
907.528	6266.1
907.707	5909.76
907.885	5537.02
908.063	6229.24
908.242	5723.39
908.42	5549.31
908.598	5389.57
908.777	6028.54
908.955	5647.62
909.133	5713.15
909.311	5418.24
909.49	5682.43
909.668	5801.21
909.846	5625.09
910.024	5348.61
910.202	5993.72
910.38	6044.92
910.559	5371.14
910.737	5442.82
910.915	5971.19
911.093	5965.05
911.271	5850.36
911.449	5942.52
911.627	6049.02
911.805	6583.54
911.983	5737.73
912.161	5825.79
912.339	6065.4
912.517	6403.32
912.695	5999.87
912.872	5915.9
913.05	5942.52
913.228	6153.46
913.406	5983.48
913.584	5727.49
913.762	6339.83
913.939	5801.21
914.117	5876.99
914.295	5901.56
914.473	6157.56
914.65	6141.18
914.828	5582.08
915.006	5696.77
915.184	5752.06
915.361	6057.21
915.539	5889.28
915.716	5905.66
915.894	6003.96
916.072	6163.7
916.249	5893.37
916.427	5786.88
916.604	5733.63
916.782	6022.39
916.959	5725.44
917.137	5670.14
917.314	5848.32
917.492	6010.11
917.669	5711.1
917.847	5737.73
918.024	5936.38
918.201	5594.37
918.379	5672.19
918.556	5680.38
918.733	5975.29
918.911	5803.26
919.088	5926.14
919.265	5575.94
919.442	5911.8
919.62	5876.99
919.797	5651.71
919.974	5401.86
920.151	6001.91
920.328	5827.84
920.506	5651.71
920.683	5864.7
920.86	5491.97
921.037	5727.49
921.214	5829.88
921.391	5588.22
921.568	6028.54
921.745	5768.45
921.922	5596.42
922.099	5403.91
922.276	5956.86
922.453	5754.11
922.63	5375.24
922.807	5733.63
922.984	5754.11
923.161	5602.56
923.338	5412.1
923.514	5475.59
923.691	5704.96
923.868	5860.6
924.045	5467.39
924.222	5289.22
924.399	5545.22
924.575	5823.74
924.752	5328.13
924.929	5379.33
925.105	5747.97
925.282	5401.86
925.459	5172.49
925.635	5408
925.812	5336.32
925.989	5418.24
926.165	5188.87
926.342	5027.08
926.518	5258.5
926.695	5627.14
926.871	5141.77
927.048	5100.81
927.224	5559.55
927.401	5358.85
927.577	5008.65
927.754	4990.22
927.93	5522.69
928.107	5612.8
928.283	5035.27
928.459	5176.58
928.636	5557.5
928.812	5004.55
928.988	4912.39
929.165	4953.35
929.341	5106.95
929.517	5242.12
929.693	5315.84
929.87	4691.21
930.046	5125.38
930.222	4912.39
930.398	4857.1
930.574	5057.8
930.751	5115.14
930.927	4988.17
931.103	4799.76
931.279	4857.1
931.455	4871.43
931.631	4898.06
931.807	4523.28
931.983	4418.83
932.159	4623.63
932.335	4848.91
932.511	4654.35
932.687	4568.34
932.863	4865.29
933.039	4748.56
933.215	4560.14
933.391	4410.64
933.566	4601.1
933.742	4521.23
933.918	4369.68
934.094	4259.09
934.27	4578.58
934.445	4521.23
934.621	4345.11
934.797	4224.28
934.973	4680.97
935.148	4723.98
935.324	4144.41
935.5	3982.62
935.675	4623.63
935.851	4224.28
936.027	3929.37
936.202	3886.36
936.378	4316.44
936.553	4148.5
936.729	4140.31
936.904	3659.04
937.08	3525.92
937.255	3706.14
937.431	3452.19
937.606	3446.05
937.782	3681.57
937.957	3792.16
938.133	3423.52
938.308	3290.4
938.483	3493.15
938.659	3355.94
938.834	3400.99
939.009	3058.98
939.185	3228.96
939.36	3179.81
939.535	2932.01
939.71	3155.24
939.886	3366.18
940.061	3286.31
940.236	3140.9
940.411	2880.81
940.586	3235.11
940.761	3108.13
940.937	2889
941.112	2733.36
941.287	3042.6
941.462	3159.33
941.637	2577.71
941.812	2663.72
941.987	2999.59
942.162	2874.67
942.337	2762.03
942.512	2495.79
942.687	2929.96
942.862	2997.54
943.037	2526.51
943.212	2268.47
943.386	2653.48
943.561	2837.8
943.736	2667.82
943.911	2805.03
944.086	2764.08
944.26	2784.55
944.435	2602.29
944.61	2667.82
944.785	2954.54
944.959	3167.53
945.134	2637.1
945.309	2374.96
945.483	2450.74
945.658	3071.27
945.833	2293.04
946.007	2362.67
946.182	3157.29
946.357	2489.65
946.531	2467.12
946.706	2497.84
946.88	2415.92
947.055	2891.05
947.229	2458.93
947.404	2440.5
947.578	3044.65
947.752	2579.76
947.927	2463.02
948.101	2481.46
948.276	2856.23
948.45	2780.46
948.624	2794.79
948.799	2522.41
948.973	3042.6
949.147	2499.89
949.321	2665.77
949.496	2553.13
949.67	3122.47
949.844	2743.6
950.018	2559.28
950.193	2778.41
950.367	3241.25
950.541	2739.5
950.715	2782.51
950.889	2776.36
951.063	2778.41
951.237	3044.65
951.411	2637.1
951.585	2590
951.759	2964.78
951.933	2919.72
952.107	2667.82
952.281	2827.56
952.455	3331.36
952.629	3097.89
952.803	2680.11
952.977	2741.55
953.151	3128.61
953.325	2972.97
953.499	2936.1
953.672	2557.23
953.846	2768.17
954.02	2932.01
954.194	2665.77
954.368	2798.89
954.541	3194.15
954.715	2876.71
954.889	2850.09
955.062	2635.05
955.236	3034.41
955.41	2993.45
955.583	2985.26
955.757	2788.65
955.93	3122.47
956.104	2895.15
956.278	2784.55
956.451	2794.79
956.625	3081.51
956.798	3484.96
956.972	3116.33
957.145	2747.69
957.319	2907.43
957.492	3015.98
957.665	2964.78
957.839	2698.54
958.012	3159.33
958.185	3071.27
958.359	3013.93
958.532	3108.13
958.705	3306.79
958.879	3142.95
959.052	2929.96
959.225	2688.3
959.398	3071.27
959.572	3048.74
959.745	2809.13
959.918	2792.75
960.091	2981.16
960.264	3265.83
960.438	2745.64
960.611	2665.77
960.784	3214.63
960.957	2987.3
961.13	3190.05
961.303	2921.77
961.476	2997.54
961.649	3296.55
961.822	2749.74
961.995	2995.5
962.168	3269.92
962.341	3183.91
962.514	2884.91
962.686	2958.63
962.859	3345.7
963.032	3368.23
963.205	2735.4
963.378	2641.2
963.551	3142.95
963.723	3153.19
963.896	2977.06
964.069	3032.36
964.242	2936.1
964.414	3220.77
964.587	2987.3
964.76	2989.35
964.932	3089.7
965.105	2923.82
965.278	2737.45
965.45	2790.7
965.623	3179.81
965.795	3104.04
965.968	2829.61
966.14	2766.12
966.313	3063.08
966.485	3081.51
966.658	2817.32
966.83	2759.98
967.003	3394.85
967.175	3286.31
967.348	2833.71
967.52	2780.46
967.692	3325.22
967.865	3360.03
968.037	2919.72
968.209	3083.56
968.382	3108.13
968.554	3341.6
968.726	2753.84
968.898	2682.16
969.071	3036.46
969.243	3065.13
969.415	2891.05
969.587	2805.03
969.759	3534.11
969.932	3364.13
970.104	2929.96
970.276	2579.76
970.448	2899.24
970.62	2843.95
970.792	2817.32
970.964	2680.11
971.136	3378.47
971.308	2960.68
971.48	2651.44
971.652	2667.82
971.824	3216.68
971.996	2782.51
972.168	2766.12
972.339	2782.51
972.511	3116.33
972.683	2831.66
972.855	2921.77
973.027	2800.94
973.199	2907.43
973.37	3091.75
973.542	2848.04
973.714	2839.85
973.886	2772.27
974.057	3145
974.229	2477.36
974.401	2536.75
974.572	2616.62
974.744	2444.59
974.915	2571.57
975.087	2594.09
975.259	3149.09
975.43	2657.58
975.602	2485.55
975.773	2407.73
975.945	2645.29
976.116	2956.58
976.288	2485.55
976.459	2706.73
976.63	2727.21
976.802	2911.53
976.973	2526.51
977.145	2741.55
977.316	3228.96
977.487	3228.96
977.659	2665.77
977.83	2469.17
978.001	2979.11
978.172	2745.64
978.344	2424.11
978.515	2508.08
978.686	2526.51
978.857	2966.82
979.028	2493.74
979.2	2336.05
979.371	2878.76
979.542	2704.68
979.713	2669.87
979.884	2065.72
980.055	2397.49
980.226	2465.07
980.397	2420.02
980.568	2266.42
980.739	2817.32
980.91	2561.33
981.081	2411.82
981.252	2321.71
981.423	2747.69
981.594	2813.23
981.765	2374.96
981.936	2454.83
982.106	2540.85
982.277	2874.67
982.448	2338.1
982.619	2444.59
982.79	2407.73
982.96	2829.61
983.131	2434.35
983.302	2166.07
983.472	2463.02
983.643	2571.57
983.814	2309.43
983.984	2186.55
984.155	2452.78
984.326	2604.33
984.496	2399.54
984.667	2067.77
984.837	2245.94
985.008	2735.4
985.178	2379.06
985.349	2198.84
985.519	2389.3
985.69	2116.92
985.86	2178.36
986.031	2096.44
986.201	2399.54
986.371	2309.43
986.542	2082.1
986.712	1914.17
986.882	2391.34
987.053	2522.41
987.223	2037.05
987.393	2260.27
987.563	2184.5
987.734	2585.9
987.904	2397.49
988.074	2073.91
988.244	2325.81
988.414	2204.98
988.585	2102.58
988.755	2125.11
988.925	2245.94
989.095	2485.55
989.265	1891.64
989.435	1994.04
989.605	2299.19
989.775	2350.39
989.945	2256.18
990.115	1797.43
990.285	2225.46
990.455	2194.74
990.625	2080.05
990.795	1879.35
990.965	2555.18
991.134	1926.46
991.304	1838.39
991.474	1867.06
991.644	2159.92
991.814	2432.3
991.984	1932.6
992.153	1717.56
992.323	2170.16
992.493	2045.24
992.662	1619.26
992.832	2026.81
993.002	2159.92
993.171	2026.81
993.341	1592.64
993.511	1916.22
993.68	1887.54
993.85	2264.37
994.019	1713.47
994.189	1615.16
994.358	1946.94
994.528	1848.63
994.697	1477.95
994.867	1606.97
995.036	2219.32
995.206	1854.78
995.375	1699.13
995.544	1918.26
995.714	2065.72
995.883	1918.26
996.052	1924.41
996.222	1480
996.391	2424.11
996.56	1838.39
996.73	1449.28
996.899	1604.92
997.068	2245.94
997.237	1908.02
997.406	1514.81
997.576	1453.38
997.745	1979.7
997.914	1932.6
998.083	1404.22
998.252	1561.92
998.421	1795.39
998.59	1609.02
998.759	1346.88
998.928	1361.22
999.097	2114.87
999.266	1955.13
999.435	1785.15
999.604	1439.04
999.773	2196.79
999.942	1715.52
1000.111	1334.59
1000.28	1389.89
1000.448	1592.64
1000.617	1582.4
1000.786	1611.07
1000.955	1480
1001.124	1883.45
1001.292	2413.87
1001.461	1434.94
1001.63	1338.69
1001.798	2108.73
1001.967	2035
1002.136	1301.83
1002.304	1369.41
1002.473	1735.99
1002.642	1643.84
1002.81	1451.33
1002.979	1318.21
1003.147	1930.55
1003.316	2274.61
1003.484	1342.78
1003.653	1189.19
1003.821	1938.74
1003.99	1549.63
1004.158	1463.62
1004.327	1355.07
1004.495	1772.86
1004.663	1236.29
1004.832	1465.66
1005	1094.98
1005.168	1721.66
1005.337	1535.29
1005.505	1140.04
1005.673	1373.5
1005.842	1664.32
1006.01	1670.46
1006.178	1121.6
1006.346	1176.9
1006.514	1699.13
1006.683	1789.24
1006.851	1172.8
1007.019	1283.39
1007.187	1283.39
1007.355	1043.78
1007.523	972.1
1007.691	1092.93
1007.859	1232.19
1008.027	1875.26
1008.195	1275.2
1008.363	1064.26
1008.531	1666.36
1008.699	1293.63
1008.867	1025.35
1009.035	1156.42
1009.203	1789.24
1009.37	1412.42
1009.538	1172.8
1009.706	1535.29
1009.874	1428.8
1010.042	1334.59
1010.209	908.62
1010.377	890.18
1010.545	1506.62
1010.713	1383.74
1010.88	1060.17
1011.048	1137.99
1011.216	1281.35
1011.383	1660.22
1011.551	920.9
1011.718	949.57
1011.886	1592.64
1012.054	1383.74
1012.221	904.52
1012.389	978.25
1012.556	1293.63
1012.724	1678.65
1012.891	1039.69
1013.058	879.94
1013.226	1420.61
1013.393	1486.14
1013.561	791.88
1013.728	873.8
1013.895	1428.8
1014.063	1365.31
1014.23	793.93
1014.397	767.31
1014.565	1506.62
1014.732	1199.43
1014.899	822.6
1015.066	769.35
1015.233	1363.26
1015.401	1383.74
1015.568	863.56
1015.735	865.61
1015.902	1236.29
1016.069	1240.39
1016.236	845.13
1016.403	779.59
1016.57	953.67
1016.737	1369.41
1016.904	916.81
1017.071	836.94
1017.238	961.86
1017.405	1258.82
1017.572	761.16
1017.739	976.2
1017.906	1383.74
1018.073	1393.98
1018.24	705.87
1018.407	834.89
1018.573	1488.19
1018.74	920.9
1018.907	765.26
1019.074	542.03
1019.241	1293.63
1019.407	1064.26
1019.574	699.72
1019.741	544.08
1019.907	1123.65
1020.074	1150.28
1020.241	511.31
1020.407	556.36
1020.574	1142.08
1020.74	1181
1020.907	669
1021.073	560.46
1021.24	1570.11
1021.406	1387.84
1021.573	542.03
1021.739	580.94
1021.906	1201.48
1022.072	879.94
1022.239	626
1022.405	671.05
1022.571	922.95
1022.738	879.94
1022.904	582.99
1023.07	730.44
1023.237	1058.12
1023.403	1154.37
1023.569	675.15
1023.735	638.28
1023.902	1115.46
1024.068	1011.01
1024.234	556.36
1024.4	568.65
1024.566	1002.82
1024.732	1154.37
1024.898	728.39
1025.065	482.64
1025.231	1097.03
1025.397	746.83
1025.563	578.89
1025.729	404.82
1025.895	593.23
1026.061	791.88
1026.227	472.4
1026.392	496.97
1026.558	1166.66
1026.724	988.49
1026.89	552.27
1027.056	689.48
1027.222	929.1
1027.388	742.73
1027.553	554.32
1027.719	417.1
1027.885	1211.71
1028.051	988.49
1028.216	322.9
1028.382	507.21
1028.548	1017.16
1028.713	716.11
1028.879	376.14
1029.045	621.9
1029.21	1166.66
1029.376	1086.79
1029.541	578.89
1029.707	496.97
1029.873	910.66
1030.038	1017.16
1030.204	474.45
1030.369	560.46
1030.534	916.81
1030.7	759.11
1030.865	490.83
1031.031	382.29
1031.196	949.57
1031.361	929.1
1031.527	513.36
1031.692	324.94
1031.857	439.63
1032.023	941.38
1032.188	339.28
1032.353	466.25
1032.518	1187.14
1032.684	871.75
1032.849	298.32
1033.014	556.36
1033.179	1039.69
1033.344	990.53
1033.509	537.93
1033.674	410.96
1033.839	931.14
1034.004	914.76
1034.17	425.29
1034.335	353.62
1034.5	576.84
1034.664	589.13
1034.829	374.1
1034.994	388.43
1035.159	810.31
1035.324	736.59
1035.489	378.19
1035.654	413.01
1035.819	1054.02
1035.984	865.61
1036.148	490.83
1036.313	402.77
1036.478	988.49
1036.643	703.82
1036.807	415.06
1036.972	318.8
1037.137	1033.54
1037.301	740.68
1037.466	150.87
1037.631	425.29
1037.795	1035.59
1037.96	736.59
1038.124	470.35
1038.289	277.84
1038.454	830.79
1038.618	867.66
1038.783	382.29
1038.947	314.7
1039.111	769.35
1039.276	572.75
1039.44	288.08
1039.605	798.03
1039.769	578.89
1039.933	687.43
1040.098	404.82
1040.262	523.6
1040.426	871.75
1040.591	826.7
1040.755	249.17
1040.919	343.38
1041.083	920.9
1041.248	666.96
1041.412	46.42
1041.576	159.06
1041.74	560.46
1041.904	843.08
1042.068	283.99
1042.232	269.65
1042.397	824.65
1042.561	683.34
1042.725	83.28
1042.889	421.2
1043.053	845.13
1043.217	838.98
1043.381	519.5
1043.544	105.81
1043.708	822.6
1043.872	347.47
1044.036	-17.07
1044.2	114
1044.364	818.5
1044.528	1035.59
1044.691	1477.95
1044.855	73.04
1045.019	879.94
1045.183	789.83
1045.346	294.22
1045.51	171.35
1045.674	691.53
1045.837	752.97
1046.001	220.5
1046.165	200.02
1046.328	1146.18
1046.492	605.52
1046.655	402.77
1046.819	232.79
1046.983	484.69
1047.146	689.48
1047.31	263.51
1047.473	54.61
1047.636	562.51
1047.8	402.77
1047.963	230.74
1048.127	95.57
1048.29	355.66
