Data from Hydrogel_Ink_Intensity_Test_1_USB4F045381__61__00061.txt Node

Date: Mon Jul 31 10:52:19 EDT 2023
User: mmckonesweet
Spectrometer: USB4F04538
Trigger mode: 4
Integration Time (sec): 9.000000E-1
Scans to average: 1
Electric dark correction enabled: true
Nonlinearity correction enabled: false
Boxcar width: 0
XAxis mode: Wavelengths
Number of Pixels in Spectrum: 3648
>>>>>Begin Spectral Data<<<<<
345.52	-973.81
345.736	-973.81
345.952	-973.81
346.168	-1053.68
346.384	-988.14
346.6	-119.81
346.816	-265.21
347.032	-228.35
347.248	271.36
347.464	-252.92
347.68	-50.18
347.896	41.98
348.112	416.76
348.328	-76.8
348.544	-93.18
348.76	31.74
348.975	324.6
349.191	-230.4
349.407	-136.19
349.623	39.94
349.839	-70.65
350.055	-82.94
350.27	13.31
350.486	265.21
350.702	390.14
350.918	220.16
351.133	-115.71
351.349	244.73
351.565	457.72
351.781	-168.96
351.996	15.36
352.212	287.74
352.428	-33.79
352.644	-173.05
352.859	-115.71
353.075	281.6
353.291	68.61
353.506	-91.13
353.722	-218.11
353.938	-31.74
354.153	453.63
354.369	115.71
354.584	-248.83
354.8	246.78
355.016	-254.97
355.231	-187.39
355.447	1.02
355.662	166.91
355.878	820.21
356.093	-412.67
356.309	-25.6
356.524	-214.01
356.74	207.87
356.955	-179.2
357.171	-15.36
357.386	164.86
357.602	-214.01
357.817	-97.28
358.033	-105.47
358.248	394.23
358.464	109.57
358.679	-117.76
358.895	-271.36
359.11	35.84
359.325	306.17
359.541	261.12
359.756	15.36
359.972	-261.12
360.187	224.25
360.402	-185.34
360.618	-177.15
360.833	1082.35
361.048	128
361.264	-130.05
361.479	-15.36
361.694	134.14
361.909	125.95
362.125	-154.62
362.34	-62.46
362.555	287.74
362.77	164.86
362.986	-263.16
363.201	-66.56
363.416	158.72
363.631	70.65
363.847	-119.81
364.062	-99.33
364.277	275.45
364.492	99.33
364.707	-113.66
364.922	-375.8
365.138	304.12
365.353	343.03
365.568	-244.73
365.783	-113.66
365.998	115.71
366.213	631.8
366.428	-267.26
366.643	158.72
366.858	367.61
367.073	203.77
367.288	-41.98
367.503	-179.2
367.718	97.28
367.933	338.94
368.148	-203.77
368.363	-66.56
368.578	35.84
368.793	482.3
369.008	-107.52
369.223	-226.3
369.438	203.77
369.653	496.63
369.868	-173.05
370.083	-242.68
370.298	121.85
370.513	422.91
370.728	72.7
370.943	-162.81
371.157	-156.67
371.372	562.17
371.587	-269.31
371.802	-214.01
372.017	119.81
372.232	492.54
372.446	-33.79
372.661	-168.96
372.876	261.12
373.091	242.68
373.306	-66.56
373.52	-154.62
373.735	-111.61
373.95	455.67
374.165	-97.28
374.379	-107.52
374.594	-39.94
374.809	105.47
375.023	84.99
375.238	-105.47
375.453	363.51
375.667	-197.63
375.882	-138.24
376.097	-134.14
376.311	82.94
376.526	99.33
376.741	-250.88
376.955	179.2
377.17	562.17
377.384	625.65
377.599	-119.81
377.813	-236.54
378.028	574.46
378.242	179.2
378.457	23.55
378.672	-228.35
378.886	27.65
379.101	-3.07
379.315	-328.7
379.53	-103.42
379.744	232.44
379.958	244.73
380.173	-70.65
380.387	-128
380.602	203.77
380.816	-89.09
381.031	-72.7
381.245	-119.81
381.459	261.12
381.674	2751.45
381.888	-123.9
382.103	162.81
382.317	-158.72
382.531	566.26
382.746	-7.17
382.96	-115.71
383.174	-44.03
383.388	472.06
383.603	95.23
383.817	-246.78
384.031	279.55
384.246	584.7
384.46	41.98
384.674	418.81
384.888	97.28
385.103	168.96
385.317	-199.68
385.531	17.41
385.745	445.43
385.959	408.57
386.174	-185.34
386.388	-222.2
386.602	107.52
386.816	-17.41
387.03	-39.94
387.244	-11.26
387.458	244.73
387.672	482.3
387.887	-205.82
388.101	-103.42
388.315	453.63
388.529	271.36
388.743	-56.32
388.957	-125.95
389.171	410.62
389.385	-17.41
389.599	-29.7
389.813	158.72
390.027	265.21
390.241	726
390.455	21.5
390.669	87.04
390.883	-17.41
391.097	549.88
391.311	162.81
391.525	17.41
391.738	287.74
391.952	257.02
392.166	41.98
392.38	-187.39
392.594	394.23
392.808	398.33
393.022	39.94
393.236	-33.79
393.449	287.74
393.663	281.6
393.877	-132.09
394.091	105.47
394.305	187.39
394.518	3.07
394.732	-201.72
394.946	7.17
395.16	615.41
395.373	97.28
395.587	-95.23
395.801	-29.7
396.015	457.72
396.228	412.67
396.442	-150.53
396.656	-128
396.869	490.49
397.083	586.74
397.297	95.23
397.51	-111.61
397.724	492.54
397.938	386.04
398.151	-132.09
398.365	-99.33
398.578	427
398.792	547.83
399.005	87.04
399.219	11.26
399.433	238.59
399.646	488.44
399.86	117.76
400.073	236.54
400.287	379.9
400.5	216.06
400.714	216.06
400.927	97.28
401.141	472.06
401.354	1211.37
401.567	492.54
401.781	-148.48
401.994	422.91
402.208	791.54
402.421	74.75
402.635	82.94
402.848	179.2
403.061	484.34
403.275	177.15
403.488	-62.46
403.701	644.09
403.915	445.43
404.128	252.92
404.341	41.98
404.555	328.7
404.768	205.82
404.981	267.26
405.195	-17.41
405.408	687.09
405.621	396.28
405.834	179.2
406.048	3.07
406.261	627.7
406.474	740.34
406.687	56.32
406.9	230.4
407.114	248.83
407.327	482.3
407.54	-62.46
407.753	-99.33
407.966	136.19
408.179	404.47
408.392	-17.41
408.605	-33.79
408.819	429.05
409.032	482.3
409.245	91.13
409.458	322.56
409.671	476.15
409.884	633.85
410.097	-56.32
410.31	293.88
410.523	451.58
410.736	193.53
410.949	101.37
411.162	154.62
411.375	723.96
411.588	596.98
411.801	326.65
412.014	56.32
412.227	320.51
412.44	238.59
412.653	117.76
412.865	289.79
413.078	560.12
413.291	400.38
413.504	113.66
413.717	84.99
413.93	537.59
414.143	207.87
414.356	175.1
414.568	-17.41
414.781	596.98
414.994	441.34
415.207	220.16
415.42	162.81
415.632	594.93
415.845	902.13
416.058	-5.12
416.271	-5.12
416.483	386.04
416.696	859.12
416.909	121.85
417.121	99.33
417.334	549.88
417.547	852.98
417.759	181.25
417.972	89.09
418.185	289.79
418.397	590.84
418.61	66.56
418.823	199.68
419.035	779.25
419.248	361.47
419.46	248.83
419.673	254.97
419.885	642.04
420.098	345.08
420.311	164.86
420.523	-41.98
420.736	662.52
420.948	449.53
421.161	211.96
421.373	25.6
421.586	418.81
421.798	295.93
422.01	48.13
422.223	340.99
422.435	324.6
422.648	652.28
422.86	271.36
423.073	74.75
423.285	664.57
423.497	111.61
423.71	148.48
423.922	134.14
424.134	607.22
424.347	832.5
424.559	500.73
424.771	474.1
424.984	416.76
425.196	601.08
425.408	89.09
425.621	121.85
425.833	762.87
426.045	752.63
426.257	222.2
426.47	312.32
426.682	553.98
426.894	568.31
427.106	236.54
427.318	310.27
427.531	269.31
427.743	576.5
427.955	279.55
428.167	781.3
428.379	568.31
428.591	459.77
428.804	369.66
429.016	293.88
429.228	467.96
429.44	646.13
429.652	531.45
429.864	156.67
430.076	488.44
430.288	533.5
430.5	386.04
430.712	441.34
430.924	740.34
431.136	670.71
431.348	218.11
431.56	332.79
431.772	531.45
431.984	490.49
432.196	205.82
432.408	375.8
432.62	480.25
432.832	771.06
433.044	762.87
433.256	568.31
433.468	764.92
433.679	261.12
433.891	224.25
434.103	687.09
434.315	1061.87
434.527	812.02
434.739	482.3
434.95	506.87
435.162	828.4
435.374	592.89
435.586	470.01
435.798	441.34
436.009	396.28
436.221	576.5
436.433	463.86
436.645	470.01
436.856	553.98
437.068	961.52
437.28	363.51
437.491	695.29
437.703	818.16
437.915	799.73
438.126	535.54
438.338	797.68
438.55	662.52
438.761	816.12
438.973	515.06
439.184	494.58
439.396	746.48
439.608	932.85
439.819	388.09
440.031	601.08
440.242	953.33
440.454	893.94
440.665	592.89
440.877	695.29
441.088	855.03
441.3	646.13
441.511	379.9
441.723	453.63
441.934	830.45
442.146	764.92
442.357	705.53
442.569	873.46
442.78	783.35
442.991	1209.33
443.203	869.36
443.414	412.67
443.626	1090.54
443.837	664.57
444.048	525.3
444.26	445.43
444.471	926.71
444.682	1061.87
444.894	304.12
445.105	377.85
445.316	1063.92
445.528	1035.25
445.739	736.24
445.95	707.57
446.161	883.7
446.373	1000.43
446.584	680.95
446.795	678.9
447.006	1074.16
447.217	1252.33
447.429	527.35
447.64	654.33
447.851	1113.07
448.062	902.13
448.273	377.85
448.484	617.46
448.695	936.95
448.907	805.88
449.118	730.1
449.329	908.27
449.54	797.68
449.751	764.92
449.962	656.37
450.173	791.54
450.384	1235.95
450.595	1287.15
450.806	646.13
451.017	760.82
451.228	1211.37
451.439	1246.19
451.65	719.86
451.861	453.63
452.072	734.2
452.283	994.29
452.494	916.47
452.705	769.01
452.915	1393.64
453.126	1082.35
453.337	830.45
453.548	656.37
453.759	1260.52
453.97	1489.9
454.181	1137.65
454.391	887.79
454.602	1162.22
454.813	1137.65
455.024	889.84
455.235	736.24
455.445	1080.3
455.656	1168.37
455.867	1047.54
456.078	855.03
456.288	969.71
456.499	1281
456.71	883.7
456.921	1125.36
457.131	1315.82
457.342	1137.65
457.553	814.07
457.763	920.56
457.974	1297.39
458.184	1424.36
458.395	738.29
458.606	910.32
458.816	1489.9
459.027	1686.5
459.237	1135.6
459.448	820.21
459.659	1436.65
459.869	1829.86
460.08	867.31
460.29	1096.69
460.501	1733.61
460.711	1149.93
460.922	934.9
461.132	1055.73
461.343	1936.35
461.553	1039.34
461.764	1018.86
461.974	1080.3
462.184	1483.75
462.395	1444.84
462.605	1186.8
462.816	1100.78
463.026	1448.94
463.236	1651.69
463.447	1180.65
463.657	1061.87
463.867	1846.24
464.078	1309.68
464.288	1242.09
464.498	1305.58
464.709	1625.06
464.919	1530.86
465.129	1348.59
465.339	1172.46
465.55	1602.54
465.76	1731.56
465.97	1348.59
466.18	1176.56
466.391	1891.3
466.601	1596.39
466.811	1446.89
467.021	1260.52
467.231	1725.41
467.441	1926.11
467.651	1557.48
467.862	1244.14
468.072	1754.09
468.282	2032.61
468.492	1481.71
468.702	1551.34
468.912	1776.61
469.122	2393.05
469.332	1883.11
469.542	1633.26
469.752	2085.86
469.962	1989.6
470.172	1516.52
470.382	1575.91
470.592	2210.78
470.802	2251.74
471.012	1928.16
471.222	1743.85
471.432	2411.48
471.642	2237.41
471.852	1993.7
472.062	1743.85
472.272	2159.58
472.482	1809.38
472.691	1768.42
472.901	1694.69
473.111	2223.07
473.321	2814.93
473.531	1942.5
473.741	2001.89
473.95	2417.63
474.16	2477.02
474.37	2229.21
474.58	1960.93
474.79	2847.7
474.999	2493.4
475.209	2247.65
475.419	2296.8
475.628	2429.91
475.838	2784.21
476.048	2388.96
476.258	2173.92
476.467	2878.42
476.677	2540.51
476.886	2483.16
477.096	2501.59
477.306	2624.47
477.515	2886.61
477.725	2665.43
477.935	2540.51
478.144	3124.18
478.354	2556.89
478.563	2634.71
478.773	2487.26
478.982	3064.79
479.192	3316.69
479.401	2704.34
479.611	2698.2
479.82	2968.53
480.03	3046.35
480.239	2788.31
480.449	2802.65
480.658	3589.07
480.868	2941.91
481.077	3087.31
481.287	2923.48
481.496	3408.84
481.705	3656.65
481.915	3322.83
482.124	3396.56
482.333	3419.08
482.543	3795.91
482.752	3165.14
482.961	3179.47
483.171	3523.53
483.38	3501
483.589	3429.32
483.799	3218.38
484.008	3562.44
484.217	3816.39
484.426	3347.4
484.636	3400.65
484.845	3683.27
485.054	3335.12
485.263	3767.24
485.472	3490.76
485.682	4268.99
485.891	3861.45
486.1	3357.64
486.309	3636.17
486.518	3908.55
486.727	4203.46
486.936	3574.73
487.146	3900.36
487.355	4377.53
487.564	3777.48
487.773	3875.78
487.982	3949.51
488.191	4037.57
488.4	4111.3
488.609	3953.6
488.818	4002.75
489.027	4694.97
489.236	4600.76
489.445	3974.08
489.654	3955.65
489.863	4572.09
490.072	4424.64
490.281	4475.84
490.49	4094.91
490.698	4856.76
490.907	4871.09
491.116	4383.68
491.325	4195.26
491.534	4910.01
491.743	4584.38
491.952	4375.49
492.16	4361.15
492.369	4756.41
492.578	4893.62
492.787	4481.98
492.996	4254.66
493.204	4543.42
493.413	5202.86
493.622	4385.73
493.831	4303.81
494.039	5292.98
494.248	4510.65
494.457	4494.27
494.665	4475.84
494.874	4993.97
495.083	5309.36
495.291	4709.3
495.5	4629.43
495.709	5204.91
495.917	5272.5
496.126	4932.53
496.335	4899.77
496.543	5049.27
496.752	5186.48
496.96	5254.06
497.169	4807.61
497.377	5211.06
497.586	5475.24
497.794	5133.23
498.003	4699.06
498.211	5221.3
498.42	5700.52
498.628	5061.55
498.837	5006.26
499.045	5540.78
499.254	5479.34
499.462	5122.99
499.671	5276.59
499.879	5991.33
500.087	5807.02
500.296	5127.09
500.504	5360.56
500.713	5731.24
500.921	6185.89
501.129	5315.5
501.338	5270.45
501.546	5594.03
501.754	5706.66
501.962	5432.24
502.171	5393.33
502.379	5751.72
502.587	6136.74
502.795	5610.41
503.004	5387.18
503.212	5956.52
503.42	6022.05
503.628	5737.38
503.837	5516.2
504.045	5979.04
504.253	6323.1
504.461	5757.86
504.669	5602.22
504.877	6126.5
505.085	6368.16
505.294	5634.99
505.502	5770.15
505.71	6142.88
505.918	6323.1
506.126	5874.6
506.334	5817.26
506.542	6232.99
506.75	6239.14
506.958	6120.35
507.166	6015.91
507.374	6073.25
507.582	6779.8
507.79	6079.4
507.998	5792.68
508.206	6529.95
508.414	6462.37
508.622	5956.52
508.83	6065.06
509.037	6810.52
509.245	6138.79
509.453	5981.09
509.661	5915.56
509.869	6615.96
510.077	6448.03
510.285	6335.39
510.492	5921.7
510.7	7195.54
510.908	6267.81
511.116	6175.65
511.324	6224.8
511.531	6532
511.739	6773.66
511.947	6507.42
512.155	6634.39
512.362	6761.37
512.57	6228.9
512.778	6448.03
512.985	6185.89
513.193	6777.75
513.401	7046.04
513.608	6439.84
513.816	6656.92
514.024	6867.86
514.231	6929.3
514.439	6634.39
514.646	6423.45
514.854	7175.06
515.061	7060.37
515.269	6538.14
515.477	6523.8
515.684	6572.96
515.892	7322.51
516.099	6466.46
516.307	6564.76
516.514	7238.55
516.722	7469.97
516.929	6853.53
517.136	6650.78
517.344	7289.74
517.551	7275.41
517.759	6720.41
517.966	6818.71
518.173	6953.88
518.381	6986.65
518.588	6919.06
518.796	6720.41
519.003	7289.74
519.21	7179.15
519.418	6839.19
519.625	7224.21
519.832	7254.93
520.039	7420.81
520.247	6888.34
520.454	7039.89
520.661	7469.97
520.868	7394.19
521.076	7101.33
521.283	7144.34
521.49	8072.07
521.697	7728.01
521.904	7207.83
522.112	7154.58
522.319	7463.82
522.526	7572.36
522.733	7175.06
522.94	7156.63
523.147	7652.24
523.354	7809.93
523.561	7181.2
523.768	7318.42
523.975	7771.02
524.183	7707.53
524.39	7580.56
524.597	7312.27
524.804	7705.48
525.011	7525.26
525.218	7492.49
525.425	7474.06
525.632	8139.65
525.838	7631.76
526.045	7351.18
526.252	7525.26
526.459	9241.46
526.666	8731.51
526.873	7439.25
527.08	7801.74
527.287	8504.19
527.494	8092.55
527.701	7642
527.907	7498.64
528.114	8014.73
528.321	7879.56
528.528	7918.47
528.735	7893.9
528.941	8002.44
529.148	8024.97
529.355	7957.38
529.562	7832.46
529.768	8743.8
529.975	8063.88
530.182	8051.59
530.388	7799.69
530.595	8510.33
530.802	7891.85
531.008	8215.43
531.215	8147.84
531.422	8874.87
531.628	9200.5
531.835	8201.09
532.042	8311.68
532.248	8315.78
532.455	8598.4
532.661	8280.96
532.868	8108.93
533.074	8579.97
533.281	8553.34
533.487	8213.38
533.694	8102.79
533.9	8627.07
534.107	8829.82
534.313	8280.96
534.52	8156.04
534.726	8731.51
534.933	9298.8
535.139	8307.59
535.345	8268.67
535.552	8835.96
535.758	8835.96
535.965	8545.15
536.171	8557.44
536.377	8905.59
536.584	8977.27
536.79	8633.21
536.996	8641.4
537.203	8995.7
537.409	9040.76
537.615	8821.63
537.821	8708.99
538.028	9266.03
538.234	9094.01
538.44	8651.64
538.646	8731.51
538.853	9175.92
539.059	8956.79
539.265	9110.39
539.471	8536.96
539.677	9362.29
539.883	9333.62
540.09	8854.39
540.296	9249.65
540.502	9118.58
540.708	8864.63
540.914	9261.94
541.12	9161.59
541.326	9438.06
541.532	9087.86
541.738	9253.75
541.944	9169.78
542.15	9681.77
542.356	9501.55
542.562	8887.16
542.768	9229.17
542.974	10036.07
543.18	9960.3
543.386	9266.03
543.592	9155.44
543.798	9829.23
544.004	9835.37
544.21	9378.67
544.415	9460.59
544.621	9708.4
544.827	9870.19
545.033	9544.56
545.239	9700.2
545.445	9657.2
545.651	9663.34
545.856	9544.56
546.062	9276.27
546.268	9630.57
546.474	9755.5
546.679	9542.51
546.885	9571.18
547.091	9589.61
547.297	10371.94
547.502	9692.01
547.708	9237.36
547.914	9591.66
548.119	10124.13
548.325	9358.19
548.531	9194.36
548.736	10228.58
548.942	9552.75
549.147	9454.45
549.353	9923.43
549.559	10380.13
549.764	10066.79
549.97	9792.36
550.175	9861.99
550.381	10163.04
550.586	9634.67
550.792	9730.92
550.997	9671.53
551.203	10163.04
551.408	10247.01
551.614	9591.66
551.819	9907.05
552.025	10578.78
552.23	10926.94
552.435	9952.1
552.641	10220.39
552.846	10240.87
553.052	10541.92
553.257	10175.33
553.462	10025.83
553.668	10451.81
553.873	10804.06
554.078	9976.68
554.283	10228.58
554.489	10474.34
554.694	10629.98
554.899	10066.79
555.105	10287.97
555.31	10666.85
555.515	10871.64
555.72	10269.54
555.925	10034.02
556.131	10799.96
556.336	10410.85
556.541	10515.3
556.746	10138.47
556.951	10871.64
557.156	11045.72
557.361	10472.29
557.567	10707.8
557.772	11367.25
557.977	10945.37
558.182	10523.49
558.387	10333.03
558.592	10535.78
558.797	11015
559.002	10392.42
559.207	10476.38
559.412	10945.37
559.617	11232.08
559.822	10589.02
560.027	10500.96
560.232	10707.8
560.437	10920.79
560.642	10607.45
560.847	10716
561.051	11041.62
561.256	11189.08
561.461	10967.9
561.666	10664.8
561.871	10906.46
562.076	11260.76
562.281	10808.16
562.485	10255.2
562.69	11346.77
562.895	11017.05
563.1	10566.49
563.305	10666.85
563.509	11506.51
563.714	11512.66
563.919	10773.34
564.123	10949.46
564.328	11084.63
564.533	11410.26
564.737	10871.64
564.942	10842.97
565.147	11619.15
565.351	11512.66
565.556	11025.24
565.761	10912.6
565.965	11115.35
566.17	11154.26
566.374	10990.42
566.579	10967.9
566.784	11475.79
566.988	11164.5
567.193	10791.77
567.397	10953.56
567.602	11058.01
567.806	11301.72
568.011	10865.5
568.215	11109.21
568.42	11279.19
568.624	11535.18
568.828	10980.18
569.033	11260.76
569.237	11594.58
569.442	11518.8
569.646	10943.32
569.85	11426.64
570.055	11379.54
570.259	11762.51
570.463	11455.31
570.668	11234.13
570.872	11549.52
571.076	11545.42
571.281	11357.01
571.485	11410.26
571.689	11664.21
571.893	11860.81
572.098	11344.72
572.302	11451.22
572.506	11793.23
572.71	11864.91
572.914	11678.54
573.119	11469.65
573.323	12049.22
573.527	12215.11
573.731	11232.08
573.935	11529.04
574.139	11844.43
574.343	11418.45
574.547	11598.67
574.751	11576.14
574.955	12313.41
575.159	12505.92
575.364	11797.32
575.568	11696.97
575.772	12010.31
575.976	12329.8
576.18	11666.25
576.383	11869
576.587	12311.36
576.791	12081.99
576.995	11635.53
577.199	11410.26
577.403	12245.83
577.607	12319.56
577.811	11932.49
578.015	11850.57
578.219	12213.06
578.422	12477.25
578.626	11793.23
578.83	12047.18
579.034	12372.8
579.238	12294.98
579.442	11971.4
579.645	12391.23
579.849	12297.03
580.053	12495.68
580.257	12108.62
580.46	12024.65
580.664	12673.85
580.868	12403.52
581.071	12389.19
581.275	12036.94
581.479	12188.49
581.682	12608.32
581.886	12079.94
582.09	12309.32
582.293	12845.88
582.497	12763.97
582.7	12319.56
582.904	12081.99
583.107	12475.2
583.311	12448.58
583.515	12337.99
583.718	12266.31
583.922	12884.8
584.125	13022.01
584.329	12274.5
584.532	12481.35
584.735	12995.39
584.939	12532.54
585.142	12294.98
585.346	12213.06
585.549	13044.54
585.753	12675.9
585.956	12680
586.159	12692.29
586.363	13114.17
586.566	12835.64
586.769	12526.4
586.973	12141.38
587.176	13007.67
587.379	13105.98
587.582	12890.94
587.786	12766.01
587.989	12835.64
588.192	13421.36
588.395	12565.31
588.599	13054.78
588.802	13187.89
589.005	13114.17
589.208	12768.06
589.411	12585.79
589.615	13296.44
589.818	13495.09
590.021	12925.75
590.224	12811.07
590.427	13001.53
590.63	13255.48
590.833	12735.29
591.036	12741.44
591.239	13056.82
591.442	13024.06
591.645	13284.15
591.848	13114.17
592.051	13138.74
592.254	13574.96
592.457	13179.7
592.66	13134.65
592.863	13388.6
593.066	13452.08
593.269	13067.06
593.472	13200.18
593.675	13026.11
593.878	13544.24
594.081	13390.64
594.284	13105.98
594.486	13349.68
594.689	13407.03
594.892	13026.11
595.095	13327.16
595.298	13673.26
595.5	13339.44
595.703	13331.25
595.906	13466.42
596.109	13902.64
596.311	13943.6
596.514	13058.87
596.717	13335.35
596.92	13824.81
597.122	13839.15
597.325	13110.07
597.528	13284.15
597.73	14142.25
597.933	13714.22
598.136	13421.36
598.338	13343.54
598.541	13806.38
598.743	14398.24
598.946	13652.78
599.148	13697.84
599.351	14072.62
599.554	14359.33
599.756	13736.75
599.959	13691.7
600.161	14224.17
600.363	14598.95
600.566	13937.45
600.768	13671.22
600.971	14121.77
601.173	14203.69
601.376	13783.85
601.578	13867.82
601.78	14164.78
601.983	14529.31
602.185	13521.71
602.388	14168.87
602.59	13953.84
602.792	14144.3
602.995	13939.5
603.197	13761.33
603.399	14324.52
603.601	14359.33
603.804	13839.15
604.006	13916.97
604.208	14086.95
604.41	13624.11
604.613	14056.23
604.815	13921.07
605.017	14818.08
605.219	14082.86
605.421	14084.91
605.623	14099.24
605.826	14846.75
606.028	14687.01
606.23	13884.2
606.432	13822.77
606.634	14635.81
606.836	14541.6
607.038	13962.03
607.24	14140.2
607.442	14400.29
607.644	14390.05
607.846	14256.93
608.048	14084.91
608.25	14687.01
608.452	14050.09
608.654	14232.36
608.856	13554.48
609.058	14304.04
609.26	14535.46
609.462	14113.58
609.664	14332.71
609.866	14564.13
610.067	14580.51
610.269	14252.84
610.471	14025.51
610.673	14158.63
610.875	14834.46
611.077	13996.84
611.278	14240.55
611.48	14701.34
611.682	14842.65
611.884	14289.7
612.085	14166.82
612.287	14275.37
612.489	14318.37
612.69	13890.35
612.892	14236.45
613.094	14502.69
613.295	14580.51
613.497	13640.5
613.699	14232.36
613.9	14842.65
614.102	14674.72
614.304	14422.82
614.505	14000.94
614.707	14539.55
614.908	14408.48
615.11	13980.46
615.311	14193.45
615.513	14770.97
615.714	14912.28
615.916	14011.18
616.117	14160.68
616.319	14537.51
616.52	14668.58
616.722	14398.24
616.923	14396.2
617.124	15026.97
617.326	14537.51
617.527	14564.13
617.729	14699.3
617.93	14682.91
618.131	14986.01
618.333	14168.87
618.534	14267.17
618.735	14637.86
618.937	14934.81
619.138	14236.45
619.339	14396.2
619.54	14678.82
619.742	14592.8
619.943	14459.68
620.144	14605.09
620.345	14863.13
620.546	15024.92
620.748	14418.72
620.949	14621.47
621.15	14676.77
621.351	14813.98
621.552	14261.03
621.753	14029.61
621.954	14297.89
622.155	15266.58
622.356	14424.87
622.558	14480.16
622.759	14959.39
622.96	15268.63
623.161	14361.38
623.362	14324.52
623.563	14676.77
623.764	14754.59
623.965	14553.89
624.166	14598.95
624.366	14639.9
624.567	14813.98
624.768	14361.38
624.969	14205.74
625.17	14396.2
625.371	14908.19
625.572	14580.51
625.773	14342.95
625.973	15196.95
626.174	15092.51
626.375	14557.99
626.576	14801.69
626.777	14914.33
626.977	15528.72
627.178	14721.82
627.379	14666.53
627.58	14779.17
627.78	14863.13
627.981	14719.78
628.182	14785.31
628.382	15145.75
628.583	14426.92
628.784	14445.35
628.984	14412.58
629.185	15000.35
629.386	15024.92
629.586	14781.21
629.787	14519.07
629.987	15041.31
630.188	14949.15
630.388	14744.35
630.589	14760.73
630.79	15485.72
630.99	14840.61
631.191	14418.72
631.391	14975.77
631.591	15246.1
631.792	15391.51
631.992	14744.35
632.193	14695.2
632.393	15194.9
632.594	15182.62
632.794	14768.93
632.994	14900
633.195	15039.26
633.395	14730.02
633.595	14652.19
633.796	15125.27
633.996	14725.92
634.196	15547.15
634.397	14572.32
634.597	14797.6
634.797	14846.75
634.997	15565.59
635.198	14977.82
635.398	14799.65
635.598	15543.06
635.798	15545.11
635.998	15155.99
636.199	14902.04
636.399	14947.1
636.599	14707.49
636.799	14873.37
636.999	15170.33
637.199	15586.07
637.399	15491.86
637.599	14897.95
637.799	15094.55
637.999	15115.03
638.199	15717.14
638.399	15002.4
638.599	14953.24
638.799	15500.05
638.999	15743.76
639.199	15352.6
639.399	14920.48
639.599	16014.09
639.799	15088.41
639.999	14789.41
640.199	14779.17
640.399	15285.01
640.599	14926.62
640.799	15217.43
640.998	15330.07
641.198	15772.43
641.398	15411.99
641.598	15278.87
641.798	15112.99
641.997	16292.62
642.197	15368.98
642.397	15411.99
642.597	15344.41
642.796	15647.51
642.996	15641.36
643.196	15065.88
643.395	14879.52
643.595	15498
643.795	14961.44
643.994	15272.73
644.194	15018.78
644.394	15592.21
644.593	15418.13
644.793	15178.52
644.992	15215.38
645.192	15596.31
645.392	14945.05
645.591	15459.09
645.791	15399.7
645.99	15647.51
646.19	15723.28
646.389	15254.3
646.589	15493.91
646.788	15971.08
646.987	15672.08
647.187	15747.86
647.386	15737.62
647.586	15504.15
647.785	15756.05
647.984	15473.43
648.184	15598.35
648.383	15455
648.582	15754
648.782	15360.79
648.981	15479.57
649.18	15389.46
649.38	15833.87
649.579	15418.13
649.778	15403.8
649.977	15852.3
650.177	15870.73
650.376	15418.13
650.575	15721.23
650.774	16153.35
650.973	15444.76
651.173	15217.43
651.372	15500.05
651.571	15950.6
651.77	15790.86
651.969	15424.28
652.168	15618.83
652.367	15471.38
652.566	15661.84
652.765	15686.42
652.964	15809.29
653.163	16116.49
653.362	15917.84
653.561	15559.44
653.76	15921.93
653.959	15721.23
654.158	16118.54
654.357	16096.01
654.556	15381.27
654.755	15983.37
654.954	16102.15
655.153	15749.9
655.352	15835.92
655.551	16163.59
655.749	15858.45
655.948	15604.5
656.147	15733.52
656.346	16085.77
656.545	15735.57
656.743	15729.42
656.942	15657.75
657.141	16016.14
657.34	15698.7
657.538	15860.49
657.737	15751.95
657.936	16050.96
658.135	16032.52
658.333	15440.66
658.532	15911.69
658.731	16460.55
658.929	16245.51
659.128	15911.69
659.326	15985.42
659.525	16136.97
659.724	15960.84
659.922	15522.58
660.121	15592.21
660.319	16071.43
660.518	15817.49
660.716	15708.94
660.915	15770.38
661.113	16306.95
661.312	15713.04
661.51	16032.52
661.709	15776.53
661.907	16446.21
662.105	16556.8
662.304	15852.3
662.502	15737.62
662.701	16421.64
662.899	16053
663.097	16145.16
663.296	15702.8
663.494	16679.68
663.692	16339.72
663.891	15835.92
664.089	15772.43
664.287	16167.69
664.485	16155.4
664.684	16014.09
664.882	15887.12
665.08	16190.22
665.278	16290.57
665.476	15522.58
665.675	15895.31
665.873	16524.04
666.071	16335.62
666.269	15784.72
666.467	15870.73
666.665	16167.69
666.863	15923.98
667.061	15893.26
667.259	15772.43
667.457	15985.42
667.655	16196.36
667.853	15653.65
668.051	15973.13
668.249	16182.03
668.447	16036.62
668.645	15885.07
668.843	16153.35
669.041	16550.66
669.239	15891.21
669.437	15915.79
669.635	16010
669.833	15889.17
670.031	16333.57
670.229	15880.97
670.426	15921.93
670.624	15856.4
670.822	15799.05
671.02	15821.58
671.218	15774.48
671.415	15854.35
671.613	16345.86
671.811	15952.65
672.009	15921.93
672.206	16169.74
672.404	16032.52
672.602	15975.18
672.799	15694.61
672.997	16126.73
673.195	16175.88
673.392	15698.7
673.59	15620.88
673.788	16245.51
673.985	15325.97
674.183	16118.54
674.38	15862.54
674.578	16055.05
674.775	15866.64
674.973	15604.5
675.17	15735.57
675.368	16007.95
675.565	16003.85
675.763	15688.46
675.96	15555.35
676.158	15964.94
676.355	15624.98
676.553	15801.1
676.75	15579.92
676.947	15940.36
677.145	15559.44
677.342	15960.84
677.539	15661.84
677.737	15932.17
677.934	16380.68
678.131	15856.4
678.329	15448.85
678.526	16139.02
678.723	16071.43
678.92	15715.09
679.118	15565.59
679.315	15692.56
679.512	16268.04
679.709	15420.18
679.906	15622.93
680.104	16010
680.301	15840.01
680.498	15461.14
680.695	15151.9
680.892	15553.3
681.089	15860.49
681.286	15919.89
681.483	15340.31
681.68	15940.36
681.877	15971.08
682.075	15559.44
682.272	15516.44
682.469	15735.57
682.665	15833.87
682.862	15182.62
683.059	15244.06
683.256	15723.28
683.453	15368.98
683.65	15244.06
683.847	15285.01
684.044	15457.04
684.241	15227.67
684.438	15149.85
684.635	15270.68
684.831	15932.17
685.028	15960.84
685.225	15287.06
685.422	15567.63
685.619	15555.35
685.815	15461.14
686.012	15405.84
686.209	15282.97
686.405	15289.11
686.602	15833.87
686.799	15069.98
686.996	15168.28
687.192	15033.11
687.389	15788.82
687.586	15471.38
687.782	15143.7
687.979	15969.04
688.175	15631.12
688.372	15330.07
688.568	15182.62
688.765	15512.34
688.962	16022.28
689.158	15422.23
689.355	14856.99
689.551	15479.57
689.748	15272.73
689.944	15446.8
690.14	14727.97
690.337	15430.42
690.533	15368.98
690.73	15199
690.926	15272.73
691.123	15483.67
691.319	15340.31
691.515	15082.27
691.712	15176.47
691.908	15538.96
692.104	15258.39
692.301	15178.52
692.497	14992.16
692.693	15569.68
692.889	15700.75
693.086	15260.44
693.282	14660.38
693.478	15174.42
693.674	15688.46
693.87	14930.72
694.067	15045.4
694.263	15338.26
694.459	15080.22
694.655	15246.1
694.851	15186.71
695.047	15244.06
695.243	15403.8
695.439	15205.14
695.635	14830.37
695.831	15551.25
696.027	15219.48
696.224	14863.13
696.42	15401.75
696.615	15823.63
696.811	15385.37
697.007	14895.9
697.203	15125.27
697.399	15299.35
697.595	15524.63
697.791	14586.66
697.987	15162.14
698.183	14646.05
698.379	14666.53
698.575	14967.58
698.77	15188.76
698.966	15133.47
699.162	15387.41
699.358	14797.6
699.554	14836.51
699.749	15278.87
699.945	15020.83
700.141	14928.67
700.337	14912.28
700.532	14703.39
700.728	14799.65
700.924	14584.61
701.119	14658.34
701.315	14983.96
701.511	14940.96
701.706	14924.57
701.902	14461.73
702.097	15129.37
702.293	15403.8
702.489	14910.24
702.684	14719.78
702.88	14867.23
703.075	14996.25
703.271	14461.73
703.466	14871.33
703.662	14918.43
703.857	14936.86
704.053	14383.91
704.248	14754.59
704.443	15082.27
704.639	14988.06
704.834	14689.06
705.03	14539.55
705.225	15184.66
705.42	14977.82
705.616	14701.34
705.811	14687.01
706.006	14797.6
706.202	14893.85
706.397	14557.99
706.592	14437.16
706.787	14758.69
706.983	15055.64
707.178	14871.33
707.373	14689.06
707.568	15088.41
707.763	15082.27
707.959	14707.49
708.154	14641.95
708.349	14740.26
708.544	14938.91
708.739	14613.28
708.934	14361.38
709.129	14631.71
709.324	15037.21
709.519	14676.77
709.714	14304.04
709.909	15151.9
710.104	14809.89
710.299	14396.2
710.494	14654.24
710.689	14859.04
710.884	14744.35
711.079	14539.55
711.274	14689.06
711.469	15086.36
711.664	14682.91
711.859	14379.81
712.054	14568.23
712.249	14746.4
712.443	15026.97
712.638	14484.26
712.833	14283.56
713.028	14572.32
713.223	14615.33
713.417	14826.27
713.612	14342.95
713.807	14701.34
714.002	15153.94
714.196	14453.54
714.391	14222.12
714.586	14611.23
714.78	14367.52
714.975	14328.61
715.17	14056.23
715.364	14334.76
715.559	15121.18
715.754	14109.48
715.948	14254.89
716.143	15061.79
716.337	14531.36
716.532	14613.28
716.726	14299.94
716.921	14400.29
717.115	14940.96
717.31	14306.09
717.504	14758.69
717.699	14410.53
717.893	14783.26
718.088	14183.21
718.282	14043.95
718.476	14406.44
718.671	14416.68
718.865	14166.82
719.059	14097.19
719.254	14244.65
719.448	14805.79
719.642	15272.73
719.837	13775.66
720.031	14510.88
720.225	14406.44
720.419	14043.95
720.614	13775.66
720.808	14256.93
721.002	14064.43
721.196	13878.06
721.39	13966.12
721.585	14512.93
721.779	14213.93
721.973	13833
722.167	13658.93
722.361	14154.54
722.555	14248.74
722.749	13820.72
722.943	13974.31
723.137	13851.44
723.331	14070.57
723.525	13728.56
723.719	13898.54
723.913	14367.52
724.107	14502.69
724.301	13732.65
724.495	14033.71
724.689	14797.6
724.883	14351.14
725.077	14015.27
725.271	13847.34
725.465	14365.48
725.659	14027.56
725.853	13931.31
726.046	13814.57
726.24	13495.09
726.434	14021.42
726.628	13900.59
726.822	13632.3
727.015	14369.57
727.209	14271.27
727.403	13753.13
727.596	13480.75
727.79	14242.6
727.984	14308.13
728.177	13703.98
728.371	14021.42
728.565	14369.57
728.758	13714.22
728.952	13900.59
729.146	13769.52
729.339	14164.78
729.533	14156.58
729.726	13681.46
729.92	13869.87
730.113	14361.38
730.307	14183.21
730.5	13636.4
730.694	13568.82
730.887	13937.45
731.081	14293.8
731.274	13816.62
731.468	13878.06
731.661	13890.35
731.854	13978.41
732.048	13763.37
732.241	13859.63
732.435	13783.85
732.628	14191.4
732.821	13790
733.014	13605.68
733.208	13943.6
733.401	14170.92
733.594	13818.67
733.788	13691.7
733.981	14273.32
734.174	14293.8
734.367	13794.09
734.56	14064.43
734.754	14306.09
734.947	14375.72
735.14	13620.02
735.333	13845.29
735.526	14197.54
735.719	13761.33
735.912	13581.1
736.105	13597.49
736.298	13851.44
736.491	13511.47
736.684	13388.6
736.877	13562.67
737.07	13749.04
737.263	14234.41
737.456	13519.67
737.649	13400.88
737.842	13884.2
738.035	13812.53
738.228	13511.47
738.421	13802.29
738.614	14041.9
738.807	14058.28
739	13269.81
739.192	13306.68
739.385	13546.29
739.578	13933.36
739.771	13654.83
739.964	13476.66
740.156	13867.82
740.349	13769.52
740.542	13507.38
740.735	13214.52
740.927	13392.69
741.12	13679.41
741.313	13398.84
741.505	13560.63
741.698	13710.13
741.891	13894.44
742.083	13603.63
742.276	13454.13
742.468	13609.78
742.661	13665.07
742.854	13400.88
743.046	13515.57
743.239	13898.54
743.431	13710.13
743.624	13474.61
743.816	13153.08
744.009	13736.75
744.201	13888.3
744.393	13429.56
744.586	13175.61
744.778	13978.41
744.971	13525.81
745.163	13255.48
745.355	13439.79
745.548	13673.26
745.74	13703.98
745.932	13484.85
746.125	13427.51
746.317	14209.83
746.509	13503.28
746.702	13263.67
746.894	13269.81
747.086	13597.49
747.278	13929.26
747.471	13640.5
747.663	13513.52
747.855	13646.64
748.047	13959.98
748.239	13347.64
748.431	13468.47
748.623	14080.81
748.815	13863.72
749.008	13347.64
749.2	13062.97
749.392	13689.65
749.584	13581.1
749.776	13353.78
749.968	13255.48
750.16	14107.43
750.352	13525.81
750.544	13177.65
750.736	13118.26
750.928	13699.89
751.12	13421.36
751.311	13101.88
751.503	13517.62
751.695	13589.3
751.887	13392.69
752.079	13120.31
752.271	13087.54
752.463	14457.64
752.654	13611.82
752.846	12976.95
753.038	13110.07
753.23	13163.32
753.421	13447.99
753.613	13081.4
753.805	13476.66
753.997	13630.26
754.188	13722.41
754.38	12954.43
754.572	13298.49
754.763	13437.75
754.955	13515.57
755.146	13142.84
755.338	13075.26
755.53	13359.92
755.721	13243.19
755.913	12768.06
756.104	12829.5
756.296	13105.98
756.487	13187.89
756.679	12643.14
756.87	13015.87
757.062	12841.79
757.253	13275.96
757.445	12677.95
757.636	12929.85
757.827	13085.5
758.019	13933.36
758.21	12559.17
758.401	12733.25
758.593	13585.2
758.784	13032.25
758.975	12542.78
759.167	12751.68
759.358	12929.85
759.549	13372.21
759.74	12477.25
759.932	12526.4
760.123	13304.63
760.314	12813.12
760.505	12413.76
760.696	12536.64
760.888	13228.85
761.079	12589.89
761.27	12438.34
761.461	12294.98
761.652	13261.62
761.843	12360.52
762.034	12561.22
762.225	12528.45
762.416	12606.27
762.607	12426.05
762.798	12462.91
762.989	12163.91
763.18	13214.52
763.371	12634.94
763.562	12407.62
763.753	12368.71
763.944	12768.06
764.135	12743.49
764.326	12510.02
764.517	12094.28
764.708	12526.4
764.899	12643.14
765.089	12196.68
765.28	12102.47
765.471	12659.52
765.662	12673.85
765.853	12325.7
766.043	11862.86
766.234	12780.35
766.425	12510.02
766.615	12294.98
766.806	12159.81
766.997	12667.71
767.187	12337.99
767.378	12073.8
767.569	12047.18
767.759	12450.63
767.95	12460.87
768.141	12374.85
768.331	12200.77
768.522	12360.52
768.712	12811.07
768.903	12002.12
769.093	11985.74
769.284	12784.44
769.474	12378.95
769.665	11828.04
769.855	11823.95
770.046	12227.4
770.236	12026.7
770.426	12034.89
770.617	11625.29
770.807	12264.26
770.998	11963.21
771.188	11834.19
771.378	11793.23
771.569	12229.45
771.759	12141.38
771.949	11520.85
772.139	11690.83
772.33	12266.31
772.52	12362.56
772.71	11623.25
772.9	11656.01
773.09	12245.83
773.281	12008.26
773.471	11375.44
773.661	11621.2
773.851	11979.59
774.041	11844.43
774.231	11608.91
774.421	11653.97
774.611	12053.32
774.802	11748.17
774.992	11608.91
775.182	11414.35
775.372	11780.94
775.562	11973.45
775.752	11656.01
775.942	11498.32
776.131	12090.18
776.321	11897.67
776.511	11242.32
776.701	11410.26
776.891	11817.8
777.081	11426.64
777.271	11369.3
777.461	11314
777.651	12002.12
777.84	11959.11
778.03	11377.49
778.22	11232.08
778.41	12014.41
778.599	11596.62
778.789	11344.72
778.979	11133.78
779.169	11545.42
779.358	11590.48
779.548	11486.03
779.738	11158.36
779.927	11627.34
780.117	11273.04
780.307	11332.44
780.496	10799.96
780.686	11656.01
780.875	11709.26
781.065	11074.39
781.254	11019.1
781.444	11279.19
781.633	11406.16
781.823	11033.43
782.012	10693.47
782.202	10890.07
782.391	11049.82
782.581	10769.24
782.77	11383.63
782.96	11486.03
783.149	10980.18
783.338	10961.75
783.528	10789.72
783.717	11649.87
783.906	11524.94
784.096	11232.08
784.285	11074.39
784.474	11219.8
784.663	10912.6
784.853	10705.76
785.042	10754.91
785.231	10967.9
785.42	11197.27
785.61	10865.5
785.799	10685.28
785.988	11311.96
786.177	11045.72
786.366	10855.26
786.555	10898.27
786.744	11303.76
786.933	11068.25
787.122	10603.36
787.312	10566.49
787.501	10685.28
787.69	11051.86
787.879	10525.54
788.068	10586.97
788.257	10584.93
788.445	10830.68
788.634	10689.37
788.823	10644.32
789.012	11469.65
789.201	11266.9
789.39	10619.74
789.579	10496.86
789.768	10830.68
789.957	10937.18
790.145	10359.65
790.334	10392.42
790.523	10748.76
790.712	10869.59
790.9	10398.56
791.089	10298.21
791.278	10931.03
791.467	10746.72
791.655	10550.11
791.844	11090.77
792.033	10586.97
792.221	10470.24
792.41	10304.35
792.599	9986.92
792.787	10761.05
792.976	11000.66
793.164	10173.28
793.353	10144.61
793.541	10601.31
793.73	10761.05
793.918	10302.31
794.107	10191.72
794.295	10703.71
794.484	10341.22
794.672	10218.34
794.861	10423.14
795.049	10476.38
795.238	10771.29
795.426	10281.83
795.614	10333.03
795.803	10644.32
795.991	10763.1
796.179	10060.65
796.368	10025.83
796.556	10683.23
796.744	9896.81
796.932	9812.84
797.121	10079.08
797.309	10328.93
797.497	10488.67
797.685	10046.31
797.874	10189.67
798.062	10308.45
798.25	10472.29
798.438	9843.56
798.626	10138.47
798.814	10386.27
799.002	10855.26
799.19	10148.71
799.378	9984.87
799.566	10519.39
799.755	10629.98
799.943	9923.43
800.131	10107.75
800.318	10382.18
800.506	10111.85
800.694	9909.1
800.882	9997.16
801.07	10640.22
801.258	10361.7
801.446	10085.22
801.634	9945.96
801.822	10281.83
802.01	10304.35
802.197	10103.65
802.385	10451.81
802.573	10185.57
802.761	9859.95
802.949	10154.85
803.136	9931.62
803.324	10455.9
803.512	10685.28
803.699	9859.95
803.887	9890.67
804.075	10466.14
804.262	10175.33
804.45	10023.78
804.638	9960.3
804.825	10152.81
805.013	10183.52
805.201	10029.93
805.388	9925.48
805.576	10152.81
805.763	10777.44
805.951	10105.7
806.138	10161
806.326	10799.96
806.513	10484.58
806.701	10105.7
806.888	9843.56
807.075	10470.24
807.263	10634.08
807.45	10068.84
807.638	10185.57
807.825	10785.63
808.012	10410.85
808.2	10015.59
808.387	10257.25
808.574	10601.31
808.761	10738.52
808.949	10146.66
809.136	10027.88
809.323	10335.07
809.51	10376.03
809.698	10433.38
809.885	10503.01
810.072	10431.33
810.259	10793.82
810.446	10330.98
810.633	10218.34
810.82	10988.38
811.008	10838.87
811.195	10277.73
811.382	10218.34
811.569	10380.13
811.756	10333.03
811.943	10328.93
812.13	10363.75
812.317	10529.63
812.504	10584.93
812.691	10298.21
812.878	10449.76
813.064	10885.98
813.251	10507.1
813.438	10195.81
813.625	10324.83
813.812	10599.26
813.999	10482.53
814.186	10388.32
814.372	10158.95
814.559	10437.47
814.746	10660.7
814.933	10103.65
815.12	10462.05
815.306	10441.57
815.493	10355.55
815.68	10230.63
815.866	10343.27
816.053	10804.06
816.24	10900.31
816.426	10242.92
816.613	10259.3
816.799	10691.42
816.986	10802.01
817.173	10177.38
817.359	10128.23
817.546	10679.13
817.732	9898.86
817.919	9761.64
818.105	10156.9
818.292	10255.2
818.478	10656.61
818.665	10287.97
818.851	10150.76
819.037	10933.08
819.224	10425.18
819.41	10054.5
819.597	9874.28
819.783	10656.61
819.969	10396.51
820.156	10146.66
820.342	10218.34
820.528	11164.5
820.714	10294.11
820.901	10228.58
821.087	10005.35
821.273	10832.73
821.459	10359.65
821.646	10040.17
821.832	10107.75
822.018	10496.86
822.204	10161
822.39	10322.79
822.576	9759.6
822.762	10267.49
822.948	10124.13
823.134	10367.84
823.32	10068.84
823.507	10152.81
823.693	10222.44
823.879	10425.18
824.065	9880.43
824.25	10177.38
824.436	10103.65
824.622	9921.38
824.808	10007.4
824.994	10328.93
825.18	9972.58
825.366	9722.73
825.552	9778.03
825.738	10187.62
825.923	10279.78
826.109	10034.02
826.295	9837.42
826.481	9917.29
826.667	9917.29
826.852	9886.57
827.038	9724.78
827.224	10320.74
827.409	10386.27
827.595	9511.79
827.781	9708.4
827.966	10154.85
828.152	10177.38
828.338	9663.34
828.523	9454.45
828.709	9614.19
828.894	10232.68
829.08	9616.24
829.266	9898.86
829.451	9694.06
829.637	9968.49
829.822	9767.79
830.008	9534.32
830.193	10259.3
830.378	10304.35
830.564	9765.74
830.749	9493.36
830.935	9782.12
831.12	9935.72
831.305	9407.34
831.491	9829.23
831.676	9446.26
831.861	10089.32
832.047	9325.43
832.232	9272.18
832.417	10031.97
832.602	9780.07
832.788	9458.54
832.973	9405.3
833.158	9622.38
833.343	9849.71
833.528	9489.26
833.714	9431.92
833.899	9698.16
834.084	10218.34
834.269	9618.29
834.454	9423.73
834.639	9896.81
834.824	9808.75
835.009	9661.29
835.194	9550.7
835.379	9878.38
835.564	9849.71
835.749	9536.37
835.934	9249.65
836.119	9851.75
836.304	9509.74
836.489	9223.03
836.674	9415.54
836.859	9362.29
837.044	9849.71
837.228	9325.43
837.413	9155.44
837.598	9735.02
837.783	9706.35
837.968	9190.26
838.152	9018.23
838.337	8936.31
838.522	9698.16
838.707	9466.74
838.891	9057.14
839.076	9458.54
839.261	9397.1
839.445	9046.9
839.63	8907.64
839.815	9831.27
839.999	9137.01
840.184	9065.33
840.368	8977.27
840.553	9458.54
840.737	9444.21
840.922	8866.68
841.106	8682.36
841.291	8936.31
841.475	9184.12
841.66	9001.85
841.844	9083.77
842.029	9915.24
842.213	9114.48
842.397	8969.08
842.582	8840.06
842.766	9507.69
842.951	9505.65
843.135	8936.31
843.319	8852.34
843.504	9173.88
843.688	9339.76
843.872	8772.47
844.056	8694.65
844.241	9032.57
844.425	8838.01
844.609	8960.89
844.793	8582.01
844.977	9196.4
845.161	8985.46
845.346	8487.81
845.53	8635.26
845.714	8870.78
845.898	9241.46
846.082	8500.09
846.266	8766.33
846.45	8975.22
846.634	8991.61
846.818	8627.07
847.002	8751.99
847.186	9118.58
847.37	8518.53
847.554	8303.49
847.738	8625.02
847.922	8795
848.106	8928.12
848.29	8317.83
848.473	8352.64
848.657	8749.95
848.841	8584.06
849.025	8409.98
849.209	8100.74
849.392	8897.4
849.576	8686.46
849.76	8084.36
849.944	8575.87
850.127	9046.9
850.311	8323.97
850.495	8272.77
850.678	7979.91
850.862	8854.39
851.046	9016.18
851.229	8512.38
851.413	8180.61
851.596	8620.92
851.78	8557.44
851.964	8698.75
852.147	8272.77
852.331	9231.22
852.514	8999.8
852.698	8362.88
852.881	8080.26
853.065	8534.91
853.248	8577.92
853.431	8274.82
853.615	8219.52
853.798	9059.19
853.982	8653.69
854.165	8498.05
854.348	8182.66
854.532	8346.5
854.715	8477.57
854.898	8188.8
855.081	8176.52
855.265	8704.89
855.448	8622.97
855.631	7928.71
855.814	8041.35
855.997	8579.97
856.181	8348.54
856.364	8031.11
856.547	7807.88
856.73	8371.07
856.913	8338.3
857.096	7959.43
857.279	7949.19
857.462	7951.24
857.645	8334.21
857.828	8215.43
858.011	8164.23
858.194	8059.78
858.377	8369.02
858.56	7799.69
858.743	7990.15
858.926	7852.94
859.109	8151.94
859.292	7895.94
859.475	7711.63
859.658	8332.16
859.841	8373.12
860.023	7766.92
860.206	7805.83
860.389	8018.82
860.572	8362.88
860.755	7642
860.937	7730.06
861.12	8096.64
861.303	8129.41
861.486	7662.48
861.668	7494.54
861.851	8227.71
862.034	7998.34
862.216	7969.67
862.399	7570.32
862.581	8096.64
862.764	8440.7
862.947	8033.16
863.129	7549.84
863.312	7566.22
863.494	8278.91
863.677	7838.6
863.859	7506.83
864.042	8080.26
864.224	7998.34
864.406	7637.9
864.589	7478.16
864.771	7949.19
864.954	7689.1
865.136	7297.94
865.318	7365.52
865.501	8014.73
865.683	7494.54
865.865	7373.71
866.048	7244.69
866.23	7910.28
866.412	7656.33
866.594	7205.78
866.777	7642
866.959	7922.57
867.141	7371.66
867.323	7627.66
867.505	7633.8
867.687	7560.08
867.869	7549.84
868.052	7224.21
868.234	7187.35
868.416	7469.97
868.598	7691.15
868.78	7216.02
868.962	7033.75
869.144	7863.18
869.326	7740.3
869.508	7283.6
869.69	7000.98
869.872	7373.71
870.054	7869.32
870.236	7054.23
870.417	7295.89
870.599	7478.16
870.781	7857.03
870.963	7455.63
871.145	7207.83
871.327	7234.45
871.508	7633.8
871.69	7156.63
871.872	7355.28
872.054	7394.19
872.235	7801.74
872.417	7105.43
872.599	7074.71
872.78	7850.89
872.962	7502.73
873.144	7150.48
873.325	7095.19
873.507	7756.68
873.689	7281.55
873.87	6984.6
874.052	7431.05
874.233	7261.07
874.415	7566.22
874.596	7138.2
874.778	7058.32
874.959	7302.03
875.141	7730.06
875.322	7136.15
875.503	7039.89
875.685	7469.97
875.866	7027.6
876.048	7033.75
876.229	6986.65
876.41	7355.28
876.592	7461.77
876.773	7072.66
876.954	6845.34
877.136	7957.38
877.317	7252.88
877.498	7003.03
877.679	7408.53
877.86	7441.29
878.042	7553.93
878.223	7039.89
878.404	7521.17
878.585	7668.62
878.766	7912.33
878.947	7742.35
879.128	7478.16
879.309	7629.71
879.49	7658.38
879.672	7342.99
879.853	7476.11
880.034	7314.32
880.215	7510.93
880.396	7236.5
880.576	7246.74
880.757	7541.64
880.938	8020.87
881.119	7267.22
881.3	7322.51
881.481	7572.36
881.662	8424.32
881.843	7199.63
882.023	7207.83
882.204	7689.1
882.385	7717.77
882.566	7367.57
882.747	7406.48
882.927	7490.45
883.108	7662.48
883.289	7342.99
883.469	7504.78
883.65	7476.11
883.831	7719.82
884.011	7725.96
884.192	7422.86
884.373	7947.14
884.553	7754.63
884.734	7736.2
884.914	7644.04
885.095	8543.1
885.275	8153.99
885.456	7977.86
885.636	7336.85
885.817	7777.16
885.997	7592.84
886.178	7652.24
886.358	7609.23
886.538	7861.13
886.719	9001.85
886.899	7750.54
887.08	7687.05
887.26	8170.37
887.44	7723.91
887.621	7660.43
887.801	7633.8
887.981	8547.2
888.161	8098.69
888.342	7721.87
888.522	7596.94
888.702	8291.2
888.882	8199.04
889.062	7734.15
889.242	7502.73
889.423	8180.61
889.603	8162.18
889.783	7723.91
889.963	7672.71
890.143	8086.4
890.323	8108.93
890.503	7527.31
890.683	7578.51
890.863	7902.09
891.043	7912.33
891.223	7816.07
891.403	7793.55
891.583	8049.54
891.763	8006.53
891.943	7805.83
892.122	7703.43
892.302	7744.39
892.482	7885.7
892.662	7797.64
892.842	7715.72
893.022	8047.49
893.201	7625.61
893.381	7893.9
893.561	7742.35
893.741	8061.83
893.92	7979.91
894.1	7601.04
894.28	7775.11
894.459	7926.66
894.639	7928.71
894.819	7594.89
894.998	7820.17
895.178	7828.36
895.357	7998.34
895.537	7576.46
895.716	7515.02
895.896	7660.43
896.075	8295.3
896.255	7670.67
896.434	7252.88
896.614	8211.33
896.793	8233.86
896.973	7799.69
897.152	7709.58
897.331	7920.52
897.511	8151.94
897.69	7431.05
897.87	7674.76
898.049	7889.8
898.228	8063.88
898.407	7799.69
898.587	7682.95
898.766	7564.17
898.945	7719.82
899.124	7574.41
899.304	7437.2
899.483	7740.3
899.662	8070.02
899.841	7193.49
900.02	7367.57
900.199	7768.97
900.378	7685
900.557	7097.24
900.737	7084.95
900.916	7617.42
901.095	7775.11
901.274	7359.38
901.453	6906.77
901.632	7230.35
901.811	7269.27
901.989	7078.8
902.168	6998.93
902.347	7433.1
902.526	7166.87
902.705	7031.7
902.884	7216.02
903.063	7551.88
903.242	7527.31
903.42	6673.31
903.599	6886.29
903.778	7254.93
903.957	7431.05
904.135	6847.38
904.314	6814.62
904.493	7015.32
904.672	6962.07
904.85	6790.04
905.029	6802.33
905.207	6953.88
905.386	7750.54
905.565	6693.79
905.743	6546.33
905.922	6677.4
906.1	6927.25
906.279	6319.01
906.457	6273.95
906.636	6503.32
906.814	6413.21
906.993	6398.88
907.171	6300.58
907.35	6773.66
907.528	6890.39
907.707	6402.97
907.885	6122.4
908.063	6966.17
908.242	6394.78
908.42	6441.89
908.598	6128.55
908.777	6724.51
908.955	6441.89
909.133	6292.38
909.311	5893.03
909.49	6347.68
909.668	6405.02
909.846	6384.54
910.024	6110.11
910.202	6628.25
910.38	6865.82
910.559	6142.88
910.737	6095.78
910.915	6710.17
911.093	6648.73
911.271	6310.82
911.449	6527.9
911.627	6718.36
911.805	7160.72
911.983	6310.82
912.161	6398.88
912.339	6935.45
912.517	6929.3
912.695	6634.39
912.872	6615.96
913.05	6577.05
913.228	6894.49
913.406	6437.79
913.584	6589.34
913.762	6912.92
913.939	6708.12
914.117	6327.2
914.295	6425.5
914.473	6968.21
914.65	6896.53
914.828	6466.46
915.006	6486.94
915.184	6458.27
915.361	6751.13
915.539	6507.42
915.716	6499.23
915.894	6785.94
916.072	6986.65
916.249	6781.85
916.427	6579.1
916.604	6441.89
916.782	7027.6
916.959	6183.84
917.137	6220.71
917.314	6831
917.492	6843.29
917.669	6443.93
917.847	6472.61
918.024	6757.27
918.201	6499.23
918.379	6415.26
918.556	6572.96
918.733	6779.8
918.911	6405.02
919.088	6378.4
919.265	6429.6
919.442	6593.44
919.62	6507.42
919.797	6226.85
919.974	6075.3
920.151	6546.33
920.328	6484.89
920.506	6257.57
920.683	6331.3
920.86	6202.27
921.037	6273.95
921.214	6282.14
921.391	6071.2
921.568	6470.56
921.745	6237.09
921.922	6110.11
922.099	5966.76
922.276	6646.68
922.453	6445.98
922.63	6187.94
922.807	6284.19
922.984	6439.84
923.161	6089.64
923.338	6009.76
923.514	5858.21
923.691	6343.58
923.868	6529.95
924.045	5942.18
924.222	5825.45
924.399	6378.4
924.575	6443.93
924.752	5944.23
924.929	5991.33
925.105	6226.85
925.282	5983.14
925.459	5774.25
925.635	5839.78
925.812	6257.57
925.989	6003.62
926.165	6030.24
926.342	5850.02
926.518	5725.1
926.695	6130.59
926.871	5643.18
927.048	5503.92
927.224	6048.68
927.401	5653.42
927.577	5673.9
927.754	5585.83
927.93	6085.54
928.107	5888.93
928.283	5522.35
928.459	5737.38
928.636	5864.36
928.812	5798.82
928.988	5387.18
929.165	5260.21
929.341	5704.62
929.517	5759.91
929.693	5852.07
929.87	5161.91
930.046	5649.32
930.222	5503.92
930.398	5239.73
930.574	5258.16
930.751	5639.08
930.927	5434.29
931.103	5206.96
931.279	5256.11
931.455	5225.39
931.631	5530.54
931.807	5020.6
931.983	5004.21
932.159	5186.48
932.335	5454.76
932.511	5307.31
932.687	4844.47
932.863	5284.78
933.039	4961.2
933.215	4828.09
933.391	4828.09
933.566	5161.91
933.742	5110.71
933.918	4944.82
934.094	4795.32
934.27	5170.1
934.445	4867
934.621	4973.49
934.797	4721.59
934.973	5118.9
935.148	4905.91
935.324	4336.57
935.5	4455.36
935.675	4989.88
935.851	4731.83
936.027	4365.25
936.202	4412.35
936.378	4715.45
936.553	4545.47
936.729	4492.22
936.904	3957.7
937.08	3881.92
937.255	4182.98
937.431	3836.87
937.606	3720.14
937.782	3910.6
937.957	4166.59
938.133	3777.48
938.308	3476.43
938.483	3824.58
938.659	3677.13
938.834	3617.74
939.009	3521.48
939.185	3523.53
939.36	3421.13
939.535	2980.82
939.71	3578.83
939.886	3627.98
940.061	3509.19
940.236	3410.89
940.411	3126.22
940.586	3578.83
940.761	3505.1
940.937	3099.6
941.112	2999.25
941.287	3318.73
941.462	3228.62
941.637	2898.9
941.812	3091.41
941.987	3279.82
942.162	3247.05
942.337	2982.87
942.512	2878.42
942.687	3292.11
942.862	3197.9
943.037	2751.45
943.212	2601.94
943.386	3007.44
943.561	3122.13
943.736	2984.91
943.911	3075.03
944.086	3079.12
944.26	3275.73
944.435	2853.84
944.61	2993.11
944.785	3341.26
944.959	3478.47
945.134	2812.89
945.309	2804.69
945.483	2839.51
945.658	3288.01
945.833	2524.12
946.007	2579.42
946.182	3355.6
946.357	2773.97
946.531	2726.87
946.706	2692.05
946.88	2702.29
947.055	3136.46
947.229	2808.79
947.404	2755.54
947.578	3245.01
947.752	2978.77
947.927	2636.76
948.101	2511.83
948.276	3212.24
948.45	3165.14
948.624	3130.32
948.799	2773.97
948.973	3216.33
949.147	2743.25
949.321	2884.56
949.496	2905.04
949.67	3359.69
949.844	3130.32
950.018	2921.43
950.193	3009.49
950.367	3746.76
950.541	3111.89
950.715	3070.93
950.889	3095.5
951.063	3122.13
951.237	3328.97
951.411	2694.1
951.585	2798.55
951.759	3310.54
951.933	3214.29
952.107	3068.88
952.281	3195.86
952.455	3564.49
952.629	3484.62
952.803	3036.11
952.977	2907.09
953.151	3361.74
953.325	3214.29
953.499	3107.79
953.672	2960.34
953.846	3132.37
954.02	3335.12
954.194	3062.74
954.368	3081.17
954.541	3474.38
954.715	3355.6
954.889	3218.38
955.062	3122.13
955.236	3294.16
955.41	3144.66
955.583	3312.59
955.757	2927.57
955.93	3247.05
956.104	3038.16
956.278	3103.7
956.451	3115.98
956.625	3414.99
956.798	3720.14
956.972	3398.6
957.145	3072.98
957.319	3433.42
957.492	3312.59
957.665	3367.88
957.839	3152.85
958.012	3449.8
958.185	3296.21
958.359	3177.42
958.532	3302.35
958.705	3587.02
958.879	3423.18
959.052	3347.4
959.225	3040.21
959.398	3451.85
959.572	3607.5
959.745	3267.53
959.918	3173.33
960.091	3400.65
960.264	3701.7
960.438	3007.44
960.611	3218.38
960.784	3607.5
960.957	3193.81
961.13	3501
961.303	3158.99
961.476	3367.88
961.649	3603.4
961.822	3163.09
961.995	3277.77
962.168	3472.33
962.341	3533.77
962.514	3263.44
962.686	3048.4
962.859	3640.26
963.032	3458
963.205	3144.66
963.378	2964.43
963.551	3650.5
963.723	3476.43
963.896	3251.15
964.069	3273.68
964.242	3308.49
964.414	3609.54
964.587	3275.73
964.76	3050.45
964.932	3562.44
965.105	3498.95
965.278	3300.3
965.45	3181.52
965.623	3339.21
965.795	3533.77
965.968	3146.7
966.14	3232.72
966.313	3277.77
966.485	3521.48
966.658	3138.51
966.83	2997.2
967.003	3642.31
967.175	3445.71
967.348	3136.46
967.52	3290.06
967.692	3636.17
967.865	3517.39
968.037	3093.46
968.209	3333.07
968.382	3331.02
968.554	3562.44
968.726	3195.86
968.898	2989.01
969.071	3371.98
969.243	3300.3
969.415	3122.13
969.587	3253.2
969.759	3781.57
969.932	3566.54
970.104	3046.35
970.276	2720.73
970.448	3202
970.62	2997.2
970.792	3101.65
970.964	3152.85
971.136	3607.5
971.308	3271.63
971.48	2913.24
971.652	2898.9
971.824	3615.69
971.996	3021.78
972.168	3042.26
972.339	3060.69
972.511	3501
972.683	3075.03
972.855	3259.34
973.027	3011.54
973.199	3216.33
973.37	3425.23
973.542	3103.7
973.714	3208.14
973.886	3208.14
974.057	3496.91
974.229	2843.6
974.401	2872.28
974.572	3009.49
974.744	2841.56
974.915	2900.95
975.087	2886.61
975.259	3470.28
975.43	2939.86
975.602	3001.3
975.773	2698.2
975.945	2812.89
976.116	3255.25
976.288	2714.58
976.459	3034.07
976.63	3001.3
976.802	3230.67
976.973	2712.53
977.145	2960.34
977.316	3484.62
977.487	3105.74
977.659	2900.95
977.83	2857.94
978.001	3533.77
978.172	3124.18
978.344	2771.93
978.515	2870.23
978.686	2993.11
978.857	3285.97
979.028	2743.25
979.2	2716.63
979.371	3132.37
979.542	3029.97
979.713	2905.04
979.884	2411.48
980.055	2784.21
980.226	2804.69
980.397	2571.22
980.568	2456.54
980.739	3099.6
980.91	2706.39
981.081	2710.49
981.252	2630.62
981.423	2814.93
981.594	3032.02
981.765	2612.18
981.936	2798.55
982.106	2915.28
982.277	3089.36
982.448	2434.01
982.619	2730.97
982.79	2649.05
982.96	2974.67
983.131	2665.43
983.302	2290.65
983.472	2517.98
983.643	2784.21
983.814	2614.23
983.984	2507.74
984.155	2577.37
984.326	3015.63
984.496	2448.35
984.667	2538.46
984.837	2558.94
985.008	3089.36
985.178	2790.36
985.349	2479.07
985.519	2653.14
985.69	2487.26
985.86	2399.2
986.031	2362.33
986.201	2804.69
986.371	2712.53
986.542	2243.55
986.712	2194.4
986.882	2671.58
987.053	2798.55
987.223	2233.31
987.393	2407.39
987.563	2495.45
987.734	2589.66
987.904	2702.29
988.074	2214.88
988.244	2659.29
988.414	2513.88
988.585	2296.8
988.755	2454.49
988.925	2388.96
989.095	2816.98
989.265	2147.3
989.435	2288.61
989.605	2606.04
989.775	2472.92
989.945	2448.35
990.115	2048.99
990.285	2409.44
990.455	2495.45
990.625	2145.25
990.795	2071.52
990.965	2747.35
991.134	2135.01
991.304	2014.18
991.474	2231.26
991.644	2483.16
991.814	2782.17
991.984	1969.12
992.153	2071.52
992.323	2309.08
992.493	2315.23
992.662	1934.31
992.832	2108.38
993.002	2239.45
993.171	2419.68
993.341	1840.1
993.511	2087.9
993.68	2137.06
993.85	2272.22
994.019	1776.61
994.189	1952.74
994.358	2354.14
994.528	2124.77
994.697	1676.26
994.867	1809.38
995.036	2366.43
995.206	2018.27
995.375	1891.3
995.544	2030.56
995.714	2194.4
995.883	2024.42
996.052	1973.22
996.222	1764.33
996.391	2606.04
996.56	2296.8
996.73	1827.81
996.899	1756.13
997.068	2376.67
997.237	1991.65
997.406	1694.69
997.576	1743.85
997.745	2104.29
997.914	2120.67
998.083	1627.11
998.252	1833.96
998.421	2030.56
998.59	1782.76
998.759	1715.17
998.928	1510.38
999.097	2276.32
999.266	2214.88
999.435	1844.2
999.604	1512.42
999.773	2427.87
999.942	2030.56
1000.111	1541.1
1000.28	1539.05
1000.448	1788.9
1000.617	1608.68
1000.786	1852.39
1000.955	1498.09
1001.124	2106.34
1001.292	2470.87
1001.461	1674.21
1001.63	1580.01
1001.798	2329.56
1001.967	2210.78
1002.136	1430.51
1002.304	1457.13
1002.473	2067.42
1002.642	1973.22
1002.81	1645.54
1002.979	1508.33
1003.147	1960.93
1003.316	2360.28
1003.484	1549.29
1003.653	1295.34
1003.821	2122.72
1003.99	1735.65
1004.158	1580.01
1004.327	1539.05
1004.495	2008.03
1004.663	1506.28
1004.832	1450.99
1005	1231.85
1005.168	1989.6
1005.337	1727.46
1005.505	1258.48
1005.673	1469.42
1005.842	1774.56
1006.01	1874.92
1006.178	1248.24
1006.346	1350.64
1006.514	1776.61
1006.683	1866.72
1006.851	1403.88
1007.019	1412.07
1007.187	1518.57
1007.355	1217.52
1007.523	1113.07
1007.691	1190.89
1007.859	1348.59
1008.027	1883.11
1008.195	1274.86
1008.363	1211.37
1008.531	1782.76
1008.699	1465.32
1008.867	1106.93
1009.035	1227.76
1009.203	1913.83
1009.37	1577.96
1009.538	1244.14
1009.706	1600.49
1009.874	1575.91
1010.042	1539.05
1010.209	1006.58
1010.377	1063.92
1010.545	1790.95
1010.713	1487.85
1010.88	1233.9
1011.048	1184.75
1011.216	1352.68
1011.383	1803.24
1011.551	1004.53
1011.718	1045.49
1011.886	1631.21
1012.054	1473.51
1012.221	1086.45
1012.389	1086.45
1012.556	1379.31
1012.724	1741.8
1012.891	1162.22
1013.058	920.56
1013.226	1432.55
1013.393	1567.72
1013.561	873.46
1013.728	881.65
1013.895	1598.44
1014.063	1489.9
1014.23	910.32
1014.397	996.34
1014.565	1600.49
1014.732	1223.66
1014.899	918.51
1015.066	809.97
1015.233	1328.11
1015.401	1547.24
1015.568	1057.78
1015.735	1025.01
1015.902	1334.25
1016.069	1418.22
1016.236	934.9
1016.403	838.64
1016.57	1012.72
1016.737	1598.44
1016.904	842.74
1017.071	793.59
1017.238	1016.82
1017.405	1377.26
1017.572	873.46
1017.739	1084.4
1017.906	1244.14
1018.073	1448.94
1018.24	654.33
1018.407	844.79
1018.573	1504.23
1018.74	1080.3
1018.907	902.13
1019.074	676.85
1019.241	1379.31
1019.407	1168.37
1019.574	719.86
1019.741	664.57
1019.907	1283.05
1020.074	1293.29
1020.241	531.45
1020.407	707.57
1020.574	1231.85
1020.74	1258.48
1020.907	734.2
1021.073	601.08
1021.24	1702.89
1021.406	1383.4
1021.573	703.48
1021.739	758.77
1021.906	1283.05
1022.072	1037.3
1022.239	797.68
1022.405	683
1022.571	1137.65
1022.738	855.03
1022.904	707.57
1023.07	773.11
1023.237	1113.07
1023.403	1309.68
1023.569	809.97
1023.735	777.2
1023.902	1158.13
1024.068	1168.37
1024.234	515.06
1024.4	596.98
1024.566	1053.68
1024.732	1276.91
1024.898	670.71
1025.065	519.16
1025.231	1133.55
1025.397	1057.78
1025.563	627.7
1025.729	513.02
1025.895	596.98
1026.061	842.74
1026.227	470.01
1026.392	592.89
1026.558	1215.47
1026.724	1039.34
1026.89	502.78
1027.056	672.76
1027.222	1074.16
1027.388	936.95
1027.553	539.64
1027.719	558.07
1027.885	1346.54
1028.051	1131.5
1028.216	328.7
1028.382	654.33
1028.548	1059.82
1028.713	779.25
1028.879	502.78
1029.045	570.36
1029.21	1213.42
1029.376	1037.3
1029.541	531.45
1029.707	621.56
1029.873	1035.25
1030.038	1145.84
1030.204	543.74
1030.369	553.98
1030.534	1008.62
1030.7	812.02
1030.865	603.13
1031.031	480.25
1031.196	998.38
1031.361	969.71
1031.527	513.02
1031.692	424.95
1031.857	404.47
1032.023	934.9
1032.188	355.32
1032.353	531.45
1032.518	1172.46
1032.684	855.03
1032.849	379.9
1033.014	494.58
1033.179	1027.06
1033.344	1033.2
1033.509	572.41
1033.674	429.05
1033.839	945.14
1034.004	900.08
1034.17	486.39
1034.335	257.02
1034.5	728.05
1034.664	560.12
1034.829	302.08
1034.994	449.53
1035.159	842.74
1035.324	902.13
1035.489	408.57
1035.654	363.51
1035.819	1020.91
1035.984	838.64
1036.148	480.25
1036.313	369.66
1036.478	1053.68
1036.643	820.21
1036.807	343.03
1036.972	351.23
1037.137	1168.37
1037.301	773.11
1037.466	128
1037.631	562.17
1037.795	1045.49
1037.96	775.16
1038.124	658.42
1038.289	302.08
1038.454	895.99
1038.618	822.26
1038.783	416.76
1038.947	429.05
1039.111	691.19
1039.276	637.94
1039.44	402.43
1039.605	777.2
1039.769	656.37
1039.933	719.86
1040.098	408.57
1040.262	541.69
1040.426	928.75
1040.591	891.89
1040.755	216.06
1040.919	340.99
1041.083	830.45
1041.248	625.65
1041.412	175.1
1041.576	265.21
1041.74	580.6
1041.904	920.56
1042.068	267.26
1042.232	322.56
1042.397	883.7
1042.561	676.85
1042.725	64.51
1042.889	357.37
1043.053	809.97
1043.217	752.63
1043.381	328.7
1043.544	189.44
1043.708	852.98
1043.872	340.99
1044.036	19.46
1044.2	130.05
1044.364	855.03
1044.528	949.23
1044.691	3601.35
1044.855	175.1
1045.019	873.46
1045.183	795.64
1045.346	400.38
1045.51	123.9
1045.674	732.15
1045.837	728.05
1046.001	263.16
1046.165	252.92
1046.328	1256.43
1046.492	746.48
1046.655	373.75
1046.819	271.36
1046.983	527.35
1047.146	693.24
1047.31	285.69
1047.473	9.22
1047.636	683
1047.8	416.76
1047.963	277.5
1048.127	179.2
1048.29	408.57
