Data from Hydrogel_Ink_Intensity_Test_1_USB4F045381__46__00046.txt Node

Date: Mon Jul 31 10:47:49 EDT 2023
User: mmckonesweet
Spectrometer: USB4F04538
Trigger mode: 4
Integration Time (sec): 9.000000E-1
Scans to average: 1
Electric dark correction enabled: true
Nonlinearity correction enabled: false
Boxcar width: 0
XAxis mode: Wavelengths
Number of Pixels in Spectrum: 3648
>>>>>Begin Spectral Data<<<<<
345.52	-1050.1
345.736	-1050.1
345.952	-1050.1
346.168	-1048.05
346.384	-1115.63
346.6	-210.43
346.816	-278.01
347.032	-243.2
347.248	311.8
347.464	-196.09
347.68	-91.65
347.896	43.52
348.112	438.78
348.328	-52.74
348.544	-73.21
348.76	104.96
348.975	246.27
349.191	-187.9
349.407	-144.89
349.623	41.47
349.839	-105.98
350.055	-163.33
350.27	31.23
350.486	182.78
350.702	360.95
350.918	266.75
351.133	-212.48
351.349	170.49
351.565	381.43
351.781	-222.72
351.996	-11.78
352.212	301.56
352.428	-103.93
352.644	-112.13
352.859	-259.58
353.075	156.16
353.291	-50.69
353.506	-122.37
353.722	-222.72
353.938	-52.74
354.153	442.87
354.369	107.01
354.584	-181.76
354.8	309.76
355.016	-212.48
355.231	-153.09
355.447	-22.02
355.662	133.63
355.878	842.23
356.093	-310.78
356.309	47.62
356.524	-237.05
356.74	190.97
356.955	-206.33
357.171	-71.17
357.386	223.74
357.602	-280.06
357.817	-50.69
358.033	-95.74
358.248	373.24
358.464	170.49
358.679	-138.75
358.895	-314.88
359.11	20.99
359.325	354.81
359.541	238.08
359.756	-32.26
359.972	-312.83
360.187	150.01
360.402	-220.67
360.618	-134.65
360.833	979.44
361.048	139.77
361.264	-198.14
361.479	49.66
361.694	41.47
361.909	231.93
362.125	-224.76
362.34	-116.22
362.555	168.45
362.77	113.15
362.986	-259.58
363.201	-210.43
363.416	227.84
363.631	68.09
363.847	-177.66
364.062	-130.56
364.277	246.27
364.492	195.07
364.707	-46.59
364.922	-427.51
365.138	281.08
365.353	283.13
365.568	-192
365.783	-173.57
365.998	133.63
366.213	563.7
366.428	-263.68
366.643	8.7
366.858	309.76
367.073	199.16
367.288	-159.23
367.503	-179.71
367.718	94.72
367.933	356.86
368.148	-275.96
368.363	-73.21
368.578	-22.02
368.793	516.6
369.008	-140.8
369.223	-169.47
369.438	164.35
369.653	477.69
369.868	-249.34
370.083	-245.24
370.298	135.68
370.513	397.82
370.728	96.77
370.943	-159.23
371.157	-75.26
371.372	518.65
371.587	-263.68
371.802	-173.57
372.017	8.7
372.232	440.83
372.446	27.14
372.661	-239.1
372.876	211.45
373.091	227.84
373.306	-114.17
373.52	-167.42
373.735	-99.84
373.95	367.1
374.165	-108.03
374.379	-67.07
374.594	-95.74
374.809	168.45
375.023	23.04
375.238	-177.66
375.453	326.14
375.667	-263.68
375.882	-81.41
376.097	-173.57
376.311	8.7
376.526	70.14
376.741	-218.62
376.955	137.73
377.17	530.94
377.384	649.72
377.599	51.71
377.813	-75.26
378.028	575.99
378.242	221.69
378.457	-7.68
378.672	-312.83
378.886	145.92
379.101	86.53
379.315	-310.78
379.53	-54.78
379.744	266.75
379.958	203.26
380.173	-58.88
380.387	-116.22
380.602	254.46
380.816	-75.26
381.031	-50.69
381.245	-71.17
381.459	281.08
381.674	2621.91
381.888	-206.33
382.103	150.01
382.317	-99.84
382.531	504.31
382.746	-44.54
382.96	-118.27
383.174	-120.32
383.388	530.94
383.603	170.49
383.817	-210.43
384.031	266.75
384.246	518.65
384.46	2.56
384.674	489.98
384.888	92.67
385.103	215.55
385.317	-177.66
385.531	33.28
385.745	440.83
385.959	420.35
386.174	-151.04
386.388	-126.46
386.602	88.57
386.816	-97.79
387.03	-42.5
387.244	-48.64
387.458	166.4
387.672	463.35
387.887	-155.13
388.101	-99.84
388.315	373.24
388.529	236.03
388.743	-83.45
388.957	-15.87
389.171	469.5
389.385	-128.51
389.599	-36.35
389.813	227.84
390.027	240.12
390.241	649.72
390.455	-24.06
390.669	29.18
390.883	18.94
391.097	573.94
391.311	233.98
391.525	-120.32
391.738	334.33
391.952	295.42
392.166	0.51
392.38	-163.33
392.594	393.72
392.808	461.3
393.022	59.9
393.236	-34.3
393.449	414.2
393.663	248.32
393.877	-108.03
394.091	80.38
394.305	-95.74
394.518	27.14
394.732	-83.45
394.946	-58.88
395.16	526.84
395.373	154.11
395.587	-163.33
395.801	-44.54
396.015	408.06
396.228	301.56
396.442	-161.28
396.656	-218.62
396.869	481.78
397.083	500.22
397.297	49.66
397.51	-5.63
397.724	449.02
397.938	293.37
398.151	-206.33
398.365	-132.61
398.578	385.53
398.792	555.51
399.005	121.34
399.219	72.19
399.433	248.32
399.646	285.18
399.86	150.01
400.073	115.2
400.287	449.02
400.5	178.69
400.714	190.97
400.927	152.06
401.141	414.2
401.354	1276.4
401.567	295.42
401.781	-157.18
401.994	510.46
402.208	829.94
402.421	23.04
402.635	102.91
402.848	176.64
403.061	459.26
403.275	64
403.488	-130.56
403.701	664.05
403.915	432.63
404.128	231.93
404.341	61.95
404.555	403.96
404.768	195.07
404.981	160.25
405.195	55.81
405.408	676.34
405.621	475.64
405.834	326.14
406.048	8.7
406.261	610.81
406.474	668.15
406.687	-19.97
406.9	162.3
407.114	209.4
407.327	389.63
407.54	-142.85
407.753	-54.78
407.966	8.7
408.179	303.61
408.392	57.86
408.605	-44.54
408.819	442.87
409.032	375.29
409.245	72.19
409.458	233.98
409.671	444.92
409.884	573.94
410.097	-3.58
410.31	217.6
410.523	363
410.736	205.31
410.949	197.12
411.162	102.91
411.375	610.81
411.588	573.94
411.801	276.99
412.014	100.86
412.227	283.13
412.44	180.73
412.653	121.34
412.865	195.07
413.078	551.42
413.291	440.83
413.504	207.36
413.717	129.53
413.93	543.22
414.143	51.71
414.356	182.78
414.568	-56.83
414.781	575.99
414.994	403.96
415.207	229.88
415.42	195.07
415.632	498.17
415.845	897.52
416.058	-28.16
416.271	23.04
416.483	377.34
416.696	758.26
416.909	137.73
417.121	80.38
417.334	481.78
417.547	801.27
417.759	152.06
417.972	129.53
418.185	238.08
418.397	616.95
418.61	195.07
418.823	102.91
419.035	772.6
419.248	420.35
419.46	199.16
419.673	305.66
419.885	449.02
420.098	344.57
420.311	285.18
420.523	-73.21
420.736	551.42
420.948	408.06
421.161	174.59
421.373	-17.92
421.586	449.02
421.798	219.64
422.01	18.94
422.223	305.66
422.435	225.79
422.648	641.53
422.86	178.69
423.073	205.31
423.285	674.29
423.497	201.21
423.71	119.29
423.922	166.4
424.134	616.95
424.347	842.23
424.559	516.6
424.771	444.92
424.984	385.53
425.196	625.14
425.408	123.39
425.621	113.15
425.833	715.25
426.045	758.26
426.257	137.73
426.47	289.28
426.682	555.51
426.894	629.24
427.106	274.94
427.318	320
427.531	477.69
427.743	662.01
427.955	190.97
428.167	678.39
428.379	623.09
428.591	514.55
428.804	399.87
429.016	242.17
429.228	356.86
429.44	596.47
429.652	543.22
429.864	207.36
430.076	406.01
430.288	508.41
430.5	391.67
430.712	397.82
430.924	846.32
431.136	559.61
431.348	186.88
431.56	233.98
431.772	578.04
431.984	633.33
432.196	379.39
432.408	326.14
432.62	473.59
432.832	662.01
433.044	606.71
433.256	606.71
433.468	702.97
433.679	238.08
433.891	188.93
434.103	635.38
434.315	954.87
434.527	891.38
434.739	561.66
434.95	498.17
435.162	840.18
435.374	487.93
435.586	543.22
435.798	358.91
436.009	442.87
436.221	563.7
436.433	451.07
436.645	549.37
436.856	662.01
437.068	899.57
437.28	393.72
437.491	756.21
437.703	764.4
437.915	758.26
438.126	449.02
438.338	743.92
438.55	666.1
438.761	842.23
438.973	522.74
439.184	557.56
439.396	719.35
439.608	1018.35
439.819	399.87
440.031	557.56
440.242	864.75
440.454	852.47
440.665	588.28
440.877	616.95
441.088	887.28
441.3	635.38
441.511	444.92
441.723	508.41
441.934	780.79
442.146	778.74
442.357	709.11
442.569	895.47
442.78	860.66
442.991	1219.05
443.203	770.55
443.414	438.78
443.626	1165.81
443.837	659.96
444.048	535.03
444.26	332.28
444.471	856.56
444.682	1040.88
444.894	444.92
445.105	481.78
445.316	1034.74
445.528	932.34
445.739	745.97
445.95	694.77
446.161	903.67
446.373	1206.77
446.584	680.44
446.795	600.57
447.006	1004.02
447.217	1219.05
447.429	434.68
447.64	444.92
447.851	1044.98
448.062	1001.97
448.273	467.45
448.484	573.94
448.695	989.68
448.907	905.71
449.118	750.07
449.329	922.1
449.54	891.38
449.751	758.26
449.962	616.95
450.173	621.05
450.384	1227.25
450.595	1212.91
450.806	762.36
451.017	772.6
451.228	1323.5
451.439	1165.81
451.65	731.64
451.861	559.61
452.072	727.54
452.283	944.63
452.494	969.2
452.705	688.63
452.915	1264.11
453.126	1192.43
453.337	735.73
453.548	768.5
453.759	1300.97
453.97	1593.83
454.181	950.77
454.391	913.91
454.602	1104.37
454.813	1178.09
455.024	889.33
455.235	844.28
455.445	1157.61
455.656	1239.53
455.867	1012.21
456.078	842.23
456.288	1001.97
456.499	1122.8
456.71	868.85
456.921	1155.57
457.131	1362.41
457.342	1139.18
457.553	979.44
457.763	969.2
457.974	1305.07
458.184	1452.52
458.395	823.8
458.606	952.82
458.816	1561.06
459.027	1747.43
459.237	1106.42
459.448	842.23
459.659	1507.82
459.869	1903.07
460.08	874.99
460.29	1161.71
460.501	1849.83
460.711	1225.2
460.922	973.3
461.132	1061.36
461.343	1929.7
461.553	1051.12
461.764	1141.23
461.974	1098.22
462.184	1460.71
462.395	1595.88
462.605	1343.98
462.816	1120.75
463.026	1450.47
463.236	1718.76
463.447	1085.94
463.657	1155.57
463.867	1614.31
464.078	1432.04
464.288	1278.44
464.498	1321.45
464.709	1393.13
464.919	1511.91
465.129	1329.64
465.339	1331.69
465.55	1597.93
465.76	1882.6
465.97	1325.55
466.18	1358.32
466.391	1944.03
466.601	1634.79
466.811	1591.78
467.021	1276.4
467.231	1839.59
467.441	1858.02
467.651	1518.06
467.862	1243.63
468.072	1729
468.282	2179.55
468.492	1462.76
468.702	1604.07
468.912	1735.14
469.122	2374.11
469.332	1995.23
469.542	1614.31
469.752	2187.74
469.962	1972.71
470.172	1608.17
470.382	1620.46
470.592	2226.65
470.802	2296.28
471.012	1939.94
471.222	1806.82
471.432	2267.61
471.642	2398.68
471.852	2068.96
472.062	1876.45
472.272	2095.58
472.482	1956.32
472.691	1937.89
472.901	1767.91
473.111	2310.62
473.321	2818.52
473.531	1984.99
473.741	2118.11
473.95	2419.16
474.16	2556.38
474.37	2329.05
474.58	2068.96
474.79	2978.26
474.999	2617.82
475.209	2185.69
475.419	2267.61
475.628	2533.85
475.838	2859.48
476.048	2384.35
476.258	2218.46
476.467	3006.93
476.677	2556.38
476.886	2628.06
477.096	2529.75
477.306	2650.58
477.515	3135.95
477.725	2623.96
477.935	2714.07
478.144	3144.14
478.354	2808.28
478.563	2759.13
478.773	2621.91
478.982	3230.16
479.192	3324.37
479.401	2769.37
479.611	2787.8
479.82	2951.63
480.03	3285.45
480.239	2775.51
480.449	2777.56
480.658	3498.44
480.868	3213.77
481.077	3049.94
481.287	2974.16
481.496	3518.92
481.705	3709.38
481.915	3375.56
482.124	3365.32
482.333	3654.09
482.543	3822.02
482.752	3342.8
482.961	3125.71
483.171	3912.13
483.38	3469.77
483.589	3477.96
483.799	3396.04
484.008	3656.14
484.217	3944.9
484.426	3520.97
484.636	3525.07
484.845	3809.73
485.054	3473.87
485.263	3760.58
485.472	3471.82
485.682	4348.35
485.891	3889.6
486.1	3535.31
486.309	3668.42
486.518	4209.09
486.727	4311.49
486.936	3797.45
487.146	3875.27
487.355	4389.31
487.564	3826.12
487.773	3850.69
487.982	3989.96
488.191	4143.55
488.4	4157.89
488.609	4118.98
488.818	4088.26
489.027	4866.49
489.236	4823.48
489.445	4104.64
489.654	4155.84
489.863	4610.49
490.072	4444.6
490.281	4542.91
490.49	4352.45
490.698	4964.79
490.907	4938.16
491.116	4473.28
491.325	4258.24
491.534	4774.33
491.743	4749.75
491.952	4571.58
492.16	4577.72
492.369	5028.28
492.578	5052.85
492.787	4630.97
492.996	4434.36
493.204	4696.5
493.413	5265.84
493.622	4366.78
493.831	4506.04
494.039	5343.66
494.248	4913.59
494.457	4643.26
494.665	4643.26
494.874	5321.13
495.083	5530.03
495.291	4905.4
495.5	4860.34
495.709	5613.99
495.917	5259.7
496.126	4915.64
496.335	4921.78
496.543	5067.19
496.752	5247.41
496.96	5372.33
497.169	5038.52
497.377	5456.3
497.586	5773.74
497.794	5333.42
498.003	5038.52
498.211	5474.73
498.42	5777.83
498.628	5228.98
498.837	5210.54
499.045	5556.65
499.254	5618.09
499.462	5308.85
499.671	5286.32
499.879	6121.89
500.087	5956.01
500.296	5343.66
500.504	5511.6
500.713	5818.79
500.921	6347.17
501.129	5624.23
501.338	5532.08
501.546	6011.3
501.754	5968.29
501.962	5540.27
502.171	5671.34
502.379	6078.88
502.587	6369.69
502.795	5919.14
503.004	5661.1
503.212	6140.32
503.42	6345.12
503.628	5945.77
503.837	5882.28
504.045	6316.45
504.253	6508.96
504.461	5826.98
504.669	5749.16
504.877	6390.17
505.085	6541.72
505.294	5906.85
505.502	6023.59
505.71	6343.07
505.918	6556.06
506.126	5984.68
506.334	5888.42
506.542	6414.75
506.75	6338.98
506.958	6164.9
507.166	6158.75
507.374	6273.44
507.582	6965.65
507.79	6103.46
507.998	6332.83
508.206	6496.67
508.414	6672.79
508.622	6193.57
508.83	6136.23
509.037	7031.19
509.245	6502.81
509.453	6261.15
509.661	6183.33
509.869	6812.06
510.077	6560.16
510.285	6535.58
510.492	6132.13
510.7	7209.36
510.908	6498.72
511.116	6457.76
511.324	6437.28
511.531	6803.86
511.739	6896.02
511.947	6531.48
512.155	6842.78
512.362	6801.82
512.57	6590.88
512.778	6484.38
512.985	6420.89
513.193	7344.53
513.401	7307.66
513.608	6699.42
513.816	6785.43
514.024	7102.87
514.231	7289.23
514.439	6723.99
514.646	6885.78
514.854	7340.43
515.061	7258.51
515.269	6791.58
515.477	6871.45
515.684	7051.67
515.892	7596.43
516.099	6867.35
516.307	6822.3
516.514	7473.55
516.722	7602.57
516.929	7045.52
517.136	6807.96
517.344	7651.72
517.551	7399.82
517.759	7016.85
517.966	7186.83
518.173	7184.79
518.381	7412.11
518.588	7240.08
518.796	6996.37
519.003	7451.02
519.21	7418.25
519.418	7356.82
519.625	7436.69
519.832	7358.86
520.039	7686.54
520.247	7119.25
520.454	7293.33
520.661	7924.1
520.868	7795.08
521.076	7309.71
521.283	7377.3
521.49	8319.36
521.697	7825.8
521.904	7367.06
522.112	7379.34
522.319	8030.6
522.526	7881.1
522.733	7272.85
522.94	7543.18
523.147	7821.7
523.354	8163.72
523.561	7506.32
523.768	7668.11
523.975	8149.38
524.183	7985.54
524.39	7670.15
524.597	7508.37
524.804	7963.01
525.011	7838.09
525.218	7643.53
525.425	7760.27
525.632	8237.44
525.838	7905.67
526.045	7913.86
526.252	7885.19
526.459	9419.12
526.666	9109.88
526.873	7852.42
527.08	7922.06
527.287	8515.97
527.494	8313.22
527.701	8016.26
527.907	7790.99
528.114	8372.61
528.321	8243.59
528.528	8108.42
528.735	7944.58
528.941	8440.19
529.148	8114.56
529.355	8157.57
529.562	8083.84
529.768	8681.85
529.975	8290.69
530.182	8247.68
530.388	8073.6
530.595	8741.24
530.802	8231.3
531.008	8571.26
531.215	8251.78
531.422	9460.08
531.628	9462.13
531.835	8429.95
532.042	8567.17
532.248	8526.21
532.455	8876.41
532.661	8425.86
532.868	8472.96
533.074	8878.46
533.281	8956.28
533.487	8587.64
533.694	8391.04
533.9	8853.88
534.107	8956.28
534.313	8532.35
534.52	8513.92
534.726	9181.56
534.933	9347.44
535.139	8634.75
535.345	8579.45
535.552	9173.36
535.758	9265.52
535.965	8731
536.171	8616.32
536.377	9355.63
536.584	9462.13
536.79	8876.41
536.996	9036.15
537.203	9378.16
537.409	9175.41
537.615	8747.39
537.821	9083.25
538.028	9460.08
538.234	9468.27
538.44	9070.97
538.646	9120.12
538.853	9525.61
539.059	9329.01
539.265	9427.31
539.471	8958.33
539.677	9605.49
539.883	9392.5
540.09	9197.94
540.296	9660.78
540.502	9666.92
540.708	9421.17
540.914	9283.95
541.12	9218.42
541.326	9824.62
541.532	9791.85
541.738	9847.15
541.944	9605.49
542.15	9961.83
542.356	9816.43
542.562	9648.49
542.768	9611.63
542.974	10328.42
543.18	10412.39
543.386	9335.15
543.592	9435.5
543.798	10510.69
544.004	10025.32
544.21	9738.6
544.415	9709.93
544.621	9992.55
544.827	10361.19
545.033	9722.22
545.239	9877.87
545.445	10053.99
545.651	10183.01
545.856	9914.73
546.062	10066.28
546.268	10209.64
546.474	10137.96
546.679	9873.77
546.885	9822.57
547.091	9963.88
547.297	10735.96
547.502	9916.78
547.708	9806.19
547.914	10037.61
548.119	10283.36
548.325	9703.79
548.531	9689.45
548.736	10715.48
548.942	10140.01
549.147	9914.73
549.353	10252.64
549.559	10668.38
549.764	10410.34
549.97	9859.43
550.175	9841
550.381	10586.46
550.586	10297.7
550.792	10279.27
550.997	10307.94
551.203	10477.92
551.408	10709.34
551.614	10097
551.819	10373.47
552.025	10805.6
552.23	11067.74
552.435	10240.36
552.641	10824.03
552.846	10602.85
553.052	11002.2
553.257	10668.38
553.462	10432.86
553.668	10598.75
553.873	11088.21
554.078	10535.26
554.283	10557.79
554.489	10959.19
554.694	10799.45
554.899	10416.48
555.105	10877.27
555.31	11041.11
555.515	11245.91
555.72	10682.72
555.925	10492.26
556.131	11141.46
556.336	10711.39
556.541	10742.11
556.746	10522.98
556.951	11596.11
557.156	11331.92
557.361	10860.89
557.567	10842.46
557.772	11743.56
557.977	11290.96
558.182	10920.28
558.387	10967.38
558.592	10903.9
558.797	11422.03
559.002	11143.51
559.207	11092.31
559.412	11102.55
559.617	11768.14
559.822	11082.07
560.027	10928.47
560.232	11368.79
560.437	11645.26
560.642	10811.74
560.847	11084.12
561.051	11401.55
561.256	11460.95
561.461	11010.39
561.666	10881.37
561.871	11596.11
562.076	11565.39
562.281	11225.43
562.485	11196.76
562.69	11565.39
562.895	11512.14
563.1	11174.23
563.305	10987.86
563.509	11798.86
563.714	12267.84
563.919	11088.21
564.123	11362.64
564.328	11460.95
564.533	12167.49
564.737	11063.64
564.942	11368.79
565.147	12032.33
565.351	12108.1
565.556	11510.1
565.761	11571.54
565.965	11903.31
566.17	11442.51
566.374	11553.1
566.579	11278.68
566.784	11641.17
566.988	11741.52
567.193	11372.88
567.397	11493.71
567.602	11538.77
567.806	11778.38
568.011	11600.21
568.215	11540.82
568.42	11635.02
568.624	11974.99
568.828	11430.23
569.033	11680.08
569.237	12069.19
569.442	12075.34
569.646	11379.03
569.85	11845.96
570.055	12075.34
570.259	11854.16
570.463	12054.86
570.668	11739.47
570.872	12015.94
571.076	11960.65
571.281	11798.86
571.485	11977.03
571.689	12208.45
571.893	12435.78
572.098	11993.42
572.302	12024.14
572.506	12437.83
572.71	12261.7
572.914	11934.03
573.119	11888.97
573.323	12474.69
573.527	12509.51
573.731	12048.71
573.935	11917.64
574.139	12421.44
574.343	11931.98
574.547	11989.32
574.751	12097.86
574.955	12562.75
575.159	12529.98
575.364	12054.86
575.568	12151.11
575.772	12446.02
575.976	12683.58
576.18	12224.84
576.383	11827.53
576.587	12941.63
576.791	12579.14
576.995	11835.72
577.199	12071.24
577.403	12654.91
577.607	13080.89
577.811	12206.41
578.015	12194.12
578.219	12863.8
578.422	12702.01
578.626	12450.11
578.83	12480.83
579.034	12998.97
579.238	12925.24
579.442	12351.81
579.645	12771.65
579.849	12665.15
580.053	12843.32
580.257	12544.32
580.46	12693.82
580.664	13115.7
580.868	13119.8
581.071	12865.85
581.275	12851.52
581.479	12591.42
581.682	13001.02
581.886	12697.92
582.09	12560.7
582.293	13117.75
582.497	13097.27
582.7	13035.83
582.904	12783.93
583.107	13037.88
583.311	13023.55
583.515	12583.23
583.718	12933.43
583.922	13140.28
584.125	13715.76
584.329	12767.55
584.532	13158.71
584.735	13556.02
584.939	13474.1
585.142	12742.97
585.346	12822.84
585.549	13050.17
585.753	13111.61
585.956	13029.69
586.159	13054.26
586.363	13744.43
586.566	13297.97
586.769	12880.19
586.973	12892.48
587.176	13652.27
587.379	13734.19
587.582	13318.45
587.786	13400.37
587.989	13498.67
588.192	14004.52
588.395	13259.06
588.599	13463.86
588.802	13420.85
589.005	13502.77
589.208	13418.8
589.411	13248.82
589.615	13836.59
589.818	14072.11
590.021	13619.5
590.224	13447.47
590.427	13924.65
590.63	13601.07
590.833	13089.08
591.036	13197.62
591.239	13744.43
591.442	13601.07
591.645	13609.26
591.848	13566.26
592.051	13947.18
592.254	13885.74
592.457	13682.99
592.66	13478.19
592.863	13885.74
593.066	13883.69
593.269	13545.78
593.472	13635.89
593.675	13781.29
593.878	13986.09
594.081	13607.22
594.284	13451.57
594.486	14254.37
594.689	13965.61
594.892	13709.61
595.095	13797.68
595.298	14303.53
595.5	13881.64
595.703	13852.97
595.906	13986.09
596.109	14670.11
596.311	14666.02
596.514	13834.54
596.717	14090.54
596.92	14594.34
597.122	14330.15
597.325	13474.1
597.528	13867.31
597.73	14690.59
597.933	14387.49
598.136	13998.38
598.338	13558.07
598.541	14666.02
598.743	14627.1
598.946	13984.04
599.148	14063.91
599.351	14573.86
599.554	14631.2
599.756	14182.7
599.959	14160.17
600.161	14518.56
600.363	15130.91
600.566	14227.75
600.768	14180.65
600.971	14883.1
601.173	14514.47
601.376	14223.65
601.578	14352.68
601.78	14817.57
601.983	15284.5
602.185	14162.22
602.388	14407.97
602.59	14594.34
602.792	14588.19
602.995	14965.02
603.197	14446.88
603.399	15173.91
603.601	14766.37
603.804	14532.9
604.006	14168.36
604.208	14518.56
604.41	14215.46
604.613	14686.5
604.815	14240.04
605.017	15296.79
605.219	14629.15
605.421	14684.45
605.623	14489.89
605.826	15313.17
606.028	15362.33
606.23	14278.95
606.432	14487.84
606.634	15116.57
606.836	15124.76
607.038	14467.36
607.24	14559.52
607.442	14803.23
607.644	15010.07
607.846	14745.89
608.048	14616.86
608.25	15065.37
608.452	14717.22
608.654	14647.58
608.856	14553.38
609.058	14715.17
609.26	14989.6
609.462	14598.43
609.664	14803.23
609.866	15333.65
610.067	15022.36
610.269	15036.7
610.471	14899.48
610.673	14737.7
610.875	15247.64
611.077	14561.57
611.278	14776.61
611.48	15018.27
611.682	15362.33
611.884	14962.97
612.085	14956.83
612.287	14995.74
612.489	14965.02
612.69	14608.67
612.892	14795.04
613.094	15522.07
613.295	14999.84
613.497	14653.73
613.699	14879
613.9	15685.9
614.102	15325.46
614.304	14938.4
614.505	14453.03
614.707	15030.55
614.908	14938.4
615.11	14700.83
615.311	15020.31
615.513	15395.09
615.714	15313.17
615.916	14819.61
616.117	14848.29
616.319	15100.19
616.52	15528.21
616.722	14903.58
616.923	14932.25
617.124	15579.41
617.326	15198.49
617.527	15048.99
617.729	15091.99
617.93	15440.15
618.131	15264.02
618.333	14874.91
618.534	15024.41
618.735	14903.58
618.937	15384.85
619.138	14813.47
619.339	14792.99
619.54	15610.13
619.742	15257.88
619.943	15184.15
620.144	14977.31
620.345	15442.2
620.546	15507.73
620.748	14821.66
620.949	14858.53
621.15	15483.16
621.351	15178.01
621.552	14725.41
621.753	14788.89
621.954	15198.49
622.155	16089.35
622.356	15026.46
622.558	15249.69
622.759	15520.02
622.96	15845.65
623.161	15245.59
623.362	14948.64
623.563	15218.97
623.764	15184.15
623.965	14993.69
624.166	15544.59
624.366	15298.84
624.567	15374.61
624.768	14993.69
624.969	15081.75
625.17	15317.27
625.371	15358.23
625.572	15202.58
625.773	14905.63
625.973	15612.18
626.174	15270.17
626.375	15319.32
626.576	14956.83
626.777	15694.1
626.977	15837.45
627.178	15395.09
627.379	15374.61
627.58	15264.02
627.78	15468.82
627.981	15116.57
628.182	15241.5
628.382	15700.24
628.583	14938.4
628.784	14911.77
628.984	15159.58
629.185	15792.4
629.386	15675.66
629.586	15343.89
629.787	15284.5
629.987	15728.91
630.188	15464.72
630.388	15237.4
630.589	15171.86
630.79	16165.13
630.99	15722.77
631.191	15403.28
631.391	15335.7
631.591	15808.78
631.792	16034.06
631.992	15493.4
632.193	15509.78
632.393	16054.54
632.594	15583.51
632.794	15352.09
632.994	15513.88
633.195	15671.57
633.395	15804.69
633.595	15300.89
633.796	15440.15
633.996	15194.39
634.196	16089.35
634.397	15335.7
634.597	15624.47
634.797	15360.28
634.997	15946
635.198	15659.28
635.398	15429.91
635.598	15599.89
635.798	16148.75
635.998	15812.88
636.199	15425.81
636.399	15489.3
636.599	15515.92
636.799	15321.37
636.999	15845.65
637.199	15999.24
637.399	15970.57
637.599	15452.44
637.799	15565.07
637.999	15759.63
638.199	16115.98
638.399	15339.8
638.599	15534.35
638.799	15878.41
638.999	16331.01
639.199	15974.67
639.399	15704.34
639.599	16621.83
639.799	15753.49
639.999	15434
640.199	15661.33
640.399	15900.94
640.599	15489.3
640.799	15665.42
640.998	15765.78
641.198	16193.8
641.398	15982.86
641.598	15814.93
641.798	15657.23
641.997	16802.05
642.197	16017.68
642.397	16120.07
642.597	15730.96
642.796	16562.44
642.996	16417.03
643.196	15939.85
643.395	15624.47
643.595	16326.92
643.795	15497.49
643.994	15884.56
644.194	15878.41
644.394	16316.68
644.593	16271.62
644.793	15857.93
644.992	16103.69
645.192	16197.9
645.392	15763.73
645.591	16081.16
645.791	16206.09
645.99	16402.69
646.19	16040.2
646.389	16271.62
646.589	16169.23
646.788	16431.37
646.987	16337.16
647.187	16402.69
647.386	16402.69
647.586	16423.17
647.785	16361.73
647.984	15984.91
648.184	16021.77
648.383	16003.34
648.582	16382.21
648.782	16005.39
648.981	16130.31
649.18	15722.77
649.38	16570.63
649.579	16150.79
649.778	16070.92
649.977	16767.23
650.177	16109.83
650.376	15857.93
650.575	15902.99
650.774	16670.98
650.973	16210.18
651.173	15954.19
651.372	16087.31
651.571	16445.7
651.77	16642.31
651.969	16371.97
652.168	16314.63
652.367	16154.89
652.566	16369.93
652.765	16384.26
652.964	16367.88
653.163	16918.78
653.362	16447.75
653.561	16228.62
653.76	16464.13
653.959	16511.24
654.158	16840.96
654.357	16378.12
654.556	16341.25
654.755	16658.69
654.954	16662.79
655.153	16476.42
655.352	16476.42
655.551	17121.53
655.749	16419.08
655.948	16378.12
656.147	16326.92
656.346	16632.07
656.545	16402.69
656.743	16206.09
656.942	16482.56
657.141	16511.24
657.34	16425.22
657.538	16466.18
657.737	16328.97
657.936	16386.31
658.135	16939.26
658.333	16189.7
658.532	16460.04
658.731	16926.97
658.929	16892.16
659.128	16634.11
659.326	16587.01
659.525	17027.32
659.724	16632.07
659.922	16320.77
660.121	16390.41
660.319	16922.88
660.518	16341.25
660.716	16341.25
660.915	16347.4
661.113	16992.51
661.312	16371.97
661.51	16873.73
661.709	16349.45
661.907	16773.38
662.105	16900.35
662.304	16449.8
662.502	16664.83
662.701	17066.24
662.899	16341.25
663.097	16519.43
663.296	16478.47
663.494	17123.58
663.692	17064.19
663.891	16267.53
664.089	16441.61
664.287	17021.18
664.485	16988.41
664.684	16439.56
664.882	16347.4
665.08	16931.07
665.278	16654.59
665.476	16152.84
665.675	16625.92
665.873	17156.35
666.071	16869.63
666.269	16564.48
666.467	16505.09
666.665	16740.61
666.863	16464.13
667.061	16529.67
667.259	16363.78
667.457	16832.77
667.655	16922.88
667.853	16367.88
668.051	16546.05
668.249	16648.45
668.447	17021.18
668.645	16279.82
668.843	16795.9
669.041	16718.08
669.239	16398.6
669.437	16435.46
669.635	16611.59
669.833	16449.8
670.031	16828.67
670.229	16480.52
670.426	16636.16
670.624	16664.83
670.822	16435.46
671.02	16754.94
671.218	16773.38
671.415	16572.68
671.613	16820.48
671.811	16765.18
672.009	16361.73
672.206	17021.18
672.404	16795.9
672.602	16701.7
672.799	16582.91
672.997	16685.31
673.195	16883.97
673.392	16652.55
673.59	16046.35
673.788	16609.54
673.985	16181.51
674.183	16599.3
674.38	16591.11
674.578	16797.95
674.775	16357.64
674.973	16253.19
675.17	16238.86
675.368	16965.89
675.565	16601.35
675.763	16513.28
675.96	16052.49
676.158	16587.01
676.355	16263.43
676.553	16146.7
676.75	16081.16
676.947	16642.31
677.145	16529.67
677.342	16414.98
677.539	16406.79
677.737	16828.67
677.934	17115.39
678.131	16654.59
678.329	16259.34
678.526	17082.62
678.723	16662.79
678.92	16718.08
679.118	16146.7
679.315	16161.03
679.512	16834.82
679.709	16371.97
679.906	16056.59
680.104	16802.05
680.301	16339.21
680.498	15771.92
680.695	16087.31
680.892	16034.06
681.089	16298.25
681.286	16406.79
681.483	16093.45
681.68	16703.75
681.877	16808.19
682.075	16263.43
682.272	16509.19
682.469	16283.91
682.665	16505.09
682.862	15915.28
683.059	16134.41
683.256	16539.91
683.453	16566.53
683.65	16267.53
683.847	16113.93
684.044	16501
684.241	16341.25
684.438	16388.36
684.635	15923.47
684.831	16965.89
685.028	16832.77
685.225	16081.16
685.422	16404.74
685.619	16204.04
685.815	16294.15
686.012	16079.11
686.209	15780.11
686.405	16099.59
686.602	16216.33
686.799	15649.04
686.996	16007.44
687.192	16054.54
687.389	16783.62
687.586	15841.55
687.782	15778.06
687.979	16466.18
688.175	16519.43
688.372	16138.51
688.568	15905.04
688.765	15982.86
688.962	16599.3
689.158	16060.68
689.355	16220.42
689.551	16384.26
689.748	15995.15
689.944	16236.81
690.14	15552.79
690.337	16290.06
690.533	15962.38
690.73	16087.31
690.926	15960.33
691.123	15993.1
691.319	16093.45
691.515	15915.28
691.712	15819.02
691.908	16265.48
692.104	16113.93
692.301	15943.95
692.497	15712.53
692.693	16353.54
692.889	16187.66
693.086	15943.95
693.282	15405.33
693.478	16029.96
693.674	16498.95
693.87	15649.04
694.067	15679.76
694.263	16134.41
694.459	16103.69
694.655	16134.41
694.851	15728.91
695.047	15845.65
695.243	16034.06
695.439	15735.06
695.635	15714.58
695.831	16204.04
696.027	15694.1
696.224	15649.04
696.42	16158.99
696.615	16204.04
696.811	16015.63
697.007	15438.1
697.203	15737.1
697.399	15810.83
697.595	16021.77
697.791	15579.41
697.987	15802.64
698.183	15616.27
698.379	15651.09
698.575	15571.22
698.77	15528.21
698.966	16158.99
699.162	16038.16
699.358	15524.12
699.554	15497.49
699.749	15773.97
699.945	15978.76
700.141	15606.03
700.337	15614.23
700.532	15397.14
700.728	15251.74
700.924	15106.33
701.119	15079.71
701.315	15851.79
701.511	15730.96
701.706	15706.38
701.902	15331.61
702.097	15431.96
702.293	15784.21
702.489	15296.79
702.684	15413.52
702.88	15696.14
703.075	15589.65
703.271	15272.21
703.466	15425.81
703.662	15692.05
703.857	15964.43
704.053	15583.51
704.248	15579.41
704.443	15943.95
704.639	15898.89
704.834	15245.59
705.03	15311.13
705.225	15749.39
705.42	16048.4
705.616	15665.42
705.811	15247.64
706.006	15468.82
706.202	15245.59
706.397	15157.53
706.592	15147.29
706.787	15411.48
706.983	15239.45
707.178	15483.16
707.373	15347.99
707.568	15597.84
707.763	15497.49
707.959	15169.82
708.154	15122.71
708.349	15241.5
708.544	15294.74
708.739	15311.13
708.934	15208.73
709.129	15802.64
709.324	15681.81
709.519	15235.35
709.714	15294.74
709.909	15753.49
710.104	15460.63
710.299	15026.46
710.494	15091.99
710.689	15786.26
710.884	15397.14
711.079	14997.79
711.274	15321.37
711.469	15823.12
711.664	15374.61
711.859	14999.84
712.054	15327.51
712.249	15460.63
712.443	15286.55
712.638	14827.81
712.833	14836
713.028	15460.63
713.223	15212.82
713.417	15089.95
713.612	14932.25
713.807	15489.3
714.002	15995.15
714.196	15114.52
714.391	14725.41
714.586	15501.59
714.78	15108.38
714.975	15149.34
715.17	14868.77
715.364	15106.33
715.559	15530.26
715.754	14649.63
715.948	14688.54
716.143	15401.24
716.337	15216.92
716.532	15018.27
716.726	14657.82
716.921	15188.25
717.115	15470.87
717.31	14577.95
717.504	15376.66
717.699	15094.04
717.893	15036.7
718.088	14584.1
718.282	14702.88
718.476	15008.03
718.671	14954.78
718.865	14752.03
719.059	14455.08
719.254	14813.47
719.448	15161.62
719.642	16042.25
719.837	14592.29
720.031	15128.86
720.225	15137.05
720.419	14975.26
720.614	14702.88
720.808	15069.47
721.002	14879
721.196	14567.71
721.39	14690.59
721.585	15010.07
721.779	14993.69
721.973	14702.88
722.167	14293.29
722.361	14891.29
722.555	14930.2
722.749	14629.15
722.943	14897.44
723.137	14410.02
723.331	14690.59
723.525	14565.67
723.719	14217.51
723.913	14719.26
724.107	14780.7
724.301	14534.95
724.495	14387.49
724.689	15175.96
724.883	14950.68
725.077	14465.32
725.271	14596.39
725.465	15397.14
725.659	14485.79
725.853	14743.84
726.046	14319.91
726.24	14528.8
726.434	14696.74
726.628	14450.98
726.822	14453.03
727.015	15032.6
727.209	14797.09
727.403	14201.13
727.596	14328.1
727.79	14768.41
727.984	15063.32
728.177	14561.57
728.371	14543.14
728.565	15100.19
728.758	14233.89
728.952	14295.33
729.146	14276.9
729.339	14999.84
729.533	14641.44
729.726	14534.95
729.92	14252.33
730.113	14899.48
730.307	14840.09
730.5	14407.97
730.694	14240.04
730.887	14483.75
731.081	14846.24
731.274	14354.72
731.468	14469.41
731.661	14582.05
731.854	14475.56
732.048	14213.42
732.241	14324.01
732.435	14639.39
732.628	14780.7
732.821	14760.22
733.014	14317.86
733.208	14346.53
733.401	14778.65
733.594	14283.05
733.788	14416.16
733.981	14827.81
734.174	14602.53
734.367	14094.63
734.56	14188.84
734.754	14780.7
734.947	14688.54
735.14	14215.46
735.333	14346.53
735.526	14688.54
735.719	14393.64
735.912	13885.74
736.105	14237.99
736.298	14479.65
736.491	14182.7
736.684	14115.11
736.877	14201.13
737.07	14446.88
737.263	14627.1
737.456	14096.68
737.649	14235.94
737.842	14483.75
738.035	14534.95
738.228	14076.2
738.421	14487.84
738.614	14862.62
738.807	14596.39
739	13637.94
739.192	13889.84
739.385	14168.36
739.578	14512.42
739.771	14377.25
739.964	13775.15
740.156	14354.72
740.349	14303.53
740.542	14215.46
740.735	13924.65
740.927	14219.56
741.12	13762.86
741.313	13797.68
741.505	14190.89
741.698	14313.77
741.891	14223.65
742.083	14287.14
742.276	14102.82
742.468	14225.7
742.661	14301.48
742.854	13926.7
743.046	13883.69
743.239	14645.54
743.431	14199.08
743.624	13902.12
743.816	13625.65
744.009	14092.58
744.201	14252.33
744.393	14151.98
744.586	13906.22
744.778	14350.63
744.971	13998.38
745.163	13762.86
745.355	14133.54
745.548	14094.63
745.74	14289.19
745.932	13977.9
746.125	14078.25
746.317	14577.95
746.509	14211.37
746.702	14051.63
746.894	13879.6
747.086	14307.62
747.278	14412.07
747.471	14051.63
747.663	13953.32
747.855	14010.67
748.047	14422.31
748.239	13943.08
748.431	13728.05
748.623	14551.33
748.815	14385.44
749.008	13599.02
749.2	13601.07
749.392	14094.63
749.584	14199.08
749.776	14223.65
749.968	13979.95
750.16	14674.21
750.352	14102.82
750.544	13977.9
750.736	13734.19
750.928	14276.9
751.12	14123.3
751.311	13760.81
751.503	14016.81
751.695	14004.52
751.887	14027.05
752.079	13603.12
752.271	13523.25
752.463	14874.91
752.654	13994.28
752.846	13744.43
753.038	13781.29
753.23	13687.09
753.421	14022.95
753.613	13805.87
753.805	14174.5
753.997	13928.75
754.188	13965.61
754.38	13709.61
754.572	13711.66
754.763	13699.37
754.955	14035.24
755.146	13838.64
755.338	13263.16
755.53	13844.78
755.721	13635.89
755.913	13287.73
756.104	13322.55
756.296	13599.02
756.487	13756.72
756.679	13357.36
756.87	13338.93
757.062	13535.54
757.253	13988.14
757.445	13551.92
757.636	13453.62
757.827	13486.39
758.019	14078.25
758.21	13273.4
758.401	13328.69
758.593	14154.02
758.784	13973.8
758.975	13361.46
759.167	13324.6
759.358	13531.44
759.549	13816.11
759.74	13023.55
759.932	13105.46
760.123	13650.22
760.314	13250.87
760.505	13302.07
760.696	13336.88
760.888	13977.9
761.079	13228.34
761.27	12996.92
761.461	12951.87
761.652	13451.57
761.843	13160.76
762.034	13140.28
762.225	13293.88
762.416	13314.36
762.607	13418.8
762.798	13003.07
762.989	13164.86
763.18	13994.28
763.371	12917.05
763.562	13207.86
763.753	13007.16
763.944	13504.82
764.135	13525.3
764.326	13220.15
764.517	12949.82
764.708	13302.07
764.899	13050.17
765.089	12865.85
765.28	12771.65
765.471	13160.76
765.662	13123.9
765.853	12663.1
766.043	12495.17
766.234	13496.63
766.425	13121.85
766.615	12683.58
766.806	12636.48
766.997	13392.18
767.187	12968.25
767.378	12525.89
767.569	12288.32
767.759	13039.93
767.95	13003.07
768.141	12616
768.331	12486.98
768.522	12732.73
768.712	12990.78
768.903	12478.79
769.093	12405.06
769.284	12960.06
769.474	13031.74
769.665	12071.24
769.855	12015.94
770.046	12730.69
770.236	12785.98
770.426	12628.29
770.617	12429.63
770.807	12570.94
770.998	12710.21
771.188	12495.17
771.378	12337.48
771.569	12661.05
771.759	12699.97
771.949	12009.8
772.139	12028.23
772.33	12220.74
772.52	12695.87
772.71	11921.74
772.9	12122.44
773.09	12800.32
773.281	12781.88
773.471	12161.35
773.661	12075.34
773.851	12536.13
774.041	12183.88
774.231	12120.39
774.421	12081.48
774.611	12613.95
774.802	12394.82
774.992	12101.96
775.182	11757.9
775.372	12036.42
775.562	12187.97
775.752	12044.62
775.942	12069.19
776.131	12474.69
776.321	12419.39
776.511	12024.14
776.701	11737.42
776.891	12374.34
777.081	11805
777.271	11944.27
777.461	11911.5
777.651	12138.82
777.84	12355.91
778.03	11819.34
778.22	11669.84
778.41	12101.96
778.599	11714.89
778.789	12126.53
778.979	11899.21
779.169	11985.23
779.358	12020.04
779.548	11952.46
779.738	11399.51
779.927	12122.44
780.117	11774.28
780.307	11491.66
780.496	11413.84
780.686	11997.51
780.875	12511.55
781.065	11479.38
781.254	11393.36
781.444	11735.37
781.633	11628.88
781.823	11489.62
782.012	11430.23
782.202	11604.3
782.391	11841.87
782.581	11675.98
782.77	11729.23
782.96	12024.14
783.149	11637.07
783.338	11487.57
783.528	11319.64
783.717	11813.2
783.906	12093.77
784.096	11409.75
784.285	11305.3
784.474	11651.41
784.663	11376.98
784.853	11352.4
785.042	11344.21
785.231	11536.72
785.42	11860.3
785.61	11323.73
785.799	11008.34
785.988	11293.01
786.177	11286.87
786.366	11213.14
786.555	11557.2
786.744	11526.48
786.933	11454.8
787.122	10987.86
787.312	11022.68
787.501	11235.67
787.69	11626.83
787.879	11166.04
788.068	11135.32
788.257	11168.09
788.445	11061.59
788.634	11139.41
788.823	10928.47
789.012	11798.86
789.201	11465.04
789.39	10846.55
789.579	10946.9
789.768	11481.42
789.957	11221.33
790.145	10834.27
790.334	10826.07
790.523	11204.95
790.712	11075.93
790.9	10951
791.089	10602.85
791.278	11391.31
791.467	11110.74
791.655	11034.97
791.844	11118.93
792.033	10873.18
792.221	10912.09
792.41	10899.8
792.599	10672.48
792.787	11161.94
792.976	11245.91
793.164	10537.31
793.353	10760.54
793.541	11233.62
793.73	11217.24
793.918	11012.44
794.107	10576.22
794.295	11022.68
794.484	10778.97
794.672	10535.26
794.861	10647.9
795.049	10813.79
795.238	11217.24
795.426	10557.79
795.614	10498.4
795.803	10746.2
795.991	11131.22
796.179	10250.6
796.368	10418.53
796.556	11041.11
796.744	10543.46
796.932	10803.55
797.121	10289.51
797.309	10934.62
797.497	10979.67
797.685	10553.69
797.874	10516.83
798.062	10565.98
798.25	11188.57
798.438	10578.27
798.626	10418.53
798.814	11065.69
799.002	11438.42
799.19	10889.56
799.378	10529.12
799.566	11180.37
799.755	11241.81
799.943	10772.83
800.131	10541.41
800.318	10918.23
800.506	10776.92
800.694	10393.95
800.882	10795.36
801.07	10996.06
801.258	10686.81
801.446	10615.13
801.634	10281.32
801.822	11024.73
802.01	10525.02
802.197	10504.54
802.385	10596.7
802.573	10912.09
802.761	10469.73
802.949	10713.44
803.136	10404.19
803.324	11080.02
803.512	10971.48
803.699	10473.82
803.887	10178.92
804.075	10987.86
804.262	10623.33
804.45	10418.53
804.638	10682.72
804.825	10674.53
805.013	10828.12
805.201	10297.7
805.388	10408.29
805.576	10928.47
805.763	11370.83
805.951	10518.88
806.138	10690.91
806.326	11258.2
806.513	11024.73
806.701	10664.29
806.888	10461.54
807.075	11071.83
807.263	11159.89
807.45	10545.5
807.638	10828.12
807.825	11669.84
808.012	10869.08
808.2	10674.53
808.387	10918.23
808.574	10969.43
808.761	11383.12
808.949	10451.3
809.136	10686.81
809.323	10717.53
809.51	10991.96
809.698	10715.48
809.885	10776.92
810.072	11030.87
810.259	11145.56
810.446	10590.56
810.633	10547.55
810.82	11123.03
811.008	11196.76
811.195	11010.39
811.382	10776.92
811.569	10951
811.756	10625.37
811.943	10828.12
812.13	10729.82
812.317	10930.52
812.504	10905.95
812.691	10832.22
812.878	10916.19
813.064	10973.53
813.251	10856.79
813.438	10668.38
813.625	10652
813.812	11004.25
813.999	10936.67
814.186	11004.25
814.372	10834.27
814.559	11155.8
814.746	11137.37
814.933	10819.93
815.12	11067.74
815.306	11129.17
815.493	10795.36
815.68	10985.82
815.866	10830.17
816.053	11135.32
816.24	11465.04
816.426	10795.36
816.613	10717.53
816.799	11051.35
816.986	11344.21
817.173	10504.54
817.359	10688.86
817.546	10856.79
817.732	10664.29
817.919	10778.97
818.105	10951
818.292	10922.33
818.478	11053.4
818.665	10985.82
818.851	10793.31
819.037	11551.06
819.224	11037.02
819.41	10576.22
819.597	10688.86
819.783	11194.71
819.969	10996.06
820.156	10750.3
820.342	10580.32
820.528	11680.08
820.714	10727.77
820.901	10981.72
821.087	10641.76
821.273	11293.01
821.459	10471.78
821.646	10656.09
821.832	10463.58
822.018	10791.26
822.204	10873.18
822.39	10504.54
822.576	10314.08
822.762	11020.63
822.948	10676.57
823.134	10770.78
823.32	10471.78
823.507	10537.31
823.693	10781.02
823.879	10729.82
824.065	10695
824.25	10916.19
824.436	10541.41
824.622	10250.6
824.808	10502.5
824.994	10713.44
825.18	10441.06
825.366	10125.67
825.552	10486.11
825.738	10631.52
825.923	10807.64
826.109	10680.67
826.295	10424.67
826.481	10402.15
826.667	10387.81
826.852	10537.31
827.038	10226.02
827.224	10422.62
827.409	10797.4
827.595	9996.65
827.781	10266.98
827.966	10518.88
828.152	10477.92
828.338	10170.72
828.523	9869.67
828.709	10406.24
828.894	10316.13
829.08	10123.62
829.266	9861.48
829.451	10185.06
829.637	10428.77
829.822	10285.41
830.008	10107.24
830.193	10670.43
830.378	10553.69
830.564	10236.26
830.749	10004.84
830.935	10455.39
831.12	10441.06
831.305	9931.11
831.491	10207.59
831.676	10056.04
831.861	10475.87
832.047	10094.95
832.232	10045.8
832.417	10559.84
832.602	10385.76
832.788	9984.36
832.973	10119.53
833.158	10336.61
833.343	10250.6
833.528	10086.76
833.714	10137.96
833.899	10355.04
834.084	10611.04
834.269	10103.14
834.454	9787.75
834.639	10422.62
834.824	10010.98
835.009	9826.67
835.194	9939.3
835.379	10436.96
835.564	10238.31
835.749	10008.94
835.934	9818.47
836.119	10080.61
836.304	10053.99
836.489	9550.19
836.674	10021.22
836.859	9779.56
837.044	10340.71
837.228	9816.43
837.413	9591.15
837.598	9929.06
837.783	9800.04
837.968	9711.98
838.152	9640.3
838.337	9374.06
838.522	10076.52
838.707	10037.61
838.891	9695.6
839.076	10053.99
839.261	10037.61
839.445	9494.9
839.63	9539.95
839.815	10301.79
839.999	9859.43
840.184	9492.85
840.368	9693.55
840.553	10090.85
840.737	9949.54
840.922	9412.98
841.106	9179.51
841.291	9533.81
841.475	9378.16
841.66	9419.12
841.844	9345.39
842.029	10322.27
842.213	9441.65
842.397	9245.04
842.582	9152.88
842.766	9832.81
842.951	9752.94
843.135	9290.1
843.319	9255.28
843.504	9646.44
843.688	9660.78
843.872	8941.94
844.056	9083.25
844.241	9701.74
844.425	9341.3
844.609	9292.15
844.793	9050.49
844.977	9546.09
845.161	9535.85
845.346	9087.35
845.53	9128.31
845.714	9445.74
845.898	9728.36
846.082	8995.19
846.266	9077.11
846.45	9455.98
846.634	9511.28
846.818	9374.06
847.002	9343.35
847.186	9593.2
847.37	8970.62
847.554	8747.39
847.738	9038.2
847.922	9316.72
848.106	9386.35
848.29	8878.46
848.473	9007.48
848.657	9312.63
848.841	9267.57
849.025	9025.91
849.209	8767.87
849.392	9380.21
849.576	8984.95
849.76	8522.11
849.944	9124.21
850.127	9410.93
850.311	8804.73
850.495	8860.02
850.678	8692.09
850.862	9314.67
851.046	9394.54
851.229	8974.71
851.413	8796.54
851.596	8968.57
851.78	9015.67
851.964	9056.63
852.147	8776.06
852.331	9625.97
852.514	9427.31
852.698	8878.46
852.881	8515.97
853.065	9044.34
853.248	9042.29
853.431	8753.53
853.615	8829.31
853.798	9458.03
853.982	9030.01
854.165	8665.47
854.348	8599.93
854.532	8518.01
854.715	8644.99
854.898	8608.12
855.081	8556.93
855.265	9128.31
855.448	9169.27
855.631	8284.55
855.814	8421.76
855.997	8860.02
856.181	8647.04
856.364	8671.61
856.547	8313.22
856.73	8800.63
856.913	8411.52
857.096	8186.24
857.279	8284.55
857.462	8558.97
857.645	8640.89
857.828	8780.15
858.011	8464.77
858.194	8505.73
858.377	8731
858.56	8130.95
858.743	8239.49
858.926	8233.35
859.109	8638.84
859.292	8235.39
859.475	8122.76
859.658	8956.28
859.841	8696.19
860.023	8292.74
860.206	8225.15
860.389	8569.21
860.572	8864.12
860.755	8083.84
860.937	8266.11
861.12	8434.05
861.303	8341.89
861.486	8167.81
861.668	8020.36
861.851	8618.36
862.034	8311.17
862.216	8112.52
862.399	7723.4
862.581	8321.41
862.764	8610.17
862.947	8182.15
863.129	8051.08
863.312	8092.04
863.494	8491.39
863.677	8317.31
863.859	7772.55
864.042	8558.97
864.224	8589.69
864.406	8046.98
864.589	7618.96
864.771	8290.69
864.954	7973.25
865.136	7969.16
865.318	7788.94
865.501	8436.1
865.683	7889.29
865.865	7647.63
866.048	7772.55
866.23	8165.76
866.412	8016.26
866.594	7412.11
866.777	7840.14
866.959	8257.92
867.141	7676.3
867.323	8042.89
867.505	7836.04
867.687	7920.01
867.869	7932.29
868.052	7784.84
868.234	7692.68
868.416	7790.99
868.598	8061.32
868.78	7584.14
868.962	7594.38
869.144	8305.03
869.326	8089.99
869.508	7543.18
869.69	7340.43
869.872	7899.53
870.054	8331.65
870.236	7438.73
870.417	7557.52
870.599	7840.14
870.781	8118.66
870.963	7694.73
871.145	7471.5
871.327	7387.54
871.508	7920.01
871.69	7510.41
871.872	7584.14
872.054	7750.03
872.235	7901.58
872.417	7522.7
872.599	7369.1
872.78	8227.2
872.962	7778.7
873.144	7381.39
873.325	7496.08
873.507	8374.66
873.689	7747.98
873.87	7244.18
874.052	7684.49
874.233	7711.11
874.415	8018.31
874.596	7383.44
874.778	7248.27
874.959	7766.41
875.141	8022.41
875.322	7477.65
875.503	7430.54
875.685	7780.75
875.866	7176.59
876.048	7336.34
876.229	7330.19
876.41	7682.44
876.592	7907.72
876.773	7721.35
876.954	7455.12
877.136	8360.32
877.317	7592.33
877.498	7182.74
877.679	7463.31
877.86	7899.53
878.042	7901.58
878.223	7393.68
878.404	7985.54
878.585	8147.33
878.766	8288.64
878.947	7885.19
879.128	7870.86
879.309	7995.78
879.49	8196.48
879.672	7563.66
879.853	7704.97
880.034	7762.31
880.215	7938.44
880.396	7778.7
880.576	7649.68
880.757	7766.41
880.938	8122.76
881.119	7688.59
881.3	7487.89
881.481	7954.82
881.662	8870.26
881.843	7682.44
882.023	7496.08
882.204	8214.91
882.385	7926.15
882.566	7764.36
882.747	7762.31
882.927	8143.24
883.108	8028.55
883.289	7598.48
883.469	8022.41
883.65	7872.9
883.831	8051.08
884.011	7971.21
884.192	7928.2
884.373	8401.28
884.553	8307.07
884.734	7967.11
884.914	8085.89
885.095	8931.7
885.275	8542.59
885.456	8075.65
885.636	7727.5
885.817	8169.86
885.997	8307.07
886.178	7977.35
886.358	8006.02
886.538	8227.2
886.719	9312.63
886.899	7950.73
887.08	8339.84
887.26	8601.98
887.44	8198.53
887.621	7899.53
887.801	8274.31
887.981	8980.85
888.161	8391.04
888.342	8053.13
888.522	8311.17
888.702	8558.97
888.882	8765.82
889.062	8186.24
889.242	7944.58
889.423	8657.28
889.603	8569.21
889.783	8528.25
889.963	7965.06
890.143	8401.28
890.323	8311.17
890.503	8010.12
890.683	8098.18
890.863	8415.62
891.043	8354.18
891.223	8079.75
891.403	8198.53
891.583	8198.53
891.763	8329.6
891.943	8286.59
892.122	8016.26
892.302	8518.01
892.482	8489.34
892.662	8200.58
892.842	8161.67
893.022	8352.13
893.201	7979.4
893.381	8106.37
893.561	7956.87
893.741	8325.5
893.92	8411.52
894.1	8139.14
894.28	8116.61
894.459	8423.81
894.639	8417.66
894.819	7887.24
894.998	8026.5
895.178	8345.98
895.357	8313.22
895.537	7731.59
895.716	7711.11
895.896	8259.97
896.075	8610.17
896.255	7805.32
896.434	7723.4
896.614	8554.88
896.793	8315.27
896.973	7889.29
897.152	8059.27
897.331	8266.11
897.511	8423.81
897.69	7707.02
897.87	7846.28
898.049	8257.92
898.228	8239.49
898.407	8006.02
898.587	7965.06
898.766	7907.72
898.945	8059.27
899.124	7725.45
899.304	7786.89
899.483	8038.79
899.662	8362.37
899.841	7674.25
900.02	7508.37
900.199	7973.25
900.378	8003.97
900.557	7506.32
900.737	7379.34
900.916	7942.53
901.095	7981.45
901.274	7741.83
901.453	7430.54
901.632	7494.03
901.811	7735.69
901.989	7463.31
902.168	7324.05
902.347	7752.07
902.526	7485.84
902.705	7252.37
902.884	7371.15
903.063	7713.16
903.242	7862.66
903.42	7066
903.599	7238.03
903.778	7727.5
903.957	7676.3
904.135	7285.14
904.314	6943.13
904.493	7426.45
904.672	7645.58
904.85	7115.16
905.029	7031.19
905.207	7344.53
905.386	8065.41
905.565	6781.34
905.743	6986.13
905.922	7068.05
906.1	7059.86
906.279	6674.84
906.457	6613.4
906.636	6936.98
906.814	7016.85
906.993	6961.56
907.171	6799.77
907.35	7066
907.528	7156.11
907.707	7000.47
907.885	6603.16
908.063	7301.52
908.242	6621.59
908.42	6543.77
908.598	6330.78
908.777	6883.73
908.955	6515.1
909.133	6617.5
909.311	6468
909.49	6900.12
909.668	6896.02
909.846	6728.09
910.024	6377.89
910.202	6838.68
910.38	7123.35
910.559	6265.25
910.737	6490.52
910.915	7033.24
911.093	6904.21
911.271	6644.12
911.449	6955.41
911.627	7012.76
911.805	7481.74
911.983	6656.41
912.161	6730.14
912.339	7135.64
912.517	7424.4
912.695	6830.49
912.872	6881.69
913.05	6859.16
913.228	7244.18
913.406	6871.45
913.584	6732.19
913.762	7066
913.939	6848.92
914.117	6803.86
914.295	6566.3
914.473	7162.26
914.65	7152.02
914.828	6936.98
915.006	6658.46
915.184	6818.2
915.361	7201.17
915.539	6943.13
915.716	6961.56
915.894	7023
916.072	7420.3
916.249	6982.04
916.427	6994.33
916.604	6816.15
916.782	6922.65
916.959	6752.66
917.137	6537.63
917.314	6873.5
917.492	7121.3
917.669	6785.43
917.847	6709.66
918.024	7100.82
918.201	6812.06
918.379	6707.61
918.556	6592.92
918.733	7047.57
918.911	6830.49
919.088	7072.15
919.265	6683.03
919.442	6939.03
919.62	6924.69
919.797	6621.59
919.974	6470.05
920.151	6758.81
920.328	6730.14
920.506	6629.79
920.683	6826.39
920.86	6562.2
921.037	6789.53
921.214	6629.79
921.391	6453.66
921.568	6926.74
921.745	6683.03
921.922	6564.25
922.099	6347.17
922.276	6838.68
922.453	6617.5
922.63	6287.78
922.807	6523.29
922.984	6459.81
923.161	6607.26
923.338	6121.89
923.514	6132.13
923.691	6807.96
923.868	6609.31
924.045	6234.53
924.222	6021.54
924.399	6519.2
924.575	6646.17
924.752	6212
924.929	6212
925.105	6631.83
925.282	6484.38
925.459	6234.53
925.635	6197.67
925.812	6334.88
925.989	6162.85
926.165	6334.88
926.342	5872.04
926.518	6080.93
926.695	5976.48
926.871	6060.45
927.048	5966.24
927.224	6336.93
927.401	5869.99
927.577	6023.59
927.754	5806.5
927.93	6349.22
928.107	6310.3
928.283	5675.43
928.459	6003.11
928.636	6095.27
928.812	6277.54
928.988	5913
929.165	5800.36
929.341	6011.3
929.517	6144.42
929.693	6074.79
929.87	5648.81
930.046	6066.6
930.222	5802.41
930.398	5644.71
930.574	5642.67
930.751	5896.61
930.927	5568.94
931.103	5538.22
931.279	5484.97
931.455	5589.42
931.631	5847.46
931.807	5261.74
931.983	5413.29
932.159	5396.91
932.335	5700.01
932.511	5478.83
932.687	5388.72
932.863	5589.42
933.039	5532.08
933.215	5319.09
933.391	5149.11
933.566	5276.08
933.742	5425.58
933.918	5114.29
934.094	4958.64
934.27	5405.1
934.445	5233.07
934.621	5056.95
934.797	4741.56
934.973	5306.8
935.148	5069.23
935.324	4725.18
935.5	4553.15
935.675	5243.31
935.851	5056.95
936.027	4600.25
936.202	4563.39
936.378	4727.22
936.553	4694.46
936.729	4839.86
936.904	4329.92
937.08	4303.29
937.255	4327.87
937.431	4176.32
937.606	3908.04
937.782	4098.5
937.957	4184.51
938.133	3979.72
938.308	3852.74
938.483	4047.3
938.659	3785.16
938.834	3905.99
939.009	3584.46
939.185	3908.04
939.36	3549.64
939.535	3262.93
939.71	3656.14
939.886	3897.8
940.061	3760.58
940.236	3613.13
940.411	3375.56
940.586	3719.62
940.761	3705.29
940.937	3256.78
941.112	3060.18
941.287	3420.62
941.462	3422.67
941.637	3017.17
941.812	3135.95
941.987	3465.68
942.162	3398.09
942.337	3199.44
942.512	3097.04
942.687	3475.91
942.862	3357.13
943.037	2822.61
943.212	2744.79
943.386	3228.11
943.561	3269.07
943.736	3183.06
943.911	3293.65
944.086	3312.08
944.26	3197.39
944.435	2957.78
944.61	2994.64
944.785	3451.34
944.959	3514.83
945.134	3125.71
945.309	2918.87
945.483	2982.35
945.658	3381.71
945.833	2646.49
946.007	2734.55
946.182	3611.08
946.357	2953.68
946.531	2869.72
946.706	2861.52
946.88	2812.37
947.055	3193.3
947.229	2886.1
947.404	2929.11
947.578	3561.93
947.752	3078.61
947.927	2845.14
948.101	2871.76
948.276	3367.37
948.45	3213.77
948.624	3088.85
948.799	2943.44
948.973	3207.63
949.147	2873.81
949.321	3092.94
949.496	3017.17
949.67	3619.27
949.844	3144.14
950.018	2980.31
950.193	3002.83
950.367	3705.29
950.541	3297.74
950.715	3310.03
950.889	3391.95
951.063	3234.25
951.237	3576.27
951.411	2877.91
951.585	3013.07
951.759	3432.91
951.933	3355.08
952.107	3121.62
952.281	3330.51
952.455	3813.83
952.629	3496.39
952.803	3209.68
952.977	3099.09
953.151	3518.92
953.325	3443.15
953.499	3324.37
953.672	3039.7
953.846	3297.74
954.02	3410.38
954.194	3178.96
954.368	3178.96
954.541	3604.94
954.715	3176.91
954.889	3447.24
955.062	3226.06
955.236	3590.6
955.41	3361.23
955.583	3463.63
955.757	3107.28
955.93	3531.21
956.104	3287.5
956.278	3428.81
956.451	3371.47
956.625	3627.46
956.798	4063.68
956.972	3647.94
957.145	3232.21
957.319	3488.2
957.492	3451.34
957.665	3453.39
957.839	3303.89
958.012	3633.61
958.185	3412.43
958.359	3346.89
958.532	3523.02
958.705	3586.51
958.879	3541.45
959.052	3406.28
959.225	3166.67
959.398	3649.99
959.572	3654.09
959.745	3193.3
959.918	3350.99
960.091	3723.72
960.264	3811.78
960.438	3326.41
960.611	3293.65
960.784	3701.19
960.957	3449.29
961.13	3613.13
961.303	3406.28
961.476	3533.26
961.649	3652.04
961.822	3197.39
961.995	3496.39
962.168	3721.67
962.341	3621.32
962.514	3391.95
962.686	3238.35
962.859	3668.42
963.032	3785.16
963.205	3353.04
963.378	3146.19
963.551	3647.94
963.723	3484.11
963.896	3344.84
964.069	3506.63
964.242	3504.59
964.414	3744.2
964.587	3365.32
964.76	3336.65
964.932	3641.8
965.105	3471.82
965.278	3371.47
965.45	3211.73
965.623	3631.56
965.795	3779.01
965.968	3324.37
966.14	3322.32
966.313	3514.83
966.485	3551.69
966.658	3303.89
966.83	3156.43
967.003	3801.54
967.175	3672.52
967.348	3340.75
967.52	3400.14
967.692	3832.26
967.865	3695.05
968.037	3394
968.209	3672.52
968.382	3598.79
968.554	3756.49
968.726	3398.09
968.898	3166.67
969.071	3549.64
969.243	3652.04
969.415	3228.11
969.587	3230.16
969.759	3846.6
969.932	3570.12
970.104	3176.91
970.276	2984.4
970.448	3355.08
970.62	3205.58
970.792	3226.06
970.964	3219.92
971.136	3793.35
971.308	3355.08
971.48	3281.36
971.652	3140.05
971.824	3649.99
971.996	3256.78
972.168	3154.38
972.339	3183.06
972.511	3672.52
972.683	3422.67
972.855	3348.94
973.027	3138
973.199	3445.2
973.37	3301.84
973.542	3355.08
973.714	3271.12
973.886	3191.25
974.057	3537.35
974.229	3017.17
974.401	3043.79
974.572	3133.9
974.744	2677.21
974.915	3101.14
975.087	3000.79
975.259	3617.22
975.43	3230.16
975.602	3029.46
975.773	3023.31
975.945	2759.13
976.116	3258.83
976.288	2912.72
976.459	3197.39
976.63	3097.04
976.802	3115.47
976.973	2734.55
977.145	3162.58
977.316	3574.22
977.487	3494.35
977.659	3113.42
977.83	2882
978.001	3543.5
978.172	3105.23
978.344	2800.09
978.515	2765.27
978.686	3017.17
978.857	3240.4
979.028	2826.71
979.2	2685.4
979.371	3240.4
979.542	3156.43
979.713	2937.3
979.884	2417.12
980.055	2744.79
980.226	2986.45
980.397	2752.98
980.568	2691.54
980.739	3342.8
980.91	2912.72
981.081	2933.2
981.252	2638.3
981.423	3090.9
981.594	3215.82
981.765	2585.05
981.936	2922.96
982.106	3008.98
982.277	3211.73
982.448	2621.91
982.619	2886.1
982.79	2820.56
982.96	3097.04
983.131	2849.24
983.302	2415.07
983.472	2744.79
983.643	2945.49
983.814	2761.17
983.984	2632.15
984.155	2904.53
984.326	2996.69
984.496	2732.5
984.667	2628.06
984.837	2644.44
985.008	3062.23
985.178	2908.63
985.349	2636.25
985.519	2767.32
985.69	2593.24
985.86	2599.38
986.031	2449.88
986.201	2812.37
986.371	2918.87
986.542	2396.64
986.712	2218.46
986.882	2771.41
987.053	2910.68
987.223	2265.57
987.393	2623.96
987.563	2525.66
987.734	2845.14
987.904	2734.55
988.074	2343.39
988.244	2730.45
988.414	2507.23
988.585	2335.2
988.755	2423.26
988.925	2597.34
989.095	3035.6
989.265	2197.98
989.435	2404.83
989.605	2648.54
989.775	2669.02
989.945	2644.44
990.115	2202.08
990.285	2611.67
990.455	2544.09
990.625	2365.92
990.795	2294.24
990.965	2802.13
991.134	2204.13
991.304	2064.86
991.474	2263.52
991.644	2580.95
991.814	2839
991.984	2058.72
992.153	2066.91
992.323	2386.4
992.493	2439.64
992.662	2046.43
992.832	2353.63
993.002	2351.58
993.171	2431.45
993.341	1909.22
993.511	2263.52
993.68	2159.07
993.85	2548.19
994.019	1956.32
994.189	1944.03
994.358	2318.81
994.528	2159.07
994.697	1812.96
994.867	2054.62
995.036	2537.95
995.206	2195.93
995.375	1907.17
995.544	2279.9
995.714	2361.82
995.883	2144.74
996.052	2066.91
996.222	1745.38
996.391	2726.36
996.56	2091.49
996.73	1810.92
996.899	1894.88
997.068	2531.8
997.237	2128.35
997.406	1808.87
997.576	1788.39
997.745	2154.98
997.914	2222.56
998.083	1559.02
998.252	1745.38
998.421	2124.26
998.59	1917.41
998.759	1706.47
998.928	1729
999.097	2378.2
999.266	2046.43
999.435	1968.61
999.604	1626.6
999.773	2509.27
999.942	1948.13
1000.111	1548.78
1000.28	1491.43
1000.448	1751.53
1000.617	1638.89
1000.786	1884.64
1000.955	1532.39
1001.124	2079.2
1001.292	2601.43
1001.461	1673.7
1001.63	1599.98
1001.798	2329.05
1001.967	2249.18
1002.136	1446.38
1002.304	1470.95
1002.473	2013.67
1002.642	1960.42
1002.81	1620.46
1002.979	1622.5
1003.147	2136.54
1003.316	2281.95
1003.484	1526.25
1003.653	1616.36
1003.821	2175.45
1003.99	1796.58
1004.158	1597.93
1004.327	1651.17
1004.495	1935.84
1004.663	1612.26
1004.832	1626.6
1005	1163.76
1005.168	1958.37
1005.337	1829.35
1005.505	1343.98
1005.673	1573.35
1005.842	1888.74
1006.01	1849.83
1006.178	1325.55
1006.346	1452.52
1006.514	1874.4
1006.683	2036.19
1006.851	1419.75
1007.019	1411.56
1007.187	1614.31
1007.355	1296.88
1007.523	1098.22
1007.691	1231.34
1007.859	1292.78
1008.027	1984.99
1008.195	1260.01
1008.363	1174
1008.531	1843.68
1008.699	1546.73
1008.867	1243.63
1009.035	1247.72
1009.203	1968.61
1009.37	1546.73
1009.538	1389.03
1009.706	1681.89
1009.874	1724.9
1010.042	1585.64
1010.209	1169.9
1010.377	1233.39
1010.545	1753.57
1010.713	1595.88
1010.88	1223.15
1011.048	1280.49
1011.216	1497.58
1011.383	1845.73
1011.551	1120.75
1011.718	1120.75
1011.886	1712.61
1012.054	1450.47
1012.221	1133.04
1012.389	1202.67
1012.556	1458.67
1012.724	1831.4
1012.891	1237.49
1013.058	987.63
1013.226	1597.93
1013.393	1659.37
1013.561	866.8
1013.728	780.79
1013.895	1659.37
1014.063	1507.82
1014.23	961.01
1014.397	991.73
1014.565	1612.26
1014.732	1241.58
1014.899	1012.21
1015.066	793.08
1015.233	1452.52
1015.401	1450.47
1015.568	973.3
1015.735	1077.74
1015.902	1307.12
1016.069	1450.47
1016.236	874.99
1016.403	803.32
1016.57	1049.07
1016.737	1499.63
1016.904	1063.41
1017.071	874.99
1017.238	1069.55
1017.405	1438.19
1017.572	969.2
1017.739	1067.5
1017.906	1421.8
1018.073	1495.53
1018.24	735.73
1018.407	868.85
1018.573	1565.16
1018.74	1227.25
1018.907	991.73
1019.074	766.45
1019.241	1452.52
1019.407	1204.72
1019.574	803.32
1019.741	780.79
1019.907	1266.16
1020.074	1194.48
1020.241	662.01
1020.407	662.01
1020.574	1284.59
1020.74	1294.83
1020.907	809.46
1021.073	674.29
1021.24	1638.89
1021.406	1503.72
1021.573	711.16
1021.739	674.29
1021.906	1268.2
1022.072	1139.18
1022.239	717.3
1022.405	748.02
1022.571	1071.6
1022.738	911.86
1022.904	659.96
1023.07	885.23
1023.237	1128.94
1023.403	1300.97
1023.569	684.53
1023.735	752.12
1023.902	1128.94
1024.068	1163.76
1024.234	551.42
1024.4	750.07
1024.566	1186.29
1024.732	1300.97
1024.898	745.97
1025.065	549.37
1025.231	1255.92
1025.397	883.19
1025.563	782.84
1025.729	770.55
1025.895	596.47
1026.061	764.4
1026.227	586.23
1026.392	694.77
1026.558	1204.72
1026.724	1153.52
1026.89	608.76
1027.056	825.84
1027.222	1034.74
1027.388	961.01
1027.553	619
1027.719	600.57
1027.885	1348.08
1028.051	1008.11
1028.216	487.93
1028.382	631.29
1028.548	1135.09
1028.713	895.47
1028.879	500.22
1029.045	772.6
1029.21	1243.63
1029.376	1231.34
1029.541	621.05
1029.707	567.8
1029.873	1108.46
1030.038	1153.52
1030.204	506.36
1030.369	578.04
1030.534	1124.85
1030.7	813.56
1030.865	573.94
1031.031	463.35
1031.196	1014.26
1031.361	940.53
1031.527	418.3
1031.692	469.5
1031.857	473.59
1032.023	1055.22
1032.188	516.6
1032.353	492.02
1032.518	1245.68
1032.684	825.84
1032.849	354.81
1033.014	422.39
1033.179	907.76
1033.344	993.78
1033.509	590.33
1033.674	444.92
1033.839	999.92
1034.004	981.49
1034.17	559.61
1034.335	358.91
1034.5	854.51
1034.664	748.02
1034.829	428.54
1034.994	477.69
1035.159	997.87
1035.324	870.9
1035.489	446.97
1035.654	375.29
1035.819	1044.98
1035.984	860.66
1036.148	401.91
1036.313	512.5
1036.478	1026.54
1036.643	694.77
1036.807	383.48
1036.972	301.56
1037.137	1124.85
1037.301	770.55
1037.466	264.7
1037.631	463.35
1037.795	1026.54
1037.96	803.32
1038.124	600.57
1038.289	363
1038.454	881.14
1038.618	817.65
1038.783	356.86
1038.947	496.12
1039.111	819.7
1039.276	657.91
1039.44	219.64
1039.605	764.4
1039.769	733.68
1039.933	684.53
1040.098	397.82
1040.262	471.54
1040.426	874.99
1040.591	836.08
1040.755	276.99
1040.919	412.15
1041.083	778.74
1041.248	717.3
1041.412	291.32
1041.576	244.22
1041.74	639.48
1041.904	866.8
1042.068	254.46
1042.232	344.57
1042.397	768.5
1042.561	623.09
1042.725	107.01
1042.889	403.96
1043.053	940.53
1043.217	715.25
1043.381	406.01
1043.544	190.97
1043.708	948.72
1043.872	457.21
1044.036	74.24
1044.2	119.29
1044.364	926.19
1044.528	995.82
1044.691	3035.6
1044.855	262.65
1045.019	940.53
1045.183	813.56
1045.346	348.67
1045.51	199.16
1045.674	707.06
1045.837	770.55
1046.001	320
1046.165	307.71
1046.328	1159.66
1046.492	778.74
1046.655	352.76
1046.819	381.43
1046.983	436.73
1047.146	625.14
1047.31	371.19
1047.473	39.42
1047.636	590.33
1047.8	332.28
1047.963	309.76
1048.127	94.72
1048.29	502.26
