Data from Hydrogel_Ink_Intensity_Test_1_USB4F045381__37__00037.txt Node

Date: Mon Jul 31 10:45:39 EDT 2023
User: mmckonesweet
Spectrometer: USB4F04538
Trigger mode: 4
Integration Time (sec): 9.000000E-1
Scans to average: 1
Electric dark correction enabled: true
Nonlinearity correction enabled: false
Boxcar width: 0
XAxis mode: Wavelengths
Number of Pixels in Spectrum: 3648
>>>>>Begin Spectral Data<<<<<
345.52	-971.93
345.736	-971.93
345.952	-971.93
346.168	-943.26
346.384	-928.92
346.6	-148.65
346.816	-230.57
347.032	-294.05
347.248	271.19
347.464	-236.71
347.68	-54.44
347.896	129.88
348.112	453.45
348.328	-89.26
348.544	-72.87
348.76	31.57
348.975	240.47
349.191	-232.62
349.407	-146.6
349.623	107.35
349.839	-46.25
350.055	-95.4
350.27	183.12
350.486	236.37
350.702	371.54
350.918	297.81
351.133	-46.25
351.349	236.37
351.565	453.45
351.781	-124.07
351.996	103.25
352.212	334.67
352.428	-107.69
352.644	-74.92
352.859	-154.79
353.075	326.48
353.291	-58.54
353.506	-79.02
353.722	-228.52
353.938	25.43
354.153	533.33
354.369	217.94
354.584	-68.78
354.8	246.61
355.016	-255.14
355.231	-76.97
355.447	-33.96
355.662	125.78
355.878	848.71
356.093	-226.47
356.309	-17.58
356.524	-183.46
356.74	291.66
356.955	-185.51
357.171	-40.11
357.386	252.75
357.602	-128.17
357.817	15.19
358.033	-52.39
358.248	412.5
358.464	176.98
358.679	-136.36
358.895	-203.94
359.11	54.1
359.325	435.02
359.541	381.78
359.756	101.2
359.972	-277.67
360.187	193.36
360.402	-128.17
360.618	0.85
360.833	1131.33
361.048	219.99
361.264	-46.25
361.479	0.85
361.694	41.81
361.909	340.82
362.125	-105.64
362.34	-5.29
362.555	289.62
362.77	109.4
362.986	-244.9
363.201	-93.35
363.416	342.86
363.631	119.64
363.847	-68.78
364.062	-85.16
364.277	240.47
364.492	187.22
364.707	-17.58
364.922	-234.66
365.138	373.58
365.353	400.21
365.568	-191.66
365.783	-76.97
365.998	185.17
366.213	701.26
366.428	-95.4
366.643	133.97
366.858	369.49
367.073	260.95
367.288	29.52
367.503	-89.26
367.718	279.38
367.933	367.44
368.148	-171.18
368.363	-48.3
368.578	33.62
368.793	510.8
369.008	-66.73
369.223	-105.64
369.438	283.47
369.653	527.18
369.868	-195.75
370.083	-136.36
370.298	142.16
370.513	471.89
370.728	152.4
370.943	0.85
371.157	-64.68
371.372	562
371.587	-128.17
371.802	-68.78
372.017	168.79
372.232	494.41
372.446	13.14
372.661	-76.97
372.876	346.96
373.091	244.56
373.306	66.39
373.52	-134.31
373.735	-66.73
373.95	521.04
374.165	105.3
374.379	-15.53
374.594	9.05
374.809	164.69
375.023	183.12
375.238	-144.55
375.453	387.92
375.667	-89.26
375.882	68.44
376.097	-187.56
376.311	133.97
376.526	215.89
376.741	-113.83
376.955	238.42
377.17	664.4
377.384	613.2
377.599	41.81
377.813	-183.46
378.028	691.02
378.242	328.53
378.457	50
378.672	-249
378.886	250.71
379.101	146.26
379.315	-171.18
379.53	-85.16
379.744	410.45
379.958	410.45
380.173	31.57
380.387	-40.11
380.602	291.66
380.816	25.43
381.031	-68.78
381.245	4.95
381.459	299.86
381.674	2714.41
381.888	-25.77
382.103	242.51
382.317	21.33
382.531	613.2
382.746	99.16
382.96	107.35
383.174	58.2
383.388	559.95
383.603	256.85
383.817	-93.35
384.031	252.75
384.246	701.26
384.46	172.88
384.674	482.13
384.888	172.88
385.103	246.61
385.317	-109.74
385.531	181.07
385.745	602.96
385.959	482.13
386.174	4.95
386.388	-29.87
386.602	275.28
386.816	31.57
387.03	179.03
387.244	183.12
387.458	226.13
387.672	562
387.887	-97.45
388.101	-97.45
388.315	580.43
388.529	351.06
388.743	99.16
388.957	9.05
389.171	562
389.385	25.43
389.599	60.24
389.813	289.62
390.027	260.95
390.241	932.68
390.455	156.5
390.669	172.88
390.883	187.22
391.097	715.59
391.311	328.53
391.525	78.68
391.738	449.36
391.952	435.02
392.166	236.37
392.38	-44.2
392.594	598.86
392.808	531.28
393.022	140.12
393.236	201.55
393.449	410.45
393.663	414.54
393.877	58.2
394.091	285.52
394.305	267.09
394.518	193.36
394.732	-15.53
394.946	213.84
395.16	748.36
395.373	332.62
395.587	78.68
395.801	133.97
396.015	549.71
396.228	488.27
396.442	54.1
396.656	-3.24
396.869	631.63
397.083	828.23
397.297	308.05
397.51	146.26
397.724	641.87
397.938	469.84
398.151	62.29
398.365	11.09
398.578	570.19
398.792	680.78
399.005	226.13
399.219	176.98
399.433	482.13
399.646	562
399.86	353.1
400.073	369.49
400.287	502.61
400.5	430.93
400.714	467.79
400.927	250.71
401.141	641.87
401.354	1409.86
401.567	578.38
401.781	121.68
401.994	674.64
402.208	983.88
402.421	250.71
402.635	295.76
402.848	367.44
403.061	734.03
403.275	449.36
403.488	168.79
403.701	824.14
403.915	648.01
404.128	465.74
404.341	312.14
404.555	596.81
404.768	371.54
404.981	418.64
405.195	213.84
405.408	934.73
405.621	717.64
405.834	398.16
406.048	234.32
406.261	844.62
406.474	910.15
406.687	293.71
406.9	336.72
407.114	510.8
407.327	619.34
407.54	250.71
407.753	187.22
407.966	346.96
408.179	766.79
408.392	377.68
408.605	213.84
408.819	682.83
409.032	729.93
409.245	324.43
409.458	602.96
409.671	686.92
409.884	873.29
410.097	291.66
410.31	551.76
410.523	686.92
410.736	508.75
410.949	402.26
411.162	451.41
411.375	834.38
411.588	861
411.801	549.71
412.014	346.96
412.227	615.24
412.44	645.96
412.653	416.59
412.865	654.16
413.078	844.62
413.291	787.27
413.504	566.09
413.717	349.01
413.93	836.42
414.143	469.84
414.356	496.46
414.568	215.89
414.781	940.87
414.994	791.37
415.207	590.67
415.42	465.74
415.632	918.34
415.845	1166.15
416.058	324.43
416.271	334.67
416.483	688.97
416.696	1176.39
416.909	478.03
417.121	533.33
417.334	858.95
417.547	1213.25
417.759	537.42
417.972	420.69
418.185	643.92
418.397	979.78
418.61	537.42
418.823	443.21
419.035	1076.04
419.248	707.4
419.46	600.91
419.673	670.54
419.885	924.49
420.098	791.37
420.311	568.14
420.523	385.87
420.736	1012.55
420.948	772.94
421.161	600.91
421.373	463.69
421.586	791.37
421.798	592.72
422.01	435.02
422.223	693.07
422.435	723.79
422.648	992.07
422.86	602.96
423.073	600.91
423.285	1104.71
423.497	648.01
423.71	623.44
423.922	578.38
424.134	1055.56
424.347	1223.49
424.559	899.91
424.771	914.25
424.984	811.85
425.196	1090.37
425.408	594.76
425.621	648.01
425.833	1164.1
426.045	1205.06
426.257	666.44
426.47	713.55
426.682	1098.56
426.894	1106.76
427.106	832.33
427.318	779.08
427.531	742.22
427.743	1207.11
427.955	793.42
428.167	1131.33
428.379	1123.14
428.591	959.3
428.804	926.54
429.016	881.48
429.228	869.19
429.44	1155.91
429.652	1037.13
429.864	641.87
430.076	1018.69
430.288	1065.8
430.5	934.73
430.712	926.54
430.924	1342.27
431.136	1200.96
431.348	709.45
431.56	764.75
431.772	1069.89
431.984	1055.56
432.196	832.33
432.408	920.39
432.62	1073.99
432.832	1338.18
433.044	1270.59
433.256	1166.15
433.468	1332.03
433.679	828.23
433.891	811.85
434.103	1278.79
434.315	1555.26
434.527	1356.61
434.739	1078.08
434.95	1303.36
435.162	1395.52
435.374	1090.37
435.586	1010.5
435.798	961.35
436.009	998.21
436.221	1264.45
436.433	1157.96
436.645	1194.82
436.856	1248.07
437.068	1551.17
437.28	1073.99
437.491	1248.07
437.703	1555.26
437.915	1403.71
438.126	1194.82
438.338	1391.42
438.55	1321.79
438.761	1577.79
438.973	1250.11
439.184	1229.63
439.396	1295.17
439.608	1577.79
439.819	1057.61
440.031	1372.99
440.242	1532.73
440.454	1565.5
440.665	1297.22
440.877	1354.56
441.088	1579.84
441.3	1440.58
441.511	1088.32
441.723	1178.44
441.934	1604.41
442.146	1520.45
442.357	1450.82
442.569	1540.93
442.78	1508.16
442.991	1995.57
443.203	1561.41
443.414	1227.59
443.626	1909.56
443.837	1418.05
444.048	1227.59
444.26	1176.39
444.471	1592.13
444.682	1858.36
444.894	1168.2
445.105	1233.73
445.316	1927.99
445.528	1702.72
445.739	1612.6
445.95	1532.73
446.161	1653.56
446.373	1966.9
446.584	1418.05
446.795	1409.86
447.006	1930.04
447.217	2065.21
447.429	1311.55
447.64	1422.14
447.851	2034.49
448.062	1741.63
448.273	1297.22
448.484	1489.73
448.695	1852.22
448.907	1592.13
449.118	1680.19
449.329	1684.28
449.54	1786.68
449.751	1590.08
449.962	1600.32
450.173	1622.84
450.384	2059.06
450.595	2089.78
450.806	1637.18
451.017	1667.9
451.228	2149.17
451.439	2165.56
451.65	1592.13
451.861	1454.91
452.072	1719.1
452.283	1831.74
452.494	1966.9
452.705	1659.71
452.915	2384.69
453.126	2032.44
453.337	1719.1
453.548	1645.37
453.759	2308.91
453.97	2501.42
454.181	2122.55
454.391	1776.44
454.602	2138.93
454.813	2272.05
455.024	1938.23
455.235	1825.59
455.445	2085.69
455.656	2134.84
455.867	1989.43
456.078	1934.14
456.288	1897.27
456.499	2353.97
456.71	1925.94
456.921	2173.75
457.131	2364.21
457.342	2360.11
457.553	2200.37
457.763	1999.67
457.974	2399.02
458.184	2546.48
458.395	2048.82
458.606	1893.18
458.816	2652.97
459.027	2966.31
459.237	2327.35
459.448	2134.84
459.659	2745.13
459.869	3019.56
460.08	2106.17
460.29	2466.61
460.501	2992.94
460.711	2394.93
460.922	2280.24
461.132	2364.21
461.343	3234.6
461.553	2372.4
461.764	2190.13
461.974	2308.91
462.184	2786.09
462.395	2622.25
462.605	2638.64
462.816	2368.31
463.026	2790.19
463.236	2980.65
463.447	2413.36
463.657	2515.76
463.867	3179.3
464.078	2794.28
464.288	2640.69
464.498	2745.13
464.709	2933.54
464.919	2763.56
465.129	2812.71
465.339	2716.46
465.55	3097.38
465.76	3146.53
465.97	2886.44
466.18	2757.42
466.391	3482.4
466.601	3285.8
466.811	3111.72
467.021	3009.32
467.231	3349.28
467.441	3466.02
467.651	3027.75
467.862	2681.64
468.072	3386.15
468.282	3889.95
468.492	3152.68
468.702	3296.04
468.912	3410.72
469.122	4078.36
469.332	3730.2
469.542	3224.36
469.752	3838.75
469.962	3795.74
470.172	3506.98
470.382	3500.83
470.592	4006.68
470.802	4295.44
471.012	3699.48
471.222	3722.01
471.432	4277.01
471.642	4162.33
471.852	3871.51
472.062	3754.78
472.272	4125.46
472.482	3863.32
472.691	3961.62
472.901	3830.55
473.111	4217.62
473.321	4985.61
473.531	4059.93
473.741	4301.59
473.95	4754.19
474.16	4596.5
474.37	4434.71
474.58	4195.09
474.79	5006.09
474.999	4868.88
475.209	4358.93
475.419	4649.74
475.628	4891.4
475.838	5219.08
476.048	4860.68
476.258	4539.15
476.467	5389.06
476.677	4932.36
476.886	5102.34
477.096	5161.73
477.306	5167.88
477.515	5593.86
477.725	5196.55
477.935	5329.67
478.144	5896.96
478.354	5366.53
478.563	5569.28
478.773	5223.17
478.982	5939.96
479.192	6103.8
479.401	5714.69
479.611	5565.18
479.82	5651.2
480.03	6056.7
480.239	5767.93
480.449	5640.96
480.658	6607.6
480.868	6183.67
481.077	5944.06
481.287	5950.2
481.496	6392.56
481.705	6779.63
481.915	6333.17
482.124	6517.49
482.333	6707.95
482.543	6920.94
482.752	6488.82
482.961	6472.43
483.171	6836.97
483.38	6898.41
483.589	7119.59
483.799	6675.18
484.008	7049.96
484.217	7211.75
484.426	7021.29
484.636	6685.42
484.845	7211.75
485.054	7031.53
485.263	7375.59
485.472	7121.64
485.682	7779.04
485.891	7463.65
486.1	6902.51
486.309	7361.25
486.518	7881.44
486.727	7815.9
486.936	7265
487.146	7635.68
487.355	8024.79
487.564	7570.15
487.773	7480.04
487.982	7695.07
488.191	7801.57
488.4	8239.83
488.609	8090.33
488.818	7910.11
489.027	8723.15
489.236	8479.44
489.445	8315.61
489.654	8166.1
489.863	8661.71
490.072	8555.22
490.281	8671.95
490.49	8385.24
490.698	8915.66
490.907	9040.59
491.116	8497.88
491.325	8524.5
491.534	9026.25
491.743	9013.96
491.952	8762.06
492.16	8794.83
492.369	9249.48
492.578	9185.99
492.787	8997.58
492.996	8776.4
493.204	8934.09
493.413	9753.28
493.622	9038.54
493.831	8841.93
494.039	9560.77
494.248	9128.65
494.457	9061.07
494.665	9063.12
494.874	9743.04
495.083	10003.13
495.291	9419.46
495.5	9571.01
495.709	10027.71
495.917	10017.47
496.126	9804.48
496.335	9611.97
496.543	9888.45
496.752	10250.94
496.96	10212.03
497.169	9730.75
497.377	10021.56
497.586	10564.28
497.794	10300.09
498.003	9921.21
498.211	10283.7
498.42	10744.5
498.628	10359.48
498.837	9962.17
499.045	10959.53
499.254	10554.04
499.462	10394.29
499.671	10554.04
499.879	11051.69
500.087	10939.05
500.296	10414.77
500.504	10625.72
500.713	10900.14
500.921	11393.7
501.129	10633.91
501.338	10707.63
501.546	10912.43
501.754	11190.95
501.962	10855.09
502.171	10846.9
502.379	11481.77
502.587	11631.27
502.795	11272.87
503.004	10930.86
503.212	11473.57
503.42	11637.41
503.628	11344.55
503.837	11063.98
504.045	11801.25
504.253	12024.48
504.461	11381.42
504.669	11293.35
504.877	12116.64
505.085	12153.5
505.294	11231.91
505.502	11737.76
505.71	11858.59
505.918	11989.66
506.126	11575.97
506.334	11629.22
506.542	11985.57
506.75	11885.22
506.958	11922.08
507.166	11985.57
507.374	12167.84
507.582	12526.23
507.79	11895.46
507.998	11887.26
508.206	12325.53
508.414	12491.41
508.622	12100.25
508.83	12098.2
509.037	12958.35
509.245	12436.12
509.453	12225.18
509.661	12159.64
509.869	12819.09
510.077	12350.1
510.285	12706.45
510.492	12245.66
510.7	13376.14
510.908	12653.2
511.116	12479.13
511.324	12612.24
511.531	12876.43
511.739	13027.98
511.947	12810.9
512.155	12909.2
512.362	12997.26
512.57	12571.29
512.778	12849.81
512.985	12788.37
513.193	13501.06
513.401	13402.76
513.608	12817.04
513.816	12618.39
514.024	13496.97
514.231	13435.53
514.439	12866.19
514.646	13030.03
514.854	13742.72
515.061	13433.48
515.269	12995.22
515.477	13085.33
515.684	13312.65
515.892	13759.11
516.099	13148.81
516.307	13087.37
516.514	13974.14
516.722	14211.71
516.929	13369.99
517.136	13390.47
517.344	13929.09
517.551	13857.41
517.759	13607.56
517.966	13777.54
518.173	13539.97
518.381	14176.89
518.588	13742.72
518.796	13830.79
519.003	14140.03
519.21	14183.04
519.418	13826.69
519.625	13990.53
519.832	13984.38
520.039	14195.32
520.247	13775.49
520.454	13961.86
520.661	14596.73
520.868	14508.66
521.076	14146.17
521.283	14283.39
521.49	14901.87
521.697	14680.69
521.904	14279.29
522.112	14393.98
522.319	14621.3
522.526	14582.39
522.733	14168.7
522.94	14256.76
523.147	14824.05
523.354	14811.76
523.561	14654.07
523.768	14842.48
523.975	15329.9
524.183	14860.91
524.39	14926.45
524.597	14852.72
524.804	14924.4
525.011	14883.44
525.218	14887.54
525.425	15125.1
525.632	15247.98
525.838	15127.15
526.045	14996.08
526.252	14885.49
526.459	16372.32
526.666	16337.5
526.873	15252.08
527.08	15301.23
527.287	15737.45
527.494	15811.17
527.701	15215.21
527.907	15299.18
528.114	15895.14
528.321	15749.73
528.528	15657.57
528.735	15442.54
528.941	15936.1
529.148	15315.56
529.355	15573.61
529.562	15553.13
529.768	16288.35
529.975	15628.9
530.182	15477.35
530.388	15743.59
530.595	15985.25
530.802	15663.72
531.008	15897.19
531.215	15802.98
531.422	16687.7
531.628	17183.31
531.835	16329.31
532.042	16286.3
532.248	16470.62
532.455	16487
532.661	16347.74
532.868	16257.63
533.074	16575.06
533.281	16620.12
533.487	16640.6
533.694	16245.34
533.9	16673.37
534.107	16693.85
534.313	16654.94
534.52	16370.27
534.726	17175.12
534.933	17414.73
535.139	16370.27
535.345	16679.51
535.552	17097.3
535.758	17056.34
535.965	16863.83
536.171	16712.28
536.377	17353.29
536.584	17320.53
536.79	16790.1
536.996	17263.18
537.203	17318.48
537.409	17482.31
537.615	17070.67
537.821	17281.61
538.028	17711.69
538.234	17736.26
538.44	16841.3
538.646	17257.04
538.853	17787.46
539.059	17318.48
539.265	17437.26
539.471	17410.64
539.677	17914.44
539.883	17719.88
540.09	17431.12
540.296	17992.26
540.502	17814.09
540.708	17814.09
540.914	17941.06
541.12	17910.34
541.326	18534.97
541.532	18143.81
541.738	18108.99
541.944	17855.04
542.15	18686.52
542.356	18410.04
542.562	17803.85
542.768	18401.85
542.974	18887.22
543.18	19085.87
543.386	18332.22
543.592	18260.54
543.798	19083.83
544.004	18987.57
544.21	18436.67
544.415	18364.99
544.621	18483.77
544.827	18690.62
545.033	18657.85
545.239	18737.72
545.445	18768.44
545.651	19032.63
545.856	18379.32
546.062	18971.19
546.268	18846.26
546.474	18983.48
546.679	18840.12
546.885	18762.3
547.091	18739.77
547.297	19391.02
547.502	18934.32
547.708	18645.56
547.914	18858.55
548.119	19735.08
548.325	18709.05
548.531	18496.06
548.736	19841.57
548.942	19214.9
549.147	19063.35
549.353	19218.99
549.559	19636.78
549.764	19386.93
549.97	18518.59
550.175	19135.03
550.381	19663.4
550.586	19157.55
550.792	19280.43
550.997	19294.77
551.203	19415.6
551.408	19817
551.614	18952.76
551.819	19520.04
552.025	20427.29
552.23	20410.91
552.435	19698.22
552.641	20261.41
552.846	20177.44
553.052	20376.09
553.257	20152.87
553.462	20032.04
553.668	20046.37
553.873	20392.48
554.078	19911.21
554.283	20122.15
554.489	20378.14
554.694	20550.17
554.899	19819.05
555.105	20253.22
555.31	20226.59
555.515	20716.06
555.72	20415.01
555.925	19921.45
556.131	20916.76
556.336	20318.75
556.541	20339.23
556.746	20415.01
556.951	21156.37
557.156	21191.19
557.361	20382.24
557.567	20828.7
557.772	21289.49
557.977	21045.78
558.182	20238.88
558.387	20738.58
558.592	20836.89
558.797	20980.25
559.002	20570.65
559.207	20752.92
559.412	20730.39
559.617	21625.36
559.822	20894.23
560.027	20685.34
560.232	21197.33
560.437	21543.44
560.642	20621.85
560.847	20978.2
561.051	20984.34
561.256	21049.88
561.461	20939.29
561.666	21113.36
561.871	21486.09
562.076	21307.92
562.281	21207.57
562.485	20961.81
562.69	21498.38
562.895	21600.78
563.1	21211.67
563.305	21086.74
563.509	22000.13
563.714	22299.14
563.919	21137.94
564.123	21144.08
564.328	21320.21
564.533	21977.61
564.737	21121.56
564.942	21187.09
565.147	22028.81
565.351	22483.45
565.556	21514.77
565.761	21721.61
565.965	21836.3
566.17	21645.84
566.374	21557.77
566.579	21484.05
566.784	21758.47
566.988	21918.21
567.193	21539.34
567.397	21586.44
567.602	21668.36
567.806	21744.14
568.011	21826.06
568.215	22098.44
568.42	22053.38
568.624	21944.84
568.828	21867.02
569.033	22065.67
569.237	22389.25
569.442	22444.54
569.646	21645.84
569.85	21998.09
570.055	22508.03
570.259	22528.51
570.463	22424.06
570.668	22266.37
570.872	22479.36
571.076	22129.16
571.281	22268.42
571.485	22141.44
571.689	22645.24
571.893	22503.93
572.098	22340.1
572.302	22475.26
572.506	22649.34
572.71	22546.94
572.914	22698.49
573.119	22684.16
573.323	23075.32
573.527	23118.32
573.731	22565.37
573.935	22364.67
574.139	23169.52
574.343	22819.32
574.547	22624.76
574.751	22899.19
574.955	23353.84
575.159	23120.37
575.364	22718.97
575.568	22864.38
575.772	23245.3
575.976	23144.95
576.18	22518.27
576.383	22979.06
576.587	23587.31
576.791	23376.37
576.995	22979.06
577.199	22700.54
577.403	23491.05
577.607	23652.84
577.811	23425.52
578.015	23534.06
578.219	23472.62
578.422	23550.45
578.626	23382.51
578.83	23364.08
579.034	23613.93
579.238	23443.95
579.442	23249.39
579.645	23564.78
579.849	23798.25
580.053	23839.21
580.257	23446
580.46	23712.24
580.664	23904.74
580.868	23984.62
581.071	23912.94
581.275	23904.74
581.479	23509.49
581.682	23867.88
581.886	23706.09
582.09	23876.07
582.293	24261.09
582.497	24482.27
582.7	23912.94
582.904	23816.68
583.107	23900.65
583.311	23921.13
583.515	24048.1
583.718	24351.2
583.922	24259.04
584.125	24750.56
584.329	23859.69
584.532	23892.46
584.735	24760.8
584.939	24340.96
585.142	24177.12
585.346	24543.71
585.549	24756.7
585.753	24877.53
585.956	24508.9
586.159	24451.55
586.363	24932.82
586.566	24857.05
586.769	24205.8
586.973	24156.64
587.176	24867.29
587.379	24990.17
587.582	24803.8
587.786	24758.75
587.989	24979.93
588.192	25502.16
588.395	24674.78
588.599	25039.32
588.802	25307.6
589.005	25268.69
589.208	24965.59
589.411	24984.02
589.615	25399.76
589.818	25780.68
590.021	25364.95
590.224	25006.55
590.427	25594.32
590.63	25401.81
590.833	24682.97
591.036	25223.64
591.239	25364.95
591.442	25342.42
591.645	25508.3
591.848	25330.13
592.051	25887.18
592.254	25809.36
592.457	25686.48
592.66	25674.19
592.863	25792.97
593.066	25809.36
593.269	25506.26
593.472	25788.88
593.675	25878.99
593.878	25985.48
594.081	25727.44
594.284	25725.39
594.486	26304.96
594.689	26530.24
594.892	25778.64
595.095	26057.16
595.298	26323.4
595.5	26149.32
595.703	26223.05
595.906	26118.6
596.109	26354.12
596.311	26524.1
596.514	25588.17
596.717	26399.17
596.92	27023.8
597.122	26624.45
597.325	26014.15
597.528	26046.92
597.73	26927.55
597.933	26603.97
598.136	26317.25
598.338	26216.9
598.541	26991.03
598.743	27134.39
598.946	26319.3
599.148	26399.17
599.351	27193.78
599.554	27232.69
599.756	26616.26
599.959	26935.74
600.161	26880.44
600.363	27599.28
600.566	26845.63
600.768	26681.79
600.971	27429.3
601.173	27251.13
601.376	26687.93
601.578	26730.94
601.78	27040.18
601.983	27687.34
602.185	26616.26
602.388	26966.46
602.59	27191.73
602.792	26880.44
602.995	26847.68
603.197	26522.05
603.399	27824.56
603.601	27189.69
603.804	26829.24
604.006	26968.51
604.208	26780.09
604.41	26776
604.613	26730.94
604.815	26732.99
605.017	27859.37
605.219	27025.85
605.421	27130.3
605.623	26884.54
605.826	27894.19
606.028	27644.34
606.23	27118.01
606.432	26960.31
606.634	28068.27
606.836	27953.58
607.038	27156.92
607.24	27435.44
607.442	27679.15
607.644	27554.22
607.846	27118.01
608.048	27085.24
608.25	27791.79
608.452	27298.23
608.654	27138.49
608.856	26866.11
609.058	27455.92
609.26	27814.32
609.462	27312.56
609.664	27744.69
609.866	28215.72
610.067	27742.64
610.269	27666.86
610.471	27240.89
610.673	27789.74
610.875	27980.2
611.077	27435.44
611.278	27421.11
611.48	27609.52
611.682	28236.2
611.884	27730.35
612.085	27490.74
612.287	27748.78
612.489	27744.69
612.69	27386.29
612.892	27789.74
613.094	28305.83
613.295	27875.76
613.497	27507.12
613.699	27744.69
613.9	28234.15
614.102	27994.54
614.304	27695.53
614.505	27550.13
614.707	28002.73
614.908	27740.59
615.11	27464.11
615.311	27703.73
615.513	27818.41
615.714	28086.7
615.916	27679.15
616.117	27548.08
616.319	27670.96
616.52	28101.03
616.722	27693.49
616.923	27781.55
617.124	28428.71
617.326	28017.07
617.527	27775.41
617.729	27926.96
617.93	28524.96
618.131	28271.01
618.333	27615.66
618.534	27675.06
618.735	28064.17
618.937	28776.86
619.138	27703.73
619.339	27937.2
619.54	27935.15
619.742	27830.7
619.943	27726.25
620.144	27875.76
620.345	28406.18
620.546	28518.82
620.748	28039.59
620.949	27814.32
621.15	28365.22
621.351	28141.99
621.552	28017.07
621.753	27535.79
621.954	28162.47
622.155	28500.39
622.356	27670.96
622.558	27875.76
622.759	28516.77
622.96	28639.65
623.161	28062.12
623.362	27986.35
623.563	28500.39
623.764	28326.31
623.965	28387.75
624.166	28647.84
624.366	28531.11
624.567	28400.04
624.768	27980.2
624.969	28180.9
625.17	28344.74
625.371	28625.31
625.572	28084.65
625.773	28193.19
625.973	28912.03
626.174	28907.93
626.375	28527.01
626.576	28854.69
626.777	28961.18
626.977	28873.12
627.178	28486.05
627.379	28740
627.58	28531.11
627.78	28848.54
627.981	28234.15
628.182	28819.87
628.382	28977.56
628.583	28367.27
628.784	28279.21
628.984	28404.13
629.185	28993.95
629.386	28588.45
629.586	28856.73
629.787	28498.34
629.987	29032.86
630.188	28895.64
630.388	28651.94
630.589	28623.26
630.79	29688.21
630.99	28942.75
631.191	28559.78
631.391	28836.25
631.591	29151.64
631.792	29208.98
631.992	28895.64
632.193	28811.68
632.393	29034.91
632.594	28799.39
632.794	28281.25
632.994	29039
633.195	28838.3
633.395	28959.13
633.595	28789.15
633.796	29346.2
633.996	29266.33
634.196	29534.61
634.397	29106.59
634.597	28805.53
634.797	28928.41
634.997	29327.77
635.198	28715.42
635.398	28778.91
635.598	28995.99
635.798	29643.15
635.998	29125.02
636.199	28733.85
636.399	29266.33
636.599	28983.71
636.799	28975.52
636.999	29106.59
637.199	29342.1
637.399	29602.19
637.599	28895.64
637.799	29092.25
637.999	29503.89
638.199	29858.19
638.399	28899.74
638.599	29202.84
638.799	29553.04
638.999	29862.29
639.199	29374.87
639.399	29331.86
639.599	30036.36
639.799	29208.98
639.999	28750.24
640.199	28848.54
640.399	29231.51
640.599	28375.46
640.799	29729.17
640.998	29368.73
641.198	29899.15
641.398	29598.1
641.598	29174.17
641.798	29122.97
641.997	30149
642.197	29319.57
642.397	29696.4
642.597	29467.03
642.796	29657.49
642.996	29950.35
643.196	29391.25
643.395	29100.44
643.595	29602.19
643.795	29520.27
643.994	29766.03
644.194	29501.84
644.394	29813.13
644.593	29354.39
644.793	29196.7
644.992	29536.66
645.192	29841.81
645.392	29526.42
645.591	29958.54
645.791	29833.61
645.99	29833.61
646.19	29983.12
646.389	30118.28
646.589	29727.12
646.788	30214.54
646.987	29845.9
647.187	29987.21
647.386	29917.58
647.586	30400.9
647.785	30222.73
647.984	30052.75
648.184	30232.97
648.383	29841.81
648.582	29905.29
648.782	29847.95
648.981	29909.39
649.18	29745.55
649.38	30359.94
649.579	30001.55
649.778	29907.34
649.977	30544.26
650.177	30042.51
650.376	29743.5
650.575	29555.09
650.774	30769.54
650.973	30030.22
651.173	29413.78
651.372	30028.17
651.571	30144.91
651.77	30677.38
651.969	29968.78
652.168	30081.42
652.367	29782.41
652.566	30126.47
652.765	29917.58
652.964	30054.79
653.163	30851.45
653.362	30415.24
653.561	29702.54
653.76	29993.36
653.959	30300.55
654.158	30921.09
654.357	30177.67
654.556	30126.47
654.755	30538.12
654.954	30605.7
655.153	30040.46
655.352	30222.73
655.551	30683.52
655.749	30423.43
655.948	30241.16
656.147	30503.3
656.346	30744.96
656.545	30732.67
656.743	30296.46
656.942	30587.27
657.141	30546.31
657.34	30441.86
657.538	30224.78
657.737	30161.29
657.936	30462.34
658.135	30759.3
658.333	30093.71
658.532	30783.87
658.731	30683.52
658.929	30914.94
659.128	30341.51
659.326	29821.33
659.525	30726.53
659.724	30323.08
659.922	30077.32
660.121	30165.39
660.319	30738.82
660.518	30349.7
660.716	30187.91
660.915	30626.18
661.113	30830.97
661.312	30220.68
661.51	30734.72
661.709	30327.17
661.907	30478.72
662.105	31052.16
662.304	30663.04
662.502	30271.88
662.701	30882.17
662.899	30622.08
663.097	30665.09
663.296	30787.97
663.494	31189.37
663.692	31203.71
663.891	30179.72
664.089	30392.71
664.287	31486.32
664.485	31168.89
664.684	30419.33
664.882	30146.95
665.08	30646.66
665.278	30824.83
665.476	30525.83
665.675	30937.47
665.873	31191.42
666.071	31144.31
666.269	30513.54
666.467	30597.51
666.665	30902.65
666.863	30536.07
667.061	30730.62
667.259	30347.65
667.457	31015.29
667.655	31261.05
667.853	30099.85
668.051	30224.78
668.249	30419.33
668.447	30560.64
668.645	30151.05
668.843	30435.72
669.041	30767.49
669.239	30429.57
669.437	30779.78
669.635	30683.52
669.833	30249.35
670.031	30753.15
670.229	30280.07
670.426	30640.51
670.624	30278.02
670.822	30474.63
671.02	30155.15
671.218	30681.47
671.415	30458.24
671.613	30853.5
671.811	30149
672.009	30296.46
672.206	30734.72
672.404	30650.75
672.602	30802.3
672.799	30560.64
672.997	30794.11
673.195	30896.51
673.392	30534.02
673.59	30134.67
673.788	30488.96
673.985	29872.53
674.183	30163.34
674.38	29989.26
674.578	30624.13
674.775	30112.14
674.973	29966.73
675.17	29876.62
675.368	30593.41
675.565	30466.44
675.763	30243.21
675.96	30189.96
676.158	30837.12
676.355	30239.11
676.553	30331.27
676.75	30161.29
676.947	30138.76
677.145	30458.24
677.342	30454.15
677.539	30382.47
677.737	30452.1
677.934	30925.18
678.131	30478.72
678.329	29825.42
678.526	30423.43
678.723	30435.72
678.92	30144.91
679.118	30237.06
679.315	29778.32
679.512	30448
679.709	30149
679.906	29917.58
680.104	30491.01
680.301	30417.29
680.498	29647.25
680.695	29686.16
680.892	29923.72
681.089	30120.33
681.286	29985.16
681.483	29450.64
681.68	30249.35
681.877	30456.2
682.075	29895.05
682.272	30146.95
682.469	30163.34
682.665	29890.96
682.862	29800.85
683.059	29966.73
683.256	30126.47
683.453	30308.74
683.65	29659.54
683.847	30038.41
684.044	29972.88
684.241	29589.91
684.438	29829.52
684.635	29462.93
684.831	30269.83
685.028	30058.89
685.225	29604.24
685.422	29753.74
685.619	29911.44
685.815	29788.56
686.012	29082.01
686.209	29243.8
686.405	29538.71
686.602	29655.44
686.799	29131.16
686.996	29141.4
687.192	28811.68
687.389	29835.66
687.586	29348.25
687.782	29628.82
687.979	29946.25
688.175	29499.8
688.372	29213.08
688.568	29217.18
688.765	29079.96
688.962	29901.2
689.158	29141.4
689.355	29360.53
689.551	29589.91
689.748	29274.52
689.944	29319.57
690.14	29120.92
690.337	29538.71
690.533	29163.93
690.73	28979.61
690.926	29424.02
691.123	29415.83
691.319	29243.8
691.515	29313.43
691.712	29413.78
691.908	29643.15
692.104	29573.52
692.301	29491.6
692.497	28740
692.693	29766.03
692.889	29473.17
693.086	29323.67
693.282	28940.7
693.478	29270.42
693.674	29131.16
693.87	28723.62
694.067	29223.32
694.263	29266.33
694.459	29051.29
694.655	29149.59
694.851	29344.15
695.047	29065.63
695.243	29440.4
695.439	28998.04
695.635	28574.11
695.831	29112.73
696.027	29114.78
696.224	28721.57
696.42	29100.44
696.615	29612.43
696.811	29507.99
697.007	28801.44
697.203	28391.84
697.399	28770.72
697.595	29174.17
697.791	28434.85
697.987	28660.13
698.183	28443.04
698.379	28199.34
698.575	28629.41
698.77	28651.94
698.966	29215.13
699.162	29256.09
699.358	28332.45
699.554	28766.62
699.749	29151.64
699.945	28729.76
700.141	28486.05
700.337	28529.06
700.532	28453.28
700.728	28895.64
700.924	28244.39
701.119	28381.6
701.315	28510.63
701.511	28273.06
701.706	28574.11
701.902	27972.01
702.097	28193.19
702.293	28348.84
702.489	28219.81
702.684	28330.41
702.88	28643.74
703.075	28416.42
703.271	28105.13
703.466	28271.01
703.662	28144.04
703.857	28506.53
704.053	28381.6
704.248	28316.07
704.443	28787.1
704.639	28746.14
704.834	28250.53
705.03	28223.91
705.225	28678.56
705.42	28672.42
705.616	28578.21
705.811	28088.74
706.006	28856.73
706.202	28357.03
706.397	28311.97
706.592	28121.51
706.787	28268.97
706.983	28219.81
707.178	28291.49
707.373	28076.46
707.568	28033.45
707.763	28613.02
707.959	28191.14
708.154	28080.55
708.349	27945.39
708.544	28348.84
708.739	27908.52
708.934	27498.93
709.129	28107.18
709.324	28621.22
709.519	28019.11
709.714	27908.52
709.909	28604.83
710.104	27855.28
710.299	27720.11
710.494	27648.43
710.689	28098.98
710.884	28039.59
711.079	27812.27
711.274	27705.77
711.469	28492.19
711.664	28350.88
711.859	27380.15
712.054	27845.04
712.249	27869.61
712.443	28010.92
712.638	27709.87
712.833	27625.9
713.028	27503.03
713.223	27498.93
713.417	27486.64
713.612	27277.75
713.807	27836.84
714.002	28516.77
714.196	27808.17
714.391	27429.3
714.586	27808.17
714.78	27853.23
714.975	27617.71
715.17	27296.18
715.364	27535.79
715.559	27914.67
715.754	26984.89
715.948	27056.57
716.143	27920.81
716.337	27314.61
716.532	27556.27
716.726	27314.61
716.921	27759.02
717.115	28105.13
717.31	27242.93
717.504	28074.41
717.699	27799.98
717.893	27761.07
718.088	26982.84
718.282	27066.81
718.476	27158.97
718.671	27371.96
718.865	26923.45
719.059	26956.22
719.254	27304.37
719.448	27615.66
719.642	28260.77
719.837	26845.63
720.031	27486.64
720.225	26870.2
720.419	26984.89
720.614	26583.49
720.808	27240.89
721.002	26945.98
721.196	27165.11
721.39	26712.51
721.585	27075
721.779	27154.87
721.973	26763.71
722.167	26223.05
722.361	26651.07
722.555	27034.04
722.749	26489.28
722.943	26819
723.137	26474.95
723.331	27169.21
723.525	26499.52
723.719	26390.98
723.913	27099.58
724.107	27023.8
724.301	26599.87
724.495	26753.47
724.689	27552.18
724.883	27005.37
725.077	26227.14
725.271	26591.68
725.465	26864.06
725.659	26536.38
725.853	26540.48
726.046	26425.79
726.24	26372.55
726.434	26788.28
726.628	26243.52
726.822	26337.73
727.015	27214.26
727.209	26962.36
727.403	26603.97
727.596	26474.95
727.79	27165.11
727.984	27261.37
728.177	26472.9
728.371	26761.66
728.565	26948.03
728.758	26755.52
728.952	26251.72
729.146	26436.03
729.339	26966.46
729.533	26728.89
729.726	26354.12
729.92	26044.87
730.113	26986.94
730.307	26659.26
730.5	26016.2
730.694	26094.02
730.887	26524.1
731.081	26831.29
731.274	26292.68
731.468	26151.37
731.661	26397.12
731.854	26577.34
732.048	26350.02
732.241	26053.06
732.435	26524.1
732.628	26542.53
732.821	26585.54
733.014	26241.48
733.208	26384.83
733.401	26743.23
733.594	26128.84
733.788	26192.33
733.981	26649.02
734.174	26649.02
734.367	26227.14
734.56	26558.91
734.754	26337.73
734.947	26812.86
735.14	26087.88
735.333	26347.97
735.526	26530.24
735.719	26315.2
735.912	25967.05
736.105	25993.67
736.298	26552.77
736.491	26446.27
736.684	25676.24
736.877	26313.16
737.07	26450.37
737.263	26560.96
737.456	26464.71
737.649	25911.75
737.842	26587.58
738.035	26405.31
738.228	25989.58
738.421	26296.77
738.614	26495.43
738.807	26542.53
739	25575.89
739.192	25752.01
739.385	26218.95
739.578	26098.12
739.771	26384.83
739.964	25659.85
740.156	26198.47
740.349	26415.55
740.542	26005.96
740.735	25522.64
740.927	25895.37
741.12	25500.11
741.313	25575.89
741.505	25858.51
741.698	26134.98
741.891	25792.97
742.083	25897.42
742.276	25752.01
742.468	26063.3
742.661	26044.87
742.854	25950.67
743.046	25448.91
743.239	26177.99
743.431	26024.39
743.624	25344.47
743.816	25354.71
744.009	26171.85
744.201	25680.33
744.393	25823.69
744.586	25475.54
744.778	25962.95
744.971	26020.3
745.163	25530.83
745.355	25684.43
745.548	25426.39
745.74	25598.41
745.932	25768.4
746.125	25510.35
746.317	26481.09
746.509	25362.9
746.702	25610.7
746.894	25559.5
747.086	25481.68
747.278	26022.34
747.471	25559.5
747.663	25133.53
747.855	25586.13
748.047	26173.89
748.239	25403.86
748.431	25352.66
748.623	26311.11
748.815	25946.57
749.008	25553.36
749.2	25698.77
749.392	25842.12
749.584	25573.84
749.776	25283.03
749.968	25323.99
750.16	25801.16
750.352	25643.47
750.544	25127.38
750.736	24723.93
750.928	25295.32
751.12	25414.1
751.311	25070.04
751.503	25682.38
751.695	25721.29
751.887	25432.53
752.079	24785.37
752.271	25444.82
752.463	26415.55
752.654	25637.33
752.846	25272.79
753.038	25219.54
753.23	25475.54
753.421	25209.3
753.613	24852.95
753.805	25022.94
753.997	25350.61
754.188	25270.74
754.38	24773.08
754.572	25057.75
754.763	25168.34
754.955	25141.72
755.146	25090.52
755.338	24529.38
755.53	25104.85
755.721	24672.73
755.913	24062.44
756.104	24056.29
756.296	24791.52
756.487	24871.39
756.679	25053.66
756.87	24572.38
757.062	24965.59
757.253	25055.7
757.445	24654.3
757.636	25070.04
757.827	24906.2
758.019	25348.56
758.21	24613.34
758.401	24803.8
758.593	25428.43
758.784	25260.5
758.975	24347.11
759.167	24642.01
759.358	24828.38
759.549	25027.03
759.74	24381.92
759.932	24642.01
760.123	24779.23
760.314	24424.93
760.505	24213.99
760.696	24105.45
760.888	24895.96
761.079	24357.35
761.27	24162.79
761.461	24179.17
761.652	24955.35
761.843	24379.87
762.034	24216.04
762.225	24328.67
762.416	24123.88
762.607	23910.89
762.798	23878.12
762.989	23833.07
763.18	24592.86
763.371	23417.33
763.562	23362.03
763.753	23695.85
763.944	24322.53
764.135	24111.59
764.326	23699.95
764.517	23521.77
764.708	23624.17
764.899	23888.36
765.089	23405.04
765.28	23198.2
765.471	23538.16
765.662	23765.48
765.853	23640.56
766.043	23243.25
766.234	23833.07
766.425	23613.93
766.615	23263.73
766.806	23210.48
766.997	23482.86
767.187	23349.75
767.378	23069.17
767.569	22565.37
767.759	23589.36
767.95	23505.39
768.141	23122.42
768.331	22952.44
768.522	23411.18
768.712	23147
768.903	23058.93
769.093	22891
769.284	23505.39
769.474	23157.24
769.665	22690.3
769.855	22665.72
770.046	23140.85
770.236	22780.41
770.426	22884.86
770.617	22475.26
770.807	22913.53
770.998	23280.11
771.188	22702.59
771.378	22577.66
771.569	22966.77
771.759	22800.89
771.949	22338.05
772.139	22245.89
772.33	22303.23
772.52	22868.47
772.71	22512.13
772.9	21838.34
773.09	22991.35
773.281	22847.99
773.471	22161.92
773.661	22303.23
773.851	22809.08
774.041	22546.94
774.231	21959.17
774.421	22563.33
774.611	22835.7
774.802	22528.51
774.992	21979.65
775.182	22077.96
775.372	22260.23
775.562	22512.13
775.752	22219.27
775.942	22401.54
776.131	22639.1
776.321	22530.56
776.511	22243.84
776.701	21840.39
776.891	22393.34
777.081	21918.21
777.271	22002.18
777.461	22137.35
777.651	22286.85
777.84	22086.15
778.03	21692.94
778.22	21482
778.41	21848.58
778.599	21637.64
778.789	21471.76
778.979	21395.98
779.169	21783.05
779.358	21803.53
779.548	21864.97
779.738	21101.08
779.927	21647.88
780.117	21377.55
780.307	21236.24
780.496	21082.64
780.686	21482
780.875	21729.8
781.065	21377.55
781.254	21058.07
781.444	21416.46
781.633	21565.96
781.823	21191.19
782.012	21248.53
782.202	21441.04
782.391	21432.85
782.581	21051.92
782.77	21269.01
782.96	21623.31
783.149	20996.63
783.338	20941.33
783.528	20752.92
783.717	21398.03
783.906	21510.67
784.096	21041.68
784.285	20754.97
784.474	20906.52
784.663	20943.38
784.853	20869.65
785.042	21047.83
785.231	21041.68
785.42	21336.59
785.61	20914.71
785.799	20556.32
785.988	20738.58
786.177	20484.64
786.366	20656.67
786.555	20857.37
786.744	21180.95
786.933	20722.2
787.122	20562.46
787.312	20515.36
787.501	20724.25
787.69	20820.5
787.879	20703.77
788.068	20509.21
788.257	20251.17
788.445	20027.94
788.634	20103.71
788.823	20177.44
789.012	21176.85
789.201	20912.66
789.39	20195.87
789.579	19894.82
789.768	20660.76
789.957	20341.28
790.145	20187.68
790.334	19726.89
790.523	20052.52
790.712	20267.55
790.9	20300.32
791.089	19780.14
791.278	20556.32
791.467	20173.35
791.655	20202.02
791.844	20546.08
792.033	19653.16
792.221	19876.39
792.41	19724.84
792.599	19530.28
792.787	20365.85
792.976	20087.33
793.164	19872.29
793.353	19898.92
793.541	20013.6
793.73	20142.63
793.918	19708.46
794.107	19597.87
794.295	19857.96
794.484	19900.97
794.672	19427.88
794.861	19454.51
795.049	19718.7
795.238	20134.43
795.426	19479.08
795.614	19401.26
795.803	19741.22
795.991	20048.42
796.179	19491.37
796.368	19237.42
796.556	19919.4
796.744	19266.1
796.932	19345.97
797.121	19278.38
797.309	19628.59
797.497	19974.69
797.685	19636.78
797.874	19178.03
798.062	19374.64
798.25	19712.55
798.438	19216.94
798.626	19173.94
798.814	19436.08
799.002	20013.6
799.19	19194.42
799.378	19321.39
799.566	19524.14
799.755	19941.93
799.943	19348.01
800.131	19341.87
800.318	19589.67
800.506	19565.1
800.694	19452.46
800.882	19200.56
801.07	19900.97
801.258	19571.24
801.446	19374.64
801.634	19059.25
801.822	19487.28
802.01	19352.11
802.197	19370.54
802.385	19411.5
802.573	19431.98
802.761	19231.28
802.949	19153.46
803.136	19132.98
803.324	19655.21
803.512	19941.93
803.699	19399.21
803.887	19053.11
804.075	20099.62
804.262	19356.21
804.45	19386.93
804.638	19522.09
804.825	19581.48
805.013	19218.99
805.201	19710.5
805.388	19333.68
805.576	19450.41
805.763	20060.71
805.951	19223.09
806.138	19358.25
806.326	20036.13
806.513	19778.09
806.701	19290.67
806.888	19479.08
807.075	19784.23
807.263	20204.07
807.45	19434.03
807.638	19679.79
807.825	20695.58
808.012	19943.97
808.2	19769.9
808.387	19855.91
808.574	19964.45
808.761	20347.42
808.949	19571.24
809.136	19696.17
809.323	19505.71
809.51	20046.37
809.698	19792.42
809.885	19923.49
810.072	19835.43
810.259	20251.17
810.446	19454.51
810.633	19755.56
810.82	20288.03
811.008	20486.68
811.195	20036.13
811.382	19784.23
811.569	19903.01
811.756	19341.87
811.943	19581.48
812.13	19714.6
812.317	19788.33
812.504	19792.42
812.691	19798.57
812.878	19978.79
813.064	20376.09
813.251	19839.53
813.438	19649.07
813.625	19864.1
813.812	19616.3
813.999	19595.82
814.186	19749.42
814.372	19663.4
814.559	19726.89
814.746	19929.64
814.933	19563.05
815.12	19825.19
815.306	19577.39
815.493	19397.17
815.68	19513.9
815.866	19374.64
816.053	19929.64
816.24	19960.36
816.426	19626.54
816.613	19685.93
816.799	20062.76
816.986	20021.8
817.173	19327.53
817.359	19268.14
817.546	19872.29
817.732	19333.68
817.919	19487.28
818.105	20138.53
818.292	19651.11
818.478	19810.86
818.665	19665.45
818.851	19393.07
819.037	20126.24
819.224	19696.17
819.41	19466.8
819.597	19200.56
819.783	20152.87
819.969	19690.02
820.156	19341.87
820.342	19489.32
820.528	20259.36
820.714	19669.55
820.901	19845.67
821.087	19536.43
821.273	20130.34
821.459	19515.95
821.646	19632.68
821.832	19479.08
822.018	19587.63
822.204	19286.58
822.39	19255.86
822.576	19077.68
822.762	19606.06
822.948	19063.35
823.134	19438.12
823.32	19106.35
823.507	19053.11
823.693	19567.15
823.879	19667.5
824.065	18987.57
824.25	19538.48
824.436	19251.76
824.622	19008.05
824.808	19155.51
824.994	19212.85
825.18	18907.7
825.366	18801.21
825.552	19135.03
825.738	19114.55
825.923	19165.74
826.109	19065.39
826.295	18491.96
826.481	18786.87
826.667	18936.37
826.852	18885.17
827.038	18745.91
827.224	19149.36
827.409	19395.12
827.595	18422.33
827.781	18934.32
827.966	19247.66
828.152	18850.36
828.338	18649.66
828.523	18233.92
828.709	18743.86
828.894	18786.87
829.08	18260.54
829.266	18244.16
829.451	18600.51
829.637	18967.09
829.822	18633.27
830.008	18190.91
830.193	18766.39
830.378	18788.92
830.564	18485.82
830.749	18264.64
830.935	18762.3
831.12	18700.86
831.305	18494.01
831.491	18145.86
831.676	18172.48
831.861	18879.03
832.047	18168.38
832.232	18027.07
832.417	18715.19
832.602	18455.1
832.788	18084.42
832.973	18084.42
833.158	18274.88
833.343	18238.02
833.528	18364.99
833.714	18166.34
833.899	18223.68
834.084	18629.18
834.269	17936.96
834.454	18082.37
834.639	18334.27
834.824	18530.87
835.009	18506.3
835.194	18274.88
835.379	18260.54
835.564	18342.46
835.749	17926.72
835.934	17656.39
836.119	18330.17
836.304	18311.74
836.489	17816.13
836.674	18029.12
836.859	17760.84
837.044	18348.61
837.228	17787.46
837.413	17504.84
837.598	18068.03
837.783	18188.86
837.968	17719.88
838.152	17445.45
838.337	17404.49
838.522	18268.73
838.707	18225.73
838.891	18084.42
839.076	18002.5
839.261	18027.07
839.445	17623.62
839.63	17656.39
839.815	18139.71
839.999	17386.06
840.184	17379.92
840.368	17341
840.553	17687.11
840.737	17713.74
840.922	17107.54
841.106	17132.11
841.291	17160.78
841.475	17257.04
841.66	17171.02
841.844	17080.91
842.029	17705.54
842.213	17160.78
842.397	16972.37
842.582	16970.32
842.766	17627.72
842.951	17476.17
843.135	17121.87
843.319	16947.79
843.504	17078.86
843.688	17627.72
843.872	16796.25
844.056	16966.23
844.241	17599.05
844.425	16960.08
844.609	16996.95
844.793	16990.8
844.977	17322.57
845.161	16972.37
845.346	16806.48
845.53	16683.61
845.714	16982.61
845.898	16886.36
846.082	16241.25
846.266	16431.71
846.45	16640.6
846.634	16843.35
846.818	16530.01
847.002	16861.78
847.186	16912.98
847.37	16640.6
847.554	16446.04
847.738	16740.95
847.922	16902.74
848.106	16984.66
848.29	16312.92
848.473	16239.2
848.657	16513.63
848.841	16720.47
849.025	16247.39
849.209	16075.36
849.392	16777.81
849.576	16550.49
849.76	15721.06
849.944	16001.63
850.127	16882.26
850.311	15944.29
850.495	15751.78
850.678	15639.14
850.862	16589.4
851.046	16562.78
851.229	16093.79
851.413	15925.86
851.596	16095.84
851.78	16515.67
851.964	16163.42
852.147	15866.47
852.331	16900.69
852.514	16708.18
852.698	16360.03
852.881	15440.49
853.065	16376.41
853.248	16214.62
853.431	15923.81
853.615	15991.39
853.798	16577.11
853.982	16198.24
854.165	16003.68
854.348	15665.77
854.532	15463.02
854.715	15749.73
854.898	15671.91
855.081	15512.17
855.265	16052.83
855.448	16267.87
855.631	15428.2
855.814	15481.45
855.997	15778.4
856.181	15774.31
856.364	15698.53
856.547	15307.37
856.73	15864.42
856.913	15415.91
857.096	15233.64
857.279	15561.32
857.462	15569.51
857.645	15641.19
857.828	15288.94
858.011	15471.21
858.194	15309.42
858.377	15542.89
858.56	15086.19
858.743	14985.84
858.926	14856.82
859.109	15358.57
859.292	15168.11
859.475	14926.45
859.658	15626.85
859.841	15170.16
860.023	14910.07
860.206	14885.49
860.389	15125.1
860.572	15440.49
860.755	14983.79
860.937	14944.88
861.12	15014.51
861.303	15147.63
861.486	14787.19
861.668	14781.04
861.851	15223.41
862.034	15086.19
862.216	15016.56
862.399	14389.88
862.581	14971.5
862.764	15141.49
862.947	14881.39
863.129	14611.06
863.312	14848.63
863.494	15331.95
863.677	14930.55
863.859	14289.53
864.042	14905.97
864.224	15069.81
864.406	14527.1
864.589	14267
864.771	14809.72
864.954	14533.24
865.136	14166.65
865.318	14064.25
865.501	14639.73
865.683	14174.85
865.865	14455.42
866.048	14316.15
866.23	14527.1
866.412	14371.45
866.594	14086.78
866.777	14074.49
866.959	14434.94
867.141	13988.48
867.323	14246.52
867.505	14576.25
867.687	14547.58
867.869	14398.07
868.052	14185.08
868.234	14002.82
868.416	14203.52
868.598	14598.77
868.78	14326.39
868.962	14088.83
869.144	14527.1
869.326	14604.92
869.508	14011.01
869.69	13943.42
869.872	14209.66
870.054	14385.79
870.236	13525.64
870.417	13832.83
870.599	14293.63
870.781	14406.27
870.963	14189.18
871.145	14086.78
871.327	13933.18
871.508	14310.01
871.69	13988.48
871.872	13765.25
872.054	14156.41
872.235	14066.3
872.417	13613.7
872.599	13464.2
872.78	14735.99
872.962	13924.99
873.144	13625.99
873.325	13642.37
873.507	14291.58
873.689	13869.7
873.87	13785.73
874.052	13814.4
874.233	14230.14
874.415	14430.84
874.596	13757.06
874.778	13714.05
874.959	13929.09
875.141	14164.61
875.322	13898.37
875.503	13800.07
875.685	14004.86
875.866	13394.57
876.048	13865.6
876.229	13740.68
876.41	14209.66
876.592	14156.41
876.773	13638.28
876.954	13544.07
877.136	14426.75
877.317	13734.53
877.498	13296.27
877.679	13660.8
877.86	14000.77
878.042	13857.41
878.223	13625.99
878.404	13959.81
878.585	14279.29
878.766	14707.32
878.947	14430.84
879.128	13851.27
879.309	14209.66
879.49	14430.84
879.672	14129.79
879.853	13898.37
880.034	14127.74
880.215	14258.81
880.396	13980.29
880.576	14166.65
880.757	14135.93
880.938	14334.59
881.119	14109.31
881.3	13822.59
881.481	14232.19
881.662	15137.39
881.843	13894.27
882.023	14049.92
882.204	14328.44
882.385	14375.55
882.566	14318.2
882.747	14264.96
882.927	14625.4
883.108	14232.19
883.289	13924.99
883.469	14396.03
883.65	14262.91
883.831	14424.7
884.011	14471.8
884.192	14277.24
884.373	14699.13
884.553	14615.16
884.734	14545.53
884.914	14680.69
885.095	15307.37
885.275	14991.98
885.456	14791.28
885.636	14398.07
885.817	14824.05
885.997	14824.05
886.178	14477.94
886.358	14387.83
886.538	15041.14
886.719	15825.51
886.899	14484.09
887.08	14877.3
887.26	15155.82
887.44	14572.15
887.621	14641.78
887.801	14779
887.981	15317.61
888.161	14944.88
888.342	14729.84
888.522	14692.98
888.702	15071.86
888.882	15108.72
889.062	14684.79
889.242	14271.1
889.423	15235.69
889.603	15069.81
889.783	14836.34
889.963	14578.29
890.143	15110.77
890.323	15053.42
890.503	14609.01
890.683	14633.59
890.863	15057.52
891.043	14948.98
891.223	14654.07
891.403	14762.61
891.583	15010.42
891.763	14789.24
891.943	14578.29
892.122	14750.32
892.302	14598.77
892.482	14996.08
892.662	14805.62
892.842	14922.35
893.022	15075.95
893.201	14543.48
893.381	14740.08
893.561	14611.06
893.741	14746.23
893.92	14785.14
894.1	14762.61
894.28	14639.73
894.459	14903.92
894.639	14938.74
894.819	14504.57
894.998	14645.88
895.178	14828.15
895.357	14719.6
895.537	14363.26
895.716	14477.94
895.896	14946.93
896.075	15184.49
896.255	14463.61
896.434	14267
896.614	14905.97
896.793	14951.03
896.973	14467.7
897.152	14312.06
897.331	14623.35
897.511	14746.23
897.69	14146.17
897.87	14158.46
898.049	14592.63
898.228	14770.8
898.407	14393.98
898.587	14297.72
898.766	14236.28
898.945	14539.38
899.124	14348.92
899.304	14168.7
899.483	14588.53
899.662	14627.45
899.841	14011.01
900.02	13957.76
900.199	14654.07
900.378	14232.19
900.557	13730.44
900.737	13767.3
900.916	14228.09
901.095	14195.32
901.274	14088.83
901.453	13281.93
901.632	13503.11
901.811	13806.21
901.989	13372.04
902.168	13394.57
902.347	14115.45
902.526	13408.9
902.705	13183.63
902.884	13603.46
903.063	13873.79
903.242	13787.78
903.42	13187.72
903.599	13312.65
903.778	13490.82
903.957	13656.71
904.135	13130.38
904.314	12837.52
904.493	13439.62
904.672	13197.96
904.85	12786.32
905.029	13023.89
905.207	13161.1
905.386	13875.84
905.565	12552.85
905.743	12862.1
905.922	12806.8
906.1	13017.74
906.279	12399.26
906.457	12382.87
906.636	12692.12
906.814	12610.2
906.993	12315.29
907.171	12368.54
907.35	12628.63
907.528	12710.55
907.707	12362.39
907.885	11936.42
908.063	12606.1
908.242	12157.6
908.42	12120.73
908.598	11887.26
908.777	12374.68
908.955	12053.15
909.133	12206.75
909.311	11625.12
909.49	12092.06
909.668	12235.42
909.846	11960.99
910.024	11821.73
910.202	12511.89
910.38	12206.75
910.559	11739.81
910.737	11891.36
910.915	12538.52
911.093	12458.65
911.271	12212.89
911.449	12464.79
911.627	12808.85
911.805	12935.82
911.983	12364.44
912.161	12386.97
912.339	12806.8
912.517	12987.02
912.695	12446.36
912.872	12401.3
913.05	12307.1
913.228	12894.86
913.406	12556.95
913.584	12327.58
913.762	13157
913.939	12706.45
914.117	12479.13
914.295	12593.81
914.473	13003.41
914.65	12683.92
914.828	12307.1
915.006	12173.98
915.184	12434.07
915.361	12706.45
915.539	12307.1
915.716	12292.76
915.894	12487.32
916.072	12593.81
916.249	12321.43
916.427	12090.01
916.604	12073.63
916.782	12335.77
916.959	12026.53
917.137	12274.33
917.314	12384.92
917.492	12419.74
917.669	12309.15
917.847	12184.22
918.024	12333.72
918.201	12042.91
918.379	12298.91
918.556	11917.98
918.733	12550.81
918.911	12229.27
919.088	12133.02
919.265	11823.78
919.442	12452.5
919.62	12137.12
919.797	11885.22
919.974	11721.38
920.151	12165.79
920.328	11922.08
920.506	11750.05
920.683	12255.9
920.86	11893.41
921.037	11991.71
921.214	12038.81
921.391	11971.23
921.568	12296.86
921.745	12038.81
921.922	12042.91
922.099	11758.24
922.276	12282.52
922.453	12223.13
922.63	11676.32
922.807	11741.86
922.984	11788.96
923.161	11453.09
923.338	11608.74
923.514	11299.5
923.691	11604.64
923.868	11727.52
924.045	11236.01
924.222	11356.84
924.399	11641.51
924.575	11834.02
924.752	11500.2
924.929	11334.31
925.105	11524.77
925.282	11131.56
925.459	10975.92
925.635	10894
925.812	11256.49
925.989	11166.38
926.165	11121.32
926.342	10986.16
926.518	11055.79
926.695	11254.44
926.871	10984.11
927.048	10611.38
927.224	11233.96
927.401	10797.74
927.577	10951.34
927.754	10619.57
927.93	11182.76
928.107	11113.13
928.283	10650.29
928.459	10918.57
928.636	11066.03
928.812	10834.61
928.988	10343.1
929.165	10582.71
929.341	10693.3
929.517	10877.62
929.693	10984.11
929.87	10146.49
930.046	10980.01
930.222	10379.96
930.398	10515.12
930.574	10414.77
930.751	10621.62
930.927	10347.19
931.103	10496.69
931.279	10158.78
931.455	10324.66
931.631	10480.31
931.807	9841.34
931.983	9943.74
932.159	9925.31
932.335	10308.28
932.511	10037.95
932.687	9784
932.863	9990.84
933.039	9835.2
933.215	9398.98
933.391	9507.52
933.566	9745.09
933.742	9583.3
933.918	9417.41
934.094	9241.29
934.27	9317.06
934.445	9355.97
934.621	9272.01
934.797	9061.07
934.973	9243.34
935.148	9196.23
935.324	8604.37
935.5	8329.94
935.675	9081.55
935.851	8749.78
936.027	8276.7
936.202	8348.37
936.378	8630.99
936.553	8340.18
936.729	8297.17
936.904	7817.95
937.08	7676.64
937.255	7670.5
937.431	7299.81
937.606	7348.97
937.782	7258.85
937.957	7518.95
938.133	7193.32
938.308	6836.97
938.483	7156.46
938.659	6605.55
938.834	6759.15
939.009	6632.18
939.185	6812.4
939.36	6476.53
939.535	6083.32
939.71	6443.76
939.886	6738.67
940.061	6603.5
940.236	6333.17
940.411	6034.17
940.586	6474.48
940.761	6499.06
940.937	6009.59
941.112	5905.15
941.287	6097.66
941.462	6009.59
941.637	5669.63
941.812	5632.77
941.987	6005.5
942.162	5833.47
942.337	5733.12
942.512	5716.73
942.687	6036.22
942.862	5726.97
943.037	5479.17
943.212	5165.83
943.386	5628.67
943.561	5806.84
943.736	5661.44
943.911	5776.13
944.086	5792.51
944.26	5706.49
944.435	5366.53
944.61	5473.03
944.785	5829.37
944.959	6204.15
945.134	5505.79
945.309	5485.31
945.483	5376.77
945.658	5858.04
945.833	5128.97
946.007	5161.73
946.182	5989.11
946.357	5378.82
946.531	5241.61
946.706	5327.62
946.88	5325.57
947.055	5681.92
947.229	5444.35
947.404	5323.52
947.578	5976.83
947.752	5516.03
947.927	5313.28
948.101	5266.18
948.276	5802.75
948.45	5714.69
948.624	5704.45
948.799	5536.51
948.973	5817.08
949.147	5430.02
949.321	5403.39
949.496	5473.03
949.67	5862.14
949.844	5714.69
950.018	5470.98
950.193	5530.37
950.367	6202.1
950.541	5817.08
950.715	5849.85
950.889	6032.12
951.063	5888.76
951.237	6220.53
951.411	5559.04
951.585	5671.68
951.759	6089.46
951.933	5997.31
952.107	5849.85
952.281	5919.48
952.455	6384.37
952.629	6183.67
952.803	5733.12
952.977	5817.08
953.151	6511.35
953.325	6284.02
953.499	6103.8
953.672	5792.51
953.846	6071.03
954.02	5935.87
954.194	5913.34
954.368	5970.68
954.541	6517.49
954.715	6144.76
954.889	6116.09
955.062	5919.48
955.236	6218.49
955.41	6122.23
955.583	6349.56
955.757	5821.18
955.93	6091.51
956.104	6212.34
956.278	5935.87
956.451	6077.18
956.625	6376.18
956.798	6832.88
956.972	6509.3
957.145	5835.52
957.319	6343.41
957.492	6404.85
957.665	6402.8
957.839	6087.42
958.012	6537.97
958.185	6298.36
958.359	6181.62
958.532	6441.72
958.705	6677.23
958.879	6589.17
959.052	6390.52
959.225	6087.42
959.398	6560.5
959.572	6593.26
959.745	6290.17
959.918	6216.44
960.091	6466.29
960.264	6533.87
960.438	6009.59
960.611	6009.59
960.784	6589.17
960.957	6234.87
961.13	6593.26
961.303	6226.68
961.476	6384.37
961.649	6509.3
961.822	6060.79
961.995	6152.95
962.168	6417.14
962.341	6191.86
962.514	6144.76
962.686	6048.51
962.859	6402.8
963.032	6615.79
963.205	6116.09
963.378	6195.96
963.551	6497.01
963.723	6363.89
963.896	6251.25
964.069	6124.28
964.242	6306.55
964.414	6603.5
964.587	6179.58
964.76	6251.25
964.932	6365.94
965.105	6345.46
965.278	6212.34
965.45	6124.28
965.623	6474.48
965.795	6537.97
965.968	6083.32
966.14	5976.83
966.313	6329.08
966.485	6564.59
966.658	6265.59
966.83	5987.07
967.003	6779.63
967.175	6519.54
967.348	6019.83
967.52	6138.62
967.692	6497.01
967.865	6365.94
968.037	6050.55
968.209	6394.61
968.382	6130.42
968.554	6572.79
968.726	5989.11
968.898	5931.77
969.071	6128.38
969.243	6245.11
969.415	5731.07
969.587	5948.15
969.759	6525.68
969.932	6243.06
970.104	6017.79
970.276	5552.9
970.448	5948.15
970.62	5890.81
970.792	5923.58
970.964	5917.44
971.136	6546.16
971.308	6005.5
971.48	5698.3
971.652	5765.89
971.824	6202.1
971.996	5774.08
972.168	5661.44
972.339	5671.68
972.511	6099.7
972.683	5933.82
972.855	5937.91
973.027	5726.97
973.199	5870.33
973.37	6030.07
973.542	5788.41
973.714	5677.82
973.886	5786.37
974.057	6064.89
974.229	5501.7
974.401	5534.46
974.572	5442.31
974.744	5411.59
974.915	5513.99
975.087	5536.51
975.259	6267.64
975.43	5585.66
975.602	5589.76
975.773	5522.18
975.945	5581.57
976.116	5808.89
976.288	5579.52
976.459	5757.69
976.63	5632.77
976.802	5653.25
976.973	5501.7
977.145	5694.21
977.316	6126.33
977.487	6083.32
977.659	5505.79
977.83	5421.83
978.001	5925.63
978.172	5829.37
978.344	5350.15
978.515	5380.87
978.686	5368.58
978.857	5837.56
979.028	5354.24
979.2	5286.66
979.371	5823.23
979.542	5587.71
979.713	5497.6
979.884	4971.27
980.055	5427.97
980.226	5397.25
980.397	5210.89
980.568	5214.98
980.739	5710.59
980.91	5065.48
981.081	5350.15
981.252	5065.48
981.423	5298.95
981.594	5554.94
981.765	5106.44
981.936	5157.64
982.106	5384.96
982.277	5573.38
982.448	5008.14
982.619	5014.28
982.79	4952.84
982.96	5573.38
983.131	4985.61
983.302	4705.04
983.472	4911.88
983.643	5061.38
983.814	4924.17
983.984	4834.06
984.155	5008.14
984.326	5294.85
984.496	4793.1
984.667	4578.06
984.837	4793.1
985.008	5178.12
985.178	4993.8
985.349	4639.5
985.519	4985.61
985.69	4678.41
985.86	4633.36
986.031	4723.47
986.201	4954.89
986.371	4817.68
986.542	4588.3
986.712	4324.12
986.882	4893.45
987.053	4950.79
987.223	4387.6
987.393	4762.38
987.563	4766.48
987.734	4901.64
987.904	4942.6
988.074	4533.01
988.244	4741.9
988.414	4498.19
988.585	4211.48
988.755	4410.13
988.925	4453.14
989.095	4743.95
989.265	4346.64
989.435	4352.79
989.605	4569.87
989.775	4657.93
989.945	4629.26
990.115	4221.72
990.285	4614.93
990.455	4479.76
990.625	4320.02
990.795	4203.29
990.965	4784.91
991.134	4160.28
991.304	4201.24
991.474	4147.99
991.644	4537.1
991.814	4737.81
991.984	4029.21
992.153	4096.79
992.323	4170.52
992.493	4352.79
992.662	3932.95
992.832	4217.62
993.002	4498.19
993.171	4270.87
993.341	3861.27
993.511	4156.18
993.68	4082.46
993.85	4344.6
994.019	3863.32
994.189	3824.41
994.358	4289.3
994.528	4027.16
994.697	3545.89
994.867	3601.18
995.036	4369.17
995.206	4035.35
995.375	3531.55
995.544	3838.75
995.714	4098.84
995.883	3969.82
996.052	3722.01
996.222	3556.13
996.391	4508.43
996.56	3791.64
996.73	3638.05
996.899	3482.4
997.068	4262.68
997.237	3775.26
997.406	3578.65
997.576	3478.3
997.745	3943.19
997.914	3937.05
998.083	3240.74
998.252	3369.76
998.421	3771.16
998.59	3560.22
998.759	3095.33
998.928	3224.36
999.097	3951.39
999.266	3621.66
999.435	3375.91
999.604	3130.15
999.773	4051.74
999.942	3554.08
1000.111	3287.84
1000.28	3025.7
1000.448	3449.63
1000.617	3316.51
1000.786	3377.95
1000.955	3058.47
1001.124	3726.11
1001.292	4262.68
1001.461	3212.07
1001.63	3144.49
1001.798	3746.59
1001.967	3754.78
1002.136	2972.46
1002.304	3064.61
1002.473	3359.52
1002.642	3498.78
1002.81	3121.96
1002.979	3064.61
1003.147	3609.37
1003.316	3879.71
1003.484	2982.7
1003.653	3011.37
1003.821	3724.06
1003.99	3242.79
1004.158	3081
1004.327	2986.79
1004.495	3375.91
1004.663	3081
1004.832	2984.74
1005	2800.43
1005.168	3402.53
1005.337	3187.49
1005.505	2786.09
1005.673	3091.24
1005.842	3302.18
1006.01	3347.23
1006.178	2734.89
1006.346	2800.43
1006.514	3207.97
1006.683	3267.36
1006.851	2784.04
1007.019	2853.67
1007.187	2908.97
1007.355	2478.9
1007.523	2503.47
1007.691	2593.58
1007.859	2665.26
1008.027	3371.81
1008.195	2626.35
1008.363	2630.45
1008.531	3091.24
1008.699	2876.2
1008.867	2507.57
1009.035	2505.52
1009.203	3089.19
1009.37	2894.63
1009.538	2589.49
1009.706	2947.88
1009.874	3050.28
1010.042	2771.76
1010.209	2415.41
1010.377	2528.05
1010.545	3033.9
1010.713	2761.52
1010.88	2192.18
1011.048	2319.15
1011.216	2741.04
1011.383	3185.44
1011.551	2421.55
1011.718	2319.15
1011.886	3058.47
1012.054	2708.27
1012.221	2282.29
1012.389	2177.84
1012.556	2712.36
1012.724	3115.81
1012.891	2534.19
1013.058	2077.49
1013.226	2825
1013.393	2700.08
1013.561	2214.71
1013.728	2202.42
1013.895	2757.42
1014.063	2681.64
1014.23	2102.07
1014.397	2077.49
1014.565	2751.28
1014.732	2366.26
1014.899	2005.81
1015.066	2200.37
1015.233	2528.05
1015.401	2599.73
1015.568	2124.6
1015.735	2016.05
1015.902	2528.05
1016.069	2558.77
1016.236	2089.78
1016.403	2005.81
1016.57	2122.55
1016.737	2601.77
1016.904	2024.25
1017.071	1913.66
1017.238	2063.16
1017.405	2609.97
1017.572	1919.8
1017.739	2093.88
1017.906	2345.78
1018.073	2370.35
1018.24	1772.35
1018.407	1860.41
1018.573	2454.32
1018.74	2179.89
1018.907	1999.67
1019.074	1624.89
1019.241	2468.66
1019.407	2081.59
1019.574	1844.03
1019.741	1770.3
1019.907	2122.55
1020.074	2241.33
1020.241	1508.16
1020.407	1559.36
1020.574	2190.13
1020.74	2224.95
1020.907	1725.24
1021.073	1606.46
1021.24	2517.81
1021.406	2489.14
1021.573	1610.56
1021.739	1604.41
1021.906	2057.01
1022.072	1837.88
1022.239	1688.38
1022.405	1635.13
1022.571	2046.77
1022.738	1829.69
1022.904	1532.73
1023.07	1719.1
1023.237	1956.66
1023.403	2034.49
1023.569	1594.17
1023.735	1606.46
1023.902	2048.82
1024.068	1917.75
1024.234	1499.97
1024.4	1551.17
1024.566	1968.95
1024.732	2069.3
1024.898	1465.15
1025.065	1190.72
1025.231	2085.69
1025.397	1698.62
1025.563	1471.29
1025.729	1444.67
1025.895	1389.38
1026.061	1473.34
1026.227	1350.46
1026.392	1461.06
1026.558	1977.14
1026.724	1815.35
1026.89	1401.66
1027.056	1549.12
1027.222	1839.93
1027.388	1526.59
1027.553	1299.27
1027.719	1250.11
1027.885	2057.01
1028.051	1809.21
1028.216	1086.28
1028.382	1266.5
1028.548	1807.16
1028.713	1624.89
1028.879	1135.43
1029.045	1563.45
1029.21	1991.48
1029.376	1971
1029.541	1340.22
1029.707	1282.88
1029.873	1766.2
1030.038	1831.74
1030.204	1213.25
1030.369	1381.18
1030.534	1794.87
1030.7	1420.1
1030.865	1352.51
1031.031	1209.15
1031.196	1760.06
1031.361	1727.29
1031.527	1196.87
1031.692	1123.14
1031.857	1229.63
1032.023	1833.79
1032.188	1098.56
1032.353	1149.76
1032.518	1913.66
1032.684	1465.15
1032.849	942.92
1033.014	1094.47
1033.179	1680.19
1033.344	1712.96
1033.509	1176.39
1033.674	1194.82
1033.839	1696.57
1034.004	1657.66
1034.17	1041.22
1034.335	928.58
1034.5	1430.34
1034.664	1248.07
1034.829	1053.51
1034.994	1073.99
1035.159	1434.43
1035.324	1483.58
1035.489	1037.13
1035.654	1004.36
1035.819	1708.86
1035.984	1430.34
1036.148	998.21
1036.313	1035.08
1036.478	1686.33
1036.643	1340.22
1036.807	992.07
1036.972	936.78
1037.137	1610.56
1037.301	1352.51
1037.466	799.56
1037.631	1110.85
1037.795	1526.59
1037.96	1481.53
1038.124	1151.81
1038.289	770.89
1038.454	1461.06
1038.618	1491.77
1038.783	1053.51
1038.947	1082.18
1039.111	1483.58
1039.276	1141.57
1039.44	953.16
1039.605	1348.42
1039.769	1237.83
1039.933	1235.78
1040.098	820.04
1040.262	1061.7
1040.426	1452.86
1040.591	1372.99
1040.755	856.9
1040.919	740.17
1041.083	1280.83
1041.248	1170.24
1041.412	721.74
1041.576	842.57
1041.74	1123.14
1041.904	1436.48
1042.068	729.93
1042.232	774.99
1042.397	1405.76
1042.561	1309.51
1042.725	668.49
1042.889	811.85
1043.053	1346.37
1043.217	1237.83
1043.381	854.86
1043.544	621.39
1043.708	1338.18
1043.872	871.24
1044.036	506.7
1044.2	590.67
1044.364	1350.46
1044.528	1473.34
1044.691	1983.29
1044.855	654.16
1045.019	1354.56
1045.183	1258.31
1045.346	752.46
1045.51	678.73
1045.674	1170.24
1045.837	1143.62
1046.001	672.59
1046.165	684.87
1046.328	1639.23
1046.492	1160
1046.655	822.09
1046.819	707.4
1046.983	858.95
1047.146	1143.62
1047.31	801.61
1047.473	418.64
1047.636	996.17
1047.8	721.74
1047.963	650.06
1048.127	547.66
1048.29	926.54
