Data from Hydrogel_Ink_Intensity_Test_1_USB4F045381__54__00054.txt Node

Date: Mon Jul 31 10:50:33 EDT 2023
User: mmckonesweet
Spectrometer: USB4F04538
Trigger mode: 4
Integration Time (sec): 9.000000E-1
Scans to average: 1
Electric dark correction enabled: true
Nonlinearity correction enabled: false
Boxcar width: 0
XAxis mode: Wavelengths
Number of Pixels in Spectrum: 3648
>>>>>Begin Spectral Data<<<<<
345.52	-1019.04
345.736	-1019.04
345.952	-1019.04
346.168	-967.84
346.384	-1039.51
346.6	-148.65
346.816	-189.61
347.032	-197.8
347.248	287.57
347.464	-220.33
347.68	-134.31
347.896	127.83
348.112	402.26
348.328	-74.92
348.544	-105.64
348.76	27.48
348.975	226.13
349.191	-208.04
349.407	-226.47
349.623	58.2
349.839	-66.73
350.055	-171.18
350.27	39.76
350.486	226.13
350.702	320.34
350.918	222.03
351.133	-308.39
351.349	136.02
351.565	357.2
351.781	-185.51
351.996	-19.63
352.212	351.06
352.428	-40.11
352.644	-189.61
352.859	-177.32
353.075	219.99
353.291	-29.87
353.506	-99.5
353.722	-289.96
353.938	4.95
354.153	414.54
354.369	37.72
354.584	-126.12
354.8	289.62
355.016	-312.49
355.231	-224.42
355.447	-72.87
355.662	146.26
355.878	729.93
356.093	-388.26
356.309	-74.92
356.524	-261.29
356.74	326.48
356.955	-244.9
357.171	-52.39
357.386	193.36
357.602	-146.6
357.817	-33.96
358.033	-185.51
358.248	443.21
358.464	105.3
358.679	-99.5
358.895	-263.33
359.11	-3.24
359.325	332.62
359.541	224.08
359.756	-23.72
359.972	-320.68
360.187	187.22
360.402	-179.37
360.618	-179.37
360.833	981.83
361.048	205.65
361.264	-103.59
361.479	-36.01
361.694	-1.19
361.909	226.13
362.125	-277.67
362.34	-27.82
362.555	246.61
362.77	144.21
362.986	-269.48
363.201	-134.31
363.416	97.11
363.631	74.58
363.847	-167.08
364.062	-122.02
364.277	213.84
364.492	121.68
364.707	-126.12
364.922	-378.02
365.138	297.81
365.353	439.12
365.568	-212.14
365.783	-191.66
365.998	211.79
366.213	617.29
366.428	-242.85
366.643	68.44
366.858	291.66
367.073	232.27
367.288	-81.07
367.503	-181.42
367.718	158.55
367.933	385.87
368.148	-271.53
368.363	-85.16
368.578	9.05
368.793	336.72
369.008	-113.83
369.223	-246.95
369.438	262.99
369.653	455.5
369.868	-265.38
370.083	-232.62
370.298	138.07
370.513	430.93
370.728	111.44
370.943	-134.31
371.157	-111.78
371.372	537.42
371.587	-314.53
371.802	-263.33
372.017	97.11
372.232	383.82
372.446	-48.3
372.661	-261.29
372.876	273.23
373.091	213.84
373.306	-7.34
373.52	-236.71
373.735	-97.45
373.95	424.78
374.165	-156.84
374.379	-68.78
374.594	-134.31
374.809	254.8
375.023	84.82
375.238	-199.85
375.453	271.19
375.667	-294.05
375.882	-97.45
376.097	-162.98
376.311	123.73
376.526	78.68
376.741	-175.27
376.955	164.69
377.17	629.58
377.384	652.11
377.599	-25.77
377.813	-273.57
378.028	549.71
378.242	197.46
378.457	-7.34
378.672	-238.76
378.886	86.87
379.101	70.48
379.315	-320.68
379.53	-99.5
379.744	267.09
379.958	297.81
380.173	-113.83
380.387	-138.41
380.602	213.84
380.816	-38.06
381.031	-117.93
381.245	-70.83
381.459	258.9
381.674	2761.52
381.888	-199.85
382.103	185.17
382.317	-25.77
382.531	480.08
382.746	70.48
382.96	-54.44
383.174	-3.24
383.388	426.83
383.603	144.21
383.817	-232.62
384.031	209.75
384.246	486.22
384.46	117.59
384.674	480.08
384.888	80.72
385.103	56.15
385.317	-244.9
385.531	88.92
385.745	475.98
385.959	385.87
386.174	-89.26
386.388	-130.22
386.602	93.01
386.816	-70.83
387.03	-3.24
387.244	-23.72
387.458	56.15
387.672	381.78
387.887	-199.85
388.101	-240.81
388.315	439.12
388.529	191.31
388.743	-109.74
388.957	-173.22
389.171	508.75
389.385	13.14
389.599	-97.45
389.813	78.68
390.027	281.43
390.241	760.65
390.455	-56.49
390.669	15.19
390.883	11.09
391.097	580.43
391.311	76.63
391.525	-89.26
391.738	265.04
391.952	285.52
392.166	119.64
392.38	-187.56
392.594	416.59
392.808	408.4
393.022	-36.01
393.236	-38.06
393.449	287.57
393.663	275.28
393.877	-156.84
394.091	17.24
394.305	88.92
394.518	-36.01
394.732	-179.37
394.946	-60.59
395.16	553.8
395.373	99.16
395.587	-72.87
395.801	7
396.015	344.91
396.228	234.32
396.442	-191.66
396.656	-216.23
396.869	525.13
397.083	551.76
397.297	156.5
397.51	-76.97
397.724	480.08
397.938	285.52
398.151	-154.79
398.365	-134.31
398.578	330.58
398.792	473.93
399.005	47.96
399.219	-11.43
399.433	336.72
399.646	287.57
399.86	181.07
400.073	189.27
400.287	381.78
400.5	138.07
400.714	140.12
400.927	-17.58
401.141	383.82
401.354	1250.11
401.567	324.43
401.781	-117.93
401.994	508.75
402.208	734.03
402.421	7
402.635	138.07
402.848	179.03
403.061	539.47
403.275	84.82
403.488	-52.39
403.701	613.2
403.915	410.45
404.128	179.03
404.341	-11.43
404.555	342.86
404.768	201.55
404.981	148.31
405.195	54.1
405.408	668.49
405.621	461.65
405.834	181.07
406.048	9.05
406.261	568.14
406.474	566.09
406.687	-68.78
406.9	197.46
407.114	158.55
407.327	392.02
407.54	-103.59
407.753	-72.87
407.966	-13.48
408.179	389.97
408.392	-50.35
408.605	-189.61
408.819	404.3
409.032	392.02
409.245	2.9
409.458	152.4
409.671	324.43
409.884	627.53
410.097	-42.15
410.31	168.79
410.523	424.78
410.736	244.56
410.949	88.92
411.162	117.59
411.375	643.92
411.588	432.97
411.801	232.27
412.014	31.57
412.227	242.51
412.44	232.27
412.653	72.53
412.865	238.42
413.078	455.5
413.291	451.41
413.504	117.59
413.717	78.68
413.93	582.48
414.143	113.49
414.356	125.78
414.568	-54.44
414.781	533.33
414.994	406.35
415.207	320.34
415.42	113.49
415.632	545.61
415.845	742.22
416.058	-7.34
416.271	0.85
416.483	310.1
416.696	772.94
416.909	138.07
417.121	115.54
417.334	527.18
417.547	805.71
417.759	99.16
417.972	13.14
418.185	185.17
418.397	527.18
418.61	142.16
418.823	181.07
419.035	787.27
419.248	353.1
419.46	168.79
419.673	199.51
419.885	518.99
420.098	349.01
420.311	99.16
420.523	-72.87
420.736	541.52
420.948	357.2
421.161	172.88
421.373	17.24
421.586	396.11
421.798	172.88
422.01	-19.63
422.223	271.19
422.435	258.9
422.648	512.85
422.86	82.77
423.073	234.32
423.285	668.49
423.497	119.64
423.71	176.98
423.922	156.5
424.134	596.81
424.347	666.44
424.559	406.35
424.771	416.59
424.984	406.35
425.196	553.8
425.408	-64.68
425.621	90.96
425.833	639.82
426.045	748.36
426.257	140.12
426.47	172.88
426.682	490.32
426.894	566.09
427.106	349.01
427.318	211.79
427.531	191.31
427.743	652.11
427.955	283.47
428.167	703.31
428.379	600.91
428.591	424.78
428.804	308.05
429.016	195.41
429.228	385.87
429.44	594.76
429.652	535.37
429.864	27.48
430.076	379.73
430.288	447.31
430.5	250.71
430.712	342.86
430.924	717.64
431.136	533.33
431.348	152.4
431.56	250.71
431.772	430.93
431.984	316.24
432.196	242.51
432.408	254.8
432.62	430.93
432.832	615.24
433.044	539.47
433.256	426.83
433.468	635.72
433.679	234.32
433.891	156.5
434.103	592.72
434.315	895.82
434.527	717.64
434.739	359.25
434.95	518.99
435.162	764.75
435.374	506.7
435.586	381.78
435.798	346.96
436.009	357.2
436.221	506.7
436.433	373.58
436.645	291.66
436.856	486.22
437.068	820.04
437.28	260.95
437.491	660.3
437.703	848.71
437.915	695.11
438.126	314.19
438.338	697.16
438.55	594.76
438.761	748.36
438.973	346.96
439.184	414.54
439.396	707.4
439.608	791.37
439.819	310.1
440.031	533.33
440.242	752.46
440.454	721.74
440.665	506.7
440.877	572.24
441.088	795.47
441.3	633.68
441.511	281.43
441.723	398.16
441.934	693.07
442.146	668.49
442.357	547.66
442.569	703.31
442.78	629.58
442.991	1143.62
443.203	682.83
443.414	439.12
443.626	1059.65
443.837	623.44
444.048	439.12
444.26	373.58
444.471	693.07
444.682	965.45
444.894	369.49
445.105	398.16
445.316	957.25
445.528	883.53
445.739	605
445.95	611.15
446.161	729.93
446.373	953.16
446.584	564.04
446.795	451.41
447.006	930.63
447.217	1078.08
447.429	383.82
447.64	428.88
447.851	1047.37
448.062	811.85
448.273	353.1
448.484	486.22
448.695	922.44
448.907	756.55
449.118	772.94
449.329	707.4
449.54	680.78
449.751	637.77
449.962	525.13
450.173	629.58
450.384	1084.23
450.595	1221.44
450.806	506.7
451.017	695.11
451.228	1139.52
451.439	1002.31
451.65	613.2
451.861	408.4
452.072	693.07
452.283	815.94
452.494	908.1
452.705	553.8
452.915	1235.78
453.126	877.38
453.337	693.07
453.548	637.77
453.759	1174.34
453.97	1450.82
454.181	914.25
454.391	738.12
454.602	944.97
454.813	1039.17
455.024	887.62
455.235	684.87
455.445	1000.26
455.656	1114.95
455.867	887.62
456.078	686.92
456.288	832.33
456.499	1151.81
456.71	656.2
456.921	973.64
457.131	1114.95
457.342	1137.48
457.553	848.71
457.763	793.42
457.974	1135.43
458.184	1178.44
458.395	783.18
458.606	693.07
458.816	1350.46
459.027	1577.79
459.237	1065.8
459.448	766.79
459.659	1319.75
459.869	1663.8
460.08	678.73
460.29	938.82
460.501	1530.69
460.711	1090.37
460.922	635.72
461.132	879.43
461.343	1852.22
461.553	930.63
461.764	949.06
461.974	889.67
462.184	1409.86
462.395	1272.64
462.605	992.07
462.816	971.59
463.026	1229.63
463.236	1553.21
463.447	971.59
463.657	1051.46
463.867	1516.35
464.078	1155.91
464.288	1104.71
464.498	1053.51
464.709	1366.85
464.919	1293.12
465.129	1143.62
465.339	938.82
465.55	1491.77
465.76	1633.08
465.97	1186.63
466.18	1092.42
466.391	1559.36
466.601	1577.79
466.811	1270.59
467.021	1151.81
467.231	1520.45
467.441	1809.21
467.651	1325.89
467.862	987.97
468.072	1512.25
468.282	1891.13
468.492	1305.41
468.702	1375.04
468.912	1553.21
469.122	2265.91
469.332	1631.04
469.542	1268.55
469.752	1823.55
469.962	1786.68
470.172	1362.75
470.382	1348.42
470.592	2011.96
470.802	2009.91
471.012	1563.45
471.222	1514.3
471.432	2011.96
471.642	1962.81
471.852	1745.72
472.062	1571.65
472.272	1807.16
472.482	1655.61
472.691	1618.75
472.901	1620.8
473.111	1940.28
473.321	2456.37
473.531	1622.84
473.741	1798.97
473.95	2079.54
474.16	2220.85
474.37	1954.62
474.58	1653.56
474.79	2593.58
474.999	2331.44
475.209	1880.89
475.419	1981.24
475.628	2233.14
475.838	2401.07
476.048	2016.05
476.258	1923.9
476.467	2526
476.677	2155.32
476.886	2272.05
477.096	2278.19
477.306	2319.15
477.515	2595.63
477.725	2138.93
477.935	2282.29
478.144	2900.78
478.354	2237.24
478.563	2351.92
478.773	2257.71
478.982	2728.75
479.192	2851.63
479.401	2415.41
479.611	2310.96
479.82	2450.22
480.03	2743.08
480.239	2306.87
480.449	2380.59
480.658	3013.42
480.868	2790.19
481.077	2595.63
481.287	2583.34
481.496	3085.09
481.705	3240.74
481.915	3052.33
482.124	2939.69
482.333	3029.8
482.543	3293.99
482.752	2804.52
482.961	2700.08
483.171	3220.26
483.38	3226.4
483.589	2931.5
483.799	2685.74
484.008	3097.38
484.217	3308.32
484.426	3060.52
484.636	2964.26
484.845	3357.47
485.054	2888.49
485.263	3257.12
485.472	3081
485.682	3615.52
485.891	3289.89
486.1	2937.64
486.309	3066.66
486.518	3595.04
486.727	3844.89
486.936	3265.32
487.146	3375.91
487.355	3920.67
487.564	3347.23
487.773	3310.37
487.982	3255.08
488.191	3592.99
488.4	3650.33
488.609	3326.75
488.818	3605.28
489.027	4248.34
489.236	4102.93
489.445	3562.27
489.654	3404.58
489.863	4295.44
490.072	3773.21
490.281	3973.91
490.49	3658.53
490.698	4102.93
490.907	4373.27
491.116	3742.49
491.325	3543.84
491.534	4240.15
491.743	4125.46
491.952	3814.17
492.16	3978.01
492.369	4193.05
492.578	4461.33
492.787	4025.11
492.996	3803.93
493.204	3969.82
493.413	4543.25
493.622	3781.4
493.831	3865.37
494.039	4729.61
494.248	3920.67
494.457	4090.65
494.665	3848.99
494.874	4596.5
495.083	4848.4
495.291	4227.86
495.5	4137.75
495.709	4791.05
495.917	4492.05
496.126	4397.84
496.335	4197.14
496.543	4612.88
496.752	4698.89
496.96	4522.77
497.169	4104.98
497.377	4670.22
497.586	4911.88
497.794	4395.79
498.003	4221.72
498.211	4567.82
498.42	5079.82
498.628	4590.35
498.837	4369.17
499.045	4862.73
499.254	4725.52
499.462	4629.26
499.671	4510.48
499.879	5296.9
500.087	5307.14
500.296	4504.34
500.504	4784.91
500.713	5096.2
500.921	5501.7
501.129	4829.96
501.338	4782.86
501.546	5178.12
501.754	5186.31
501.962	4774.67
502.171	4817.68
502.379	5294.85
502.587	5444.35
502.795	4993.8
503.004	4827.92
503.212	5298.95
503.42	5315.33
503.628	4764.43
503.837	5094.15
504.045	5348.1
504.253	5677.82
504.461	5006.09
504.669	4791.05
504.877	5454.59
505.085	5745.41
505.294	4872.97
505.502	5075.72
505.71	5440.26
505.918	5665.53
506.126	5198.6
506.334	4995.85
506.542	5423.87
506.75	5520.13
506.958	5276.42
507.166	5202.69
507.374	5362.44
507.582	5882.62
507.79	5329.67
507.998	5223.17
508.206	5612.29
508.414	5657.34
508.622	5145.35
508.83	5380.87
509.037	6056.7
509.245	5624.58
509.453	5415.68
509.661	5460.74
509.869	5948.15
510.077	5460.74
510.285	5630.72
510.492	5354.24
510.7	6419.19
510.908	5559.04
511.116	5536.51
511.324	5434.11
511.531	5739.26
511.739	5894.91
511.947	5751.55
512.155	5890.81
512.362	5942.01
512.57	5720.83
512.778	5409.54
512.985	5489.41
513.193	6130.42
513.401	6292.21
513.608	5769.98
513.816	5763.84
514.024	6103.8
514.231	6322.93
514.439	5780.22
514.646	5858.04
514.854	6271.73
515.061	6185.72
515.269	5804.8
515.477	5913.34
515.684	5923.58
515.892	6443.76
516.099	5589.76
516.307	5853.95
516.514	6490.87
516.722	6636.27
516.929	6126.33
517.136	5862.14
517.344	6380.28
517.551	6376.18
517.759	5858.04
517.966	6019.83
518.173	6150.9
518.381	6308.6
518.588	6030.07
518.796	5952.25
519.003	6632.18
519.21	6271.73
519.418	6277.88
519.625	6445.81
519.832	6458.1
520.039	6730.48
520.247	6177.53
520.454	6300.41
520.661	6785.77
520.868	6615.79
521.076	6370.04
521.283	6298.36
521.49	7285.48
521.697	6552.31
521.904	6447.86
522.112	6367.99
522.319	6933.23
522.526	6861.55
522.733	6611.7
522.94	6394.61
523.147	6787.82
523.354	6689.52
523.561	6456.05
523.768	6535.92
523.975	6937.32
524.183	6853.36
524.39	6750.96
524.597	6378.23
524.804	6927.08
525.011	6810.35
525.218	6712.05
525.425	6791.92
525.632	7273.19
525.838	6935.28
526.045	6671.09
526.252	6773.49
526.459	8270.55
526.666	7983.84
526.873	6736.62
527.08	6560.5
527.287	7504.61
527.494	7097.07
527.701	6806.25
527.907	6576.88
528.114	7215.85
528.321	7103.21
528.528	7066.35
528.735	6875.88
528.941	7142.12
529.148	7068.39
529.355	7174.89
529.562	7006.95
529.768	7566.05
529.975	7195.37
530.182	6851.31
530.388	6861.55
530.595	7680.74
530.802	7027.43
531.008	7353.06
531.215	7275.24
531.422	8301.27
531.628	8254.17
531.835	7334.63
532.042	7183.08
532.248	7469.8
532.455	7588.58
532.661	7406.31
532.868	7150.31
533.074	7570.15
533.281	7887.58
533.487	7326.44
533.694	7074.54
533.9	7314.15
534.107	7656.16
534.313	7576.29
534.52	7467.75
534.726	8041.18
534.933	8174.3
535.139	7201.51
535.345	7244.52
535.552	7934.68
535.758	7895.77
535.965	7652.06
536.171	7502.56
536.377	8053.47
536.584	8215.26
536.79	7615.2
536.996	7776.99
537.203	8018.65
537.409	8032.99
537.615	7776.99
537.821	7930.59
538.028	8274.65
538.234	8116.95
538.44	7787.23
538.646	8065.75
538.853	8067.8
539.059	7787.23
539.265	8170.2
539.471	7693.02
539.677	8436.44
539.883	7887.58
540.09	7969.5
540.296	8346.33
540.502	8162.01
540.708	7942.88
540.914	8254.17
541.12	8006.36
541.326	8559.31
541.532	8422.1
541.738	8209.11
541.944	8510.16
542.15	8583.89
542.356	8354.52
542.562	8086.23
542.768	8286.93
542.974	8889.04
543.18	9151.18
543.386	8069.85
543.592	8221.4
543.798	8985.29
544.004	8819.41
544.21	8270.55
544.415	8327.89
544.621	8659.67
544.827	9091.79
545.033	8239.83
545.239	8663.76
545.445	8495.83
545.651	8682.19
545.856	8514.26
546.062	8516.31
546.268	8540.88
546.474	8839.89
546.679	8139.48
546.885	8573.65
547.091	8491.73
547.297	9284.3
547.502	8747.73
547.708	8549.07
547.914	8616.66
548.119	9013.96
548.325	8403.67
548.531	8217.3
548.736	9218.76
548.942	8602.32
549.147	8483.54
549.353	8862.41
549.559	9413.32
549.764	9202.38
549.97	8411.86
550.175	8514.26
550.381	9056.97
550.586	8725.2
550.792	8917.71
550.997	8542.93
551.203	9145.03
551.408	9188.04
551.614	8737.49
551.819	8991.44
552.025	9437.89
552.23	9685.7
552.435	8819.41
552.641	9241.29
552.846	9044.68
553.052	9657.03
553.257	9140.94
553.462	9048.78
553.668	9173.71
553.873	9687.75
554.078	9071.31
554.283	9069.26
554.489	9714.37
554.694	9427.65
554.899	9118.41
555.105	9278.15
555.31	9636.55
555.515	9630.4
555.72	9333.45
555.925	9181.9
556.131	9540.29
556.336	9233.1
556.541	9099.98
556.746	9278.15
556.951	9792.19
557.156	10037.95
557.361	9413.32
557.567	9652.93
557.772	10080.96
557.977	9853.63
558.182	9384.65
558.387	9429.7
558.592	9364.17
558.797	9714.37
559.002	9308.87
559.207	9441.99
559.412	9517.76
559.617	10177.21
559.822	9462.47
560.027	9382.6
560.232	9847.49
560.437	10040
560.642	9278.15
560.847	9347.78
561.051	9919.17
561.256	9806.53
561.461	9849.54
561.666	9505.48
561.871	10279.61
562.076	10044.09
562.281	9677.51
562.485	9323.21
562.69	10103.48
562.895	10017.47
563.1	9827.01
563.305	9470.66
563.509	10330.81
563.714	10588.85
563.919	9601.73
564.123	9702.08
564.328	9827.01
564.533	10244.79
564.737	9671.36
564.942	9827.01
565.147	10519.22
565.351	10695.35
565.556	9886.4
565.761	9958.08
565.965	10117.82
566.17	10123.96
566.374	9843.39
566.579	9870.01
566.784	10164.92
566.988	10089.15
567.193	9638.59
567.397	9927.36
567.602	9917.12
567.806	10295.99
568.011	9906.88
568.215	10056.38
568.42	10142.39
568.624	10205.88
568.828	10046.14
569.033	10001.08
569.237	10392.25
569.442	10379.96
569.646	9906.88
569.85	10416.82
570.055	10537.65
570.259	10314.42
570.463	10298.04
570.668	10025.66
570.872	10508.98
571.076	10474.17
571.281	10058.43
571.485	10441.4
571.689	10506.93
571.893	10668.72
572.098	10388.15
572.302	10177.21
572.506	10533.56
572.71	10490.55
572.914	10382.01
573.119	10304.18
573.323	11002.54
573.527	10773.17
573.731	10439.35
573.935	10300.09
574.139	10558.13
574.343	10461.88
574.547	10416.82
574.751	10535.6
574.955	10879.66
575.159	10926.77
575.364	10443.45
575.568	10449.59
575.772	10728.11
575.976	11027.12
576.18	10349.24
576.383	10400.44
576.587	11242.15
576.791	10949.29
576.995	10212.03
577.199	10347.19
577.403	11096.75
577.607	11444.9
577.811	10580.66
578.015	10703.54
578.219	11115.18
578.422	11287.21
578.626	10769.07
578.83	10904.24
579.034	11049.64
579.238	11059.88
579.442	10738.35
579.645	10949.29
579.849	10943.15
580.053	11143.85
580.257	10828.46
580.46	10969.77
580.664	11315.88
580.868	11352.74
581.071	11240.11
581.275	10752.69
581.479	10699.44
581.682	11336.36
581.886	10717.87
582.09	10994.35
582.293	11506.34
582.497	11471.53
582.7	11336.36
582.904	10988.21
583.107	11195.05
583.311	11096.75
583.515	10922.67
583.718	11006.64
583.922	11428.52
584.125	11877.02
584.329	11102.89
584.532	11221.67
584.735	11715.23
584.939	11434.66
585.142	10986.16
585.346	10980.01
585.549	11598.5
585.753	11205.29
585.956	11223.72
586.159	11360.94
586.363	12028.57
586.566	11676.32
586.769	11264.68
586.973	10945.2
587.176	11694.75
587.379	11756.19
587.582	11676.32
587.786	11481.77
587.989	11770.53
588.192	12532.37
588.395	11442.85
588.599	11487.91
588.802	11692.71
589.005	12032.67
589.208	11623.08
589.411	11817.63
589.615	11860.64
589.818	12309.15
590.021	11819.68
590.224	11752.1
590.427	12040.86
590.63	12065.44
590.833	11420.33
591.036	11518.63
591.239	11842.21
591.442	11895.46
591.645	11915.94
591.848	11723.43
592.051	12171.93
592.254	12102.3
592.457	11915.94
592.66	11743.91
592.863	11834.02
593.066	12352.15
593.269	11989.66
593.472	11993.76
593.675	11991.71
593.878	12378.78
594.081	11842.21
594.284	11678.37
594.486	12157.6
594.689	12128.92
594.892	12061.34
595.095	11872.93
595.298	12409.5
595.5	12180.12
595.703	12180.12
595.906	12077.73
596.109	12407.45
596.311	12573.33
596.514	11862.69
596.717	12245.66
596.92	12622.48
597.122	12653.2
597.325	11774.63
597.528	11917.98
597.73	12640.92
597.933	12229.27
598.136	12155.55
598.338	12042.91
598.541	12743.31
598.743	12964.5
598.946	12245.66
599.148	12120.73
599.351	12817.04
599.554	12864.15
599.756	12483.22
599.959	12485.27
600.161	12925.58
600.363	13259.4
600.566	12538.52
600.768	12507.8
600.971	13087.37
601.173	12694.16
601.376	12362.39
601.578	12604.05
601.78	12911.25
601.983	13339.27
602.185	12317.34
602.388	12780.18
602.59	12827.28
602.792	12495.51
602.995	12776.08
603.197	12274.33
603.399	13056.65
603.601	12819.09
603.804	12483.22
604.006	12706.45
604.208	12753.55
604.41	12360.34
604.613	12804.75
604.815	12370.58
605.017	13453.96
605.219	12450.46
605.421	13060.75
605.623	12509.85
605.826	13341.32
606.028	13271.69
606.23	12599.96
606.432	12567.19
606.634	13292.17
606.836	13298.31
607.038	12735.12
607.24	12804.75
607.442	12939.92
607.644	12894.86
607.846	12886.67
608.048	12708.5
608.25	13277.83
608.452	12882.58
608.654	12616.34
608.856	12520.09
609.058	12937.87
609.26	13124.24
609.462	12966.54
609.664	12997.26
609.866	13374.09
610.067	13030.03
610.269	12901.01
610.471	12683.92
610.673	12993.17
610.875	13152.91
611.077	12642.96
611.278	13023.89
611.48	13030.03
611.682	13447.82
611.884	13107.85
612.085	12841.62
612.287	13007.5
612.489	13265.55
612.69	12841.62
612.892	13030.03
613.094	13423.24
613.295	12978.83
613.497	12683.92
613.699	12894.86
613.9	13662.85
614.102	13419.14
614.304	12628.63
614.505	12685.97
614.707	13267.59
614.908	13126.29
615.11	12892.82
615.311	12964.5
615.513	13406.86
615.714	13619.85
615.916	12786.32
616.117	13009.55
616.319	13179.53
616.52	13226.64
616.722	13044.37
616.923	12896.91
617.124	13415.05
617.326	13183.63
617.527	13040.27
617.729	13064.85
617.93	13369.99
618.131	13326.99
618.333	12907.15
618.534	13118.09
618.735	12771.99
618.937	13591.17
619.138	12907.15
619.339	12888.72
619.54	13423.24
619.742	13224.59
619.943	13281.93
620.144	12921.49
620.345	13802.11
620.546	13501.06
620.748	12974.74
620.949	13060.75
621.15	13281.93
621.351	13288.07
621.552	13044.37
621.753	13019.79
621.954	13066.89
622.155	13730.44
622.356	13021.84
622.558	13159.05
622.759	13492.87
622.96	13912.71
623.161	13003.41
623.362	12919.44
623.563	13439.62
623.764	13288.07
623.965	13042.32
624.166	13634.18
624.366	13339.27
624.567	13587.08
624.768	13240.97
624.969	13238.92
625.17	13386.38
625.371	13660.8
625.572	13259.4
625.773	13036.17
625.973	13845.12
626.174	13922.94
626.375	13410.95
626.576	13468.3
626.777	13707.91
626.977	14037.63
627.178	13271.69
627.379	13449.86
627.58	13490.82
627.78	13542.02
627.981	13306.51
628.182	13388.43
628.382	13470.34
628.583	13044.37
628.784	13234.83
628.984	13292.17
629.185	13916.8
629.386	13832.83
629.586	13388.43
629.787	13185.68
629.987	13843.07
630.188	13625.99
630.388	13421.19
630.589	13413
630.79	14238.33
630.99	13972.1
631.191	13525.64
631.391	13636.23
631.591	13732.48
631.792	14170.75
631.992	13603.46
632.193	13531.78
632.393	14135.93
632.594	13726.34
632.794	13492.87
632.994	13591.17
633.195	13550.21
633.395	13808.26
633.595	13406.86
633.796	13625.99
633.996	13572.74
634.196	14125.69
634.397	13460.1
634.597	13556.36
634.797	13568.65
634.997	14117.5
635.198	13857.41
635.398	13447.82
635.598	14000.77
635.798	14348.92
635.998	13822.59
636.199	13318.79
636.399	13759.11
636.599	13464.2
636.799	13507.21
636.999	13722.24
637.199	13914.75
637.399	13931.14
637.599	13679.24
637.799	13564.55
637.999	13894.27
638.199	14242.43
638.399	13402.76
638.599	13582.98
638.799	14314.11
638.999	14590.58
639.199	14054.01
639.399	13980.29
639.599	14412.41
639.799	13752.96
639.999	13843.07
640.199	13744.77
640.399	14224
640.599	13777.54
640.799	14109.31
640.998	13877.89
641.198	14281.34
641.398	14015.1
641.598	13896.32
641.798	13935.23
641.997	14987.89
642.197	14236.28
642.397	14119.55
642.597	13855.36
642.796	14269.05
642.996	14287.48
643.196	14037.63
643.395	13863.55
643.595	14158.46
643.795	13632.13
643.994	13898.37
644.194	13896.32
644.394	14254.72
644.593	14000.77
644.793	13908.61
644.992	13953.66
645.192	14193.28
645.392	13931.14
645.591	13986.43
645.791	13974.14
645.99	14457.46
646.19	14336.63
646.389	14199.42
646.589	14291.58
646.788	14559.86
646.987	14410.36
647.187	14570.1
647.386	14180.99
647.586	14289.53
647.785	14756.47
647.984	14346.87
648.184	14338.68
648.383	14230.14
648.582	14092.93
648.782	14019.2
648.981	14236.28
649.18	14000.77
649.38	14568.06
649.579	14252.67
649.778	14062.21
649.977	14713.46
650.177	14586.49
650.376	13752.96
650.575	14043.78
650.774	14779
650.973	14125.69
651.173	13951.62
651.372	14183.04
651.571	14391.93
651.77	14672.5
651.969	14084.73
652.168	14334.59
652.367	14013.06
652.566	14465.66
652.765	14191.23
652.964	14316.15
653.163	14930.55
653.362	14283.39
653.561	14215.8
653.76	14000.77
653.959	14178.94
654.158	14537.34
654.357	14533.24
654.556	14088.83
654.755	14871.15
654.954	14549.62
655.153	14142.08
655.352	14576.25
655.551	14969.46
655.749	14492.28
655.948	14326.39
656.147	14467.7
656.346	14703.22
656.545	14467.7
656.743	14389.88
656.942	14566.01
657.141	14793.33
657.34	14344.83
657.538	14295.68
657.737	14191.23
657.936	14762.61
658.135	14678.65
658.333	14709.36
658.532	14568.06
658.731	15041.14
658.929	15012.46
659.128	14547.58
659.326	14301.82
659.525	15116.91
659.724	14699.13
659.922	14207.61
660.121	14318.2
660.319	14910.07
660.518	14264.96
660.716	14479.99
660.915	14359.16
661.113	15202.93
661.312	14402.17
661.51	14389.88
661.709	14324.35
661.907	14461.56
662.105	15041.14
662.304	14301.82
662.502	14496.38
662.701	15157.87
662.899	14422.65
663.097	14914.16
663.296	14342.78
663.494	15071.86
663.692	15096.43
663.891	14303.87
664.089	14244.48
664.287	14748.28
664.485	15127.15
664.684	14209.66
664.882	14627.45
665.08	14852.72
665.278	14969.46
665.476	14484.09
665.675	15055.47
665.873	15116.91
666.071	15213.17
666.269	14484.09
666.467	14733.94
666.665	14860.91
666.863	14563.96
667.061	14492.28
667.259	14303.87
667.457	15088.24
667.655	14869.11
667.853	14195.32
668.051	14705.27
668.249	14275.2
668.447	14975.6
668.645	14588.53
668.843	14862.96
669.041	14729.84
669.239	14543.48
669.437	14701.17
669.635	14680.69
669.833	14647.93
670.031	14842.48
670.229	14598.77
670.426	14578.29
670.624	14590.58
670.822	14406.27
671.02	14574.2
671.218	14613.11
671.415	14770.8
671.613	14881.39
671.811	14516.86
672.009	14445.18
672.206	14987.89
672.404	14826.1
672.602	14758.52
672.799	14586.49
672.997	14840.43
673.195	14971.5
673.392	14539.38
673.59	14273.15
673.788	14748.28
673.985	14482.04
674.183	14635.64
674.38	14545.53
674.578	14910.07
674.775	14557.82
674.973	14246.52
675.17	14359.16
675.368	15127.15
675.565	14852.72
675.763	14310.01
675.96	14367.35
676.158	14948.98
676.355	14600.82
676.553	14541.43
676.75	14371.45
676.947	14692.98
677.145	14660.21
677.342	14635.64
677.539	14434.94
677.737	14492.28
677.934	15204.97
678.131	14559.86
678.329	14420.6
678.526	14914.16
678.723	15008.37
678.92	14412.41
679.118	14490.23
679.315	14142.08
679.512	14768.76
679.709	14535.29
679.906	14418.55
680.104	14994.03
680.301	14834.29
680.498	14209.66
680.695	14082.69
680.892	14574.2
681.089	14383.74
681.286	14426.75
681.483	14217.85
681.68	14574.2
681.877	14621.3
682.075	14133.89
682.272	14291.58
682.469	14334.59
682.665	14228.09
682.862	14080.64
683.059	13920.9
683.256	14307.96
683.453	14512.76
683.65	14213.76
683.847	14398.07
684.044	14353.02
684.241	14158.46
684.438	14418.55
684.635	13929.09
684.831	14754.42
685.028	14844.53
685.225	14023.3
685.422	14523
685.619	14322.3
685.815	14256.76
686.012	14246.52
686.209	14129.79
686.405	14072.45
686.602	14482.04
686.799	14060.16
686.996	13916.8
687.192	13912.71
687.389	14676.6
687.586	13988.48
687.782	13953.66
687.979	14498.42
688.175	14649.97
688.372	13976.19
688.568	13988.48
688.765	14195.32
688.962	14699.13
689.158	14201.47
689.355	13886.08
689.551	14320.25
689.748	13947.52
689.944	13992.58
690.14	13841.03
690.337	14652.02
690.533	13916.8
690.73	13929.09
690.926	14103.17
691.123	14281.34
691.319	14189.18
691.515	13660.8
691.712	14158.46
691.908	14158.46
692.104	14316.15
692.301	14154.37
692.497	13603.46
692.693	14363.26
692.889	14654.07
693.086	13896.32
693.282	13605.51
693.478	14252.67
693.674	14469.75
693.87	13736.58
694.067	13890.18
694.263	14129.79
694.459	13980.29
694.655	13933.18
694.851	13976.19
695.047	14396.03
695.243	14170.75
695.439	13830.79
695.635	13791.87
695.831	14103.17
696.027	13888.13
696.224	13767.3
696.42	14473.85
696.615	14367.35
696.811	14193.28
697.007	13482.63
697.203	13623.94
697.399	14109.31
697.595	14297.72
697.791	13664.9
697.987	13904.51
698.183	13841.03
698.379	13812.35
698.575	13763.2
698.77	13777.54
698.966	13941.38
699.162	14201.47
699.358	13855.36
699.554	13601.41
699.749	14103.17
699.945	13791.87
700.141	13771.4
700.337	13716.1
700.532	13582.98
700.728	13462.15
700.924	13707.91
701.119	13791.87
701.315	13757.06
701.511	13585.03
701.706	13767.3
701.902	13212.3
702.097	13679.24
702.293	13931.14
702.489	13783.68
702.684	13544.07
702.88	13748.87
703.075	13652.61
703.271	13785.73
703.466	13449.86
703.662	13750.92
703.857	13810.31
704.053	13531.78
704.248	13558.41
704.443	13976.19
704.639	13984.38
704.834	13380.23
705.03	13566.6
705.225	13628.04
705.42	13832.83
705.616	13738.63
705.811	13228.68
706.006	13746.82
706.202	13519.5
706.397	13529.73
706.592	13515.4
706.787	13785.73
706.983	13417.1
707.178	13765.25
707.373	13568.65
707.568	13904.51
707.763	14062.21
707.959	13404.81
708.154	13413
708.349	13765.25
708.544	13982.34
708.739	13494.92
708.934	13243.02
709.129	13861.51
709.324	13652.61
709.519	13200.01
709.714	13259.4
709.909	14045.82
710.104	13642.37
710.299	13302.41
710.494	13449.86
710.689	13632.13
710.884	13542.02
711.079	13458.06
711.274	13552.26
711.469	13728.39
711.664	13652.61
711.859	13179.53
712.054	13537.93
712.249	13615.75
712.443	13652.61
712.638	13132.43
712.833	13271.69
713.028	13437.58
713.223	13625.99
713.417	13591.17
713.612	13271.69
713.807	13552.26
714.002	14150.27
714.196	13224.59
714.391	13154.96
714.586	13740.68
714.78	13525.64
714.975	13169.29
715.17	13136.52
715.364	13310.6
715.559	13781.64
715.754	12835.47
715.948	12778.13
716.143	13881.99
716.337	13283.98
716.532	13507.21
716.726	12915.34
716.921	13730.44
717.115	13767.3
717.31	12909.2
717.504	13488.78
717.699	13441.67
717.893	13197.96
718.088	12931.73
718.282	12993.17
718.476	13038.22
718.671	13107.85
718.865	12960.4
719.059	13079.18
719.254	12999.31
719.448	13410.95
719.642	14037.63
719.837	12626.58
720.031	13398.66
720.225	13513.35
720.419	12939.92
720.614	12890.77
720.808	13195.92
721.002	13027.98
721.196	12905.1
721.39	12700.31
721.585	13384.33
721.779	13101.71
721.973	12894.86
722.167	12849.81
722.361	13173.39
722.555	13408.9
722.749	12864.15
722.943	12819.09
723.137	12671.64
723.331	13214.35
723.525	12909.2
723.719	12923.54
723.913	13167.24
724.107	13394.57
724.301	12542.61
724.495	12800.66
724.689	13456.01
724.883	13308.55
725.077	12722.84
725.271	13052.56
725.465	13230.73
725.659	13109.9
725.853	12841.62
726.046	12569.24
726.24	12714.64
726.434	12999.31
726.628	12771.99
726.822	12860.05
727.015	13363.85
727.209	13347.47
727.403	12690.07
727.596	12565.14
727.79	12991.12
727.984	13286.03
728.177	12604.05
728.371	13025.93
728.565	13157
728.758	12636.82
728.952	12571.29
729.146	12714.64
729.339	13220.49
729.533	13142.67
729.726	12622.48
729.92	12448.41
730.113	13265.55
730.307	13161.1
730.5	12651.16
730.694	12475.03
730.887	12855.95
731.081	13140.62
731.274	12688.02
731.468	12634.77
731.661	12858
731.854	12882.58
732.048	12720.79
732.241	12395.16
732.435	12626.58
732.628	12958.35
732.821	12577.43
733.014	12497.56
733.208	12466.84
733.401	13064.85
733.594	12585.62
733.788	12479.13
733.981	13247.12
734.174	13007.5
734.367	12530.33
734.56	12831.38
734.754	12737.17
734.947	13097.61
735.14	12581.53
735.333	12610.2
735.526	12970.64
735.719	12794.51
735.912	12401.3
736.105	12470.94
736.298	12765.84
736.491	12608.15
736.684	12604.05
736.877	12649.11
737.07	12898.96
737.263	13421.19
737.456	12495.51
737.649	12331.67
737.842	12679.83
738.035	12937.87
738.228	12720.79
738.421	12698.26
738.614	13251.21
738.807	12909.2
739	12335.77
739.192	12272.28
739.385	12640.92
739.578	13013.65
739.771	12833.43
739.964	12501.65
740.156	12757.65
740.349	12616.34
740.542	12688.02
740.735	12366.49
740.927	12389.02
741.12	12442.26
741.313	12241.56
741.505	12546.71
741.698	12669.59
741.891	12663.44
742.083	12622.48
742.276	12419.74
742.468	12696.21
742.661	12554.9
742.854	12440.22
743.046	12294.81
743.239	12923.54
743.431	12552.85
743.624	12407.45
743.816	12382.87
744.009	12479.13
744.201	12720.79
744.393	12530.33
744.586	12462.74
744.778	12694.16
744.971	12370.58
745.163	12370.58
745.355	12413.59
745.548	12610.2
745.74	12694.16
745.932	12276.38
746.125	12341.91
746.317	13120.14
746.509	12456.6
746.702	12341.91
746.894	12440.22
747.086	12628.63
747.278	12935.82
747.471	12333.72
747.663	12235.42
747.855	12530.33
748.047	13046.41
748.239	12284.57
748.431	12233.37
748.623	12937.87
748.815	12839.57
749.008	12182.17
749.2	12106.4
749.392	12591.77
749.584	12532.37
749.776	12442.26
749.968	12405.4
750.16	12911.25
750.352	12440.22
750.544	12155.55
750.736	12241.56
750.928	12704.4
751.12	12608.15
751.311	12104.35
751.503	12479.13
751.695	12673.68
751.887	12485.27
752.079	12004
752.271	12065.44
752.463	13427.34
752.654	12731.03
752.846	12366.49
753.038	12178.08
753.23	12264.09
753.421	12552.85
753.613	11913.89
753.805	12507.8
753.997	12604.05
754.188	12407.45
754.38	11752.1
754.572	12020.38
754.763	12139.16
754.955	12329.63
755.146	12317.34
755.338	12016.29
755.53	12278.43
755.721	12112.54
755.913	11831.97
756.104	11502.25
756.296	11870.88
756.487	12411.54
756.679	11891.36
756.87	11973.28
757.062	12219.03
757.253	12118.68
757.445	11877.02
757.636	12188.32
757.827	11944.61
758.019	12698.26
758.21	11621.03
758.401	11709.09
758.593	12515.99
758.784	12534.42
758.975	11633.32
759.167	11645.6
759.358	11932.32
759.549	12253.85
759.74	11563.68
759.932	11557.54
760.123	12026.53
760.314	12128.92
760.505	11600.55
760.696	11403.94
760.888	12286.62
761.079	11838.11
761.27	11645.6
761.461	11352.74
761.652	12286.62
761.843	11592.36
762.034	11811.49
762.225	11737.76
762.416	11776.67
762.607	11813.54
762.798	11704.99
762.989	11367.08
763.18	12630.68
763.371	11504.29
763.562	11346.6
763.753	11371.18
763.944	11891.36
764.135	11991.71
764.326	11608.74
764.517	11584.16
764.708	11596.45
764.899	11602.6
765.089	11412.14
765.28	10998.45
765.471	11588.26
765.662	11522.73
765.853	11279.02
766.043	10889.9
766.234	11651.75
766.425	11813.54
766.615	11248.3
766.806	10908.33
766.997	11754.15
767.187	11422.38
767.378	11266.73
767.569	10928.81
767.759	11659.94
767.95	11442.85
768.141	11424.42
768.331	11025.07
768.522	11496.1
768.712	11543.21
768.903	11260.59
769.093	11020.97
769.284	11688.61
769.474	11389.61
769.665	10904.24
769.855	10990.25
770.046	11494.05
770.236	11053.74
770.426	11238.06
770.617	11160.24
770.807	11274.92
770.998	11322.02
771.188	11334.31
771.378	10924.72
771.569	11291.31
771.759	11207.34
771.949	10719.92
772.139	10820.27
772.33	11170.47
772.52	11711.14
772.71	10842.8
772.9	10644.15
773.09	11471.53
773.281	11252.39
773.471	10807.98
773.661	10683.06
773.851	11449
774.041	10713.78
774.231	10713.78
774.421	11080.36
774.611	11399.85
774.802	11178.67
774.992	10730.16
775.182	10564.28
775.372	10818.22
775.562	11055.79
775.752	10744.5
775.942	10486.45
776.131	11356.84
776.321	11063.98
776.511	10646.19
776.701	10592.95
776.891	10988.21
777.081	10400.44
777.271	10506.93
777.461	10496.69
777.651	10891.95
777.84	10977.97
778.03	10486.45
778.22	10281.66
778.41	11090.6
778.599	10365.62
778.789	10248.89
778.979	10193.59
779.169	11055.79
779.358	10685.11
779.548	10750.64
779.738	10220.22
779.927	10674.87
780.117	10384.05
780.307	10302.14
780.496	10119.87
780.686	10681.01
780.875	10996.4
781.065	10412.73
781.254	10234.55
781.444	10359.48
781.633	10558.13
781.823	10162.87
782.012	10236.6
782.202	10486.45
782.391	10496.69
782.581	9974.46
782.77	10427.06
782.96	10732.21
783.149	10287.8
783.338	10246.84
783.528	9886.4
783.717	10746.55
783.906	10633.91
784.096	10400.44
784.285	10121.91
784.474	10310.33
784.663	10181.31
784.853	10154.68
785.042	10060.48
785.231	10154.68
785.42	10535.6
785.61	10048.19
785.799	9851.58
785.988	10181.31
786.177	10173.11
786.366	9966.27
786.555	10203.83
786.744	10400.44
786.933	9974.46
787.122	9792.19
787.312	9960.13
787.501	10033.85
787.69	10379.96
787.879	9958.08
788.068	9773.76
788.257	9820.86
788.445	9949.89
788.634	9933.5
788.823	9736.9
789.012	10834.61
789.201	10519.22
789.39	9671.36
789.579	9917.12
789.768	9996.99
789.957	10267.32
790.145	9538.24
790.334	9618.11
790.523	9874.11
790.712	9822.91
790.9	9708.23
791.089	9538.24
791.278	10250.94
791.467	10175.16
791.655	9679.55
791.844	10158.78
792.033	9736.9
792.221	9700.03
792.41	9550.53
792.599	9188.04
792.787	9960.13
792.976	10048.19
793.164	9585.35
793.353	9738.94
793.541	10007.23
793.73	9923.26
793.918	9560.77
794.107	9609.92
794.295	9724.61
794.484	9943.74
794.672	9642.69
794.861	9499.33
795.049	10017.47
795.238	9925.31
795.426	9435.85
795.614	9421.51
795.803	9833.15
795.991	9978.56
796.179	9290.44
796.368	9280.2
796.556	9992.89
796.744	9581.25
796.932	9157.32
797.121	9323.21
797.309	9691.84
797.497	9906.88
797.685	9554.63
797.874	9237.19
798.062	9609.92
798.25	9718.47
798.438	9411.27
798.626	9251.53
798.814	9693.89
799.002	10222.27
799.19	9474.76
799.378	9300.68
799.566	9904.83
799.755	9927.36
799.943	9517.76
800.131	9444.04
800.318	9732.8
800.506	9646.79
800.694	9247.43
800.882	9302.73
801.07	9913.02
801.258	9749.18
801.446	9327.3
801.634	9259.72
801.822	9657.03
802.01	9550.53
802.197	9536.2
802.385	9433.8
802.573	9687.75
802.761	9405.13
802.949	9493.19
803.136	9157.32
803.324	9890.49
803.512	9589.44
803.699	9401.03
803.887	9210.57
804.075	10001.08
804.262	9407.17
804.45	9405.13
804.638	9437.89
804.825	9532.1
805.013	9511.62
805.201	9401.03
805.388	9427.65
805.576	9736.9
805.763	10089.15
805.951	9439.94
806.138	9626.31
806.326	10078.91
806.513	9777.86
806.701	9499.33
806.888	9618.11
807.075	9861.82
807.263	10214.07
807.45	9437.89
807.638	9425.61
807.825	10287.8
808.012	9923.26
808.2	9370.31
808.387	9845.44
808.574	9902.78
808.761	10109.63
808.949	9419.46
809.136	9773.76
809.323	9554.63
809.51	9718.47
809.698	9843.39
809.885	9732.8
810.072	9958.08
810.259	9966.27
810.446	9366.21
810.633	9632.45
810.82	10265.27
811.008	10144.44
811.195	9605.83
811.382	9632.45
811.569	9951.93
811.756	9593.54
811.943	9657.03
812.13	9743.04
812.317	9642.69
812.504	9616.07
812.691	9652.93
812.878	9487.04
813.064	10001.08
813.251	10091.2
813.438	9560.77
813.625	9794.24
813.812	9839.3
813.999	9763.52
814.186	9693.89
814.372	9728.7
814.559	9708.23
814.746	10339
814.933	9525.96
815.12	9659.07
815.306	9659.07
815.493	9487.04
815.68	9495.24
815.866	9573.06
816.053	10187.45
816.24	10150.59
816.426	9767.62
816.613	9351.88
816.799	9892.54
816.986	10072.76
817.173	9390.79
817.359	9218.76
817.546	9654.98
817.732	9444.04
817.919	9470.66
818.105	9472.71
818.292	9624.26
818.478	9943.74
818.665	9681.6
818.851	9462.47
819.037	10312.38
819.224	9788.1
819.41	9327.3
819.597	9319.11
819.783	10068.67
819.969	9910.97
820.156	9534.15
820.342	9409.22
820.528	10410.68
820.714	9429.7
820.901	9757.38
821.087	9501.38
821.273	10128.06
821.459	9495.24
821.646	9288.39
821.832	9315.02
822.018	9448.13
822.204	9685.7
822.39	9532.1
822.576	9308.87
822.762	9781.95
822.948	9470.66
823.134	9259.72
823.32	9224.9
823.507	9413.32
823.693	9427.65
823.879	9790.14
824.065	9360.07
824.25	9386.69
824.436	9149.13
824.622	9351.88
824.808	9095.88
824.994	9378.5
825.18	9200.33
825.366	9073.35
825.552	9077.45
825.738	9216.71
825.923	9591.49
826.109	9460.42
826.295	9259.72
826.481	9163.47
826.667	9312.97
826.852	9208.52
827.038	9081.55
827.224	9833.15
827.409	9913.02
827.595	9007.82
827.781	9198.28
827.966	9544.39
828.152	9536.2
828.338	9134.79
828.523	8833.74
828.709	9097.93
828.894	9474.76
829.08	9202.38
829.266	9130.7
829.451	9194.19
829.637	9392.84
829.822	9128.65
830.008	9087.69
830.193	9534.15
830.378	9634.5
830.564	8999.63
830.749	9034.44
830.935	9247.43
831.12	9261.77
831.305	8823.5
831.491	9011.92
831.676	8819.41
831.861	9306.82
832.047	8872.65
832.232	8710.86
832.417	9441.99
832.602	9097.93
832.788	8723.15
832.973	8794.83
833.158	9093.83
833.343	9151.18
833.528	8780.5
833.714	8975.05
833.899	9179.85
834.084	9394.89
834.269	9075.4
834.454	8633.04
834.639	9112.27
834.824	9077.45
835.009	9020.11
835.194	9009.87
835.379	9296.58
835.564	9319.11
835.749	8987.34
835.934	8495.83
836.119	9104.07
836.304	8936.14
836.489	8549.07
836.674	8909.52
836.859	8489.68
837.044	9245.38
837.228	8618.71
837.413	8571.6
837.598	8975.05
837.783	8942.28
837.968	8612.56
838.152	8483.54
838.337	8385.24
838.522	9130.7
838.707	8952.52
838.891	8862.41
839.076	8712.91
839.261	8968.91
839.445	8508.12
839.63	8577.75
839.815	9147.08
839.999	8614.61
840.184	8323.8
840.368	8528.6
840.553	8915.66
840.737	8913.61
840.922	8252.12
841.106	8133.34
841.291	8354.52
841.475	8590.03
841.66	8065.75
841.844	8219.35
842.029	9376.45
842.213	8495.83
842.397	8278.74
842.582	8116.95
842.766	8930
842.951	8964.81
843.135	8348.37
843.319	8508.12
843.504	8565.46
843.688	8891.09
843.872	8100.57
844.056	8354.52
844.241	8829.65
844.425	8485.59
844.609	8446.68
844.793	7975.64
844.977	8843.98
845.161	8407.77
845.346	8202.97
845.53	8155.86
845.714	8329.94
845.898	8727.25
846.082	8045.27
846.266	8100.57
846.45	8340.18
846.634	8311.51
846.818	8053.47
847.002	8131.29
847.186	8508.12
847.37	8030.94
847.554	7881.44
847.738	7932.64
847.922	8473.3
848.106	8426.2
848.29	7934.68
848.473	7963.36
848.657	8487.64
848.841	8217.3
849.025	8063.71
849.209	7781.09
849.392	8485.59
849.576	8039.13
849.76	7682.78
849.944	8180.44
850.127	8547.03
850.311	8026.84
850.495	7744.22
850.678	7729.89
850.862	8229.59
851.046	8651.47
851.229	7901.92
851.413	7854.81
851.596	8057.56
851.78	8078.04
851.964	8153.82
852.147	7682.78
852.331	8526.55
852.514	8278.74
852.698	7795.42
852.881	7500.51
853.065	8288.98
853.248	8188.63
853.431	7817.95
853.615	7772.89
853.798	8475.35
853.982	8080.09
854.165	7729.89
854.348	7570.15
854.532	7617.25
854.715	7742.18
854.898	7650.02
855.081	7578.34
855.265	8032.99
855.448	8223.45
855.631	7598.82
855.814	7746.27
855.997	8256.22
856.181	7701.22
856.364	7629.54
856.547	7566.05
856.73	7807.71
856.913	7908.06
857.096	7396.07
857.279	7742.18
857.462	7639.78
857.645	8057.56
857.828	7721.7
858.011	7686.88
858.194	7582.43
858.377	8012.51
858.56	7254.76
858.743	7318.25
858.926	7338.73
859.109	8039.13
859.292	7342.82
859.475	7404.26
859.658	7889.63
859.841	7871.2
860.023	7230.18
860.206	7226.09
860.389	7733.98
860.572	8043.23
860.755	7273.19
860.937	7420.64
861.12	7453.41
861.303	7564
861.486	7336.68
861.668	7305.96
861.851	7688.93
862.034	7729.89
862.216	7238.37
862.399	6943.47
862.581	7437.03
862.764	7715.55
862.947	7221.99
863.129	7023.34
863.312	7068.39
863.494	7705.31
863.677	7172.84
863.859	6922.99
864.042	7525.09
864.224	7803.61
864.406	7172.84
864.589	6863.6
864.771	7357.16
864.954	7037.67
865.136	6994.67
865.318	6558.45
865.501	7262.95
865.683	6802.16
865.865	6927.08
866.048	6738.67
866.23	7154.41
866.412	7269.09
866.594	6845.16
866.777	6976.23
866.959	7406.31
867.141	7086.83
867.323	7123.69
867.505	6988.52
867.687	7291.62
867.869	7187.18
868.052	7006.95
868.234	6789.87
868.416	7164.65
868.598	7348.97
868.78	6793.97
868.962	6646.51
869.144	7250.66
869.326	7246.57
869.508	6683.38
869.69	6480.63
869.872	7033.58
870.054	7361.25
870.236	6638.32
870.417	6646.51
870.599	6996.71
870.781	7520.99
870.963	6787.82
871.145	6689.52
871.327	6927.08
871.508	7252.71
871.69	6720.24
871.872	6687.47
872.054	6961.9
872.235	7045.87
872.417	6757.1
872.599	6767.34
872.78	7473.89
872.962	6945.52
873.144	6490.87
873.325	6623.98
873.507	7414.5
873.689	6882.03
873.87	6732.53
874.052	7023.34
874.233	6918.89
874.415	7168.74
874.596	6673.14
874.778	6705.9
874.959	6820.59
875.141	7314.15
875.322	6710
875.503	6550.26
875.685	7009
875.866	6753.01
876.048	6673.14
876.229	6544.11
876.41	6918.89
876.592	6914.8
876.773	6607.6
876.954	6503.15
877.136	7019.24
877.317	6732.53
877.498	6587.12
877.679	6550.26
877.86	6927.08
878.042	7045.87
878.223	6671.09
878.404	7062.25
878.585	7277.29
878.766	7400.16
878.947	6914.8
879.128	6855.4
879.309	7244.52
879.49	7287.53
879.672	6808.3
879.853	6732.53
880.034	6804.21
880.215	7006.95
880.396	6869.74
880.576	6693.62
880.757	6902.51
880.938	7434.98
881.119	6746.86
881.3	6861.55
881.481	7095.02
881.662	8008.41
881.843	6826.73
882.023	6890.22
882.204	7185.13
882.385	7207.66
882.566	6877.93
882.747	7086.83
882.927	7291.62
883.108	7344.87
883.289	6789.87
883.469	7283.43
883.65	7123.69
883.831	7113.45
884.011	7090.92
884.192	6806.25
884.373	7500.51
884.553	7328.49
884.734	7377.64
884.914	7230.18
885.095	8198.87
885.275	7717.6
885.456	7441.12
885.636	6707.95
885.817	7381.73
885.997	7299.81
886.178	6867.69
886.358	7119.59
886.538	7310.05
886.719	8262.36
886.899	7060.2
887.08	7402.21
887.26	7578.34
887.44	7031.53
887.621	7070.44
887.801	7217.9
887.981	7926.49
888.161	7475.94
888.342	7258.85
888.522	7248.61
888.702	7713.5
888.882	7559.91
889.062	7168.74
889.242	6945.52
889.423	7789.28
889.603	7525.09
889.783	7283.43
889.963	6988.52
890.143	7656.16
890.323	7619.3
890.503	7213.8
890.683	7353.06
890.863	7656.16
891.043	7699.17
891.223	7482.08
891.403	7625.44
891.583	7717.6
891.763	7461.6
891.943	7414.5
892.122	7078.63
892.302	7623.39
892.482	7525.09
892.662	7281.38
892.842	7174.89
893.022	7447.27
893.201	7447.27
893.381	7406.31
893.561	7348.97
893.741	7611.11
893.92	7615.2
894.1	7234.28
894.28	7441.12
894.459	7531.23
894.639	7613.15
894.819	7316.2
894.998	7377.64
895.178	7512.8
895.357	7604.96
895.537	7088.87
895.716	7041.77
895.896	7359.21
896.075	7635.68
896.255	7086.83
896.434	7002.86
896.614	7604.96
896.793	7746.27
896.973	7183.08
897.152	7133.93
897.331	7467.75
897.511	7600.87
897.69	6849.26
897.87	7035.63
898.049	7412.45
898.228	7453.41
898.407	7256.81
898.587	7099.11
898.766	7062.25
898.945	7377.64
899.124	7303.91
899.304	7240.42
899.483	7287.53
899.662	7781.09
899.841	6777.58
900.02	6812.4
900.199	7424.74
900.378	7224.04
900.557	6740.72
900.737	6662.9
900.916	7230.18
901.095	7230.18
901.274	7101.16
901.453	6640.37
901.632	6791.92
901.811	6849.26
901.989	6728.43
902.168	6660.85
902.347	7197.42
902.526	6808.3
902.705	6597.36
902.884	6650.61
903.063	7267.05
903.242	6992.62
903.42	6365.94
903.599	6712.05
903.778	6982.38
903.957	7045.87
904.135	6540.02
904.314	6400.76
904.493	6683.38
904.672	6929.13
904.85	6402.8
905.029	6312.69
905.207	6558.45
905.386	7103.21
905.565	6077.18
905.743	6214.39
905.922	6478.58
906.1	6632.18
906.279	5896.96
906.457	6052.6
906.636	6116.09
906.814	6236.92
906.993	6003.45
907.171	5911.29
907.35	6279.93
907.528	6533.87
907.707	6025.98
907.885	5812.99
908.063	6546.16
908.242	5843.71
908.42	5718.78
908.598	5528.32
908.777	6050.55
908.955	5755.65
909.133	5835.52
909.311	5643.01
909.49	6114.04
909.668	6017.79
909.846	5864.19
910.024	5577.47
910.202	5925.63
910.38	6320.88
910.559	5640.96
910.737	5886.72
910.915	6175.48
911.093	6419.19
911.271	6021.88
911.449	6146.81
911.627	6451.95
911.805	6812.4
911.983	6173.43
912.161	6083.32
912.339	6595.31
912.517	6753.01
912.695	6263.54
912.872	6132.47
913.05	6089.46
913.228	6353.65
913.406	6150.9
913.584	5890.81
913.762	6415.09
913.939	6320.88
914.117	6161.14
914.295	5991.16
914.473	6601.46
914.65	6501.11
914.828	6073.08
915.006	6005.5
915.184	5991.16
915.361	6558.45
915.539	6181.62
915.716	6351.6
915.894	6437.62
916.072	6574.83
916.249	6341.36
916.427	6208.25
916.604	6165.24
916.782	6476.53
916.959	5817.08
917.137	5993.21
917.314	6165.24
917.492	6066.94
917.669	5966.59
917.847	5886.72
918.024	6144.76
918.201	5935.87
918.379	5946.11
918.556	5886.72
918.733	6499.06
918.911	6177.53
919.088	6173.43
919.265	5876.48
919.442	6251.25
919.62	6232.82
919.797	5884.67
919.974	5810.94
920.151	6273.78
920.328	6085.37
920.506	5847.8
920.683	5960.44
920.86	5667.58
921.037	5985.02
921.214	5876.48
921.391	5700.35
921.568	6296.31
921.745	5882.62
921.922	5849.85
922.099	5657.34
922.276	6355.7
922.453	6128.38
922.63	5788.41
922.807	6075.13
922.984	5896.96
923.161	5905.15
923.338	5858.04
923.514	5841.66
923.691	5997.31
923.868	6064.89
924.045	5667.58
924.222	5706.49
924.399	5864.19
924.575	6138.62
924.752	5722.88
924.929	5800.7
925.105	5917.44
925.282	5534.46
925.459	5700.35
925.635	5614.34
925.812	5845.76
925.989	5786.37
926.165	5755.65
926.342	5327.62
926.518	5593.86
926.695	5597.95
926.871	5481.22
927.048	5272.32
927.224	5796.6
927.401	5425.92
927.577	5284.61
927.754	5395.2
927.93	5798.65
928.107	5657.34
928.283	5301
928.459	5415.68
928.636	5407.49
928.812	5337.86
928.988	5120.78
929.165	5071.62
929.341	5434.11
929.517	5526.27
929.693	5550.85
929.87	4913.93
930.046	5499.65
930.222	5329.67
930.398	4963.08
930.574	5235.46
930.751	5272.32
930.927	5163.78
931.103	4920.07
931.279	5092.1
931.455	4872.97
931.631	5294.85
931.807	4698.89
931.983	4758.28
932.159	4756.24
932.335	5110.54
932.511	4834.06
932.687	4944.65
932.863	5001.99
933.039	5014.28
933.215	4610.83
933.391	4483.86
933.566	4866.83
933.742	4870.92
933.918	4643.6
934.094	4518.67
934.27	4850.44
934.445	4780.81
934.621	4678.41
934.797	4387.6
934.973	4952.84
935.148	4789
935.324	4195.09
935.5	4029.21
935.675	4592.4
935.851	4559.63
936.027	4086.55
936.202	4107.03
936.378	4305.68
936.553	4117.27
936.729	4334.36
936.904	3885.85
937.08	3732.25
937.255	3912.47
937.431	3568.41
937.606	3488.54
937.782	3814.17
937.957	3724.06
938.133	3650.33
938.308	3339.04
938.483	3754.78
938.659	3394.34
938.834	3433.25
939.009	3257.12
939.185	3513.12
939.36	3193.64
939.535	2841.39
939.71	3257.12
939.886	3549.98
940.061	3404.58
940.236	3255.08
940.411	3060.52
940.586	3484.45
940.761	3472.16
940.937	3060.52
941.112	2921.26
941.287	3089.19
941.462	3183.4
941.637	2630.45
941.812	2700.08
941.987	3007.27
942.162	2908.97
942.337	2980.65
942.512	2718.51
942.687	3126.05
942.862	3097.38
943.037	2515.76
943.212	2392.88
943.386	2841.39
943.561	2982.7
943.736	2870.06
943.911	2937.64
944.086	2833.19
944.26	2904.87
944.435	2726.7
944.61	2650.92
944.785	3121.96
944.959	3365.67
945.134	2640.69
945.309	2482.99
945.483	2575.15
945.658	3064.61
945.833	2431.79
946.007	2540.33
946.182	3144.49
946.357	2816.81
946.531	2620.21
946.706	2587.44
946.88	2532.14
947.055	2941.74
947.229	2554.67
947.404	2632.49
947.578	3234.6
947.752	2814.76
947.927	2528.05
948.101	2442.03
948.276	2872.11
948.45	2954.02
948.624	2822.95
948.799	2528.05
948.973	3142.44
949.147	2638.64
949.321	2757.42
949.496	2706.22
949.67	3148.58
949.844	2931.5
950.018	2814.76
950.193	2714.41
950.367	3416.87
950.541	2968.36
950.715	2831.15
950.889	2994.98
951.063	3031.85
951.237	3341.09
951.411	2536.24
951.585	2579.25
951.759	3181.35
951.933	3091.24
952.107	2814.76
952.281	2929.45
952.455	3371.81
952.629	3279.65
952.803	2775.85
952.977	2845.48
953.151	3380
953.325	3083.05
953.499	3007.27
953.672	2790.19
953.846	2808.62
954.02	2939.69
954.194	2745.13
954.368	2880.3
954.541	3265.32
954.715	3035.94
954.889	2902.83
955.062	2937.64
955.236	3160.87
955.41	2994.98
955.583	3037.99
955.757	2812.71
955.93	3035.94
956.104	2982.7
956.278	3097.38
956.451	2923.3
956.625	3332.9
956.798	3611.42
956.972	3298.08
957.145	2913.06
957.319	3177.25
957.492	3160.87
957.665	3136.29
957.839	2978.6
958.012	3439.39
958.185	3040.04
958.359	3109.67
958.532	3138.34
958.705	3285.8
958.879	3248.93
959.052	3064.61
959.225	2743.08
959.398	3201.83
959.572	3201.83
959.745	3042.09
959.918	3101.48
960.091	3158.82
960.264	3386.15
960.438	2853.67
960.611	2853.67
960.784	3343.14
960.957	3076.9
961.13	3308.32
961.303	3001.13
961.476	3347.23
961.649	3533.6
961.822	3013.42
961.995	3207.97
962.168	3416.87
962.341	3203.88
962.514	2947.88
962.686	2863.91
962.859	3277.6
963.032	3334.95
963.205	3078.95
963.378	2816.81
963.551	3404.58
963.723	3259.17
963.896	3031.85
964.069	3093.29
964.242	3144.49
964.414	3474.21
964.587	3042.09
964.76	3121.96
964.932	3230.5
965.105	3175.2
965.278	3021.61
965.45	3033.9
965.623	3265.32
965.795	3261.22
965.968	2933.54
966.14	2956.07
966.313	3136.29
966.485	3126.05
966.658	3007.27
966.83	2835.24
967.003	3638.05
967.175	3365.67
967.348	3029.8
967.52	2888.49
967.692	3377.95
967.865	3193.64
968.037	2951.98
968.209	3107.62
968.382	3164.97
968.554	3177.25
968.726	2925.35
968.898	2831.15
969.071	2994.98
969.243	3107.62
969.415	2880.3
969.587	3017.51
969.759	3658.53
969.932	3136.29
970.104	2784.04
970.276	2620.21
970.448	3072.81
970.62	3027.75
970.792	2962.22
970.964	3003.18
971.136	3633.95
971.308	3296.04
971.48	2825
971.652	2814.76
971.824	3380
971.996	3085.09
972.168	2841.39
972.339	2710.32
972.511	3265.32
972.683	3044.13
972.855	2949.93
973.027	2923.3
973.199	3013.42
973.37	3074.85
973.542	3023.66
973.714	2911.02
973.886	2966.31
974.057	3199.78
974.229	2618.16
974.401	2757.42
974.572	2861.87
974.744	2566.96
974.915	2564.91
975.087	2724.65
975.259	3367.71
975.43	2769.71
975.602	2546.48
975.773	2458.42
975.945	2743.08
976.116	3142.44
976.288	2581.29
976.459	2880.3
976.63	2779.95
976.802	2890.54
976.973	2595.63
977.145	2855.72
977.316	3289.89
977.487	2966.31
977.659	2689.84
977.83	2646.83
978.001	3205.92
978.172	2872.11
978.344	2609.97
978.515	2632.49
978.686	2585.39
978.857	3189.54
979.028	2560.81
979.2	2521.9
979.371	2976.55
979.542	2831.15
979.713	2771.76
979.884	2173.75
980.055	2708.27
980.226	2693.93
980.397	2489.14
980.568	2315.06
980.739	3107.62
980.91	2685.74
981.081	2663.21
981.252	2521.9
981.423	2970.41
981.594	3117.86
981.765	2446.13
981.936	2585.39
982.106	2747.18
982.277	2851.63
982.448	2415.41
982.619	2655.02
982.79	2536.24
982.96	2960.17
983.131	2612.01
983.302	2200.37
983.472	2421.55
983.643	2726.7
983.814	2456.37
983.984	2276.15
984.155	2528.05
984.326	2908.97
984.496	2476.85
984.667	2278.19
984.837	2472.75
985.008	2884.39
985.178	2593.58
985.349	2394.93
985.519	2626.35
985.69	2302.77
985.86	2331.44
986.031	2276.15
986.201	2482.99
986.371	2528.05
986.542	2196.28
986.712	2030.39
986.882	2519.85
987.053	2659.12
987.223	2073.4
987.393	2323.25
987.563	2329.39
987.734	2601.77
987.904	2607.92
988.074	2181.94
988.244	2538.29
988.414	2267.95
988.585	2097.97
988.755	2126.64
988.925	2356.02
989.095	2724.65
989.265	1977.14
989.435	2194.23
989.605	2552.62
989.775	2554.67
989.945	2421.55
990.115	1889.08
990.285	2302.77
990.455	2364.21
990.625	2222.9
990.795	2014.01
990.965	2671.4
991.134	2112.31
991.304	1876.79
991.474	2087.73
991.644	2450.22
991.814	2734.89
991.984	1932.09
992.153	2003.77
992.323	2192.18
992.493	2128.69
992.662	1733.43
992.832	2177.84
993.002	2274.1
993.171	2227
993.341	1686.33
993.511	1999.67
993.68	2038.58
993.85	2243.38
994.019	1778.49
994.189	1778.49
994.358	2181.94
994.528	1995.57
994.697	1614.65
994.867	1688.38
995.036	2296.63
995.206	2065.21
995.375	1850.17
995.544	1971
995.714	2016.05
995.883	1938.23
996.052	1870.65
996.222	1479.49
996.391	2550.57
996.56	2161.46
996.73	1594.17
996.899	1694.52
997.068	2319.15
997.237	2044.73
997.406	1604.41
997.576	1628.99
997.745	1962.81
997.914	2071.35
998.083	1446.72
998.252	1590.08
998.421	1807.16
998.59	1823.55
998.759	1520.45
998.928	1528.64
999.097	2171.7
999.266	2052.92
999.435	1848.12
999.604	1424.19
999.773	2323.25
999.942	1807.16
1000.111	1397.57
1000.28	1379.14
1000.448	1626.94
1000.617	1534.78
1000.786	1747.77
1000.955	1348.42
1001.124	1884.98
1001.292	2417.46
1001.461	1471.29
1001.63	1465.15
1001.798	2288.43
1001.967	2091.83
1002.136	1268.55
1002.304	1336.13
1002.473	1788.73
1002.642	1839.93
1002.81	1364.8
1002.979	1528.64
1003.147	1725.24
1003.316	2339.63
1003.484	1471.29
1003.653	1387.33
1003.821	2050.87
1003.99	1723.2
1004.158	1614.65
1004.327	1524.54
1004.495	1721.15
1004.663	1561.41
1004.832	1518.4
1005	1237.83
1005.168	1631.04
1005.337	1604.41
1005.505	1143.62
1005.673	1452.86
1005.842	1809.21
1006.01	1801.02
1006.178	1225.54
1006.346	1123.14
1006.514	1760.06
1006.683	1973.05
1006.851	1241.92
1007.019	1405.76
1007.187	1362.75
1007.355	1018.69
1007.523	1061.7
1007.691	1000.26
1007.859	1266.5
1008.027	1889.08
1008.195	1266.5
1008.363	1020.74
1008.531	1776.44
1008.699	1348.42
1008.867	1053.51
1009.035	1106.76
1009.203	1794.87
1009.37	1471.29
1009.538	1200.96
1009.706	1520.45
1009.874	1557.31
1010.042	1422.14
1010.209	973.64
1010.377	1008.45
1010.545	1684.28
1010.713	1282.88
1010.88	1039.17
1011.048	1139.52
1011.216	1278.79
1011.383	1790.78
1011.551	1092.42
1011.718	924.49
1011.886	1618.75
1012.054	1309.51
1012.221	967.49
1012.389	985.93
1012.556	1178.44
1012.724	1803.07
1012.891	1110.85
1013.058	867.14
1013.226	1397.57
1013.393	1528.64
1013.561	848.71
1013.728	815.94
1013.895	1502.01
1014.063	1352.51
1014.23	820.04
1014.397	877.38
1014.565	1350.46
1014.732	1143.62
1014.899	858.95
1015.066	777.03
1015.233	1350.46
1015.401	1436.48
1015.568	1016.65
1015.735	885.58
1015.902	1282.88
1016.069	1344.32
1016.236	709.45
1016.403	836.42
1016.57	1043.27
1016.737	1475.39
1016.904	797.51
1017.071	713.55
1017.238	955.21
1017.405	1293.12
1017.572	783.18
1017.739	1014.6
1017.906	1229.63
1018.073	1422.14
1018.24	760.65
1018.407	899.91
1018.573	1407.81
1018.74	1096.52
1018.907	832.33
1019.074	545.61
1019.241	1282.88
1019.407	1108.8
1019.574	693.07
1019.741	633.68
1019.907	1194.82
1020.074	1301.31
1020.241	488.27
1020.407	637.77
1020.574	1209.15
1020.74	1344.32
1020.907	672.59
1021.073	566.09
1021.24	1710.91
1021.406	1385.28
1021.573	602.96
1021.739	721.74
1021.906	1198.92
1022.072	924.49
1022.239	764.75
1022.405	742.22
1022.571	1082.18
1022.738	856.9
1022.904	678.73
1023.07	602.96
1023.237	996.17
1023.403	1235.78
1023.569	703.31
1023.735	594.76
1023.902	1098.56
1024.068	1127.24
1024.234	590.67
1024.4	578.38
1024.566	1141.57
1024.732	1203.01
1024.898	494.41
1025.065	480.08
1025.231	1184.58
1025.397	856.9
1025.563	684.87
1025.729	469.84
1025.895	580.43
1026.061	691.02
1026.227	435.02
1026.392	588.62
1026.558	1139.52
1026.724	1028.93
1026.89	523.09
1027.056	547.66
1027.222	1053.51
1027.388	772.94
1027.553	478.03
1027.719	439.12
1027.885	1262.4
1028.051	990.02
1028.216	353.1
1028.382	523.09
1028.548	1119.04
1028.713	791.37
1028.879	437.07
1029.045	680.78
1029.21	1090.37
1029.376	1129.28
1029.541	504.65
1029.707	652.11
1029.873	1080.13
1030.038	994.12
1030.204	496.46
1030.369	553.8
1030.534	992.07
1030.7	777.03
1030.865	492.37
1031.031	416.59
1031.196	914.25
1031.361	928.58
1031.527	400.21
1031.692	406.35
1031.857	496.46
1032.023	992.07
1032.188	457.55
1032.353	424.78
1032.518	1258.31
1032.684	875.34
1032.849	283.47
1033.014	475.98
1033.179	926.54
1033.344	867.14
1033.509	541.52
1033.674	498.51
1033.839	963.4
1034.004	959.3
1034.17	342.86
1034.335	299.86
1034.5	648.01
1034.664	613.2
1034.829	262.99
1034.994	398.16
1035.159	893.77
1035.324	836.42
1035.489	367.44
1035.654	365.39
1035.819	1047.37
1035.984	854.86
1036.148	381.78
1036.313	351.06
1036.478	1004.36
1036.643	678.73
1036.807	283.47
1036.972	170.83
1037.137	1014.6
1037.301	699.21
1037.466	252.75
1037.631	488.27
1037.795	967.49
1037.96	774.99
1038.124	531.28
1038.289	250.71
1038.454	815.94
1038.618	822.09
1038.783	392.02
1038.947	418.64
1039.111	801.61
1039.276	594.76
1039.44	359.25
1039.605	760.65
1039.769	559.95
1039.933	695.11
1040.098	428.88
1040.262	439.12
1040.426	947.01
1040.591	785.23
1040.755	230.23
1040.919	320.34
1041.083	801.61
1041.248	588.62
1041.412	217.94
1041.576	160.59
1041.74	570.19
1041.904	865.1
1042.068	158.55
1042.232	293.71
1042.397	906.06
1042.561	746.31
1042.725	56.15
1042.889	430.93
1043.053	856.9
1043.217	703.31
1043.381	377.68
1043.544	168.79
1043.708	920.39
1043.872	471.89
1044.036	-56.49
1044.2	64.34
1044.364	813.9
1044.528	914.25
1044.691	3443.49
1044.855	99.16
1045.019	938.82
1045.183	801.61
1045.346	240.47
1045.51	154.45
1045.674	758.6
1045.837	721.74
1046.001	338.77
1046.165	170.83
1046.328	1112.9
1046.492	777.03
1046.655	377.68
1046.819	262.99
1046.983	521.04
1047.146	668.49
1047.31	205.65
1047.473	-25.77
1047.636	551.76
1047.8	318.29
1047.963	250.71
1048.127	191.31
1048.29	369.49
