Data from Hydrogel_Ink_Intensity_Test_1_USB4F045381__12__00012.txt Node

Date: Mon Jul 31 10:37:56 EDT 2023
User: mmckonesweet
Spectrometer: USB4F04538
Trigger mode: 4
Integration Time (sec): 9.000000E-1
Scans to average: 1
Electric dark correction enabled: true
Nonlinearity correction enabled: false
Boxcar width: 0
XAxis mode: Wavelengths
Number of Pixels in Spectrum: 3648
>>>>>Begin Spectral Data<<<<<
345.52	-885.92
345.736	-885.92
345.952	-885.92
346.168	-1027.23
346.384	-990.36
346.6	-109.74
346.816	-234.66
347.032	-201.9
347.248	318.29
347.464	-173.22
347.68	-89.26
347.896	150.36
348.112	324.43
348.328	-154.79
348.544	-111.78
348.76	0.85
348.975	281.43
349.191	-234.66
349.407	-38.06
349.623	43.86
349.839	-29.87
350.055	-81.07
350.27	84.82
350.486	234.32
350.702	404.3
350.918	256.85
351.133	-95.4
351.349	215.89
351.565	439.12
351.781	-171.18
351.996	76.63
352.212	379.73
352.428	-107.69
352.644	-95.4
352.859	-119.98
353.075	289.62
353.291	78.68
353.506	-21.67
353.722	-130.22
353.938	7
354.153	539.47
354.369	228.18
354.584	-107.69
354.8	437.07
355.016	-285.86
355.231	-107.69
355.447	-13.48
355.662	121.68
355.878	1059.65
356.093	-271.53
356.309	146.26
356.524	-165.03
356.74	285.52
356.955	-93.35
357.171	50
357.386	203.6
357.602	-162.98
357.817	9.05
358.033	-87.21
358.248	459.6
358.464	232.27
358.679	-38.06
358.895	-216.23
359.11	23.38
359.325	359.25
359.541	267.09
359.756	86.87
359.972	-220.33
360.187	209.75
360.402	-52.39
360.618	13.14
360.833	1002.31
361.048	105.3
361.264	-74.92
361.479	86.87
361.694	144.21
361.909	197.46
362.125	-103.59
362.34	19.29
362.555	250.71
362.77	234.32
362.986	-122.02
363.201	-54.44
363.416	236.37
363.631	54.1
363.847	-136.36
364.062	-5.29
364.277	262.99
364.492	215.89
364.707	13.14
364.922	-218.28
365.138	334.67
365.353	453.45
365.568	-142.5
365.783	27.48
365.998	146.26
366.213	740.17
366.428	-117.93
366.643	164.69
366.858	326.48
367.073	389.97
367.288	50
367.503	-156.84
367.718	197.46
367.933	392.02
368.148	-165.03
368.363	86.87
368.578	117.59
368.793	521.04
369.008	-3.24
369.223	-33.96
369.438	314.19
369.653	549.71
369.868	-79.02
370.083	-93.35
370.298	168.79
370.513	467.79
370.728	205.65
370.943	-54.44
371.157	-60.59
371.372	713.55
371.587	-199.85
371.802	-23.72
372.017	140.12
372.232	486.22
372.446	107.35
372.661	-13.48
372.876	303.95
373.091	242.51
373.306	70.48
373.52	-29.87
373.735	-29.87
373.95	582.48
374.165	105.3
374.379	97.11
374.594	43.86
374.809	244.56
375.023	217.94
375.238	-52.39
375.453	379.73
375.667	-146.6
375.882	37.72
376.097	66.39
376.311	131.92
376.526	172.88
376.741	-27.82
376.955	349.01
377.17	764.75
377.384	707.4
377.599	183.12
377.813	-93.35
378.028	627.53
378.242	222.03
378.457	113.49
378.672	-46.25
378.886	236.37
379.101	156.5
379.315	-72.87
379.53	78.68
379.744	437.07
379.958	414.54
380.173	80.72
380.387	39.76
380.602	408.4
380.816	162.64
381.031	23.38
381.245	154.45
381.459	359.25
381.674	2558.77
381.888	19.29
382.103	275.28
382.317	78.68
382.531	705.35
382.746	205.65
382.96	121.68
383.174	64.34
383.388	600.91
383.603	297.81
383.817	-33.96
384.031	400.21
384.246	760.65
384.46	293.71
384.674	553.8
384.888	283.47
385.103	238.42
385.317	-60.59
385.531	240.47
385.745	551.76
385.959	555.85
386.174	162.64
386.388	117.59
386.602	219.99
386.816	103.25
387.03	156.5
387.244	283.47
387.458	363.34
387.672	521.04
387.887	-62.63
388.101	-46.25
388.315	609.1
388.529	471.89
388.743	213.84
388.957	60.24
389.171	652.11
389.385	109.4
389.599	250.71
389.813	400.21
390.027	324.43
390.241	992.07
390.455	213.84
390.669	230.23
390.883	281.43
391.097	758.6
391.311	320.34
391.525	86.87
391.738	590.67
391.952	506.7
392.166	324.43
392.38	115.54
392.594	672.59
392.808	631.63
393.022	279.38
393.236	326.48
393.449	541.52
393.663	475.98
393.877	88.92
394.091	262.99
394.305	359.25
394.518	289.62
394.732	183.12
394.946	297.81
395.16	703.31
395.373	457.55
395.587	133.97
395.801	164.69
396.015	701.26
396.228	572.24
396.442	246.61
396.656	101.2
396.869	713.55
397.083	934.73
397.297	306
397.51	344.91
397.724	797.51
397.938	449.36
398.151	234.32
398.365	199.51
398.578	664.4
398.792	826.18
399.005	408.4
399.219	349.01
399.433	574.28
399.646	600.91
399.86	506.7
400.073	416.59
400.287	688.97
400.5	482.13
400.714	510.8
400.927	473.93
401.141	660.3
401.354	1522.49
401.567	711.5
401.781	248.66
401.994	691.02
402.208	1174.34
402.421	400.21
402.635	475.98
402.848	525.13
403.061	772.94
403.275	553.8
403.488	357.2
403.701	987.97
403.915	883.53
404.128	508.75
404.341	402.26
404.555	774.99
404.768	531.28
404.981	570.19
405.195	359.25
405.408	1137.48
405.621	801.61
405.834	662.35
406.048	400.21
406.261	979.78
406.474	1086.28
406.687	346.96
406.9	633.68
407.114	658.25
407.327	705.35
407.54	410.45
407.753	416.59
407.966	447.31
408.179	861
408.392	453.45
408.605	396.11
408.819	824.14
409.032	838.47
409.245	418.64
409.458	799.56
409.671	867.14
409.884	1002.31
410.097	359.25
410.31	664.4
410.523	863.05
410.736	639.82
410.949	682.83
411.162	613.2
411.375	1160
411.588	1006.41
411.801	830.28
412.014	586.57
412.227	660.3
412.44	676.68
412.653	547.66
412.865	703.31
413.078	971.59
413.291	895.82
413.504	742.22
413.717	531.28
413.93	987.97
414.143	645.96
414.356	613.2
414.568	439.12
414.781	1024.84
414.994	844.62
415.207	746.31
415.42	695.11
415.632	1073.99
415.845	1327.94
416.058	592.72
416.271	586.57
416.483	918.34
416.696	1207.11
416.909	746.31
417.121	715.59
417.334	1082.18
417.547	1405.76
417.759	662.35
417.972	631.63
418.185	861
418.397	1186.63
418.61	803.66
418.823	838.47
419.035	1256.26
419.248	1010.5
419.46	957.25
419.673	813.9
419.885	1129.28
420.098	934.73
420.311	844.62
420.523	633.68
420.736	1182.53
420.948	1035.08
421.161	897.86
421.373	736.07
421.586	1047.37
421.798	930.63
422.01	709.45
422.223	1047.37
422.435	922.44
422.648	1323.84
422.86	871.24
423.073	811.85
423.285	1403.71
423.497	768.84
423.71	879.43
423.922	799.56
424.134	1258.31
424.347	1530.69
424.559	1180.48
424.771	1182.53
424.984	1026.89
425.196	1278.79
425.408	846.66
425.621	820.04
425.833	1465.15
426.045	1504.06
426.257	981.83
426.47	969.54
426.682	1368.9
426.894	1332.03
427.106	1125.19
427.318	1149.76
427.531	1106.76
427.743	1440.58
427.955	1039.17
428.167	1581.89
428.379	1487.68
428.591	1268.55
428.804	1274.69
429.016	1137.48
429.228	1209.15
429.44	1436.48
429.652	1297.22
429.864	990.02
430.076	1342.27
430.288	1340.22
430.5	1280.83
430.712	1379.14
430.924	1575.74
431.136	1362.75
431.348	1071.94
431.56	1209.15
431.772	1497.92
431.984	1344.32
432.196	1176.39
432.408	1256.26
432.62	1315.65
432.832	1631.04
433.044	1590.08
433.256	1555.26
433.468	1686.33
433.679	1313.6
433.891	1284.93
434.103	1624.89
434.315	1868.6
434.527	1651.52
434.739	1506.11
434.95	1536.83
435.162	1852.22
435.374	1413.95
435.586	1364.8
435.798	1518.4
436.009	1372.99
436.221	1659.71
436.433	1426.24
436.645	1641.28
436.856	1481.53
437.068	1997.62
437.28	1448.77
437.491	1884.98
437.703	1905.46
437.915	1891.13
438.126	1641.28
438.338	1862.46
438.55	1768.25
438.761	1878.84
438.973	1575.74
439.184	1628.99
439.396	1817.4
439.608	2018.1
439.819	1518.4
440.031	1710.91
440.242	2038.58
440.454	2001.72
440.665	1776.44
440.877	1792.83
441.088	2005.81
441.3	1780.54
441.511	1602.36
441.723	1704.76
441.934	1880.89
442.146	1882.94
442.357	1839.93
442.569	1979.19
442.78	1950.52
442.991	2374.45
443.203	2048.82
443.414	1829.69
443.626	2415.41
443.837	1995.57
444.048	1801.02
444.26	1612.6
444.471	2073.4
444.682	2274.1
444.894	1674.04
445.105	1780.54
445.316	2284.34
445.528	2272.05
445.739	2136.88
445.95	1946.42
446.161	2179.89
446.373	2491.18
446.584	1856.31
446.795	1956.66
447.006	2386.74
447.217	2560.81
447.429	2030.39
447.64	1897.27
447.851	2566.96
448.062	2290.48
448.273	1819.45
448.484	1981.24
448.695	2423.6
448.907	2280.24
449.118	2081.59
449.329	2253.62
449.54	2120.5
449.751	2034.49
449.962	2044.73
450.173	2040.63
450.384	2702.12
450.595	2741.04
450.806	2229.04
451.017	2235.19
451.228	2673.45
451.439	2665.26
451.65	2280.24
451.861	1971
452.072	2263.86
452.283	2513.71
452.494	2485.04
452.705	2239.28
452.915	2925.35
453.126	2726.7
453.337	2444.08
453.548	2509.62
453.759	2929.45
453.97	3226.4
454.181	2642.73
454.391	2427.7
454.602	2751.28
454.813	2861.87
455.024	2544.43
455.235	2462.51
455.445	2753.32
455.656	2837.29
455.867	2857.77
456.078	2558.77
456.288	2554.67
456.499	2927.4
456.71	2620.21
456.921	2818.86
457.131	2949.93
457.342	2880.3
457.553	2753.32
457.763	2747.18
457.974	3091.24
458.184	3199.78
458.395	2779.95
458.606	2820.91
458.816	3472.16
459.027	3554.08
459.237	3007.27
459.448	2806.57
459.659	3466.02
459.869	3488.54
460.08	2868.01
460.29	3332.9
460.501	3818.27
460.711	3291.94
460.922	2972.46
461.132	3054.37
461.343	3988.25
461.553	3240.74
461.764	3205.92
461.974	3226.4
462.184	3537.7
462.395	3664.67
462.605	3283.75
462.816	3203.88
463.026	3621.66
463.236	3869.47
463.447	3427.11
463.657	3486.5
463.867	3963.67
464.078	3836.7
464.288	3523.36
464.498	3681.05
464.709	3767.07
464.919	3756.83
465.129	3842.84
465.339	3703.58
465.55	4061.98
465.76	4211.48
465.97	3932.95
466.18	3773.21
466.391	4328.21
466.601	4064.02
466.811	4068.12
467.021	3951.39
467.231	4451.09
467.441	4561.68
467.651	4238.1
467.862	3828.51
468.072	4485.9
468.282	4797.2
468.492	4178.71
468.702	4487.95
468.912	4647.69
469.122	4999.95
469.332	4696.85
469.542	4481.81
469.752	5120.78
469.962	4983.56
470.172	4778.76
470.382	4762.38
470.592	5274.37
470.802	5446.4
471.012	5030.66
471.222	4936.46
471.432	5311.24
471.642	5434.11
471.852	5278.47
472.062	5051.14
472.272	5389.06
472.482	5145.35
472.691	5341.96
472.901	5387.01
473.111	5802.75
473.321	6363.89
473.531	5479.17
473.741	5825.28
473.95	6028.03
474.16	6015.74
474.37	6171.38
474.58	5905.15
474.79	6535.92
474.999	6456.05
475.209	5726.97
475.419	6075.13
475.628	6361.84
475.838	6832.88
476.048	6478.58
476.258	6298.36
476.467	6882.03
476.677	6783.73
476.886	6957.8
477.096	6857.45
477.306	6783.73
477.515	7088.87
477.725	6894.32
477.935	6976.23
478.144	7463.65
478.354	7172.84
478.563	7076.59
478.773	7033.58
478.982	7662.3
479.192	7865.05
479.401	7383.78
479.611	7195.37
479.82	7629.54
480.03	7895.77
480.239	7434.98
480.449	7527.14
480.658	8483.54
480.868	7863.01
481.077	8137.43
481.287	7965.4
481.496	8592.08
481.705	8706.77
481.915	8549.07
482.124	8377.05
482.333	8721.1
482.543	8981.2
482.752	8618.71
482.961	8780.5
483.171	9038.54
483.38	8960.72
483.589	8968.91
483.799	8770.26
484.008	9296.58
484.217	9427.65
484.426	9255.62
484.636	9106.12
484.845	9632.45
485.054	9110.22
485.263	9788.1
485.472	9659.07
485.682	10244.79
485.891	9732.8
486.1	9552.58
486.309	9800.38
486.518	10107.58
486.727	10564.28
486.936	9894.59
487.146	10214.07
487.355	10629.81
487.564	10199.74
487.773	10351.29
487.982	10506.93
488.191	10384.05
488.4	10801.84
488.609	10625.72
488.818	10635.96
489.027	11424.42
489.236	11348.65
489.445	11004.59
489.654	10732.21
489.863	11383.46
490.072	11377.32
490.281	11449
490.49	11219.63
490.698	11866.78
490.907	11870.88
491.116	11387.56
491.325	11258.54
491.534	11938.46
491.743	11784.87
491.952	11891.36
492.16	11590.31
492.369	12079.77
492.578	12143.26
492.787	11745.95
492.996	11915.94
493.204	12061.34
493.413	12628.63
493.622	11764.39
493.831	12053.15
494.039	12675.73
494.248	12282.52
494.457	12407.45
494.665	12532.37
494.874	12989.07
495.083	13392.52
495.291	12751.51
495.5	12667.54
495.709	13372.04
495.917	13169.29
496.126	12896.91
496.335	12814.99
496.543	13253.26
496.752	13435.53
496.96	13232.78
497.169	12980.88
497.377	13488.78
497.586	13816.45
497.794	13677.19
498.003	12976.78
498.211	13636.23
498.42	14170.75
498.628	13568.65
498.837	13652.61
499.045	14092.93
499.254	14148.22
499.462	13810.31
499.671	13859.46
499.879	14545.53
500.087	14518.9
500.296	13841.03
500.504	14224
500.713	14772.85
500.921	15334
501.129	14183.04
501.338	14160.51
501.546	14705.27
501.754	14654.07
501.962	14385.79
502.171	14355.07
502.379	15047.28
502.587	15288.94
502.795	15045.23
503.004	14664.31
503.212	15078
503.42	15454.83
503.628	15022.7
503.837	15008.37
504.045	15501.93
504.253	15880.8
504.461	15241.84
504.669	15118.96
504.877	15946.34
505.085	15960.67
505.294	15479.4
505.502	15667.81
505.71	15886.95
505.918	15645.29
506.126	15530.6
506.334	15444.59
506.542	15909.47
506.75	16030.3
506.958	15913.57
507.166	15936.1
507.374	16001.63
507.582	16716.37
507.79	15833.7
507.998	16038.5
508.206	16575.06
508.414	16405.08
508.622	16210.53
508.83	16163.42
509.037	17109.58
509.245	16396.89
509.453	16474.71
509.661	16114.27
509.869	16740.95
510.077	16568.92
510.285	16634.46
510.492	16323.16
510.7	17478.22
510.908	16790.1
511.116	16665.18
511.324	16763.48
511.531	16974.42
511.739	17060.43
511.947	16943.7
512.155	17252.94
512.362	17304.14
512.57	17054.29
512.778	16912.98
512.985	16745.05
513.193	17664.58
513.401	17900.1
513.608	17095.25
513.816	17553.99
514.024	17584.71
514.231	17793.61
514.439	17418.83
514.646	17459.79
514.854	17867.33
515.061	17982.02
515.269	17635.91
515.477	17558.09
515.684	17691.21
515.892	18137.66
516.099	17576.52
516.307	17515.08
516.514	18375.23
516.722	18416.19
516.929	17941.06
517.136	17916.48
517.344	18426.43
517.551	18573.88
517.759	18039.36
517.966	17979.97
518.173	18137.66
518.381	18594.36
518.588	18336.32
518.796	18426.43
519.003	18829.88
519.21	18580.03
519.418	18291.26
519.625	18909.75
519.832	18663.99
520.039	18903.6
520.247	18358.85
520.454	18864.69
520.661	19481.13
520.868	18942.52
521.076	19112.5
521.283	18838.07
521.49	19821.09
521.697	19565.1
521.904	19315.25
522.112	18973.24
522.319	19243.57
522.526	19388.97
522.733	19317.29
522.94	19212.85
523.147	19882.53
523.354	19763.75
523.561	19380.78
523.768	19382.83
523.975	19991.08
524.183	19720.74
524.39	19493.42
524.597	19937.83
524.804	19853.86
525.011	19956.26
525.218	19847.72
525.425	19907.11
525.632	20402.72
525.838	20335.14
526.045	20097.57
526.252	20226.59
526.459	21559.82
526.666	21099.03
526.873	20296.22
527.08	20367.9
527.287	20965.91
527.494	20599.32
527.701	20560.41
527.907	20294.18
528.114	20687.39
528.321	20849.18
528.528	20691.48
528.735	20759.06
528.941	20652.57
529.148	20724.25
529.355	20806.17
529.562	20572.7
529.768	21672.46
529.975	20990.49
530.182	21144.08
530.388	20883.99
530.595	21635.6
530.802	20957.72
531.008	21447.18
531.215	21416.46
531.422	22417.92
531.628	22211.07
531.835	21058.07
532.042	21484.05
532.248	21625.36
532.455	22008.33
532.661	21608.97
532.868	21451.28
533.074	22217.22
533.281	22299.14
533.487	21899.78
533.694	21625.36
533.9	22268.42
534.107	22112.77
534.313	22161.92
534.52	21914.12
534.726	22477.31
534.933	22923.77
535.139	21983.75
535.345	22088.2
535.552	22647.29
535.758	22897.14
535.965	22573.56
536.171	22405.63
536.377	23011.83
536.584	22845.94
536.79	22534.65
536.996	22895.1
537.203	22866.42
537.409	22778.36
537.615	22714.87
537.821	22942.2
538.028	23540.21
538.234	23247.35
538.44	23048.69
538.646	23163.38
538.853	23542.25
539.059	23519.73
539.265	23560.69
539.471	23091.7
539.677	23710.19
539.883	23523.82
540.09	23306.74
540.296	23718.38
540.502	23595.5
540.708	23544.3
540.914	23980.52
541.12	24076.77
541.326	24482.27
541.532	24209.89
541.738	23919.08
541.944	23790.06
542.15	24379.87
542.356	24142.31
542.562	23960.04
542.768	24220.13
542.974	24848.86
543.18	25027.03
543.386	24328.67
543.592	24556
543.798	25119.19
544.004	24775.13
544.21	24711.64
544.415	24447.46
544.621	24906.2
544.827	24936.92
545.033	24916.44
545.239	24893.91
545.445	25006.55
545.651	24902.11
545.856	24789.47
546.062	25084.37
546.268	24822.23
546.474	25121.24
546.679	25086.42
546.885	25108.95
547.091	25012.7
547.297	25369.04
547.502	25285.08
547.708	24910.3
547.914	25414.1
548.119	25500.11
548.325	25049.56
548.531	25178.58
548.736	25774.54
548.942	25182.68
549.147	25229.78
549.353	25315.8
549.559	26046.92
549.764	25612.75
549.97	25012.7
550.175	25614.8
550.381	26094.02
550.586	25500.11
550.792	26053.06
550.997	25844.17
551.203	26237.38
551.408	26272.2
551.614	25831.88
551.819	25997.77
552.025	26888.64
552.23	26743.23
552.435	26216.9
552.641	26702.27
552.846	26710.46
553.052	27093.43
553.257	26401.22
553.462	27011.51
553.668	26438.08
553.873	27042.23
554.078	26438.08
554.283	26577.34
554.489	27064.76
554.694	26962.36
554.899	26855.87
555.105	27263.41
555.31	27347.38
555.515	27611.57
555.72	27234.74
555.925	26898.87
556.131	27396.53
556.336	27175.35
556.541	27156.92
556.746	27212.21
556.951	27726.25
557.156	27593.14
557.361	27486.64
557.567	28004.78
557.772	27988.39
557.977	27853.23
558.182	27236.79
558.387	27451.83
558.592	27392.44
558.797	28234.15
559.002	27677.1
559.207	27408.82
559.412	27783.6
559.617	28066.22
559.822	27920.81
560.027	27806.13
560.232	27873.71
560.437	28041.64
560.642	27939.24
560.847	27871.66
561.051	28385.7
561.256	28189.1
561.461	27978.15
561.666	28076.46
561.871	28404.13
562.076	28479.91
562.281	28309.93
562.485	28031.4
562.69	28524.96
562.895	28555.68
563.1	28518.82
563.305	27886
563.509	28967.32
563.714	28952.99
563.919	28139.94
564.123	28461.48
564.328	28600.74
564.533	29047.19
564.737	28041.64
564.942	28604.83
565.147	29344.15
565.351	29305.24
565.556	28531.11
565.761	28567.97
565.965	28744.09
566.17	28869.02
566.374	28494.24
566.579	28901.79
566.784	28797.34
566.988	29096.35
567.193	28625.31
567.397	29264.28
567.602	29008.28
567.806	29098.39
568.011	28995.99
568.215	29514.13
568.42	29200.79
568.624	29233.56
568.828	28985.76
569.033	29163.93
569.237	29823.37
569.442	29944.2
569.646	28748.19
569.85	29407.64
570.055	29759.89
570.259	29514.13
570.463	29581.71
570.668	29241.75
570.872	29499.8
571.076	29393.3
571.281	29931.92
571.485	30093.71
571.689	30284.17
571.893	29981.07
572.098	30075.27
572.302	29858.19
572.506	30132.62
572.71	29917.58
572.914	30103.95
573.119	29811.09
573.323	30716.29
573.527	30388.61
573.731	30003.6
573.935	30226.82
574.139	30544.26
574.343	30183.82
574.547	30407.05
574.751	30421.38
574.955	31007.1
575.159	30794.11
575.364	30417.29
575.568	30202.25
575.772	30552.45
575.976	30658.95
576.18	30222.73
576.383	30519.68
576.587	31330.68
576.791	31138.17
576.995	30161.29
577.199	30480.77
577.403	31054.2
577.607	31545.72
577.811	31062.4
578.015	30738.82
578.219	31226.23
578.422	31357.3
578.626	31093.11
578.83	31275.38
579.034	31365.49
579.238	31525.24
579.442	31332.73
579.645	31531.38
579.849	31625.59
580.053	31768.94
580.257	31117.69
580.46	31369.59
580.664	31969.65
580.868	31357.3
581.071	31355.25
581.275	31592.82
581.479	31410.55
581.682	31840.62
581.886	31078.78
582.09	31949.17
582.293	31926.64
582.497	32248.17
582.7	31943.02
582.904	31922.54
583.107	32137.58
583.311	31875.44
583.515	32022.89
583.718	32012.65
583.922	32420.2
584.125	33012.06
584.329	31633.78
584.532	32133.48
584.735	32903.52
584.939	32209.26
585.142	32153.96
585.346	31588.72
585.549	32686.43
585.753	32706.91
585.956	32467.3
586.159	32964.96
586.363	33048.93
586.566	32946.53
586.769	32407.91
586.973	32485.73
587.176	32676.19
587.379	33067.36
587.582	33073.5
587.786	32887.14
587.989	33298.78
588.192	33954.13
588.395	32870.75
588.599	33388.89
588.802	33343.83
589.005	33145.18
589.208	33341.78
589.411	33216.86
589.615	33409.37
589.818	33876.3
590.021	33655.12
590.224	33421.66
590.427	33552.73
590.63	33911.12
590.833	33431.9
591.036	33507.67
591.239	33716.56
591.442	33411.42
591.645	33683.8
591.848	33696.08
592.051	34148.68
592.254	34087.25
592.457	33818.96
592.66	33892.69
592.863	34380.1
593.066	34218.32
593.269	34285.9
593.472	34482.5
593.675	34433.35
593.878	34228.56
594.081	34339.15
594.284	34109.77
594.486	34419.02
594.689	34789.7
594.892	34589
595.095	34386.25
595.298	34748.74
595.5	34537.8
595.703	34779.46
595.906	34560.33
596.109	35117.37
596.311	35133.76
596.514	34111.82
596.717	34953.54
596.92	34996.54
597.122	35293.5
597.325	34378.06
597.528	34758.98
597.73	35629.37
597.933	34767.17
598.136	34838.85
598.338	34986.3
598.541	35447.1
598.743	35748.15
598.946	35434.81
599.148	35068.22
599.351	35588.41
599.554	35725.62
599.756	35166.52
599.959	35465.53
600.161	35739.96
600.363	36129.07
600.566	35496.25
600.768	35332.41
600.971	36346.15
601.173	35252.54
601.376	35277.12
601.578	35557.69
601.78	35735.86
601.983	36409.64
602.185	35242.3
602.388	35995.95
602.59	35981.62
602.792	36004.14
602.995	35934.51
603.197	35481.91
603.399	36495.66
603.601	35684.66
603.804	35780.92
604.006	36016.43
604.208	35891.51
604.41	35866.93
604.613	35936.56
604.815	35875.12
605.017	36514.09
605.219	35963.18
605.421	36323.63
605.623	36335.91
605.826	36852
606.028	36579.62
606.23	36337.96
606.432	35981.62
606.634	36964.64
606.836	36776.23
607.038	36041.01
607.24	36280.62
607.442	36780.32
607.644	36055.34
607.846	36313.39
608.048	36362.54
608.25	36919.59
608.452	36620.58
608.654	36137.26
608.856	36215.08
609.058	36569.38
609.26	36964.64
609.462	36757.8
609.664	37034.27
609.866	36964.64
610.067	36505.9
610.269	36892.96
610.471	36565.29
610.673	36538.66
610.875	36714.79
611.077	36192.56
611.278	36329.77
611.48	36927.78
611.682	36976.93
611.884	37050.66
612.085	36411.69
612.287	36886.82
612.489	37013.79
612.69	36548.9
612.892	36751.65
613.094	37329.18
613.295	36745.51
613.497	36765.99
613.699	36792.61
613.9	37316.89
614.102	37454.11
614.304	36964.64
614.505	36370.73
614.707	37165.34
614.908	37069.09
615.11	36190.51
615.311	36954.4
615.513	36813.09
615.714	37515.54
615.916	36616.49
616.117	36849.96
616.319	37005.6
616.52	37267.74
616.722	36727.08
616.923	37009.7
617.124	37263.64
617.326	37181.73
617.527	36897.06
617.729	36958.5
617.93	37599.51
618.131	37511.45
618.333	36839.72
618.534	36739.36
618.735	37036.32
618.937	37339.42
619.138	36659.49
619.339	36983.07
619.54	37304.6
619.742	37157.15
619.943	37329.18
620.144	36743.46
620.345	37488.92
620.546	37701.91
620.748	37318.94
620.949	37247.26
621.15	37464.35
621.351	37308.7
621.552	36942.11
621.753	36706.6
621.954	37202.21
622.155	37507.35
622.356	36985.12
622.558	37464.35
622.759	37679.38
622.96	37441.82
623.161	36970.79
623.362	37318.94
623.563	37501.21
623.764	37484.83
623.965	37400.86
624.166	37867.8
624.366	37286.17
624.567	37585.18
624.768	37484.83
624.969	37660.95
625.17	37593.37
625.371	37556.5
625.572	37423.39
625.773	37060.9
625.973	37681.43
626.174	37904.66
626.375	37564.7
626.576	37992.72
626.777	38023.44
626.977	38205.71
627.178	37275.93
627.379	37652.76
627.58	37466.39
627.78	38023.44
627.981	37609.75
628.182	37959.95
628.382	38011.15
628.583	37277.98
628.784	37402.91
628.984	37404.95
629.185	38021.39
629.386	37753.11
629.586	38183.18
629.787	38000.91
629.987	38170.89
630.188	38498.57
630.388	37914.9
630.589	37515.54
630.79	38863.11
630.99	38068.5
631.191	37869.84
631.391	38258.96
631.591	37798.16
631.792	38306.06
631.992	38027.54
632.193	38471.95
632.393	38277.39
632.594	38093.07
632.794	37976.34
632.994	38363.4
633.195	38529.29
633.395	38191.37
633.595	37986.58
633.796	38248.72
633.996	38218
634.196	38844.68
634.397	38942.98
634.597	38295.82
634.797	38222.09
634.997	38502.67
635.198	38254.86
635.398	38195.47
635.598	38447.37
635.798	38820.1
635.998	38228.24
636.199	38265.1
636.399	38402.32
636.599	38050.06
636.799	38146.32
636.999	38467.85
637.199	38957.31
637.399	38971.65
637.599	38177.04
637.799	38408.46
637.999	38852.87
638.199	39182.59
638.399	38064.4
638.599	38625.54
638.799	39293.18
638.999	39411.96
639.199	39137.54
639.399	39198.98
639.599	38813.96
639.799	38443.27
639.999	38809.86
640.199	38668.55
640.399	38902.02
640.599	38025.49
640.799	38889.73
640.998	39198.98
641.198	39024.9
641.398	38623.5
641.598	39201.02
641.798	38897.92
641.997	39817.46
642.197	38906.12
642.397	39268.61
642.597	39084.29
642.796	39430.4
642.996	39799.03
643.196	38891.78
643.395	38879.49
643.595	39477.5
643.795	38555.91
643.994	39143.68
644.194	38994.18
644.394	39583.99
644.593	39514.36
644.793	39344.38
644.992	39676.15
645.192	39786.74
645.392	39043.33
645.591	39772.41
645.791	39667.96
645.99	39864.57
646.19	39645.43
646.389	39172.35
646.589	39192.83
646.788	39649.53
646.987	39485.69
647.187	39727.35
647.386	39749.88
647.586	39647.48
647.785	40110.32
647.984	39495.93
648.184	39540.99
648.383	39440.64
648.582	39780.6
648.782	39508.22
648.981	39813.37
649.18	39491.83
649.38	40327.41
649.579	39944.44
649.778	40057.07
649.977	40169.71
650.177	39688.44
650.376	39180.54
650.575	39131.39
650.774	40593.64
650.973	40192.24
651.173	39352.57
651.372	39545.08
651.571	39788.79
651.77	40423.66
651.969	39694.58
652.168	40026.35
652.367	39960.82
652.566	39645.43
652.765	39821.56
652.964	40302.83
653.163	40298.73
653.362	40300.78
653.561	39839.99
653.76	40016.11
653.959	40255.73
654.158	40542.44
654.357	40087.79
654.556	40292.59
654.755	40311.02
654.954	40777.96
655.153	39913.72
655.352	40218.86
655.551	40165.62
655.749	40255.73
655.948	40083.7
656.147	40708.33
656.346	40534.25
656.545	40308.97
656.743	39934.2
656.942	40339.69
657.141	40552.68
657.34	40100.08
657.538	40354.03
657.737	40249.58
657.936	40800.49
658.135	40579.31
658.333	40237.3
658.532	40294.64
658.731	40732.9
658.929	40425.71
659.128	40435.95
659.326	40397.04
659.525	41326.81
659.724	40601.83
659.922	40100.08
660.121	40483.05
660.319	40495.34
660.518	40206.58
660.716	40239.34
660.915	40222.96
661.113	41072.87
661.312	40313.07
661.51	40347.89
661.709	40274.16
661.907	40777.96
662.105	40941.8
662.304	40376.56
662.502	40438
662.701	40997.09
662.899	40419.56
663.097	41033.96
663.296	40364.27
663.494	41072.87
663.692	41048.29
663.891	40653.03
664.089	40253.68
664.287	40640.75
664.485	41003.24
664.684	40460.52
664.882	40394.99
665.08	40497.39
665.278	40880.36
665.476	40360.17
665.675	40202.48
665.873	41150.69
666.071	41021.67
666.269	40454.38
666.467	40360.17
666.665	40507.63
666.863	40351.98
667.061	41007.33
667.259	40360.17
667.457	40972.52
667.655	40972.52
667.853	39930.1
668.051	40452.33
668.249	40462.57
668.447	40657.13
668.645	40294.64
668.843	41140.45
669.041	40712.42
669.239	40382.7
669.437	40327.41
669.635	40671.46
669.833	40425.71
670.031	40511.72
670.229	40616.17
670.426	40491.24
670.624	40655.08
670.822	40255.73
671.02	40435.95
671.218	40790.25
671.415	40171.76
671.613	40462.57
671.811	40433.9
672.009	40349.93
672.206	40980.71
672.404	40718.57
672.602	40315.12
672.799	40339.69
672.997	40958.18
673.195	40921.32
673.392	40524.01
673.59	40143.09
673.788	40204.53
673.985	39948.53
674.183	40085.75
674.38	40040.69
674.578	40777.96
674.775	40360.17
674.973	39710.97
675.17	40120.56
675.368	40663.27
675.565	40517.87
675.763	40100.08
675.96	39704.82
676.158	40507.63
676.355	40229.1
676.553	40204.53
676.75	39919.86
676.947	40683.75
677.145	39991.54
677.342	40192.24
677.539	39768.31
677.737	40163.57
677.934	40323.31
678.131	39770.36
678.329	39987.44
678.526	40259.82
678.723	40263.92
678.92	40005.87
679.118	39653.62
679.315	39596.28
679.512	40655.08
679.709	40112.37
679.906	40044.79
680.104	40163.57
680.301	40282.35
680.498	39424.25
680.695	39399.68
680.892	39780.6
681.089	39416.06
681.286	40132.85
681.483	39422.2
681.68	39876.85
681.877	40075.51
682.075	39422.2
682.272	39692.54
682.469	39749.88
682.665	39772.41
682.862	39475.45
683.059	39213.31
683.256	39581.95
683.453	39772.41
683.65	39543.03
683.847	39899.38
684.044	39620.86
684.241	39037.19
684.438	39354.62
684.635	38985.99
684.831	40179.95
685.028	40110.32
685.225	39241.98
685.422	39155.97
685.619	39104.77
685.815	39295.23
686.012	39115.01
686.209	38756.61
686.405	39084.29
686.602	39715.06
686.799	38740.23
686.996	39192.83
687.192	38959.36
687.389	39909.62
687.586	38914.31
687.782	39151.87
687.979	39749.88
688.175	39344.38
688.372	39002.37
688.568	39106.82
688.765	39024.9
688.962	39479.55
689.158	38715.65
689.355	38793.48
689.551	38940.93
689.748	38605.06
689.944	38859.01
690.14	38500.62
690.337	39436.54
690.533	39043.33
690.73	38439.18
690.926	38777.09
691.123	38938.88
691.319	38838.53
691.515	38684.94
691.712	38512.91
691.908	38861.06
692.104	38897.92
692.301	38770.95
692.497	38441.23
692.693	38621.45
692.889	38582.54
693.086	38863.11
693.282	38430.99
693.478	38590.73
693.674	39024.9
693.87	38310.16
694.067	38164.75
694.263	38881.54
694.459	38277.39
694.655	38824.2
694.851	38684.94
695.047	38756.61
695.243	38392.08
695.439	38310.16
695.635	38174.99
695.831	38625.54
696.027	38117.65
696.224	37998.87
696.42	38443.27
696.615	38981.89
696.811	38682.89
697.007	37974.29
697.203	37843.22
697.399	38093.07
697.595	38582.54
697.791	37867.8
697.987	38099.22
698.183	38013.2
698.379	37722.39
698.575	37939.47
698.77	37869.84
698.966	38056.21
699.162	38021.39
699.358	37904.66
699.554	38056.21
699.749	38127.89
699.945	38408.46
700.141	37929.23
700.337	37896.47
700.532	37626.14
700.728	37624.09
700.924	37808.4
701.119	37464.35
701.315	37765.4
701.511	37452.06
701.706	37699.86
701.902	37472.54
702.097	37646.61
702.293	38228.24
702.489	37626.14
702.684	37402.91
702.88	37421.34
703.075	37431.58
703.271	37062.94
703.466	37341.47
703.662	37697.81
703.857	37808.4
704.053	37234.97
704.248	37644.57
704.443	37796.12
704.639	37462.3
704.834	37693.72
705.03	37226.78
705.225	37902.61
705.42	37642.52
705.616	37105.95
705.811	37122.33
706.006	37593.37
706.202	37538.07
706.397	37026.08
706.592	37329.18
706.787	37208.35
706.983	37421.34
707.178	37798.16
707.373	37175.58
707.568	37419.29
707.763	37615.9
707.959	37124.38
708.154	37341.47
708.349	36991.26
708.544	37734.68
708.739	37462.3
708.934	36651.3
709.129	37101.86
709.324	37333.28
709.519	36868.39
709.714	37017.89
709.909	37402.91
710.104	37331.23
710.299	36987.17
710.494	36983.07
710.689	37290.27
710.884	37259.55
711.079	36757.8
711.274	36911.39
711.469	37003.55
711.664	36747.56
711.859	37318.94
712.054	37218.59
712.249	37173.53
712.443	37474.59
712.638	36761.89
712.833	36739.36
713.028	36952.35
713.223	36380.97
713.417	36749.6
713.612	36606.25
713.807	37173.53
714.002	37331.23
714.196	36829.48
714.391	36579.62
714.586	37009.7
714.78	36925.73
714.975	36178.22
715.17	36518.18
715.364	36419.88
715.559	36763.94
715.754	35707.19
715.948	35938.61
716.143	36694.31
716.337	36186.41
716.532	36653.35
716.726	36299.05
716.921	36860.19
717.115	36854.05
717.31	35787.06
717.504	36778.28
717.699	36589.86
717.893	36430.12
718.088	35895.6
718.282	35922.23
718.476	35932.47
718.671	36127.02
718.865	35864.88
719.059	35690.8
719.254	35981.62
719.448	36145.45
719.642	37298.46
719.837	35436.86
720.031	36487.46
720.225	36180.27
720.419	35696.95
720.614	35631.41
720.808	35780.92
721.002	35959.09
721.196	35316.03
721.39	35543.35
721.585	36135.21
721.779	35768.63
721.973	35365.18
722.167	34724.16
722.361	35744.05
722.555	35887.41
722.749	35154.24
722.943	35481.91
723.137	35195.2
723.331	35733.81
723.525	35463.48
723.719	35262.78
723.913	36063.54
724.107	35461.43
724.301	35080.51
724.495	35195.2
724.689	35787.06
724.883	35469.62
725.077	35234.11
725.271	35281.21
725.465	35692.85
725.659	35068.22
725.853	35393.85
726.046	35465.53
726.24	34646.34
726.434	35176.76
726.628	35424.57
726.822	34752.84
727.015	35725.62
727.209	35821.87
727.403	35248.44
727.596	34660.68
727.79	35506.49
727.984	35399.99
728.177	35096.89
728.371	35057.98
728.565	35242.3
728.758	34863.43
728.952	35021.12
729.146	34957.63
729.339	35617.08
729.533	35447.1
729.726	34914.62
729.92	35084.61
730.113	35805.49
730.307	35266.88
730.5	35041.6
730.694	35074.37
730.887	34838.85
731.081	35623.22
731.274	34871.62
731.468	34849.09
731.661	35158.33
731.854	35156.28
732.048	34969.92
732.241	34584.9
732.435	34865.47
732.628	35256.64
732.821	34969.92
733.014	35094.85
733.208	34980.16
733.401	35203.39
733.594	34521.41
733.788	34660.68
733.981	35361.08
734.174	35078.46
734.367	34693.44
734.56	34636.1
734.754	34937.15
734.947	35084.61
735.14	34904.38
735.333	34982.21
735.526	35004.74
735.719	34769.22
735.912	34695.49
736.105	35100.99
736.298	35279.16
736.491	34961.73
736.684	34451.78
736.877	35074.37
737.07	34726.21
737.263	35184.96
737.456	34376.01
737.649	34691.4
737.842	34509.13
738.035	34658.63
738.228	34574.66
738.421	34595.14
738.614	35522.87
738.807	35445.05
739	34189.64
739.192	34109.77
739.385	34625.86
739.578	34773.31
739.771	34414.92
739.964	34371.91
740.156	34783.55
740.349	34562.37
740.542	34904.38
740.735	34279.75
740.927	34300.23
741.12	34367.82
741.313	34220.36
741.505	34793.79
741.698	34834.75
741.891	34152.78
742.083	34435.4
742.276	34474.31
742.468	34419.02
742.661	34113.87
742.854	34310.47
743.046	34156.88
743.239	34480.46
743.431	34730.31
743.624	34107.72
743.816	33935.7
744.009	34287.95
744.201	34218.32
744.393	34195.79
744.586	33796.43
744.778	34158.92
744.971	34304.33
745.163	34259.27
745.355	33939.79
745.548	33972.56
745.74	33952.08
745.932	34095.44
746.125	34060.62
746.317	34789.7
746.509	34021.71
746.702	33882.45
746.894	34187.6
747.086	33878.35
747.278	34398.54
747.471	33904.98
747.663	33800.53
747.855	34115.92
748.047	34208.08
748.239	33628.5
748.431	33800.53
748.623	34720.07
748.815	34068.81
749.008	33851.73
749.2	33886.54
749.392	34300.23
749.584	33792.34
749.776	33804.63
749.968	33823.06
750.16	34404.68
750.352	33890.64
750.544	33847.63
750.736	33583.44
750.928	34167.12
751.12	34318.67
751.311	33452.37
751.503	33716.56
751.695	33659.22
751.887	33470.81
752.079	33306.97
752.271	33341.78
752.463	34728.26
752.654	33679.7
752.846	33292.63
753.038	33263.96
753.23	33419.61
753.421	33536.34
753.613	33192.28
753.805	33782.1
753.997	33691.99
754.188	33399.13
754.38	32749.92
754.572	33364.31
754.763	33466.71
754.955	33182.04
755.146	33093.98
755.338	33171.8
755.53	33528.15
755.721	33005.92
755.913	32889.18
756.104	32678.24
756.296	32799.07
756.487	33134.94
756.679	32659.81
756.87	32725.35
757.062	32538.98
757.253	33177.95
757.445	32645.48
757.636	32858.46
757.827	32682.34
758.019	33261.91
758.21	32115.05
758.401	32170.35
758.593	32979.29
758.784	33134.94
758.975	31783.28
759.167	32399.72
759.358	32553.32
759.549	32876.9
759.74	31998.32
759.932	32450.92
760.123	32833.89
760.314	32325.99
760.505	31977.84
760.696	31988.08
760.888	32715.11
761.079	32057.71
761.27	32020.84
761.461	31502.71
761.652	32545.12
761.843	32016.75
762.034	31951.21
762.225	31865.2
762.416	31826.29
762.607	31811.95
762.798	31613.3
762.989	31764.85
763.18	32151.91
763.371	31558
763.562	31637.87
763.753	31033.72
763.944	31943.02
764.135	31781.23
764.326	31820.14
764.517	31625.59
764.708	31603.06
764.899	31822.19
765.089	31013.24
765.28	31046.01
765.471	31695.22
765.662	31560.05
765.853	31091.07
766.043	30941.57
766.234	31275.38
766.425	31193.47
766.615	30835.07
766.806	30796.16
766.997	31277.43
767.187	30925.18
767.378	30738.82
767.569	30112.14
767.759	31111.55
767.95	30996.86
768.141	31101.31
768.331	30712.19
768.522	30568.83
768.712	31242.62
768.903	30648.71
769.093	30624.13
769.284	30867.84
769.474	30665.09
769.665	30093.71
769.855	30501.25
770.046	30929.28
770.236	30331.27
770.426	30325.13
770.617	30208.39
770.807	30390.66
770.998	30314.89
771.188	30073.23
771.378	30163.34
771.569	30579.07
771.759	30331.27
771.949	29718.93
772.139	30099.85
772.33	30069.13
772.52	30628.23
772.71	29966.73
772.9	29522.32
773.09	30452.1
773.281	30509.44
773.471	30042.51
773.661	29454.74
773.851	29847.95
774.041	29850
774.231	29563.28
774.421	29870.48
774.611	29788.56
774.802	29581.71
774.992	29440.4
775.182	29464.98
775.372	29430.16
775.562	29794.7
775.752	29518.23
775.942	28883.36
776.131	29788.56
776.321	29555.09
776.511	29268.37
776.701	28983.71
776.891	29409.68
777.081	29225.37
777.271	29006.23
777.461	29075.87
777.651	29507.99
777.84	29739.41
778.03	28914.08
778.22	28836.25
778.41	29381.01
778.599	28993.95
778.789	28713.38
778.979	28850.59
779.169	28744.09
779.358	29077.91
779.548	28789.15
779.738	28314.02
779.927	28844.45
780.117	28709.28
780.307	28520.87
780.496	28258.73
780.686	28694.94
780.875	29110.68
781.065	28490.15
781.254	28082.6
781.444	28508.58
781.633	28596.64
781.823	28209.57
782.012	28156.33
782.202	27836.84
782.391	28156.33
782.581	27941.29
782.77	28180.9
782.96	28404.13
783.149	27980.2
783.338	28191.14
783.528	27869.61
783.717	28565.92
783.906	28586.4
784.096	27857.32
784.285	28002.73
784.474	27740.59
784.663	27812.27
784.853	27365.81
785.042	27564.46
785.231	27492.79
785.42	27906.48
785.61	27783.6
785.799	27279.8
785.988	27816.36
786.177	27550.13
786.366	27632.05
786.555	27552.18
786.744	27881.9
786.933	27224.5
787.122	27343.28
787.312	27357.62
787.501	27474.35
787.69	27460.02
787.879	27439.54
788.068	26927.55
788.257	26534.34
788.445	26960.31
788.634	27355.57
788.823	26829.24
789.012	27857.32
789.201	27457.97
789.39	26962.36
789.579	26749.37
789.768	27054.52
789.957	26677.69
790.145	26700.22
790.334	26458.56
790.523	26876.35
790.712	26808.76
790.9	26689.98
791.089	26390.98
791.278	27007.42
791.467	26843.58
791.655	26583.49
791.844	26954.17
792.033	26671.55
792.221	26241.48
792.41	26218.95
792.599	25786.83
792.787	26507.71
792.976	26614.21
793.164	26214.85
793.353	26151.37
793.541	26745.28
793.73	27298.23
793.918	26012.1
794.107	26046.92
794.295	26214.85
794.484	26622.4
794.672	25967.05
794.861	26380.74
795.049	26171.85
795.238	26558.91
795.426	25997.77
795.614	26145.22
795.803	26225.09
795.991	26544.58
796.179	25733.58
796.368	25921.99
796.556	26325.44
796.744	25592.27
796.932	25792.97
797.121	25897.42
797.309	25872.84
797.497	26528.19
797.685	25749.96
797.874	25930.19
798.062	25962.95
798.25	25907.66
798.438	25835.98
798.626	25958.86
798.814	25960.91
799.002	26419.65
799.19	25444.82
799.378	25668.05
799.566	26216.9
799.755	26175.94
799.943	25678.29
800.131	25811.4
800.318	25909.71
800.506	25946.57
800.694	25752.01
800.882	25606.61
801.07	26188.23
801.258	26075.59
801.446	25668.05
801.634	25090.52
801.822	25663.95
802.01	25930.19
802.197	25965
802.385	25670.09
802.573	26417.6
802.761	25625.04
802.949	25653.71
803.136	25745.87
803.324	26188.23
803.512	26143.17
803.699	25684.43
803.887	25700.81
804.075	26483.14
804.262	25680.33
804.45	25336.27
804.638	25553.36
804.825	26147.27
805.013	25762.25
805.201	25711.05
805.388	25768.4
805.576	26063.3
805.763	26747.33
805.951	25567.7
806.138	25993.67
806.326	26710.46
806.513	26464.71
806.701	26141.13
806.888	26018.25
807.075	26085.83
807.263	26491.33
807.45	25848.27
807.638	26290.63
807.825	26773.95
808.012	26307.01
808.2	25803.21
808.387	26223.05
808.574	26595.78
808.761	26329.54
808.949	26071.5
809.136	26214.85
809.323	26153.41
809.51	26245.57
809.698	26409.41
809.885	26067.4
810.072	26221
810.259	26728.89
810.446	26085.83
810.633	26245.57
810.82	26466.75
811.008	26923.45
811.195	26374.59
811.382	25989.58
811.569	26206.66
811.756	26030.54
811.943	26309.06
812.13	26196.42
812.317	26429.89
812.504	26366.4
812.691	26284.48
812.878	26360.26
813.064	26610.11
813.251	26644.93
813.438	26018.25
813.625	25930.19
813.812	26223.05
813.999	26472.9
814.186	26065.35
814.372	26091.98
814.559	26237.38
814.746	26708.41
814.933	26341.83
815.12	26157.51
815.306	25813.45
815.493	25958.86
815.68	26405.31
815.866	25985.48
816.053	26659.26
816.24	26880.44
816.426	26362.31
816.613	26221
816.799	26579.39
816.986	26659.26
817.173	26155.46
817.359	26141.13
817.546	26044.87
817.732	26147.27
817.919	25608.65
818.105	26032.58
818.292	26345.92
818.478	26476.99
818.665	26595.78
818.851	25838.03
819.037	26952.12
819.224	26567.1
819.41	25608.65
819.597	26022.34
819.783	26419.65
819.969	26458.56
820.156	25891.27
820.342	25721.29
820.528	26675.65
820.714	25913.8
820.901	25711.05
821.087	25803.21
821.273	26212.81
821.459	25467.34
821.646	25778.64
821.832	25795.02
822.018	26008.01
822.204	25801.16
822.39	25895.37
822.576	25651.66
822.762	25928.14
822.948	25911.75
823.134	25586.13
823.32	25033.18
823.507	25553.36
823.693	25928.14
823.879	25893.32
824.065	25283.03
824.25	25649.61
824.436	25555.41
824.622	25352.66
824.808	25270.74
824.994	25491.92
825.18	25276.88
825.366	25291.22
825.552	25102.81
825.738	25504.21
825.923	25645.52
826.109	25231.83
826.295	25029.08
826.481	25321.94
826.667	25524.69
826.852	25182.68
827.038	25172.44
827.224	25844.17
827.409	25641.42
827.595	24502.75
827.781	25072.09
827.966	25260.5
828.152	25031.13
828.338	24795.61
828.523	24603.1
828.709	25246.16
828.894	25106.9
829.08	24881.63
829.266	24343.01
829.451	25184.73
829.637	24852.95
829.822	24699.36
830.008	24406.5
830.193	24826.33
830.378	25182.68
830.564	24633.82
830.749	24297.95
830.935	24754.65
831.12	24459.74
831.305	24330.72
831.491	24345.06
831.676	24365.54
831.861	24855
832.047	24168.93
832.232	24130.02
832.417	24662.49
832.602	24375.78
832.788	24117.73
832.973	24512.99
833.158	24216.04
833.343	24396.26
833.528	24199.65
833.714	24332.77
833.899	24300
834.084	24607.2
834.269	24150.5
834.454	23771.63
834.639	24340.96
834.824	24197.6
835.009	24197.6
835.194	24250.85
835.379	24138.21
835.564	24158.69
835.749	23532.01
835.934	23427.57
836.119	23994.86
836.304	23970.28
836.489	23720.43
836.674	23796.2
836.859	23593.45
837.044	24414.69
837.228	23437.81
837.413	23562.73
837.598	23982.57
837.783	24279.52
837.968	23464.43
838.152	23568.88
838.337	23353.84
838.522	23740.91
838.707	23802.35
838.891	23722.48
839.076	23552.49
839.261	23597.55
839.445	23544.3
839.63	23349.75
839.815	23757.29
839.999	23253.49
840.184	23058.93
840.368	23058.93
840.553	23341.55
840.737	23409.14
840.922	23173.62
841.106	23083.51
841.291	23157.24
841.475	23079.41
841.66	23036.41
841.844	22788.6
842.029	23826.92
842.213	23044.6
842.397	22501.89
842.582	22798.84
842.766	23282.16
842.951	23128.56
843.135	22641.15
843.319	22692.35
843.504	22735.35
843.688	23116.28
843.872	22258.18
844.056	22649.34
844.241	22940.15
844.425	22768.12
844.609	22467.07
844.793	22370.82
844.977	23134.71
845.161	22419.97
845.346	22346.24
845.53	22415.87
845.714	22985.21
845.898	22841.85
846.082	21969.41
846.266	22325.76
846.45	22290.95
846.634	22499.84
846.818	22153.73
847.002	22303.23
847.186	22495.74
847.37	22024.71
847.554	21948.93
847.738	22190.59
847.922	22272.51
848.106	22553.09
848.29	21928.45
848.473	21969.41
848.657	21953.03
848.841	22045.19
849.025	22043.14
849.209	21596.68
849.392	22159.88
849.576	21895.69
849.76	21551.63
849.944	21719.56
850.127	22010.37
850.311	21613.07
850.495	21445.13
850.678	21535.24
850.862	21977.61
851.046	22112.77
851.229	21819.91
851.413	21424.65
851.596	21805.58
851.78	21590.54
851.964	21486.09
852.147	21404.17
852.331	21938.69
852.514	21649.93
852.698	21232.15
852.881	21060.12
853.065	21490.19
853.248	21594.64
853.431	21486.09
853.615	21123.6
853.798	21936.65
853.982	21438.99
854.165	21260.82
854.348	20965.91
854.532	21230.1
854.715	21193.23
854.898	20900.37
855.081	20595.23
855.265	21498.38
855.448	21590.54
855.631	20523.55
855.814	20771.35
855.997	21256.72
856.181	20937.24
856.364	20859.42
856.547	20642.33
856.73	20840.98
856.913	20558.36
857.096	20374.05
857.279	20720.15
857.462	20584.99
857.645	20834.84
857.828	20732.44
858.011	20640.28
858.194	20304.42
858.377	20802.07
858.56	20312.61
858.743	20408.86
858.926	20195.87
859.109	20883.99
859.292	20298.27
859.475	20314.66
859.658	20730.39
859.841	20613.66
860.023	20156.96
860.206	19954.21
860.389	20484.64
860.572	20828.7
860.755	20177.44
860.937	20073
861.12	20400.67
861.303	20240.93
861.486	20023.84
861.668	20367.9
861.851	20216.35
862.034	20206.11
862.216	19892.77
862.399	19403.31
862.581	20224.54
862.764	20304.42
862.947	19771.94
863.129	19266.1
863.312	19569.19
863.494	19876.39
863.677	19685.93
863.859	19264.05
864.042	19649.07
864.224	20101.67
864.406	19321.39
864.589	18922.04
864.771	19761.7
864.954	19253.81
865.136	19298.86
865.318	18922.04
865.501	19358.25
865.683	18926.13
865.865	19241.52
866.048	18954.8
866.23	19395.12
866.412	19259.95
866.594	18995.76
866.777	19075.63
866.959	19440.17
867.141	18881.08
867.323	19018.29
867.505	19120.69
867.687	18975.28
867.869	19124.79
868.052	18913.84
868.234	18713.14
868.416	19208.75
868.598	19311.15
868.78	18637.37
868.962	18872.89
869.144	19333.68
869.326	19024.44
869.508	18494.01
869.69	18496.06
869.872	18827.83
870.054	19175.98
870.236	18471.48
870.417	18774.58
870.599	18694.71
870.781	19046.96
870.963	18516.54
871.145	18514.49
871.327	18592.31
871.508	18895.41
871.69	18512.44
871.872	18569.79
872.054	18784.82
872.235	19151.41
872.417	18526.78
872.599	18127.42
872.78	19178.03
872.962	18836.02
873.144	18389.56
873.325	18596.41
873.507	19233.33
873.689	18592.31
873.87	18397.76
874.052	18401.85
874.233	18633.27
874.415	18995.76
874.596	18694.71
874.778	18326.08
874.959	18731.58
875.141	18846.26
875.322	18586.17
875.503	18297.41
875.685	19008.05
875.866	18252.35
876.048	18481.72
876.229	18242.11
876.41	18561.59
876.592	18629.18
876.773	18238.02
876.954	18577.98
877.136	18995.76
877.317	18567.74
877.498	18516.54
877.679	18557.5
877.86	18946.61
878.042	18848.31
878.223	18307.65
878.404	18635.32
878.585	18774.58
878.766	19272.24
878.947	18633.27
879.128	18477.63
879.309	18860.6
879.49	18750.01
879.672	18537.02
879.853	18641.46
880.034	18733.62
880.215	18752.06
880.396	18782.77
880.576	19069.49
880.757	19069.49
880.938	19175.98
881.119	19157.55
881.3	18897.46
881.481	18891.32
881.662	19839.53
881.843	18811.45
882.023	18625.08
882.204	19280.43
882.385	19247.66
882.566	18930.23
882.747	18860.6
882.927	19360.3
883.108	19612.2
883.289	18967.09
883.469	19415.6
883.65	19241.52
883.831	19458.6
884.011	19556.91
884.192	19120.69
884.373	19792.42
884.553	19745.32
884.734	19358.25
884.914	19786.28
885.095	20318.75
885.275	19817
885.456	19561
885.636	19171.89
885.817	19757.61
885.997	19894.82
886.178	19507.76
886.358	19522.09
886.538	19927.59
886.719	20642.33
886.899	19419.69
887.08	19755.56
887.26	20199.97
887.44	19558.95
887.621	19616.3
887.801	19552.81
887.981	20503.07
888.161	20159.01
888.342	19657.26
888.522	19798.57
888.702	19980.84
888.882	20177.44
889.062	19896.87
889.242	19831.33
889.423	20103.71
889.603	20060.71
889.783	20032.04
889.963	19946.02
890.143	20089.38
890.323	20118.05
890.503	19690.02
890.683	19933.73
890.863	20140.58
891.043	20077.09
891.223	19872.29
891.403	20054.56
891.583	20140.58
891.763	19972.64
891.943	19616.3
892.122	19724.84
892.302	20238.88
892.482	20011.56
892.662	19814.95
892.842	19974.69
893.022	20048.42
893.201	19612.2
893.381	19837.48
893.561	19573.29
893.741	19804.71
893.92	20038.18
894.1	19726.89
894.28	19634.73
894.459	19919.4
894.639	19956.26
894.819	19612.2
894.998	19737.13
895.178	20263.46
895.357	20079.14
895.537	19685.93
895.716	19350.06
895.896	19956.26
896.075	19712.55
896.255	19376.69
896.434	19350.06
896.614	19817
896.793	19913.25
896.973	19339.82
897.152	19208.75
897.331	19755.56
897.511	19849.77
897.69	19280.43
897.87	19368.49
898.049	19464.75
898.228	19669.55
898.407	19364.4
898.587	19135.03
898.766	19245.62
898.945	19206.7
899.124	18956.85
899.304	19108.4
899.483	19358.25
899.662	19632.68
899.841	18811.45
900.02	18532.92
900.199	19403.31
900.378	18895.41
900.557	18666.04
900.737	18375.23
900.916	18768.44
901.095	18872.89
901.274	18639.42
901.453	18461.24
901.632	18295.36
901.811	18158.14
901.989	18174.53
902.168	18274.88
902.347	18862.65
902.526	18416.19
902.705	18086.47
902.884	18152
903.063	18661.94
903.242	18106.95
903.42	17785.41
903.599	17908.29
903.778	18446.91
903.957	18334.27
904.135	17959.49
904.314	17492.55
904.493	17834.57
904.672	18084.42
904.85	17326.67
905.029	17390.16
905.207	17877.57
905.386	18152
905.565	17205.84
905.743	17042
905.922	17189.46
906.1	17435.21
906.279	16509.53
906.457	16689.75
906.636	17377.87
906.814	17001.04
906.993	16624.22
907.171	16370.27
907.35	17117.78
907.528	17019.47
907.707	16616.02
907.885	16214.62
908.063	16509.53
908.242	16149.09
908.42	16282.2
908.598	15966.82
908.777	16347.74
908.955	16200.29
909.133	16200.29
909.311	15981.15
909.49	16212.57
909.668	16513.63
909.846	16079.46
910.024	15888.99
910.202	16695.89
910.38	16640.6
910.559	15997.54
910.737	16054.88
910.915	16624.22
911.093	16632.41
911.271	16294.49
911.449	16761.43
911.627	16855.64
911.805	17269.33
911.983	16548.44
912.161	16597.59
912.339	16937.55
912.517	16853.59
912.695	16902.74
912.872	16607.83
913.05	16632.41
913.228	17115.73
913.406	16910.93
913.584	16786.01
913.762	17238.61
913.939	16894.55
914.117	17050.19
914.295	16835.16
914.473	17037.91
914.65	17271.37
914.828	16607.83
915.006	16743
915.184	16880.21
915.361	16837.2
915.539	16904.79
915.716	16829.01
915.894	16988.75
916.072	17113.68
916.249	16558.68
916.427	16900.69
916.604	16751.19
916.782	16808.53
916.959	16210.53
917.137	16093.79
917.314	16808.53
917.492	16747.09
917.669	16280.16
917.847	16304.73
918.024	16743
918.201	16271.97
918.379	16824.92
918.556	16421.47
918.733	16824.92
918.911	16374.36
919.088	16689.75
919.265	16233.05
919.442	16443.99
919.62	16147.04
919.797	16233.05
919.974	15897.19
920.151	16374.36
920.328	16149.09
920.506	15874.66
920.683	16243.29
920.86	15755.88
921.037	16183.9
921.214	16034.4
921.391	15942.24
921.568	16425.56
921.745	15835.75
921.922	16075.36
922.099	15739.49
922.276	16376.41
922.453	16034.4
922.63	15420.01
922.807	15802.98
922.984	15882.85
923.161	15415.91
923.338	15612.52
923.514	15534.7
923.691	15538.79
923.868	15706.73
924.045	15282.8
924.222	15321.71
924.399	15518.31
924.575	15936.1
924.752	15397.48
924.929	15237.74
925.105	15688.29
925.282	15194.73
925.459	15039.09
925.635	15139.44
925.812	15334
925.989	14795.38
926.165	15188.59
926.342	14625.4
926.518	14787.19
926.695	15037.04
926.871	14733.94
927.048	14578.29
927.224	14742.13
927.401	14492.28
927.577	14733.94
927.754	14633.59
927.93	14920.31
928.107	14830.2
928.283	14269.05
928.459	14426.75
928.636	14606.97
928.812	14363.26
928.988	13939.33
929.165	14023.3
929.341	14414.46
929.517	14178.94
929.693	14334.59
929.87	13685.38
930.046	14383.74
930.222	14006.91
930.398	13881.99
930.574	13843.07
930.751	14117.5
930.927	13636.23
931.103	13875.84
931.279	13691.52
931.455	13441.67
931.631	13564.55
931.807	13249.16
931.983	13363.85
932.159	13257.36
932.335	13429.38
932.511	13216.4
932.687	13079.18
932.863	13482.63
933.039	13171.34
933.215	13034.13
933.391	12874.38
933.566	12823.19
933.742	12962.45
933.918	12708.5
934.094	12466.84
934.27	12626.58
934.445	12587.67
934.621	12333.72
934.797	11952.8
934.973	12493.46
935.148	12214.94
935.324	11612.84
935.5	11383.46
935.675	11950.75
935.851	11666.08
936.027	11313.83
936.202	11358.89
936.378	11184.81
936.553	10963.63
936.729	11090.6
936.904	10617.52
937.08	10271.42
937.255	10437.3
937.431	10111.68
937.606	9894.59
937.782	9810.62
937.957	9964.22
938.133	9636.55
938.308	9423.56
938.483	9532.1
938.659	9261.77
938.834	9194.19
939.009	8989.39
939.185	8999.63
939.36	8788.69
939.535	8307.41
939.71	8778.45
939.886	8784.59
940.061	8792.78
940.236	8452.82
940.411	8243.93
940.586	8678.1
940.761	8266.46
940.937	8049.37
941.112	7840.48
941.287	8209.11
941.462	8016.6
941.637	7645.92
941.812	7815.9
941.987	8037.08
942.162	7758.56
942.337	7588.58
942.512	7541.47
942.687	7660.26
942.862	7955.16
943.037	7416.55
943.212	6869.74
943.386	7367.4
943.561	7625.44
943.736	7295.72
943.911	7502.56
944.086	7457.51
944.26	7477.99
944.435	7285.48
944.61	7445.22
944.785	7699.17
944.959	7928.54
945.134	7295.72
945.309	7062.25
945.483	7391.97
945.658	7625.44
945.833	6875.88
946.007	7097.07
946.182	7766.75
946.357	7295.72
946.531	7303.91
946.706	7357.16
946.88	7097.07
947.055	7529.19
947.229	7207.66
947.404	7201.51
947.578	7822.05
947.752	7355.11
947.927	7330.53
948.101	7183.08
948.276	7754.46
948.45	7604.96
948.624	7707.36
948.799	7289.57
948.973	7740.13
949.147	7348.97
949.321	7482.08
949.496	7656.16
949.67	7936.73
949.844	7756.51
950.018	7482.08
950.193	7467.75
950.367	8348.37
950.541	7703.26
950.715	7697.12
950.889	7584.48
951.063	7840.48
951.237	8010.46
951.411	7580.39
951.585	7402.21
951.759	8035.03
951.933	7889.63
952.107	7813.85
952.281	7889.63
952.455	8389.33
952.629	8221.4
952.803	7918.3
952.977	7875.29
953.151	8450.77
953.325	8211.16
953.499	8245.98
953.672	7652.06
953.846	7983.84
954.02	8166.1
954.194	7750.37
954.368	7897.82
954.541	8495.83
954.715	7932.64
954.889	8309.46
955.062	7944.92
955.236	8372.95
955.41	7985.88
955.583	8319.7
955.757	8012.51
955.93	8223.45
956.104	7992.03
956.278	8239.83
956.451	8194.78
956.625	8413.91
956.798	8997.58
956.972	8288.98
957.145	8098.52
957.319	8420.05
957.492	8387.29
957.665	8475.35
957.839	8262.36
958.012	8495.83
958.185	8516.31
958.359	8325.85
958.532	8620.75
958.705	8792.78
958.879	8647.38
959.052	8352.47
959.225	8067.8
959.398	8448.72
959.572	8616.66
959.745	8413.91
959.918	8231.64
960.091	8514.26
960.264	8717.01
960.438	8215.26
960.611	7998.17
960.784	8575.7
960.957	8260.31
961.13	8706.77
961.303	8301.27
961.476	8420.05
961.649	8663.76
961.822	8245.98
961.995	8200.92
962.168	8848.08
962.341	8547.03
962.514	8399.57
962.686	8139.48
962.859	8676.05
963.032	8567.51
963.205	8346.33
963.378	8035.03
963.551	8483.54
963.723	8395.48
963.896	8266.46
964.069	8446.68
964.242	8393.43
964.414	8471.25
964.587	8162.01
964.76	8260.31
964.932	8657.62
965.105	8321.75
965.278	8274.65
965.45	8241.88
965.623	8334.04
965.795	8450.77
965.968	8123.1
966.14	7916.25
966.313	8288.98
966.485	8628.95
966.658	7850.72
966.83	8004.32
967.003	8547.03
967.175	8288.98
967.348	8045.27
967.52	7903.96
967.692	8667.86
967.865	8366.81
968.037	8104.67
968.209	8276.7
968.382	8205.02
968.554	8325.85
968.726	8078.04
968.898	8082.14
969.071	8307.41
969.243	8270.55
969.415	7987.93
969.587	8010.46
969.759	8723.15
969.932	8219.35
970.104	7967.45
970.276	7488.23
970.448	7946.97
970.62	7852.77
970.792	7842.53
970.964	7875.29
971.136	8454.87
971.308	8178.39
971.48	7666.4
971.652	7721.7
971.824	8143.58
971.996	7674.59
972.168	7488.23
972.339	7688.93
972.511	8084.19
972.683	7834.33
972.855	7957.21
973.027	7568.1
973.199	7680.74
973.37	8000.22
973.542	7744.22
973.714	7635.68
973.886	7619.3
974.057	8026.84
974.229	7357.16
974.401	7523.04
974.572	7355.11
974.744	7385.83
974.915	7422.69
975.087	7312.1
975.259	8065.75
975.43	7471.84
975.602	7553.76
975.773	7168.74
975.945	7301.86
976.116	7697.12
976.288	7207.66
976.459	7473.89
976.63	7494.37
976.802	7576.29
976.973	7244.52
977.145	7254.76
977.316	7834.33
977.487	7613.15
977.659	7492.32
977.83	7211.75
978.001	7760.61
978.172	7527.14
978.344	7265
978.515	7033.58
978.686	7240.42
978.857	7553.76
979.028	7178.98
979.2	7185.13
979.371	7078.63
979.542	7221.99
979.713	7056.11
979.884	6535.92
980.055	7099.11
980.226	6845.16
980.397	6875.88
980.568	6879.98
980.739	7451.36
980.91	6933.23
981.081	7086.83
981.252	6740.72
981.423	7066.35
981.594	7142.12
981.765	6732.53
981.936	6834.93
982.106	7060.2
982.277	7168.74
982.448	6716.14
982.619	6873.84
982.79	6458.1
982.96	7131.88
983.131	6753.01
983.302	6226.68
983.472	6619.89
983.643	6759.15
983.814	6636.27
983.984	6497.01
984.155	6513.39
984.326	6875.88
984.496	6597.36
984.667	6439.67
984.837	6466.29
985.008	6918.89
985.178	6712.05
985.349	6327.03
985.519	6515.44
985.69	6333.17
985.86	6370.04
986.031	6241.01
986.201	6474.48
986.371	6511.35
986.542	6114.04
986.712	6032.12
986.882	6449.91
987.053	6343.41
987.223	6120.18
987.393	6267.64
987.563	6187.77
987.734	6443.76
987.904	6241.01
988.074	6003.45
988.244	6058.74
988.414	6060.79
988.585	6013.69
988.755	5892.86
988.925	6140.66
989.095	6372.08
989.265	5800.7
989.435	5804.8
989.605	6079.22
989.775	6130.42
989.945	6091.51
990.115	5647.1
990.285	6093.56
990.455	5999.35
990.625	5745.41
990.795	5657.34
990.965	6189.81
991.134	5538.56
991.304	5534.46
991.474	5606.14
991.644	5923.58
991.814	5952.25
991.984	5294.85
992.153	5282.56
992.323	5778.17
992.493	5671.68
992.662	5260.04
992.832	5612.29
993.002	5665.53
993.171	5628.67
993.341	5276.42
993.511	5425.92
993.68	5430.02
993.85	5720.83
994.019	5145.35
994.189	5366.53
994.358	5534.46
994.528	5389.06
994.697	4969.23
994.867	5088.01
995.036	5548.8
995.206	5354.24
995.375	4952.84
995.544	5274.37
995.714	5360.39
995.883	5217.03
996.052	5366.53
996.222	4723.47
996.391	5696.25
996.56	5329.67
996.73	4842.25
996.899	4819.72
997.068	5444.35
997.237	5114.63
997.406	4846.35
997.576	4643.6
997.745	4965.13
997.914	5032.71
998.083	4549.39
998.252	4702.99
998.421	4868.88
998.59	4856.59
998.759	4698.89
998.928	4578.06
999.097	5255.94
999.266	5155.59
999.435	4877.07
999.604	4426.51
999.773	5348.1
999.942	4649.74
1000.111	4365.07
1000.28	4381.46
1000.448	4590.35
1000.617	4436.75
1000.786	4631.31
1000.955	4430.61
1001.124	4815.63
1001.292	5382.92
1001.461	4301.59
1001.63	4352.79
1001.798	5100.3
1001.967	4983.56
1002.136	4129.56
1002.304	4182.81
1002.473	4559.63
1002.642	4758.28
1002.81	4172.57
1002.979	4131.61
1003.147	4698.89
1003.316	5083.91
1003.484	4227.86
1003.653	4111.13
1003.821	4668.17
1003.99	4375.31
1004.158	4182.81
1004.327	4303.64
1004.495	4301.59
1004.663	4152.09
1004.832	4025.11
1005	3879.71
1005.168	4287.25
1005.337	4262.68
1005.505	3789.6
1005.673	4131.61
1005.842	4205.33
1006.01	4311.83
1006.178	3779.36
1006.346	3832.6
1006.514	4344.6
1006.683	4446.99
1006.851	3760.92
1007.019	3705.63
1007.187	3932.95
1007.355	3631.9
1007.523	3664.67
1007.691	3545.89
1007.859	3679.01
1008.027	4297.49
1008.195	3760.92
1008.363	3519.26
1008.531	4102.93
1008.699	3732.25
1008.867	3541.79
1009.035	3605.28
1009.203	4123.41
1009.37	3795.74
1009.538	3443.49
1009.706	3910.43
1009.874	3902.23
1010.042	3685.15
1010.209	3361.57
1010.377	3312.42
1010.545	3820.32
1010.713	3732.25
1010.88	3312.42
1011.048	3351.33
1011.216	3615.52
1011.383	3930.91
1011.551	3341.09
1011.718	3015.46
1011.886	3744.54
1012.054	3453.73
1012.221	3054.37
1012.389	3185.44
1012.556	3388.19
1012.724	3803.93
1012.891	3371.81
1013.058	3064.61
1013.226	3390.24
1013.393	3539.74
1013.561	2974.5
1013.728	2851.63
1013.895	3566.37
1014.063	3457.82
1014.23	2855.72
1014.397	2810.67
1014.565	3423.01
1014.732	3201.83
1014.899	2759.47
1015.066	2925.35
1015.233	3302.18
1015.401	3298.08
1015.568	2949.93
1015.735	2968.36
1015.902	3074.85
1016.069	3185.44
1016.236	2800.43
1016.403	2704.17
1016.57	2921.26
1016.737	3074.85
1016.904	2863.91
1017.071	2634.54
1017.238	2925.35
1017.405	3279.65
1017.572	2704.17
1017.739	2841.39
1017.906	3062.57
1018.073	3156.77
1018.24	2485.04
1018.407	2667.31
1018.573	3109.67
1018.74	2794.28
1018.907	2648.88
1019.074	2503.47
1019.241	3078.95
1019.407	2886.44
1019.574	2386.74
1019.741	2282.29
1019.907	2943.78
1020.074	2781.99
1020.241	2194.23
1020.407	2304.82
1020.574	2960.17
1020.74	2904.87
1020.907	2501.42
1021.073	2327.35
1021.24	3150.63
1021.406	2968.36
1021.573	2237.24
1021.739	2466.61
1021.906	2816.81
1022.072	2517.81
1022.239	2177.84
1022.405	2280.24
1022.571	2581.29
1022.738	2407.22
1022.904	2235.19
1023.07	2208.56
1023.237	2538.29
1023.403	2822.95
1023.569	2100.02
1023.735	2294.58
1023.902	2550.57
1024.068	2405.17
1024.234	2057.01
1024.4	2136.88
1024.566	2622.25
1024.732	2743.08
1024.898	2196.28
1025.065	1927.99
1025.231	2583.34
1025.397	2341.68
1025.563	1995.57
1025.729	2274.1
1025.895	1962.81
1026.061	2059.06
1026.227	1882.94
1026.392	2061.11
1026.558	2620.21
1026.724	2439.98
1026.89	1977.14
1027.056	1923.9
1027.222	2298.67
1027.388	2138.93
1027.553	1860.41
1027.719	1962.81
1027.885	2698.03
1028.051	2431.79
1028.216	1606.46
1028.382	2009.91
1028.548	2411.31
1028.713	1973.05
1028.879	1731.39
1029.045	1985.34
1029.21	2442.03
1029.376	2450.22
1029.541	1860.41
1029.707	1737.53
1029.873	2257.71
1030.038	2224.95
1030.204	1698.62
1030.369	1758.01
1030.534	2296.63
1030.7	1983.29
1030.865	1737.53
1031.031	1741.63
1031.196	2134.84
1031.361	2036.53
1031.527	1592.13
1031.692	1710.91
1031.857	1571.65
1032.023	2188.08
1032.188	1600.32
1032.353	1755.96
1032.518	2439.98
1032.684	2036.53
1032.849	1481.53
1033.014	1583.93
1033.179	2132.79
1033.344	2014.01
1033.509	1678.14
1033.674	1518.4
1033.839	2143.03
1034.004	2087.73
1034.17	1596.22
1034.335	1510.21
1034.5	1772.35
1034.664	1729.34
1034.829	1575.74
1034.994	1598.27
1035.159	1934.14
1035.324	1844.03
1035.489	1649.47
1035.654	1473.34
1035.819	2138.93
1035.984	1719.1
1036.148	1551.17
1036.313	1481.53
1036.478	1989.43
1036.643	1708.86
1036.807	1375.04
1036.972	1266.5
1037.137	2063.16
1037.301	1678.14
1037.466	1295.17
1037.631	1379.14
1037.795	1983.29
1037.96	1753.91
1038.124	1487.68
1038.289	1336.13
1038.454	1901.37
1038.618	1696.57
1038.783	1274.69
1038.947	1485.63
1039.111	1731.39
1039.276	1491.77
1039.44	1207.11
1039.605	1653.56
1039.769	1628.99
1039.933	1506.11
1040.098	1280.83
1040.262	1528.64
1040.426	1784.63
1040.591	1682.24
1040.755	1196.87
1040.919	1280.83
1041.083	1631.04
1041.248	1471.29
1041.412	1055.56
1041.576	1092.42
1041.74	1502.01
1041.904	1663.8
1042.068	1102.66
1042.232	1223.49
1042.397	1758.01
1042.561	1571.65
1042.725	879.43
1042.889	1256.26
1043.053	1618.75
1043.217	1669.95
1043.381	1223.49
1043.544	955.21
1043.708	1739.58
1043.872	1117
1044.036	836.42
1044.2	916.3
1044.364	1655.61
1044.528	1829.69
1044.691	5432.07
1044.855	1039.17
1045.019	1596.22
1045.183	1461.06
1045.346	1129.28
1045.51	871.24
1045.674	1485.63
1045.837	1403.71
1046.001	1119.04
1046.165	965.45
1046.328	1905.46
1046.492	1471.29
1046.655	1151.81
1046.819	1033.03
1046.983	1164.1
1047.146	1311.55
1047.31	1033.03
1047.473	750.41
1047.636	1321.79
1047.8	1071.94
1047.963	885.58
1048.127	932.68
1048.29	1043.27
