Data from Hydrogel_Ink_Intensity_Test_1_USB4F045381__18__00018.txt Node

Date: Mon Jul 31 10:39:08 EDT 2023
User: mmckonesweet
Spectrometer: USB4F04538
Trigger mode: 4
Integration Time (sec): 9.000000E-1
Scans to average: 1
Electric dark correction enabled: true
Nonlinearity correction enabled: false
Boxcar width: 0
XAxis mode: Wavelengths
Number of Pixels in Spectrum: 3648
>>>>>Begin Spectral Data<<<<<
345.52	-976.71
345.736	-976.71
345.952	-976.71
346.168	-943.94
346.384	-931.66
346.6	-98.13
346.816	-206.67
347.032	-190.29
347.248	250.02
347.464	-137.04
347.68	-30.55
347.896	104.62
348.112	313.51
348.328	-36.69
348.544	-128.85
348.76	-96.08
348.975	256.17
349.191	-178
349.407	-114.52
349.623	24.75
349.839	4.27
350.055	6.31
350.27	143.53
350.486	315.56
350.702	426.15
350.918	387.24
351.133	-38.74
351.349	254.12
351.565	407.72
351.781	-143.19
351.996	139.43
352.212	407.72
352.428	-218.96
352.644	-155.47
352.859	-120.66
353.075	327.85
353.291	73.9
353.506	43.18
353.722	-180.05
353.938	-22.36
354.153	458.92
354.369	149.67
354.584	-141.14
354.8	293.03
355.016	-255.83
355.231	-161.62
355.447	-63.32
355.662	192.68
355.878	905.37
356.093	-235.35
356.309	45.23
356.524	-173.91
356.74	348.33
356.955	-69.46
357.171	16.55
357.386	221.35
357.602	-132.95
357.817	80.04
358.033	-48.98
358.248	420
358.464	239.78
358.679	-44.88
358.895	-163.67
359.11	63.66
359.325	405.67
359.541	272.55
359.756	129.19
359.972	-130.9
360.187	233.64
360.402	-73.56
360.618	-40.79
360.833	1075.35
361.048	231.59
361.264	-38.74
361.479	45.23
361.694	77.99
361.909	270.5
362.125	-59.22
362.34	75.95
362.555	360.61
362.77	121
362.986	-141.14
363.201	-3.93
363.416	325.8
363.631	121
363.847	-57.17
364.062	-69.46
364.277	297.13
364.492	241.83
364.707	6.31
364.922	-264.02
365.138	344.23
365.353	444.58
365.568	-59.22
365.783	16.55
365.998	223.4
366.213	698.53
366.428	-55.12
366.643	231.59
366.858	426.15
367.073	354.47
367.288	20.65
367.503	-163.67
367.718	184.49
367.933	389.28
368.148	-192.34
368.363	106.67
368.578	108.71
368.793	526.5
369.008	-24.4
369.223	-26.45
369.438	336.04
369.653	577.7
369.868	-145.24
370.083	-5.97
370.298	223.4
370.513	534.69
370.728	233.64
370.943	-3.93
371.157	-63.32
371.372	557.22
371.587	-69.46
371.802	-120.66
372.017	243.88
372.232	563.36
372.446	102.57
372.661	-124.76
372.876	432.29
373.091	366.76
373.306	96.43
373.52	-26.45
373.735	-46.93
373.95	526.5
374.165	129.19
374.379	16.55
374.594	24.75
374.809	321.7
375.023	188.58
375.238	-53.08
375.453	465.06
375.667	-169.81
375.882	-14.17
376.097	4.27
376.311	286.89
376.526	161.96
376.741	51.37
376.955	290.98
377.17	743.58
377.384	751.78
377.599	139.43
377.813	-5.97
378.028	774.3
378.242	305.32
378.457	116.9
378.672	-149.33
378.886	290.98
379.101	209.06
379.315	-89.94
379.53	153.77
379.744	403.62
379.958	401.57
380.173	92.33
380.387	90.28
380.602	317.61
380.816	118.95
381.031	82.09
381.245	129.19
381.459	331.94
381.674	2603.14
381.888	51.37
382.103	299.17
382.317	32.94
382.531	747.68
382.746	161.96
382.96	112.81
383.174	104.62
383.388	630.95
383.603	254.12
383.817	-28.5
384.031	407.72
384.246	714.91
384.46	209.06
384.674	587.94
384.888	358.57
385.103	276.65
385.317	43.18
385.531	282.79
385.745	571.55
385.959	680.1
386.174	137.38
386.388	20.65
386.602	252.07
386.816	118.95
387.03	223.4
387.244	207.02
387.458	420
387.672	540.83
387.887	26.79
388.101	-22.36
388.315	602.27
388.529	383.14
388.743	164.01
388.957	102.57
389.171	637.09
389.385	47.27
389.599	252.07
389.813	362.66
390.027	391.33
390.241	944.28
390.455	268.45
390.669	159.91
390.883	260.26
391.097	743.58
391.311	368.81
391.525	170.15
391.738	606.37
391.952	460.96
392.166	313.51
392.38	118.95
392.594	673.95
392.808	712.86
393.022	348.33
393.236	286.89
393.449	612.51
393.663	577.7
393.877	84.14
394.091	231.59
394.305	280.74
394.518	288.93
394.732	149.67
394.946	270.5
395.16	719.01
395.373	397.48
395.587	223.4
395.801	276.65
396.015	608.42
396.228	637.09
396.442	161.96
396.656	90.28
396.869	647.33
397.083	802.97
397.297	362.66
397.51	227.5
397.724	737.44
397.938	546.98
398.151	223.4
398.365	172.2
398.578	743.58
398.792	815.26
399.005	372.9
399.219	354.47
399.433	594.08
399.646	581.79
399.86	460.96
400.073	606.37
400.287	690.34
400.5	465.06
400.714	563.36
400.927	493.73
401.141	653.47
401.354	1548.44
401.567	665.76
401.781	288.93
401.994	739.49
402.208	1091.74
402.421	370.85
402.635	460.96
402.848	600.23
403.061	759.97
403.275	604.32
403.488	354.47
403.701	1075.35
403.915	770.21
404.128	549.03
404.341	458.92
404.555	794.78
404.768	592.03
404.981	538.79
405.195	411.81
405.408	1120.41
405.621	712.86
405.834	628.9
406.048	446.63
406.261	993.44
406.474	1020.06
406.687	338.09
406.9	606.37
407.114	673.95
407.327	893.09
407.54	358.57
407.753	358.57
407.966	479.4
408.179	862.37
408.392	473.25
408.605	362.66
408.819	831.65
409.032	757.92
409.245	491.68
409.458	762.02
409.671	878.75
409.884	997.53
410.097	485.54
410.31	759.97
410.523	805.02
410.736	745.63
410.949	596.13
411.162	667.81
411.375	1173.66
411.588	1087.64
411.801	782.49
412.014	530.59
412.227	862.37
412.44	694.43
412.653	532.64
412.865	805.02
413.078	1026.2
413.291	946.33
413.504	825.5
413.717	665.76
413.93	1028.25
414.143	587.94
414.356	739.49
414.568	508.07
414.781	1063.07
414.994	975
415.207	772.25
415.42	723.1
415.632	1206.42
415.845	1413.27
416.058	546.98
416.271	659.62
416.483	815.26
416.696	1337.49
416.909	727.2
417.121	731.3
417.334	1048.73
417.547	1480.85
417.759	768.16
417.972	710.82
418.185	850.08
418.397	1177.75
418.61	737.44
418.823	811.17
419.035	1341.59
419.248	923.8
419.46	968.86
419.673	979.1
419.885	1138.84
420.098	975
420.311	936.09
420.523	592.03
420.736	1177.75
420.948	1036.44
421.161	944.28
421.373	757.92
421.586	1112.22
421.798	989.34
422.01	776.35
422.223	1063.07
422.435	1034.39
422.648	1202.33
422.86	1073.31
423.073	1026.2
423.285	1362.07
423.497	929.95
423.71	956.57
423.922	927.9
424.134	1411.22
424.347	1505.43
424.559	1140.89
424.771	1337.49
424.984	1077.4
425.196	1267.86
425.408	856.22
425.621	932
425.833	1620.11
426.045	1517.72
426.257	929.95
426.47	1071.26
426.682	1362.07
426.894	1276.06
427.106	1116.31
427.318	1081.5
427.531	1142.94
427.743	1507.48
427.955	1052.83
428.167	1505.43
428.379	1560.72
428.591	1314.97
428.804	1222.81
429.016	1185.94
429.228	1294.49
429.44	1433.75
429.652	1378.45
429.864	1042.59
430.076	1423.51
430.288	1458.32
430.5	1292.44
430.712	1388.69
430.924	1710.22
431.136	1501.33
431.348	1175.7
431.56	1241.24
431.772	1589.39
431.984	1411.22
432.196	1241.24
432.408	1421.46
432.62	1558.67
432.832	1573.01
433.044	1564.82
433.256	1556.63
433.468	1736.85
433.679	1212.57
433.891	1357.97
434.103	1622.16
434.315	2001.04
434.527	1820.81
434.739	1587.35
434.95	1742.99
435.162	1966.22
435.374	1630.35
435.586	1532.05
435.798	1534.1
436.009	1583.25
436.221	1734.8
436.433	1527.96
436.645	1564.82
436.856	1595.54
437.068	2064.52
437.28	1656.98
437.491	1937.55
437.703	1968.27
437.915	1874.06
438.126	1683.6
438.338	1865.87
438.55	1910.93
438.761	2066.57
438.973	1804.43
439.184	1644.69
439.396	1968.27
439.608	2037.9
439.819	1593.49
440.031	1814.67
440.242	2076.81
440.454	1984.65
440.665	1872.01
440.877	1964.17
441.088	2095.24
441.3	1886.35
441.511	1806.48
441.723	1673.36
441.934	2007.18
442.146	1927.31
442.357	2039.95
442.569	2001.04
442.78	2023.56
442.991	2504.84
443.203	2312.33
443.414	1829.01
443.626	2594.95
443.837	1978.51
444.048	1888.4
444.26	1814.67
444.471	2031.76
444.682	2279.56
444.894	1734.8
445.105	1755.28
445.316	2418.82
445.528	2361.48
445.739	2119.82
445.95	2050.19
446.161	2259.08
446.373	2537.6
446.584	2107.53
446.795	2218.12
447.006	2486.4
447.217	2680.96
447.429	1820.81
447.64	1915.02
447.851	2586.76
448.062	2310.28
448.273	2009.23
448.484	2179.21
448.695	2547.84
448.907	2191.5
449.118	2257.03
449.329	2386.05
449.54	2257.03
449.751	2439.3
449.962	2166.92
450.173	2222.22
450.384	2723.97
450.595	2963.58
450.806	2375.81
451.017	2355.33
451.228	2840.7
451.439	2758.78
451.65	2496.64
451.861	2171.02
452.072	2467.97
452.283	2588.8
452.494	2623.62
452.705	2341
452.915	3125.37
453.126	2652.29
453.337	2422.92
453.548	2592.9
453.759	2965.63
453.97	3244.15
454.181	2734.21
454.391	2648.19
454.602	2902.14
454.813	2945.15
455.024	2721.92
455.235	2592.9
455.445	2902.14
455.656	3027.07
455.867	2744.45
456.078	2721.92
456.288	2771.07
456.499	3184.76
456.71	2734.21
456.921	2990.21
457.131	3262.58
457.342	3102.84
457.553	2857.09
457.763	2812.03
457.974	3266.68
458.184	3379.32
458.395	2787.46
458.606	2887.81
458.816	3557.49
459.027	3639.41
459.237	3197.05
459.448	2807.94
459.659	3532.92
459.869	3848.3
460.08	2963.58
460.29	3438.71
460.501	3795.06
460.711	3487.86
460.922	2930.81
461.132	3199.1
461.343	4067.44
461.553	3113.08
461.764	3436.66
461.974	3319.93
462.184	3801.2
462.395	3668.08
462.605	3643.51
462.816	3397.75
463.026	3668.08
463.236	4169.84
463.447	3504.25
463.657	3520.63
463.867	4132.97
464.078	3885.17
464.288	3743.86
464.498	3874.93
464.709	4059.24
464.919	3960.94
465.129	3842.16
465.339	3836.02
465.55	3948.65
465.76	4270.19
465.97	4022.38
466.18	4065.39
466.391	4630.63
466.601	4427.88
466.811	4204.65
467.021	3965.04
467.231	4456.55
467.441	4673.64
467.651	4511.85
467.862	4061.29
468.072	4728.93
468.282	5013.6
468.492	4487.27
468.702	4593.76
468.912	4876.38
469.122	5429.34
469.332	4948.06
469.542	4622.44
469.752	5128.28
469.962	5161.05
470.172	4810.85
470.382	4929.63
470.592	5359.7
470.802	5673.04
471.012	5179.48
471.222	5120.09
471.432	5648.47
471.642	5775.44
471.852	5466.2
472.062	5369.94
472.272	5627.99
472.482	5548.12
472.691	5601.37
472.901	5421.14
473.111	5978.19
473.321	6639.69
473.531	5634.13
473.741	5834.83
473.95	6301.77
474.16	6355.02
474.37	6193.23
474.58	5953.62
474.79	6871.11
474.999	6629.45
475.209	6119.5
475.419	6215.76
475.628	6627.4
475.838	6885.44
476.048	6307.91
476.258	6475.85
476.467	7249.98
476.677	6953.02
476.886	7129.15
477.096	7020.61
477.306	7225.4
477.515	7518.26
477.725	7172.16
477.935	7317.56
478.144	7753.78
478.354	7315.52
478.563	7385.15
478.773	7583.8
478.982	7829.56
479.192	8190
479.401	8040.5
479.611	7807.03
479.82	7854.13
480.03	8083.5
480.239	7968.82
480.449	8187.95
480.658	8783.91
480.868	8599.59
481.077	8437.8
481.287	8355.88
481.496	8882.21
481.705	9267.23
481.915	8869.92
482.124	8730.66
482.333	9058.34
482.543	9545.75
482.752	8986.66
482.961	8894.5
483.171	9406.49
483.38	9156.64
483.589	9343
483.799	9283.61
484.008	9695.25
484.217	9791.51
484.426	9644.06
484.636	9508.89
484.845	9799.7
485.054	9801.75
485.263	10244.11
485.472	9744.41
485.682	10479.63
485.891	10102.8
486.1	9887.76
486.309	10209.29
486.518	10545.16
486.727	11034.63
486.936	10393.61
487.146	10414.09
487.355	10919.94
487.564	10545.16
487.773	10883.08
487.982	10582.03
488.191	10801.16
488.4	11145.22
488.609	10915.84
488.818	10997.76
489.027	11837.43
489.236	11757.56
489.445	11249.66
489.654	11261.95
489.863	11798.52
490.072	11687.93
490.281	11890.68
490.49	11675.64
490.698	12228.59
490.907	12328.94
491.116	11939.83
491.325	11786.23
491.534	12312.56
491.743	12224.5
491.952	12165.11
492.16	12204.02
492.369	12423.15
492.578	12795.88
492.787	12382.19
492.996	12140.53
493.204	12388.33
493.413	13141.99
493.622	12199.92
493.831	12414.96
494.039	13469.66
494.248	12703.72
494.457	12812.26
494.665	12980.2
494.874	13514.72
495.083	13930.45
495.291	12900.33
495.5	13068.26
495.709	13617.11
495.917	13686.75
496.126	13381.6
496.335	13506.52
496.543	13436.89
496.752	13864.92
496.96	13889.49
497.169	13471.71
497.377	13758.42
497.586	14208.98
497.794	14110.68
498.003	13694.94
498.211	14071.76
498.42	14403.53
498.628	14215.12
498.837	14116.82
499.045	14483.41
499.254	14653.39
499.462	14235.6
499.671	14565.32
499.879	15052.74
500.087	15128.52
500.296	14413.77
500.504	14835.66
500.713	14976.97
500.921	15708.09
501.129	14780.36
501.338	14874.57
501.546	15286.21
501.754	15407.04
501.962	15339.46
502.171	14864.33
502.379	15536.06
502.587	15972.28
502.795	15548.35
503.004	15359.94
503.212	15663.04
503.42	15747
503.628	15554.49
503.837	15808.44
504.045	15992.76
504.253	16297.91
504.461	15689.66
504.669	15550.4
504.877	15929.27
505.085	16551.85
505.294	15947.7
505.502	16035.77
505.71	16504.75
505.918	16482.22
506.126	16150.45
506.334	16089.01
506.542	16363.44
506.75	16646.06
506.958	16615.34
507.166	16594.86
507.374	16564.14
507.582	17125.29
507.79	16603.05
507.998	16392.11
508.206	16916.39
508.414	16809.9
508.622	16551.85
508.83	16621.49
509.037	17358.75
509.245	16983.98
509.453	16861.1
509.661	17035.17
509.869	17545.12
510.077	17266.6
510.285	17190.82
510.492	16848.81
510.7	17932.19
510.908	17315.75
511.116	17297.31
511.324	17305.51
511.531	17098.66
511.739	17627.04
511.947	17577.89
512.155	17633.18
512.362	17629.09
512.57	17631.13
512.778	17471.39
512.985	17282.98
513.193	18182.04
513.401	18460.56
513.608	17848.22
513.816	17985.43
514.024	18323.35
514.231	18507.66
514.439	17782.68
514.646	18163.61
514.854	18718.61
515.061	18263.96
515.269	18061.21
515.477	18343.83
515.684	18313.11
515.892	18964.36
516.099	18192.28
516.307	18343.83
516.514	19009.42
516.722	19238.79
516.929	18648.97
517.136	18243.48
517.344	19163.01
517.551	19201.93
517.759	18601.87
517.966	18898.83
518.173	18810.76
518.381	18907.02
518.588	19052.42
518.796	18755.47
519.003	19238.79
519.21	19281.8
519.418	19058.57
519.625	19541.89
519.832	19296.13
520.039	19414.91
520.247	19281.8
520.454	19271.56
520.661	19908.47
520.868	19496.83
521.076	19818.36
521.283	19384.19
521.49	20275.06
521.697	20135.8
521.904	19957.63
522.112	20027.26
522.319	20287.35
522.526	19953.53
522.733	19918.71
522.94	19816.32
523.147	20244.34
523.354	20090.74
523.561	20113.27
523.768	20430.71
523.975	20842.35
524.183	20635.5
524.39	20653.94
524.597	20207.48
524.804	20823.92
525.011	20629.36
525.218	20516.72
525.425	20463.47
525.632	21096.3
525.838	20885.36
526.045	20764.53
526.252	20713.33
526.459	22290.26
526.666	21923.68
526.873	21198.7
527.08	21219.17
527.287	21651.3
527.494	21499.75
527.701	21327.72
527.907	21063.53
528.114	21577.57
528.321	21686.11
528.528	21297
528.735	21706.59
528.941	21774.17
529.148	21354.34
529.355	21800.8
529.562	21215.08
529.768	22376.28
529.975	21708.64
530.182	21890.91
530.388	21581.67
530.595	22376.28
530.802	21786.46
531.008	22206.3
531.215	22290.26
531.422	23199.56
531.628	23203.66
531.835	22179.67
532.042	22151
532.248	22394.71
532.455	22595.41
532.661	22343.51
532.868	22177.62
533.074	22744.91
533.281	23168.84
533.487	22806.35
533.694	22497.11
533.9	22939.47
534.107	22939.47
534.313	22669.14
534.52	22775.63
534.726	23394.12
534.933	23920.45
535.139	22755.15
535.345	22974.28
535.552	23301.96
535.758	23377.73
535.965	23285.58
536.171	23148.36
536.377	23617.35
536.584	24049.47
536.79	23279.43
536.996	23662.4
537.203	24162.11
537.409	23635.78
537.615	23686.98
537.821	23662.4
538.028	24155.96
538.234	23932.73
538.44	23541.57
538.646	24043.32
538.853	24219.45
539.059	24176.44
539.265	24454.97
539.471	24229.69
539.677	24356.66
539.883	24395.57
540.09	24158.01
540.296	24856.37
540.502	24850.22
540.708	24489.78
540.914	24749.87
541.12	24506.16
541.326	25427.75
541.532	24915.76
541.738	24971.05
541.944	25138.99
542.15	25577.25
542.356	25239.34
542.562	24817.46
542.768	24811.31
542.974	25937.69
543.18	25786.15
543.386	25372.46
543.592	25104.17
543.798	25904.93
544.004	25714.47
544.21	25169.71
544.415	25474.85
544.621	26109.72
544.827	25964.32
545.033	25591.59
545.239	25806.62
545.445	25952.03
545.651	26001.18
545.856	25788.19
546.062	25980.7
546.268	25952.03
546.474	25941.79
546.679	25757.47
546.885	25917.22
547.091	25784.1
547.297	26361.62
547.502	25784.1
547.708	25700.13
547.914	26015.52
548.119	26375.96
548.325	25978.65
548.531	25855.78
548.736	26687.25
548.942	26165.02
549.147	25976.61
549.353	26431.26
549.559	27180.81
549.764	26773.27
549.97	26072.86
550.175	26365.72
550.381	27033.36
550.586	26234.65
550.792	26613.52
550.997	26529.56
551.203	26861.33
551.408	27039.5
551.614	26859.28
551.819	26986.25
552.025	27541.25
552.23	27713.28
552.435	27037.45
552.641	27733.76
552.846	27678.47
553.052	28354.3
553.257	27641.6
553.462	27555.59
553.668	27307.79
553.873	27963.14
554.078	27766.53
554.283	27590.41
554.489	28251.9
554.694	28024.58
554.899	28024.58
555.105	28028.67
555.31	28051.2
555.515	28270.33
555.72	27940.61
555.925	27592.45
556.131	28522.23
556.336	27891.46
556.541	28094.21
556.746	28129.02
556.951	28790.52
557.156	28872.43
557.361	28417.79
557.567	28468.98
557.772	29134.57
557.977	28528.38
558.182	28241.66
558.387	28108.54
558.592	28249.85
558.797	29001.46
559.002	28815.09
559.207	28741.36
559.412	28921.59
559.617	29150.96
559.822	28794.61
560.027	28657.4
560.232	28880.63
560.437	29228.78
560.642	28919.54
560.847	28755.7
561.051	29054.7
561.256	29069.04
561.461	28874.48
561.666	29124.33
561.871	29259.5
562.076	29394.67
562.281	29161.2
562.485	29105.9
562.69	29728.49
562.895	29423.34
563.1	29212.4
563.305	29099.76
563.509	29599.46
563.714	30287.58
563.919	29271.79
564.123	29198.06
564.328	29742.82
564.533	30328.54
564.737	29380.33
564.942	29288.17
565.147	30138.08
565.351	30400.22
565.556	29290.22
565.761	29896.42
565.965	30035.68
566.17	29763.3
566.374	29499.11
566.579	29617.89
566.784	29884.13
566.988	30080.74
567.193	30103.26
567.397	29847.27
567.602	29955.81
567.806	30289.63
568.011	29802.21
568.215	30686.93
568.42	30160.61
568.624	30459.61
568.828	29918.95
569.033	30357.21
569.237	30930.64
569.442	30783.19
569.646	29828.84
569.85	30615.26
570.055	30650.07
570.259	30947.03
570.463	30684.89
570.668	30654.17
570.872	30652.12
571.076	30793.43
571.281	30668.5
571.485	30641.88
571.689	30824.15
571.893	31166.16
572.098	31151.82
572.302	31119.06
572.506	31030.99
572.71	31321.8
572.914	30795.48
573.119	31182.54
573.323	31639.24
573.527	31608.52
573.731	31280.85
573.935	31313.61
574.139	31346.38
574.343	30930.64
574.547	31180.49
574.751	31479.5
574.955	31979.2
575.159	32134.85
575.364	31510.22
575.568	31168.21
575.772	31459.02
575.976	32276.16
576.18	31135.44
576.383	31540.94
576.587	32462.52
576.791	31893.19
576.995	31655.62
577.199	31735.49
577.403	32257.73
577.607	32536.25
577.811	32069.31
578.015	31717.06
578.219	32546.49
578.422	32609.98
578.626	32181.95
578.83	32450.24
579.034	32853.69
579.238	32464.57
579.442	31905.48
579.645	32802.49
579.849	32456.38
580.053	32798.39
580.257	31956.68
580.46	32739
580.664	32677.56
580.868	32954.04
581.071	32917.17
581.275	32904.88
581.479	32265.92
581.682	32755.38
581.886	32499.39
582.09	32671.42
582.293	33275.57
582.497	33195.7
582.7	33054.39
582.904	33076.91
583.107	33007.28
583.311	32857.78
583.515	33117.87
583.718	33248.94
583.922	33629.87
584.125	33838.76
584.329	33285.81
584.532	33040.05
584.735	33842.85
584.939	33414.83
585.142	33214.13
585.346	33101.49
585.549	33740.46
585.753	33588.91
585.956	33494.7
586.159	33789.61
586.363	34612.89
586.566	34234.02
586.769	33765.03
586.973	33511.08
587.176	33914.53
587.379	34297.5
587.582	34086.56
587.786	33805.99
587.989	34303.65
588.192	34766.49
588.395	34238.11
588.599	34205.34
588.802	34864.79
589.005	34404
589.208	34309.79
589.411	34399.9
589.615	34272.93
589.818	35251.86
590.021	34838.17
590.224	34571.93
590.427	34608.79
590.63	34854.55
590.833	34102.95
591.036	34477.72
591.239	34799.26
591.442	34971.29
591.645	34973.33
591.848	34866.84
592.051	35550.86
592.254	35159.7
592.457	35217.04
592.66	34915.99
592.863	35575.44
593.066	35237.52
593.269	34911.89
593.472	35470.99
593.675	35446.41
593.878	35505.8
594.081	35010.2
594.284	35493.52
594.486	35833.48
594.689	35825.29
594.892	35458.7
595.095	35501.71
595.298	36073.09
595.5	35692.17
595.703	36261.51
595.906	35765.9
596.109	36204.16
596.311	36314.75
596.514	35034.77
596.717	35759.75
596.92	36765.31
597.122	35901.06
597.325	35436.17
597.528	36073.09
597.73	36513.41
597.933	36023.94
598.136	36255.36
598.338	35892.87
598.541	36705.91
598.743	36972.15
598.946	36259.46
599.148	36644.48
599.351	36951.67
599.554	37301.87
599.756	36318.85
599.959	37248.63
600.161	36533.89
600.363	37404.27
600.566	36836.98
600.768	36789.88
600.971	37484.14
601.173	37113.46
601.376	36976.25
601.578	36839.03
601.78	37021.3
601.983	37580.4
602.185	36890.23
602.388	37031.54
602.59	37273.2
602.792	37066.36
602.995	36871.8
603.197	36779.64
603.399	37303.92
603.601	37439.09
603.804	36615.8
604.006	36980.34
604.208	37275.25
604.41	37054.07
604.613	37531.25
604.815	36796.03
605.017	37623.4
605.219	36867.7
605.421	37457.52
605.623	37152.37
605.826	38313.57
606.028	37660.27
606.23	37635.69
606.432	37566.06
606.634	38180.45
606.836	37975.66
607.038	37357.17
607.24	37531.25
607.442	37432.94
607.644	37863.02
607.846	37543.53
608.048	37566.06
608.25	38114.92
608.452	37428.85
608.654	38078.05
608.856	37172.85
609.058	37895.78
609.26	38047.33
609.462	37396.08
609.664	37701.23
609.866	37791.34
610.067	38135.4
610.269	37768.81
610.471	37525.1
610.673	37828.2
610.875	38254.18
611.077	37529.2
611.278	37525.1
611.48	38110.82
611.682	38073.96
611.884	38188.64
612.085	37533.29
612.287	37885.54
612.489	38186.6
612.69	37670.51
612.892	37977.7
613.094	38391.39
613.295	37873.26
613.497	37348.98
613.699	37887.59
613.9	38688.35
614.102	38254.18
614.304	38033
614.505	37207.67
614.707	38178.4
614.908	37916.26
615.11	37551.73
615.311	37826.15
615.513	38415.97
615.714	38719.07
615.916	37944.94
616.117	37912.17
616.319	38346.34
616.52	38708.83
616.722	38112.87
616.923	38190.69
617.124	38403.68
617.326	38272.61
617.527	38358.63
617.729	38329.95
617.93	38397.54
618.131	38880.86
618.333	38213.22
618.534	38192.74
618.735	38059.62
618.937	38778.46
619.138	38008.42
619.339	38305.38
619.54	38661.72
619.742	38858.33
619.943	38549.09
620.144	38827.61
620.345	38665.82
620.546	38737.5
620.748	38573.66
620.949	38450.78
621.15	38921.82
621.351	38643.29
621.552	38325.86
621.753	38280.8
621.954	38514.27
622.155	38719.07
622.356	38301.28
622.558	38397.54
622.759	38774.36
622.96	38932.06
623.161	38520.41
623.362	38501.98
623.563	39001.69
623.764	38966.87
623.965	38639.2
624.166	39429.71
624.366	38663.77
624.567	38903.39
624.768	38458.98
624.969	38282.85
625.17	38770.27
625.371	39267.92
625.572	38370.91
625.773	38540.89
625.973	39145.05
626.174	38919.77
626.375	39136.85
626.576	38760.03
626.777	39034.46
626.977	39251.54
627.178	38805.08
627.379	38714.97
627.58	39099.99
627.78	39050.84
627.981	38712.92
628.182	38948.44
628.382	38975.06
628.583	39102.04
628.784	38600.29
628.984	38837.85
629.185	39466.58
629.386	39179.86
629.586	39208.53
629.787	38825.56
629.987	39491.15
630.188	39288.4
630.388	38647.39
630.589	38751.84
630.79	40074.82
630.99	39546.45
631.191	39089.75
631.391	39681.61
631.591	39259.73
631.792	39648.85
631.992	39589.45
632.193	39261.78
632.393	39749.2
632.594	39470.67
632.794	39169.62
632.994	39280.21
633.195	39501.39
633.395	39843.4
633.595	39425.62
633.796	40033.86
633.996	39700.04
634.196	39980.62
634.397	39390.8
634.597	39616.08
634.797	39513.68
634.997	39999.05
635.198	39302.74
635.398	39114.33
635.598	40021.58
635.798	40134.21
635.998	39640.65
636.199	39216.72
636.399	40091.21
636.599	39900.75
636.799	39624.27
636.999	39980.62
637.199	40017.48
637.399	40349.25
637.599	39665.23
637.799	39523.92
637.999	40009.29
638.199	40646.21
638.399	40080.97
638.599	39753.29
638.799	40267.33
638.999	40875.58
639.199	40394.31
639.399	39827.02
639.599	40595.01
639.799	39579.21
639.999	40066.63
640.199	39720.52
640.399	40261.19
640.599	39306.83
640.799	40418.88
640.998	40232.52
641.198	40406.59
641.398	40040.01
641.598	40445.51
641.798	40461.89
641.997	41281.08
642.197	40302.15
642.397	40674.88
642.597	40715.84
642.796	40678.97
642.996	40769.08
643.196	40412.74
643.395	40271.43
643.595	40879.67
643.795	40087.11
643.994	40273.48
644.194	40310.34
644.394	40826.43
644.593	40756.8
644.793	40605.25
644.992	40912.44
645.192	40625.73
645.392	40785.47
645.591	40793.66
645.791	40298.05
645.99	40930.87
646.19	40769.08
646.389	40906.3
646.589	40615.49
646.788	41082.42
646.987	41162.29
647.187	41354.8
647.386	40734.27
647.586	40822.33
647.785	41621.04
647.984	40678.97
648.184	41221.69
648.383	40869.44
648.582	40789.56
648.782	41008.7
648.981	41014.84
649.18	40928.83
649.38	41432.63
649.579	41121.34
649.778	41076.28
649.977	41512.5
650.177	41338.42
650.376	41002.55
650.575	40650.3
650.774	41340.47
650.973	41233.97
651.173	40373.83
651.372	40992.31
651.571	41612.85
651.77	41608.75
651.969	41090.62
652.168	41412.15
652.367	40918.59
652.566	41530.93
652.765	41371.19
652.964	41451.06
653.163	41223.73
653.362	41016.89
653.561	41113.14
653.76	41432.63
653.959	41309.75
654.158	42067.5
654.357	41442.87
654.556	41207.35
654.755	41801.26
654.954	41741.87
655.153	41172.53
655.352	41252.41
655.551	41895.47
655.749	41866.8
655.948	41389.62
656.147	41879.08
656.346	42124.84
656.545	41713.2
656.743	41506.35
656.942	41322.04
657.141	41733.68
657.34	41487.92
657.538	41424.43
657.737	41582.13
657.936	41549.36
658.135	41997.87
658.333	41289.27
658.532	41649.71
658.731	42171.94
658.929	41973.29
659.128	41584.18
659.326	41604.66
659.525	42094.12
659.724	42100.26
659.922	41621.04
660.121	41444.91
660.319	41520.69
660.518	41707.05
660.716	41526.83
660.915	41512.5
661.113	42454.56
661.312	41946.67
661.51	41942.57
661.709	41500.21
661.907	42114.6
662.105	42462.75
662.304	41741.87
662.502	41543.22
662.701	42399.27
662.899	42114.6
663.097	42200.61
663.296	41580.08
663.494	42176.04
663.692	42819.1
663.891	42032.68
664.089	41662
664.287	42147.37
664.485	42079.78
664.684	42026.54
664.882	41836.08
665.08	41844.27
665.278	41809.45
665.476	41850.41
665.675	42169.9
665.873	42399.27
666.071	42184.23
666.269	41645.62
666.467	41813.55
666.665	42159.66
666.863	41684.53
667.061	41813.55
667.259	41674.29
667.457	41825.84
667.655	42176.04
667.853	41952.81
668.051	41659.95
668.249	41469.49
668.447	41809.45
668.645	41190.97
668.843	41664.05
669.041	41772.59
669.239	41541.17
669.437	41829.93
669.635	41692.72
669.833	42083.88
670.031	42284.58
670.229	41723.44
670.426	41768.49
670.624	41582.13
670.822	41649.71
671.02	41633.33
671.218	41569.84
671.415	41512.5
671.613	42038.83
671.811	41684.53
672.009	42067.5
672.206	42096.17
672.404	41760.3
672.602	41631.28
672.799	41733.68
672.997	42053.16
673.195	42231.33
673.392	41874.99
673.59	41719.34
673.788	41651.76
673.985	40777.28
674.183	41406
674.38	41385.52
674.578	41877.04
674.775	41729.58
674.973	40875.58
675.17	41309.75
675.368	41981.48
675.565	41432.63
675.763	41260.6
675.96	41451.06
676.158	41799.21
676.355	40801.85
676.553	41526.83
676.75	41209.4
676.947	41655.86
677.145	41909.8
677.342	41537.07
677.539	41434.67
677.737	41489.97
677.934	41932.33
678.131	41188.92
678.329	41334.32
678.526	41678.38
678.723	41463.35
678.92	41512.5
679.118	41283.12
679.315	40990.27
679.512	42112.55
679.709	41383.48
679.906	40959.55
680.104	41764.4
680.301	41492.02
680.498	40982.07
680.695	41096.76
680.892	41123.38
681.089	40920.63
681.286	41238.07
681.483	40785.47
681.68	41242.17
681.877	41164.34
682.075	40711.74
682.272	41205.3
682.469	41322.04
682.665	41008.7
682.862	40642.11
683.059	40537.66
683.256	41168.44
683.453	40808
683.65	40832.57
683.847	41207.35
684.044	40824.38
684.241	40695.36
684.438	41229.88
684.635	40222.28
684.831	41303.6
685.028	40908.35
685.225	40588.86
685.422	40468.03
685.619	40515.14
685.815	40846.91
686.012	40322.63
686.209	40275.52
686.405	40375.87
686.602	40756.8
686.799	40058.44
686.996	40707.65
687.192	39902.79
687.389	40721.98
687.586	40224.32
687.782	40314.44
687.979	40721.98
688.175	40642.11
688.372	39988.81
688.568	40400.45
688.765	39892.55
688.962	40656.45
689.158	40547.9
689.355	40195.65
689.551	40242.76
689.748	39806.54
689.944	39880.27
690.14	40189.51
690.337	40478.27
690.533	40599.1
690.73	40064.58
690.926	40173.13
691.123	39931.47
691.319	39964.23
691.515	40064.58
691.712	39923.27
691.908	39968.33
692.104	39863.88
692.301	40031.82
692.497	39212.63
692.693	40138.31
692.889	40382.02
693.086	39646.8
693.282	39757.39
693.478	39951.95
693.674	40666.69
693.87	39761.48
694.067	39628.37
694.263	40273.48
694.459	39745.1
694.655	40302.15
694.851	39736.91
695.047	40226.37
695.243	40224.32
695.439	39460.43
695.635	39659.09
695.831	39831.11
696.027	39673.42
696.224	39097.94
696.42	39974.47
696.615	40310.34
696.811	40144.45
697.007	39310.93
697.203	39186
697.399	39261.78
697.595	39646.8
697.791	39108.18
697.987	39294.55
698.183	39269.97
698.379	38710.88
698.575	39016.02
698.77	39087.7
698.966	39489.1
699.162	39870.03
699.358	39036.5
699.554	39226.96
699.749	39431.76
699.945	39261.78
700.141	39099.99
700.337	39452.24
700.532	39306.83
700.728	38944.34
700.924	38848.09
701.119	38409.82
701.315	39099.99
701.511	38821.47
701.706	39151.19
701.902	38235.75
702.097	38739.55
702.293	39310.93
702.489	38925.91
702.684	38837.85
702.88	39011.93
703.075	38997.59
703.271	38733.4
703.466	38680.16
703.662	38809.18
703.857	39265.88
704.053	38245.99
704.248	38770.27
704.443	39196.24
704.639	38934.1
704.834	38299.23
705.03	38688.35
705.225	38628.96
705.42	38895.19
705.616	38903.39
705.811	38489.7
706.006	38788.7
706.202	38282.85
706.397	38458.98
706.592	38276.71
706.787	38329.95
706.983	38571.61
707.178	38989.4
707.373	38385.25
707.568	38903.39
707.763	38735.45
707.959	38491.74
708.154	38493.79
708.349	38047.33
708.544	38401.63
708.739	38170.21
708.934	38024.81
709.129	38473.31
709.324	38387.3
709.519	38248.04
709.714	38073.96
709.909	38891.1
710.104	38637.15
710.299	38313.57
710.494	37932.65
710.689	38149.73
710.884	38196.84
711.079	38532.7
711.274	38278.75
711.469	38340.19
711.664	38383.2
711.859	37854.83
712.054	38196.84
712.249	38319.71
712.443	38602.33
712.638	38028.9
712.833	37733.99
713.028	38123.11
713.223	38098.53
713.417	37877.35
713.612	37973.61
713.807	38676.06
714.002	38383.2
714.196	38291.04
714.391	37639.79
714.586	38045.29
714.78	37983.85
714.975	37793.39
715.17	37332.59
715.364	38016.61
715.559	38090.34
715.754	36843.13
715.948	37232.24
716.143	37725.8
716.337	37625.45
716.532	38082.15
716.726	37631.6
716.921	37684.84
717.115	38225.51
717.31	37475.95
717.504	38436.45
717.699	37893.74
717.893	37449.33
718.088	36845.18
718.282	37275.25
718.476	37308.02
718.671	37426.8
718.865	37099.12
719.059	36992.63
719.254	37004.92
719.448	37580.4
719.642	38411.87
719.837	36587.13
720.031	37461.62
720.225	37432.94
720.419	37156.47
720.614	36828.79
720.808	37256.82
721.002	36963.96
721.196	37000.82
721.39	36767.35
721.585	37211.76
721.779	36941.43
721.973	36810.36
722.167	36050.56
722.361	36810.36
722.555	37303.92
722.749	36234.88
722.943	36503.17
723.137	36660.86
723.331	36773.5
723.525	36691.58
723.719	36589.18
723.913	36882.04
724.107	36298.37
724.301	36423.29
724.495	35946.12
724.689	36716.15
724.883	36636.28
725.077	36257.41
725.271	36683.39
725.465	36650.62
725.659	36247.17
725.853	36650.62
726.046	36040.32
726.24	35708.55
726.434	36363.9
726.628	36365.95
726.822	36437.63
727.015	36943.48
727.209	36388.48
727.403	36284.03
727.596	35905.16
727.79	36462.21
727.984	36621.95
728.177	36288.13
728.371	35972.74
728.565	36902.52
728.758	36232.83
728.952	35954.31
729.146	36193.92
729.339	36456.06
729.533	36093.57
729.726	36001.41
729.92	36288.13
730.113	36695.67
730.307	36429.44
730.5	36148.87
730.694	36505.21
730.887	36146.82
731.081	36669.05
731.274	36247.17
731.468	36175.49
731.661	35958.41
731.854	36169.35
732.048	36349.57
732.241	36038.28
732.435	36384.38
732.628	36429.44
732.821	35894.92
733.014	35831.43
733.208	36486.78
733.401	36554.36
733.594	36169.35
733.788	36099.72
733.981	36386.43
734.174	36308.61
734.367	36304.51
734.56	36189.83
734.754	36392.58
734.947	36347.52
735.14	36189.83
735.333	36329.09
735.526	36261.51
735.719	35989.13
735.912	36099.72
736.105	35292.82
736.298	36030.08
736.491	36161.15
736.684	35919.49
736.877	36034.18
737.07	35976.84
737.263	36181.63
737.456	35405.45
737.649	35534.48
737.842	36062.85
738.035	35649.16
738.228	35374.73
738.421	35917.45
738.614	36441.73
738.807	36124.29
739	35194.51
739.192	35446.41
739.385	36073.09
739.578	35831.43
739.771	35591.82
739.964	35716.75
740.156	35606.16
740.349	35468.94
740.542	35683.98
740.735	35233.43
740.927	35397.26
741.12	35341.97
741.313	35229.33
741.505	35604.11
741.698	35753.61
741.891	35702.41
742.083	35524.24
742.276	35366.54
742.468	35526.28
742.661	35303.06
742.854	35384.97
743.046	35231.38
743.239	35835.53
743.431	35700.36
743.624	35010.2
743.816	35002
744.009	35274.38
744.201	35569.29
744.393	35153.55
744.586	34913.94
744.778	35460.75
744.971	35272.34
745.163	35077.78
745.355	34938.52
745.548	35288.72
745.74	35085.97
745.932	34932.37
746.125	34870.93
746.317	35968.65
746.509	34926.23
746.702	34926.23
746.894	35008.15
747.086	35047.06
747.278	35317.39
747.471	35231.38
747.663	34954.9
747.855	35374.73
748.047	35675.79
748.239	34854.55
748.431	34838.17
748.623	35692.17
748.815	35544.72
749.008	34791.06
749.2	35034.77
749.392	35083.92
749.584	35225.23
749.776	35145.36
749.968	34772.63
750.16	35722.89
750.352	34789.02
750.544	34862.74
750.736	34700.95
750.928	34942.61
751.12	34588.31
751.311	34809.5
751.503	34631.32
751.695	34938.52
751.887	34655.9
752.079	34686.62
752.271	34387.61
752.463	35806.86
752.654	34952.85
752.846	34408.09
753.038	34373.28
753.23	34567.84
753.421	34543.26
753.613	34031.27
753.805	34576.03
753.997	34291.36
754.188	35004.05
754.38	34238.11
754.572	34422.43
754.763	34782.87
754.955	34555.55
755.146	34317.98
755.338	34199.2
755.53	34227.87
755.721	34274.98
755.913	33910.44
756.104	33648.3
756.296	34256.54
756.487	34129.57
756.679	33978.02
756.87	33416.88
757.062	33488.56
757.253	34031.27
757.445	34051.75
757.636	33658.54
757.827	33781.42
758.019	34490.01
758.21	33703.59
758.401	33752.74
758.593	34084.51
758.784	33717.93
758.975	33210.03
759.167	33492.65
759.358	33605.29
759.549	33873.57
759.74	33152.69
759.932	33267.38
760.123	33726.12
760.314	33052.34
760.505	33257.14
760.696	32894.64
760.888	33842.85
761.079	33128.11
761.27	32921.27
761.461	32904.88
761.652	33300.14
761.843	33167.02
762.034	33009.33
762.225	33007.28
762.416	33269.42
762.607	32712.38
762.798	32634.55
762.989	32566.97
763.18	33822.37
763.371	32542.39
763.562	32333.5
763.753	32675.51
763.944	32872.12
764.135	32732.86
764.326	32267.97
764.517	32085.7
764.708	32794.29
764.899	32620.22
765.089	32280.25
765.28	32302.78
765.471	32341.69
765.662	32544.44
765.853	32208.58
766.043	31712.97
766.234	32716.47
766.425	32507.58
766.615	32343.74
766.806	31819.46
766.997	32634.55
767.187	32528.06
767.378	31805.13
767.569	31538.89
767.759	31973.06
767.95	32431.8
768.141	32110.27
768.331	31608.52
768.522	31837.89
768.712	31903.43
768.903	31663.82
769.093	31182.54
769.284	31983.3
769.474	31606.47
769.665	30955.22
769.855	31379.15
770.046	31903.43
770.236	31516.36
770.426	31330
770.617	31411.92
770.807	31377.1
770.998	31188.69
771.188	31145.68
771.378	31039.19
771.569	31571.66
771.759	31336.14
771.949	30734.04
772.139	30963.41
772.33	31080.14
772.52	31631.05
772.71	30971.6
772.9	30652.12
773.09	30994.13
773.281	31110.86
773.471	30236.38
773.661	30658.26
773.851	30717.65
774.041	30680.79
774.231	30588.63
774.421	30453.47
774.611	31016.66
774.802	30633.69
774.992	30445.27
775.182	29845.22
775.372	30926.55
775.562	30564.06
775.752	30228.19
775.942	29798.12
776.131	30392.03
776.321	30346.97
776.511	30127.84
776.701	30179.04
776.891	30293.72
777.081	29945.57
777.271	29890.27
777.461	30007.01
777.651	30252.77
777.84	30322.4
778.03	30117.6
778.22	29402.86
778.41	30015.2
778.599	30070.5
778.789	29488.87
778.979	29560.55
779.169	30054.11
779.358	29769.44
779.548	29800.16
779.738	29603.56
779.927	29390.57
780.117	29531.88
780.307	29331.18
780.496	29163.25
780.686	29863.65
780.875	29939.43
781.065	29423.34
781.254	28980.98
781.444	29441.77
781.633	29380.33
781.823	28964.59
782.012	28712.69
782.202	29091.57
782.391	28911.35
782.581	29009.65
782.77	29161.2
782.96	29488.87
783.149	29028.08
783.338	28917.49
783.528	28448.5
783.717	29527.78
783.906	29515.5
784.096	28757.75
784.285	28645.11
784.474	28722.93
784.663	28616.44
784.853	28456.7
785.042	28643.06
785.231	28878.58
785.42	29001.46
785.61	28370.68
785.799	28325.63
785.988	28366.59
786.177	28008.19
786.366	28471.03
786.555	28485.37
786.744	28649.21
786.933	28227.32
787.122	28155.65
787.312	28253.95
787.501	28219.13
787.69	28536.57
787.879	28065.53
788.068	27909.89
788.257	27811.59
788.445	28055.29
788.634	27889.41
788.823	27909.89
789.012	29095.66
789.201	28675.83
789.39	27778.82
789.579	27729.67
789.768	27721.48
789.957	28092.16
790.145	28047.1
790.334	27168.52
790.523	27358.99
790.712	27561.73
790.9	27539.21
791.089	27027.21
791.278	28051.2
791.467	27676.42
791.655	27569.93
791.844	27797.25
792.033	27146
792.221	27199.24
792.41	27139.85
792.599	26738.45
792.787	27637.51
792.976	27510.53
793.164	27221.77
793.353	27066.13
793.541	27498.25
793.73	27662.08
793.918	27477.77
794.107	26773.27
794.295	27240.2
794.484	27076.37
794.672	27051.79
794.861	26763.03
795.049	27180.81
795.238	27098.89
795.426	26687.25
795.614	26824.47
795.803	27072.27
795.991	27531.01
796.179	26433.3
796.368	26605.33
796.556	27293.45
796.744	26402.58
796.932	26384.15
797.121	26388.25
797.309	26814.23
797.497	27002.64
797.685	26783.51
797.874	26724.11
798.062	26603.28
798.25	26949.39
798.438	26480.41
798.626	26617.62
798.814	26982.16
799.002	27361.03
799.19	26597.14
799.378	26597.14
799.566	26898.19
799.755	27082.51
799.943	26511.13
800.131	26584.85
800.318	26961.68
800.506	26799.89
800.694	26359.58
800.882	26826.51
801.07	27107.09
801.258	26400.54
801.446	26599.19
801.634	26324.76
801.822	26441.5
802.01	26724.11
802.197	26830.61
802.385	26697.49
802.573	26859.28
802.761	26613.52
802.949	26343.19
803.136	26408.73
803.324	26906.38
803.512	26521.37
803.699	26638.1
803.887	26298.14
804.075	27000.59
804.262	26738.45
804.45	26726.16
804.638	26779.41
804.825	26867.47
805.013	26662.68
805.201	26652.44
805.388	26492.69
805.576	27068.17
805.763	27442.95
805.951	26679.06
806.138	26904.34
806.326	27377.42
806.513	27016.97
806.701	26951.44
806.888	27141.9
807.075	27318.03
807.263	27676.42
807.45	26703.64
807.638	26803.99
807.825	27711.24
808.012	27182.86
808.2	26550.04
808.387	27045.65
808.574	27049.74
808.761	27336.46
808.949	26783.51
809.136	26797.84
809.323	26961.68
809.51	27131.66
809.698	27076.37
809.885	26885.9
810.072	27250.44
810.259	27680.52
810.446	26912.53
810.633	26982.16
810.82	27488.01
811.008	27610.89
811.195	27199.24
811.382	26863.38
811.569	27137.8
811.756	26773.27
811.943	27066.13
812.13	27062.03
812.317	26996.49
812.504	27146
812.691	27326.22
812.878	27455.24
813.064	27567.88
813.251	27631.37
813.438	27209.48
813.625	26894.1
813.812	27514.63
813.999	27229.96
814.186	26998.54
814.372	27242.25
814.559	27399.94
814.746	27401.99
814.933	26951.44
815.12	27252.49
815.306	27252.49
815.493	27072.27
815.68	27107.09
815.866	26922.77
816.053	27842.31
816.24	27414.28
816.426	27334.41
816.613	26775.31
816.799	27229.96
816.986	27594.5
817.173	26875.66
817.359	26683.16
817.546	27037.45
817.732	26634
817.919	26681.11
818.105	27111.18
818.292	27004.69
818.478	27453.19
818.665	27270.92
818.851	26752.79
819.037	27203.34
819.224	27123.47
819.41	26412.82
819.597	26681.11
819.783	27127.56
819.969	27262.73
820.156	26603.28
820.342	26580.76
820.528	27844.35
820.714	27027.21
820.901	26781.46
821.087	26535.7
821.273	27363.08
821.459	26412.82
821.646	26812.18
821.832	26470.17
822.018	26703.64
822.204	26732.31
822.39	26482.45
822.576	26191.64
822.762	26408.73
822.948	26418.97
823.134	26537.75
823.32	26203.93
823.507	26330.9
823.693	26408.73
823.879	26539.8
824.065	26187.55
824.25	26443.54
824.436	26152.73
824.622	25976.61
824.808	25874.21
824.994	26107.68
825.18	26175.26
825.366	25997.09
825.552	26181.4
825.738	26597.14
825.923	26412.82
826.109	25990.94
826.295	25544.48
826.481	25825.06
826.667	25745.19
826.852	26015.52
827.038	25816.86
827.224	26447.64
827.409	26394.39
827.595	25675.55
827.781	25906.98
827.966	26584.85
828.152	26044.19
828.338	25995.04
828.523	25384.74
828.709	25548.58
828.894	26238.75
829.08	25270.06
829.266	25483.05
829.451	25530.15
829.637	25704.23
829.822	25372.46
830.008	25368.36
830.193	25622.31
830.378	25794.34
830.564	25446.18
830.749	25153.32
830.935	25616.16
831.12	25468.71
831.305	25159.47
831.491	25257.77
831.676	25065.26
831.861	25405.22
832.047	25347.88
832.232	25124.65
832.417	25491.24
832.602	24971.05
832.788	24887.09
832.973	24672.05
833.158	24882.99
833.343	25181.99
833.528	24979.25
833.714	25308.97
833.899	25169.71
834.084	25335.59
834.269	24975.15
834.454	24457.01
834.639	24942.38
834.824	25124.65
835.009	24799.02
835.194	24670
835.379	25188.14
835.564	24880.94
835.749	24749.87
835.934	24284.98
836.119	25095.98
836.304	24690.48
836.489	24414.01
836.674	24882.99
836.859	24491.83
837.044	25167.66
837.228	24629.04
837.413	24395.57
837.598	24610.61
837.783	24731.44
837.968	24450.87
838.152	23949.12
838.337	23910.21
838.522	24616.76
838.707	24796.98
838.891	24373.05
839.076	24076.09
839.261	24448.82
839.445	24069.95
839.63	23936.83
839.815	24459.06
839.999	24110.91
840.184	23582.53
840.368	23779.14
840.553	24098.62
840.737	24155.96
840.922	23725.89
841.106	23588.67
841.291	23689.03
841.475	23785.28
841.66	23846.72
841.844	23484.23
842.029	24575.8
842.213	23668.55
842.397	23572.29
842.582	23318.34
842.766	24293.18
842.951	23617.35
843.135	23310.15
843.319	23271.24
843.504	23582.53
843.688	23924.54
843.872	23308.1
844.056	23568.2
844.241	23760.7
844.425	23486.28
844.609	23396.17
844.793	22912.85
844.977	23627.59
845.161	23076.68
845.346	22765.39
845.53	22947.66
845.714	23625.54
845.898	23301.96
846.082	22726.48
846.266	22871.89
846.45	23189.32
846.634	23170.89
846.818	22761.3
847.002	22816.59
847.186	23533.38
847.37	22744.91
847.554	22552.4
847.738	22732.62
847.922	23254.86
848.106	22937.42
848.29	22214.49
848.473	22685.52
848.657	22738.77
848.841	22861.65
849.025	22681.42
849.209	22423.38
849.392	22918.99
849.576	22660.94
849.76	22318.93
849.944	22517.59
850.127	23091.02
850.311	22189.91
850.495	22265.69
850.678	22081.37
850.862	22796.11
851.046	22697.81
851.229	22320.98
851.413	21999.45
851.596	22361.94
851.78	22679.38
851.964	22558.55
852.147	22169.43
852.331	23045.96
852.514	22296.41
852.698	21876.57
852.881	21659.49
853.065	22255.45
853.248	22157.14
853.431	21985.12
853.615	21829.47
853.798	22552.4
853.982	22122.33
854.165	21630.82
854.348	21471.08
854.532	21526.37
854.715	21628.77
854.898	21520.23
855.081	21532.51
855.265	22064.99
855.448	22048.6
855.631	21274.47
855.814	21280.61
855.997	21905.24
856.181	21686.11
856.364	21604.19
856.547	21049.19
856.73	21516.13
856.913	21378.92
857.096	21192.55
857.279	21509.99
857.462	21034.86
857.645	21710.69
857.828	21086.06
858.011	21280.61
858.194	21190.5
858.377	21673.82
858.56	20785.01
858.743	21081.96
858.926	21049.19
859.109	21120.87
859.292	20997.99
859.475	21075.82
859.658	21299.05
859.841	21391.2
860.023	20879.21
860.206	20420.47
860.389	21282.66
860.572	21114.73
860.755	20524.91
860.937	20782.96
861.12	20625.26
861.303	20721.52
861.486	20522.87
861.668	20731.76
861.851	20905.84
862.034	20690.8
862.216	20414.32
862.399	20076.41
862.581	20604.78
862.764	20766.57
862.947	20135.8
863.129	19967.87
863.312	19969.91
863.494	20748.14
863.677	20252.53
863.859	20023.16
864.042	20543.35
864.224	20510.58
864.406	19941.24
864.589	19881.85
864.771	20209.53
864.954	19902.33
865.136	19842.94
865.318	19810.17
865.501	19795.84
865.683	19593.09
865.865	19617.66
866.048	19636.1
866.23	19779.45
866.412	19996.54
866.594	19494.79
866.777	19677.05
866.959	20033.4
867.141	19568.51
867.323	19816.32
867.505	19654.53
867.687	19685.25
867.869	19832.7
868.052	19601.28
868.234	19271.56
868.416	19824.51
868.598	19785.6
868.78	19363.72
868.962	19095.43
869.144	19851.13
869.326	19818.36
869.508	19322.76
869.69	19281.8
869.872	19263.36
870.054	19535.74
870.236	18958.22
870.417	19158.92
870.599	19304.32
870.781	19830.65
870.963	19455.87
871.145	19308.42
871.327	19251.08
871.508	19541.89
871.69	19152.77
871.872	19044.23
872.054	19396.48
872.235	19509.12
872.417	19044.23
872.599	18788.24
872.78	19564.42
872.962	19447.68
873.144	19085.19
873.325	19273.6
873.507	19746.69
873.689	19081.1
873.87	19152.77
874.052	19220.36
874.233	19361.67
874.415	19238.79
874.596	19115.91
874.778	18808.72
874.959	19257.22
875.141	19339.14
875.322	19036.04
875.503	18986.89
875.685	19580.8
875.866	19003.27
876.048	18829.2
876.229	18739.08
876.41	19068.81
876.592	19527.55
876.773	19062.66
876.954	18864.01
877.136	19677.05
877.317	19195.78
877.498	18648.97
877.679	18814.86
877.86	19163.01
878.042	19339.14
878.223	19019.66
878.404	19152.77
878.585	19625.86
878.766	19543.94
878.947	19345.28
879.128	19388.29
879.309	19572.61
879.49	19545.98
879.672	19328.9
879.853	19013.51
880.034	19142.53
880.215	19451.78
880.396	19353.48
880.576	19341.19
880.757	19423.11
880.938	19961.72
881.119	19337.09
881.3	19216.26
881.481	19564.42
881.662	20551.54
881.843	19343.24
882.023	19361.67
882.204	19576.7
882.385	20023.16
882.566	19562.37
882.747	19670.91
882.927	20090.74
883.108	19865.47
883.289	19697.53
883.469	19933.05
883.65	20049.78
883.831	20293.49
884.011	20019.07
884.192	20000.63
884.373	20213.62
884.553	19974.01
884.734	20162.42
884.914	20324.21
885.095	20615.02
885.275	20629.36
885.456	20498.29
885.636	19826.56
885.817	20234.1
885.997	20227.96
886.178	19928.95
886.358	20012.92
886.538	20574.06
886.719	21423.97
886.899	19853.18
887.08	20580.21
887.26	20674.42
887.44	20088.7
887.621	20197.24
887.801	20057.98
887.981	20989.8
888.161	20795.25
888.342	20244.34
888.522	20459.38
888.702	20944.75
888.882	20899.69
889.062	20674.42
889.242	20537.2
889.423	20830.06
889.603	20670.32
889.783	20735.85
889.963	20275.06
890.143	20772.72
890.323	20834.16
890.503	20572.02
890.683	20475.76
890.863	20688.75
891.043	20662.13
891.223	20598.64
891.403	20864.88
891.583	20465.52
891.763	20791.15
891.943	20455.28
892.122	20305.78
892.302	21034.86
892.482	20453.23
892.662	20510.58
892.842	20520.82
893.022	20535.15
893.201	20383.6
893.381	20406.13
893.561	20572.02
893.741	20948.84
893.92	20670.32
894.1	20111.22
894.28	20363.12
894.459	20408.18
894.639	20352.88
894.819	20002.68
894.998	20479.86
895.178	20332.4
895.357	20498.29
895.537	19933.05
895.716	19963.77
895.896	20262.77
896.075	20744.05
896.255	19900.28
896.434	19820.41
896.614	20258.68
896.793	20328.31
896.973	19896.19
897.152	19746.69
897.331	20137.85
897.511	20508.53
897.69	19672.96
897.87	19556.22
898.049	20148.09
898.228	20162.42
898.407	19867.52
898.587	19711.87
898.766	19990.39
898.945	19851.13
899.124	19494.79
899.304	19756.93
899.483	19683.2
899.662	20223.86
899.841	19257.22
900.02	19255.17
900.199	19980.15
900.378	19672.96
900.557	18974.6
900.737	19249.03
900.916	19433.35
901.095	19511.17
901.274	19132.29
901.453	18937.74
901.632	18694.03
901.811	19011.46
901.989	18605.97
902.168	18788.24
902.347	19337.09
902.526	18655.12
902.705	18352.02
902.884	18456.47
903.063	19193.73
903.242	18827.15
903.42	18272.15
903.599	18534.29
903.778	18810.76
903.957	18632.59
904.135	18550.67
904.314	17962.9
904.493	18534.29
904.672	18155.41
904.85	17917.85
905.029	17946.52
905.207	18118.55
905.386	18849.68
905.565	17489.82
905.743	17399.71
905.922	17678.24
906.1	17702.81
906.279	17153.96
906.457	17143.72
906.636	17655.71
906.814	17307.55
906.993	16977.83
907.171	17166.24
907.35	17336.23
907.528	17360.8
907.707	17010.6
907.885	16332.72
908.063	17117.09
908.242	16768.94
908.42	16603.05
908.598	16461.74
908.777	16953.26
908.955	16560.05
909.133	16431.02
909.311	16195.51
909.49	16748.46
909.668	16721.84
909.846	16502.7
910.024	16230.32
910.202	16906.15
910.38	16951.21
910.559	16439.22
910.737	16398.26
910.915	16928.68
911.093	16977.83
911.271	16861.1
911.449	16994.22
911.627	17317.79
911.805	17702.81
911.983	17041.32
912.161	16764.84
912.339	17444.77
912.517	17467.3
912.695	17221.54
912.872	17315.75
913.05	17113
913.228	17301.41
913.406	16928.68
913.584	16904.1
913.762	17706.91
913.939	17307.55
914.117	17225.64
914.295	16969.64
914.473	17459.1
914.65	17555.36
914.828	16791.47
915.006	16869.29
915.184	17188.77
915.361	17514.4
915.539	17217.44
915.716	17203.11
915.894	17426.34
916.072	17678.24
916.249	17262.5
916.427	17094.57
916.604	16945.06
916.782	17291.17
916.959	16973.74
917.137	16770.99
917.314	17188.77
917.492	17397.67
917.669	17135.53
917.847	16945.06
918.024	17231.78
918.201	17151.91
918.379	16889.77
918.556	16654.25
918.733	17235.88
918.911	16689.07
919.088	16838.57
919.265	16480.18
919.442	16867.24
919.62	16648.11
919.797	16721.84
919.974	16627.63
920.151	16713.64
920.328	16512.94
920.506	16392.11
920.683	16658.35
920.86	16328.63
921.037	16304.05
921.214	16273.33
921.391	16433.07
921.568	16598.96
921.745	16074.68
921.922	16334.77
922.099	16054.2
922.276	16607.15
922.453	16482.22
922.63	16025.53
922.807	16236.47
922.984	16351.15
923.161	15851.45
923.338	15804.35
923.514	15816.63
923.691	16144.31
923.868	16211.89
924.045	15777.72
924.222	15599.55
924.399	16136.12
924.575	16258.99
924.752	15761.34
924.929	15738.81
925.105	16009.14
925.282	15744.95
925.459	15466.43
925.635	15615.93
925.812	15517.63
925.989	15525.82
926.165	15468.48
926.342	15331.26
926.518	15515.58
926.695	15505.34
926.871	15116.23
927.048	14999.49
927.224	15425.47
927.401	14923.72
927.577	15167.43
927.754	14874.57
927.93	15341.5
928.107	15210.43
928.283	14774.22
928.459	14784.46
928.636	14993.35
928.812	14514.13
928.988	14622.67
929.165	14219.22
929.341	14680.01
929.517	14931.91
929.693	14802.89
929.87	14049.24
930.046	14485.45
930.222	14135.25
930.398	14098.39
930.574	14338
930.751	14473.17
930.927	14122.96
931.103	14206.93
931.279	14192.59
931.455	14010.32
931.631	14217.17
931.807	13723.61
931.983	13776.86
932.159	13729.75
932.335	13631.45
932.511	13694.94
932.687	13449.18
932.863	13830.1
933.039	13719.51
933.215	13340.64
933.391	13176.8
933.566	13058.02
933.742	13088.74
933.918	13033.44
934.094	12666.86
934.27	13119.46
934.445	12802.02
934.621	12546.03
934.797	12394.48
934.973	12875.75
935.148	12550.12
935.324	11831.29
935.5	11941.88
935.675	12513.26
935.851	11886.58
936.027	11945.97
936.202	11548.67
936.378	11659.26
936.553	11393.02
936.729	11483.13
936.904	10881.03
937.08	10485.77
937.255	10668.04
937.431	10285.07
937.606	9943.06
937.782	10231.82
937.957	10440.72
938.133	10041.36
938.308	9816.08
938.483	9881.62
938.659	9599
938.834	9357.34
939.009	9469.98
939.185	9426.97
939.36	9025.57
939.535	8595.5
939.71	8931.36
939.886	9236.51
940.061	9185.31
940.236	8777.76
940.411	8536.1
940.586	8747.05
940.761	8591.4
940.937	8298.54
941.112	8155.18
941.287	8380.46
941.462	8370.22
941.637	8052.78
941.812	7991.34
941.987	7981.1
942.162	7977.01
942.337	7972.91
942.512	7591.99
942.687	8153.13
942.862	8091.7
943.037	7536.7
943.212	7313.47
943.386	7587.89
943.561	7882.8
943.736	7749.68
943.911	7956.53
944.086	7886.9
944.26	7612.47
944.435	7460.92
944.61	7716.92
944.785	7981.1
944.959	8185.9
945.134	7374.91
945.309	7493.69
945.483	7460.92
945.658	7821.36
945.833	7153.73
946.007	7376.95
946.182	8001.58
946.357	7385.15
946.531	7440.44
946.706	7313.47
946.88	7319.61
947.055	7866.42
947.229	7579.7
947.404	7542.84
947.578	7815.22
947.752	7524.41
947.927	7395.39
948.101	7489.59
948.276	7772.21
948.45	7770.16
948.624	7790.64
948.799	7591.99
948.973	7944.24
949.147	7616.57
949.321	7671.86
949.496	7880.75
949.67	8327.21
949.844	7743.54
950.018	7653.43
950.193	7878.71
950.367	8241.2
950.541	7991.34
950.715	8017.97
950.889	8284.2
951.063	8050.74
951.237	8112.17
951.411	7835.7
951.585	7899.19
951.759	8304.68
951.933	8255.53
952.107	8173.61
952.281	8464.43
952.455	8765.48
952.629	8398.89
952.803	8134.7
952.977	8038.45
953.151	8474.67
953.325	8456.23
953.499	8493.1
953.672	8171.57
953.846	8079.41
954.02	8419.37
954.194	8310.83
954.368	8331.31
954.541	8618.02
954.715	8206.38
954.889	8366.12
955.062	8304.68
955.236	8577.06
955.41	8380.46
955.583	8722.47
955.757	8280.11
955.93	8605.74
956.104	8278.06
956.278	8489
956.451	8583.21
956.625	8779.81
956.798	9285.66
956.972	8984.61
957.145	8319.02
957.319	8796.2
957.492	8634.41
957.665	8806.44
957.839	8542.25
958.012	8974.37
958.185	8636.45
958.359	8366.12
958.532	8792.1
958.705	8968.23
958.879	8822.82
959.052	8652.84
959.225	8316.97
959.398	8843.3
959.572	8802.34
959.745	8609.83
959.918	8497.19
960.091	8675.37
960.264	8900.64
960.438	8357.93
960.611	8611.88
960.784	8908.83
960.957	8740.9
961.13	8962.08
961.303	8468.52
961.476	8734.76
961.649	8831.01
961.822	8515.62
961.995	8622.12
962.168	8914.98
962.341	8683.56
962.514	8634.41
962.686	8296.49
962.859	8806.44
963.032	8962.08
963.205	8595.5
963.378	8212.53
963.551	8960.03
963.723	8542.25
963.896	8529.96
964.069	8577.06
964.242	8566.82
964.414	8755.24
964.587	8626.22
964.76	8437.8
964.932	8712.23
965.105	8615.98
965.278	8413.23
965.45	8374.31
965.623	8599.59
965.795	8783.91
965.968	8458.28
966.14	8224.81
966.313	8460.33
966.485	8656.93
966.658	8325.16
966.83	8300.59
967.003	8841.25
967.175	8828.96
967.348	8339.5
967.52	8308.78
967.692	8957.99
967.865	8603.69
968.037	8527.91
968.209	8398.89
968.382	8337.45
968.554	8486.95
968.726	8276.01
968.898	8179.76
969.071	8443.95
969.243	8497.19
969.415	8290.35
969.587	8359.98
969.759	8867.88
969.932	8423.47
970.104	8083.5
970.276	7921.71
970.448	8130.61
970.62	8077.36
970.792	8075.31
970.964	7977.01
971.136	8765.48
971.308	8276.01
971.48	7804.98
971.652	8013.87
971.824	8669.22
971.996	8063.02
972.168	8001.58
972.339	8024.11
972.511	8343.6
972.683	8007.73
972.855	8032.3
973.027	7952.43
973.199	8081.46
973.37	8489
973.542	7880.75
973.714	7942.19
973.886	8003.63
974.057	8097.84
974.229	7651.38
974.401	7706.68
974.572	7804.98
974.744	7516.22
974.915	7745.59
975.087	7553.08
975.259	8347.69
975.43	7716.92
975.602	7723.06
975.773	7598.13
975.945	7886.9
976.116	7987.25
976.288	7655.48
976.459	7866.42
976.63	7567.42
976.802	7852.08
976.973	7379
977.145	7417.91
977.316	8202.29
977.487	7829.56
977.659	7690.29
977.83	7553.08
978.001	8095.79
978.172	7780.4
978.344	7213.12
978.515	7442.49
978.686	7612.47
978.857	7909.43
979.028	7053.38
979.2	7301.18
979.371	7624.76
979.542	7567.42
979.713	7145.53
979.884	6842.43
980.055	7217.21
980.226	7192.64
980.397	7088.19
980.568	6967.36
980.739	7589.94
980.91	7071.81
981.081	7249.98
981.252	6916.16
981.423	7546.94
981.594	7505.98
981.765	6856.77
981.936	6942.78
982.106	7325.75
982.277	7487.54
982.448	6797.38
982.619	6932.54
982.79	6991.94
982.96	7454.78
983.131	6944.83
983.302	6651.97
983.472	6799.43
983.643	7039.04
983.814	6848.58
983.984	6828.1
984.155	6783.04
984.326	7012.42
984.496	6862.91
984.667	6678.6
984.837	6867.01
985.008	6912.07
985.178	6795.33
985.349	6395.98
985.519	6725.7
985.69	6529.1
985.86	6662.21
986.031	6312.01
986.201	6967.36
986.371	6692.93
986.542	6277.19
986.712	6160.46
986.882	6770.76
987.053	6688.84
987.223	6164.56
987.393	6514.76
987.563	6525
987.734	6817.86
987.904	6531.14
988.074	6062.16
988.244	6459.46
988.414	6322.25
988.585	6064.21
988.755	6121.55
988.925	6305.87
989.095	6907.97
989.265	5965.9
989.435	6023.25
989.605	6234.19
989.775	6359.11
989.945	6295.63
990.115	5988.43
990.285	6252.62
990.455	6230.09
990.625	6045.77
990.795	5875.79
990.965	6260.81
991.134	5843.03
991.304	5625.94
991.474	5806.16
991.644	5965.9
991.814	6332.49
991.984	5484.63
992.153	5580.89
992.323	5890.13
992.493	5732.44
992.662	5492.82
992.832	5677.14
993.002	5851.22
993.171	5806.16
993.341	5367.9
993.511	5783.63
993.68	5617.75
993.85	5894.22
994.019	5269.59
994.189	5298.27
994.358	5613.65
994.528	5646.42
994.697	5140.57
994.867	5230.68
995.036	5666.9
995.206	5531.73
995.375	5337.18
995.544	5382.23
995.714	5507.16
995.883	5333.08
996.052	5576.79
996.222	4925.54
996.391	6094.93
996.56	5322.84
996.73	5105.76
996.899	4829.28
997.068	5646.42
997.237	5427.29
997.406	5040.22
997.576	4745.31
997.745	5288.03
997.914	5341.27
998.083	4708.45
998.252	4960.35
998.421	5222.49
998.59	4978.78
998.759	4757.6
998.928	4655.2
999.097	5447.77
999.266	5093.47
999.435	4913.25
999.604	4581.48
999.773	5431.38
999.942	4929.63
1000.111	4608.1
1000.28	4520.04
1000.448	4776.03
1000.617	4745.31
1000.786	4728.93
1000.955	4481.13
1001.124	4894.82
1001.292	5533.78
1001.461	4563.05
1001.63	4530.28
1001.798	5105.76
1001.967	5083.23
1002.136	4229.23
1002.304	4386.92
1002.473	4694.12
1002.642	4675.68
1002.81	4393.06
1002.979	4401.26
1003.147	4870.24
1003.316	5126.24
1003.484	4354.15
1003.653	4137.07
1003.821	4853.86
1003.99	4503.65
1004.158	4214.89
1004.327	4171.88
1004.495	4522.09
1004.663	4221.03
1004.832	4173.93
1005	4077.68
1005.168	4481.13
1005.337	4431.98
1005.505	3971.18
1005.673	4235.37
1005.842	4497.51
1006.01	4464.74
1006.178	3874.93
1006.346	3934.32
1006.514	4163.69
1006.683	4528.23
1006.851	3887.22
1007.019	3950.7
1007.187	4008.05
1007.355	3721.33
1007.523	3565.68
1007.691	3655.79
1007.859	3836.02
1008.027	4319.34
1008.195	3862.64
1008.363	3643.51
1008.531	4218.99
1008.699	3829.87
1008.867	3620.98
1009.035	3690.61
1009.203	4198.51
1009.37	3799.15
1009.538	3477.62
1009.706	4077.68
1009.874	4001.9
1010.042	3752.05
1010.209	3410.04
1010.377	3547.25
1010.545	3930.22
1010.713	3735.67
1010.88	3500.15
1011.048	3379.32
1011.216	3721.33
1011.383	3956.85
1011.551	3350.65
1011.718	3358.84
1011.886	3954.8
1012.054	3541.11
1012.221	3078.27
1012.389	3399.8
1012.556	3575.92
1012.724	4085.87
1012.891	3397.75
1013.058	3043.45
1013.226	3876.98
1013.393	3602.55
1013.561	2992.25
1013.728	2920.57
1013.895	3694.71
1014.063	3530.87
1014.23	2924.67
1014.397	2965.63
1014.565	3696.75
1014.732	3309.69
1014.899	2922.62
1015.066	2887.81
1015.233	3352.7
1015.401	3315.83
1015.568	3113.08
1015.735	3041.4
1015.902	3264.63
1016.069	3287.16
1016.236	2752.64
1016.403	2822.27
1016.57	3008.64
1016.737	3395.7
1016.904	2979.97
1017.071	2877.57
1017.238	2949.25
1017.405	3182.71
1017.572	2744.45
1017.739	2953.34
1017.906	3096.7
1018.073	3123.32
1018.24	2590.85
1018.407	2707.59
1018.573	3131.51
1018.74	2920.57
1018.907	2762.88
1019.074	2541.7
1019.241	3160.19
1019.407	2939.01
1019.574	2531.46
1019.741	2414.73
1019.907	2816.13
1020.074	2812.03
1020.241	2312.33
1020.407	2470.02
1020.574	2975.87
1020.74	2930.81
1020.907	2461.83
1021.073	2359.43
1021.24	3260.54
1021.406	3115.13
1021.573	2406.53
1021.739	2396.29
1021.906	2982.01
1022.072	2599.04
1022.239	2357.38
1022.405	2373.77
1022.571	2574.47
1022.738	2533.51
1022.904	2310.28
1023.07	2351.24
1023.237	2742.4
1023.403	2902.14
1023.569	2289.8
1023.735	2355.33
1023.902	2609.28
1024.068	2621.57
1024.234	2164.87
1024.4	2230.41
1024.566	2674.82
1024.732	2732.16
1024.898	2121.87
1025.065	1972.36
1025.231	2564.23
1025.397	2224.26
1025.563	2115.72
1025.729	1976.46
1025.895	1978.51
1026.061	2171.02
1026.227	1837.2
1026.392	2046.09
1026.558	2629.76
1026.724	2525.32
1026.89	2023.56
1027.056	2119.82
1027.222	2384.01
1027.388	2279.56
1027.553	1902.73
1027.719	1908.88
1027.885	2646.15
1028.051	2406.53
1028.216	1745.04
1028.382	1949.84
1028.548	2373.77
1028.713	2150.54
1028.879	1775.76
1029.045	2134.15
1029.21	2476.16
1029.376	2455.69
1029.541	1937.55
1029.707	1786
1029.873	2312.33
1030.038	2320.52
1030.204	1747.09
1030.369	1753.23
1030.534	2308.23
1030.7	2050.19
1030.865	1849.49
1031.031	1730.7
1031.196	2134.15
1031.361	2250.89
1031.527	1839.25
1031.692	1695.89
1031.857	1646.74
1032.023	2078.86
1032.188	1691.79
1032.353	1659.03
1032.518	2404.49
1032.684	2097.29
1032.849	1560.72
1033.014	1597.59
1033.179	2052.24
1033.344	2119.82
1033.509	1573.01
1033.674	1626.26
1033.839	2181.26
1034.004	1947.79
1034.17	1548.44
1034.335	1411.22
1034.5	1833.1
1034.664	1812.62
1034.829	1640.59
1034.994	1515.67
1035.159	2031.76
1035.324	1872.01
1035.489	1624.21
1035.654	1527.96
1035.819	2105.48
1035.984	1902.73
1036.148	1564.82
1036.313	1476.76
1036.478	2158.73
1036.643	1765.52
1036.807	1468.56
1036.972	1284.25
1037.137	2029.71
1037.301	1765.52
1037.466	1222.81
1037.631	1626.26
1037.795	2048.14
1037.96	1734.8
1038.124	1579.15
1038.289	1300.63
1038.454	1904.78
1038.618	1829.01
1038.783	1454.23
1038.947	1394.84
1039.111	1765.52
1039.276	1523.86
1039.44	1284.25
1039.605	1702.03
1039.769	1575.06
1039.933	1646.74
1040.098	1460.37
1040.262	1398.93
1040.426	1863.82
1040.591	1665.17
1040.755	1271.96
1040.919	1296.53
1041.083	1693.84
1041.248	1497.24
1041.412	1038.49
1041.576	1081.5
1041.74	1493.14
1041.904	1718.42
1042.068	1204.38
1042.232	1220.76
1042.397	1706.13
1042.561	1560.72
1042.725	936.09
1042.889	1286.3
1043.053	1724.56
1043.217	1607.83
1043.381	1144.99
1043.544	989.34
1043.708	1759.38
1043.872	1259.67
1044.036	888.99
1044.2	983.2
1044.364	1652.88
1044.528	1865.87
1044.691	2416.77
1044.855	948.38
1045.019	1677.46
1045.183	1595.54
1045.346	1101.98
1045.51	1022.11
1045.674	1474.71
1045.837	1622.16
1046.001	1071.26
1046.165	1040.54
1046.328	1833.1
1046.492	1439.89
1046.655	1202.33
1046.819	1022.11
1046.983	1220.76
1047.146	1487
1047.31	993.44
1047.473	880.8
1047.636	1329.3
1047.8	1187.99
1047.963	938.14
1048.127	845.98
1048.29	1136.79
