Data from Hydrogel_Ink_Intensity_Test_1_USB4F045381__62__00062.txt Node

Date: Mon Jul 31 10:52:20 EDT 2023
User: mmckonesweet
Spectrometer: USB4F04538
Trigger mode: 4
Integration Time (sec): 9.000000E-1
Scans to average: 1
Electric dark correction enabled: true
Nonlinearity correction enabled: false
Boxcar width: 0
XAxis mode: Wavelengths
Number of Pixels in Spectrum: 3648
>>>>>Begin Spectral Data<<<<<
345.52	-913.91
345.736	-913.91
345.952	-913.91
346.168	-999.92
346.384	-1024.5
346.6	-76.29
346.816	-209.4
347.032	-264.7
347.248	224.76
347.464	-244.22
347.68	-195.07
347.896	99.84
348.112	456.19
348.328	-41.47
348.544	-152.06
348.76	60.93
348.975	341.5
349.191	-227.84
349.407	-215.55
349.623	48.64
349.839	9.73
350.055	-76.29
350.27	42.5
350.486	241.15
350.702	378.36
350.918	255.48
351.133	-172.54
351.349	153.09
351.565	318.97
351.781	-289.28
351.996	15.87
352.212	321.02
352.428	-143.87
352.644	-201.21
352.859	-121.34
353.075	357.88
353.291	-72.19
353.506	-23.04
353.722	-252.41
353.938	-43.52
354.153	495.1
354.369	173.57
354.584	-203.26
354.8	239.1
355.016	-344.57
355.231	-193.02
355.447	-96.77
355.662	114.17
355.878	876.02
356.093	-358.91
356.309	67.07
356.524	-170.49
356.74	304.64
356.955	-201.21
357.171	-88.57
357.386	202.24
357.602	-160.25
357.817	-78.33
358.033	-131.58
358.248	386.55
358.464	214.52
358.679	-203.26
358.895	-309.76
359.11	81.41
359.325	314.88
359.541	296.44
359.756	-12.8
359.972	-254.46
360.187	323.07
360.402	-213.5
360.618	-78.33
360.833	1037.81
361.048	181.76
361.264	-137.73
361.479	-53.76
361.694	-10.75
361.909	171.52
362.125	-184.83
362.34	-92.67
362.555	351.74
362.77	101.89
362.986	-244.22
363.201	-231.93
363.416	218.62
363.631	75.26
363.847	-133.63
364.062	-188.93
364.277	181.76
364.492	130.56
364.707	-96.77
364.922	-387.58
365.138	321.02
365.353	398.84
365.568	-229.88
365.783	-98.81
365.998	105.98
366.213	660.98
366.428	-303.61
366.643	9.73
366.858	314.88
367.073	245.24
367.288	-137.73
367.503	-254.46
367.718	148.99
367.933	316.92
368.148	-233.98
368.363	-23.04
368.578	17.92
368.793	509.43
369.008	-104.96
369.223	-217.6
369.438	222.72
369.653	454.14
369.868	-299.52
370.083	-274.94
370.298	175.61
370.513	484.86
370.728	159.23
370.943	-182.78
371.157	-90.62
371.372	538.1
371.587	-199.16
371.802	-203.26
372.017	165.37
372.232	511.48
372.446	-10.75
372.661	-236.03
372.876	286.2
373.091	220.67
373.306	-45.57
373.52	-211.45
373.735	-215.55
373.95	499.19
374.165	-61.95
374.379	-141.82
374.594	-190.97
374.809	232.96
375.023	108.03
375.238	-178.69
375.453	335.35
375.667	-209.4
375.882	-86.53
376.097	-168.45
376.311	54.78
376.526	112.13
376.741	-240.12
376.955	134.65
377.17	646.65
377.384	534.01
377.599	19.97
377.813	-227.84
378.028	624.12
378.242	292.35
378.457	-39.42
378.672	-356.86
378.886	177.66
379.101	-18.94
379.315	-295.42
379.53	-111.1
379.744	296.44
379.958	235
380.173	-94.72
380.387	-139.77
380.602	241.15
380.816	-195.07
381.031	-90.62
381.245	-113.15
381.459	323.07
381.674	2807.25
381.888	-137.73
382.103	151.04
382.317	-100.86
382.531	566.78
382.746	-4.61
382.96	-160.25
383.174	-43.52
383.388	521.72
383.603	165.37
383.817	-190.97
384.031	218.62
384.246	554.49
384.46	159.23
384.674	411.13
384.888	34.3
385.103	99.84
385.317	-281.08
385.531	44.54
385.745	452.09
385.959	398.84
386.174	-80.38
386.388	-219.64
386.602	159.23
386.816	-4.61
387.03	7.68
387.244	-6.66
387.458	157.18
387.672	402.94
387.887	-145.92
388.101	-174.59
388.315	491
388.529	222.72
388.743	-20.99
388.957	-184.83
389.171	429.56
389.385	-55.81
389.599	-14.85
389.813	177.66
390.027	189.95
390.241	878.07
390.455	-72.19
390.669	30.21
390.883	103.93
391.097	572.92
391.311	163.33
391.525	-35.33
391.738	335.35
391.952	335.35
392.166	79.36
392.38	-164.35
392.594	427.51
392.808	484.86
393.022	5.63
393.236	1.54
393.449	275.96
393.663	296.44
393.877	-129.53
394.091	-6.66
394.305	212.48
394.518	-6.66
394.732	-139.77
394.946	-25.09
395.16	620.02
395.373	189.95
395.587	-78.33
395.801	-80.38
396.015	423.42
396.228	259.58
396.442	-55.81
396.656	-184.83
396.869	558.58
397.083	595.45
397.297	120.32
397.51	-43.52
397.724	413.18
397.938	298.49
398.151	-184.83
398.365	-158.21
398.578	493.05
398.792	486.9
399.005	171.52
399.219	-10.75
399.433	304.64
399.646	304.64
399.86	235
400.073	230.91
400.287	347.64
400.5	159.23
400.714	161.28
400.927	120.32
401.141	491
401.354	1347.05
401.567	325.12
401.781	-109.05
401.994	433.66
402.208	806.39
402.421	159.23
402.635	116.22
402.848	165.37
403.061	484.86
403.275	136.7
403.488	-49.66
403.701	615.93
403.915	443.9
404.128	200.19
404.341	62.98
404.555	345.59
404.768	112.13
404.981	187.9
405.195	44.54
405.408	601.59
405.621	443.9
405.834	296.44
406.048	-31.23
406.261	677.37
406.474	652.79
406.687	13.82
406.9	202.24
407.114	333.31
407.327	484.86
407.54	-102.91
407.753	-143.87
407.966	144.89
408.179	488.95
408.392	22.02
408.605	-96.77
408.819	407.03
409.032	484.86
409.245	85.5
409.458	329.21
409.671	427.51
409.884	570.87
410.097	-133.63
410.31	280.06
410.523	427.51
410.736	204.28
410.949	138.75
411.162	69.12
411.375	845.3
411.588	579.06
411.801	282.11
412.014	65.02
412.227	302.59
412.44	286.2
412.653	13.82
412.865	239.1
413.078	566.78
413.291	515.58
413.504	226.81
413.717	71.17
413.93	550.39
414.143	206.33
414.356	165.37
414.568	-4.61
414.781	605.69
414.994	421.37
415.207	99.84
415.42	181.76
415.632	601.59
415.845	810.48
416.058	-4.61
416.271	42.5
416.483	386.55
416.696	845.3
416.909	142.85
417.121	73.21
417.334	546.3
417.547	814.58
417.759	73.21
417.972	85.5
418.185	343.55
418.397	562.68
418.61	144.89
418.823	110.08
419.035	812.53
419.248	357.88
419.46	194.05
419.673	224.76
419.885	550.39
420.098	435.71
420.311	173.57
420.523	5.63
420.736	554.49
420.948	493.05
421.161	202.24
421.373	17.92
421.586	513.53
421.798	271.87
422.01	112.13
422.223	370.17
422.435	265.72
422.648	587.26
422.86	224.76
423.073	202.24
423.285	701.94
423.497	142.85
423.71	173.57
423.922	230.91
424.134	699.89
424.347	833.01
424.559	534.01
424.771	509.43
424.984	386.55
425.196	630.26
425.408	112.13
425.621	151.04
425.833	830.96
426.045	779.76
426.257	105.98
426.47	314.88
426.682	570.87
426.894	679.41
427.106	169.47
427.318	339.45
427.531	411.13
427.743	736.76
427.955	398.84
428.167	681.46
428.379	673.27
428.591	476.66
428.804	421.37
429.016	278.01
429.228	468.47
429.44	620.02
429.652	488.95
429.864	196.09
430.076	568.82
430.288	531.96
430.5	378.36
430.712	394.75
430.924	796.15
431.136	591.35
431.348	146.94
431.56	337.4
431.772	572.92
431.984	464.38
432.196	329.21
432.408	341.5
432.62	550.39
432.832	648.69
433.044	603.64
433.256	482.81
433.468	812.53
433.679	202.24
433.891	329.21
434.103	689.65
434.315	935.41
434.527	779.76
434.739	529.91
434.95	554.49
435.162	830.96
435.374	464.38
435.586	452.09
435.798	374.27
436.009	404.99
436.221	601.59
436.433	419.32
436.645	577.02
436.856	478.71
437.068	1021.42
437.28	386.55
437.491	773.62
437.703	822.77
437.915	712.18
438.126	499.19
438.338	747
438.55	689.65
438.761	712.18
438.973	468.47
439.184	525.82
439.396	706.04
439.608	900.59
439.819	447.99
440.031	540.15
440.242	964.08
440.454	880.11
440.665	581.11
440.877	630.26
441.088	955.89
441.3	726.52
441.511	372.22
441.723	462.33
441.934	814.58
442.146	800.24
442.357	722.42
442.569	863.73
442.78	728.56
442.991	1095.15
443.203	871.92
443.414	474.62
443.626	1119.73
443.837	607.73
444.048	525.82
444.26	421.37
444.471	865.78
444.682	1000.94
444.894	452.09
445.105	439.8
445.316	1068.53
445.528	910.83
445.739	701.94
445.95	577.02
446.161	857.59
446.373	1089.01
446.584	634.36
446.795	609.78
447.006	970.23
447.217	1279.47
447.429	480.76
447.64	433.66
447.851	1175.02
448.062	935.41
448.273	484.86
448.484	558.58
448.695	1027.57
448.907	869.87
449.118	783.86
449.329	888.31
449.54	826.87
449.751	859.63
449.962	624.12
450.173	669.17
450.384	1195.5
450.595	1265.13
450.806	652.79
451.017	753.14
451.228	1283.56
451.439	1230.32
451.65	787.96
451.861	493.05
452.072	638.45
452.283	976.37
452.494	894.45
452.705	732.66
452.915	1332.72
453.126	1095.15
453.337	775.67
453.548	771.57
453.759	1246.7
453.97	1420.78
454.181	1054.19
454.391	816.63
454.602	1017.33
454.813	1279.47
455.024	988.66
455.235	853.49
455.445	1132.01
455.656	1232.37
455.867	1025.52
456.078	763.38
456.288	937.46
456.499	1322.48
456.71	857.59
456.921	1144.3
457.131	1349.1
457.342	1261.04
457.553	978.42
457.763	767.48
457.974	1377.77
458.184	1246.7
458.395	919.03
458.606	792.05
458.816	1467.88
459.027	1664.49
459.237	1095.15
459.448	845.3
459.659	1525.22
459.869	2045.41
460.08	896.5
460.29	1150.45
460.501	1764.84
460.711	1197.55
460.922	1005.04
461.132	1060.34
461.343	1986.02
461.553	1058.29
461.764	1123.82
461.974	1046
462.184	1537.51
462.395	1549.8
462.605	1308.14
462.816	1023.47
463.026	1488.36
463.236	1533.42
463.447	1029.62
463.657	1113.58
463.867	1709.54
464.078	1492.46
464.288	1324.52
464.498	1285.61
464.709	1459.69
464.919	1467.88
465.129	1289.71
465.339	1248.75
465.55	1672.68
465.76	1779.17
465.97	1320.43
466.18	1306.09
466.391	1789.41
466.601	1717.73
466.811	1404.39
467.021	1248.75
467.231	1805.8
467.441	1977.83
467.651	1512.94
467.862	1156.59
468.072	1742.31
468.282	2086.37
468.492	1463.79
468.702	1596.9
468.912	1691.11
469.122	2403.8
469.332	1836.52
469.542	1451.5
469.752	2207.2
469.962	1957.35
470.172	1576.42
470.382	1656.29
470.592	2098.66
470.802	2295.26
471.012	1904.1
471.222	1703.4
471.432	2262.49
471.642	2233.82
471.852	1951.2
472.062	1779.17
472.272	1961.44
472.482	1943.01
472.691	1832.42
472.901	1756.65
473.111	2272.73
473.321	2776.53
473.531	1916.39
473.741	2082.27
473.95	2336.22
474.16	2508.25
474.37	2233.82
474.58	2024.93
474.79	2901.46
474.999	2571.74
475.209	2092.51
475.419	2307.55
475.628	2393.56
475.838	2854.36
476.048	2465.24
476.258	2217.44
476.467	2921.94
476.677	2571.74
476.886	2743.77
477.096	2608.6
477.306	2620.89
477.515	2807.25
477.725	2674.14
477.935	2508.25
478.144	3171.79
478.354	2575.83
478.563	2713.05
478.773	2604.5
478.982	2942.42
479.192	3182.03
479.401	2706.9
479.611	2676.18
479.82	2862.55
480.03	3042.77
480.239	2723.29
480.449	2713.05
480.658	3532.23
480.868	3059.15
481.077	2997.71
481.287	2975.19
481.496	3450.32
481.705	3620.3
481.915	3286.48
482.124	3384.78
482.333	3417.55
482.543	3829.19
482.752	3331.53
482.961	3155.41
483.171	3671.5
483.38	3478.99
483.589	3329.49
483.799	3161.55
484.008	3491.27
484.217	3767.75
484.426	3433.93
484.636	3243.47
484.845	3812.81
485.054	3323.34
485.263	3634.63
485.472	3591.63
485.682	4228.54
485.891	3728.84
486.1	3429.84
486.309	3605.96
486.518	4130.24
486.727	4171.2
486.936	3601.87
487.146	3816.9
487.355	4279.74
487.564	3804.61
487.773	3870.15
487.982	3821
488.191	4007.36
488.4	4179.39
488.609	3941.83
488.818	3896.77
489.027	4842.93
489.236	4652.47
489.445	4087.23
489.654	4072.9
489.863	4570.55
490.072	4400.57
490.281	4474.3
490.49	4105.67
490.698	4754.87
490.907	4859.32
491.116	4085.19
491.325	4175.3
491.534	4767.16
491.743	4605.37
491.952	4560.31
492.16	4498.88
492.369	4916.66
492.578	4965.81
492.787	4523.45
492.996	4300.22
493.204	4552.12
493.413	5367.21
493.622	4390.33
493.831	4304.32
494.039	5320.11
494.248	4636.09
494.457	4545.98
494.665	4537.79
494.874	5057.97
495.083	5369.26
495.291	4867.51
495.5	4617.66
495.709	5225.9
495.917	5146.03
496.126	4910.52
496.335	4941.24
496.543	5053.87
496.752	5146.03
496.96	5227.95
497.169	4900.28
497.377	5262.77
497.586	5698.99
497.794	5086.64
498.003	4756.92
498.211	5279.15
498.42	5758.38
498.628	5170.61
498.837	5017.01
499.045	5408.17
499.254	5395.89
499.462	5230
499.671	5039.54
499.879	5856.68
500.087	5688.75
500.296	5047.73
500.504	5246.38
500.713	5733.8
500.921	6194.59
501.129	5338.54
501.338	5285.3
501.546	5746.09
501.754	5791.14
501.962	5461.42
502.171	5305.78
502.379	5858.73
502.587	6200.74
502.795	5533.1
503.004	5606.83
503.212	5885.35
503.42	6157.73
503.628	5664.17
503.837	5758.38
504.045	6120.87
504.253	6241.7
504.461	5590.44
504.669	5465.52
504.877	6206.88
505.085	6413.73
505.294	5741.99
505.502	5864.87
505.71	6223.27
505.918	6251.94
506.126	5637.55
506.334	5762.47
506.542	6268.32
506.75	6213.03
506.958	6006.18
507.166	5993.89
507.374	6333.86
507.582	6516.12
507.79	6118.82
507.998	5977.51
508.206	6378.91
508.414	6495.64
508.622	5909.93
508.83	6102.43
509.037	6870.42
509.245	6256.03
509.453	6069.67
509.661	6122.91
509.869	6819.22
510.077	6403.49
510.285	6247.84
510.492	5979.56
510.7	7122.32
510.908	6294.94
511.116	6196.64
511.324	6344.1
511.531	6366.62
511.739	6696.35
511.947	6466.97
512.155	6696.35
512.362	6639
512.57	6411.68
512.778	6448.54
512.985	6305.18
513.193	7038.36
513.401	7058.84
513.608	6505.88
513.816	6378.91
514.024	7050.64
514.231	7099.8
514.439	6571.42
514.646	6501.79
514.854	7138.71
515.061	6944.15
515.269	6661.53
515.477	6608.28
515.684	6682.01
515.892	7325.07
516.099	6538.65
516.307	6450.59
516.514	7165.33
516.722	7239.06
516.929	6862.23
517.136	6550.94
517.344	7388.56
517.551	7222.67
517.759	6704.54
517.966	7194
518.173	6981.01
518.381	7073.17
518.588	6974.87
518.796	6813.08
519.003	7417.23
519.21	7318.93
519.418	6843.8
519.625	7294.35
519.832	7267.73
520.039	7454.09
520.247	6856.09
520.454	6948.25
520.661	7669.13
520.868	7374.22
521.076	7052.69
521.283	7271.83
521.49	8027.53
521.697	7415.18
521.904	7079.32
522.112	7144.85
522.319	7771.53
522.526	7523.73
522.733	7226.77
522.94	7194
523.147	7540.11
523.354	7761.29
523.561	7177.62
523.768	7370.13
523.975	8033.67
524.183	7740.81
524.39	7587.21
524.597	7374.22
524.804	7636.36
525.011	7677.32
525.218	7452.05
525.425	7583.12
525.632	8082.82
525.838	7447.95
526.045	7501.2
526.252	7738.76
526.459	9135.48
526.666	8899.96
526.873	7468.43
527.08	7517.58
527.287	8086.92
527.494	8189.32
527.701	7540.11
527.907	7499.15
528.114	8363.39
528.321	8115.59
528.528	7918.98
528.735	7734.67
528.941	7980.42
529.148	7857.54
529.355	7972.23
529.562	7626.12
529.768	8404.35
529.975	7974.28
530.182	8048.01
530.388	7832.97
530.595	8592.76
530.802	7820.68
531.008	8009.09
531.215	7910.79
531.422	9135.48
531.628	9141.62
531.835	8150.4
532.042	8353.15
532.248	8232.32
532.455	8486.27
532.661	8160.64
532.868	8093.06
533.074	8621.44
533.281	8750.46
533.487	8154.5
533.694	8162.69
533.9	8607.1
534.107	8643.96
534.313	8451.46
534.52	8119.68
534.726	8840.57
534.933	9071.99
535.139	8400.26
535.345	8287.62
535.552	8762.75
535.758	8699.26
535.965	8654.2
536.171	8326.53
536.377	9049.46
536.584	9342.32
536.79	8400.26
536.996	8820.09
537.203	8920.44
537.409	8914.3
537.615	8789.37
537.821	8760.7
538.028	9266.55
538.234	8955.26
538.44	8678.78
538.646	8930.68
538.853	9096.57
539.059	9037.17
539.265	9051.51
539.471	8611.2
539.677	9448.82
539.883	9049.46
540.09	8826.23
540.296	9229.68
540.502	9217.4
540.708	9047.41
540.914	9127.28
541.12	8928.63
541.326	9434.48
541.532	9311.6
541.738	9229.68
541.944	9280.88
542.15	9692.52
542.356	9426.29
542.562	9053.56
542.768	9284.98
542.974	10024.3
543.18	9962.86
543.386	9422.19
543.592	9086.33
543.798	10020.2
544.004	9819.5
544.21	9223.54
544.415	9325.94
544.621	9909.61
544.827	9776.49
545.033	9418.1
545.239	9440.62
545.445	9696.62
545.651	9897.32
545.856	9536.88
546.062	9530.73
546.268	9772.39
546.474	9725.29
546.679	9491.82
546.885	9602.41
547.091	9741.68
547.297	10526.05
547.502	9651.56
547.708	9475.44
547.914	9577.84
548.119	9897.32
548.325	9514.35
548.531	9315.7
548.736	10286.44
548.942	9827.69
549.147	9418.1
549.353	10020.2
549.559	10372.45
549.764	9925.99
549.97	9395.57
550.175	9731.44
550.381	10339.68
550.586	9954.66
550.792	9944.42
550.997	9581.93
551.203	10462.56
551.408	10392.93
551.614	9686.38
551.819	9909.61
552.025	10386.79
552.23	10638.69
552.435	9848.17
552.641	10251.62
552.846	10122.6
553.052	10560.86
553.257	10454.37
553.462	10050.92
553.668	10255.72
553.873	10802.52
554.078	10155.37
554.283	10175.84
554.489	10644.83
554.694	10583.39
554.899	10235.24
555.105	10257.76
555.31	10495.33
555.515	10771.8
555.72	10519.9
555.925	10038.63
556.131	10841.43
556.336	10491.23
556.541	10296.67
556.746	10095.97
556.951	10820.95
557.156	11070.81
557.361	10544.48
557.567	10593.63
557.772	10941.79
557.977	10689.88
558.182	10466.66
558.387	10454.37
558.592	10675.55
558.797	10857.82
559.002	10480.99
559.207	10425.7
559.412	10880.35
559.617	11218.26
559.822	10517.86
560.027	10397.03
560.232	10978.65
560.437	11177.3
560.642	10421.6
560.847	10728.8
561.051	11062.62
561.256	10968.41
561.461	10870.11
561.666	10630.49
561.871	11167.06
562.076	11289.94
562.281	10724.7
562.485	10564.96
562.69	11138.39
562.895	11267.41
563.1	10972.5
563.305	10587.49
563.509	11423.06
563.714	11799.88
563.919	10761.56
564.123	10788.19
564.328	11185.49
564.533	11507.02
564.737	10831.19
564.942	10673.5
565.147	11484.5
565.351	11728.21
565.556	10990.94
565.761	11052.38
565.965	11410.77
566.17	10913.11
566.374	10988.89
566.579	10782.04
566.784	11228.5
566.988	11277.65
567.193	10900.83
567.397	11025.75
567.602	11042.14
567.806	11416.91
568.011	11005.27
568.215	11210.07
568.42	11267.41
568.624	11461.97
568.828	11081.05
569.033	11138.39
569.237	11777.36
569.442	11605.33
569.646	10884.44
569.85	11177.3
570.055	11521.36
570.259	11554.13
570.463	11459.92
570.668	11257.17
570.872	11429.2
571.076	11457.87
571.281	11404.63
571.485	11371.86
571.689	11576.66
571.893	11713.87
572.098	11369.81
572.302	11255.12
572.506	11863.37
572.71	11863.37
572.914	11365.71
573.119	11574.61
573.323	12072.26
573.527	12113.22
573.731	11631.95
573.935	11582.8
574.139	11978.06
574.343	11662.67
574.547	11588.94
574.751	11611.47
574.955	12080.46
575.159	12234.05
575.364	11734.35
575.568	11476.3
575.772	11846.99
575.976	12352.84
576.18	11617.61
576.383	11783.5
576.587	12348.74
576.791	12004.68
576.995	11865.42
577.199	11679.05
577.403	12391.75
577.607	12514.63
577.811	11732.3
578.015	11883.85
578.219	12371.27
578.422	12305.73
578.626	11730.25
578.83	11935.05
579.034	12397.89
579.238	12094.79
579.442	11885.9
579.645	12199.24
579.849	12225.86
580.053	12510.53
580.257	11978.06
580.46	11986.25
580.664	12543.3
580.868	12617.02
581.071	12182.85
581.275	12088.65
581.479	12186.95
581.682	12565.82
581.886	11910.47
582.09	12234.05
582.293	12641.6
582.497	12772.67
582.7	12418.37
582.904	12375.36
583.107	12375.36
583.311	12516.67
583.515	12279.11
583.718	12160.33
583.922	12770.62
584.125	13153.59
584.329	12041.54
584.532	12633.41
584.735	12967.23
584.939	12768.57
585.142	12281.16
585.346	12264.77
585.549	12868.92
585.753	12739.9
585.956	12520.77
586.159	12686.65
586.363	13110.58
586.566	12911.93
586.769	12508.48
586.973	12434.75
587.176	12922.17
587.379	12993.85
587.582	12729.66
587.786	12776.77
587.989	13055.29
588.192	13587.76
588.395	12627.26
588.599	12873.02
588.802	12985.66
589.005	13034.81
589.208	12662.08
589.411	12762.43
589.615	13122.87
589.818	13462.83
590.021	13063.48
590.224	12735.81
590.427	13362.48
590.63	13243.7
590.833	12412.23
591.036	12664.13
591.239	13202.74
591.442	13149.5
591.645	13010.23
591.848	13012.28
592.051	13253.94
592.254	13376.82
592.457	13161.78
592.66	12864.83
592.863	13346.1
593.066	13339.96
593.269	12913.98
593.472	13092.15
593.675	13190.45
593.878	13559.09
594.081	13260.09
594.284	12889.4
594.486	13548.85
594.689	13645.1
594.892	13227.32
595.095	13067.58
595.298	13960.49
595.5	13575.47
595.703	13569.33
595.906	13450.55
596.109	13806.89
596.311	14005.55
596.514	13061.43
596.717	13735.21
596.92	13983.02
597.122	13823.28
597.325	13047.1
597.528	13241.65
597.73	14236.97
597.933	13548.85
598.136	13653.3
598.338	13233.46
598.541	14075.18
598.743	14343.46
598.946	13630.77
599.148	13813.04
599.351	13870.38
599.554	14263.59
599.756	13501.75
599.959	13659.44
600.161	14189.86
600.363	14718.24
600.566	13868.33
600.768	13618.48
600.971	14206.25
601.173	13913.39
601.376	13665.58
601.578	13616.43
601.78	14294.31
601.983	14849.31
602.185	13634.86
602.388	13937.96
602.59	14150.95
602.792	13829.42
602.995	13985.07
603.197	13835.56
603.399	14243.11
603.601	14144.81
603.804	13745.45
604.006	13708.59
604.208	14300.45
604.41	13669.68
604.613	14112.04
604.815	13663.54
605.017	14726.43
605.219	13862.19
605.421	14099.75
605.623	13878.57
605.826	14495.01
606.028	14640.42
606.23	14144.81
606.432	13710.64
606.634	14785.82
606.836	14656.8
607.038	13831.47
607.24	14181.67
607.442	14243.11
607.644	14267.69
607.846	14171.43
608.048	13962.54
608.25	14464.29
608.452	14034.22
608.654	13970.73
608.856	13790.51
609.058	14169.38
609.26	14535.97
609.462	14290.21
609.664	14310.69
609.866	14824.73
610.067	14425.38
610.269	14347.56
610.471	14093.61
610.673	14304.55
610.875	14423.33
611.077	13874.48
611.278	14327.08
611.48	14648.61
611.682	14882.08
611.884	14384.42
612.085	14107.94
612.287	14042.41
612.489	14660.9
612.69	13907.24
612.892	14232.87
613.094	14632.22
613.295	14394.66
613.497	14181.67
613.699	14239.01
613.9	14718.24
614.102	14871.84
614.304	14222.63
614.505	14071.08
614.707	14689.57
614.908	14564.64
615.11	14157.1
615.311	14378.28
615.513	14595.36
615.714	14695.71
615.916	14214.44
616.117	14288.17
616.319	14431.52
616.52	14781.73
616.722	14273.83
616.923	14241.06
617.124	14810.4
617.326	15019.29
617.527	14435.62
617.729	14603.55
617.93	14583.07
618.131	14816.54
618.333	14333.22
618.534	14288.17
618.735	14341.41
618.937	15158.55
619.138	14267.69
619.339	14148.9
619.54	14837.02
619.742	14697.76
619.943	14585.12
620.144	14421.28
620.345	14802.21
620.546	14970.14
620.748	14370.08
620.949	14501.15
621.15	14671.14
621.351	14480.68
621.552	14329.13
621.753	14208.3
621.954	14327.08
622.155	15144.22
622.356	14314.79
622.558	14593.31
622.759	14540.07
622.96	15090.97
623.161	14304.55
623.362	14353.7
623.563	14460.2
623.764	14730.53
623.965	14308.65
624.166	14763.29
624.366	14736.67
624.567	14918.94
624.768	14095.66
624.969	14265.64
625.17	14757.15
625.371	14806.3
625.572	14454.05
625.773	14411.04
625.973	15052.06
626.174	15058.2
626.375	14628.13
626.576	14634.27
626.777	15095.07
626.977	15465.75
627.178	14630.18
627.379	14964
627.58	14701.86
627.78	15054.11
627.981	14523.68
628.182	14550.31
628.382	15146.26
628.583	14521.63
628.784	14353.7
628.984	14687.52
629.185	15320.34
629.386	15158.55
629.586	14976.28
629.787	14751.01
629.987	15054.11
630.188	15150.36
630.388	14617.89
630.589	14654.75
630.79	15512.85
630.99	14972.19
631.191	14779.68
631.391	14861.6
631.591	15189.27
631.792	15435.03
631.992	15041.82
632.193	14908.7
632.393	15480.08
632.594	15117.59
632.794	14550.31
632.994	15150.36
633.195	14890.27
633.395	15117.59
633.595	14906.65
633.796	14914.84
633.996	14796.06
634.196	15349.01
634.397	14843.17
634.597	14765.34
634.797	14964
634.997	15357.21
635.198	14964
635.398	14818.59
635.598	15303.96
635.798	15656.21
635.998	15398.17
636.199	14826.78
636.399	15295.77
636.599	14767.39
636.799	14863.65
636.999	15025.43
637.199	15306.01
637.399	15525.14
637.599	14968.09
637.799	14949.66
637.999	15148.31
638.199	15682.83
638.399	14933.28
638.599	15011.1
638.799	15514.9
638.999	15881.49
639.199	15160.6
639.399	15392.02
639.599	15688.98
639.799	15197.46
639.999	15013.15
640.199	14943.52
640.399	15457.56
640.599	15113.5
640.799	15250.71
640.998	15418.64
641.198	15723.79
641.398	15265.05
641.598	15140.12
641.798	15277.33
641.997	16614.66
642.197	15484.18
642.397	15381.78
642.597	15144.22
642.796	15519
642.996	15947.02
643.196	15254.81
643.395	15078.68
643.595	15680.78
643.795	14812.45
643.994	15062.3
644.194	15052.06
644.394	15893.77
644.593	15654.16
644.793	15146.26
644.992	15213.85
645.192	15562
645.392	15234.33
645.591	15711.5
645.791	15332.63
645.99	15834.38
646.19	15754.51
646.389	15365.4
646.589	15416.6
646.788	15582.48
646.987	15562
647.187	15975.69
647.386	15383.83
647.586	15873.29
647.785	15897.87
647.984	15514.9
648.184	15508.76
648.383	15627.54
648.582	15654.16
648.782	15484.18
648.981	15537.43
649.18	15408.4
649.38	15824.14
649.579	15555.86
649.778	15574.29
649.977	15809.81
650.177	15770.9
650.376	15293.72
650.575	15105.31
650.774	16235.78
650.973	15471.89
651.173	15119.64
651.372	15432.98
651.571	15901.97
651.77	16141.58
651.969	15516.95
652.168	15420.69
652.367	15533.33
652.566	15934.73
652.765	15541.52
652.964	15961.36
653.163	16348.42
653.362	15797.52
653.561	15625.49
653.76	15611.15
653.959	15867.15
654.158	16485.64
654.357	15893.77
654.556	15588.63
654.755	16241.93
654.954	15922.45
655.153	15762.7
655.352	15746.32
655.551	15748.37
655.749	15815.95
655.948	15551.76
656.147	15879.44
656.346	16235.78
656.545	15969.55
656.743	15734.03
656.942	15756.56
657.141	16448.77
657.34	15742.22
657.538	15672.59
657.737	15813.9
657.936	16024.84
658.135	15994.12
658.333	15519
658.532	15824.14
658.731	16319.75
658.929	16223.5
659.128	16016.65
659.326	15590.67
659.525	16387.33
659.724	15832.33
659.922	15492.37
660.121	15316.25
660.319	15873.29
660.518	15772.94
660.716	15672.59
660.915	15713.55
661.113	16137.48
661.312	15650.07
661.51	15963.4
661.709	15834.38
661.907	16246.02
662.105	16282.89
662.304	15598.87
662.502	15840.53
662.701	16342.28
662.899	16024.84
663.097	16196.87
663.296	15762.7
663.494	16620.8
663.692	16303.37
663.891	15799.57
664.089	15598.87
664.287	16192.78
664.485	16354.57
664.684	15842.57
664.882	15688.98
665.08	16045.32
665.278	16127.24
665.476	15623.44
665.675	16073.99
665.873	16368.9
666.071	16295.18
666.269	15609.11
666.467	16022.8
666.665	16336.13
666.863	15629.59
667.061	15938.83
667.259	15686.93
667.457	16250.12
667.655	16196.87
667.853	15830.29
668.051	15856.91
668.249	15971.6
668.447	16252.17
668.645	15576.34
668.843	16131.34
669.041	16282.89
669.239	15625.49
669.437	16123.15
669.635	16110.86
669.833	16237.83
670.031	16239.88
670.229	15914.25
670.426	16006.41
670.624	16151.82
670.822	15471.89
671.02	15766.8
671.218	15750.42
671.415	15648.02
671.613	15809.81
671.811	15856.91
672.009	15783.18
672.206	16133.39
672.404	16063.75
672.602	16047.37
672.799	15895.82
672.997	16262.41
673.195	16332.04
673.392	15887.63
673.59	15635.73
673.788	15959.31
673.985	15203.61
674.183	15611.15
674.38	15641.87
674.578	16024.84
674.775	15590.67
674.973	15328.53
675.17	15607.06
675.368	16014.6
675.565	16078.09
675.763	15596.82
675.96	15447.32
676.158	16233.74
676.355	15623.44
676.553	15654.16
676.75	15639.83
676.947	15846.67
677.145	15811.85
677.342	15918.35
677.539	15850.77
677.737	16061.71
677.934	16413.96
678.131	15738.13
678.329	15639.83
678.526	16018.7
678.723	15936.78
678.92	15672.59
679.118	15457.56
679.315	15654.16
679.512	16106.76
679.709	15283.48
679.906	15605.01
680.104	16012.56
680.301	15672.59
680.498	15578.39
680.695	15670.54
680.892	15637.78
681.089	15865.1
681.286	15774.99
681.483	15340.82
681.68	16121.1
681.877	15992.08
682.075	15635.73
682.272	15645.97
682.469	15844.62
682.665	15580.43
682.862	15326.49
683.059	15406.36
683.256	15783.18
683.453	15627.54
683.65	15506.71
683.847	15584.53
684.044	15492.37
684.241	15562
684.438	15592.72
684.635	15142.17
684.831	16215.3
685.028	15955.21
685.225	15238.42
685.422	15199.51
685.619	15516.95
685.815	15705.36
686.012	15457.56
686.209	15164.7
686.405	15242.52
686.602	15680.78
686.799	15383.83
686.996	15424.79
687.192	15455.51
687.389	16024.84
687.586	15252.76
687.782	15281.43
687.979	15947.02
688.175	15680.78
688.372	15301.91
688.568	15332.63
688.765	15512.85
688.962	15650.07
689.158	15226.14
689.355	14828.83
689.551	15623.44
689.748	15301.91
689.944	15326.49
690.14	15037.72
690.337	15367.45
690.533	15369.49
690.73	15168.79
690.926	15238.42
691.123	15406.36
691.319	15191.32
691.515	14861.6
691.712	15320.34
691.908	15609.11
692.104	15428.88
692.301	15176.98
692.497	14982.43
692.693	15551.76
692.889	15508.76
693.086	15060.25
693.282	14980.38
693.478	15334.68
693.674	15686.93
693.87	15105.31
694.067	14873.89
694.263	15342.87
694.459	15222.04
694.655	15217.94
694.851	14980.38
695.047	15363.35
695.243	15357.21
695.439	15213.85
695.635	15054.11
695.831	15050.01
696.027	15215.9
696.224	14980.38
696.42	15119.64
696.615	15572.24
696.811	15625.49
697.007	14824.73
697.203	14859.55
697.399	15258.9
697.595	15164.7
697.791	15082.78
697.987	14996.76
698.183	14834.97
698.379	14736.67
698.575	14910.75
698.77	15031.58
698.966	15025.43
699.162	15486.23
699.358	14869.79
699.554	14880.03
699.749	15250.71
699.945	15293.72
700.141	14994.72
700.337	14968.09
700.532	15015.19
700.728	14953.76
700.924	14699.81
701.119	14660.9
701.315	15107.35
701.511	14861.6
701.706	15058.2
701.902	14392.61
702.097	15109.4
702.293	15138.07
702.489	14761.25
702.684	14738.72
702.88	14937.37
703.075	14779.68
703.271	14560.55
703.466	14607.65
703.662	14859.55
703.857	14857.5
704.053	14603.55
704.248	14568.74
704.443	15258.9
704.639	15041.82
704.834	14796.06
705.03	14542.11
705.225	15148.31
705.42	15183.13
705.616	14734.62
705.811	14480.68
706.006	14484.77
706.202	14931.23
706.397	14611.75
706.592	14363.94
706.787	14607.65
706.983	14812.45
707.178	14904.6
707.373	14452
707.568	14896.41
707.763	15054.11
707.959	14570.79
708.154	14507.3
708.349	14691.62
708.544	14908.7
708.739	14918.94
708.934	14337.32
709.129	14810.4
709.324	14755.1
709.519	14267.69
709.714	14562.59
709.909	15088.92
710.104	14755.1
710.299	14382.37
710.494	14644.51
710.689	14648.61
710.884	14789.92
711.079	14642.46
711.274	14552.35
711.469	14601.51
711.664	14478.63
711.859	14363.94
712.054	14710.05
712.249	14785.82
712.443	14748.96
712.638	14513.44
712.833	14087.47
713.028	14794.01
713.223	14578.98
713.417	14507.3
713.612	14464.29
713.807	14894.36
714.002	15160.6
714.196	14519.59
714.391	14333.22
714.586	14761.25
714.78	14488.87
714.975	14406.95
715.17	14286.12
715.364	14363.94
715.559	14779.68
715.754	13815.09
715.948	14058.79
716.143	14804.25
716.337	14574.88
716.532	14437.67
716.726	14409
716.921	14517.54
717.115	14976.28
717.31	14064.94
717.504	14773.53
717.699	14679.33
717.893	14791.97
718.088	13968.68
718.282	14175.53
718.476	14382.37
718.671	14417.19
718.865	14212.39
719.059	14062.89
719.254	14265.64
719.448	14511.39
719.642	15377.69
719.837	13733.17
720.031	14617.89
720.225	14454.05
720.419	13968.68
720.614	13665.58
720.808	14533.92
721.002	14142.76
721.196	13690.16
721.39	13833.52
721.585	14466.34
721.779	14241.06
721.973	13849.9
722.167	13460.79
722.361	14146.86
722.555	14556.45
722.749	13870.38
722.943	14079.27
723.137	13987.11
723.331	14261.54
723.525	13948.2
723.719	13978.92
723.913	14345.51
724.107	14404.9
724.301	13704.49
724.495	13851.95
724.689	14458.15
724.883	14497.06
725.077	13696.3
725.271	13983.02
725.465	14144.81
725.659	14109.99
725.853	13804.85
726.046	13487.41
726.24	13749.55
726.434	13903.15
726.628	13624.62
726.822	13460.79
727.015	14314.79
727.209	13878.57
727.403	13923.63
727.596	13329.72
727.79	14181.67
727.984	14296.36
728.177	14036.27
728.371	13843.76
728.565	14073.13
728.758	13714.73
728.952	13745.45
729.146	13782.32
729.339	14439.72
729.533	14171.43
729.726	13739.31
729.92	13688.11
730.113	14472.48
730.307	13946.16
730.5	13718.83
730.694	13780.27
730.887	13731.12
731.081	14230.82
731.274	13669.68
731.468	13712.69
731.661	14263.59
731.854	13892.91
732.048	14112.04
732.241	13454.64
732.435	13937.96
732.628	14026.03
732.821	13720.88
733.014	13520.18
733.208	13897
733.401	14300.45
733.594	13788.46
733.788	13612.34
733.981	14347.56
734.174	14165.29
734.367	13735.21
734.56	13862.19
734.754	14269.73
734.947	14300.45
735.14	13667.63
735.333	13927.72
735.526	14386.47
735.719	13835.56
735.912	13663.54
736.105	13753.65
736.298	13960.49
736.491	13616.43
736.684	13411.64
736.877	13526.32
737.07	13946.16
737.263	14150.95
737.456	13737.26
737.649	13432.12
737.842	13554.99
738.035	13810.99
738.228	13477.17
738.421	13729.07
738.614	13925.68
738.807	13837.61
739	13055.29
739.192	13301.05
739.385	13985.07
739.578	13872.43
739.771	13595.95
739.964	13626.67
740.156	13903.15
740.349	13604.14
740.542	13651.25
740.735	13600.05
740.927	13493.55
741.12	13618.48
741.313	13479.22
741.505	13763.89
741.698	13815.09
741.891	13841.71
742.083	13552.95
742.276	13499.7
742.468	13724.97
742.661	13790.51
742.854	13464.88
743.046	13313.33
743.239	14087.47
743.431	13942.06
743.624	13333.81
743.816	13135.16
744.009	13557.04
744.201	13776.17
744.393	13829.42
744.586	13040.95
744.778	13935.92
744.971	13348.15
745.163	13411.64
745.355	13344.05
745.548	13505.84
745.74	13296.95
745.932	13319.48
746.125	13403.44
746.317	13935.92
746.509	13491.51
746.702	13301.05
746.894	13528.37
747.086	13733.17
747.278	13911.34
747.471	13651.25
747.663	13258.04
747.855	13665.58
748.047	13946.16
748.239	13325.62
748.431	13223.22
748.623	14001.45
748.815	13526.32
749.008	12934.46
749.2	13288.76
749.392	13524.27
749.584	13417.78
749.776	13241.65
749.968	13485.36
750.16	14095.66
750.352	13380.92
750.544	13151.54
750.736	13296.95
750.928	13763.89
751.12	13591.86
751.311	13124.92
751.503	13462.83
751.695	13733.17
751.887	13454.64
752.079	13014.33
752.271	13057.34
752.463	14200.1
752.654	13659.44
752.846	12997.95
753.038	12789.05
753.23	13331.76
753.421	13511.99
753.613	13182.26
753.805	13364.53
753.997	13638.96
754.188	13421.88
754.38	13028.67
754.572	13204.79
754.763	13243.7
754.955	13301.05
755.146	13057.34
755.338	12797.24
755.53	13342
755.721	12932.41
755.913	12690.75
756.104	13045.05
756.296	13016.38
756.487	13208.89
756.679	12512.58
756.87	12981.56
757.062	12924.22
757.253	13309.24
757.445	12846.4
757.636	12918.07
757.827	13311.28
758.019	13710.64
758.21	12815.68
758.401	12733.76
758.593	13417.78
758.784	13276.47
758.975	12438.85
759.167	12522.82
759.358	13010.23
759.549	13221.17
759.74	12852.54
759.932	12475.71
760.123	13059.38
760.314	12881.21
760.505	12756.29
760.696	12543.3
760.888	13190.45
761.079	12674.37
761.27	12541.25
761.461	12438.85
761.652	13051.19
761.843	12500.29
762.034	12465.47
762.225	12678.46
762.416	12600.64
762.607	12657.98
762.798	12436.8
762.989	12404.03
763.18	13239.61
763.371	12408.13
763.562	12184.9
763.753	12293.44
763.944	12903.74
764.135	12739.9
764.326	12637.5
764.517	12277.06
764.708	12602.69
764.899	12660.03
765.089	12172.61
765.28	12141.89
765.471	12510.53
765.662	12617.02
765.853	12412.23
766.043	12111.18
766.234	12930.36
766.425	12776.77
766.615	12143.94
766.806	12102.98
766.997	12784.96
767.187	12121.42
767.378	11887.95
767.569	11928.91
767.759	12549.44
767.95	12209.48
768.141	12436.8
768.331	12090.7
768.522	12387.65
768.712	12444.99
768.903	12318.02
769.093	11957.58
769.284	12694.85
769.474	12264.77
769.665	11730.25
769.855	11605.33
770.046	12338.5
770.236	12148.04
770.426	12066.12
770.617	11732.3
770.807	12240.2
770.998	11980.11
771.188	11799.88
771.378	11896.14
771.569	12334.4
771.759	12248.39
771.949	11803.98
772.139	11625.81
772.33	12074.31
772.52	12455.23
772.71	11445.59
772.9	11691.34
773.09	12461.38
773.281	12236.1
773.471	11486.54
773.661	11443.54
773.851	12014.92
774.041	11756.88
774.231	11560.27
774.421	11887.95
774.611	11933
774.802	11775.31
774.992	11599.18
775.182	11404.63
775.372	11672.91
775.562	11861.32
775.752	11568.46
775.942	11664.72
776.131	11980.11
776.321	11857.23
776.511	11480.4
776.701	11482.45
776.891	12059.98
777.081	11539.79
777.271	11504.98
777.461	11412.82
777.651	11763.02
777.84	12010.82
778.03	11330.9
778.22	11203.93
778.41	11867.47
778.599	11335
778.789	11408.72
778.979	11062.62
779.169	11609.42
779.358	11273.56
779.548	11513.17
779.738	11138.39
779.927	11439.44
780.117	11412.82
780.307	11003.22
780.496	10845.53
780.686	11488.59
780.875	11765.07
781.065	10990.94
781.254	11056.47
781.444	11515.22
781.633	11234.64
781.823	10831.19
782.012	10970.46
782.202	11033.94
782.391	11210.07
782.581	10894.68
782.77	11171.16
782.96	11451.73
783.149	11111.77
783.338	10984.79
783.528	10831.19
783.717	11396.43
783.906	11634
784.096	10898.78
784.285	10505.57
784.474	11042.14
784.663	10952.02
784.853	10595.68
785.042	10765.66
785.231	10898.78
785.42	11330.9
785.61	10831.19
785.799	10667.36
785.988	10911.07
786.177	10724.7
786.366	10966.36
786.555	10874.2
786.744	10913.11
786.933	10890.59
787.122	10597.73
787.312	10386.79
787.501	10698.08
787.69	11013.46
787.879	10521.95
788.068	10548.58
788.257	10384.74
788.445	10939.74
788.634	10739.04
788.823	10612.06
789.012	11568.46
789.201	11066.71
789.39	10743.13
789.579	10468.7
789.768	10802.52
789.957	10786.14
790.145	10362.21
790.334	10290.53
790.523	10689.88
790.712	10503.52
790.9	10607.97
791.089	10313.06
791.278	10874.2
791.467	10700.12
791.655	10618.21
791.844	10751.32
792.033	10538.34
792.221	10521.95
792.41	10552.67
792.599	10302.82
792.787	10978.65
792.976	10708.32
793.164	10081.64
793.353	10425.7
793.541	10749.28
793.73	10657.12
793.918	10288.48
794.107	10251.62
794.295	10456.42
794.484	10405.22
794.672	10351.97
794.861	9948.52
795.049	10511.71
795.238	10906.97
795.426	10214.76
795.614	10110.31
795.803	10544.48
795.991	10657.12
796.179	10116.45
796.368	10055.01
796.556	10427.74
796.744	9964.9
796.932	10255.72
797.121	9848.17
797.309	10261.86
797.497	10519.9
797.685	10319.2
797.874	10155.37
798.062	10300.77
798.25	10696.03
798.438	10136.93
798.626	10032.49
798.814	10423.65
799.002	10949.98
799.19	10321.25
799.378	10177.89
799.566	10401.12
799.755	10675.55
799.943	10055.01
800.131	9999.72
800.318	10298.72
800.506	10489.18
800.694	9981.29
800.882	10165.6
801.07	10495.33
801.258	10288.48
801.446	9782.63
801.634	10055.01
801.822	10132.84
802.01	10325.35
802.197	10122.6
802.385	10106.21
802.573	10319.2
802.761	10155.37
802.949	10136.93
803.136	9860.46
803.324	10552.67
803.512	10364.26
803.699	9987.43
803.887	9760.11
804.075	10708.32
804.262	10100.07
804.45	9952.62
804.638	10110.31
804.825	10005.86
805.013	10165.6
805.201	10151.27
805.388	10003.82
805.576	10411.36
805.763	10814.81
805.951	10104.17
806.138	9989.48
806.326	11033.94
806.513	10372.45
806.701	10216.8
806.888	9993.58
807.075	10392.93
807.263	10659.17
807.45	9897.32
807.638	10243.43
807.825	11038.04
808.012	10526.05
808.2	10216.8
808.387	10333.54
808.574	10452.32
808.761	10818.91
808.949	10274.15
809.136	10173.8
809.323	10362.21
809.51	10556.77
809.698	10313.06
809.885	10098.02
810.072	10413.41
810.259	10634.59
810.446	10065.25
810.633	10229.09
810.82	10595.68
811.008	10796.38
811.195	10218.85
811.382	10399.07
811.569	10562.91
811.756	10233.19
811.943	10233.19
812.13	10231.14
812.317	10427.74
812.504	10597.73
812.691	10513.76
812.878	10329.44
813.064	11093.33
813.251	10440.03
813.438	10237.28
813.625	10567.01
813.812	10569.05
813.999	10765.66
814.186	10503.52
814.372	10427.74
814.559	10464.61
814.746	10667.36
814.933	10036.58
815.12	10354.02
815.306	10110.31
815.493	10169.7
815.68	10233.19
815.866	10257.76
816.053	10655.07
816.24	10759.52
816.426	10118.5
816.613	10147.17
816.799	10605.92
816.986	10888.54
817.173	10251.62
817.359	10167.65
817.546	10499.42
817.732	10241.38
817.919	9788.78
818.105	10147.17
818.292	10286.44
818.478	10450.27
818.665	10255.72
818.851	10075.49
819.037	10837.34
819.224	10513.76
819.41	9991.53
819.597	9971.05
819.783	10716.51
819.969	10749.28
820.156	9991.53
820.342	9930.09
820.528	10988.89
820.714	10464.61
820.901	10591.58
821.087	10220.9
821.273	10634.59
821.459	10231.14
821.646	9866.6
821.832	9921.9
822.018	10464.61
822.204	10485.09
822.39	10134.89
822.576	9985.38
822.762	10667.36
822.948	10276.2
823.134	10397.03
823.32	9801.07
823.507	9938.28
823.693	10421.6
823.879	10491.23
824.065	9973.1
824.25	10225
824.436	9995.62
824.622	9856.36
824.808	9776.49
824.994	10173.8
825.18	9882.99
825.366	9782.63
825.552	9790.83
825.738	9975.14
825.923	10181.99
826.109	10102.12
826.295	9680.24
826.481	9725.29
826.667	9842.03
826.852	9956.71
827.038	9592.17
827.224	10351.97
827.409	10493.28
827.595	9524.59
827.781	9819.5
827.966	10227.04
828.152	10272.1
828.338	9792.87
828.523	9459.06
828.709	9794.92
828.894	10251.62
829.08	9733.48
829.266	9438.58
829.451	9819.5
829.637	10270.05
829.822	9663.85
830.008	9481.58
830.193	9997.67
830.378	10208.61
830.564	9686.38
830.749	9440.62
830.935	10030.44
831.12	10034.53
831.305	9399.66
831.491	9786.73
831.676	9411.95
831.861	10016.1
832.047	9649.52
832.232	9250.16
832.417	9923.94
832.602	9876.84
832.788	9237.88
832.973	9463.15
833.158	9614.7
833.343	9649.52
833.528	9387.38
833.714	9596.27
833.899	9936.23
834.084	10114.41
834.269	9360.75
834.454	9481.58
834.639	9987.43
834.824	9721.2
835.009	9620.85
835.194	9614.7
835.379	9866.6
835.564	9921.9
835.749	9463.15
835.934	9332.08
836.119	9553.26
836.304	9612.65
836.489	9411.95
836.674	9512.3
836.859	9135.48
837.044	9901.42
837.228	9256.31
837.413	9270.64
837.598	9592.17
837.783	9708.91
837.968	9237.88
838.152	9016.69
838.337	8940.92
838.522	9827.69
838.707	9438.58
838.891	9336.18
839.076	9317.75
839.261	9536.88
839.445	9088.37
839.63	9223.54
839.815	9565.55
839.999	9016.69
840.184	8875.38
840.368	8842.62
840.553	9317.75
840.737	9543.02
840.922	8799.61
841.106	8967.54
841.291	9090.42
841.475	9293.17
841.66	8971.64
841.844	8672.64
842.029	9805.16
842.213	9026.93
842.397	8895.86
842.582	8879.48
842.766	9626.99
842.951	9411.95
843.135	8865.14
843.319	8969.59
843.504	9246.07
843.688	9432.43
843.872	8625.53
844.056	8678.78
844.241	9258.35
844.425	8832.38
844.609	8863.1
844.793	8373.63
844.977	9311.6
845.161	9149.81
845.346	8570.24
845.53	8574.33
845.714	8983.93
845.898	9043.32
846.082	8525.18
846.266	8625.53
846.45	8932.73
846.634	9104.76
846.818	8656.25
847.002	8775.03
847.186	9084.28
847.37	8826.23
847.554	8471.93
847.738	8709.5
847.922	9102.71
848.106	8897.91
848.29	8336.77
848.473	8541.57
848.657	8799.61
848.841	8754.55
849.025	8455.55
849.209	8109.44
849.392	8758.65
849.576	8693.12
849.76	8119.68
849.944	8562.05
850.127	9131.38
850.311	8326.53
850.495	8449.41
850.678	8269.19
850.862	9057.65
851.046	9069.94
851.229	8467.84
851.413	7978.37
851.596	8732.03
851.78	8828.28
851.964	8287.62
852.147	8529.28
852.331	9256.31
852.514	8889.72
852.698	8295.81
852.881	7925.13
853.065	8775.03
853.248	8660.35
853.431	8447.36
853.615	8091.01
853.798	8996.21
853.982	8467.84
854.165	8254.85
854.348	8144.26
854.532	8263.04
854.715	8322.43
854.898	8172.93
855.081	8111.49
855.265	8566.14
855.448	8748.41
855.631	8197.51
855.814	8158.6
855.997	8529.28
856.181	8246.66
856.364	8213.89
856.547	7974.28
856.73	8349.06
856.913	8369.54
857.096	8037.77
857.279	8074.63
857.462	8093.06
857.645	8449.41
857.828	8410.5
858.011	8074.63
858.194	8025.48
858.377	8308.1
858.56	7882.12
858.743	7832.97
858.926	7970.18
859.109	8365.44
859.292	7742.86
859.475	7781.77
859.658	8373.63
859.841	8265.09
860.023	7732.62
860.206	7777.67
860.389	8299.91
860.572	8347.01
860.755	7855.5
860.937	7863.69
861.12	7937.41
861.303	8056.2
861.486	7794.06
861.668	7687.56
861.851	8086.92
862.034	8131.97
862.216	7904.65
862.399	7419.28
862.581	8033.67
862.764	8465.79
862.947	7804.3
863.129	7675.27
863.312	7855.5
863.494	8291.71
863.677	7910.79
863.859	7464.33
864.042	8080.77
864.224	8183.17
864.406	7669.13
864.589	7318.93
864.771	7835.02
864.954	7607.69
865.136	7662.99
865.318	7245.2
865.501	7839.11
865.683	7472.53
865.865	7593.36
866.048	7474.57
866.23	7886.22
866.412	7630.22
866.594	7173.52
866.777	7714.19
866.959	7898.5
867.141	7662.99
867.323	7564.68
867.505	7431.57
867.687	7662.99
867.869	7546.25
868.052	7386.51
868.234	7406.99
868.416	7622.03
868.598	7994.76
868.78	7460.24
868.962	7292.3
869.144	7775.63
869.326	7800.2
869.508	7355.79
869.69	7079.32
869.872	7245.2
870.054	7744.91
870.236	7071.12
870.417	7089.56
870.599	7589.26
870.781	7759.24
870.963	7415.18
871.145	7112.08
871.327	7148.95
871.508	7671.18
871.69	7148.95
871.872	7116.18
872.054	7302.54
872.235	7570.83
872.417	7165.33
872.599	6915.48
872.78	7847.3
872.962	7349.65
873.144	6776.22
873.325	7155.09
873.507	7738.76
873.689	7361.94
873.87	7017.88
874.052	7247.25
874.233	7437.71
874.415	7767.43
874.596	7214.48
874.778	7081.36
874.959	7466.38
875.141	7581.07
875.322	7028.12
875.503	7212.43
875.685	7447.95
875.866	6747.55
876.048	6948.25
876.229	7060.88
876.41	7308.69
876.592	7411.09
876.773	7234.96
876.954	6933.91
877.136	7728.52
877.317	7288.21
877.498	6892.95
877.679	7169.43
877.86	7566.73
878.042	7529.87
878.223	7251.35
878.404	7562.64
878.585	7810.44
878.766	7812.49
878.947	7497.1
879.128	7314.83
879.309	7722.38
879.49	7843.21
879.672	7261.59
879.853	7353.74
880.034	7292.3
880.215	7413.13
880.396	7347.6
880.576	7173.52
880.757	7441.81
880.938	7968.13
881.119	7097.75
881.3	7243.15
881.481	7400.85
881.662	8238.47
881.843	7216.53
882.023	7210.39
882.204	7642.51
882.385	7636.36
882.566	7562.64
882.747	7357.84
882.927	7603.6
883.108	7701.9
883.289	7093.65
883.469	7710.09
883.65	7493.01
883.831	7746.95
884.011	7546.25
884.192	7325.07
884.373	8154.5
884.553	7902.6
884.734	7509.39
884.914	7746.95
885.095	8293.76
885.275	8209.79
885.456	7632.27
885.636	7609.74
885.817	7771.53
885.997	7900.55
886.178	7511.44
886.358	7726.47
886.538	7863.69
886.719	8693.12
886.899	7368.08
887.08	7744.91
887.26	8115.59
887.44	7617.93
887.621	7439.76
887.801	7767.43
887.981	8359.3
888.161	8009.09
888.342	7605.64
888.522	7675.27
888.702	7980.42
888.882	8260.99
889.062	7845.26
889.242	7425.42
889.423	8359.3
889.603	7933.32
889.783	8023.43
889.963	7785.87
890.143	8170.88
890.323	8117.64
890.503	7835.02
890.683	7710.09
890.863	7765.39
891.043	7890.31
891.223	7839.11
891.403	7898.5
891.583	7947.65
891.763	8031.62
891.943	7783.82
892.122	7677.32
892.302	7851.4
892.482	7982.47
892.662	7716.23
892.842	7722.38
893.022	8011.14
893.201	7873.93
893.381	7826.82
893.561	7572.88
893.741	8107.4
893.92	7933.32
894.1	7857.54
894.28	7609.74
894.459	8111.49
894.639	7851.4
894.819	7447.95
894.998	7546.25
895.178	7894.41
895.357	8072.58
895.537	7433.61
895.716	7435.66
895.896	7888.26
896.075	8185.22
896.255	7648.65
896.434	7284.11
896.614	8168.84
896.793	8152.45
896.973	7828.87
897.152	7488.91
897.331	7931.27
897.511	8187.27
897.69	7488.91
897.87	7409.04
898.049	8033.67
898.228	7896.46
898.407	7540.11
898.587	7710.09
898.766	7353.74
898.945	7726.47
899.124	7439.76
899.304	7323.02
899.483	7826.82
899.662	8129.92
899.841	7333.26
900.02	7122.32
900.199	7683.47
900.378	7456.14
900.557	7224.72
900.737	7206.29
900.916	7652.75
901.095	7746.95
901.274	7351.7
901.453	7243.15
901.632	7110.04
901.811	7335.31
901.989	6997.4
902.168	7198.1
902.347	7689.61
902.526	7021.97
902.705	7134.61
902.884	7173.52
903.063	7366.03
903.242	7493.01
903.42	6892.95
903.599	7159.19
903.778	7372.18
903.957	7460.24
904.135	6899.09
904.314	6792.6
904.493	7105.94
904.672	7380.37
904.85	6841.75
905.029	6718.87
905.207	6882.71
905.386	7603.6
905.565	6614.43
905.743	6684.06
905.922	6743.45
906.1	7056.79
906.279	6405.53
906.457	6331.81
906.636	6647.19
906.814	6657.43
906.993	6327.71
907.171	6266.27
907.35	6753.69
907.528	6933.91
907.707	6524.32
907.885	6256.03
908.063	6919.57
908.242	6475.17
908.42	6258.08
908.598	6106.53
908.777	6696.35
908.955	6327.71
909.133	6335.9
909.311	5850.53
909.49	6235.55
909.668	6284.7
909.846	6200.74
910.024	6165.92
910.202	6499.74
910.38	6528.41
910.559	6057.38
910.737	6108.58
910.915	6722.97
911.093	6628.76
911.271	6415.77
911.449	6456.73
911.627	6772.12
911.805	7320.98
911.983	6380.96
912.161	6612.38
912.339	6929.81
912.517	6886.81
912.695	6671.77
912.872	6514.08
913.05	6432.16
913.228	6745.5
913.406	6598.04
913.584	6464.93
913.762	7095.7
913.939	6702.49
914.117	6485.41
914.295	6577.56
914.473	6974.87
914.65	6784.41
914.828	6469.02
915.006	6622.62
915.184	6575.52
915.361	6825.37
915.539	6430.11
915.716	6712.73
915.894	6788.5
916.072	6983.06
916.249	6741.4
916.427	6690.2
916.604	6485.41
916.782	6757.78
916.959	6374.81
917.137	6385.05
917.314	6919.57
917.492	6702.49
917.669	6626.71
917.847	6497.69
918.024	6712.73
918.201	6462.88
918.379	6493.6
918.556	6337.95
918.733	6837.66
918.911	6698.39
919.088	6608.28
919.265	6260.13
919.442	6616.48
919.62	6428.06
919.797	6104.48
919.974	6059.43
920.151	6639
920.328	6409.63
920.506	6321.57
920.683	6569.37
920.86	6137.25
921.037	6247.84
921.214	6276.51
921.391	6151.59
921.568	6679.96
921.745	6208.93
921.922	6122.91
922.099	5850.53
922.276	6667.67
922.453	6321.57
922.63	6112.67
922.807	6415.77
922.984	6360.48
923.161	6245.79
923.338	6251.94
923.514	5948.84
923.691	6266.27
923.868	6550.94
924.045	5961.13
924.222	5932.45
924.399	6346.14
924.575	6489.5
924.752	6010.28
924.929	6041
925.105	6190.5
925.282	5887.4
925.459	5905.83
925.635	6120.87
925.812	6180.26
925.989	6047.14
926.165	5916.07
926.342	5637.55
926.518	5920.17
926.695	6038.95
926.871	5719.46
927.048	5547.44
927.224	6235.55
927.401	5785
927.577	5735.85
927.754	5502.38
927.93	6262.18
928.107	6077.86
928.283	5369.26
928.459	5717.42
928.636	6022.56
928.812	5871.01
928.988	5563.82
929.165	5477.8
929.341	5739.94
929.517	5698.99
929.693	5692.84
929.87	5223.86
930.046	5662.12
930.222	5522.86
930.398	5404.08
930.574	5373.36
930.751	5615.02
930.927	5420.46
931.103	5293.49
931.279	5201.33
931.455	5371.31
931.631	5512.62
931.807	5186.99
931.983	5098.93
932.159	5053.87
932.335	5426.61
932.511	5170.61
932.687	4951.48
932.863	5199.28
933.039	5334.45
933.215	4705.72
933.391	4638.14
933.566	5006.77
933.742	5115.31
933.918	4887.99
934.094	4621.75
934.27	5115.31
934.445	4984.24
934.621	4842.93
934.797	4599.23
934.973	5152.18
935.148	4957.62
935.324	4363.71
935.5	4320.7
935.675	4887.99
935.851	4838.84
936.027	4439.48
936.202	4388.29
936.378	4668.86
936.553	4507.07
936.729	4451.77
936.904	4089.28
937.08	4138.43
937.255	4060.61
937.431	3968.45
937.606	3739.08
937.782	4007.36
937.957	4001.22
938.133	3804.61
938.308	3610.06
938.483	3722.7
938.659	3509.71
938.834	3593.67
939.009	3460.56
939.185	3618.25
939.36	3339.73
939.535	2995.67
939.71	3294.67
939.886	3698.12
940.061	3577.29
940.236	3278.29
940.411	3239.37
940.586	3425.74
940.761	3464.65
940.937	3085.78
941.112	2966.99
941.287	3085.78
941.462	3210.7
941.637	3014.1
941.812	3061.2
941.987	3403.21
942.162	3151.31
942.337	3114.45
942.512	2936.28
942.687	3358.16
942.862	3253.71
943.037	2852.31
943.212	2534.87
943.386	2948.56
943.561	3048.91
943.736	3016.15
943.911	3143.12
944.086	3214.8
944.26	3065.3
944.435	2803.16
944.61	2993.62
944.785	3483.08
944.959	3534.28
945.134	2764.25
945.309	2782.68
945.483	2893.27
945.658	3188.18
945.833	2602.46
946.007	2622.94
946.182	3319.25
946.357	2778.58
946.531	2688.47
946.706	2768.34
946.88	2516.44
947.055	3044.82
947.229	2864.6
947.404	2690.52
947.578	3343.82
947.752	2999.76
947.927	2725.33
948.101	2721.24
948.276	3110.35
948.45	3229.13
948.624	2971.09
948.799	2805.21
948.973	3010
949.147	2766.29
949.321	3003.86
949.496	2946.52
949.67	3438.03
949.844	3083.73
950.018	3053.01
950.193	2866.64
950.367	3632.58
950.541	3190.22
950.715	3020.24
950.889	3100.11
951.063	3198.42
951.237	3386.83
951.411	2690.52
951.585	2958.8
951.759	3319.25
951.933	3110.35
952.107	2934.23
952.281	2956.75
952.455	3505.61
952.629	3374.54
952.803	2942.42
952.977	2942.42
953.151	3399.12
953.325	3339.73
953.499	3272.14
953.672	2835.92
953.846	3089.87
954.02	3163.6
954.194	2999.76
954.368	3067.35
954.541	3507.66
954.715	3210.7
954.889	3319.25
955.062	3077.59
955.236	3298.77
955.41	3249.61
955.583	3188.18
955.757	2739.67
955.93	3171.79
956.104	3184.08
956.278	3102.16
956.451	3024.34
956.625	3569.1
956.798	3794.37
956.972	3302.86
957.145	3057.11
957.319	3415.5
957.492	3175.89
957.665	3155.41
957.839	3120.59
958.012	3366.35
958.185	3220.94
958.359	3278.29
958.532	3229.13
958.705	3603.91
958.879	3341.77
959.052	3296.72
959.225	2985.43
959.398	3452.36
959.572	3374.54
959.745	3175.89
959.918	3364.3
960.091	3245.52
960.264	3638.73
960.438	2964.95
960.611	3112.4
960.784	3829.19
960.957	3358.16
961.13	3554.76
961.303	3182.03
961.476	3466.7
961.649	3657.16
961.822	3149.26
961.995	3294.67
962.168	3544.52
962.341	3495.37
962.514	3233.23
962.686	3063.25
962.859	3354.06
963.032	3571.15
963.205	3200.46
963.378	3067.35
963.551	3442.12
963.723	3354.06
963.896	3245.52
964.069	3257.81
964.242	3382.73
964.414	3542.47
964.587	3087.82
964.76	3302.86
964.932	3380.68
965.105	3290.57
965.278	3038.67
965.45	3222.99
965.623	3225.04
965.795	3556.81
965.968	3200.46
966.14	3220.94
966.313	3298.77
966.485	3296.72
966.658	3003.86
966.83	3083.73
967.003	3550.67
967.175	3405.26
967.348	3196.37
967.52	3196.37
967.692	3530.19
967.865	3487.18
968.037	3118.54
968.209	3429.84
968.382	3427.79
968.554	3483.08
968.726	3057.11
968.898	3089.87
969.071	3474.89
969.243	3462.6
969.415	2971.09
969.587	2991.57
969.759	3794.37
969.932	3540.43
970.104	3104.21
970.276	2942.42
970.448	3114.45
970.62	3098.06
970.792	3134.93
970.964	2911.7
971.136	3679.69
971.308	3405.26
971.48	2956.75
971.652	2901.46
971.824	3579.34
971.996	3091.92
972.168	2938.32
972.339	3003.86
972.511	3442.12
972.683	3225.04
972.855	3173.84
973.027	2928.08
973.199	3143.12
973.37	3401.16
973.542	3112.4
973.714	3093.97
973.886	3196.37
974.057	3419.6
974.229	2964.95
974.401	2926.04
974.572	2868.69
974.744	2717.14
974.915	2743.77
975.087	2831.83
975.259	3581.39
975.43	2926.04
975.602	2835.92
975.773	2741.72
975.945	2876.88
976.116	3186.13
976.288	2737.62
976.459	3057.11
976.63	2885.08
976.802	3163.6
976.973	2590.17
977.145	2891.22
977.316	3472.84
977.487	3179.98
977.659	2917.84
977.83	2811.35
978.001	3392.97
978.172	3122.64
978.344	2584.02
978.515	2745.81
978.686	2827.73
978.857	3276.24
979.028	2840.02
979.2	2807.25
979.371	3106.26
979.542	2926.04
979.713	2811.35
979.884	2315.74
980.055	2606.55
980.226	2721.24
980.397	2575.83
980.568	2514.39
980.739	3059.15
980.91	2829.78
981.081	2758.1
981.252	2594.26
981.423	2995.67
981.594	3102.16
981.765	2553.31
981.936	2590.17
982.106	2885.08
982.277	3026.39
982.448	2530.78
982.619	2805.21
982.79	2670.04
982.96	3050.96
983.131	2678.23
983.302	2262.49
983.472	2794.97
983.643	2831.83
983.814	2622.94
983.984	2434.52
984.155	2704.85
984.326	2950.61
984.496	2635.22
984.667	2522.59
984.837	2569.69
985.008	3028.43
985.178	2799.06
985.349	2467.29
985.519	2485.72
985.69	2485.72
985.86	2366.94
986.031	2291.17
986.201	2672.09
986.371	2811.35
986.542	2194.91
986.712	2057.7
986.882	2676.18
987.053	2635.22
987.223	2307.55
987.393	2430.43
987.563	2430.43
987.734	2772.44
987.904	2555.35
988.074	2166.24
988.244	2620.89
988.414	2309.6
988.585	2209.25
988.755	2375.13
988.925	2498.01
989.095	2905.56
989.265	2254.3
989.435	2303.45
989.605	2573.78
989.775	2721.24
989.945	2477.53
990.115	1961.44
990.285	2508.25
990.455	2426.33
990.625	2295.26
990.795	2129.38
990.965	2721.24
991.134	2014.69
991.304	2121.18
991.474	2069.98
991.644	2483.67
991.814	2782.68
991.984	2012.64
992.153	1963.49
992.323	2190.81
992.493	2344.41
992.662	1904.1
992.832	2180.57
993.002	2401.76
993.171	2364.89
993.341	1947.11
993.511	2031.07
993.68	1998.31
993.85	2272.73
994.019	1809.89
994.189	1732.07
994.358	2321.88
994.528	2143.71
994.697	1631.72
994.867	1852.9
995.036	2379.23
995.206	2035.17
995.375	1803.75
995.544	2012.64
995.714	2203.1
995.883	2141.66
996.052	2141.66
996.222	1717.73
996.391	2672.09
996.56	2192.86
996.73	1871.33
996.899	1740.26
997.068	2637.27
997.237	2242.01
997.406	1711.59
997.576	1721.83
997.745	2237.92
997.914	2164.19
998.083	1660.39
998.252	1803.75
998.421	2112.99
998.59	1967.59
998.759	1582.57
998.928	1584.62
999.097	2352.6
999.266	2098.66
999.435	1691.11
999.604	1508.84
999.773	2483.67
999.942	2006.5
1000.111	1525.22
1000.28	1533.42
1000.448	1764.84
1000.617	1744.36
1000.786	1764.84
1000.955	1578.47
1001.124	2010.59
1001.292	2661.85
1001.461	1555.94
1001.63	1545.7
1001.798	2248.16
1001.967	2014.69
1002.136	1381.87
1002.304	1355.24
1002.473	2008.55
1002.642	1861.09
1002.81	1590.76
1002.979	1557.99
1003.147	1977.83
1003.316	2323.93
1003.484	1525.22
1003.653	1361.39
1003.821	2106.85
1003.99	1707.49
1004.158	1584.62
1004.327	1549.8
1004.495	1943.01
1004.663	1580.52
1004.832	1512.94
1005	1312.24
1005.168	1881.57
1005.337	1813.99
1005.505	1224.17
1005.673	1494.51
1005.842	1762.79
1006.01	1840.61
1006.178	1123.82
1006.346	1373.68
1006.514	1779.17
1006.683	1877.48
1006.851	1273.32
1007.019	1459.69
1007.187	1484.27
1007.355	1105.39
1007.523	1125.87
1007.691	1033.71
1007.859	1326.57
1008.027	1936.87
1008.195	1342.96
1008.363	1228.27
1008.531	1730.02
1008.699	1529.32
1008.867	1121.77
1009.035	1242.61
1009.203	1836.52
1009.37	1541.61
1009.538	1215.98
1009.706	1730.02
1009.874	1631.72
1010.042	1433.07
1010.209	1144.3
1010.377	1074.67
1010.545	1691.11
1010.713	1545.7
1010.88	1140.21
1011.048	1146.35
1011.216	1383.91
1011.383	1746.41
1011.551	1125.87
1011.718	1002.99
1011.886	1734.12
1012.054	1533.42
1012.221	1011.18
1012.389	1054.19
1012.556	1332.72
1012.724	1816.04
1012.891	1111.54
1013.058	904.69
1013.226	1539.56
1013.393	1617.38
1013.561	923.12
1013.728	876.02
1013.895	1570.28
1014.063	1469.93
1014.23	896.5
1014.397	994.8
1014.565	1549.8
1014.732	1302
1014.899	959.99
1015.066	1029.62
1015.233	1275.37
1015.401	1428.97
1015.568	943.6
1015.735	1013.23
1015.902	1320.43
1016.069	1517.03
1016.236	978.42
1016.403	951.79
1016.57	1164.78
1016.737	1494.51
1016.904	976.37
1017.071	718.33
1017.238	1043.95
1017.405	1426.92
1017.572	921.07
1017.739	1025.52
1017.906	1433.07
1018.073	1371.63
1018.24	706.04
1018.407	935.41
1018.573	1580.52
1018.74	1117.68
1018.907	939.51
1019.074	597.49
1019.241	1416.68
1019.407	1201.65
1019.574	767.48
1019.741	646.65
1019.907	1209.84
1020.074	1230.32
1020.241	579.06
1020.407	681.46
1020.574	1277.42
1020.74	1273.32
1020.907	722.42
1021.073	675.32
1021.24	1625.58
1021.406	1428.97
1021.573	669.17
1021.739	736.76
1021.906	1353.2
1022.072	1035.76
1022.239	683.51
1022.405	669.17
1022.571	1103.34
1022.738	804.34
1022.904	744.95
1023.07	689.65
1023.237	1027.57
1023.403	1338.86
1023.569	787.96
1023.735	759.28
1023.902	976.37
1024.068	1172.97
1024.234	706.04
1024.4	652.79
1024.566	1109.49
1024.732	1211.89
1024.898	607.73
1025.065	511.48
1025.231	1252.84
1025.397	882.16
1025.563	673.27
1025.729	480.76
1025.895	583.16
1026.061	744.95
1026.227	361.98
1026.392	550.39
1026.558	1304.04
1026.724	1048.05
1026.89	564.73
1027.056	632.31
1027.222	976.37
1027.388	792.05
1027.553	536.06
1027.719	577.02
1027.885	1367.53
1028.051	1125.87
1028.216	411.13
1028.382	544.25
1028.548	1052.14
1028.713	873.97
1028.879	480.76
1029.045	660.98
1029.21	1242.61
1029.376	1263.08
1029.541	505.34
1029.707	626.17
1029.873	1002.99
1030.038	1052.14
1030.204	484.86
1030.369	515.58
1030.534	1125.87
1030.7	695.8
1030.865	501.24
1031.031	482.81
1031.196	873.97
1031.361	822.77
1031.527	462.33
1031.692	343.55
1031.857	441.85
1032.023	1041.9
1032.188	316.92
1032.353	542.2
1032.518	1205.74
1032.684	902.64
1032.849	284.16
1033.014	435.71
1033.179	953.84
1033.344	914.93
1033.509	501.24
1033.674	513.53
1033.839	986.61
1034.004	988.66
1034.17	355.83
1034.335	241.15
1034.5	685.56
1034.664	663.03
1034.829	404.99
1034.994	404.99
1035.159	820.72
1035.324	937.46
1035.489	400.89
1035.654	351.74
1035.819	1187.31
1035.984	847.35
1036.148	480.76
1036.313	429.56
1036.478	1086.96
1036.643	849.4
1036.807	380.41
1036.972	357.88
1037.137	1037.81
1037.301	742.9
1037.466	247.29
1037.631	468.47
1037.795	1019.38
1037.96	845.3
1038.124	468.47
1038.289	235
1038.454	929.27
1038.618	847.35
1038.783	366.07
1038.947	493.05
1039.111	794.1
1039.276	671.22
1039.44	347.64
1039.605	927.22
1039.769	566.78
1039.933	675.32
1040.098	368.12
1040.262	699.89
1040.426	906.74
1040.591	935.41
1040.755	263.68
1040.919	355.83
1041.083	806.39
1041.248	665.08
1041.412	189.95
1041.576	263.68
1041.74	658.93
1041.904	781.81
1042.068	232.96
1042.232	370.17
1042.397	984.56
1042.561	794.1
1042.725	85.5
1042.889	413.18
1043.053	849.4
1043.217	757.24
1043.381	378.36
1043.544	200.19
1043.708	943.6
1043.872	378.36
1044.036	19.97
1044.2	245.24
1044.364	792.05
1044.528	986.61
1044.691	3605.96
1044.855	171.52
1045.019	919.03
1045.183	765.43
1045.346	269.82
1045.51	183.81
1045.674	761.33
1045.837	781.81
1046.001	243.2
1046.165	220.67
1046.328	1164.78
1046.492	779.76
1046.655	417.27
1046.819	374.27
1046.983	484.86
1047.146	677.37
1047.31	308.73
1047.473	42.5
1047.636	613.88
1047.8	435.71
1047.963	265.72
1048.127	202.24
1048.29	384.51
