Data from Hydrogel_Ink_Intensity_Test_1_USB4F045381__27__00027.txt Node

Date: Mon Jul 31 10:41:35 EDT 2023
User: mmckonesweet
Spectrometer: USB4F04538
Trigger mode: 4
Integration Time (sec): 9.000000E-1
Scans to average: 1
Electric dark correction enabled: true
Nonlinearity correction enabled: false
Boxcar width: 0
XAxis mode: Wavelengths
Number of Pixels in Spectrum: 3648
>>>>>Begin Spectral Data<<<<<
345.52	-1023.3
345.736	-1023.3
345.952	-1023.3
346.168	-998.73
346.384	-1021.25
346.6	-75.09
346.816	-177.49
347.032	-247.12
347.248	189.1
347.464	-191.83
347.68	-42.32
347.896	84.65
348.112	334.5
348.328	-50.52
348.544	-64.85
348.76	-50.52
348.975	291.49
349.191	-93.52
349.407	-132.44
349.623	41.64
349.839	4.78
350.055	-58.71
350.27	84.65
350.486	152.23
350.702	406.18
350.918	248.49
351.133	-138.58
351.349	182.95
351.565	400.04
351.781	-128.34
351.996	107.18
352.212	330.41
352.428	-109.91
352.644	-91.48
352.859	-146.77
353.075	350.89
353.291	-71
353.506	-38.23
353.722	-157.01
353.938	-32.08
354.153	438.95
354.369	164.52
354.584	-124.24
354.8	281.25
355.016	-275.79
355.231	-202.07
355.447	-30.04
355.662	201.38
355.878	918.17
356.093	-249.17
356.309	64.17
356.524	-193.87
356.74	281.25
356.955	-132.44
357.171	29.35
357.386	154.28
357.602	-157.01
357.817	-52.56
358.033	-44.37
358.248	381.6
358.464	180.9
358.679	-60.76
358.895	-263.51
359.11	70.31
359.325	367.27
359.541	322.21
359.756	23.21
359.972	-261.46
360.187	172.71
360.402	-161.11
360.618	-71
360.833	1020.57
361.048	228.01
361.264	-79.19
361.479	66.22
361.694	-7.51
361.909	326.31
362.125	-107.86
362.34	-34.13
362.555	281.25
362.77	150.18
362.986	-216.4
363.201	-44.37
363.416	285.35
363.631	115.37
363.847	-91.48
364.062	-75.09
364.277	230.06
364.492	211.62
364.707	-5.46
364.922	-277.84
365.138	289.45
365.353	410.28
365.568	-62.8
365.783	-32.08
365.998	156.33
366.213	606.88
366.428	-116.05
366.643	105.13
366.858	309.93
367.073	252.58
367.288	-50.52
367.503	-193.87
367.718	185
367.933	426.66
368.148	-206.16
368.363	29.35
368.578	49.83
368.793	510.63
369.008	-19.8
369.223	-73.04
369.438	248.49
369.653	461.48
369.868	-148.82
370.083	-111.96
370.298	162.47
370.513	498.34
370.728	141.99
370.943	-124.24
371.157	-97.62
371.372	627.36
371.587	-210.26
371.802	-99.67
372.017	170.66
372.232	473.76
372.446	137.9
372.661	-95.57
372.876	322.21
373.091	342.69
373.306	80.55
373.52	-116.05
373.735	-99.67
373.95	524.96
374.165	17.07
374.379	-54.61
374.594	-73.04
374.809	260.77
375.023	131.75
375.238	-81.24
375.453	352.93
375.667	-17.75
375.882	-62.8
376.097	-66.9
376.311	148.14
376.526	51.88
376.741	-34.13
376.955	314.02
377.17	688.8
377.384	615.07
377.599	82.6
377.813	-91.48
378.028	641.7
378.242	371.36
378.457	25.26
378.672	-197.97
378.886	277.16
379.101	60.07
379.315	-181.59
379.53	101.03
379.744	326.31
379.958	344.74
380.173	55.98
380.387	2.73
380.602	228.01
380.816	121.51
381.031	12.97
381.245	60.07
381.459	260.77
381.674	2697.86
381.888	37.55
382.103	289.45
382.317	8.87
382.531	615.07
382.746	74.41
382.96	25.26
383.174	47.79
383.388	596.64
383.603	246.44
383.817	-34.13
384.031	375.46
384.246	641.7
384.46	260.77
384.674	459.43
384.888	217.77
385.103	281.25
385.317	-58.71
385.531	225.96
385.745	584.35
385.959	500.39
386.174	6.83
386.388	-1.37
386.602	244.39
386.816	-3.41
387.03	230.06
387.244	176.81
387.458	363.17
387.672	490.15
387.887	-77.14
388.101	-68.95
388.315	647.84
388.529	441
388.743	125.61
388.957	-58.71
389.171	504.48
389.385	23.21
389.599	135.85
389.813	410.28
390.027	391.84
390.241	930.46
390.455	15.02
390.669	344.74
390.883	203.43
391.097	729.76
391.311	320.17
391.525	94.89
391.738	359.08
391.952	475.81
392.166	250.53
392.38	141.99
392.594	604.83
392.808	625.31
393.022	199.34
393.236	176.81
393.449	551.59
393.663	441
393.877	88.75
394.091	203.43
394.305	213.67
394.518	268.97
394.732	37.55
394.946	281.25
395.16	780.96
395.373	363.17
395.587	105.13
395.801	135.85
396.015	635.55
396.228	459.43
396.442	47.79
396.656	31.4
396.869	752.29
397.083	760.48
397.297	305.83
397.51	215.72
397.724	752.29
397.938	486.05
398.151	55.98
398.365	158.38
398.578	627.36
398.792	764.57
399.005	332.45
399.219	254.63
399.433	500.39
399.646	594.59
399.86	373.41
400.073	424.61
400.287	639.65
400.5	391.84
400.714	367.27
400.927	342.69
401.141	529.06
401.354	1491.6
401.567	502.43
401.781	252.58
401.994	617.12
402.208	1022.62
402.421	311.97
402.635	367.27
402.848	522.91
403.061	731.81
403.275	397.99
403.488	127.66
403.701	1002.14
403.915	637.6
404.128	453.28
404.341	316.07
404.555	578.21
404.768	504.48
404.981	533.15
405.195	305.83
405.408	989.85
405.621	762.53
405.834	588.45
406.048	225.96
406.261	780.96
406.474	996
406.687	225.96
406.9	543.39
407.114	490.15
407.327	696.99
407.54	205.48
407.753	285.35
407.966	397.99
408.179	750.24
408.392	416.42
408.605	268.97
408.819	729.76
409.032	684.7
409.245	350.89
409.458	570.02
409.671	799.39
409.884	832.16
410.097	326.31
410.31	637.6
410.523	719.52
410.736	527.01
410.949	477.86
411.162	522.91
411.375	1084.06
411.588	850.59
411.801	735.9
412.014	395.94
412.227	613.03
412.44	547.49
412.653	383.65
412.865	580.26
413.078	924.32
413.291	791.2
413.504	592.55
413.717	498.34
413.93	873.12
414.143	537.25
414.356	539.3
414.568	322.21
414.781	1071.77
414.994	811.68
415.207	518.82
415.42	508.58
415.632	950.94
415.845	1172.12
416.058	352.93
416.271	455.33
416.483	834.21
416.696	1129.11
416.909	504.48
417.121	541.35
417.334	885.41
417.547	1331.86
417.759	514.72
417.972	613.03
418.185	715.42
418.397	1073.82
418.61	570.02
418.823	572.07
419.035	1090.2
419.248	885.41
419.46	709.28
419.673	725.66
419.885	975.52
420.098	844.45
420.311	643.74
420.523	512.67
420.736	1039
420.948	836.25
421.161	694.94
421.373	625.31
421.586	977.56
421.798	684.7
422.01	467.62
422.223	776.86
422.435	752.29
422.648	1143.45
422.86	576.16
423.073	668.32
423.285	1221.27
423.497	496.29
423.71	660.13
423.922	756.38
424.134	1165.98
424.347	1258.14
424.559	1016.48
424.771	1049.24
424.984	932.51
425.196	1065.63
425.408	576.16
425.621	619.17
425.833	1284.76
426.045	1381.01
426.257	746.14
426.47	772.77
426.682	1120.92
426.894	1200.79
427.106	854.69
427.318	815.77
427.531	991.9
427.743	1292.95
427.955	871.07
428.167	1307.29
428.379	1208.98
428.591	1051.29
428.804	983.71
429.016	862.88
429.228	1051.29
429.44	1194.65
429.652	1096.35
429.864	797.34
430.076	1151.64
430.288	1137.31
430.5	1096.35
430.712	1104.54
430.924	1440.4
431.136	1251.99
431.348	715.42
431.56	1014.43
431.772	1165.98
431.984	1200.79
432.196	973.47
432.408	1006.24
432.62	1170.07
432.832	1417.88
433.044	1288.85
433.256	1184.41
433.468	1530.52
433.679	977.56
433.891	989.85
434.103	1249.94
434.315	1675.92
434.527	1559.19
434.739	1249.94
434.95	1348.25
435.162	1565.33
435.374	1297.05
435.586	1227.42
435.798	1194.65
436.009	1118.87
436.221	1444.5
436.433	1251.99
436.645	1266.33
436.856	1399.45
437.068	1698.45
437.28	1149.59
437.491	1542.8
437.703	1493.65
437.915	1581.71
438.126	1303.19
438.338	1569.43
438.55	1477.27
438.761	1624.72
438.973	1313.43
439.184	1342.1
439.396	1616.53
439.608	1735.31
439.819	1274.52
440.031	1550.99
440.242	1706.64
440.454	1798.8
440.665	1419.92
440.877	1546.9
441.088	1790.61
441.3	1450.64
441.511	1270.42
441.723	1391.25
441.934	1518.23
442.146	1774.22
442.357	1614.48
442.569	1692.3
442.78	1667.73
442.991	2120.33
443.203	1743.5
443.414	1405.59
443.626	1987.21
443.837	1591.95
444.048	1464.98
444.26	1479.32
444.471	1825.42
444.682	1913.49
444.894	1403.54
445.105	1370.77
445.316	1987.21
445.528	1821.33
445.739	1718.93
445.95	1626.77
446.161	1763.98
446.373	2187.91
446.584	1598.1
446.795	1647.25
447.006	2048.65
447.217	2237.06
447.429	1479.32
447.64	1718.93
447.851	2314.89
448.062	1833.61
448.273	1526.42
448.484	1686.16
448.695	1946.25
448.907	1686.16
449.118	1798.8
449.329	1905.29
449.54	1923.73
449.751	1843.85
449.962	1677.97
450.173	1794.7
450.384	2347.65
450.595	2159.24
450.806	1837.71
451.017	1761.94
451.228	2341.51
451.439	2243.21
451.65	1893.01
451.861	1735.31
452.072	1899.15
452.283	2095.75
452.494	2075.27
452.705	1905.29
452.915	2486.92
453.126	2419.33
453.337	1907.34
453.548	1899.15
453.759	2521.73
453.97	2675.33
454.181	2323.08
454.391	2013.84
454.602	2325.13
454.813	2448.01
455.024	2239.11
455.235	1985.16
455.445	2374.28
455.656	2452.1
455.867	2228.87
456.078	2040.46
456.288	2210.44
456.499	2595.46
456.71	2185.87
456.921	2499.2
457.131	2642.56
457.342	2368.13
457.553	2409.09
457.763	2163.34
457.974	2607.75
458.184	2736.77
458.395	2294.41
458.606	2204.3
458.816	2888.32
459.027	3093.12
459.237	2540.16
459.448	2183.82
459.659	2828.93
459.869	3168.89
460.08	2337.41
460.29	2652.8
460.501	3289.72
460.711	2808.45
460.922	2345.61
461.132	2601.6
461.343	3555.96
461.553	2687.62
461.764	2767.49
461.974	2581.12
462.184	3017.34
462.395	3103.36
462.605	2939.52
462.816	2663.04
463.026	3068.54
463.236	3306.1
463.447	2646.66
463.657	2845.31
463.867	3535.48
464.078	3070.59
464.288	2968.19
464.498	3033.72
464.709	3320.44
464.919	3209.85
465.129	3097.21
465.339	3015.29
465.55	3465.85
465.76	3654.26
465.97	3218.04
466.18	3105.4
466.391	3662.45
466.601	3539.57
466.811	3406.45
467.021	3185.27
467.231	3730.03
467.441	3777.14
467.651	3607.16
467.862	3222.14
468.072	3789.42
468.282	4084.33
468.492	3654.26
468.702	3738.23
468.912	3791.47
469.122	4418.15
469.332	4020.85
469.542	3840.62
469.752	4364.9
469.962	4070
470.172	3857.01
470.382	3885.68
470.592	4493.93
470.802	4555.37
471.012	4117.1
471.222	4041.32
471.432	4545.13
471.642	4811.36
471.852	4336.23
472.062	4162.16
472.272	4567.65
472.482	4469.35
472.691	4412.01
472.901	4303.47
473.111	4751.97
473.321	5329.5
473.531	4434.53
473.741	4760.16
473.95	5089.88
474.16	5255.77
474.37	4973.15
474.58	4774.5
474.79	5595.73
474.999	5423.7
475.209	4858.46
475.419	5110.36
475.628	5403.22
475.838	5612.12
476.048	5399.13
476.258	5235.29
476.467	5974.61
476.677	5526.1
476.886	5718.61
477.096	5653.08
477.306	5765.71
477.515	6128.21
477.725	5794.39
477.935	5915.22
478.144	6474.31
478.354	5849.68
478.563	5878.35
478.773	6222.41
478.982	6541.89
479.192	6830.66
479.401	6285.9
479.611	6144.59
479.82	6122.06
480.03	6576.71
480.239	6402.63
480.449	6443.59
480.658	7191.1
480.868	6781.51
481.077	6689.35
481.287	6656.58
481.496	7264.83
481.705	7338.55
481.915	7268.92
482.124	7309.88
482.333	7240.25
482.543	7744.05
482.752	7144
482.961	7234.11
483.171	7703.09
483.38	7473.72
483.589	7432.76
483.799	7455.29
484.008	7811.64
484.217	8172.08
484.426	7723.57
484.636	7670.33
484.845	7873.07
485.054	7717.43
485.263	8200.75
485.472	7811.64
485.682	8516.14
485.891	8309.29
486.1	7920.18
486.309	8145.45
486.518	8405.55
486.727	8698.41
486.936	8141.36
487.146	8442.41
487.355	9101.86
487.564	8618.54
487.773	8704.55
487.982	8583.72
488.191	8698.41
488.4	9028.13
488.609	8854.05
488.818	8882.72
489.027	9656.86
489.236	9675.29
489.445	9136.67
489.654	8989.22
489.863	9511.45
490.072	9560.6
490.281	9376.28
490.49	9404.96
490.698	10136.08
490.907	10093.07
491.116	9648.66
491.325	9521.69
491.534	10125.84
491.743	9957.91
491.952	9837.08
492.16	9851.41
492.369	10228.24
492.578	10361.36
492.787	9943.57
492.996	9826.84
493.204	10222.09
493.413	10912.26
493.622	9925.14
493.831	9925.14
494.039	10828.29
494.248	10340.88
494.457	10435.08
494.665	10273.29
494.874	10820.1
495.083	11237.89
495.291	10684.94
495.5	10740.23
495.709	11100.67
495.917	11024.9
496.126	10875.4
496.335	10838.53
496.543	11098.63
496.752	11213.31
496.96	11176.45
497.169	11049.47
497.377	11426.3
497.586	11846.13
497.794	11430.4
498.003	10893.83
498.211	11428.35
498.42	11960.82
498.628	11495.93
498.837	11274.75
499.045	12077.55
499.254	11858.42
499.462	11448.83
499.671	11813.37
499.879	12487.15
500.087	12231.15
500.296	11493.88
500.504	11934.2
500.713	12032.5
500.921	12683.75
501.129	11940.34
501.338	11999.73
501.546	12497.39
501.754	12239.34
501.962	12095.99
502.171	12112.37
502.379	12757.48
502.587	12859.88
502.795	12675.56
503.004	12141.04
503.212	12777.96
503.42	12868.07
503.628	12753.38
503.837	12667.37
504.045	13038.05
504.253	13267.42
504.461	12558.83
504.669	12743.14
504.877	13351.39
505.085	13410.78
505.294	12808.68
505.502	12921.32
505.71	13097.44
505.918	13378.01
506.126	13079.01
506.334	12837.35
506.542	13345.25
506.75	13156.83
506.958	13367.77
507.166	13289.95
507.374	13418.97
507.582	14059.99
507.79	13361.63
507.998	13359.58
508.206	13847
508.414	13746.65
508.622	13470.17
508.83	13666.78
509.037	14213.59
509.245	13799.9
509.453	13558.24
509.661	13502.94
509.869	14315.98
510.077	13787.61
510.285	14174.67
510.492	13562.33
510.7	14846.41
510.908	13943.25
511.116	13973.97
511.324	13769.18
511.531	14141.91
511.739	14350.8
511.947	14332.37
512.155	14451.15
512.362	14440.91
512.57	14199.25
512.778	14318.03
512.985	14082.52
513.193	14561.74
513.401	15022.53
513.608	14479.82
513.816	14426.57
514.024	14772.68
514.231	15104.45
514.439	14608.84
514.646	14711.24
514.854	14991.81
515.061	15157.7
515.269	14580.17
515.477	14463.44
515.684	15051.2
515.892	15387.07
516.099	14623.18
516.307	14447.05
516.514	15387.07
516.722	15466.94
516.929	15120.84
517.136	15034.82
517.344	15833.53
517.551	15581.63
517.759	14909.9
517.966	15432.13
518.173	15575.48
518.381	15587.77
518.588	15274.43
518.796	15262.15
519.003	15753.66
519.21	15567.29
519.418	15518.14
519.625	15866.3
519.832	15821.24
520.039	15755.71
520.247	15444.41
520.454	15843.77
520.661	16284.08
520.868	16327.09
521.076	16193.97
521.283	15765.95
521.49	16669.1
521.697	16460.21
521.904	16017.85
522.112	15868.34
522.319	16947.62
522.526	16316.85
522.733	16191.92
522.94	16081.33
523.147	15970.74
523.354	16798.12
523.561	16130.48
523.768	16540.08
523.975	16730.54
524.183	16660.91
524.39	16345.52
524.597	16067
524.804	16378.29
525.011	16787.88
525.218	16402.86
525.425	16595.37
525.632	17432.99
525.838	16935.34
526.045	16693.68
526.252	16652.72
526.459	18315.67
526.666	17805.72
526.873	16794.03
527.08	16720.3
527.287	17664.41
527.494	17193.38
527.701	17027.49
527.907	16931.24
528.114	17625.5
528.321	17377.7
528.528	17250.72
528.735	17187.24
528.941	17580.45
529.148	17244.58
529.355	17512.86
529.562	17285.54
529.768	18213.27
529.975	17336.74
530.182	17781.15
530.388	17381.79
530.595	18149.78
530.802	17508.77
531.008	18127.25
531.215	17891.74
531.422	18870.67
531.628	19083.66
531.835	17953.18
532.042	18026.9
532.248	18446.74
532.455	18248.08
532.661	18117.01
532.868	17944.98
533.074	18483.6
533.281	18913.67
533.487	18395.54
533.694	18213.27
533.9	18545.04
534.107	18602.38
534.313	18577.81
534.52	18307.48
534.726	19108.23
534.933	19208.58
535.139	18624.91
535.345	18483.6
535.552	19016.07
535.758	18979.21
535.965	18987.4
536.171	18688.4
536.377	19339.65
536.584	19646.85
536.79	19063.18
536.996	19216.77
537.203	19515.78
537.409	19349.89
537.615	19184.01
537.821	19323.27
538.028	20064.63
538.234	19665.28
538.44	19257.73
538.646	19161.48
538.853	19915.13
539.059	19675.52
539.265	19847.55
539.471	19288.45
539.677	19855.74
539.883	19913.08
540.09	19407.23
540.296	20126.07
540.502	20076.92
540.708	20009.34
540.914	20007.29
541.12	20066.68
541.326	20578.67
541.532	20306.29
541.738	20212.09
541.944	19976.57
542.15	20650.35
542.356	20543.86
542.562	20246.9
542.768	19995
542.974	21188.97
543.18	20801.9
543.386	20343.16
543.592	20312.44
543.798	20951.4
544.004	21004.65
544.21	20619.63
544.415	20685.17
544.621	21111.14
544.827	20937.07
545.033	20853.1
545.239	20902.25
545.445	20961.64
545.651	21061.99
545.856	21002.6
546.062	20994.41
546.268	21176.68
546.474	21369.19
546.679	20808.05
546.885	21025.13
547.091	21117.29
547.297	21696.86
547.502	21018.99
547.708	20736.37
547.914	20748.65
548.119	21365.09
548.325	20967.79
548.531	21092.71
548.736	21776.73
548.942	21123.43
549.147	21186.92
549.353	21784.93
549.559	22217.05
549.764	21875.04
549.97	21133.67
550.175	21629.28
550.381	21799.26
550.586	21608.8
550.792	21821.79
550.997	21729.63
551.203	22004.06
551.408	22208.86
551.614	21854.56
551.819	22075.74
552.025	22481.24
552.23	22763.86
552.435	22016.35
552.641	22565.2
552.846	22161.75
553.052	22835.53
553.257	22305.11
553.462	22468.95
553.668	21979.48
553.873	22952.27
554.078	22319.45
554.283	22669.65
554.489	22978.89
554.694	22681.94
554.899	22448.47
555.105	22847.82
555.31	22841.68
555.515	23193.93
555.72	22569.3
555.925	22579.54
556.131	22868.3
556.336	23048.52
556.541	23064.91
556.746	22866.25
556.951	23312.71
557.156	23454.02
557.361	22856.01
557.567	23132.49
557.772	23681.35
557.977	23464.26
558.182	23132.49
558.387	22985.04
558.592	23107.91
558.797	23695.68
559.002	23343.43
559.207	23234.89
559.412	23583.04
559.617	24213.82
559.822	23325
560.027	23257.42
560.232	23656.77
560.437	23849.28
560.642	23433.54
560.847	23499.08
561.051	23750.98
561.256	23691.59
561.461	23540.04
561.666	23312.71
561.871	24209.72
562.076	24205.63
562.281	23589.19
562.485	23351.62
562.69	24092.99
562.895	24056.12
563.1	23775.55
563.305	23839.04
563.509	24408.37
563.714	24607.03
563.919	23970.11
564.123	23599.43
564.328	24088.89
564.533	24291.64
564.737	23669.06
564.942	23949.63
565.147	24576.31
565.351	24615.22
565.556	24140.09
565.761	24060.22
565.965	24455.48
566.17	24527.16
566.374	24123.71
566.579	23843.13
566.784	24209.72
566.988	24303.93
567.193	24035.64
567.397	24312.12
567.602	24205.63
567.806	24301.88
568.011	24594.74
568.215	24678.71
568.42	24770.86
568.624	24686.9
568.828	24647.99
569.033	24463.67
569.237	24594.74
569.442	24906.03
569.646	24287.54
569.85	24770.86
570.055	25114.92
570.259	24893.74
570.463	25123.12
570.668	24672.56
570.872	24990
571.076	25061.68
571.281	24797.49
571.485	25168.17
571.689	25399.59
571.893	25735.46
572.098	25147.69
572.302	24985.9
572.506	25090.35
572.71	25561.38
572.914	25237.8
573.119	25149.74
573.323	25600.29
573.527	25784.61
573.731	25311.53
573.935	25598.24
574.139	25956.64
574.343	25448.74
574.547	25344.3
574.751	25745.7
574.955	26079.52
575.159	26261.79
575.364	25448.74
575.568	25735.46
575.772	25729.31
575.976	26427.67
576.18	25698.59
576.383	26042.65
576.587	26265.88
576.791	26374.42
576.995	25524.52
577.199	25620.77
577.403	26358.04
577.607	26657.04
577.811	26171.68
578.015	25782.56
578.219	26300.7
578.422	26489.11
578.626	26343.7
578.83	26306.84
579.034	26499.35
579.238	26388.76
579.442	26122.52
579.645	26693.91
579.849	26722.58
580.053	26896.66
580.257	26149.15
580.46	26253.59
580.664	27015.44
580.868	26601.75
581.071	26546.45
581.275	26644.76
581.479	26505.49
581.682	26818.83
581.886	26536.21
582.09	26738.96
582.293	27207.95
582.497	27132.17
582.7	27046.16
582.904	26736.91
583.107	27345.16
583.311	26896.66
583.515	26894.61
583.718	26632.47
583.922	27101.45
584.125	27756.8
584.329	26818.83
584.532	26999.05
584.735	27844.87
584.939	27468.04
585.142	26964.24
585.346	27017.49
585.549	27695.36
585.753	27640.07
585.956	27369.74
586.159	27486.47
586.363	28064
586.566	27775.23
586.769	27226.38
586.973	27310.35
587.176	27898.11
587.379	27965.7
587.582	28107.01
587.786	27644.16
587.989	27889.92
588.192	28023.04
588.395	27543.81
588.599	27898.11
588.802	28352.76
589.005	28160.25
589.208	28143.87
589.411	27957.5
589.615	28109.05
589.818	28614.9
590.021	28305.66
590.224	28547.32
590.427	28471.54
590.63	28434.68
590.833	27883.78
591.036	28115.2
591.239	28651.77
591.442	28289.27
591.645	28420.34
591.848	28309.75
592.051	28559.61
592.254	28909.81
592.457	28502.26
592.66	28127.49
592.863	28541.18
593.066	29014.26
593.269	28477.69
593.472	28963.06
593.675	29051.12
593.878	28883.19
594.081	29001.97
594.284	28637.43
594.486	29333.74
594.689	29096.17
594.892	28612.85
595.095	28786.93
595.298	29268.2
595.5	28977.39
595.703	29685.99
595.906	29276.4
596.109	29868.26
596.311	29950.18
596.514	29036.78
596.717	29399.27
596.92	29874.4
597.122	29493.48
597.325	29157.61
597.528	29239.53
597.73	29995.23
597.933	29741.28
598.136	29434.09
598.338	29110.51
598.541	29950.18
598.743	30419.16
598.946	29583.59
599.148	29642.98
599.351	29858.02
599.554	30619.86
599.756	29642.98
599.959	30200.03
600.161	29823.2
600.363	30687.45
600.566	29960.42
600.768	30152.93
600.971	30597.34
601.173	30130.4
601.376	30064.86
601.578	30030.05
601.78	30376.16
601.983	30726.36
602.185	29864.16
602.388	30357.72
602.59	30458.07
602.792	30335.2
602.995	30466.27
603.197	29800.68
603.399	30685.4
603.601	30404.83
603.804	30089.44
604.006	29907.17
604.208	29991.14
604.41	29907.17
604.613	30685.4
604.815	30427.35
605.017	30998.74
605.219	30218.46
605.421	30771.41
605.623	30533.85
605.826	31533.26
606.028	31127.76
606.23	30556.38
606.432	30445.79
606.634	31068.37
606.836	30871.76
607.038	30220.51
607.24	30695.64
607.442	30869.72
607.644	31064.27
607.846	30824.66
608.048	30795.99
608.25	31084.75
608.452	30744.79
608.654	30732.5
608.856	30095.58
609.058	30974.16
609.26	31008.98
609.462	30472.41
609.664	30736.6
609.866	31252.69
610.067	31178.96
610.269	30902.48
610.471	30597.34
610.673	30836.95
610.875	31285.45
611.077	30597.34
611.278	30621.91
611.48	30882
611.682	31633.61
611.884	31236.3
612.085	30843.09
612.287	31021.27
612.489	31402.19
612.69	30949.59
612.892	31181.01
613.094	31617.22
613.295	31092.94
613.497	31031.51
613.699	31142.1
613.9	31527.11
614.102	31568.07
614.304	30750.93
614.505	30341.34
614.707	30955.73
614.908	30839
615.11	30517.46
615.311	30636.25
615.513	31295.69
615.714	31592.65
615.916	30709.97
616.117	31226.06
616.319	31267.02
616.52	31705.29
616.722	30994.64
616.923	31416.52
617.124	31412.43
617.326	31410.38
617.527	31264.97
617.729	31598.79
617.93	31230.16
618.131	31486.15
618.333	31205.58
618.534	31199.44
618.735	31394
618.937	31881.41
619.138	30896.34
619.339	30775.51
619.54	31670.47
619.742	31402.19
619.943	31232.21
620.144	30918.87
620.345	31555.79
620.546	31570.12
620.748	31115.47
620.949	31418.57
621.15	31553.74
621.351	31746.25
621.552	31281.36
621.753	31357.13
621.954	31606.98
622.155	31779.01
622.356	31432.91
622.558	31398.09
622.759	31447.24
622.96	32188.61
623.161	31201.49
623.362	31488.2
623.563	31555.79
623.764	31627.46
623.965	31537.35
624.166	32090.3
624.366	31541.45
624.567	31715.53
624.768	31195.34
624.969	31054.03
625.17	31615.18
625.371	31930.56
625.572	31613.13
625.773	31359.18
625.973	32204.99
626.174	32121.02
626.375	31803.59
626.576	31717.57
626.777	31869.12
626.977	32166.08
627.178	31553.74
627.379	31799.49
627.58	31799.49
627.78	31867.08
627.981	31625.42
628.182	31971.52
628.382	31983.81
628.583	31584.46
628.784	31815.88
628.984	31836.36
629.185	32647.35
629.386	31908.04
629.586	31920.32
629.787	31903.94
629.987	32354.49
630.188	32401.6
630.388	32250.05
630.589	31682.76
630.79	32903.35
630.99	32166.08
631.191	32161.98
631.391	32397.5
631.591	32567.48
631.792	32790.71
631.992	32121.02
632.193	32270.53
632.393	32934.07
632.594	32585.91
632.794	32258.24
632.994	32204.99
633.195	32270.53
633.395	32151.74
633.595	31965.38
633.796	32440.51
633.996	32151.74
634.196	32893.11
634.397	32422.08
634.597	32553.15
634.797	32448.7
634.997	32979.12
635.198	32327.87
635.398	32166.08
635.598	32800.95
635.798	33286.32
635.998	32684.22
636.199	32168.13
636.399	32682.17
636.599	32223.42
636.799	32460.99
636.999	32628.92
637.199	33015.99
637.399	33036.47
637.599	32452.8
637.799	32458.94
637.999	32510.14
638.199	33405.1
638.399	32600.25
638.599	32422.08
638.799	32860.34
638.999	33673.38
639.199	32903.35
639.399	32917.68
639.599	33790.12
639.799	32661.69
639.999	32516.28
640.199	32499.9
640.399	32891.06
640.599	32291.01
640.799	33380.53
640.998	33018.03
641.198	33245.36
641.398	32704.7
641.598	33056.95
641.798	33079.47
641.997	33966.24
642.197	32886.96
642.397	33028.27
642.597	32780.47
642.796	33056.95
642.996	33493.16
643.196	33292.46
643.395	32686.26
643.595	33437.87
643.795	32917.68
643.994	32966.84
644.194	33120.43
644.394	33478.83
644.593	33577.13
644.793	33134.77
644.992	33208.5
645.192	33530.03
645.392	32661.69
645.591	33405.1
645.791	33233.07
645.99	33487.02
646.19	33386.67
646.389	33390.77
646.589	33439.92
646.788	33779.88
646.987	33353.9
647.187	33818.79
647.386	33798.31
647.586	33372.33
647.785	33718.44
647.984	33773.74
648.184	33632.43
648.383	33501.36
648.582	33507.5
648.782	33261.74
648.981	33175.73
649.18	33108.15
649.38	33820.84
649.579	33415.34
649.778	33239.22
649.977	34162.85
650.177	33996.96
650.376	33628.33
650.575	33384.62
650.774	33990.82
650.973	33237.17
651.173	33372.33
651.372	33325.23
651.571	33849.51
651.77	33558.7
651.969	33482.92
652.168	33573.03
652.367	33829.03
652.566	34089.12
652.765	33751.21
652.964	33921.19
653.163	34330.78
653.362	34175.14
653.561	33480.88
653.76	33448.11
653.959	33734.82
654.158	34603.16
654.357	33908.9
654.556	33788.07
654.755	34650.27
654.954	33947.81
655.153	33880.23
655.352	34179.23
655.551	34250.91
655.749	33945.76
655.948	33573.03
656.147	33831.08
656.346	34291.87
656.545	33962.15
656.743	33648.81
656.942	34134.18
657.141	34490.52
657.34	34144.42
657.538	34154.66
657.737	34168.99
657.936	34355.36
658.135	34429.09
658.333	34056.35
658.532	34203.81
658.731	34482.33
658.929	34060.45
659.128	34324.64
659.326	34150.56
659.525	35012.76
659.724	34545.82
659.922	33966.24
660.121	34240.67
660.319	34252.96
660.518	34033.83
660.716	33921.19
660.915	34412.7
661.113	34797.72
661.312	33949.86
661.51	34068.64
661.709	34447.52
661.907	34767
662.105	34863.25
662.304	34334.88
662.502	34402.46
662.701	34883.73
662.899	34171.04
663.097	34527.39
663.296	34039.97
663.494	34629.79
663.692	34715.8
663.891	33743.02
664.089	33790.12
664.287	34445.47
664.485	34621.59
664.684	34181.28
664.882	34164.9
665.08	34310.3
665.278	34392.22
665.476	33753.26
665.675	34414.75
665.873	34994.32
666.071	34715.8
666.269	34222.24
666.467	34267.3
666.665	34574.49
666.863	34320.54
667.061	34185.38
667.259	34171.04
667.457	34488.48
667.655	34486.43
667.853	33718.44
668.051	33913
668.249	34183.33
668.447	34353.31
668.645	34136.23
668.843	34574.49
669.041	34320.54
669.239	34435.23
669.437	34525.34
669.635	34750.62
669.833	34226.34
670.031	34203.81
670.229	33521.84
670.426	34240.67
670.624	34125.99
670.822	33941.67
671.02	33697.96
671.218	33925.28
671.415	33671.34
671.613	34023.59
671.811	34295.97
672.009	34381.98
672.206	34816.15
672.404	34687.13
672.602	34633.88
672.799	34511
672.997	34484.38
673.195	34531.48
673.392	34164.9
673.59	33904.81
673.788	34128.03
673.985	33816.74
674.183	34197.66
674.38	33720.49
674.578	34699.42
674.775	33790.12
674.973	33904.81
675.17	34091.17
675.368	34644.12
675.565	34205.86
675.763	33919.14
675.96	33693.86
676.158	34437.28
676.355	33642.67
676.553	34109.6
676.75	33913
676.947	34173.09
677.145	34091.17
677.342	33960.1
677.539	34082.98
677.737	34015.4
677.934	34613.4
678.131	34044.07
678.329	33806.5
678.526	34361.5
678.723	34398.37
678.92	33693.86
679.118	33788.07
679.315	33716.39
679.512	34375.84
679.709	33587.37
679.906	33996.96
680.104	34310.3
680.301	33820.84
680.498	33628.33
680.695	33298.61
680.892	33931.43
681.089	33886.37
681.286	33810.6
681.483	32786.61
681.68	33681.58
681.877	33872.04
682.075	33274.03
682.272	33564.84
682.469	33843.37
682.665	33280.17
682.862	33331.37
683.059	33231.02
683.256	33636.52
683.453	33630.38
683.65	32987.32
683.847	33407.15
684.044	33349.81
684.241	33441.96
684.438	33558.7
684.635	33093.81
684.831	34121.89
685.028	34148.51
685.225	33296.56
685.422	33493.16
685.619	33374.38
685.815	33417.39
686.012	33435.82
686.209	33319.09
686.405	33456.3
686.602	33595.56
686.799	33038.51
686.996	32925.88
687.192	32944.31
687.389	33929.38
687.586	33106.1
687.782	33431.72
687.979	33605.8
688.175	33409.2
688.372	32852.15
688.568	32661.69
688.765	32995.51
688.962	33515.69
689.158	32798.9
689.355	32862.39
689.551	33212.59
689.748	33106.1
689.944	32886.96
690.14	32932.02
690.337	33425.58
690.533	33405.1
690.73	32422.08
690.926	33202.35
691.123	32503.99
691.319	32733.37
691.515	32497.85
691.712	32946.36
691.908	32846.01
692.104	33208.5
692.301	32972.98
692.497	32354.49
692.693	33212.59
692.889	33521.84
693.086	32989.36
693.282	32602.3
693.478	32579.77
693.674	33368.24
693.87	32708.79
694.067	32667.83
694.263	32684.22
694.459	32866.49
694.655	32970.93
694.851	32536.76
695.047	32745.65
695.243	32805.05
695.439	32626.87
695.635	32458.94
695.831	32735.42
696.027	32227.52
696.224	32354.49
696.42	32549.05
696.615	33009.84
696.811	32852.15
697.007	31738.05
697.203	32452.8
697.399	32383.16
697.595	32874.68
697.791	31973.57
697.987	32123.07
698.183	31932.61
698.379	31905.99
698.575	32336.06
698.77	32020.67
698.966	32344.25
699.162	32260.29
699.358	32174.27
699.554	32344.25
699.749	32370.88
699.945	32346.3
700.141	31865.03
700.337	31926.47
700.532	32241.85
700.728	32229.57
700.924	32145.6
701.119	31985.86
701.315	32098.5
701.511	31969.47
701.706	32026.82
701.902	31660.23
702.097	31713.48
702.293	32143.55
702.489	31756.49
702.684	32161.98
702.88	32008.39
703.075	32065.73
703.271	31555.79
703.466	31441.1
703.662	31574.22
703.857	32260.29
704.053	31754.44
704.248	31817.93
704.443	32317.63
704.639	32104.64
704.834	32086.21
705.03	31940.8
705.225	32483.51
705.42	32295.1
705.616	31461.58
705.811	31475.91
706.006	31611.08
706.202	31836.36
706.397	31744.2
706.592	31639.75
706.787	31623.37
706.983	31680.71
707.178	31942.85
707.373	31514.83
707.568	31606.98
707.763	31314.12
707.959	31504.59
708.154	31340.75
708.349	31158.48
708.544	31922.37
708.739	31498.44
708.934	30980.31
709.129	31807.69
709.324	32118.98
709.519	31615.18
709.714	31537.35
709.909	32131.26
710.104	31717.57
710.299	31449.29
710.494	31568.07
710.689	31684.81
710.884	31811.78
711.079	31365.32
711.274	31101.14
711.469	31758.53
711.664	31316.17
711.859	31127.76
712.054	31322.32
712.249	31324.36
712.443	31639.75
712.638	31234.25
712.833	30953.68
713.028	31209.68
713.223	31201.49
713.417	31293.65
713.612	31262.93
713.807	31744.2
714.002	31989.95
714.196	31303.88
714.391	30826.71
714.586	31381.71
714.78	30685.4
714.975	30601.43
715.17	30716.12
715.364	31125.71
715.559	31381.71
715.754	30449.88
715.948	30460.12
716.143	31348.94
716.337	30912.72
716.532	31232.21
716.726	30910.67
716.921	31203.53
717.115	31242.45
717.31	30709.97
717.504	30998.74
717.699	30839
717.893	31172.81
718.088	30355.68
718.282	30697.69
718.476	30859.48
718.671	30570.71
718.865	30208.22
719.059	30386.39
719.254	30351.58
719.448	30529.75
719.642	31695.05
719.837	30013.66
720.031	30970.07
720.225	30554.33
720.419	30083.3
720.614	29970.66
720.808	30496.99
721.002	30210.27
721.196	30376.16
721.39	30314.72
721.585	30554.33
721.779	30413.02
721.973	30218.46
722.167	29350.12
722.361	30107.87
722.555	30734.55
722.749	29937.89
722.943	30202.08
723.137	29827.3
723.331	30195.93
723.525	29763.81
723.719	29868.26
723.913	30083.3
724.107	30433.5
724.301	29712.61
724.495	29829.35
724.689	30464.22
724.883	30275.8
725.077	29933.79
725.271	29935.84
725.465	30560.47
725.659	29931.75
725.853	29894.88
726.046	29806.82
726.24	30038.24
726.434	29966.56
726.628	29608.17
726.822	29907.17
727.015	30441.69
727.209	30001.38
727.403	29614.31
727.596	29548.78
727.79	29858.02
727.984	30392.54
728.177	30042.34
728.371	30001.38
728.565	30212.32
728.758	29831.4
728.952	29919.46
729.146	29960.42
729.339	30390.49
729.533	29651.17
729.726	29659.37
729.92	29245.68
730.113	30058.72
730.307	30005.47
730.5	29436.14
730.694	29591.78
730.887	29571.3
731.081	30189.79
731.274	29563.11
731.468	29659.37
731.661	29454.57
731.854	29554.92
732.048	29702.37
732.241	29329.64
732.435	29743.33
732.628	29546.73
732.821	29903.07
733.014	29606.12
733.208	29636.84
733.401	30343.39
733.594	29194.48
733.788	29548.78
733.981	29923.55
734.174	29669.61
734.367	29303.02
734.56	29466.86
734.754	29776.1
734.947	29952.23
735.14	29810.92
735.333	29870.31
735.526	29849.83
735.719	29366.51
735.912	29184.24
736.105	29534.44
736.298	29673.7
736.491	29477.1
736.684	29495.53
736.877	29208.81
737.07	29882.59
737.263	29739.24
737.456	29585.64
737.649	29165.81
737.842	29317.36
738.035	29391.08
738.228	29124.85
738.421	29690.09
738.614	29810.92
738.807	29636.84
739	28739.83
739.192	28971.25
739.385	29493.48
739.578	29247.72
739.771	29114.61
739.964	28727.54
740.156	29407.47
740.349	28926.19
740.542	29159.66
740.735	28782.84
740.927	28989.68
741.12	29085.93
741.313	29063.41
741.505	29243.63
741.698	29432.04
741.891	29454.57
742.083	29321.45
742.276	29126.89
742.468	29374.7
742.661	28911.86
742.854	28932.34
743.046	28973.3
743.239	29653.22
743.431	29290.73
743.624	28866.8
743.816	29016.3
744.009	29194.48
744.201	29239.53
744.393	29114.61
744.586	28553.46
744.778	29124.85
744.971	28868.85
745.163	29219.05
745.355	29038.83
745.548	29059.31
745.74	28782.84
745.932	28700.92
746.125	28748.02
746.317	29434.09
746.509	28598.52
746.702	28766.45
746.894	28788.98
747.086	28692.72
747.278	29008.11
747.471	28993.78
747.663	28315.9
747.855	28784.88
748.047	29251.82
748.239	28575.99
748.431	28451.06
748.623	29389.03
748.815	28717.3
749.008	28543.22
749.2	28301.56
749.392	29477.1
749.584	28717.3
749.776	29008.11
749.968	28573.94
750.16	28991.73
750.352	28629.24
750.544	28254.46
750.736	28807.41
750.928	29186.29
751.12	28711.16
751.311	28227.84
751.503	28610.81
751.695	29092.08
751.887	28270.84
752.079	28313.85
752.271	28422.39
752.463	29655.27
752.654	28770.55
752.846	28649.72
753.038	28076.29
753.23	28457.21
753.421	28868.85
753.613	28006.66
753.805	28537.08
753.997	28588.28
754.188	28864.75
754.38	28242.17
754.572	28369.15
754.763	28707.06
754.955	27949.31
755.146	28008.7
755.338	28117.25
755.53	28422.39
755.721	28084.48
755.913	27826.43
756.104	27537.67
756.296	27963.65
756.487	28338.43
756.679	27621.64
756.87	27795.71
757.062	27670.79
757.253	28315.9
757.445	27687.17
757.636	28219.64
757.827	27767.04
758.019	28547.32
758.21	27451.66
758.401	27226.38
758.593	28221.69
758.784	27816.19
758.975	27242.76
759.167	26941.71
759.358	27465.99
759.549	27973.89
759.74	27121.93
759.932	27187.47
760.123	27373.83
760.314	27425.03
760.505	27314.44
760.696	27197.71
760.888	28188.92
761.079	27308.3
761.27	27408.65
761.461	26964.24
761.652	27730.18
761.843	27111.69
762.034	27177.23
762.225	26814.74
762.416	26906.9
762.607	27037.97
762.798	26906.9
762.989	26689.81
763.18	27562.25
763.371	26632.47
763.562	26683.67
763.753	26564.89
763.944	27171.08
764.135	26798.35
764.326	26673.43
764.517	26583.32
764.708	26986.77
764.899	26982.67
765.089	26259.74
765.28	26106.14
765.471	26820.88
765.662	26761.49
765.853	26712.34
766.043	26175.77
766.234	26761.49
766.425	26296.6
766.615	26413.34
766.806	26319.13
766.997	27058.45
767.187	26298.65
767.378	26067.23
767.569	25645.35
767.759	26274.07
767.95	26392.86
768.141	26095.9
768.331	26054.94
768.522	26347.8
768.712	26446.1
768.903	26018.08
769.093	25682.21
769.284	26509.59
769.474	25794.85
769.665	25186.6
769.855	25612.58
770.046	26278.17
770.236	25616.68
770.426	25510.18
770.617	25465.13
770.807	25739.55
770.998	25547.04
771.188	25528.61
771.378	25362.73
771.569	26151.2
771.759	25964.83
771.949	25334.06
772.139	25551.14
772.33	25420.07
772.52	25932.06
772.71	25172.27
772.9	25047.34
773.09	25905.44
773.281	25827.62
773.471	25026.86
773.661	25090.35
773.851	25413.93
774.041	25235.75
774.231	24934.7
774.421	25088.3
774.611	25442.6
774.802	25450.79
774.992	24795.44
775.182	24738.1
775.372	25143.59
775.562	25114.92
775.752	24951.09
775.942	24547.64
776.131	25348.39
776.321	24817.97
776.511	24582.45
776.701	24545.59
776.891	25225.51
777.081	24426.81
777.271	24586.55
777.461	24979.76
777.651	24992.05
777.84	25155.88
778.03	24697.14
778.22	24660.27
778.41	24656.18
778.599	24475.96
778.789	24654.13
778.979	24469.81
779.169	24424.76
779.358	24572.21
779.548	24494.39
779.738	24138.04
779.927	24488.24
780.117	24203.58
780.307	24504.63
780.496	23906.62
780.686	24633.65
780.875	24660.27
781.065	24127.8
781.254	23988.54
781.444	23918.91
781.633	24105.27
781.823	23675.2
782.012	23642.43
782.202	23847.23
782.391	24039.74
782.581	23695.68
782.77	23830.85
782.96	24295.74
783.149	23714.11
783.338	23378.25
783.528	23634.24
783.717	23863.61
783.906	24351.03
784.096	23669.06
784.285	23923.01
784.474	23591.23
784.663	23765.31
784.853	23183.69
785.042	23433.54
785.231	23445.83
785.42	24086.84
785.61	23798.08
785.799	23308.61
785.988	23341.38
786.177	23472.45
786.366	23439.68
786.555	23662.91
786.744	23521.6
786.933	23325
787.122	23054.67
787.312	23007.56
787.501	23138.63
787.69	23263.56
787.879	23392.58
788.068	22837.58
788.257	23064.91
788.445	23058.76
788.634	22778.19
788.823	22794.57
789.012	23701.82
789.201	23599.43
789.39	22665.55
789.579	22733.14
789.768	22735.18
789.957	22722.9
790.145	22448.47
790.334	22419.8
790.523	22665.55
790.712	22643.03
790.9	22679.89
791.089	22315.35
791.278	23152.97
791.467	22929.74
791.655	22503.76
791.844	22788.43
792.033	21995.87
792.221	22354.26
792.41	22552.91
792.599	22171.99
792.787	22618.45
792.976	22415.7
793.164	21987.68
793.353	22081.88
793.541	22591.83
793.73	22634.83
793.918	22108.51
794.107	22219.1
794.295	22274.39
794.484	22384.98
794.672	21969.24
794.861	22012.25
795.049	22372.69
795.238	22579.54
795.426	21815.65
795.614	22315.35
795.803	22223.19
795.991	22757.71
796.179	21817.69
796.368	21913.95
796.556	22452.56
796.744	21719.39
796.932	21868.89
797.121	21608.8
797.309	22141.27
797.497	22272.34
797.685	21954.91
797.874	21883.23
798.062	22012.25
798.25	22106.46
798.438	21881.18
798.626	21924.19
798.814	22329.69
799.002	22649.17
799.19	21944.67
799.378	21827.93
799.566	22155.61
799.755	22167.9
799.943	21748.06
800.131	21795.17
800.318	22022.49
800.506	22118.75
800.694	21629.28
800.882	21625.18
801.07	22399.32
801.258	21655.9
801.446	22073.69
801.634	21588.32
801.822	22094.17
802.01	21977.44
802.197	21588.32
802.385	21739.87
802.573	21793.12
802.761	21582.18
802.949	21776.73
803.136	21561.7
803.324	21848.41
803.512	22022.49
803.699	21453.16
803.887	21700.96
804.075	22243.67
804.262	21836.13
804.45	21426.53
804.638	21582.18
804.825	21922.14
805.013	21633.38
805.201	21784.93
805.388	21692.77
805.576	21887.32
805.763	22585.68
805.951	21883.23
806.138	21760.35
806.326	22430.04
806.513	22190.42
806.701	21799.26
806.888	22042.97
807.075	22174.04
807.263	22442.32
807.45	21676.38
807.638	21762.4
807.825	22507.86
808.012	22210.9
808.2	21815.65
808.387	22253.91
808.574	22327.64
808.761	22743.38
808.949	21936.48
809.136	22061.4
809.323	22411.6
809.51	22063.45
809.698	21891.42
809.885	22020.44
810.072	22393.17
810.259	22622.55
810.446	22165.85
810.633	22141.27
810.82	22313.3
811.008	22851.92
811.195	22190.42
811.382	22274.39
811.569	22264.15
811.756	21889.37
811.943	22389.08
812.13	21936.48
812.317	22028.63
812.504	22479.19
812.691	22286.68
812.878	22573.39
813.064	22739.28
813.251	22473.04
813.438	22315.35
813.625	22327.64
813.812	22163.8
813.999	22552.91
814.186	22065.5
814.372	22081.88
814.559	22370.65
814.746	22448.47
814.933	21891.42
815.12	22311.25
815.306	22102.36
815.493	22208.86
815.68	22258.01
815.866	21965.15
816.053	22843.73
816.24	22440.28
816.426	22309.21
816.613	21944.67
816.799	22401.36
816.986	22538.58
817.173	22307.16
817.359	21872.99
817.546	22057.31
817.732	21674.34
817.919	21803.36
818.105	22227.29
818.292	22151.51
818.478	22417.75
818.665	22219.1
818.851	22049.11
819.037	22604.11
819.224	22489.43
819.41	21829.98
819.597	21932.38
819.783	22532.43
819.969	22143.32
820.156	22002.01
820.342	22012.25
820.528	23009.61
820.714	22133.08
820.901	22083.93
821.087	21848.41
821.273	22595.92
821.459	22178.14
821.646	21791.07
821.832	21834.08
822.018	22159.7
822.204	21633.38
822.39	21979.48
822.576	21438.82
822.762	21872.99
822.948	21602.66
823.134	21516.64
823.32	21498.21
823.507	21545.31
823.693	21756.25
823.879	21883.23
824.065	21391.72
824.25	21508.45
824.436	21344.61
824.622	21614.94
824.808	21604.7
824.994	21887.32
825.18	21385.57
825.366	21311.85
825.552	21252.45
825.738	21723.49
825.923	21475.68
826.109	21440.87
826.295	21051.75
826.481	21420.39
826.667	20975.98
826.852	21418.34
827.038	21211.49
827.224	21891.42
827.409	21705.06
827.595	20844.91
827.781	21086.57
827.966	21578.08
828.152	21602.66
828.338	20939.12
828.523	21053.8
828.709	21182.82
828.894	21475.68
829.08	20969.83
829.266	20789.61
829.451	20902.25
829.637	21229.93
829.822	20672.88
830.008	20441.46
830.193	21061.99
830.378	20783.47
830.564	20568.43
830.749	20601.2
830.935	20828.52
831.12	20937.07
831.305	20703.6
831.491	20961.64
831.676	20398.45
831.861	21123.43
832.047	20554.1
832.232	20375.92
832.417	21068.14
832.602	20652.4
832.788	20486.51
832.973	20400.5
833.158	20629.87
833.343	20777.33
833.528	20599.15
833.714	21004.65
833.899	20967.79
834.084	21143.91
834.269	20470.13
834.454	20167.03
834.639	20531.57
834.824	20320.63
835.009	19995
835.194	20373.88
835.379	20781.42
835.564	20500.85
835.749	20132.22
835.934	19995
836.119	20228.47
836.304	20420.98
836.489	19896.7
836.674	20582.77
836.859	20257.14
837.044	20711.79
837.228	20095.35
837.413	19841.4
837.598	20339.06
837.783	20435.31
837.968	20136.31
838.152	19671.42
838.337	19851.64
838.522	20615.54
838.707	20498.8
838.891	20203.89
839.076	20029.82
839.261	20347.25
839.445	19652.99
839.63	19800.44
839.815	20185.46
839.999	19532.16
840.184	19462.53
840.368	19192.2
840.553	20052.34
840.737	19954.04
840.922	19249.54
841.106	19257.73
841.291	19548.54
841.475	19511.68
841.66	19448.19
841.844	18882.95
842.029	20076.92
842.213	19102.09
842.397	19229.06
842.582	19001.74
842.766	20050.3
842.951	19882.36
843.135	19374.47
843.319	19310.98
843.504	19356.04
843.688	19863.93
843.872	19169.67
844.056	19358.08
844.241	19353.99
844.425	19294.6
844.609	19083.66
844.793	18733.45
844.977	19515.78
845.161	19036.55
845.346	18794.89
845.53	18862.47
845.714	18993.54
845.898	19349.89
846.082	18635.15
846.266	18958.73
846.45	19157.38
846.634	19351.94
846.818	18878.86
847.002	19300.74
847.186	19427.71
847.37	18792.84
847.554	18338.19
847.738	18850.19
847.922	18829.71
848.106	18891.15
848.29	18362.77
848.473	18352.53
848.657	18895.24
848.841	18516.37
849.025	18340.24
849.209	18074.01
849.392	18739.6
849.576	18700.69
849.76	17844.63
849.944	18260.37
850.127	18661.77
850.311	17926.55
850.495	18182.55
850.678	18065.81
850.862	18358.67
851.046	18776.46
851.229	18100.63
851.413	18024.86
851.596	18086.29
851.78	18215.32
851.964	17963.42
852.147	17951.13
852.331	18624.91
852.514	18418.07
852.698	18112.92
852.881	17609.12
853.065	18157.97
853.248	17926.55
853.431	17600.93
853.615	18059.67
853.798	18602.38
853.982	18168.21
854.165	17951.13
854.348	17576.35
854.532	17750.43
854.715	17904.03
854.898	17844.63
855.081	17392.03
855.265	18266.52
855.448	18323.86
855.631	17617.31
855.814	17506.72
855.997	18121.11
856.181	17940.89
856.364	17432.99
856.547	17486.24
856.73	17590.69
856.913	17416.61
857.096	17234.34
857.279	17383.84
857.462	17516.96
857.645	17906.07
857.828	17457.57
858.011	17318.31
858.194	17310.11
858.377	17463.71
858.56	17023.4
858.743	17015.21
858.926	16994.73
859.109	17568.16
859.292	17248.68
859.475	17004.97
859.658	17932.7
859.841	17619.36
860.023	16957.86
860.206	17052.07
860.389	17514.91
860.572	17553.82
860.755	16923.05
860.937	16691.63
861.12	17004.97
861.303	17213.86
861.486	16918.95
861.668	17029.54
861.851	17265.06
862.034	17064.36
862.216	16898.47
862.399	16527.79
862.581	17078.69
862.764	16933.29
862.947	16736.68
863.129	16370.1
863.312	16574.89
863.494	17267.11
863.677	16783.79
863.859	16320.95
864.042	16767.4
864.224	16871.85
864.406	16456.11
864.589	15927.74
864.771	16556.46
864.954	16140.72
865.136	16310.71
865.318	15876.54
865.501	16298.42
865.683	15741.37
865.865	15950.26
866.048	15985.08
866.23	16165.3
866.412	16038.33
866.594	15747.51
866.777	16034.23
866.959	16583.09
867.141	16173.49
867.323	16118.2
867.505	16222.64
867.687	16173.49
867.869	16116.15
868.052	15870.39
868.234	15784.38
868.416	16132.53
868.598	16202.16
868.78	15915.45
868.962	15901.11
869.144	16128.44
869.326	16026.04
869.508	15792.57
869.69	15727.03
869.872	15579.58
870.054	16157.11
870.236	15514.05
870.417	15561.15
870.599	15698.36
870.781	16167.35
870.963	15860.15
871.145	15618.49
871.327	15811
871.508	16038.33
871.69	15864.25
871.872	15589.82
872.054	16218.55
872.235	15862.2
872.417	15374.78
872.599	15411.65
872.78	16357.81
872.962	16077.24
873.144	15419.84
873.325	15591.87
873.507	16155.06
873.689	15749.56
873.87	15630.78
874.052	15643.07
874.233	15727.03
874.415	16132.53
874.596	15780.28
874.778	15505.85
874.959	15860.15
875.141	15759.8
875.322	15548.86
875.503	15495.61
875.685	15710.65
875.866	15460.8
876.048	15198.66
876.229	15272.39
876.41	15587.77
876.592	15827.39
876.773	15493.57
876.954	15249.86
877.136	16226.74
877.317	15483.33
877.498	15235.52
877.679	15555.01
877.86	15694.27
878.042	15862.2
878.223	15806.91
878.404	15901.11
878.585	16069.05
878.766	16243.12
878.947	15954.36
879.128	16101.81
879.309	16226.74
879.49	16216.5
879.672	15731.13
879.853	16036.28
880.034	16150.96
880.215	16181.68
880.396	16185.78
880.576	16017.85
880.757	15950.26
880.938	16343.47
881.119	15944.12
881.3	15985.08
881.481	16228.79
881.662	17136.04
881.843	15667.64
882.023	15749.56
882.204	16099.76
882.385	16492.97
882.566	16091.57
882.747	16130.48
882.927	16546.22
883.108	16634.28
883.289	15978.93
883.469	16601.52
883.65	16150.96
883.831	16306.61
884.011	16343.47
884.192	16253.36
884.373	16841.13
884.553	16662.96
884.734	16427.44
884.914	16634.28
885.095	17490.34
885.275	16865.71
885.456	16687.53
885.636	16417.2
885.817	16746.92
885.997	16791.98
886.178	16296.37
886.358	16306.61
886.538	16648.62
886.719	17664.41
886.899	16150.96
887.08	16671.15
887.26	16689.58
887.44	16241.07
887.621	16275.89
887.801	16687.53
887.981	17324.45
888.161	17213.86
888.342	16746.92
888.522	16669.1
888.702	16896.42
888.882	17115.56
889.062	16771.5
889.242	16449.97
889.423	17191.33
889.603	17205.67
889.783	16953.77
889.963	16581.04
890.143	17287.59
890.323	17156.52
890.503	16875.95
890.683	16808.36
890.863	16681.39
891.043	16910.76
891.223	16853.42
891.403	16923.05
891.583	16742.83
891.763	16925.1
891.943	16800.17
892.122	16918.95
892.302	17064.36
892.482	16677.29
892.662	16562.61
892.842	16622
893.022	16988.58
893.201	16591.28
893.381	16820.65
893.561	16708.01
893.741	17027.49
893.92	17140.13
894.1	17047.97
894.28	16687.53
894.459	17103.27
894.639	17275.3
894.819	16499.12
894.998	16617.9
895.178	17090.98
895.357	16841.13
895.537	16554.41
895.716	16132.53
895.896	16597.42
896.075	16812.46
896.255	16314.8
896.434	16282.03
896.614	16685.48
896.793	17045.93
896.973	16574.89
897.152	16220.6
897.331	16552.37
897.511	16753.07
897.69	16048.57
897.87	16302.51
898.049	16386.48
898.228	16087.48
898.407	16236.98
898.587	16208.31
898.766	16153.01
898.945	16390.58
899.124	15983.03
899.304	16167.35
899.483	16435.63
899.662	16638.38
899.841	15724.99
900.02	15442.37
900.199	16263.6
900.378	16212.4
900.557	15565.25
900.737	15536.57
900.916	16169.4
901.095	15995.32
901.274	15614.4
901.453	15247.81
901.632	15528.38
901.811	15419.84
901.989	15149.51
902.168	15165.89
902.347	15737.27
902.526	15665.6
902.705	15415.74
902.884	15190.47
903.063	16259.51
903.242	15704.51
903.42	15245.76
903.599	15219.14
903.778	15653.31
903.957	15776.19
904.135	14789.07
904.314	15008.2
904.493	15116.74
904.672	14895.56
904.85	14422.48
905.029	14590.41
905.207	15014.34
905.386	15466.94
905.565	14408.14
905.743	14500.3
905.922	14014.93
906.1	14524.88
906.279	14057.94
906.457	14211.54
906.636	14449.1
906.814	14186.96
906.993	13896.15
907.171	13691.35
907.35	14123.48
907.528	14383.57
907.707	13928.92
907.885	13941.21
908.063	14340.56
908.242	13713.88
908.42	13697.5
908.598	13236.7
908.777	14010.84
908.955	13611.48
909.133	13781.46
909.311	13494.75
909.49	13832.66
909.668	13965.78
909.846	13677.02
910.024	13412.83
910.202	13832.66
910.38	13973.97
910.559	13631.96
910.737	13945.3
910.915	14457.29
911.093	14072.28
911.271	13890.01
911.449	14062.04
911.627	14146
911.805	14490.06
911.983	13785.56
912.161	13808.09
912.339	14393.81
912.517	14287.31
912.695	14062.04
912.872	13939.16
913.05	13703.64
913.228	14125.52
913.406	13777.37
913.584	13748.7
913.762	14279.12
913.939	13996.5
914.117	14100.95
914.295	13992.41
914.473	14297.55
914.65	14309.84
914.828	14053.84
915.006	13976.02
915.184	13988.31
915.361	14307.79
915.539	14189.01
915.716	14467.53
915.894	14504.4
916.072	14402
916.249	14088.66
916.427	14393.81
916.604	14029.27
916.782	14436.81
916.959	13822.42
917.137	13572.57
917.314	14146
917.492	14148.05
917.669	13672.92
917.847	13533.66
918.024	13998.55
918.201	13603.29
918.379	13709.79
918.556	13484.51
918.733	14043.6
918.911	13429.21
919.088	13849.05
919.265	13511.13
919.442	13703.64
919.62	13605.34
919.797	13382.11
919.974	13500.89
920.151	13861.34
920.328	13754.84
920.506	13375.97
920.683	13437.41
920.86	13513.18
921.037	13500.89
921.214	13273.57
921.391	13425.12
921.568	13578.72
921.745	13386.21
921.922	13240.8
922.099	12878.31
922.276	13570.52
922.453	13754.84
922.63	13124.07
922.807	13388.25
922.984	13513.18
923.161	13054.44
923.338	13068.77
923.514	12966.37
923.691	13343.2
923.868	13349.34
924.045	12911.08
924.222	12837.35
924.399	13158.88
924.575	13486.56
924.752	12853.73
924.929	13033.96
925.105	13251.04
925.282	12679.66
925.459	12573.16
925.635	12714.47
925.812	12646.89
925.989	12507.63
926.165	12569.07
926.342	12153.33
926.518	12233.2
926.695	12696.04
926.871	12476.91
927.048	12263.92
927.224	12659.18
927.401	12417.52
927.577	12304.88
927.754	12136.95
927.93	12489.2
928.107	12485.1
928.283	11958.77
928.459	12382.7
928.636	12536.3
928.812	12286.45
928.988	11895.29
929.165	11756.02
929.341	11979.25
929.517	11866.61
929.693	11727.35
929.87	11360.77
930.046	12009.97
930.222	11768.31
930.398	11545.08
930.574	11399.68
930.751	11678.2
930.927	11393.53
931.103	11278.85
931.279	11387.39
931.455	11237.89
931.631	11555.32
931.807	11209.22
931.983	11270.65
932.159	11174.4
932.335	11383.29
932.511	11354.62
932.687	11178.5
932.863	11319.81
933.039	11215.36
933.215	10781.19
933.391	10723.85
933.566	11121.15
933.742	10863.11
933.918	10545.67
934.094	10295.82
934.27	10668.55
934.445	10633.74
934.621	10570.25
934.797	10013.2
934.973	10512.91
935.148	10320.4
935.324	9845.27
935.5	9699.86
935.675	10338.83
935.851	10117.65
936.027	9732.63
936.202	9497.11
936.378	9583.13
936.553	9400.86
936.729	9419.29
936.904	8823.33
937.08	8714.79
937.255	8729.13
937.431	8370.73
937.606	8120.88
937.782	8372.78
937.957	8421.93
938.133	8118.83
938.308	7901.75
938.483	8014.38
938.659	7881.27
938.834	7780.92
939.009	7590.45
939.185	7617.08
939.36	7434.81
939.535	6974.02
939.71	7387.71
939.886	7574.07
940.061	7375.42
940.236	7211.58
940.411	6920.77
940.586	7330.36
940.761	7041.6
940.937	6738.5
941.112	6646.34
941.287	6806.08
941.462	6789.7
941.637	6464.07
941.812	6496.84
941.987	6732.36
942.162	6548.04
942.337	6480.46
942.512	6222.41
942.687	6689.35
942.862	6625.86
943.037	6056.53
943.212	6027.85
943.386	6445.64
943.561	6451.78
943.736	6226.51
943.911	6502.98
944.086	6341.19
944.26	6343.24
944.435	6107.73
944.61	6093.39
944.785	6476.36
944.959	6732.36
945.134	6134.35
945.309	5986.9
945.483	6068.81
945.658	6470.22
945.833	5800.53
946.007	5843.54
946.182	6818.37
946.357	6095.44
946.531	5982.8
946.706	6031.95
946.88	5997.14
947.055	6543.94
947.229	6148.68
947.404	6105.68
947.578	6812.23
947.752	6367.82
947.927	6150.73
948.101	6208.08
948.276	6484.55
948.45	6453.83
948.624	6416.97
948.799	6060.62
948.973	6672.96
949.147	6224.46
949.321	6466.12
949.496	6556.23
949.67	6986.3
949.844	6599.24
950.018	6511.18
950.193	6529.61
950.367	7033.41
950.541	6519.37
950.715	6644.29
950.889	6650.44
951.063	6496.84
951.237	6703.68
951.411	6197.84
951.585	6494.79
951.759	6705.73
951.933	6535.75
952.107	6527.56
952.281	6871.62
952.455	7219.77
952.629	7328.31
952.803	6857.28
952.977	6670.92
953.151	7168.57
953.325	6808.13
953.499	6871.62
953.672	6715.97
953.846	6654.53
954.02	6892.1
954.194	6646.34
954.368	6707.78
954.541	7113.28
954.715	6832.71
954.889	6916.67
955.062	6459.98
955.236	7072.32
955.41	6748.74
955.583	6922.82
955.757	6720.07
955.93	7019.07
956.104	6718.02
956.278	6885.95
956.451	6736.45
956.625	7010.88
956.798	7543.35
956.972	7103.04
957.145	6730.31
957.319	7123.52
957.492	7070.27
957.665	6933.06
957.839	6773.32
958.012	7322.17
958.185	6945.34
958.359	6910.53
958.532	6957.63
958.705	7359.03
958.879	7144
959.052	7184.96
959.225	6713.92
959.398	7285.31
959.572	7129.66
959.745	6980.16
959.918	6951.49
960.091	7203.39
960.264	7359.03
960.438	6974.02
960.611	6933.06
960.784	7436.86
960.957	7000.64
961.13	7391.8
961.303	6894.15
961.476	7215.68
961.649	7381.56
961.822	7008.83
961.995	7035.46
962.168	7385.66
962.341	7180.86
962.514	6986.3
962.686	6945.34
962.859	7391.8
963.032	7422.52
963.205	7125.57
963.378	6978.11
963.551	7328.31
963.723	7217.72
963.896	7037.5
964.069	7174.72
964.242	6959.68
964.414	7377.47
964.587	7057.98
964.76	7039.55
964.932	7197.24
965.105	6990.4
965.278	7010.88
965.45	6918.72
965.623	7166.53
965.795	7223.87
965.968	6914.63
966.14	7004.74
966.313	7027.26
966.485	7230.01
966.658	6883.91
966.83	6963.78
967.003	7412.28
967.175	7240.25
967.348	6902.34
967.52	6814.27
967.692	7414.33
967.865	7293.5
968.037	6828.61
968.209	7012.93
968.382	7014.98
968.554	7068.22
968.726	6730.31
968.898	6828.61
969.071	6994.5
969.243	6961.73
969.415	6812.23
969.587	6750.79
969.759	7318.07
969.932	7127.61
970.104	6687.3
970.276	6337.1
970.448	6902.34
970.62	6730.31
970.792	6615.62
970.964	6492.74
971.136	7014.98
971.308	6988.35
971.48	6324.81
971.652	6341.19
971.824	6933.06
971.996	6437.45
972.168	6523.46
972.339	6586.95
972.511	6767.17
972.683	6388.3
972.855	6507.08
973.027	6474.31
973.199	6498.89
973.37	6855.23
973.542	6621.77
973.714	6593.09
973.886	6498.89
974.057	6765.12
974.229	6105.68
974.401	6390.35
974.572	6359.63
974.744	6120.01
974.915	6277.71
975.087	6515.27
975.259	6769.22
975.43	6408.78
975.602	6271.56
975.773	6029.9
975.945	6154.83
976.116	6568.52
976.288	6197.84
976.459	6488.65
976.63	6466.12
976.802	6525.51
976.973	6216.27
977.145	6459.98
977.316	6775.36
977.487	6484.55
977.659	6220.36
977.83	6019.66
978.001	6746.69
978.172	6097.49
978.344	5960.27
978.515	5917.26
978.686	5999.18
978.857	6482.5
979.028	5886.54
979.2	5814.87
979.371	6261.32
979.542	6019.66
979.713	6132.3
979.884	5503.57
980.055	5995.09
980.226	5984.85
980.397	5945.94
980.568	5556.82
980.739	6257.23
980.91	6214.22
981.081	5859.92
981.252	5778
981.423	6085.2
981.594	6232.65
981.765	5696.08
981.936	5732.95
982.106	5823.06
982.277	6079.05
982.448	5636.69
982.619	5749.33
982.79	5657.17
982.96	6128.21
983.131	5626.45
983.302	5380.7
983.472	5872.21
983.643	5816.91
983.814	5765.71
983.984	5409.37
984.155	5741.14
984.326	5911.12
984.496	5687.89
984.667	5405.27
984.837	5452.38
985.008	5753.43
985.178	5585.49
985.349	5481.05
985.519	5483.09
985.69	5403.22
985.86	5409.37
986.031	5360.22
986.201	5605.97
986.371	5556.82
986.542	5255.77
986.712	5145.18
986.882	5499.48
987.053	5601.88
987.223	5093.98
987.393	5464.66
987.563	5192.28
987.734	5671.51
987.904	5616.21
988.074	5030.49
988.244	5329.5
988.414	5089.88
988.585	5079.65
988.755	5118.56
988.925	5274.2
989.095	5493.33
989.265	4819.55
989.435	5075.55
989.605	5331.55
989.775	5483.09
989.945	5352.02
990.115	4794.98
990.285	5032.54
990.455	5233.24
990.625	4848.22
990.795	4723.3
990.965	5349.98
991.134	4614.76
991.304	4803.17
991.474	4702.82
991.644	4989.53
991.814	5194.33
991.984	4436.58
992.153	4495.97
992.323	4868.7
992.493	4926.05
992.662	4340.33
992.832	4721.25
993.002	4702.82
993.171	4799.07
993.341	4444.77
993.511	4741.73
993.68	4442.73
993.85	4858.46
994.019	4414.06
994.189	4428.39
994.358	4694.63
994.528	4481.64
994.697	4215.4
994.867	4305.51
995.036	4670.05
995.206	4434.53
995.375	4233.83
995.544	4452.97
995.714	4645.48
995.883	4477.54
996.052	4325.99
996.222	4000.37
996.391	4885.09
996.56	4364.9
996.73	4022.89
996.899	3945.07
997.068	4700.77
997.237	4409.96
997.406	4031.09
997.576	4143.72
997.745	4422.25
997.914	4442.73
998.083	3977.84
998.252	3918.45
998.421	4160.11
998.59	4092.52
998.759	3854.96
998.928	3742.32
999.097	4315.75
999.266	4237.93
999.435	4092.52
999.604	3746.42
999.773	4487.78
999.942	3961.45
1000.111	3603.06
1000.28	3533.43
1000.448	3830.38
1000.617	3844.72
1000.786	3975.79
1000.955	3715.7
1001.124	4043.37
1001.292	4483.69
1001.461	3662.45
1001.63	3529.33
1001.798	4258.41
1001.967	4125.29
1002.136	3338.87
1002.304	3570.29
1002.473	3895.92
1002.642	3758.71
1002.81	3508.85
1002.979	3529.33
1003.147	3936.88
1003.316	4344.42
1003.484	3603.06
1003.653	3515
1003.821	3947.12
1003.99	3637.88
1004.158	3592.82
1004.327	3529.33
1004.495	3820.14
1004.663	3562.1
1004.832	3375.74
1005	3127.93
1005.168	3934.83
1005.337	3779.18
1005.505	3265.14
1005.673	3443.32
1005.842	3727.99
1006.01	3697.27
1006.178	3207.8
1006.346	3164.79
1006.514	3607.16
1006.683	3531.38
1006.851	3117.69
1007.019	3043.96
1007.187	3271.29
1007.355	2892.41
1007.523	2888.32
1007.691	2806.4
1007.859	2986.62
1008.027	3623.54
1008.195	3000.96
1008.363	2910.85
1008.531	3476.09
1008.699	3074.68
1008.867	2949.76
1009.035	2984.57
1009.203	3504.76
1009.37	3084.92
1009.538	2867.84
1009.706	3205.75
1009.874	3103.36
1010.042	3185.27
1010.209	2609.79
1010.377	2867.84
1010.545	3371.64
1010.713	3142.27
1010.88	2865.79
1011.048	2777.73
1011.216	3101.31
1011.383	3508.85
1011.551	2701.95
1011.718	2572.93
1011.886	3215.99
1012.054	3027.58
1012.221	2640.51
1012.389	2589.32
1012.556	2826.88
1012.724	3396.21
1012.891	2781.82
1013.058	2341.51
1013.226	3084.92
1013.393	2978.43
1013.561	2433.67
1013.728	2378.37
1013.895	2978.43
1014.063	3041.92
1014.23	2454.15
1014.397	2474.63
1014.565	2994.81
1014.732	2742.91
1014.899	2413.19
1015.066	2374.28
1015.233	2775.68
1015.401	2736.77
1015.568	2450.05
1015.735	2521.73
1015.902	2503.3
1016.069	2585.22
1016.236	2202.25
1016.403	2202.25
1016.57	2343.56
1016.737	2792.06
1016.904	2224.78
1017.071	2058.89
1017.238	2302.6
1017.405	2620.03
1017.572	2142.86
1017.739	2306.7
1017.906	2660.99
1018.073	2701.95
1018.24	2083.47
1018.407	2140.81
1018.573	2714.24
1018.74	2345.61
1018.907	2171.53
1019.074	1936.01
1019.241	2744.96
1019.407	2402.95
1019.574	2040.46
1019.741	1796.75
1019.907	2427.53
1020.074	2431.62
1020.241	1858.19
1020.407	1870.48
1020.574	2335.37
1020.74	2333.32
1020.907	1909.39
1021.073	1809.04
1021.24	2712.19
1021.406	2478.72
1021.573	1854.09
1021.739	1944.2
1021.906	2316.94
1022.072	2089.61
1022.239	1903.25
1022.405	1821.33
1022.571	2187.91
1022.738	1985.16
1022.904	1903.25
1023.07	1774.22
1023.237	2157.19
1023.403	2341.51
1023.569	1872.53
1023.735	1727.12
1023.902	2230.92
1024.068	2298.5
1024.234	1630.87
1024.4	1659.54
1024.566	2095.75
1024.732	2239.11
1024.898	1649.3
1025.065	1491.6
1025.231	2185.87
1025.397	1968.78
1025.563	1761.94
1025.729	1667.73
1025.895	1577.62
1026.061	1776.27
1026.227	1450.64
1026.392	1694.35
1026.558	2267.78
1026.724	2038.41
1026.89	1528.47
1027.056	1622.67
1027.222	1989.26
1027.388	1802.9
1027.553	1555.09
1027.719	1598.1
1027.885	2335.37
1028.051	2019.98
1028.216	1405.59
1028.382	1419.92
1028.548	2243.21
1028.713	1675.92
1028.879	1391.25
1029.045	1581.71
1029.21	2194.06
1029.376	2144.91
1029.541	1444.5
1029.707	1389.21
1029.873	1991.31
1030.038	1962.64
1030.204	1370.77
1030.369	1569.43
1030.534	2036.36
1030.7	1729.17
1030.865	1532.56
1031.031	1419.92
1031.196	1778.32
1031.361	1708.69
1031.527	1331.86
1031.692	1421.97
1031.857	1366.68
1032.023	1751.7
1032.188	1237.66
1032.353	1360.53
1032.518	2065.04
1032.684	1682.06
1032.849	1182.36
1033.014	1286.81
1033.179	1786.51
1033.344	1811.09
1033.509	1448.6
1033.674	1223.32
1033.839	1712.78
1034.004	1739.41
1034.17	1346.2
1034.335	1217.18
1034.5	1548.95
1034.664	1411.73
1034.829	1163.93
1034.994	1219.22
1035.159	1540.76
1035.324	1694.35
1035.489	1274.52
1035.654	1133.21
1035.819	1931.92
1035.984	1565.33
1036.148	1215.13
1036.313	1188.5
1036.478	1778.32
1036.643	1456.79
1036.807	1086.11
1036.972	1088.15
1037.137	1737.36
1037.301	1577.62
1037.466	852.64
1037.631	1202.84
1037.795	1653.39
1037.96	1444.5
1038.124	1192.6
1038.289	996
1038.454	1594
1038.618	1532.56
1038.783	1071.77
1038.947	1161.88
1039.111	1450.64
1039.276	1219.22
1039.44	977.56
1039.605	1464.98
1039.769	1241.75
1039.933	1344.15
1040.098	1079.96
1040.262	1170.07
1040.426	1561.23
1040.591	1483.41
1040.755	897.69
1040.919	1141.4
1041.083	1489.56
1041.248	1282.71
1041.412	713.38
1041.576	916.12
1041.74	1284.76
1041.904	1530.52
1042.068	854.69
1042.232	1002.14
1042.397	1491.6
1042.561	1387.16
1042.725	709.28
1042.889	971.42
1043.053	1497.75
1043.217	1323.67
1043.381	1014.43
1043.544	793.25
1043.708	1565.33
1043.872	983.71
1044.036	625.31
1044.2	883.36
1044.364	1436.31
1044.528	1573.52
1044.691	2046.6
1044.855	696.99
1045.019	1456.79
1045.183	1340.05
1045.346	877.21
1045.51	787.1
1045.674	1346.2
1045.837	1424.02
1046.001	830.11
1046.165	809.63
1046.328	1612.43
1046.492	1219.22
1046.655	996
1046.819	850.59
1046.983	936.6
1047.146	1223.32
1047.31	877.21
1047.473	570.02
1047.636	1133.21
1047.8	1057.43
1047.963	789.15
1048.127	705.18
1048.29	944.8
