Data from Hydrogel_Ink_Intensity_Test_1_USB4F045381__21__00021.txt Node

Date: Mon Jul 31 10:39:49 EDT 2023
User: mmckonesweet
Spectrometer: USB4F04538
Trigger mode: 4
Integration Time (sec): 9.000000E-1
Scans to average: 1
Electric dark correction enabled: true
Nonlinearity correction enabled: false
Boxcar width: 0
XAxis mode: Wavelengths
Number of Pixels in Spectrum: 3648
>>>>>Begin Spectral Data<<<<<
345.52	-835.06
345.736	-835.06
345.952	-835.06
346.168	-937.46
346.384	-912.88
346.6	-95.74
346.816	-243.2
347.032	-228.86
347.248	315.9
347.464	-257.53
347.68	-46.59
347.896	84.48
348.112	381.43
348.328	-138.75
348.544	-9.73
348.76	-42.5
348.975	281.08
349.191	-161.28
349.407	-67.07
349.623	127.49
349.839	-11.78
350.055	-62.98
350.27	139.77
350.486	205.31
350.702	287.23
350.918	332.28
351.133	-167.42
351.349	137.73
351.565	418.3
351.781	-124.41
351.996	111.1
352.212	369.15
352.428	18.94
352.644	-89.6
352.859	-202.24
353.075	295.42
353.291	94.72
353.506	-36.35
353.722	-208.38
353.938	-7.68
354.153	428.54
354.369	178.69
354.584	-155.13
354.8	418.3
355.016	-280.06
355.231	-157.18
355.447	143.87
355.662	209.4
355.878	922.1
356.093	-255.48
356.309	88.57
356.524	-161.28
356.74	248.32
356.955	-69.12
357.171	-15.87
357.386	219.64
357.602	-126.46
357.817	-22.02
358.033	-65.02
358.248	492.02
358.464	135.68
358.679	-28.16
358.895	-224.76
359.11	88.57
359.325	367.1
359.541	348.67
359.756	111.1
359.972	-175.61
360.187	215.55
360.402	-91.65
360.618	0.51
360.833	942.58
361.048	166.4
361.264	-97.79
361.479	113.15
361.694	147.97
361.909	326.14
362.125	-62.98
362.34	76.29
362.555	307.71
362.77	119.29
362.986	-71.17
363.201	4.61
363.416	262.65
363.631	98.81
363.847	-79.36
364.062	-81.41
364.277	354.81
364.492	184.83
364.707	-77.31
364.922	-179.71
365.138	307.71
365.353	422.39
365.568	-179.71
365.783	-11.78
365.998	182.78
366.213	623.09
366.428	-134.65
366.643	119.29
366.858	324.09
367.073	227.84
367.288	-19.97
367.503	-81.41
367.718	252.41
367.933	481.78
368.148	-247.29
368.363	102.91
368.578	80.38
368.793	526.84
369.008	-11.78
369.223	-153.09
369.438	309.76
369.653	522.74
369.868	-120.32
370.083	-97.79
370.298	219.64
370.513	473.59
370.728	223.74
370.943	-1.54
371.157	16.9
371.372	698.87
371.587	-157.18
371.802	-48.64
372.017	170.49
372.232	543.22
372.446	129.53
372.661	-40.45
372.876	336.38
373.091	264.7
373.306	143.87
373.52	-79.36
373.735	29.18
373.95	557.56
374.165	-15.87
374.379	45.57
374.594	18.94
374.809	238.08
375.023	205.31
375.238	-40.45
375.453	385.53
375.667	-24.06
375.882	8.7
376.097	-24.06
376.311	197.12
376.526	72.19
376.741	-30.21
376.955	250.36
377.17	758.26
377.384	678.39
377.599	129.53
377.813	-114.17
378.028	702.97
378.242	313.85
378.457	172.54
378.672	-153.09
378.886	190.97
379.101	70.14
379.315	-77.31
379.53	53.76
379.744	410.11
379.958	410.11
380.173	100.86
380.387	35.33
380.602	270.84
380.816	129.53
381.031	10.75
381.245	121.34
381.459	426.49
381.674	2654.68
381.888	43.52
382.103	293.37
382.317	31.23
382.531	637.43
382.746	197.12
382.96	92.67
383.174	72.19
383.388	569.85
383.603	297.47
383.817	-13.82
384.031	360.95
384.246	700.92
384.46	248.32
384.674	547.32
384.888	297.47
385.103	279.04
385.317	39.42
385.531	152.06
385.745	627.19
385.959	551.42
386.174	109.05
386.388	-15.87
386.602	242.17
386.816	80.38
387.03	229.88
387.244	188.93
387.458	344.57
387.672	565.75
387.887	-7.68
388.101	4.61
388.315	619
388.529	391.67
388.743	125.44
388.957	14.85
389.171	494.07
389.385	123.39
389.599	201.21
389.813	301.56
390.027	324.09
390.241	1049.07
390.455	223.74
390.669	283.13
390.883	197.12
391.097	797.17
391.311	397.82
391.525	260.6
391.738	494.07
391.952	496.12
392.166	195.07
392.38	113.15
392.594	664.05
392.808	666.1
393.022	254.46
393.236	225.79
393.449	500.22
393.663	518.65
393.877	143.87
394.091	365.05
394.305	174.59
394.518	262.65
394.732	115.2
394.946	262.65
395.16	788.98
395.373	391.67
395.587	242.17
395.801	260.6
396.015	711.16
396.228	535.03
396.442	119.29
396.656	115.2
396.869	791.03
397.083	748.02
397.297	299.52
397.51	246.27
397.724	815.6
397.938	596.47
398.151	131.58
398.365	178.69
398.578	700.92
398.792	711.16
399.005	397.82
399.219	358.91
399.433	561.66
399.646	688.63
399.86	442.87
400.073	399.87
400.287	788.98
400.5	305.66
400.714	502.26
400.927	424.44
401.141	741.88
401.354	1554.92
401.567	569.85
401.781	240.12
401.994	813.56
402.208	1071.6
402.421	369.15
402.635	469.5
402.848	631.29
403.061	879.09
403.275	500.22
403.488	360.95
403.701	926.19
403.915	741.88
404.128	596.47
404.341	434.68
404.555	676.34
404.768	469.5
404.981	571.9
405.195	416.25
405.408	1016.3
405.621	846.32
405.834	592.37
406.048	369.15
406.261	870.9
406.474	1020.4
406.687	436.73
406.9	635.38
407.114	557.56
407.327	698.87
407.54	301.56
407.753	334.33
407.966	510.46
408.179	786.93
408.392	436.73
408.605	385.53
408.819	702.97
409.032	848.37
409.245	432.63
409.458	657.91
409.671	848.37
409.884	1100.27
410.097	424.44
410.31	698.87
410.523	807.41
410.736	672.25
410.949	588.28
411.162	594.42
411.375	1206.77
411.588	1069.55
411.801	649.72
412.014	526.84
412.227	797.17
412.44	664.05
412.653	606.71
412.865	676.34
413.078	991.73
413.291	815.6
413.504	641.53
413.717	584.18
413.93	920.05
414.143	512.5
414.356	598.52
414.568	453.11
414.781	975.35
414.994	879.09
415.207	770.55
415.42	743.92
415.632	1044.98
415.845	1397.23
416.058	492.02
416.271	598.52
416.483	838.13
416.696	1305.07
416.909	684.53
417.121	659.96
417.334	1051.12
417.547	1274.35
417.759	723.44
417.972	686.58
418.185	702.97
418.397	1151.47
418.61	657.91
418.823	743.92
419.035	1319.4
419.248	866.8
419.46	774.64
419.673	854.51
419.885	1143.28
420.098	901.62
420.311	788.98
420.523	561.66
420.736	1135.09
420.948	1063.41
421.161	819.7
421.373	682.49
421.586	1044.98
421.798	815.6
422.01	725.49
422.223	1036.78
422.435	922.1
422.648	1171.95
422.86	899.57
423.073	975.35
423.285	1354.22
423.497	760.31
423.71	823.8
423.922	819.7
424.134	1221.1
424.347	1425.9
424.559	1176.05
424.771	1307.12
424.984	1008.11
425.196	1212.91
425.408	791.03
425.621	819.7
425.833	1567.21
426.045	1518.06
426.257	860.66
426.47	987.63
426.682	1245.68
426.894	1346.03
427.106	1116.65
427.318	1042.93
427.531	1135.09
427.743	1438.19
427.955	1022.45
428.167	1442.28
428.379	1348.08
428.591	1186.29
428.804	1280.49
429.016	1098.22
429.228	1243.63
429.44	1257.96
429.652	1348.08
429.864	1040.88
430.076	1294.83
430.288	1276.4
430.5	1180.14
430.712	1202.67
430.924	1663.46
431.136	1378.79
431.348	1110.51
431.56	1069.55
431.772	1343.98
431.984	1315.31
432.196	1202.67
432.408	1296.88
432.62	1331.69
432.832	1571.3
433.044	1618.41
433.256	1374.7
433.468	1651.17
433.679	1155.57
433.891	1231.34
434.103	1602.02
434.315	1767.91
434.527	1757.67
434.739	1462.76
434.95	1417.71
435.162	1817.06
435.374	1493.48
435.586	1460.71
435.798	1362.41
436.009	1368.56
436.221	1520.1
436.433	1483.24
436.645	1511.91
436.856	1589.74
437.068	2040.29
437.28	1368.56
437.491	1845.73
437.703	1802.72
437.915	1812.96
438.126	1528.3
438.338	1829.35
438.55	1743.33
438.761	1935.84
438.973	1542.63
439.184	1692.13
439.396	1737.19
439.608	1898.98
439.819	1608.17
440.031	1653.22
440.242	1925.6
440.454	1993.19
440.665	1739.24
440.877	1870.31
441.088	1923.55
441.3	1673.7
441.511	1604.07
441.723	1606.12
441.934	1862.12
442.146	1931.75
442.357	1901.03
442.569	1954.27
442.78	1894.88
442.991	2351.58
443.203	2101.73
443.414	1712.61
443.626	2206.17
443.837	1761.77
444.048	1763.81
444.26	1604.07
444.471	2019.81
444.682	2312.67
444.894	1606.12
445.105	1612.26
445.316	2294.24
445.528	2099.68
445.739	2001.38
445.95	1880.55
446.161	2034.14
446.373	2441.69
446.584	1993.19
446.795	1823.2
447.006	2197.98
447.217	2521.56
447.429	1823.2
447.64	1772
447.851	2392.54
448.062	2193.89
448.273	1769.96
448.484	1995.23
448.695	2322.91
448.907	2046.43
449.118	2157.02
449.329	2206.17
449.54	2109.92
449.751	2003.43
449.962	2025.95
450.173	1915.36
450.384	2466.27
450.595	2669.02
450.806	2165.21
451.017	2068.96
451.228	2515.42
451.439	2716.12
451.65	2212.32
451.861	2005.47
452.072	2187.74
452.283	2499.03
452.494	2396.64
452.705	2183.65
452.915	2798.04
453.126	2654.68
453.337	2335.2
453.548	2210.27
453.759	2757.08
453.97	2935.25
454.181	2546.14
454.391	2392.54
454.602	2705.88
454.813	2675.16
455.024	2535.9
455.235	2331.1
455.445	2712.02
455.656	2705.88
455.867	2611.67
456.078	2505.18
456.288	2460.12
456.499	3033.55
456.71	2623.96
456.921	2769.37
457.131	2863.57
457.342	2810.33
457.553	2632.15
457.763	2673.11
457.974	3160.53
458.184	3078.61
458.395	2617.82
458.606	2726.36
458.816	3404.24
459.027	3455.44
459.237	2916.82
459.448	2693.59
459.659	3291.6
459.869	3555.79
460.08	2795.99
460.29	3267.02
460.501	3658.18
460.711	3232.21
460.922	2777.56
461.132	3215.82
461.343	3842.5
461.553	3017.17
461.764	3054.03
461.974	3144.14
462.184	3496.39
462.395	3510.73
462.605	3197.39
462.816	3226.06
463.026	3439.05
463.236	3813.83
463.447	3340.75
463.657	3414.48
463.867	3867.08
464.078	3645.9
464.288	3477.96
464.498	3549.64
464.709	3697.1
464.919	3709.38
465.129	3621.32
465.339	3566.03
465.55	4176.32
465.76	4108.74
465.97	3717.58
466.18	3826.12
466.391	4278.72
466.601	4008.39
466.811	3951.04
467.021	3811.78
467.231	4297.15
467.441	4260.29
467.651	4209.09
467.862	3899.84
468.072	4436.41
468.282	4753.85
468.492	4024.77
468.702	4284.86
468.912	4469.18
469.122	5093.81
469.332	4792.76
469.542	4377.02
469.752	4934.07
469.962	4706.74
470.172	4465.08
470.382	4749.75
470.592	5071.28
470.802	5364.14
471.012	4833.72
471.222	4743.61
471.432	5308.85
471.642	5202.35
471.852	5018.04
472.062	5163.44
472.272	5226.93
472.482	5165.49
472.691	5085.62
472.901	5028.28
473.111	5456.3
473.321	6138.27
473.531	5362.09
473.741	5493.16
473.95	6015.4
474.16	6009.25
474.37	5681.58
474.58	5607.85
474.79	6390.17
474.999	6381.98
475.209	5716.39
475.419	6093.22
475.628	6259.1
475.838	6533.53
476.048	6154.66
476.258	6062.5
476.467	6785.43
476.677	6513.05
476.886	6590.88
477.096	6652.31
477.306	6535.58
477.515	7068.05
477.725	6613.4
477.935	6791.58
478.144	7278.99
478.354	6799.77
478.563	7047.57
478.773	7002.52
478.982	7514.51
479.192	7582.09
479.401	7264.66
479.611	7287.18
479.82	7272.85
480.03	7608.72
480.239	7340.43
480.449	7524.75
480.658	8337.79
480.868	7895.43
481.077	8067.46
481.287	8022.41
481.496	8227.2
481.705	8675.71
481.915	8311.17
482.124	8311.17
482.333	8468.86
482.543	8753.53
482.752	8429.95
482.961	8432
483.171	8843.64
483.38	8712.57
483.589	8501.63
483.799	8722.81
484.008	8907.13
484.217	9189.75
484.426	8726.91
484.636	8829.31
484.845	9208.18
485.054	9185.65
485.263	9650.54
485.472	9150.84
485.682	9933.16
485.891	9576.81
486.1	9138.55
486.309	9595.25
486.518	9963.88
486.727	10090.85
486.936	9625.97
487.146	10029.41
487.355	10346.85
487.564	9980.26
487.773	9963.88
487.982	9947.5
488.191	10056.04
488.4	10398.05
488.609	10258.79
488.818	10465.63
489.027	11184.47
489.236	11082.07
489.445	10600.8
489.654	10244.45
489.863	11057.5
490.072	10828.12
490.281	11235.67
490.49	10746.2
490.698	11555.15
490.907	11374.93
491.116	10979.67
491.325	11047.26
491.534	11385.17
491.743	11399.51
491.952	11440.47
492.16	11434.32
492.369	11747.66
492.578	11852.11
492.787	11954.51
492.996	11587.92
493.204	11612.49
493.413	12411.2
493.622	11780.43
493.831	11612.49
494.039	12388.67
494.248	11970.89
494.457	12124.49
494.665	12048.71
494.874	12667.2
495.083	12826.94
495.291	12394.82
495.5	12224.84
495.709	12523.84
495.917	12556.61
496.126	12292.42
496.335	12677.44
496.543	12863.8
496.752	12831.04
496.96	12931.39
497.169	12749.12
497.377	13119.8
497.586	13203.77
497.794	13322.55
498.003	12736.83
498.211	13257.01
498.42	13732.14
498.628	13338.93
498.837	13218.1
499.045	13539.63
499.254	13730.09
499.462	13556.02
499.671	13566.26
499.879	14106.92
500.087	13934.89
500.296	13525.3
500.504	13586.74
500.713	14174.5
500.921	14668.06
501.129	13775.15
501.338	13682.99
501.546	14328.1
501.754	14256.42
501.962	13895.98
502.171	14022.95
502.379	14465.32
502.587	14950.68
502.795	14393.64
503.004	14407.97
503.212	14514.47
503.42	14790.94
503.628	14418.21
503.837	14493.99
504.045	14786.85
504.253	15059.23
504.461	14768.41
504.669	14528.8
504.877	14975.26
505.085	15515.92
505.294	14915.87
505.502	14956.83
505.71	15155.48
505.918	15401.24
506.126	15139.1
506.334	14977.31
506.542	15468.82
506.75	15384.85
506.958	15388.95
507.166	15548.69
507.374	15448.34
507.582	16374.02
507.79	15515.92
507.998	15347.99
508.206	15974.67
508.414	15843.6
508.622	15495.44
508.83	15483.16
509.037	16318.73
509.245	15802.64
509.453	15665.42
509.661	15907.09
509.869	16560.39
510.077	16144.65
510.285	16347.4
510.492	15700.24
510.7	17051.9
510.908	16163.08
511.116	16177.42
511.324	16120.07
511.531	16494.85
511.739	16709.89
511.947	16507.14
512.155	16634.11
512.362	16830.72
512.57	16288.01
512.778	16482.56
512.985	16394.5
513.193	16945.41
513.401	17490.17
513.608	16826.62
513.816	16597.25
514.024	17162.49
514.231	17326.33
514.439	16875.77
514.646	16943.36
514.854	17416.44
515.061	17293.56
515.269	16953.6
515.477	16929.02
515.684	17176.83
515.892	17723.63
516.099	17193.21
516.307	17137.91
516.514	17531.12
516.722	17795.31
516.929	17027.32
517.136	17279.22
517.344	17905.9
517.551	17731.83
517.759	17527.03
517.966	17543.41
518.173	17559.8
518.381	17869.04
518.588	17907.95
518.796	17574.13
519.003	18319.59
519.21	18176.23
519.418	18014.45
519.625	17998.06
519.832	18227.43
520.039	18497.77
520.247	18073.84
520.454	18389.22
520.661	18768.1
520.868	18792.67
521.076	18442.47
521.283	18147.56
521.49	19120.35
521.697	18589.92
521.904	18415.85
522.112	18434.28
522.319	18942.17
522.526	18942.17
522.733	18976.99
522.94	18401.51
523.147	18897.12
523.354	19235.03
523.561	18790.63
523.768	19032.29
523.975	19609.81
524.183	19065.05
524.39	19294.43
524.597	18907.36
524.804	19380.44
525.011	19224.79
525.218	19321.05
525.425	19319
525.632	19845.33
525.838	19445.98
526.045	19204.31
526.252	19376.34
526.459	20814.02
526.666	20766.92
526.873	19544.28
527.08	19603.67
527.287	20359.37
527.494	20121.8
527.701	19712.21
527.907	19372.25
528.114	20099.28
528.321	19917.01
528.528	19914.96
528.735	20125.9
528.941	20240.59
529.148	20072.65
529.355	20295.88
529.562	19806.42
529.768	21041.34
529.975	20070.61
530.182	20263.11
530.388	20365.51
530.595	20736.2
530.802	20117.71
531.008	20801.73
531.215	20486.34
531.422	21598.39
531.628	21680.31
531.835	20742.34
532.042	20820.16
532.248	21233.85
532.455	20922.56
532.661	20963.52
532.868	20998.34
533.074	21334.2
533.281	21346.49
533.487	21463.22
533.694	20781.25
533.9	21612.73
534.107	21407.93
534.313	21409.98
534.52	21164.22
534.726	21739.7
534.933	22218.92
535.139	21541.05
535.345	21287.1
535.552	21807.28
535.758	22081.71
535.965	21827.76
536.171	21897.39
536.377	21848.24
536.584	22368.43
536.79	21715.12
536.996	22003.89
537.203	22108.33
537.409	22393
537.615	22175.92
537.821	22128.81
538.028	22495.4
538.234	22483.11
538.44	22048.94
538.646	22061.23
538.853	22841.51
539.059	22526.12
539.265	22945.95
539.471	22325.42
539.677	22986.91
539.883	22892.71
540.09	22532.26
540.296	23150.75
540.502	23146.65
540.708	22796.45
540.914	22950.05
541.12	22773.92
541.326	23343.26
541.532	23605.4
541.738	23384.22
541.944	23204
542.15	23711.89
542.356	23326.88
542.562	23212.19
542.768	23310.49
542.974	24176.78
543.18	24039.57
543.386	23703.7
543.592	23611.54
543.798	24324.24
544.004	24494.22
544.21	23808.15
544.415	23892.12
544.621	24029.33
544.827	24158.35
545.033	23695.51
545.239	24019.09
545.445	24158.35
545.651	24402.06
545.856	24035.47
546.062	24033.43
546.268	24535.18
546.474	24531.08
546.679	24174.74
546.885	24303.76
547.091	24066.19
547.297	25026.69
547.502	24520.84
547.708	24008.85
547.914	24559.75
548.119	24957.06
548.325	24131.73
548.531	24254.61
548.736	25104.51
548.942	24426.64
549.147	24178.83
549.353	24817.8
549.559	25313.41
549.764	24854.66
549.97	24348.81
550.175	24852.61
550.381	25309.31
550.586	24774.79
550.792	25131.14
550.997	25051.27
551.203	25473.15
551.408	25337.98
551.614	25188.48
551.819	25274.49
552.025	25782.39
552.23	25925.75
552.435	25413.76
552.641	26026.1
552.846	25612.41
553.052	25788.53
553.257	25577.59
553.462	25921.65
553.668	25518.2
553.873	26148.98
554.078	25616.51
554.283	25694.33
554.489	26042.48
554.694	26171.5
554.899	25940.08
555.105	26275.95
555.31	26310.77
555.515	26488.94
555.72	26570.86
555.925	26161.26
556.131	26599.53
556.336	26501.23
556.541	26110.07
556.746	26357.87
556.951	26720.36
557.156	26947.68
557.361	26591.34
557.567	26927.21
557.772	27209.82
557.977	27037.8
558.182	26386.54
558.387	26878.05
558.592	26785.9
558.797	27457.63
559.002	26667.11
559.207	26785.9
559.412	26849.38
559.617	27254.88
559.822	26740.84
560.027	26564.71
560.232	27154.53
560.437	27183.2
560.642	26581.1
560.847	27002.98
561.051	27330.65
561.256	27308.13
561.461	27177.06
561.666	27240.54
561.871	27717.72
562.076	27496.54
562.281	27455.58
562.485	27205.73
562.69	27727.96
562.895	27732.06
563.1	27629.66
563.305	27215.97
563.509	27842.65
563.714	27992.15
563.919	27441.25
564.123	27725.91
564.328	27639.9
564.533	28459.09
564.737	27207.78
564.942	27547.74
565.147	28061.78
565.351	28629.07
565.556	27846.74
565.761	27678.81
565.965	28135.51
566.17	27924.57
566.374	27664.47
566.579	27924.57
566.784	28332.11
566.988	28112.98
567.193	28065.88
567.397	27897.94
567.602	27963.48
567.806	28112.98
568.011	28262.48
568.215	28653.64
568.42	28532.81
568.624	28454.99
568.828	28250.19
569.033	28381.26
569.237	28829.77
569.442	28893.26
569.646	28041.3
569.85	28475.47
570.055	28794.95
570.259	28735.56
570.463	28809.29
570.668	28710.99
570.872	28663.88
571.076	29061.19
571.281	28555.34
571.485	28973.13
571.689	29429.82
571.893	29016.13
572.098	28954.69
572.302	28803.14
572.506	29196.35
572.71	28876.87
572.914	28799.05
573.119	29179.97
573.323	29491.26
573.527	29454.4
573.731	29392.96
573.935	29057.09
574.139	29403.2
574.343	29032.52
574.547	29161.54
574.751	29345.86
574.955	29923.38
575.159	30224.43
575.364	29495.36
575.568	29184.07
575.772	29755.45
575.976	30132.28
576.18	29614.14
576.383	29509.69
576.587	30210.1
576.791	30009.4
576.995	29689.91
577.199	29704.25
577.403	29986.87
577.607	30359.6
577.811	30375.98
578.015	29712.44
578.219	30076.98
578.422	30324.79
578.626	30150.71
578.83	30181.43
579.034	30218.29
579.238	30201.91
579.442	30081.08
579.645	30699.56
579.849	30392.37
580.053	30859.31
580.257	30027.83
580.46	30588.97
580.664	31049.77
580.868	30943.27
581.071	30824.49
581.275	30249.01
581.479	30324.79
581.682	31125.54
581.886	30441.52
582.09	30818.35
582.293	31062.05
582.497	31291.43
582.7	31318.05
582.904	30681.13
583.107	31330.34
583.311	31217.7
583.515	30918.7
583.718	31139.88
583.922	31281.19
584.125	31666.2
584.329	30687.28
584.532	31326.24
584.735	31817.75
584.939	31291.43
585.142	30904.36
585.346	31043.62
585.549	31617.05
585.753	31633.44
585.956	31377.44
586.159	31377.44
586.363	32329.75
586.566	31985.69
586.769	31143.97
586.973	30963.75
587.176	32077.85
587.379	32362.51
587.582	31877.15
587.786	31617.05
587.989	31840.28
588.192	32604.17
588.395	31903.77
588.599	31916.06
588.802	32348.18
589.005	32301.08
589.208	31834.14
589.411	32106.52
589.615	32448.53
589.818	33015.82
590.021	32391.19
590.224	32530.45
590.427	32657.42
590.63	32727.05
590.833	32176.15
591.036	32186.39
591.239	32792.59
591.442	32657.42
591.645	32864.27
591.848	32851.98
592.051	33091.59
592.254	33331.2
592.457	32725
592.66	33026.06
592.863	33118.21
593.066	33136.65
593.269	32849.93
593.472	32813.07
593.675	33257.48
593.878	33153.03
594.081	33089.54
594.284	33204.23
594.486	33435.65
594.689	33986.55
594.892	32911.37
595.095	33021.96
595.298	33468.42
595.5	33744.89
595.703	33701.89
595.906	33820.67
596.109	33796.09
596.311	33957.88
596.514	32976.9
596.717	33898.49
596.92	34207.73
597.122	34025.46
597.325	33540.1
597.528	33820.67
597.73	34729.97
597.933	33896.44
598.136	33798.14
598.338	33564.67
598.541	34670.57
598.743	34777.07
598.946	33855.48
599.148	34461.68
599.351	34207.73
599.554	34662.38
599.756	34244.6
599.959	34498.55
600.161	34504.69
600.363	35078.12
600.566	34351.09
600.768	34201.59
600.971	34820.08
601.173	34504.69
601.376	34684.91
601.578	34390
601.78	34969.58
601.983	34861.04
602.185	34099.19
602.388	34770.93
602.59	35198.95
602.792	34742.25
602.995	34899.95
603.197	34553.84
603.399	35340.26
603.601	35262.44
603.804	34752.49
604.006	34953.19
604.208	34998.25
604.41	34705.39
604.613	35385.32
604.815	34660.34
605.017	35772.38
605.219	34785.26
605.421	34977.77
605.623	35387.36
605.826	36024.28
606.028	35491.81
606.23	34955.24
606.432	35080.17
606.634	35876.83
606.836	35649.5
607.038	34820.08
607.24	35272.68
607.442	35528.67
607.644	35151.85
607.846	35123.18
608.048	35235.81
608.25	35637.22
608.452	35135.46
608.654	35487.71
608.856	34856.94
609.058	35217.38
609.26	35667.94
609.462	35299.3
609.664	35495.91
609.866	35893.21
610.067	35889.12
610.269	35727.33
610.471	35467.23
610.673	35639.26
610.875	35590.11
611.077	35205.09
611.278	35456.99
611.48	35469.28
611.682	36118.49
611.884	35610.59
612.085	35282.92
612.287	35385.32
612.489	35944.41
612.69	35241.96
612.892	36005.85
613.094	35850.2
613.295	35669.98
613.497	35485.67
613.699	35860.44
613.9	36341.72
614.102	36063.19
614.304	35211.24
614.505	34850.8
614.707	35602.4
614.908	35739.61
615.11	35180.52
615.311	36030.43
615.513	35850.2
615.714	36145.11
615.916	35508.19
616.117	35340.26
616.319	35882.97
616.52	35991.51
616.722	35317.73
616.923	35940.32
617.124	36407.25
617.326	35741.66
617.527	36020.19
617.729	36294.61
617.93	36057.05
618.131	36186.07
618.333	35760.09
618.534	36124.63
618.735	35708.9
618.937	36026.33
619.138	35577.83
619.339	35825.63
619.54	36106.2
619.742	36055
619.943	36059.1
620.144	35911.64
620.345	36333.53
620.546	36499.41
620.748	36296.66
620.949	36034.52
621.15	36249.56
621.351	36648.91
621.552	35782.62
621.753	35817.44
621.954	35917.79
622.155	36431.83
622.356	35672.03
622.558	36315.09
622.759	36478.93
622.96	36534.23
623.161	36085.72
623.362	35964.89
623.563	36456.4
623.764	36030.43
623.965	36007.9
624.166	36669.39
624.366	36171.74
624.567	36374.48
624.768	36112.34
624.969	35854.3
625.17	36573.14
625.371	36550.61
625.572	36401.11
625.773	35911.64
625.973	36816.85
626.174	36945.87
626.375	36464.6
626.576	36655.06
626.777	36741.07
626.977	36800.46
627.178	36249.56
627.379	36345.81
627.58	36413.4
627.78	36896.72
627.981	36480.98
628.182	36442.07
628.382	36610
628.583	36452.31
628.784	36388.82
628.984	36317.14
629.185	36794.32
629.386	36851.66
629.586	36454.36
629.787	36292.57
629.987	37027.79
630.188	36773.84
630.388	36792.27
630.589	36782.03
630.79	37382.09
630.99	36882.38
631.191	36763.6
631.391	37212.1
631.591	36978.64
631.792	37279.69
631.992	37230.54
632.193	37142.47
632.393	37515.2
632.594	36933.58
632.794	36798.41
632.994	36761.55
633.195	37230.54
633.395	37007.31
633.595	36825.04
633.796	37068.75
633.996	37142.47
634.196	37244.87
634.397	37181.38
634.597	36962.25
634.797	37103.56
634.997	37775.3
635.198	37154.76
635.398	36667.34
635.598	37337.03
635.798	37736.38
635.998	37238.73
636.199	36749.26
636.399	37339.08
636.599	36976.59
636.799	37437.38
636.999	37404.61
637.199	37132.23
637.399	37883.84
637.599	37066.7
637.799	37257.16
637.999	37185.48
638.199	38375.35
638.399	37242.82
638.599	36999.12
638.799	38037.44
638.999	38471.6
639.199	37904.32
639.399	37720
639.599	38068.16
639.799	37281.74
639.999	37611.46
640.199	37666.75
640.399	37883.84
640.599	36816.85
640.799	38264.76
640.998	38172.6
641.198	37980.09
641.398	37537.73
641.598	37783.49
641.798	37826.49
641.997	38623.15
642.197	37853.12
642.397	37734.34
642.597	37932.99
642.796	38156.22
642.996	38180.79
643.196	37746.62
643.395	37722.05
643.595	38055.87
643.795	38047.68
643.994	37910.46
644.194	38250.42
644.394	38027.2
644.593	38219.7
644.793	38086.59
644.992	38178.75
645.192	38496.18
645.392	37910.46
645.591	38436.79
645.791	38119.35
645.99	38743.98
646.19	38457.27
646.389	38385.59
646.589	38170.55
646.788	38352.82
646.987	38432.69
647.187	38547.38
647.386	38387.64
647.586	38682.55
647.785	38692.79
647.984	38522.8
648.184	38756.27
648.383	38725.55
648.582	38313.91
648.782	38307.77
648.981	38475.7
649.18	38096.83
649.38	39020.46
649.579	38379.45
649.778	38436.79
649.977	38565.81
650.177	38674.35
650.376	38180.79
650.575	38420.41
650.774	39083.95
650.973	38182.84
651.173	38178.75
651.372	38655.92
651.571	39102.38
651.77	39004.08
651.969	38473.65
652.168	38762.42
652.367	38793.14
652.566	38959.02
652.765	38905.77
652.964	38469.56
653.163	39411.62
653.362	39102.38
653.561	38551.48
653.76	38692.79
653.959	38813.62
654.158	39378.86
654.357	39012.27
654.556	38952.88
654.755	39331.75
654.954	39149.48
655.153	38504.37
655.352	38979.5
655.551	39280.55
655.749	39204.78
655.948	38918.06
656.147	39071.66
656.346	39497.64
656.545	39018.41
656.743	38830
656.942	38991.79
657.141	38963.12
657.34	39428.01
657.538	38717.36
657.737	39143.34
657.936	39358.38
658.135	39030.7
658.333	39219.11
658.532	39501.73
658.731	39720.87
658.929	39485.35
659.128	39491.49
659.326	39219.11
659.525	39667.62
659.724	39450.53
659.922	38703.03
660.121	38678.45
660.319	38987.69
660.518	38848.43
660.716	38877.1
660.915	39155.63
661.113	39819.17
661.312	39155.63
661.51	39354.28
661.709	39262.12
661.907	39813.02
662.105	39794.59
662.304	39450.53
662.502	39677.86
662.701	39935.9
662.899	39458.73
663.097	39313.32
663.296	39528.36
663.494	40109.98
663.692	39884.7
663.891	39204.78
664.089	39018.41
664.287	39684
664.485	39636.9
664.684	39284.65
664.882	39534.5
665.08	39595.94
665.278	39794.59
665.476	39200.68
665.675	39700.39
665.873	39876.51
666.071	39974.81
666.269	39165.87
666.467	39137.19
666.665	39495.59
666.863	39010.22
667.061	39557.03
667.259	39143.34
667.457	39255.98
667.655	39643.04
667.853	38813.62
668.051	39159.72
668.249	39247.79
668.447	39479.21
668.645	38883.25
668.843	39456.68
669.041	39741.35
669.239	39126.95
669.437	39274.41
669.635	39356.33
669.833	39120.81
670.031	39692.19
670.229	39112.62
670.426	39194.54
670.624	39454.63
670.822	38944.69
671.02	39118.76
671.218	39645.09
671.415	39458.73
671.613	39341.99
671.811	39137.19
672.009	39026.6
672.206	39757.73
672.404	39215.02
672.602	39161.77
672.799	39380.9
672.997	40114.08
673.195	39755.68
673.392	39501.73
673.59	38713.27
673.788	39481.25
673.985	38301.62
674.183	39436.2
674.38	39096.24
674.578	39485.35
674.775	38801.33
674.973	38367.16
675.17	39227.31
675.368	39522.21
675.565	39671.71
675.763	38561.72
675.96	38907.82
676.158	39438.25
676.355	38467.51
676.553	38981.55
676.75	38905.77
676.947	39321.51
677.145	38926.25
677.342	38758.32
677.539	38811.57
677.737	38987.69
677.934	39061.42
678.131	39067.56
678.329	38909.87
678.526	39278.5
678.723	39298.98
678.92	39040.94
679.118	39036.84
679.315	38467.51
679.512	39612.32
679.709	38621.11
679.906	38653.87
680.104	39405.48
680.301	38676.4
680.498	38492.08
680.695	38287.29
680.892	38270.9
681.089	38469.56
681.286	38821.81
681.483	37877.69
681.68	39217.07
681.877	38684.59
682.075	38068.16
682.272	38322.1
682.469	38604.72
682.665	38324.15
682.862	38121.4
683.059	38348.73
683.256	38162.36
683.453	38541.24
683.65	38424.5
683.847	38320.06
684.044	38416.31
684.241	38348.73
684.438	38266.81
684.635	37971.9
684.831	38639.54
685.028	38780.85
685.225	38033.34
685.422	38242.23
685.619	38438.84
685.815	38123.45
686.012	38057.92
686.209	37486.53
686.405	37996.48
686.602	38668.21
686.799	37357.51
686.996	38264.76
687.192	37767.1
687.389	38330.3
687.586	37963.71
687.782	37652.42
687.979	38748.08
688.175	38379.45
688.372	37832.64
688.568	37879.74
688.765	37803.97
688.962	38621.11
689.158	37881.79
689.355	37539.78
689.551	38100.92
689.748	37767.1
689.944	37648.32
690.14	37693.38
690.337	38125.5
690.533	38205.37
690.73	37355.46
690.926	38133.69
691.123	37609.41
691.319	37687.23
691.515	37609.41
691.712	37531.59
691.908	37889.98
692.104	37742.53
692.301	37971.9
692.497	37269.45
692.693	37971.9
692.889	37593.03
693.086	37232.58
693.282	36939.72
693.478	37421
693.674	38127.55
693.87	37373.89
694.067	36884.43
694.263	37150.67
694.459	37138.38
694.655	37287.88
694.851	37717.95
695.047	37654.47
695.243	37531.59
695.439	37400.52
695.635	36759.5
695.831	37273.54
696.027	37177.29
696.224	36515.79
696.42	37248.97
696.615	37965.76
696.811	37056.46
697.007	36884.43
697.203	36786.13
697.399	37029.83
697.595	37251.02
697.791	36556.75
697.987	37062.6
698.183	36839.37
698.379	36564.95
698.575	36829.13
698.77	36511.7
698.966	36937.68
699.162	37345.22
699.358	36663.25
699.554	36716.5
699.749	37240.78
699.945	36728.78
700.141	36917.2
700.337	36530.13
700.532	36902.86
700.728	36540.37
700.924	36927.44
701.119	36200.41
701.315	36356.05
701.511	36591.57
701.706	36859.85
701.902	36102.11
702.097	36710.35
702.293	36659.15
702.489	36511.7
702.684	36573.14
702.88	36683.73
703.075	36530.13
703.271	35999.71
703.466	36118.49
703.662	36509.65
703.857	36843.47
704.053	36358.1
704.248	36278.23
704.443	36769.74
704.639	36304.85
704.834	36323.29
705.03	36366.29
705.225	36546.51
705.42	36562.9
705.616	36560.85
705.811	35815.39
706.006	36261.85
706.202	36095.96
706.397	35971.04
706.592	36077.53
706.787	36196.31
706.983	36200.41
707.178	36710.35
707.373	36194.26
707.568	36429.78
707.763	36519.89
707.959	35995.61
708.154	36401.11
708.349	35987.42
708.544	36831.18
708.739	35956.7
708.934	35829.73
709.129	36429.78
709.324	36243.41
709.519	36290.52
709.714	36016.09
709.909	36610
710.104	35895.26
710.299	36055
710.494	36020.19
710.689	36419.54
710.884	35837.92
711.079	35803.1
711.274	35803.1
711.469	36145.11
711.664	35952.6
711.859	35799.01
712.054	36032.47
712.249	35915.74
712.443	36220.89
712.638	35518.43
712.833	35239.91
713.028	35839.97
713.223	35213.29
713.417	35637.22
713.612	35788.77
713.807	36184.02
714.002	36421.59
714.196	35831.77
714.391	35233.77
714.586	35618.78
714.78	35485.67
714.975	35272.68
715.17	35096.55
715.364	35301.35
715.559	36061.15
715.754	35063.78
715.948	35022.83
716.143	35794.91
716.337	35622.88
716.532	35651.55
716.726	35061.74
716.921	35680.22
717.115	36034.52
717.31	34648.05
717.504	35938.27
717.699	35131.37
717.893	35205.09
718.088	35184.62
718.282	35209.19
718.476	35182.57
718.671	34924.52
718.865	34641.9
719.059	34947.05
719.254	34981.87
719.448	35295.21
719.642	35983.32
719.837	34066.42
720.031	34793.45
720.225	34988.01
720.419	34934.76
720.614	34746.35
720.808	34920.43
721.002	34414.58
721.196	34326.52
721.39	34181.11
721.585	34938.86
721.779	34715.63
721.973	34482.16
722.167	34250.74
722.361	34500.59
722.555	34924.52
722.749	34238.45
722.943	34336.76
723.137	34164.73
723.331	34668.53
723.525	34332.66
723.719	34125.82
723.913	34463.73
724.107	34791.41
724.301	33869.82
724.495	33961.98
724.689	34420.72
724.883	34469.87
725.077	34172.92
725.271	34336.76
725.465	34488.31
725.659	34226.17
725.853	34277.36
726.046	34029.56
726.24	34287.6
726.434	34316.28
726.628	33796.09
726.822	33806.33
727.015	34844.65
727.209	34293.75
727.403	34131.96
727.596	33898.49
727.79	34342.9
727.984	34332.66
728.177	34281.46
728.371	34117.62
728.565	34553.84
728.758	34119.67
728.952	34009.08
729.146	33792
729.339	34684.91
729.533	34179.06
729.726	33927.16
729.92	33441.79
730.113	34473.97
730.307	34455.54
730.5	34095.1
730.694	33822.72
730.887	33933.31
731.081	34803.69
731.274	33984.51
731.468	33925.11
731.661	33781.76
731.854	34035.7
732.048	33751.04
732.241	33785.85
732.435	34250.74
732.628	34283.51
732.821	33880.06
733.014	33775.61
733.208	33630.21
733.401	34535.41
733.594	33824.76
733.788	33601.54
733.981	34686.96
734.174	33906.68
734.367	33587.2
734.56	34021.37
734.754	34181.11
734.947	33984.51
735.14	33900.54
735.333	34078.71
735.526	34332.66
735.719	33949.69
735.912	33703.93
736.105	33873.92
736.298	33796.09
736.491	33705.98
736.684	33720.32
736.877	33318.92
737.07	33984.51
737.263	34091
737.456	33642.49
737.649	33536
737.842	33617.92
738.035	33648.64
738.228	33083.4
738.421	33499.14
738.614	33998.84
738.807	34220.02
739	33357.83
739.192	32798.73
739.385	33423.36
739.578	33710.08
739.771	33275.91
739.964	32946.19
740.156	34119.67
740.349	33544.19
740.542	33458.18
740.735	33470.47
740.927	33402.88
741.12	33374.21
741.313	33013.77
741.505	33517.57
741.698	33472.51
741.891	33181.7
742.083	33503.23
742.276	32894.99
742.468	33529.86
742.661	32981
742.854	32868.36
743.046	32942.09
743.239	33683.45
743.431	33425.41
743.624	33167.37
743.816	32419.86
744.009	33318.92
744.201	33456.13
744.393	33146.89
744.586	32784.4
744.778	33660.93
744.971	33337.35
745.163	33222.66
745.355	33079.3
745.548	32901.13
745.74	33007.62
745.932	33183.75
746.125	32960.52
746.317	33665.02
746.509	33146.89
746.702	33050.63
746.894	32778.25
747.086	32958.47
747.278	33419.27
747.471	33179.65
747.663	32800.78
747.855	33245.19
748.047	33112.07
748.239	32897.03
748.431	32796.68
748.623	33687.55
748.815	33421.31
749.008	32831.5
749.2	32940.04
749.392	33286.15
749.584	32755.72
749.776	32987.14
749.968	32950.28
750.16	33955.83
750.352	32682
750.544	32638.99
750.736	32741.39
750.928	32927.75
751.12	32624.65
751.311	32481.3
751.503	32890.89
751.695	32757.77
751.887	32518.16
752.079	32362.51
752.271	32006.17
752.463	33230.85
752.654	32675.85
752.846	32389.14
753.038	32088.09
753.23	32245.78
753.421	32446.48
753.613	31803.42
753.805	32638.99
753.997	32262.16
754.188	32501.78
754.38	31922.2
754.572	32208.92
754.763	32262.16
754.955	32331.79
755.146	32036.89
755.338	32290.84
755.53	32223.25
755.721	31688.73
755.913	31856.67
756.104	31645.73
756.296	32090.13
756.487	32206.87
756.679	31852.57
756.87	31682.59
757.062	32032.79
757.253	31797.27
757.445	31680.54
757.636	31524.89
757.827	32116.76
758.019	32411.67
758.21	31471.65
758.401	31584.29
758.593	31997.98
758.784	32006.17
758.975	31356.96
759.167	31197.22
759.358	31698.97
759.549	32131.09
759.74	31352.87
759.932	31135.78
760.123	31692.83
760.314	31299.62
760.505	31092.77
760.696	30703.66
760.888	31694.88
761.079	31285.28
761.27	31246.37
761.461	31252.52
761.652	31524.89
761.843	30812.2
762.034	31064.1
762.225	30879.78
762.416	31156.26
762.607	30715.95
762.798	30685.23
762.989	30375.98
763.18	31524.89
763.371	30560.3
763.562	30525.49
763.753	30613.55
763.944	30988.33
764.135	30861.35
764.326	30496.81
764.517	30472.24
764.708	30558.25
764.899	30588.97
765.089	30193.72
765.28	30380.08
765.471	30806.06
765.662	30441.52
765.853	29999.16
766.043	29841.46
766.234	30646.32
766.425	30341.17
766.615	29863.99
766.806	29794.36
766.997	30441.52
767.187	29923.38
767.378	29974.58
767.569	29601.85
767.759	30124.08
767.95	30212.15
768.141	29857.85
768.331	29777.98
768.522	29941.82
768.712	29868.09
768.903	29698.11
769.093	29515.84
769.284	30277.68
769.474	29542.46
769.665	29204.55
769.855	29100.1
770.046	30001.21
770.236	29626.43
770.426	29478.97
770.617	29124.68
770.807	29667.39
770.998	29446.21
771.188	29454.4
771.378	28825.67
771.569	29841.46
771.759	29489.21
771.949	28862.54
772.139	29030.47
772.33	28788.81
772.52	29720.63
772.71	28985.41
772.9	28743.75
773.09	29175.87
773.281	29335.62
773.471	28467.28
773.661	28737.61
773.851	28715.08
774.041	28641.35
774.231	28508.24
774.421	28764.23
774.611	28919.88
774.802	28678.22
774.992	28442.7
775.182	28452.94
775.372	28784.71
775.562	28721.23
775.752	28688.46
775.942	28272.72
776.131	28987.46
776.321	28252.24
776.511	28160.08
776.701	28182.61
776.891	28450.89
777.081	28188.75
777.271	28018.77
777.461	28215.38
777.651	28131.41
777.84	28414.03
778.03	27877.46
778.22	27785.3
778.41	28031.06
778.599	27887.7
778.789	27848.79
778.979	28176.47
779.169	28297.3
779.358	28123.22
779.548	27766.87
779.738	27467.87
779.927	28106.84
780.117	27828.31
780.307	27605.08
780.496	27240.54
780.686	27979.86
780.875	28143.7
781.065	27490.4
781.254	27414.62
781.444	27719.77
781.633	27904.09
781.823	27304.03
782.012	27342.94
782.202	27338.85
782.391	27312.22
782.581	26759.27
782.77	27431.01
782.96	27762.78
783.149	27144.29
783.338	27072.61
783.528	26902.63
783.717	27414.62
783.906	27590.75
784.096	26878.05
784.285	26652.78
784.474	27117.67
784.663	26816.61
784.853	26554.47
785.042	26849.38
785.231	26951.78
785.42	26828.9
785.61	26359.92
785.799	26329.2
785.988	26826.85
786.177	26806.37
786.366	26617.96
786.555	26583.15
786.744	26816.61
786.933	26482.8
787.122	26605.67
787.312	26411.12
787.501	26486.89
787.69	26585.19
787.879	26421.36
788.068	26384.49
788.257	25921.65
788.445	26572.91
788.634	26650.73
788.823	26099.83
789.012	26845.29
789.201	26300.53
789.39	26259.57
789.579	26019.95
789.768	26304.62
789.957	26617.96
790.145	26030.19
790.334	25854.07
790.523	25956.47
790.712	26040.43
790.9	25546.87
791.089	25725.05
791.278	26407.02
791.467	25550.97
791.655	26054.77
791.844	26171.5
792.033	25598.07
792.221	25659.51
792.41	25630.84
792.599	25104.51
792.787	25874.55
792.976	26040.43
793.164	25211.01
793.353	25702.52
793.541	25890.93
793.73	25784.44
793.918	25618.55
794.107	25276.54
794.295	25311.36
794.484	25536.63
794.672	25446.52
794.861	24948.87
795.049	25665.66
795.238	25888.88
795.426	25270.4
795.614	25043.07
795.803	25438.33
795.991	25792.63
796.179	25116.8
796.368	25024.64
796.556	25301.12
796.744	24770.69
796.932	24778.89
797.121	24844.42
797.309	24995.97
797.497	25536.63
797.685	25041.03
797.874	25198.72
798.062	25041.03
798.25	25245.82
798.438	24924.29
798.626	24957.06
798.814	25530.49
799.002	25895.03
799.19	25084.03
799.378	24998.02
799.566	25106.56
799.755	25307.26
799.943	24944.77
800.131	24850.56
800.318	24901.76
800.506	25026.69
800.694	24844.42
800.882	24762.5
801.07	25063.55
801.258	24979.59
801.446	24860.8
801.634	24737.93
801.822	25241.73
802.01	25356.41
802.197	24950.92
802.385	25165.95
802.573	24971.39
802.761	24733.83
802.949	24893.57
803.136	24991.87
803.324	25456.76
803.512	25292.93
803.699	24864.9
803.887	24809.61
804.075	25286.78
804.262	24723.59
804.45	24707.21
804.638	25198.72
804.825	25174.14
805.013	24709.25
805.201	25088.13
805.388	24897.67
805.576	25430.14
805.763	25624.7
805.951	25178.24
806.138	25223.3
806.326	25673.85
806.513	25528.44
806.701	25108.61
806.888	25219.2
807.075	25469.05
807.263	25780.34
807.45	24881.28
807.638	25096.32
807.825	25890.93
808.012	25473.15
808.2	25202.82
808.387	25151.62
808.574	25768.05
808.761	25641.08
808.949	25282.69
809.136	25434.24
809.323	25487.48
809.51	25641.08
809.698	25614.46
809.885	25618.55
810.072	25876.6
810.259	25761.91
810.446	25284.73
810.633	25249.92
810.82	25823.35
811.008	25733.24
811.195	25657.46
811.382	25753.72
811.569	25493.63
811.756	25051.27
811.943	25262.21
812.13	25313.41
812.317	25399.42
812.504	25503.87
812.691	25540.73
812.878	25604.22
813.064	25948.28
813.251	25426.04
813.438	25380.99
813.625	25454.72
813.812	25432.19
813.999	25657.46
814.186	25243.77
814.372	25454.72
814.559	25624.7
814.746	25585.79
814.933	25159.81
815.12	25694.33
815.306	25546.87
815.493	25403.52
815.68	25643.13
815.866	25227.39
816.053	26048.63
816.24	25921.65
816.426	25606.27
816.613	25034.88
816.799	25669.75
816.986	25925.75
817.173	25245.82
817.359	25215.1
817.546	25456.76
817.732	24979.59
817.919	25241.73
818.105	25645.18
818.292	25428.09
818.478	25718.9
818.665	25284.73
818.851	25383.04
819.037	25806.97
819.224	25276.54
819.41	25176.19
819.597	24922.24
819.783	25696.38
819.969	25778.29
820.156	25084.03
820.342	25122.94
820.528	25712.76
820.714	25094.27
820.901	25297.02
821.087	25090.18
821.273	25964.66
821.459	25276.54
821.646	24936.58
821.832	25120.9
822.018	25294.97
822.204	25030.79
822.39	24885.38
822.576	24817.8
822.762	25129.09
822.948	24715.4
823.134	24850.56
823.32	24961.16
823.507	24410.25
823.693	25028.74
823.879	25215.1
824.065	24457.35
824.25	24907.91
824.436	24465.55
824.622	24709.25
824.808	24506.51
824.994	24535.18
825.18	24324.24
825.366	24191.12
825.552	24260.75
825.738	24539.27
825.923	24637.58
826.109	24635.53
826.295	24227.98
826.481	24266.89
826.667	24561.8
826.852	23994.51
827.038	24105.1
827.224	24711.3
827.409	25084.03
827.595	24193.17
827.781	24486.03
827.966	24682.63
828.152	24649.86
828.338	24318.09
828.523	23750.81
828.709	24080.53
828.894	24533.13
829.08	24105.1
829.266	24041.62
829.451	23869.59
829.637	24395.92
829.822	24002.71
830.008	23527.58
830.193	24309.9
830.378	24340.62
830.564	23953.55
830.749	23306.4
830.935	24017.04
831.12	24027.28
831.305	23830.68
831.491	23924.88
831.676	23781.53
831.861	24246.41
832.047	23589.02
832.232	23261.34
832.417	23861.4
832.602	23648.41
832.788	23443.61
832.973	23322.78
833.158	23855.25
833.343	23808.15
833.528	23568.54
833.714	23476.38
833.899	23826.58
834.084	23988.37
834.269	23380.12
834.454	23318.68
834.639	23494.81
834.824	23654.55
835.009	23199.9
835.194	23263.39
835.379	23701.65
835.564	23578.78
835.749	23122.08
835.934	23167.13
836.119	23476.38
836.304	23255.2
836.489	22958.24
836.674	23363.74
836.859	22902.95
837.044	23312.54
837.228	23079.07
837.413	23185.57
837.598	23525.53
837.783	23290.01
837.968	23011.49
838.152	22569.13
838.337	22454.44
838.522	23124.13
838.707	23117.98
838.891	22864.04
839.076	23054.5
839.261	23249.05
839.445	22689.96
839.63	22626.47
839.815	22800.55
839.999	22257.84
840.184	22442.15
840.368	22550.7
840.553	22823.08
840.737	22829.22
840.922	22153.39
841.106	22182.06
841.291	22259.88
841.475	22728.87
841.66	22249.64
841.844	22194.35
842.029	23265.44
842.213	22286.51
842.397	22124.72
842.582	22040.75
842.766	22702.25
842.951	22575.27
843.135	22331.56
843.319	21924.02
843.504	22337.71
843.688	22569.13
843.872	21696.69
844.056	21977.26
844.241	22235.31
844.425	21897.39
844.609	21708.98
844.793	21848.24
844.977	22014.13
845.161	21971.12
845.346	21641.4
845.53	21854.39
845.714	22036.66
845.898	22259.88
846.082	21225.66
846.266	21668.02
846.45	21971.12
846.634	22108.33
846.818	21317.82
847.002	21463.22
847.186	21803.19
847.37	21407.93
847.554	21166.27
847.738	21602.49
847.922	21827.76
848.106	21579.96
848.29	21061.82
848.473	21332.15
848.657	21518.52
848.841	21348.54
849.025	21151.93
849.209	20906.18
849.392	21311.67
849.576	21444.79
849.76	20521.16
849.944	21321.91
850.127	21448.89
850.311	20850.88
850.495	21016.77
850.678	20760.77
850.862	21831.86
851.046	21313.72
851.229	20971.71
851.413	20396.23
851.596	20803.78
851.78	21188.8
851.964	20773.06
852.147	20416.71
852.331	21711.03
852.514	21084.35
852.698	20654.28
852.881	20418.76
853.065	20828.35
853.248	20822.21
853.431	20762.82
853.615	20205.77
853.798	21340.35
853.982	20730.05
854.165	20601.03
854.348	20205.77
854.532	20328.65
854.715	20338.89
854.898	20218.06
855.081	20111.57
855.265	21074.11
855.448	21072.06
855.631	20265.16
855.814	20064.46
855.997	20582.6
856.181	20240.59
856.364	20275.4
856.547	19814.61
856.73	20056.27
856.913	20334.79
857.096	19925.2
857.279	20283.59
857.462	19843.28
857.645	20230.35
857.828	19984.59
858.011	20068.56
858.194	19884.24
858.377	20361.42
858.56	19544.28
858.743	19667.16
858.926	19773.65
859.109	20091.09
859.292	19470.55
859.475	19552.47
859.658	20230.35
859.841	19699.92
860.023	19302.62
860.206	19284.19
860.389	19796.18
860.572	19904.72
860.755	19179.74
860.937	19613.91
861.12	19615.96
861.303	19642.58
861.486	19204.31
861.668	19017.95
861.851	19589.33
862.034	19368.15
862.216	19196.12
862.399	18526.44
862.581	19269.85
862.764	19478.74
862.947	18999.52
863.129	19110.11
863.312	18839.78
863.494	19474.65
863.677	19106.01
863.859	18579.68
864.042	19044.57
864.224	19339.48
864.406	18944.22
864.589	18454.76
864.771	19073.24
864.954	18708.71
865.136	18501.86
865.318	18256.11
865.501	18692.32
865.683	18374.89
865.865	18637.03
866.048	18368.74
866.23	18696.42
866.412	18632.93
866.594	18184.43
866.777	18714.85
866.959	18768.1
867.141	18344.17
867.323	18385.13
867.505	18497.77
867.687	18563.3
867.869	18452.71
868.052	18348.26
868.234	18133.23
868.416	18372.84
868.598	18798.82
868.78	18028.78
868.962	18262.25
869.144	18698.47
869.326	18415.85
869.508	17920.24
869.69	17852.66
869.872	18266.35
870.054	18727.14
870.236	18077.93
870.417	18016.49
870.599	18202.86
870.781	18811.1
870.963	18133.23
871.145	18106.6
871.327	18178.28
871.508	18213.1
871.69	18077.93
871.872	18059.5
872.054	18225.39
872.235	18499.81
872.417	17953.01
872.599	17516.79
872.78	18815.2
872.962	18092.27
873.144	17711.35
873.325	17678.58
873.507	18510.05
873.689	18344.17
873.87	17674.48
874.052	18014.45
874.233	17897.71
874.415	18309.35
874.596	17942.77
874.778	17764.59
874.959	18004.21
875.141	18407.66
875.322	17942.77
875.503	17680.63
875.685	18241.77
875.866	17582.32
876.048	17766.64
876.229	17828.08
876.41	17697.01
876.592	18389.22
876.773	18034.92
876.954	17709.3
877.136	18669.8
877.317	17764.59
877.498	17539.32
877.679	17842.42
877.86	18321.64
878.042	17950.96
878.223	17776.88
878.404	18047.21
878.585	18307.3
878.766	18444.52
878.947	18452.71
879.128	18321.64
879.309	18301.16
879.49	18505.96
879.672	18022.64
879.853	18235.63
880.034	18307.3
880.215	18280.68
880.396	18321.64
880.576	18209
880.757	18252.01
880.938	18522.34
881.119	18301.16
881.3	18082.03
881.481	18538.73
881.662	19185.88
881.843	18149.61
882.023	18120.94
882.204	18381.03
882.385	18610.4
882.566	18528.49
882.747	18252.01
882.927	18624.74
883.108	18669.8
883.289	18565.35
883.469	18856.16
883.65	18686.18
883.831	19108.06
884.011	18718.95
884.192	18940.13
884.373	19083.48
884.553	19009.76
884.734	18995.42
884.914	19112.16
885.095	19417.3
885.275	19693.78
885.456	19308.76
885.636	18739.43
885.817	19218.65
885.997	18944.22
886.178	18966.75
886.358	18776.29
886.538	19077.34
886.719	19990.73
886.899	18929.89
887.08	19138.78
887.26	19624.15
887.44	18708.71
887.621	18684.13
887.801	18929.89
887.981	20062.41
888.161	19351.77
888.342	19251.42
888.522	19349.72
888.702	19511.51
888.882	20000.97
889.062	19630.29
889.242	19083.48
889.423	20160.72
889.603	19349.72
889.783	19200.22
889.963	19192.03
890.143	19167.45
890.323	19665.11
890.503	19118.3
890.683	18974.94
890.863	19488.98
891.043	19521.75
891.223	19024.09
891.403	19542.23
891.583	19321.05
891.763	19747.03
891.943	18999.52
892.122	19022.05
892.302	19343.58
892.482	18991.33
892.662	19232.99
892.842	19189.98
893.022	19319
893.201	19171.55
893.381	19302.62
893.561	18938.08
893.741	19556.57
893.92	19280.09
894.1	19067.1
894.28	19108.06
894.459	19198.17
894.639	19103.96
894.819	18940.13
894.998	19126.49
895.178	19425.5
895.357	19271.9
895.537	18739.43
895.716	18757.86
895.896	19020
896.075	19175.64
896.255	18827.49
896.434	18505.96
896.614	19591.38
896.793	19327.19
896.973	18886.88
897.152	18692.32
897.331	19218.65
897.511	19198.17
897.69	18548.96
897.87	18764
898.049	18989.28
898.228	19034.33
898.407	18600.16
898.587	18720.99
898.766	18610.4
898.945	18610.4
899.124	18417.89
899.304	18522.34
899.483	18632.93
899.662	18888.93
899.841	18174.19
900.02	18137.32
900.199	18729.19
900.378	18594.02
900.557	18217.19
900.737	17819.89
900.916	18591.97
901.095	18587.88
901.274	17879.28
901.453	17678.58
901.632	17750.26
901.811	17860.85
901.989	17443.06
902.168	17537.27
902.347	18180.33
902.526	17778.93
902.705	17219.83
902.884	17576.18
903.063	18206.95
903.242	17709.3
903.42	16906.49
903.599	17355
903.778	17606.9
903.957	17639.67
904.135	17426.68
904.314	16724.22
904.493	17211.64
904.672	17094.91
904.85	16709.89
905.029	16722.18
905.207	17029.37
905.386	17299.7
905.565	16404.74
905.743	16273.67
905.922	16679.17
906.1	16728.32
906.279	16085.26
906.457	16138.51
906.636	16474.37
906.814	16126.22
906.993	15845.65
907.171	16105.74
907.35	16273.67
907.528	16466.18
907.707	16206.09
907.885	15560.98
908.063	16318.73
908.242	15782.16
908.42	15421.72
908.598	15538.45
908.777	15939.85
908.955	15556.88
909.133	15784.21
909.311	15454.48
909.49	15755.54
909.668	15665.42
909.846	15472.92
910.024	15180.06
910.202	15810.83
910.38	15839.5
910.559	15591.7
910.737	15690
910.915	16232.71
911.093	16398.6
911.271	15874.32
911.449	16191.75
911.627	16060.68
911.805	16466.18
911.983	15958.28
912.161	16017.68
912.339	16169.23
912.517	16474.37
912.695	16126.22
912.872	16011.53
913.05	16158.99
913.228	16572.68
913.406	15984.91
913.584	16173.32
913.762	16277.77
913.939	16359.69
914.117	16089.35
914.295	16025.87
914.473	16402.69
914.65	16619.78
914.828	16021.77
915.006	16158.99
915.184	16107.79
915.361	16302.34
915.539	16232.71
915.716	16390.41
915.894	16371.97
916.072	16619.78
916.249	15898.89
916.427	16189.7
916.604	16146.7
916.782	16079.11
916.959	15694.1
917.137	16093.45
917.314	16283.91
917.492	16021.77
917.669	15823.12
917.847	15728.91
918.024	16085.26
918.201	15773.97
918.379	15692.05
918.556	15669.52
918.733	16201.99
918.911	15909.13
919.088	15882.51
919.265	15696.14
919.442	15841.55
919.62	15716.62
919.797	15542.55
919.974	15212.82
920.151	15835.41
920.328	15812.88
920.506	15374.61
920.683	15624.47
920.86	15212.82
921.037	15427.86
921.214	15513.88
921.391	15405.33
921.568	15814.93
921.745	15276.31
921.922	15474.96
922.099	15077.66
922.276	15659.28
922.453	15511.83
922.63	15356.18
922.807	15300.89
922.984	15282.45
923.161	14905.63
923.338	15253.78
923.514	14995.74
923.691	15405.33
923.868	15302.93
924.045	14911.77
924.222	14928.16
924.399	15036.7
924.575	15261.98
924.752	14772.51
924.929	14813.47
925.105	14928.16
925.282	14737.7
925.459	14430.5
925.635	14373.16
925.812	14756.13
925.989	14807.33
926.165	14672.16
926.342	14283.05
926.518	14332.2
926.695	14690.59
926.871	14334.25
927.048	14457.12
927.224	14690.59
927.401	14317.86
927.577	14156.07
927.754	14076.2
927.93	14463.27
928.107	14428.45
928.283	13977.9
928.459	14004.52
928.636	14364.96
928.812	13875.5
928.988	13603.12
929.165	13586.74
929.341	13779.25
929.517	13828.4
929.693	13836.59
929.87	13175.09
930.046	13789.49
930.222	13359.41
930.398	13412.66
930.574	13455.67
930.751	13459.76
930.927	13181.24
931.103	13283.64
931.279	13146.42
931.455	13058.36
931.631	13093.18
931.807	12804.41
931.983	12812.6
932.159	12626.24
932.335	12933.43
932.511	13103.42
932.687	12849.47
932.863	12998.97
933.039	12734.78
933.215	12562.75
933.391	12233.03
933.566	12374.34
933.742	12276.04
933.918	12071.24
934.094	11874.63
934.27	12175.69
934.445	12083.53
934.621	12013.9
934.797	11458.9
934.973	11891.02
935.148	12001.61
935.324	11397.46
935.5	10889.56
935.675	11538.77
935.851	11245.91
936.027	10830.17
936.202	11018.58
936.378	10916.19
936.553	10807.64
936.729	10729.82
936.904	10150.25
937.08	10328.42
937.255	9849.19
937.431	9550.19
937.606	9453.94
937.782	9556.33
937.957	9892.2
938.133	9281.91
938.308	9140.6
938.483	9302.39
938.659	9165.17
938.834	8884.6
939.009	8614.27
939.185	8857.98
939.36	8397.18
939.535	8026.5
939.71	8511.87
939.886	8501.63
940.061	8483.2
940.236	8204.67
940.411	8024.45
940.586	8188.29
940.761	8225.15
940.937	7901.58
941.112	7563.66
941.287	7729.55
941.462	7651.72
941.637	7598.48
941.812	7569.8
941.987	7897.48
942.162	7805.32
942.337	7426.45
942.512	7147.92
942.687	7743.88
942.862	7616.91
943.037	7072.15
943.212	7072.15
943.386	7350.67
943.561	7528.85
943.736	7375.25
943.911	7242.13
944.086	7215.51
944.26	7262.61
944.435	7070.1
944.61	7264.66
944.785	7584.14
944.959	7680.39
945.134	7078.29
945.309	7010.71
945.483	7010.71
945.658	7371.15
945.833	6779.29
946.007	6885.78
946.182	7688.59
946.357	6879.64
946.531	6984.09
946.706	7068.05
946.88	6832.54
947.055	7336.34
947.229	6977.94
947.404	6979.99
947.578	7594.38
947.752	7135.64
947.927	7098.77
948.101	6891.93
948.276	7362.96
948.45	7342.48
948.624	7319.95
948.799	7125.4
948.973	7430.54
949.147	7143.83
949.321	7485.84
949.496	7283.09
949.67	7895.43
949.844	7604.62
950.018	7344.53
950.193	7420.3
950.367	8096.13
950.541	7571.85
950.715	7276.94
950.889	7561.61
951.063	7543.18
951.237	7936.39
951.411	7233.94
951.585	7422.35
951.759	7874.95
951.933	7692.68
952.107	7487.89
952.281	7901.58
952.455	8077.7
952.629	8046.98
952.803	7719.31
952.977	7575.95
953.151	8278.4
953.325	8133
953.499	7756.17
953.672	7565.71
953.846	7877
954.02	7995.78
954.194	7864.71
954.368	7764.36
954.541	8270.21
954.715	8008.07
954.889	7995.78
955.062	7715.21
955.236	8147.33
955.41	8106.37
955.583	7979.4
955.757	7672.2
955.93	7895.43
956.104	7989.64
956.278	7946.63
956.451	8063.36
956.625	8022.41
956.798	8665.47
956.972	8264.07
957.145	7891.34
957.319	8180.1
957.492	8165.76
957.665	8216.96
957.839	7895.43
958.012	8423.81
958.185	8120.71
958.359	8046.98
958.532	8116.61
958.705	8327.55
958.879	8434.05
959.052	8143.24
959.225	7725.45
959.398	8472.96
959.572	8167.81
959.745	7952.77
959.918	8216.96
960.091	8137.09
960.264	8448.38
960.438	8010.12
960.611	7907.72
960.784	8503.68
960.957	8294.79
961.13	8526.21
961.303	7946.63
961.476	8192.39
961.649	8159.62
961.822	7782.79
961.995	8073.6
962.168	8397.18
962.341	8151.43
962.514	7958.92
962.686	7981.45
962.859	8292.74
963.032	8356.22
963.205	8028.55
963.378	7934.34
963.551	8419.71
963.723	8294.79
963.896	8069.51
964.069	8188.29
964.242	8276.35
964.414	8401.28
964.587	8038.79
964.76	7999.88
964.932	8231.3
965.105	7987.59
965.278	7934.34
965.45	7774.6
965.623	8167.81
965.795	8262.02
965.968	7762.31
966.14	7860.62
966.313	8112.52
966.485	8098.18
966.658	7758.22
966.83	7809.42
967.003	8485.25
967.175	8188.29
967.348	8044.93
967.52	7836.04
967.692	8446.34
967.865	8239.49
968.037	7821.7
968.209	8063.36
968.382	7942.53
968.554	8182.15
968.726	7850.38
968.898	7850.38
969.071	8030.6
969.243	8155.52
969.415	7868.81
969.587	7895.43
969.759	8429.95
969.932	8141.19
970.104	7833.99
970.276	7367.06
970.448	7958.92
970.62	7672.2
970.792	7713.16
970.964	7731.59
971.136	8292.74
971.308	7893.38
971.48	7594.38
971.652	7295.38
971.824	8212.87
971.996	7459.21
972.168	7565.71
972.339	7582.09
972.511	7811.46
972.683	7469.45
972.855	7643.53
973.027	7385.49
973.199	7866.76
973.37	7678.35
973.542	7543.18
973.714	7481.74
973.886	7582.09
974.057	7756.17
974.229	7246.23
974.401	7451.02
974.572	7262.61
974.744	7176.59
974.915	7215.51
975.087	7121.3
975.259	7938.44
975.43	7467.41
975.602	7231.89
975.773	6982.04
975.945	7168.4
976.116	7426.45
976.288	7029.14
976.459	7184.79
976.63	7066
976.802	7360.91
976.973	7154.07
977.145	6945.17
977.316	7666.06
977.487	7385.49
977.659	7135.64
977.83	6967.7
978.001	7512.46
978.172	7205.27
978.344	6869.4
978.515	6998.42
978.686	6916.5
978.857	7354.77
979.028	6908.31
979.2	6764.95
979.371	7164.31
979.542	7004.57
979.713	6902.17
979.884	6486.43
980.055	6762.9
980.226	6834.58
980.397	6941.08
980.568	6660.51
980.739	7172.5
980.91	6881.69
981.081	6783.38
981.252	6683.03
981.423	7029.14
981.594	6906.26
981.765	6646.17
981.936	6574.49
982.106	6814.1
982.277	6914.45
982.448	6480.29
982.619	6666.65
982.79	6623.64
982.96	6779.29
983.131	6549.92
983.302	6236.58
983.472	6435.23
983.643	6666.65
983.814	6564.25
983.984	6312.35
984.155	6607.26
984.326	6920.6
984.496	6326.69
984.667	6177.19
984.837	6336.93
985.008	6586.78
985.178	6365.6
985.349	6185.38
985.519	6402.46
985.69	6216.1
985.86	6078.88
986.031	6013.35
986.201	6269.34
986.371	6357.41
986.542	6017.44
986.712	5853.61
986.882	6345.12
987.053	6318.5
987.223	5956.01
987.393	5908.9
987.563	6107.55
987.734	6222.24
987.904	6404.51
988.074	5806.5
988.244	6089.12
988.414	5788.07
988.585	5839.27
988.755	5831.08
988.925	5865.89
989.095	6414.75
989.265	5628.33
989.435	5847.46
989.605	6107.55
989.775	5890.47
989.945	5906.85
990.115	5530.03
990.285	5845.41
990.455	5890.47
990.625	5677.48
990.795	5421.49
990.965	6070.69
991.134	5583.27
991.304	5360.05
991.474	5353.9
991.644	5826.98
991.814	5966.24
991.984	5349.81
992.153	5286.32
992.323	5681.58
992.493	5527.98
992.662	5210.54
992.832	5362.09
993.002	5579.18
993.171	5417.39
993.341	4956.6
993.511	5308.85
993.68	5304.75
993.85	5456.3
994.019	4938.16
994.189	5042.61
994.358	5429.68
994.528	5153.2
994.697	4649.4
994.867	5011.89
995.036	5501.36
995.206	5216.69
995.375	4950.45
995.544	5030.32
995.714	5142.96
995.883	4985.27
996.052	5001.65
996.222	4544.95
996.391	5497.26
996.56	5087.67
996.73	4747.7
996.899	4714.94
997.068	5517.74
997.237	5013.94
997.406	4727.22
997.576	4620.73
997.745	4972.98
997.914	5030.32
998.083	4399.55
998.252	4590.01
998.421	4882.87
998.59	4682.17
998.759	4489.66
998.928	4383.17
999.097	5149.11
999.266	4825.53
999.435	4532.67
999.604	4182.46
999.773	5282.22
999.942	4637.11
1000.111	4161.98
1000.28	4342.21
1000.448	4374.97
1000.617	4604.35
1000.786	4442.56
1000.955	4268.48
1001.124	4655.54
1001.292	5284.27
1001.461	4182.46
1001.63	4229.57
1001.798	4815.29
1001.967	4827.57
1002.136	3905.99
1002.304	4080.07
1002.473	4463.04
1002.642	4379.07
1002.81	4252.1
1002.979	4123.07
1003.147	4524.47
1003.316	4870.58
1003.484	4186.56
1003.653	3895.75
1003.821	4547
1003.99	4293.05
1004.158	4084.16
1004.327	4078.02
1004.495	4342.21
1004.663	3922.37
1004.832	4088.26
1005	3727.82
1005.168	4231.62
1005.337	4125.12
1005.505	3666.38
1005.673	3912.13
1005.842	4258.24
1006.01	4213.18
1006.178	3756.49
1006.346	3736.01
1006.514	3973.57
1006.683	4139.46
1006.851	3600.84
1007.019	3875.27
1007.187	3588.55
1007.355	3424.72
1007.523	3471.82
1007.691	3394
1007.859	3410.38
1008.027	4200.9
1008.195	3639.75
1008.363	3236.3
1008.531	4049.35
1008.699	3553.74
1008.867	3291.6
1009.035	3375.56
1009.203	3848.65
1009.37	3731.91
1009.538	3260.88
1009.706	3807.69
1009.874	3684.81
1010.042	3676.62
1010.209	3238.35
1010.377	3213.77
1010.545	3776.97
1010.713	3574.22
1010.88	3303.89
1011.048	3346.89
1011.216	3494.35
1011.383	3840.45
1011.551	3174.86
1011.718	3133.9
1011.886	3744.2
1012.054	3465.68
1012.221	2939.35
1012.389	3215.82
1012.556	3318.22
1012.724	3910.08
1012.891	3080.66
1013.058	2953.68
1013.226	3469.77
1013.393	3373.52
1013.561	2851.28
1013.728	2798.04
1013.895	3355.08
1014.063	3226.06
1014.23	2832.85
1014.397	2914.77
1014.565	3338.7
1014.732	3312.08
1014.899	2781.65
1015.066	2779.61
1015.233	3166.67
1015.401	3264.97
1015.568	2802.13
1015.735	2820.56
1015.902	2939.35
1016.069	3043.79
1016.236	2722.26
1016.403	2654.68
1016.57	2787.8
1016.737	3133.9
1016.904	2669.02
1017.071	2525.66
1017.238	2795.99
1017.405	3092.94
1017.572	2705.88
1017.739	2740.69
1017.906	2865.62
1018.073	3056.08
1018.24	2290.14
1018.407	2484.7
1018.573	3074.51
1018.74	2818.52
1018.907	2437.59
1019.074	2380.25
1019.241	2963.92
1019.407	2646.49
1019.574	2378.2
1019.741	2220.51
1019.907	2716.12
1020.074	2761.17
1020.241	2152.93
1020.407	2157.02
1020.574	2814.42
1020.74	2773.46
1020.907	2388.44
1021.073	2292.19
1021.24	3197.39
1021.406	2961.87
1021.573	2249.18
1021.739	2327
1021.906	2798.04
1022.072	2429.4
1022.239	2146.78
1022.405	2222.56
1022.571	2648.54
1022.738	2347.48
1022.904	2032.1
1023.07	2179.55
1023.237	2531.8
1023.403	2742.74
1023.569	1968.61
1023.735	2159.07
1023.902	2496.99
1024.068	2560.47
1024.234	1948.13
1024.4	2077.15
1024.566	2396.64
1024.732	2443.74
1024.898	2120.16
1025.065	1825.25
1025.231	2392.54
1025.397	2124.26
1025.563	2040.29
1025.729	1966.56
1025.895	1849.83
1026.061	2171.36
1026.227	1716.71
1026.392	1929.7
1026.558	2560.47
1026.724	2296.28
1026.89	1876.45
1027.056	1884.64
1027.222	2238.94
1027.388	2036.19
1027.553	1874.4
1027.719	1806.82
1027.885	2482.65
1028.051	2273.76
1028.216	1688.04
1028.382	1866.21
1028.548	2523.61
1028.713	1952.23
1028.879	1712.61
1029.045	1880.55
1029.21	2398.68
1029.376	2316.76
1029.541	1743.33
1029.707	1729
1029.873	2273.76
1030.038	2290.14
1030.204	1634.79
1030.369	1706.47
1030.534	2257.37
1030.7	1931.75
1030.865	1792.48
1031.031	1597.93
1031.196	2103.78
1031.361	1886.69
1031.527	1556.97
1031.692	1585.64
1031.857	1534.44
1032.023	2044.38
1032.188	1538.54
1032.353	1542.63
1032.518	2251.23
1032.684	1933.79
1032.849	1401.32
1033.014	1544.68
1033.179	2032.1
1033.344	1980.9
1033.509	1632.74
1033.674	1554.92
1033.839	1968.61
1034.004	2109.92
1034.17	1491.43
1034.335	1401.32
1034.5	1769.96
1034.664	1724.9
1034.829	1425.9
1034.994	1479.15
1035.159	1837.54
1035.324	1874.4
1035.489	1530.34
1035.654	1397.23
1035.819	1982.95
1035.984	1788.39
1036.148	1505.77
1036.313	1401.32
1036.478	1972.71
1036.643	1638.89
1036.807	1411.56
1036.972	1292.78
1037.137	1931.75
1037.301	1720.81
1037.466	1145.33
1037.631	1319.4
1037.795	1989.09
1037.96	1546.73
1038.124	1403.37
1038.289	1214.96
1038.454	1769.96
1038.618	1839.59
1038.783	1278.44
1038.947	1327.6
1039.111	1696.23
1039.276	1565.16
1039.44	1190.38
1039.605	1651.17
1039.769	1577.45
1039.933	1489.39
1040.098	1348.08
1040.262	1380.84
1040.426	1792.48
1040.591	1751.53
1040.755	1110.51
1040.919	1092.08
1041.083	1548.78
1041.248	1442.28
1041.412	938.48
1041.576	1040.88
1041.74	1456.62
1041.904	1726.95
1042.068	1032.69
1042.232	1188.33
1042.397	1706.47
1042.561	1507.82
1042.725	868.85
1042.889	1249.77
1043.053	1634.79
1043.217	1638.89
1043.381	1227.25
1043.544	924.15
1043.708	1645.03
1043.872	1180.14
1044.036	686.58
1044.2	901.62
1044.364	1620.46
1044.528	1753.57
1044.691	3860.93
1044.855	803.32
1045.019	1651.17
1045.183	1538.54
1045.346	1008.11
1045.51	932.34
1045.674	1362.41
1045.837	1460.71
1046.001	1001.97
1046.165	1014.26
1046.328	1745.38
1046.492	1427.95
1046.655	1202.67
1046.819	979.44
1046.983	1182.19
1047.146	1432.04
1047.31	1016.3
1047.473	803.32
1047.636	1270.25
1047.8	1079.79
1047.963	965.11
1048.127	809.46
1048.29	1077.74
