Data from Hydrogel_Ink_Intensity_Test_1_USB4F045381__16__00016.txt Node

Date: Mon Jul 31 10:38:30 EDT 2023
User: mmckonesweet
Spectrometer: USB4F04538
Trigger mode: 4
Integration Time (sec): 9.000000E-1
Scans to average: 1
Electric dark correction enabled: true
Nonlinearity correction enabled: false
Boxcar width: 0
XAxis mode: Wavelengths
Number of Pixels in Spectrum: 3648
>>>>>Begin Spectral Data<<<<<
345.52	-907.59
345.736	-907.59
345.952	-907.59
346.168	-977.22
346.384	-946.5
346.6	-100.69
346.816	-213.33
347.032	-272.72
347.248	304.81
347.464	-282.96
347.68	-86.36
347.896	108.2
348.112	401.06
348.328	-26.96
348.544	-153.94
348.76	30.38
348.975	292.52
349.191	-252.24
349.407	-88.4
349.623	69.29
349.839	81.58
350.055	-80.21
350.27	181.93
350.486	192.17
350.702	353.96
350.918	304.81
351.133	-141.65
351.349	157.35
351.565	485.03
351.781	-94.55
351.996	83.63
352.212	360.1
352.428	-90.45
352.644	-94.55
352.859	-147.8
353.075	450.21
353.291	42.67
353.506	-8.53
353.722	-129.36
353.938	-12.63
354.153	478.88
354.369	97.96
354.584	-147.8
354.8	337.57
355.016	-217.43
355.231	-80.21
355.447	-2.39
355.662	128.68
355.878	902.81
356.093	-207.19
356.309	89.77
356.524	-235.86
356.74	272.04
356.955	-176.47
357.171	59.05
357.386	188.07
357.602	-129.36
357.817	-43.35
358.033	-96.6
358.248	499.36
358.464	229.03
358.679	3.75
358.895	-131.41
359.11	18.09
359.325	433.83
359.541	280.23
359.756	42.67
359.972	-153.94
360.187	218.79
360.402	-129.36
360.618	-47.44
360.833	939.68
361.048	143.02
361.264	-76.12
361.479	54.95
361.694	-94.55
361.909	237.22
362.125	-67.92
362.34	44.71
362.555	323.24
362.77	132.78
362.986	-92.5
363.201	-94.55
363.416	313
363.631	124.58
363.847	-14.68
364.062	1.71
364.277	308.9
364.492	188.07
364.707	-80.21
364.922	-280.91
365.138	370.34
365.353	413.35
365.568	-108.88
365.783	26.28
365.998	165.54
366.213	720.54
366.428	-102.74
366.643	196.26
366.858	362.15
367.073	276.13
367.288	-16.73
367.503	-90.45
367.718	140.97
367.933	364.2
368.148	-106.84
368.363	73.39
368.578	63.15
368.793	585.38
369.008	34.47
369.223	-65.88
369.438	323.24
369.653	550.56
369.868	-135.51
370.083	-86.36
370.298	220.84
370.513	452.26
370.728	206.5
370.943	5.8
371.157	-108.88
371.372	612
371.587	-143.7
371.802	-162.13
372.017	194.22
372.232	515.75
372.446	112.3
372.661	-127.32
372.876	333.48
373.091	308.9
373.306	145.06
373.52	-94.55
373.735	18.09
373.95	513.7
374.165	87.72
374.379	100.01
374.594	42.67
374.809	237.22
375.023	136.87
375.238	-125.27
375.453	325.29
375.667	-133.46
375.882	73.39
376.097	-26.96
376.311	206.5
376.526	153.26
376.741	-53.59
376.955	278.18
377.17	702.11
377.384	679.58
377.599	112.3
377.813	-65.88
378.028	685.73
378.242	280.23
378.457	79.53
378.672	-86.36
378.886	308.9
379.101	149.16
379.315	-96.6
379.53	-2.39
379.744	343.72
379.958	269.99
380.173	67.24
380.387	9.9
380.602	327.33
380.816	57
381.031	67.24
381.245	95.91
381.459	329.38
381.674	2700.93
381.888	91.82
382.103	323.24
382.317	-78.16
382.531	679.58
382.746	124.58
382.96	116.39
383.174	93.87
383.388	609.95
383.603	253.61
383.817	-37.2
384.031	341.67
384.246	761.5
384.46	181.93
384.674	503.46
384.888	175.78
385.103	327.33
385.317	-24.92
385.531	186.02
385.745	599.71
385.959	605.86
386.174	30.38
386.388	100.01
386.602	235.18
386.816	157.35
387.03	167.59
387.244	224.94
387.458	286.37
387.672	573.09
387.887	20.14
388.101	38.57
388.315	632.48
388.529	337.57
388.743	136.87
388.957	122.54
389.171	571.04
389.385	108.2
389.599	161.45
389.813	341.67
390.027	437.92
390.241	999.07
390.455	157.35
390.669	294.57
390.883	188.07
391.097	730.78
391.311	315.05
391.525	255.65
391.738	470.69
391.952	515.75
392.166	300.71
392.38	134.82
392.594	583.33
392.808	626.34
393.022	306.85
393.236	282.28
393.449	495.27
393.663	568.99
393.877	46.76
394.091	280.23
394.305	280.23
394.518	194.22
394.732	122.54
394.946	294.57
395.16	741.02
395.373	347.81
395.587	167.59
395.801	245.41
396.015	642.72
396.228	503.46
396.442	159.4
396.656	85.67
396.869	763.55
397.083	788.13
397.297	403.11
397.51	267.94
397.724	804.51
397.938	568.99
398.151	116.39
398.365	173.74
398.578	597.67
398.792	779.93
399.005	456.36
399.219	370.34
399.433	501.41
399.646	599.71
399.86	468.64
400.073	446.12
400.287	679.58
400.5	493.22
400.714	425.64
400.927	489.12
401.141	704.16
401.354	1410.71
401.567	755.36
401.781	321.19
401.994	802.46
402.208	1093.27
402.421	360.1
402.635	384.68
402.848	470.69
403.061	870.05
403.275	538.27
403.488	313
403.701	949.92
403.915	827.04
404.128	487.08
404.341	431.78
404.555	743.07
404.768	612
404.981	476.84
405.195	419.49
405.408	1099.42
405.621	810.65
405.834	609.95
406.048	347.81
406.261	966.3
406.474	1060.51
406.687	364.2
406.9	564.9
407.114	691.87
407.327	781.98
407.54	433.83
407.753	362.15
407.966	554.66
408.179	839.33
408.392	442.02
408.605	425.64
408.819	882.33
409.032	784.03
409.245	423.59
409.458	679.58
409.671	818.85
409.884	1083.03
410.097	401.06
410.31	718.5
410.523	898.72
410.736	700.06
410.949	603.81
411.162	566.95
411.375	984.73
411.588	1019.55
411.801	722.59
412.014	583.33
412.227	710.3
412.44	646.82
412.653	493.22
412.865	720.54
413.078	937.63
413.291	935.58
413.504	714.4
413.717	622.24
413.93	988.83
414.143	487.08
414.356	691.87
414.568	466.6
414.781	1091.23
414.994	968.35
415.207	698.02
415.42	706.21
415.632	980.64
415.845	1228.44
416.058	444.07
416.271	599.71
416.483	892.57
416.696	1316.5
416.909	663.2
417.121	671.39
417.334	1033.88
417.547	1379.99
417.759	712.35
417.972	702.11
418.185	769.69
418.397	1210.01
418.61	579.23
418.823	792.22
419.035	1429.14
419.248	997.02
419.46	878.24
419.673	886.43
419.885	1212.06
420.098	820.89
420.311	736.93
420.523	700.06
420.736	1050.27
420.948	933.53
421.161	902.81
421.373	773.79
421.586	1115.8
421.798	843.42
422.01	716.45
422.223	992.92
422.435	939.68
422.648	1195.67
422.86	851.61
423.073	896.67
423.285	1343.13
423.497	818.85
423.71	859.81
423.922	886.43
424.134	1205.91
424.347	1466
424.559	1218.2
424.771	1291.93
424.984	1101.47
425.196	1132.19
425.408	896.67
425.621	878.24
425.833	1371.8
426.045	1533.59
426.257	935.58
426.47	1021.6
426.682	1402.52
426.894	1355.41
427.106	956.06
427.318	1042.07
427.531	1152.67
427.743	1455.76
427.955	1203.86
428.167	1519.25
428.379	1367.7
428.591	1177.24
428.804	1287.83
429.016	1060.51
429.228	1234.58
429.44	1480.34
429.652	1341.08
429.864	941.72
430.076	1314.45
430.288	1375.89
430.5	1210.01
430.712	1312.41
430.924	1703.57
431.136	1377.94
431.348	1093.27
431.56	1173.14
431.772	1527.44
431.984	1390.23
432.196	1142.43
432.408	1232.54
432.62	1406.61
432.832	1644.18
433.044	1384.09
433.256	1633.94
433.468	1623.7
433.679	1160.86
433.891	1111.71
434.103	1582.74
434.315	1861.26
434.527	1818.25
434.739	1586.83
434.95	1521.3
435.162	1844.88
435.374	1525.4
435.586	1412.76
435.798	1425.04
436.009	1363.61
436.221	1545.88
436.433	1443.48
436.645	1509.01
436.856	1511.06
437.068	1992.33
437.28	1463.96
437.491	1871.5
437.703	1943.18
437.915	1859.21
438.126	1734.29
438.338	1803.92
438.55	1701.52
438.761	1914.51
438.973	1734.29
439.184	1656.47
439.396	1812.11
439.608	1963.66
439.819	1494.68
440.031	1734.29
440.242	2021
440.454	2068.11
440.665	1756.82
440.877	1871.5
441.088	1930.89
441.3	1908.37
441.511	1691.28
441.723	1689.23
441.934	1887.89
442.146	2027.15
442.357	1934.99
442.569	2016.91
442.78	1996.43
442.991	2449.03
443.203	2125.45
443.414	1738.38
443.626	2360.97
443.837	1898.13
444.048	1754.77
444.26	1785.49
444.471	2051.72
444.682	2244.23
444.894	1740.43
445.105	1607.31
445.316	2225.8
445.528	2129.55
445.739	1961.61
445.95	1928.85
446.161	2107.02
446.373	2485.89
446.584	1988.24
446.795	1982.09
447.006	2240.14
447.217	2614.91
447.429	1851.02
447.64	1945.23
447.851	2436.74
448.062	2229.9
448.273	1918.61
448.484	2043.53
448.695	2324.1
448.907	2217.61
449.118	2262.66
449.329	2336.39
449.54	2129.55
449.751	2147.98
449.962	2074.25
450.173	1996.43
450.384	2631.3
450.595	2780.8
450.806	2180.75
451.017	2240.14
451.228	2662.02
451.439	2549.38
451.65	2242.18
451.861	1937.04
452.072	2203.27
452.283	2430.6
452.494	2578.05
452.705	2256.52
452.915	2774.66
453.126	2578.05
453.337	2444.93
453.548	2330.25
453.759	2973.31
453.97	3174.01
454.181	2619.01
454.391	2416.26
454.602	2674.31
454.813	2866.81
455.024	2573.96
455.235	2389.64
455.445	2899.58
455.656	2918.01
455.867	2674.31
456.078	2520.71
456.288	2590.34
456.499	3022.46
456.71	2619.01
456.921	2840.19
457.131	2948.73
457.342	2905.73
457.553	2698.88
457.763	2766.46
457.974	3204.73
458.184	3143.29
458.395	2711.17
458.606	2786.94
458.816	3382.9
459.027	3651.19
459.237	3096.19
459.448	2879.1
459.659	3507.83
459.869	3755.63
460.08	2877.05
460.29	3286.65
460.501	3778.16
460.711	3309.18
460.922	2965.12
461.132	3153.53
461.343	4007.53
461.553	3167.87
461.764	3165.82
461.974	3149.43
462.184	3552.88
462.395	3589.75
462.605	3350.14
462.816	3194.49
463.026	3579.51
463.236	3894.9
463.447	3397.24
463.657	3440.25
463.867	3886.7
464.078	3704.43
464.288	3503.73
464.498	3716.72
464.709	3735.15
464.919	3870.32
465.129	3651.19
465.339	3581.56
465.55	3948.14
465.76	4259.43
465.97	3720.82
466.18	3876.46
466.391	4322.92
466.601	4210.28
466.811	4075.12
467.021	3985.01
467.231	4337.26
467.441	4417.13
467.651	4245.1
467.862	3905.14
468.072	4456.04
468.282	4990.56
468.492	4241
468.702	4435.56
468.912	4722.27
469.122	5193.31
469.332	4857.44
469.542	4466.28
469.752	4927.07
469.962	5062.24
470.172	4630.12
470.382	4793.95
470.592	5258.84
470.802	5269.08
471.012	5017.18
471.222	5015.13
471.432	5568.09
471.642	5449.3
471.852	5234.27
472.062	4957.79
472.272	5482.07
472.482	5160.54
472.691	5381.72
472.901	5310.04
473.111	5676.63
473.321	6239.82
473.531	5645.91
473.741	5844.56
473.95	5965.39
474.16	6014.54
474.37	6047.31
474.58	5916.24
474.79	6508.1
474.999	6264.4
475.209	5811.79
475.419	6284.87
475.628	6305.35
475.838	6760
476.048	6434.38
476.258	6315.59
476.467	7042.62
476.677	6573.64
476.886	6919.75
477.096	6690.37
477.306	6893.12
477.515	7237.18
477.725	6725.19
477.935	6999.62
478.144	7401.02
478.354	7061.05
478.563	7067.2
478.773	7104.06
478.982	7609.91
479.192	7757.36
479.401	7505.46
479.611	7177.79
479.82	7435.83
480.03	7835.19
480.239	7761.46
480.449	7831.09
480.658	8455.72
480.868	7968.31
481.077	8005.17
481.287	7882.29
481.496	8455.72
481.705	8594.98
481.915	8394.28
482.124	8533.54
482.333	8554.02
482.543	9051.68
482.752	8607.27
482.961	8539.69
483.171	9147.94
483.38	8883.75
483.589	8898.08
483.799	8980
484.008	8947.23
484.217	9289.24
484.426	9221.66
484.636	9068.06
484.845	9469.47
485.054	9020.96
485.263	9649.69
485.472	9334.3
485.682	10110.48
485.891	9795.09
486.1	9444.89
486.309	9915.92
486.518	10214.93
486.727	10348.04
486.936	9917.97
487.146	10030.61
487.355	10835.46
487.564	10198.54
487.773	10042.9
487.982	10200.59
488.191	10520.07
488.4	10640.9
488.609	10442.25
488.818	10511.88
489.027	11331.07
489.236	11257.34
489.445	10911.24
489.654	10653.19
489.863	11380.22
490.072	10978.82
490.281	11365.89
490.49	10978.82
490.698	11761.14
490.907	11755
491.116	11359.74
491.325	11169.28
491.534	11990.52
491.743	11705.85
491.952	11417.08
492.16	11572.73
492.369	12039.67
492.578	12285.42
492.787	11933.17
492.996	11673.08
493.204	12094.96
493.413	12633.58
493.622	11920.88
493.831	11949.56
494.039	12912.1
494.248	12236.27
494.457	12346.86
494.665	12402.16
494.874	12985.83
495.083	13139.43
495.291	12752.36
495.5	12625.39
495.709	12973.54
495.917	13188.58
496.126	13000.16
496.335	12576.23
496.543	12932.58
496.752	13467.1
496.96	13348.32
497.169	12920.29
497.377	13381.09
497.586	13602.27
497.794	13409.76
498.003	13262.3
498.211	13559.26
498.42	14003.67
498.628	13776.34
498.837	13575.64
499.045	13968.85
499.254	14013.91
499.462	13682.14
499.671	13901.27
499.879	14575.05
500.087	14638.54
500.296	13893.08
500.504	14061.01
500.713	14364.11
500.921	15068.61
501.129	14349.78
501.338	14235.09
501.546	14552.52
501.754	14669.26
501.962	14331.34
502.171	14378.45
502.379	15132.1
502.587	15470.01
502.795	14636.49
503.004	14583.24
503.212	14978.5
503.42	15226.31
503.628	14724.55
503.837	15029.7
504.045	15355.33
504.253	15553.98
504.461	15168.96
504.669	14947.78
504.877	15607.23
505.085	15924.66
505.294	15275.46
505.502	15574.46
505.71	15975.86
505.918	15814.07
506.126	15148.48
506.334	15541.69
506.542	15828.41
506.75	15904.18
506.958	15732.15
507.166	15648.19
507.374	15984.05
507.582	16534.96
507.79	15900.09
507.998	15908.28
508.206	16231.86
508.414	16139.7
508.622	16297.39
508.83	15943.1
509.037	17204.64
509.245	16362.93
509.453	15951.29
509.661	16283.06
509.869	16651.69
510.077	16440.75
510.285	16543.15
510.492	16221.62
510.7	17327.52
510.908	16727.47
511.116	16506.29
511.324	16612.78
511.531	16735.66
511.739	17085.86
511.947	16733.61
512.155	17081.77
512.362	17118.63
512.57	16848.3
512.778	17071.53
512.985	16887.21
513.193	17462.69
513.401	17806.75
513.608	17118.63
513.816	17178.02
514.024	17511.84
514.231	17876.38
514.439	17321.38
514.646	17216.93
514.854	17694.11
515.061	17638.81
515.269	17651.1
515.477	17534.37
515.684	17712.54
515.892	18068.89
516.099	17399.2
516.307	17550.75
516.514	18253.2
516.722	18460.05
516.929	17690.01
517.136	17706.4
517.344	18261.4
517.551	18232.72
517.759	17866.14
517.966	18154.9
518.173	18161.05
518.381	18392.47
518.588	18494.86
518.796	18255.25
519.003	18580.88
519.21	18427.28
519.418	18310.55
519.625	18826.64
519.832	18802.06
520.039	18951.56
520.247	18298.26
520.454	18441.62
520.661	19238.28
520.868	19111.3
521.076	18904.46
521.283	18681.23
521.49	19516.8
521.697	19269
521.904	18957.71
522.112	18933.13
522.319	19699.07
522.526	19393.92
522.733	19299.72
522.94	18924.94
523.147	19232.13
523.354	19883.39
523.561	19129.73
523.768	19393.92
523.975	19871.1
524.183	19725.69
524.39	19711.36
524.597	19342.72
524.804	19719.55
525.011	19656.06
525.218	19504.51
525.425	19633.54
525.632	20460.91
525.838	20036.98
526.045	19602.82
526.252	19834.24
526.459	21431.65
526.666	21126.5
526.873	20174.2
527.08	20159.86
527.287	20938.09
527.494	20477.3
527.701	20303.22
527.907	20151.67
528.114	20673.9
528.321	20868.46
528.528	20534.64
528.735	20684.14
528.941	20598.13
529.148	20544.88
529.355	20825.45
529.562	20688.24
529.768	21362.02
529.975	20671.86
530.182	20737.39
530.388	20931.95
530.595	21570.91
530.802	20770.16
531.008	21429.6
531.215	21259.62
531.422	22246.74
531.628	22330.71
531.835	21097.83
532.042	21306.73
532.248	21785.95
532.455	21536.1
532.661	21572.96
532.868	21544.29
533.074	21908.83
533.281	22146.39
533.487	21929.31
533.694	21704.03
533.9	22005.08
534.107	22056.28
534.313	21538.15
534.52	21890.4
534.726	22621.52
534.933	22744.4
535.139	21871.96
535.345	21816.67
535.552	22615.38
535.758	22523.22
535.965	22680.91
536.171	22437.2
536.377	22977.87
536.584	22914.38
536.79	22250.84
536.996	22877.52
537.203	23037.26
537.409	22832.46
537.615	22570.32
537.821	22902.09
538.028	23493.96
538.234	23299.4
538.44	22822.22
538.646	23258.44
538.853	23424.33
539.059	23022.92
539.265	23551.3
539.471	23117.13
539.677	23659.84
539.883	23645.51
540.09	23491.91
540.296	24067.39
540.502	23684.42
540.708	23747.9
540.914	23680.32
541.12	23653.7
541.326	24014.14
541.532	23846.21
541.738	23741.76
541.944	23690.56
542.15	24294.71
542.356	24137.02
542.562	24184.12
542.768	24350.01
542.974	24917.29
543.18	24814.9
543.386	24227.13
543.592	24280.38
543.798	24595.76
544.004	24831.28
544.21	24452.41
544.415	24220.99
544.621	24712.5
544.827	24862
545.033	24835.38
545.239	24993.07
545.445	24939.82
545.651	25136.43
545.856	24827.18
546.062	24964.4
546.268	24988.97
546.474	25101.61
546.679	24765.74
546.885	25029.93
547.091	25023.79
547.297	25769.25
547.502	24954.16
547.708	24859.95
547.914	24694.07
548.119	25394.47
548.325	25152.81
548.531	24876.34
548.736	25720.1
548.942	25222.44
549.147	25228.59
549.353	25589.03
549.559	26072.35
549.764	25572.64
549.97	24925.49
550.175	25531.69
550.381	25799.97
550.586	25191.72
550.792	25236.78
550.997	25699.62
551.203	26109.21
551.408	26420.5
551.614	25615.65
551.819	25863.46
552.025	26492.18
552.23	26608.92
552.435	26189.08
552.641	26586.39
552.846	26981.65
553.052	26918.16
553.257	26158.36
553.462	26209.56
553.668	26457.37
553.873	27000.08
554.078	26692.88
554.283	26598.68
554.489	26826
554.694	26932.5
554.899	26326.3
555.105	26879.25
555.31	26987.79
555.515	26844.43
555.72	27208.97
555.925	26680.6
556.131	27200.78
556.336	26793.23
556.541	26983.69
556.746	27059.47
556.951	27235.6
557.156	27598.09
557.361	27254.03
557.567	27444.49
557.772	28245.24
557.977	27659.52
558.182	27106.57
558.387	27528.45
558.592	27694.34
558.797	27997.44
559.002	27579.65
559.207	27823.36
559.412	27530.5
559.617	28019.97
559.822	27520.26
560.027	27256.07
560.232	27936
560.437	28126.46
560.642	27505.93
560.847	27538.69
561.051	27843.84
561.256	27841.79
561.461	28099.84
561.666	27778.31
561.871	28265.72
562.076	28552.44
562.281	28122.37
562.485	27575.56
562.69	28534.01
562.895	28388.6
563.1	27970.82
563.305	27780.35
563.509	28830.96
563.714	28890.35
563.919	28017.92
564.123	27923.71
564.328	28486.9
564.533	29058.29
564.737	27989.25
564.942	28202.24
565.147	29455.59
565.351	29250.8
565.556	28648.69
565.761	28658.93
565.965	28839.15
566.17	28646.65
566.374	28396.79
566.579	28263.68
566.784	28665.08
566.988	29230.32
567.193	28851.44
567.397	28787.96
567.602	28935.41
567.806	29093.1
568.011	28652.79
568.215	29353.19
568.42	29011.18
568.624	29340.91
568.828	29295.85
569.033	28931.31
569.237	29758.69
569.442	29496.55
569.646	28751.09
569.85	29238.51
570.055	29474.02
570.259	29666.53
570.463	29842.66
570.668	29490.41
570.872	29082.86
571.076	29635.81
571.281	29445.35
571.485	29830.37
571.689	29760.74
571.893	29789.41
572.098	30008.54
572.302	29586.66
572.506	30004.45
572.71	29910.24
572.914	29711.59
573.119	29875.43
573.323	30541.02
573.527	30543.06
573.731	29998.3
573.935	30299.36
574.139	30448.86
574.343	29826.28
574.547	30196.96
574.751	30115.04
574.955	30768.34
575.159	30801.11
575.364	29926.63
575.568	30061.79
575.772	30368.99
575.976	31161.55
576.18	30031.07
576.383	30213.34
576.587	31038.67
576.791	30903.51
576.995	30405.85
577.199	30741.72
577.403	31073.49
577.607	31161.55
577.811	30880.98
578.015	30594.26
578.219	31141.07
578.422	31188.17
578.626	30809.3
578.83	31323.34
579.034	31362.25
579.238	31313.1
579.442	30958.8
579.645	31296.72
579.849	31159.5
580.053	31603.91
580.257	31106.26
580.46	31343.82
580.664	31663.3
580.868	31556.81
581.071	31356.11
581.275	31612.1
581.479	31499.47
581.682	31921.35
581.886	31489.23
582.09	31775.94
582.293	32134.34
582.497	32216.26
582.7	31698.12
582.904	31696.07
583.107	32079.04
583.311	31833.28
583.515	31814.85
583.718	31999.17
583.922	32285.89
584.125	32431.29
584.329	31562.95
584.532	32419
584.735	32160.96
584.939	32072.9
585.142	31997.12
585.346	32076.99
585.549	32703.67
585.753	32619.7
585.956	32406.72
586.159	32195.78
586.363	33189.04
586.566	32765.11
586.769	32210.11
586.973	32255.17
587.176	32609.47
587.379	33324.21
587.582	32881.84
587.786	32541.88
587.989	32820.41
588.192	33395.89
588.395	32828.6
588.599	32916.66
588.802	33250.48
589.005	32933.04
589.208	33137.84
589.411	32769.21
589.615	33330.35
589.818	33916.07
590.021	33658.03
590.224	33242.29
590.427	33797.29
590.63	33627.31
590.833	32992.44
591.036	33299.63
591.239	33660.07
591.442	33549.48
591.645	33785
591.848	33406.12
592.051	33989.8
592.254	34282.66
592.457	33834.15
592.66	33766.57
592.863	33709.22
593.066	34196.64
593.269	33791.14
593.472	33959.08
593.675	33959.08
593.878	34229.41
594.081	34059.43
594.284	34526.36
594.486	34323.61
594.689	34636.95
594.892	33957.03
595.095	34127.01
595.298	34456.73
595.5	34526.36
595.703	34688.15
595.906	34530.46
596.109	34860.18
596.311	35189.91
596.514	34151.59
596.717	34507.93
596.92	35439.76
597.122	34897.05
597.325	34276.51
597.528	34639
597.73	35288.21
597.933	34587.8
598.136	34890.9
598.338	34774.17
598.541	35077.27
598.743	35652.75
598.946	34634.91
599.148	34866.33
599.351	35447.95
599.554	35179.67
599.756	34909.33
599.959	35515.53
600.161	35515.53
600.363	36015.24
600.566	35261.58
600.768	35402.89
600.971	35726.47
601.173	35652.75
601.376	35564.68
601.578	35384.46
601.78	35855.5
601.983	36205.7
602.185	35138.71
602.388	35865.74
602.59	35718.28
602.792	35847.3
602.995	35751.05
603.197	35671.18
603.399	36478.08
603.601	36142.21
603.804	35636.36
604.006	35802.25
604.208	35611.79
604.41	35714.19
604.613	35949.7
604.815	35687.56
605.017	36557.95
605.219	35943.56
605.421	35822.73
605.623	35810.44
605.826	36463.74
606.028	36492.41
606.23	35998.85
606.432	36054.15
606.634	36824.18
606.836	36506.75
607.038	35816.58
607.24	35904.65
607.442	36310.14
607.644	35988.61
607.846	36123.78
608.048	36123.78
608.25	36455.55
608.452	36058.24
608.654	36693.11
608.856	35490.96
609.058	36394.11
609.26	36490.37
609.462	36428.93
609.664	36117.64
609.866	36600.96
610.067	36639.87
610.269	36220.03
610.471	36222.08
610.673	36263.04
610.875	37131.38
611.077	35904.65
611.278	36363.39
611.48	36519.04
611.682	36985.97
611.884	36340.86
612.085	36500.61
612.287	36574.33
612.489	36664.44
612.69	36177.03
612.892	36580.48
613.094	36912.25
613.295	36586.62
613.497	36291.71
613.699	36598.91
613.9	37059.7
614.102	36979.83
614.304	36543.61
614.505	36086.92
614.707	37078.13
614.908	36689.02
615.11	36590.72
615.311	36527.23
615.513	36908.15
615.714	37151.86
615.916	36439.17
616.117	36504.7
616.319	36916.34
616.52	36869.24
616.722	36678.78
616.923	36938.87
617.124	36914.3
617.326	36803.71
617.527	36818.04
617.729	36971.64
617.93	36801.66
618.131	37125.24
618.333	36459.65
618.534	37012.6
618.735	36750.46
618.937	36920.44
619.138	36709.5
619.339	36797.56
619.54	37405.81
619.742	36992.12
619.943	36740.22
620.144	36996.21
620.345	36934.78
620.546	37551.21
620.748	36904.06
620.949	36750.46
621.15	37295.22
621.351	37088.37
621.552	36713.59
621.753	36717.69
621.954	36627.58
622.155	37430.38
622.356	37004.41
622.558	37493.87
622.759	37393.52
622.96	37485.68
623.161	37071.99
623.362	37135.48
623.563	37430.38
623.764	36994.17
623.965	37110.9
624.166	37629.04
624.366	37481.58
624.567	37483.63
624.768	36711.55
624.969	36889.72
625.17	37119.09
625.371	37481.58
625.572	36801.66
625.773	37158
625.973	37700.72
626.174	37762.15
626.375	37315.7
626.576	37385.33
626.777	37745.77
626.977	37954.66
627.178	37495.92
627.379	37620.84
627.58	37629.04
627.78	37708.91
627.981	37313.65
628.182	37643.37
628.382	37657.71
628.583	37416.05
628.784	37217.39
628.984	37188.72
629.185	38186.08
629.386	37692.52
629.586	37598.32
629.787	37440.62
629.987	37745.77
630.188	37680.24
630.388	37866.6
630.589	37710.96
630.79	38089.83
630.99	38225
631.191	37751.91
631.391	38030.44
631.591	37708.91
631.792	38063.21
631.992	38245.48
632.193	37784.68
632.393	38360.16
632.594	38229.09
632.794	37491.82
632.994	37905.51
633.195	38081.64
633.395	38184.04
633.595	37661.8
633.796	37934.18
633.996	37827.69
634.196	38173.8
634.397	37907.56
634.597	38001.77
634.797	38026.34
634.997	38300.77
635.198	37809.26
635.398	37674.09
635.598	38528.09
635.798	38564.96
635.998	38476.9
636.199	37844.07
636.399	38325.35
636.599	38093.93
636.799	37962.86
636.999	38351.97
637.199	38458.46
637.399	38749.28
637.599	38315.11
637.799	38192.23
637.999	38351.97
638.199	38814.81
638.399	38100.07
638.599	37844.07
638.799	38937.69
638.999	39126.1
639.199	38763.61
639.399	39128.15
639.599	39337.04
639.799	38564.96
639.999	38712.41
640.199	38470.75
640.399	38825.05
640.599	37870.7
640.799	39081.05
640.998	38919.26
641.198	39044.18
641.398	38759.52
641.598	38863.96
641.798	39160.92
641.997	39363.67
642.197	38972.5
642.397	38974.55
642.597	38521.95
642.796	38870.11
642.996	39033.94
643.196	38909.02
643.395	38610.01
643.595	38837.34
643.795	38526.05
643.994	39095.38
644.194	38624.35
644.394	39259.22
644.593	39341.14
644.793	39171.16
644.992	39369.81
645.192	38937.69
645.392	38898.78
645.591	39218.26
645.791	39599.18
645.99	39582.8
646.19	39642.19
646.389	39267.41
646.589	39199.83
646.788	39783.5
646.987	39371.86
647.187	39574.61
647.386	39265.36
647.586	39443.54
647.785	39672.91
647.984	39296.08
648.184	39740.49
648.383	39197.78
648.582	39382.1
648.782	39267.41
648.981	39079
649.18	38749.28
649.38	39980.1
649.579	39615.57
649.778	39611.47
649.977	40207.43
650.177	39709.77
650.376	39246.93
650.575	39191.64
650.774	40115.27
650.973	39332.95
651.173	39251.03
651.372	39666.77
651.571	39726.16
651.77	39865.42
651.969	39504.98
652.168	40117.32
652.367	39783.5
652.566	39779.4
652.765	39437.39
652.964	40211.53
653.163	40195.14
653.362	40209.48
653.561	39623.76
653.76	39527.5
653.959	39816.27
654.158	40377.41
654.357	39953.48
654.556	39709.77
654.755	39826.51
654.954	40246.34
655.153	39695.44
655.352	39562.32
655.551	40078.41
655.749	40023.11
655.948	39685.2
656.147	40260.68
656.346	40408.13
656.545	40344.64
656.743	40338.5
656.942	40395.84
657.141	40401.99
657.34	39681.1
657.538	40152.13
657.737	39949.39
657.936	40690.75
658.135	40037.45
658.333	39982.15
658.532	40420.42
658.731	40737.85
658.929	40428.61
659.128	40295.49
659.326	40563.78
659.525	40903.74
659.724	40336.45
659.922	40023.11
660.121	39951.43
660.319	39988.3
660.518	39955.53
660.716	39875.66
660.915	40301.64
661.113	40868.92
661.312	40158.28
661.51	40100.93
661.709	40035.4
661.907	40180.81
662.105	40782.91
662.304	40461.38
662.502	40283.2
662.701	41131.06
662.899	40453.19
663.097	40391.75
663.296	40189
663.494	40889.4
663.692	40543.3
663.891	40068.17
664.089	40008.78
664.287	40674.37
664.485	40625.21
664.684	40483.9
664.882	40367.17
665.08	40485.95
665.278	40995.9
665.476	40389.7
665.675	40488
665.873	40819.77
666.071	40842.3
666.269	40100.93
666.467	40199.24
666.665	40379.46
666.863	40000.58
667.061	40195.14
667.259	40039.5
667.457	40684.61
667.655	40401.99
667.853	40029.26
668.051	40250.44
668.249	40309.83
668.447	40647.74
668.645	39922.76
668.843	40348.74
669.041	40731.71
669.239	40217.67
669.437	40639.55
669.635	40684.61
669.833	40254.53
670.031	40639.55
670.229	39836.75
670.426	40330.31
670.624	40348.74
670.822	40434.75
671.02	40211.53
671.218	40262.72
671.415	40377.41
671.613	40031.3
671.811	39773.26
672.009	40444.99
672.206	40590.4
672.404	40156.23
672.602	40168.52
672.799	40352.83
672.997	40453.19
673.195	40596.54
673.392	40471.62
673.59	39971.91
673.788	39785.55
673.985	39662.67
674.183	39803.98
674.38	40199.24
674.578	40592.45
674.775	39842.89
674.973	39930.95
675.17	39896.14
675.368	40469.57
675.565	40006.73
675.763	39949.39
675.96	39869.51
676.158	40414.27
676.355	39744.59
676.553	40107.08
676.75	39621.71
676.947	39906.38
677.145	39742.54
677.342	39634
677.539	39617.61
677.737	39795.79
677.934	40387.65
678.131	39707.72
678.329	39742.54
678.526	40111.17
678.723	40176.71
678.92	39703.63
679.118	39601.23
679.315	39394.39
679.512	40385.6
679.709	39814.22
679.906	39461.97
680.104	39898.19
680.301	40076.36
680.498	39199.83
680.695	39326.8
680.892	39705.68
681.089	39853.13
681.286	39554.13
681.483	39224.4
681.68	39793.74
681.877	39816.27
682.075	39330.9
682.272	39410.77
682.469	39699.53
682.665	39425.11
682.862	38868.06
683.059	39003.22
683.256	39951.43
683.453	39148.63
683.65	39380.05
683.847	39201.88
684.044	39515.22
684.241	39154.77
684.438	39898.19
684.635	39099.48
684.831	39552.08
685.028	39881.8
685.225	38663.26
685.422	39048.28
685.619	39187.54
685.815	38898.78
686.012	38843.48
686.209	38538.33
686.405	39234.64
686.602	39324.75
686.799	38927.45
686.996	38886.49
687.192	38814.81
687.389	39541.84
687.586	38863.96
687.782	38704.22
687.979	39480.4
688.175	39119.96
688.372	38650.97
688.568	38724.7
688.765	38503.52
688.962	39326.8
689.158	38800.47
689.355	38472.8
689.551	38958.17
689.748	38841.43
689.944	38843.48
690.14	38337.63
690.337	38921.3
690.533	38753.37
690.73	38317.15
690.926	38587.49
691.123	38507.62
691.319	38872.15
691.515	38118.5
691.712	38450.27
691.908	39070.81
692.104	38724.7
692.301	38257.76
692.497	37696.62
692.693	38575.2
692.889	38810.71
693.086	38831.19
693.282	38120.55
693.478	38155.36
693.674	39050.33
693.87	38151.27
694.067	37921.9
694.263	38399.07
694.459	38270.05
694.655	38241.38
694.851	38216.8
695.047	38245.48
695.243	38478.94
695.439	38188.13
695.635	37969
695.831	38392.93
696.027	38538.33
696.224	37962.86
696.42	38423.65
696.615	38792.28
696.811	38474.85
697.007	37624.94
697.203	38016.1
697.399	38098.02
697.595	38282.34
697.791	37727.34
697.987	37833.83
698.183	37823.59
698.379	37203.06
698.575	37928.04
698.77	37500.01
698.966	38184.04
699.162	38278.24
699.358	37770.35
699.554	37723.24
699.749	38046.82
699.945	38093.93
700.141	37862.5
700.337	37237.87
700.532	37893.22
700.728	37741.67
700.924	37321.84
701.119	37145.72
701.315	37389.42
701.511	37319.79
701.706	37872.74
701.902	37403.76
702.097	37512.3
702.293	37418.1
702.489	37262.45
702.684	37678.19
702.88	37495.92
703.075	37446.77
703.271	36973.69
703.466	37332.08
703.662	37293.17
703.857	37850.22
704.053	37141.62
704.248	37432.43
704.443	37663.85
704.639	37590.13
704.834	37041.27
705.03	37350.51
705.225	37758.06
705.42	37274.74
705.616	37475.44
705.811	37084.28
706.006	36938.87
706.202	37301.36
706.397	37190.77
706.592	36383.87
706.787	37016.69
706.983	37440.62
707.178	37213.3
707.373	37260.4
707.568	37196.92
707.763	37168.24
707.959	36848.76
708.154	37276.79
708.349	37061.75
708.544	37289.07
708.739	36848.76
708.934	36754.55
709.129	37024.89
709.324	37215.35
709.519	36818.04
709.714	36588.67
709.909	37262.45
710.104	36783.23
710.299	36689.02
710.494	36930.68
710.689	37287.03
710.884	36824.18
711.079	36977.78
711.274	36467.84
711.469	37094.52
711.664	36308.1
711.859	36598.91
712.054	36875.38
712.249	36560
712.443	37123.19
712.638	36689.02
712.833	36152.45
713.028	36365.44
713.223	36615.29
713.417	36924.54
713.612	36613.24
713.807	37133.43
714.002	37399.66
714.196	36678.78
714.391	36082.82
714.586	36969.59
714.78	36922.49
714.975	36459.65
715.17	36174.98
715.364	36125.83
715.559	36617.34
715.754	36033.67
715.948	35744.91
716.143	36940.92
716.337	36011.14
716.532	36387.97
716.726	36504.7
716.921	36560
717.115	36689.02
717.31	36002.95
717.504	36750.46
717.699	36287.62
717.893	36254.85
718.088	35597.45
718.282	36144.26
718.476	35984.52
718.671	36177.03
718.865	35947.65
719.059	35646.6
719.254	36125.83
719.448	35859.59
719.642	36830.33
719.837	35470.48
720.031	35914.89
720.225	36191.36
720.419	35454.09
720.614	35515.53
720.808	36009.09
721.002	35261.58
721.196	35300.5
721.39	35226.77
721.585	35648.65
721.779	35357.84
721.973	35171.47
722.167	35056.79
722.361	35509.39
722.555	36005
722.749	35073.17
722.943	35493.01
723.137	35316.88
723.331	35638.41
723.525	35304.59
723.719	35384.46
723.913	35753.1
724.107	35058.84
724.301	34806.94
724.495	35220.63
724.689	35361.94
724.883	35101.84
725.077	34792.6
725.271	35280.02
725.465	35382.41
725.659	34813.08
725.853	35304.59
726.046	35087.51
726.24	34729.11
726.434	35038.36
726.628	34765.98
726.822	35087.51
727.015	35343.5
727.209	35376.27
727.403	34940.05
727.596	34907.29
727.79	35411.09
727.984	35337.36
728.177	35060.88
728.371	34886.81
728.565	34878.61
728.758	35095.7
728.952	34428.06
729.146	34598.04
729.339	35427.47
729.533	35105.94
729.726	34849.94
729.92	34729.11
730.113	35368.08
730.307	35150.99
730.5	34780.31
730.694	34710.68
730.887	34552.99
731.081	35374.22
731.274	35062.93
731.468	34421.92
731.661	34911.38
731.854	35105.94
732.048	34981.01
732.241	35155.09
732.435	34995.35
732.628	34921.62
732.821	34567.32
733.014	34931.86
733.208	34626.71
733.401	34970.77
733.594	34215.07
733.788	35103.89
733.981	35128.47
734.174	35130.51
734.367	34489.5
734.56	35079.32
734.754	34854.04
734.947	35062.93
735.14	34718.87
735.333	35003.54
735.526	34981.01
735.719	34387.1
735.912	34563.23
736.105	34759.83
736.298	34993.3
736.491	34403.49
736.684	34423.97
736.877	34393.25
737.07	34409.63
737.263	34790.55
737.456	34397.34
737.649	34120.87
737.842	34698.39
738.035	34679.96
738.228	34364.57
738.421	34593.95
738.614	35040.4
738.807	35011.73
739	34509.98
739.192	34217.12
739.385	34423.97
739.578	34462.88
739.771	34227.36
739.964	34000.04
740.156	34559.13
740.349	34094.24
740.542	34632.86
740.735	34153.63
740.927	34081.95
741.12	34417.82
741.313	33854.63
741.505	33959.08
741.698	34143.39
741.891	34135.2
742.083	34053.28
742.276	34423.97
742.468	34153.63
742.661	34120.87
742.854	33893.54
743.046	33883.3
743.239	34337.95
743.431	34555.04
743.624	33678.5
743.816	33461.42
744.009	34503.84
744.201	34081.95
744.393	33555.63
744.586	33416.36
744.778	34313.38
744.971	34348.19
745.163	34196.64
745.355	34110.63
745.548	34219.17
745.74	33862.82
745.932	33780.9
746.125	33623.21
746.317	34630.81
746.509	33739.94
746.702	33848.49
746.894	33703.08
747.086	33791.14
747.278	34065.57
747.471	33797.29
747.663	33799.33
747.855	34026.66
748.047	34342.05
748.239	33805.48
748.431	33664.17
748.623	34546.84
748.815	34170.02
749.008	33506.48
749.2	33459.37
749.392	34110.63
749.584	33584.3
749.776	33967.27
749.968	33729.7
750.16	33969.32
750.352	33690.79
750.544	33346.73
750.736	33463.47
750.928	33676.46
751.12	33862.82
751.311	33262.77
751.503	33455.28
751.695	33862.82
751.887	33705.13
752.079	33395.89
752.271	33258.67
752.463	34411.68
752.654	33473.71
752.846	33221.81
753.038	33105.07
753.23	33074.35
753.421	33266.86
753.613	32898.23
753.805	33389.74
753.997	33221.81
754.188	33121.46
754.38	32701.62
754.572	32810.17
754.763	33186.99
754.955	32566.46
755.146	33146.03
755.338	32799.93
755.53	33045.68
755.721	32781.49
755.913	32744.63
756.104	32443.58
756.296	32859.32
756.487	32953.52
756.679	32339.13
756.87	32044.23
757.062	32713.91
757.253	33156.27
757.445	32615.61
757.636	32402.62
757.827	32588.99
758.019	33676.46
758.21	32214.21
758.401	32470.2
758.593	32787.64
758.784	32908.47
758.975	31980.74
759.167	32197.82
759.358	32445.63
759.549	32476.35
759.74	31952.07
759.932	32154.82
760.123	31904.96
760.314	32072.9
760.505	31685.83
760.696	31593.67
760.888	32314.56
761.079	31978.69
761.27	31653.06
761.461	31841.48
761.652	32308.41
761.843	31755.46
762.034	31814.85
762.225	31849.67
762.416	31675.59
762.607	31206.61
762.798	31323.34
762.989	31390.92
763.18	32525.5
763.371	31397.07
763.562	31145.17
763.753	31397.07
763.944	31882.44
764.135	31913.16
764.326	31628.49
764.517	31454.41
764.708	31470.79
764.899	31294.67
765.089	30442.71
765.28	31309
765.471	31276.24
765.662	31565
765.853	31087.82
766.043	30352.6
766.234	31335.63
766.425	31136.98
766.615	30997.71
766.806	30811.35
766.997	31061.2
767.187	30874.84
767.378	30672.09
767.569	30397.66
767.759	30891.22
767.95	30723.29
768.141	30541.02
768.331	30373.08
768.522	30534.87
768.712	30686.42
768.903	30547.16
769.093	30170.33
769.284	30678.23
769.474	30489.82
769.665	29990.11
769.855	29504.74
770.046	30885.08
770.236	30166.24
770.426	30444.76
770.617	30053.6
770.807	29914.34
770.998	30215.39
771.188	30127.33
771.378	29805.8
771.569	30649.56
771.759	30147.81
771.949	29695.21
772.139	30156
772.33	29435.11
772.52	30242.01
772.71	29713.64
772.9	29480.17
773.09	30541.02
773.281	30366.94
773.471	29265.13
773.661	29603.05
773.851	29824.23
774.041	29594.86
774.231	29637.86
774.421	29545.7
774.611	29701.35
774.802	29555.94
774.992	28974.32
775.182	28947.7
775.372	29422.83
775.562	29557.99
775.752	29480.17
775.942	28990.7
776.131	29766.88
776.321	29308.14
776.511	29306.09
776.701	29144.3
776.891	29353.19
777.081	28787.96
777.271	29066.48
777.461	28992.75
777.651	28886.26
777.84	29258.99
778.03	28882.16
778.22	28564.73
778.41	29218.03
778.599	28701.94
778.789	28839.15
778.979	28714.23
779.169	28787.96
779.358	28577.01
779.548	28941.55
779.738	28130.56
779.927	28701.94
780.117	28294.39
780.307	27989.25
780.496	28030.21
780.686	28546.3
780.875	28855.54
781.065	28103.93
781.254	28032.25
781.444	28396.79
781.633	28132.61
781.823	27639.04
782.012	28062.97
782.202	27688.2
782.391	28132.61
782.581	27471.11
782.77	28368.12
782.96	28472.57
783.149	27571.46
783.338	27464.97
783.528	27403.53
783.717	28321.02
783.906	28110.08
784.096	27759.88
784.285	27817.22
784.474	27921.66
784.663	27600.13
784.853	27297.03
785.042	27645.19
785.231	27387.14
785.42	27745.54
785.61	27708.68
785.799	27419.91
785.988	27401.48
786.177	27245.83
786.366	27223.31
786.555	27155.72
786.744	27542.79
786.933	27424.01
787.122	27591.94
787.312	27002.13
787.501	27196.68
787.69	27337.99
787.879	27243.79
788.068	26932.5
788.257	26688.79
788.445	26832.15
788.634	26811.67
788.823	26873.1
789.012	27491.59
789.201	27407.62
789.39	26598.68
789.579	26608.92
789.768	26991.89
789.957	26987.79
790.145	26948.88
790.334	26434.84
790.523	26436.89
790.712	26582.29
790.9	26694.93
791.089	26492.18
791.278	26631.44
791.467	26471.7
791.655	26643.73
791.844	26942.74
792.033	26211.61
792.221	26299.67
792.41	26336.54
792.599	25945.37
792.787	26748.18
792.976	26430.74
793.164	26084.64
793.353	26109.21
793.541	26797.33
793.73	26303.77
793.918	26240.28
794.107	25965.85
794.295	26148.12
794.484	25885.98
794.672	25963.81
794.861	25677.09
795.049	26436.89
795.238	26006.81
795.426	25578.79
795.614	25949.47
795.803	26184.99
795.991	26043.68
796.179	25623.84
796.368	25779.49
796.556	26101.02
796.744	25629.99
796.932	25689.38
797.121	25244.97
797.309	25527.59
797.497	25902.37
797.685	25552.16
797.874	25615.65
798.062	25605.41
798.25	25761.06
798.438	25726.24
798.626	25566.5
798.814	25861.41
799.002	26076.44
799.19	25955.61
799.378	25541.92
799.566	25896.22
799.755	26047.77
799.943	25759.01
800.131	25380.14
800.318	25795.87
800.506	25500.97
800.694	25539.88
800.882	25492.77
801.07	25789.73
801.258	25357.61
801.446	25349.42
801.634	25056.56
801.822	25724.19
802.01	25613.6
802.197	25560.36
802.385	25824.54
802.573	25863.46
802.761	25384.23
802.949	25814.3
803.136	25455.91
803.324	25998.62
803.512	26164.51
803.699	25535.78
803.887	25543.97
804.075	26322.2
804.262	25826.59
804.45	25494.82
804.638	25392.42
804.825	25724.19
805.013	25560.36
805.201	25599.27
805.388	25586.98
805.576	25992.48
805.763	26500.37
805.951	25556.26
806.138	25726.24
806.326	26606.87
806.513	25777.44
806.701	25871.65
806.888	25918.75
807.075	26440.98
807.263	26586.39
807.45	25810.21
807.638	25799.97
807.825	26778.9
808.012	26027.29
808.2	25875.74
808.387	26109.21
808.574	26561.81
808.761	26524.95
808.949	26015.01
809.136	26146.08
809.323	26035.49
809.51	26117.4
809.698	26060.06
809.885	26137.88
810.072	26119.45
810.259	26766.61
810.446	26215.71
810.633	26053.92
810.82	26455.32
811.008	26424.6
811.195	26471.7
811.382	26191.13
811.569	26328.34
811.756	25976.09
811.943	26291.48
812.13	25881.89
812.317	26066.2
812.504	26359.06
812.691	26414.36
812.878	26096.92
813.064	26172.7
813.251	26164.51
813.438	25836.83
813.625	25797.92
813.812	25963.81
813.999	26164.51
814.186	26287.39
814.372	26066.2
814.559	26060.06
814.746	26551.57
814.933	25693.47
815.12	26023.2
815.306	25845.02
815.493	25877.79
815.68	25992.48
815.866	26279.19
816.053	26424.6
816.24	26555.67
816.426	26393.88
816.613	26117.4
816.799	26475.8
816.986	26326.3
817.173	25812.26
817.359	25984.29
817.546	26219.8
817.732	25683.23
817.919	25494.82
818.105	25847.07
818.292	25953.57
818.478	25963.81
818.665	26006.81
818.851	25666.85
819.037	26350.87
819.224	26037.53
819.41	25287.98
819.597	25394.47
819.783	26268.95
819.969	25867.55
820.156	25437.48
820.342	25713.95
820.528	26510.61
820.714	25842.98
820.901	25787.68
821.087	25599.27
821.273	26393.88
821.459	25662.76
821.646	25595.17
821.832	25627.94
822.018	25503.01
822.204	25158.95
822.39	25503.01
822.576	25539.88
822.762	25974.05
822.948	25486.63
823.134	25584.93
823.32	25103.66
823.507	25161
823.693	25761.06
823.879	25748.77
824.065	25218.35
824.25	25580.84
824.436	25400.62
824.622	25212.2
824.808	25388.33
824.994	25199.91
825.18	25005.36
825.366	25038.12
825.552	25181.48
825.738	25218.35
825.923	25486.63
826.109	25443.62
826.295	24874.29
826.481	24812.85
826.667	24915.25
826.852	25148.71
827.038	24835.38
827.224	25249.07
827.409	25462.05
827.595	24864.05
827.781	24810.8
827.966	25380.14
828.152	25271.59
828.338	24599.86
828.523	24151.35
828.709	24730.93
828.894	25097.52
829.08	24571.19
829.266	24610.1
829.451	24808.75
829.637	24511.8
829.822	24689.97
830.008	24229.18
830.193	24847.66
830.378	24618.29
830.564	24139.07
830.749	24126.78
830.935	24532.28
831.12	24239.42
831.305	24268.09
831.491	23911.74
831.676	24067.39
831.861	24487.22
832.047	24368.44
832.232	23958.85
832.417	24292.66
832.602	24290.62
832.788	24243.51
832.973	23962.94
833.158	23897.41
833.343	24395.06
833.528	24268.09
833.714	24079.68
833.899	24278.33
834.084	24479.03
834.269	24020.28
834.454	23801.15
834.639	24155.45
834.824	24079.68
835.009	24046.91
835.194	24061.24
835.379	24214.84
835.564	24554.8
835.749	23649.6
835.934	23602.5
836.119	24218.94
836.304	23737.66
836.489	23786.82
836.674	23754.05
836.859	23502.15
837.044	24089.92
837.228	23481.67
837.413	23319.88
837.598	23881.02
837.783	23676.23
837.968	23348.55
838.152	23106.89
838.337	22916.43
838.522	23704.9
838.707	23905.6
838.891	23438.66
839.076	23166.28
839.261	23563.59
839.445	23143.75
839.63	23219.53
839.815	23588.16
839.999	22965.58
840.184	22938.96
840.368	22992.2
840.553	23448.9
840.737	23442.76
840.922	22701.39
841.106	22848.85
841.291	23020.88
841.475	23006.54
841.66	22490.45
841.844	22613.33
842.029	23637.31
842.213	22648.15
842.397	22598.99
842.582	22672.72
842.766	23158.09
842.951	22977.87
843.135	22646.1
843.319	22697.3
843.504	22805.84
843.688	23203.14
843.872	22467.92
844.056	22519.12
844.241	22871.37
844.425	22316.37
844.609	22234.46
844.793	22443.35
844.977	22799.69
845.161	22572.37
845.346	22076.76
845.53	21747.04
845.714	22179.16
845.898	22848.85
846.082	21898.59
846.266	22191.45
846.45	22084.95
846.634	22287.7
846.818	21796.19
847.002	22359.38
847.186	22349.14
847.37	21974.36
847.554	22089.05
847.738	21693.79
847.922	22136.15
848.106	22109.53
848.29	21560.67
848.473	21779.81
848.657	21968.22
848.841	22244.7
849.025	21890.4
849.209	21345.64
849.392	22000.99
849.576	21871.96
849.76	21282.15
849.944	21654.88
850.127	22062.43
850.311	21304.68
850.495	21472.61
850.678	21310.82
850.862	21941.6
851.046	22011.23
851.229	21753.18
851.413	20962.67
851.596	21425.51
851.78	21693.79
851.964	21491.04
852.147	20960.62
852.331	21988.7
852.514	21562.72
852.698	21335.4
852.881	20940.14
853.065	21450.08
853.248	21345.64
853.431	21165.42
853.615	21419.36
853.798	21785.95
853.982	21497.19
854.165	21052.78
854.348	20874.6
854.532	21181.8
854.715	21165.42
854.898	20981.1
855.081	20905.32
855.265	21259.62
855.448	21271.91
855.631	20702.57
855.814	20804.97
855.997	21179.75
856.181	20567.41
856.364	20432.24
856.547	20278.65
856.73	20721.01
856.913	20637.04
857.096	20546.93
857.279	20559.22
857.462	20487.54
857.645	20712.81
857.828	20108.66
858.011	20354.42
858.194	20641.14
858.377	20731.25
858.56	20233.59
858.743	20356.47
858.926	20125.05
859.109	20583.79
859.292	20186.49
859.475	20227.45
859.658	20700.53
859.841	20563.31
860.023	20034.94
860.206	20000.12
860.389	20522.35
860.572	20479.35
860.755	19809.66
860.937	19780.99
861.12	19887.48
861.303	20075.9
861.486	19858.81
861.668	19836.28
861.851	20125.05
862.034	19920.25
862.216	19596.67
862.399	19221.89
862.581	19791.23
862.764	20096.38
862.947	19381.63
863.129	19244.42
863.312	19017.1
863.494	19981.69
863.677	19461.51
863.859	19225.99
864.042	19512.7
864.224	19875.2
864.406	19252.61
864.589	18924.94
864.771	19590.53
864.954	18757
865.136	19160.45
865.318	18705.81
865.501	19334.53
865.683	18935.18
865.865	18824.59
866.048	18863.5
866.23	19029.38
866.412	19082.63
866.594	18711.95
866.777	18961.8
866.959	19242.37
867.141	18881.93
867.323	18877.83
867.505	18793.87
867.687	19062.15
867.869	19158.41
868.052	18947.47
868.234	18726.28
868.416	19056.01
868.598	18992.52
868.78	18531.73
868.962	18511.25
869.144	19412.35
869.326	19291.52
869.508	18926.99
869.69	18867.59
869.872	18507.15
870.054	19246.47
870.236	18423.19
870.417	18230.68
870.599	18765.2
870.781	18941.32
870.963	18584.98
871.145	18548.11
871.327	18458
871.508	18871.69
871.69	18525.58
871.872	18371.99
872.054	18847.12
872.235	18836.88
872.417	18322.84
872.599	18283.92
872.78	18900.36
872.962	18640.27
873.144	18371.99
873.325	18343.31
873.507	18455.95
873.689	18242.96
873.87	18167.19
874.052	18355.6
874.233	18478.48
874.415	18558.35
874.596	18382.23
874.778	18173.33
874.959	18503.06
875.141	18806.16
875.322	18472.34
875.503	18222.48
875.685	18683.28
875.866	17868.19
876.048	18130.33
876.229	18138.52
876.41	18324.88
876.592	18482.58
876.773	18312.6
876.954	18017.69
877.136	18986.38
877.317	18355.6
877.498	18093.46
877.679	18363.79
877.86	18892.17
878.042	18347.41
878.223	18212.24
878.404	18662.8
878.585	18652.56
878.766	19236.23
878.947	18777.48
879.128	18748.81
879.309	18791.82
879.49	18775.44
879.672	18531.73
879.853	18789.77
880.034	18548.11
880.215	18748.81
880.396	18709.9
880.576	18736.52
880.757	18515.34
880.938	19383.68
881.119	18603.41
881.3	18474.38
881.481	18816.4
881.662	19682.69
881.843	18558.35
882.023	18675.09
882.204	19049.86
882.385	19180.93
882.566	19027.34
882.747	19150.21
882.927	19135.88
883.108	19115.4
883.289	19221.89
883.469	19051.91
883.65	19260.8
883.831	19340.68
884.011	19318.15
884.192	19428.74
884.373	20018.55
884.553	19600.77
884.734	19479.94
884.914	19631.49
885.095	20145.53
885.275	20188.53
885.456	19694.97
885.636	19445.12
885.817	19395.97
885.997	19498.37
886.178	19109.26
886.358	19469.7
886.538	19854.72
886.719	20360.56
886.899	19176.84
887.08	19465.6
887.26	19993.98
887.44	19481.99
887.621	19385.73
887.801	19307.91
887.981	20338.04
888.161	19926.39
888.342	19625.34
888.522	19557.76
888.702	20028.79
888.882	20098.42
889.062	19635.58
889.242	19369.35
889.423	20200.82
889.603	20039.03
889.783	19969.4
889.963	19713.41
890.143	19912.06
890.323	20024.7
890.503	19778.94
890.683	19492.23
890.863	19981.69
891.043	19717.5
891.223	19606.91
891.403	19740.03
891.583	19846.52
891.763	19477.89
891.943	19651.97
892.122	19408.26
892.302	19969.4
892.482	20051.32
892.662	19805.56
892.842	19834.24
893.022	20004.22
893.201	19969.4
893.381	20071.8
893.561	19481.99
893.741	20333.94
893.92	20051.32
894.1	19422.59
894.28	19625.34
894.459	20249.97
894.639	19920.25
894.819	19645.82
894.998	19817.85
895.178	20147.58
895.357	20108.66
895.537	19373.44
895.716	19561.86
895.896	19586.43
896.075	19770.75
896.255	19207.56
896.434	19066.25
896.614	19778.94
896.793	20055.42
896.973	19244.42
897.152	19072.39
897.331	19639.68
897.511	19754.37
897.69	19162.5
897.87	19172.74
898.049	19645.82
898.228	19297.67
898.407	19099.02
898.587	18974.09
898.766	18912.65
898.945	19070.34
899.124	18658.7
899.304	18791.82
899.483	19258.76
899.662	19451.27
899.841	18787.72
900.02	18453.91
900.199	19305.86
900.378	18922.89
900.557	18423.19
900.737	18410.9
900.916	18744.72
901.095	18926.99
901.274	18292.12
901.453	18144.66
901.632	18165.14
901.811	18228.63
901.989	17888.67
902.168	17989.02
902.347	18623.89
902.526	17941.91
902.705	17804.7
902.884	18171.29
903.063	18689.42
903.242	18146.71
903.42	17700.25
903.599	17483.17
903.778	18132.37
903.957	18359.7
904.135	17556.89
904.314	17485.22
904.493	17737.12
904.672	17618.33
904.85	17122.73
905.029	17003.94
905.207	17532.32
905.386	18189.72
905.565	16905.64
905.743	16967.08
905.922	17030.57
906.1	17225.12
906.279	16571.82
906.457	16469.42
906.636	16858.54
906.814	16580.01
906.993	16352.69
907.171	16600.49
907.35	16905.64
907.528	16911.78
907.707	16494
907.885	16014.77
908.063	16485.81
908.242	16238
908.42	15730.11
908.598	15742.39
908.777	16332.21
908.955	16170.42
909.133	15922.62
909.311	15420.86
909.49	16248.24
909.668	16086.45
909.846	16068.02
910.024	15730.11
910.202	16029.11
910.38	16184.76
910.559	15766.97
910.737	15764.92
910.915	16491.95
911.093	16516.53
911.271	16102.84
911.449	16633.26
911.627	16471.47
911.805	16743.85
911.983	16315.83
912.161	16264.63
912.339	16926.12
912.517	16979.37
912.695	16700.84
912.872	16422.32
913.05	17042.85
913.228	16864.68
913.406	16735.66
913.584	16680.36
913.762	16999.85
913.939	16752.04
914.117	16799.15
914.295	16422.32
914.473	16825.77
914.65	17313.19
914.828	16653.74
915.006	16537.01
915.184	16422.32
915.361	16795.05
915.539	16702.89
915.716	16872.87
915.894	17003.94
916.072	17014.18
916.249	16702.89
916.427	16717.23
916.604	16571.82
916.782	16719.28
916.959	16278.96
917.137	16238
917.314	16715.18
917.492	16489.9
917.669	16151.99
917.847	16448.94
918.024	16809.39
918.201	16293.3
918.379	16205.24
918.556	16201.14
918.733	16520.62
918.911	16344.5
919.088	16393.65
919.265	16080.31
919.442	16424.37
919.62	16139.7
919.797	16043.45
919.974	15828.41
920.151	16086.45
920.328	16018.87
920.506	15812.03
920.683	16178.61
920.86	15832.51
921.037	15990.2
921.214	15928.76
921.391	15715.77
921.568	16276.91
921.745	15877.56
921.922	15721.91
922.099	15615.42
922.276	16201.14
922.453	15809.98
922.63	15603.13
922.807	15646.14
922.984	15683
923.161	15476.16
923.338	15211.97
923.514	15340.99
923.691	15631.8
923.868	15449.53
924.045	15418.82
924.222	15015.37
924.399	15662.52
924.575	15601.08
924.752	15418.82
924.929	15431.1
925.105	15678.91
925.282	14892.49
925.459	15039.94
925.635	14927.3
925.812	15046.09
925.989	14968.26
926.165	14902.73
926.342	14978.5
926.518	14656.97
926.695	14992.84
926.871	14624.2
927.048	14519.76
927.224	15177.16
927.401	14665.16
927.577	14515.66
927.754	14486.99
927.93	15048.13
928.107	14486.99
928.283	14192.08
928.459	14613.96
928.636	14851.53
928.812	14599.63
928.988	14075.35
929.165	13876.69
929.341	14306.77
929.517	14609.87
929.693	14306.77
929.87	13794.78
930.046	14317.01
930.222	13934.04
930.398	13516.25
930.574	13755.86
930.751	13891.03
930.927	13827.54
931.103	13581.79
931.279	13684.19
931.455	13594.08
931.631	13583.84
931.807	13133.28
931.983	13186.53
932.159	13389.28
932.335	13610.46
932.511	13172.19
932.687	13045.22
932.863	13102.56
933.039	13186.53
933.215	12848.61
933.391	12684.78
933.566	12981.73
933.742	12924.39
933.918	12391.92
934.094	12281.33
934.27	12506.6
934.445	12539.37
934.621	12223.98
934.797	11914.74
934.973	12211.7
935.148	12023.28
935.324	11576.83
935.5	11382.27
935.675	11777.53
935.851	11601.4
936.027	11040.26
936.202	11001.35
936.378	11167.23
936.553	11075.07
936.729	10898.95
936.904	10429.96
937.08	10421.77
937.255	10237.45
937.431	10024.47
937.606	9946.64
937.782	9756.18
937.957	9784.85
938.133	9739.8
938.308	9256.48
938.483	9326.11
938.659	9094.69
938.834	9027.1
939.009	9027.1
939.185	8963.62
939.36	8611.37
939.535	8248.88
939.71	8603.18
939.886	8818.21
940.061	8887.84
940.236	8379.95
940.411	8099.38
940.586	8402.47
940.761	8457.77
940.937	8042.03
941.112	7796.28
941.287	8218.16
941.462	7919.15
941.637	7626.29
941.812	7661.11
941.987	7870
942.162	7558.71
942.337	7476.79
942.512	7405.11
942.687	7935.54
942.862	7681.59
943.037	7136.83
943.212	7155.26
943.386	7288.38
943.561	7579.19
943.736	7540.28
943.911	7642.68
944.086	7454.26
944.26	7671.35
944.435	7249.47
944.61	7276.09
944.785	7728.69
944.959	7824.95
945.134	7290.43
945.309	7222.84
945.483	7286.33
945.658	7614.01
945.833	6997.57
946.007	7194.17
946.182	7849.52
946.357	7282.24
946.531	7265.85
946.706	7235.13
946.88	7063.1
947.055	7513.66
947.229	7218.75
947.404	7269.95
947.578	7687.73
947.752	7439.93
947.927	7022.14
948.101	7130.69
948.276	7433.79
948.45	7687.73
948.624	7554.62
948.799	7353.91
948.973	7783.99
949.147	7263.8
949.321	7583.29
949.496	7556.66
949.67	7855.67
949.844	7644.73
950.018	7538.23
950.193	7544.38
950.367	8267.31
950.541	7753.27
950.715	7685.69
950.889	7962.16
951.063	7796.28
951.237	7956.02
951.411	7611.96
951.585	7458.36
951.759	7980.59
951.933	7956.02
952.107	7755.32
952.281	8126
952.455	8357.42
952.629	8314.41
952.803	7804.47
952.977	7870
953.151	8275.5
953.325	8158.77
953.499	7980.59
953.672	7822.9
953.846	7968.31
954.02	8173.1
954.194	7874.1
954.368	8070.7
954.541	8259.12
954.715	7870
954.889	8060.46
955.062	7798.32
955.236	8175.15
955.41	8164.91
955.583	8361.52
955.757	7925.3
955.93	8199.73
956.104	8019.5
956.278	8130.09
956.451	8150.57
956.625	8429.1
956.798	8822.31
956.972	8396.33
957.145	8173.1
957.319	8316.46
957.492	8238.64
957.665	8437.29
957.839	8181.29
958.012	8584.74
958.185	8408.62
958.359	8277.55
958.532	8447.53
958.705	8515.11
958.879	8449.58
959.052	8185.39
959.225	8009.26
959.398	8560.17
959.572	8492.59
959.745	8336.94
959.918	8404.52
960.091	8412.71
960.264	8556.07
960.438	8072.75
960.611	8252.97
960.784	8775.2
960.957	8302.12
961.13	8562.22
961.303	8119.85
961.476	8474.15
961.649	8562.22
961.822	8205.87
961.995	8232.49
962.168	8463.91
962.341	8252.97
962.514	8089.14
962.686	8316.46
962.859	8318.51
963.032	8494.63
963.205	8039.98
963.378	8017.46
963.551	8599.08
963.723	8349.23
963.896	8158.77
964.069	8193.58
964.242	8300.08
964.414	8486.44
964.587	8039.98
964.76	8244.78
964.932	8302.12
965.105	8427.05
965.278	8062.51
965.45	8220.21
965.623	8250.92
965.795	8517.16
965.968	8031.79
966.14	8019.5
966.313	8128.05
966.485	8119.85
966.658	7923.25
966.83	8181.29
967.003	8468.01
967.175	8392.23
967.348	7980.59
967.52	7880.24
967.692	8474.15
967.865	8179.25
968.037	7902.77
968.209	8169.01
968.382	8029.74
968.554	8238.64
968.726	7982.64
968.898	7915.06
969.071	8068.66
969.243	8082.99
969.415	7974.45
969.587	7906.87
969.759	8607.27
969.932	8199.73
970.104	8007.22
970.276	7441.98
970.448	7673.4
970.62	7956.02
970.792	7847.47
970.964	7898.67
971.136	8300.08
971.308	8015.41
971.48	7632.44
971.652	7468.6
971.824	8295.98
971.996	7599.67
972.168	7603.77
972.339	7755.32
972.511	8132.14
972.683	7667.25
972.855	7878.19
973.027	7585.33
973.199	7890.48
973.37	7710.26
973.542	7718.45
973.714	7614.01
973.886	7757.36
974.057	7937.59
974.229	7341.63
974.401	7599.67
974.572	7409.21
974.744	6893.12
974.915	7153.21
975.087	7382.59
975.259	8027.7
975.43	7562.81
975.602	7272
975.773	7251.52
975.945	7308.86
976.116	7714.36
976.288	7269.95
976.459	7521.85
976.63	7419.45
976.802	7659.06
976.973	7255.61
977.145	7396.92
977.316	7747.12
977.487	7181.89
977.659	7233.08
977.83	7171.65
978.001	7564.86
978.172	7360.06
978.344	6909.51
978.515	6901.31
978.686	7163.45
978.857	7427.64
979.028	7132.73
979.2	6737.48
979.371	7288.38
979.542	7226.94
979.713	7151.17
979.884	6577.73
980.055	6929.98
980.226	6850.11
980.397	6841.92
980.568	6581.83
980.739	7306.81
980.91	6854.21
981.081	7003.71
981.252	6770.24
981.423	7091.77
981.594	7102.01
981.765	6583.88
981.936	6825.54
982.106	7071.29
982.277	7126.59
982.448	6665.8
982.619	6788.68
982.79	6927.94
982.96	7046.72
983.131	6739.52
983.302	6385.23
983.472	6585.93
983.643	6968.9
983.814	6583.88
983.984	6463.05
984.155	6633.03
984.326	6954.56
984.496	6567.49
984.667	6395.47
984.837	6325.83
985.008	6874.69
985.178	6592.07
985.349	6254.16
985.519	6313.55
985.69	6186.57
985.86	6323.79
986.031	6157.9
986.201	6417.99
986.371	6641.22
986.542	6219.34
986.712	5959.25
986.882	6444.62
987.053	6409.8
987.223	6080.08
987.393	6088.27
987.563	5953.1
987.734	6397.51
987.904	6348.36
988.074	5957.2
988.244	6229.58
988.414	6030.93
988.585	5744.21
988.755	5936.72
988.925	5987.92
989.095	6461
989.265	5764.69
989.435	5797.46
989.605	6102.61
989.775	6106.7
989.945	5910.1
990.115	5520.98
990.285	5944.91
990.455	5901.9
990.625	5799.51
990.795	5547.61
990.965	6026.83
991.134	5430.87
991.304	5582.42
991.474	5588.57
991.644	5848.66
991.814	6037.07
991.984	5371.48
992.153	5502.55
992.323	5551.7
992.493	5531.22
992.662	5293.66
992.832	5561.94
993.002	5482.07
993.171	5537.37
993.341	5060.19
993.511	5512.79
993.68	5363.29
993.85	5488.21
994.019	5076.57
994.189	5027.42
994.358	5502.55
994.528	5199.45
994.697	4767.33
994.867	5113.44
995.036	5348.95
995.206	5117.53
995.375	5109.34
995.544	4986.46
995.714	5316.19
995.883	5176.92
996.052	4925.02
996.222	4734.56
996.391	5733.97
996.56	5244.51
996.73	4798.05
996.899	4642.4
997.068	5543.51
997.237	5064.29
997.406	4636.26
997.576	4724.32
997.745	5039.71
997.914	5117.53
998.083	4568.68
998.252	4748.9
998.421	5039.71
998.59	4755.04
998.759	4591.2
998.928	4662.88
999.097	5195.36
999.266	5025.37
999.435	4750.95
999.604	4281.96
999.773	5262.94
999.942	4679.27
1000.111	4503.14
1000.28	4269.67
1000.448	4474.47
1000.617	4497
1000.786	4607.59
1000.955	4324.97
1001.124	4851.3
1001.292	5185.12
1001.461	4241
1001.63	4220.52
1001.798	4931.17
1001.967	4851.3
1002.136	4136.56
1002.304	4271.72
1002.473	4597.35
1002.642	4460.13
1002.81	4425.32
1002.979	4257.39
1003.147	4593.25
1003.316	4980.32
1003.484	4138.6
1003.653	3978.86
1003.821	4789.86
1003.99	4232.81
1004.158	4003.44
1004.327	4294.25
1004.495	4449.89
1004.663	4097.64
1004.832	4046.44
1005	3810.93
1005.168	4427.37
1005.337	4163.18
1005.505	3872.37
1005.673	4066.92
1005.842	4206.19
1006.01	4224.62
1006.178	3827.31
1006.346	3759.73
1006.514	4226.67
1006.683	4298.35
1006.851	3708.53
1007.019	3849.84
1007.187	3843.7
1007.355	3702.39
1007.523	3497.59
1007.691	3468.92
1007.859	3706.48
1008.027	4157.04
1008.195	3622.52
1008.363	3554.93
1008.531	4001.39
1008.699	3769.97
1008.867	3407.48
1009.035	3587.7
1009.203	4046.44
1009.37	3761.78
1009.538	3542.64
1009.706	3847.79
1009.874	3810.93
1010.042	3704.43
1010.209	3311.22
1010.377	3382.9
1010.545	3831.41
1010.713	3659.38
1010.88	3165.82
1011.048	3360.38
1011.216	3507.83
1011.383	3847.79
1011.551	3167.87
1011.718	3141.24
1011.886	3823.22
1012.054	3446.39
1012.221	3266.17
1012.389	3251.83
1012.556	3444.34
1012.724	3970.67
1012.891	3196.54
1013.058	2895.49
1013.226	3532.4
1013.393	3528.31
1013.561	3030.65
1013.728	2993.79
1013.895	3503.73
1014.063	3415.67
1014.23	2823.81
1014.397	2774.66
1014.565	3438.2
1014.732	3057.28
1014.899	2963.07
1015.066	2770.56
1015.233	3294.84
1015.401	3243.64
1015.568	2956.93
1015.735	2858.62
1015.902	3167.87
1016.069	3165.82
1016.236	2754.18
1016.403	2653.83
1016.57	2815.62
1016.737	3065.47
1016.904	2702.98
1017.071	2504.32
1017.238	2866.81
1017.405	3198.59
1017.572	2684.55
1017.739	2719.36
1017.906	3040.89
1018.073	3108.48
1018.24	2539.14
1018.407	2768.51
1018.573	3096.19
1018.74	2715.27
1018.907	2539.14
1019.074	2225.8
1019.241	3028.6
1019.407	2883.2
1019.574	2436.74
1019.741	2358.92
1019.907	2733.7
1020.074	2846.34
1020.241	2242.18
1020.407	2336.39
1020.574	2799.23
1020.74	2877.05
1020.907	2412.17
1021.073	2285.19
1021.24	3217.02
1021.406	2985.6
1021.573	2223.75
1021.739	2301.58
1021.906	2868.86
1022.072	2576
1022.239	2131.59
1022.405	2305.67
1022.571	2520.71
1022.738	2426.5
1022.904	2178.7
1023.07	2373.25
1023.237	2662.02
1023.403	2721.41
1023.569	2094.73
1023.735	2270.86
1023.902	2436.74
1024.068	2418.31
1024.234	1998.48
1024.4	2000.52
1024.566	2522.76
1024.732	2696.83
1024.898	1920.65
1025.065	1926.8
1025.231	2610.82
1025.397	2356.87
1025.563	2115.21
1025.729	1992.33
1025.895	1926.8
1026.061	2119.31
1026.227	1928.85
1026.392	2010.76
1026.558	2457.22
1026.724	2381.45
1026.89	1918.61
1027.056	1971.85
1027.222	2324.1
1027.388	2125.45
1027.553	1955.47
1027.719	1765.01
1027.885	2569.86
1028.051	2225.8
1028.216	1656.47
1028.382	1803.92
1028.548	2303.62
1028.713	2018.96
1028.879	1676.95
1029.045	1875.6
1029.21	2492.04
1029.376	2375.3
1029.541	1857.17
1029.707	1693.33
1029.873	2352.77
1030.038	2227.85
1030.204	1719.95
1030.369	1830.54
1030.534	2201.23
1030.7	1887.89
1030.865	1754.77
1031.031	1576.59
1031.196	2002.57
1031.361	2043.53
1031.527	1603.22
1031.692	1525.4
1031.857	1629.84
1032.023	1914.51
1032.188	1670.8
1032.353	1750.67
1032.518	2199.18
1032.684	2104.97
1032.849	1468.05
1033.014	1535.64
1033.179	2129.55
1033.344	1986.19
1033.509	1625.75
1033.674	1670.8
1033.839	2078.35
1034.004	2086.54
1034.17	1590.93
1034.335	1382.04
1034.5	1883.79
1034.664	1754.77
1034.829	1527.44
1034.994	1480.34
1035.159	1996.43
1035.324	1672.85
1035.489	1515.16
1035.654	1392.28
1035.819	2193.03
1035.984	1889.93
1036.148	1427.09
1036.313	1408.66
1036.478	1896.08
1036.643	1687.18
1036.807	1412.76
1036.972	1359.51
1037.137	2027.15
1037.301	1709.71
1037.466	1248.92
1037.631	1435.28
1037.795	1975.95
1037.96	1773.2
1038.124	1461.91
1038.289	1234.58
1038.454	1742.48
1038.618	1851.02
1038.783	1365.65
1038.947	1455.76
1039.111	1609.36
1039.276	1443.48
1039.44	1150.62
1039.605	1799.82
1039.769	1521.3
1039.933	1574.55
1040.098	1293.97
1040.262	1451.67
1040.426	1900.17
1040.591	1674.9
1040.755	1089.18
1040.919	1189.53
1041.083	1609.36
1041.248	1509.01
1041.412	999.07
1041.576	1242.78
1041.74	1457.81
1041.904	1691.28
1042.068	1109.66
1042.232	1201.82
1042.397	1625.75
1042.561	1566.35
1042.725	896.67
1042.889	1218.2
1043.053	1578.64
1043.217	1599.12
1043.381	1271.45
1043.544	939.68
1043.708	1603.22
1043.872	1142.43
1044.036	886.43
1044.2	974.49
1044.364	1570.45
1044.528	1771.15
1044.691	4005.49
1044.855	929.44
1045.019	1627.79
1045.183	1500.82
1045.346	1097.37
1045.51	900.76
1045.674	1347.22
1045.837	1521.3
1046.001	986.78
1046.165	943.77
1046.328	1887.89
1046.492	1408.66
1046.655	1158.81
1046.819	1076.89
1046.983	1103.51
1047.146	1433.24
1047.31	970.4
1047.473	800.41
1047.636	1279.64
1047.8	1087.13
1047.963	890.53
1048.127	849.57
1048.29	1072.79
