Data from Hydrogel_Ink_Intensity_Test_1_USB4F045381__47__00047.txt Node

Date: Mon Jul 31 10:47:49 EDT 2023
User: mmckonesweet
Spectrometer: USB4F04538
Trigger mode: 4
Integration Time (sec): 9.000000E-1
Scans to average: 1
Electric dark correction enabled: true
Nonlinearity correction enabled: false
Boxcar width: 0
XAxis mode: Wavelengths
Number of Pixels in Spectrum: 3648
>>>>>Begin Spectral Data<<<<<
345.52	-986.27
345.736	-986.27
345.952	-986.27
346.168	-1039.51
346.384	-1031.32
346.6	-74.92
346.816	-259.24
347.032	-187.56
347.248	269.14
347.464	-201.9
347.68	-187.56
347.896	74.58
348.112	414.54
348.328	-76.97
348.544	-33.96
348.76	-5.29
348.975	269.14
349.191	-195.75
349.407	-208.04
349.623	-23.72
349.839	-109.74
350.055	-83.11
350.27	-11.43
350.486	176.98
350.702	398.16
350.918	201.55
351.133	-271.53
351.349	168.79
351.565	359.25
351.781	-165.03
351.996	123.73
352.212	336.72
352.428	-134.31
352.644	-195.75
352.859	-183.46
353.075	281.43
353.291	-17.58
353.506	-136.36
353.722	-156.84
353.938	-27.82
354.153	508.75
354.369	121.68
354.584	-162.98
354.8	281.43
355.016	-312.49
355.231	-222.38
355.447	-107.69
355.662	148.31
355.878	727.88
356.093	-275.62
356.309	82.77
356.524	-238.76
356.74	217.94
356.955	-177.32
357.171	-58.54
357.386	119.64
357.602	-230.57
357.817	-148.65
358.033	-134.31
358.248	398.16
358.464	181.07
358.679	-119.98
358.895	-341.16
359.11	47.96
359.325	306
359.541	232.27
359.756	31.57
359.972	-302.25
360.187	248.66
360.402	-195.75
360.618	-146.6
360.833	1073.99
361.048	166.74
361.264	-160.94
361.479	-3.24
361.694	123.73
361.909	226.13
362.125	-160.94
362.34	-50.35
362.555	310.1
362.77	101.2
362.986	-255.14
363.201	-128.17
363.416	242.51
363.631	93.01
363.847	-117.93
364.062	-91.31
364.277	199.51
364.492	170.83
364.707	-72.87
364.922	-335.01
365.138	250.71
365.353	404.3
365.568	-189.61
365.783	-152.74
365.998	121.68
366.213	680.78
366.428	-187.56
366.643	68.44
366.858	281.43
367.073	273.23
367.288	-83.11
367.503	-234.66
367.718	140.12
367.933	373.58
368.148	-281.77
368.363	-79.02
368.578	-38.06
368.793	426.83
369.008	-124.07
369.223	-154.79
369.438	168.79
369.653	508.75
369.868	-185.51
370.083	-169.13
370.298	68.44
370.513	408.4
370.728	146.26
370.943	-103.59
371.157	-66.73
371.372	553.8
371.587	-210.09
371.802	-181.42
372.017	119.64
372.232	537.42
372.446	60.24
372.661	-236.71
372.876	281.43
373.091	191.31
373.306	-72.87
373.52	-152.74
373.735	-89.26
373.95	453.45
374.165	-50.35
374.379	-119.98
374.594	-23.72
374.809	64.34
375.023	123.73
375.238	-162.98
375.453	285.52
375.667	-287.91
375.882	-185.51
376.097	-62.63
376.311	37.72
376.526	52.05
376.741	-167.08
376.955	111.44
377.17	605
377.384	611.15
377.599	68.44
377.813	-222.38
378.028	539.47
378.242	217.94
378.457	-46.25
378.672	-271.53
378.886	176.98
379.101	43.86
379.315	-271.53
379.53	-144.55
379.744	316.24
379.958	277.33
380.173	-36.01
380.387	-109.74
380.602	230.23
380.816	-15.53
381.031	-134.31
381.245	-128.17
381.459	301.9
381.674	2839.34
381.888	-113.83
382.103	127.83
382.317	-58.54
382.531	504.65
382.746	13.14
382.96	-154.79
383.174	-25.77
383.388	502.61
383.603	199.51
383.817	-185.51
384.031	234.32
384.246	521.04
384.46	43.86
384.674	351.06
384.888	95.06
385.103	138.07
385.317	-201.9
385.531	58.2
385.745	437.07
385.959	469.84
386.174	-76.97
386.388	-154.79
386.602	150.36
386.816	-60.59
387.03	-48.3
387.244	-40.11
387.458	146.26
387.672	461.65
387.887	-179.37
388.101	-136.36
388.315	463.69
388.529	262.99
388.743	-33.96
388.957	-158.89
389.171	375.63
389.385	-60.59
389.599	-3.24
389.813	119.64
390.027	199.51
390.241	734.03
390.455	-31.91
390.669	27.48
390.883	27.48
391.097	496.46
391.311	213.84
391.525	-72.87
391.738	322.38
391.952	230.23
392.166	127.83
392.38	-76.97
392.594	430.93
392.808	371.54
393.022	43.86
393.236	45.91
393.449	344.91
393.663	314.19
393.877	-261.29
394.091	68.44
394.305	-11.43
394.518	101.2
394.732	-107.69
394.946	-99.5
395.16	609.1
395.373	203.6
395.587	-36.01
395.801	-99.5
396.015	426.83
396.228	351.06
396.442	-85.16
396.656	-173.22
396.869	514.89
397.083	656.2
397.297	119.64
397.51	2.9
397.724	576.33
397.938	308.05
398.151	-150.7
398.365	-124.07
398.578	412.5
398.792	537.42
399.005	127.83
399.219	93.01
399.433	244.56
399.646	283.47
399.86	174.93
400.073	166.74
400.287	394.06
400.5	172.88
400.714	187.22
400.927	80.72
401.141	359.25
401.354	1252.16
401.567	326.48
401.781	-95.4
401.994	435.02
402.208	793.42
402.421	88.92
402.635	78.68
402.848	162.64
403.061	482.13
403.275	158.55
403.488	-3.24
403.701	682.83
403.915	486.22
404.128	232.27
404.341	54.1
404.555	424.78
404.768	250.71
404.981	207.7
405.195	41.81
405.408	723.79
405.621	408.4
405.834	226.13
406.048	-17.58
406.261	619.34
406.474	658.25
406.687	-42.15
406.9	256.85
407.114	240.47
407.327	449.36
407.54	-66.73
407.753	-81.07
407.966	84.82
408.179	488.27
408.392	15.19
408.605	-83.11
408.819	430.93
409.032	346.96
409.245	66.39
409.458	320.34
409.671	420.69
409.884	609.1
410.097	-173.22
410.31	281.43
410.523	428.88
410.736	183.12
410.949	136.02
411.162	172.88
411.375	729.93
411.588	615.24
411.801	228.18
412.014	70.48
412.227	283.47
412.44	191.31
412.653	90.96
412.865	389.97
413.078	531.28
413.291	521.04
413.504	228.18
413.717	45.91
413.93	475.98
414.143	121.68
414.356	158.55
414.568	-48.3
414.781	590.67
414.994	392.02
415.207	287.57
415.42	168.79
415.632	557.9
415.845	910.15
416.058	101.2
416.271	66.39
416.483	385.87
416.696	834.38
416.909	181.07
417.121	148.31
417.334	592.72
417.547	791.37
417.759	72.53
417.972	162.64
418.185	244.56
418.397	551.76
418.61	117.59
418.823	84.82
419.035	807.75
419.248	437.07
419.46	273.23
419.673	301.9
419.885	537.42
420.098	443.21
420.311	170.83
420.523	-58.54
420.736	562
420.948	396.11
421.161	219.99
421.373	133.97
421.586	543.57
421.798	267.09
422.01	-17.58
422.223	310.1
422.435	396.11
422.648	627.53
422.86	265.04
423.073	158.55
423.285	670.54
423.497	199.51
423.71	308.05
423.922	234.32
424.134	686.92
424.347	815.94
424.559	502.61
424.771	471.89
424.984	416.59
425.196	551.76
425.408	97.11
425.621	88.92
425.833	750.41
426.045	852.81
426.257	170.83
426.47	306
426.682	609.1
426.894	658.25
427.106	246.61
427.318	387.92
427.531	392.02
427.743	654.16
427.955	332.62
428.167	789.32
428.379	652.11
428.591	514.89
428.804	459.6
429.016	254.8
429.228	471.89
429.44	564.04
429.652	398.16
429.864	211.79
430.076	523.09
430.288	586.57
430.5	322.38
430.712	469.84
430.924	793.42
431.136	652.11
431.348	174.93
431.56	273.23
431.772	650.06
431.984	484.17
432.196	301.9
432.408	359.25
432.62	389.97
432.832	617.29
433.044	658.25
433.256	498.51
433.468	678.73
433.679	310.1
433.891	262.99
434.103	641.87
434.315	973.64
434.527	865.1
434.739	576.33
434.95	590.67
435.162	869.19
435.374	516.94
435.586	539.47
435.798	471.89
436.009	344.91
436.221	648.01
436.433	420.69
436.645	424.78
436.856	594.76
437.068	1024.84
437.28	469.84
437.491	713.55
437.703	846.66
437.915	822.09
438.126	414.54
438.338	777.03
438.55	725.83
438.761	846.66
438.973	502.61
439.184	439.12
439.396	754.51
439.608	893.77
439.819	430.93
440.031	566.09
440.242	975.69
440.454	838.47
440.665	596.81
440.877	764.75
441.088	840.52
441.3	744.27
441.511	330.58
441.723	437.07
441.934	875.34
442.146	854.86
442.357	719.69
442.569	758.6
442.78	887.62
442.991	1219.39
443.203	936.78
443.414	555.85
443.626	1106.76
443.837	645.96
444.048	422.73
444.26	639.82
444.471	883.53
444.682	1041.22
444.894	451.41
445.105	469.84
445.316	1090.37
445.528	971.59
445.739	715.59
445.95	609.1
446.161	863.05
446.373	1049.41
446.584	748.36
446.795	719.69
447.006	1039.17
447.217	1325.89
447.429	457.55
447.64	613.2
447.851	1174.34
448.062	879.43
448.273	414.54
448.484	582.48
448.695	1008.45
448.907	887.62
449.118	748.36
449.329	940.87
449.54	764.75
449.751	746.31
449.962	738.12
450.173	691.02
450.384	1196.87
450.595	1256.26
450.806	650.06
451.017	783.18
451.228	1276.74
451.439	1227.59
451.65	770.89
451.861	555.85
452.072	789.32
452.283	940.87
452.494	996.17
452.705	701.26
452.915	1495.87
453.126	1012.55
453.337	785.23
453.548	643.92
453.759	1362.75
453.97	1616.7
454.181	1106.76
454.391	742.22
454.602	1141.57
454.813	1219.39
455.024	1004.36
455.235	707.4
455.445	1151.81
455.656	1221.44
455.867	1069.89
456.078	854.86
456.288	1006.41
456.499	1280.83
456.71	867.14
456.921	1155.91
457.131	1239.87
457.342	1270.59
457.553	1006.41
457.763	1014.6
457.974	1399.62
458.184	1319.75
458.395	838.47
458.606	797.51
458.816	1459.01
459.027	1712.96
459.237	1203.01
459.448	854.86
459.659	1518.4
459.869	1807.16
460.08	926.54
460.29	1209.15
460.501	1788.73
460.711	1223.49
460.922	969.54
461.132	1135.43
461.343	2079.54
461.553	985.93
461.764	1108.8
461.974	1092.42
462.184	1592.13
462.395	1575.74
462.605	1325.89
462.816	1053.51
463.026	1518.4
463.236	1739.58
463.447	1071.94
463.657	1178.44
463.867	1581.89
464.078	1436.48
464.288	1270.59
464.498	1446.72
464.709	1616.7
464.919	1469.25
465.129	1420.1
465.339	1272.64
465.55	1772.35
465.76	1690.43
465.97	1444.67
466.18	1397.57
466.391	1798.97
466.601	1706.81
466.811	1395.52
467.021	1315.65
467.231	1837.88
467.441	1942.33
467.651	1526.59
467.862	1215.3
468.072	1796.92
468.282	2093.88
468.492	1506.11
468.702	1755.96
468.912	1964.86
469.122	2458.42
469.332	1772.35
469.542	1610.56
469.752	2128.69
469.962	1938.23
470.172	1618.75
470.382	1620.8
470.592	2165.56
470.802	2259.76
471.012	1868.6
471.222	1817.4
471.432	2313.01
471.642	2304.82
471.852	2009.91
472.062	1874.74
472.272	2061.11
472.482	1966.9
472.691	1792.83
472.901	1891.13
473.111	2265.91
473.321	2802.47
473.531	2011.96
473.741	2122.55
473.95	2448.18
474.16	2491.18
474.37	2210.61
474.58	1983.29
474.79	2919.21
474.999	2675.5
475.209	2159.41
475.419	2313.01
475.628	2360.11
475.838	2954.02
476.048	2470.7
476.258	2388.78
476.467	2941.74
476.677	2546.48
476.886	2673.45
477.096	2698.03
477.306	2632.49
477.515	3109.67
477.725	2657.07
477.935	2652.97
478.144	3228.45
478.354	2741.04
478.563	2560.81
478.773	2718.51
478.982	3207.97
479.192	3222.31
479.401	2898.73
479.611	2861.87
479.82	3070.76
480.03	3273.51
480.239	2949.93
480.449	2896.68
480.658	3576.61
480.868	3011.37
481.077	3156.77
481.287	3074.85
481.496	3384.1
481.705	3756.83
481.915	3398.43
482.124	3398.43
482.333	3369.76
482.543	3775.26
482.752	3447.58
482.961	3212.07
483.171	3818.27
483.38	3615.52
483.589	3511.07
483.799	3316.51
484.008	3699.48
484.217	3887.9
484.426	3529.5
484.636	3457.82
484.845	3836.7
485.054	3500.83
485.263	3830.55
485.472	3715.87
485.682	4240.15
485.891	4043.54
486.1	3636
486.309	3578.65
486.518	4117.27
486.727	4383.51
486.936	3730.2
487.146	3998.49
487.355	4430.61
487.564	3887.9
487.773	3953.43
487.982	3953.43
488.191	4080.41
488.4	4410.13
488.609	3914.52
488.818	4088.6
489.027	4860.68
489.236	4705.04
489.445	4225.81
489.654	4031.26
489.863	4750.09
490.072	4729.61
490.281	4690.7
490.49	4459.28
490.698	4944.65
490.907	4881.16
491.116	4555.54
491.325	4162.33
491.534	5061.38
491.743	4762.38
491.952	4608.78
492.16	4600.59
492.369	4823.82
492.578	5171.97
492.787	4768.52
492.996	4612.88
493.204	4881.16
493.413	5432.07
493.622	4678.41
493.831	4500.24
494.039	5540.61
494.248	4682.51
494.457	4850.44
494.665	4625.17
494.874	5104.39
495.083	5612.29
495.291	4942.6
495.5	4844.3
495.709	5380.87
495.917	5239.56
496.126	5102.34
496.335	4995.85
496.543	5333.76
496.752	5325.57
496.96	5341.96
497.169	5094.15
497.377	5198.6
497.586	5544.7
497.794	5331.72
498.003	5069.58
498.211	5364.48
498.42	5804.8
498.628	5313.28
498.837	5143.3
499.045	5624.58
499.254	5649.15
499.462	5442.31
499.671	5499.65
499.879	6116.09
500.087	5962.49
500.296	5360.39
500.504	5477.12
500.713	5794.56
500.921	6419.19
501.129	5466.88
501.338	5563.14
501.546	6062.84
501.754	5970.68
501.962	5597.95
502.171	5757.69
502.379	6259.45
502.587	6445.81
502.795	5827.32
503.004	5647.1
503.212	5978.87
503.42	6265.59
503.628	5872.38
503.837	5925.63
504.045	6185.72
504.253	6560.5
504.461	5819.13
504.669	5688.06
504.877	6163.19
505.085	6638.32
505.294	5993.21
505.502	6243.06
505.71	6238.97
505.918	6425.33
506.126	5944.06
506.334	5980.92
506.542	6290.17
506.75	6396.66
506.958	6007.55
507.166	6036.22
507.374	6275.83
507.582	6857.45
507.79	6290.17
507.998	6105.85
508.206	6617.84
508.414	6417.14
508.622	6339.32
508.83	6314.74
509.037	7072.49
509.245	6400.76
509.453	6320.88
509.661	6329.08
509.869	6879.98
510.077	6621.94
510.285	6556.4
510.492	6255.35
510.7	7394.02
510.908	6738.67
511.116	6482.67
511.324	6454
511.531	6933.23
511.739	7084.78
511.947	6908.65
512.155	6753.01
512.362	6814.45
512.57	6714.09
512.778	6619.89
512.985	6433.52
513.193	7262.95
513.401	7387.88
513.608	6789.87
513.816	6750.96
514.024	7170.79
514.231	7244.52
514.439	6556.4
514.646	6861.55
514.854	7228.14
515.061	7482.08
515.269	6740.72
515.477	6947.56
515.684	6925.04
515.892	7484.13
516.099	6609.65
516.307	6685.42
516.514	7414.5
516.722	7588.58
516.929	6877.93
517.136	6894.32
517.344	7582.43
517.551	7586.53
517.759	7078.63
517.966	6963.95
518.173	7381.73
518.381	7455.46
518.588	7338.73
518.796	7150.31
519.003	7652.06
519.21	7633.63
519.418	7260.9
519.625	7607.01
519.832	7559.91
520.039	7932.64
520.247	7353.06
520.454	7254.76
520.661	7662.3
520.868	7617.25
521.076	7420.64
521.283	7518.95
521.49	8198.87
521.697	7785.18
521.904	7484.13
522.112	7566.05
522.319	8094.43
522.526	7979.74
522.733	7686.88
522.94	7580.39
523.147	7754.46
523.354	8096.47
523.561	7455.46
523.768	7709.41
523.975	8102.62
524.183	8000.22
524.39	7736.03
524.597	7520.99
524.804	8014.56
525.011	7750.37
525.218	7768.8
525.425	7918.3
525.632	8291.03
525.838	7932.64
526.045	7805.66
526.252	7901.92
526.459	9364.17
526.666	8884.94
526.873	7736.03
527.08	7799.52
527.287	8579.79
527.494	8567.51
527.701	7877.34
527.907	7951.07
528.114	8401.62
528.321	8239.83
528.528	8002.27
528.735	8047.32
528.941	8276.7
529.148	8184.54
529.355	7959.26
529.562	8280.79
529.768	8850.13
529.975	8299.22
530.182	8258.26
530.388	8180.44
530.595	8813.26
530.802	8413.91
531.008	8534.74
531.215	8297.17
531.422	9091.79
531.628	9441.99
531.835	8602.32
532.042	8409.81
532.248	8682.19
532.455	8780.5
532.661	8432.34
532.868	8399.57
533.074	8966.86
533.281	9210.57
533.487	8743.63
533.694	8450.77
533.9	8749.78
534.107	8825.55
534.313	8647.38
534.52	8819.41
534.726	8995.53
534.933	9476.8
535.139	8684.24
535.345	8600.27
535.552	9036.49
535.758	9102.03
535.965	8839.89
536.171	8600.27
536.377	9423.56
536.584	9482.95
536.79	8973
536.996	9226.95
537.203	9284.3
537.409	9401.03
537.615	8864.46
537.821	9401.03
538.028	9685.7
538.234	9452.23
538.44	9079.5
538.646	9048.78
538.853	9523.91
539.059	9349.83
539.265	9634.5
539.471	8880.85
539.677	9329.35
539.883	9407.17
540.09	9091.79
540.296	9702.08
540.502	9554.63
540.708	9355.97
540.914	9136.84
541.12	9595.59
541.326	9740.99
541.532	9747.14
541.738	9429.7
541.944	9411.27
542.15	10019.52
542.356	9738.94
542.562	9456.33
542.768	9587.4
542.974	10390.2
543.18	10463.93
543.386	9740.99
543.592	9444.04
543.798	10152.63
544.004	10259.13
544.21	9743.04
544.415	9870.01
544.621	10144.44
544.827	10240.7
545.033	9444.04
545.239	9999.04
545.445	9910.97
545.651	10203.83
545.856	9843.39
546.062	10054.33
546.268	10003.13
546.474	10152.63
546.679	9675.46
546.885	9847.49
547.091	9931.45
547.297	10541.75
547.502	10025.66
547.708	9722.56
547.914	10029.76
548.119	10216.12
548.325	9964.22
548.531	9894.59
548.736	10465.97
548.942	9800.38
549.147	9667.27
549.353	10289.85
549.559	10724.02
549.764	10443.45
549.97	9859.77
550.175	10048.19
550.381	10465.97
550.586	10177.21
550.792	10379.96
550.997	10502.84
551.203	10496.69
551.408	10963.63
551.614	10130.11
551.819	10265.27
552.025	10818.22
552.23	11094.7
552.435	10242.75
552.641	10791.6
552.846	10676.91
553.052	11016.88
553.257	10476.21
553.462	10238.65
553.668	10398.39
553.873	11049.64
554.078	10490.55
554.283	10547.89
554.489	11090.6
554.694	11004.59
554.899	10492.6
555.105	10775.22
555.31	10928.81
555.515	11311.78
555.72	10965.68
555.925	10578.61
556.131	11176.62
556.336	10840.75
556.541	10492.6
556.746	10734.26
556.951	11551.4
557.156	11324.07
557.361	11006.64
557.567	11137.71
557.772	11774.63
557.977	11324.07
558.182	10812.08
558.387	11074.22
558.592	11059.88
558.797	11492.01
559.002	11029.17
559.207	11133.61
559.412	11195.05
559.617	11573.92
559.822	11061.93
560.027	10945.2
560.232	11418.28
560.437	11344.55
560.642	10779.31
560.847	11080.36
561.051	11518.63
561.256	11516.58
561.461	11061.93
561.666	11150
561.871	11625.12
562.076	11565.73
562.281	11000.49
562.485	10889.9
562.69	11530.92
562.895	11682.47
563.1	11123.37
563.305	11258.54
563.509	11729.57
563.714	11770.53
563.919	10881.71
564.123	11252.39
564.328	11610.79
564.533	11893.41
564.737	11405.99
564.942	11094.7
565.147	12081.82
565.351	12163.74
565.556	11465.38
565.761	11424.42
565.965	11778.72
566.17	11311.78
566.374	11186.86
566.579	11440.81
566.784	11743.91
566.988	11565.73
567.193	11315.88
567.397	11549.35
567.602	11397.8
567.806	11612.84
568.011	11797.15
568.215	11651.75
568.42	11834.02
568.624	11776.67
568.828	11475.62
569.033	11760.29
569.237	12255.9
569.442	12171.93
569.646	11356.84
569.85	11596.45
570.055	11817.63
570.259	12055.2
570.463	11840.16
570.668	11807.39
570.872	11881.12
571.076	11991.71
571.281	12143.26
571.485	11997.85
571.689	12096.16
571.893	12104.35
572.098	12159.64
572.302	11811.49
572.506	12413.59
572.71	12165.79
572.914	11741.86
573.119	11985.57
573.323	12602.01
573.527	12657.3
573.731	11995.81
573.935	11893.41
574.139	12429.98
574.343	12001.95
574.547	11874.98
574.751	12192.41
574.955	12554.9
575.159	12677.78
575.364	11932.32
575.568	12014.24
575.772	12212.89
575.976	12630.68
576.18	12012.19
576.383	11850.4
576.587	12614.29
576.791	12608.15
576.995	11856.54
577.199	11991.71
577.403	12817.04
577.607	12915.34
577.811	12419.74
578.015	12225.18
578.219	12640.92
578.422	12995.22
578.626	12513.94
578.83	12735.12
579.034	12792.47
579.238	12507.8
579.442	12489.37
579.645	12884.62
579.849	12833.43
580.053	12948.11
580.257	12489.37
580.46	12495.51
580.664	12896.91
580.868	13144.72
581.071	12892.82
581.275	12724.88
581.479	12620.44
581.682	12898.96
581.886	12548.76
582.09	12610.2
582.293	13302.41
582.497	13138.57
582.7	13048.46
582.904	12790.42
583.107	13296.27
583.311	12923.54
583.515	12647.06
583.718	12819.09
583.922	13240.97
584.125	13298.31
584.329	12552.85
584.532	12788.37
584.735	13503.11
584.939	13294.22
585.142	12579.48
585.346	12753.55
585.549	13177.48
585.753	13126.29
585.956	13009.55
586.159	12962.45
586.363	13644.42
586.566	13494.92
586.769	12970.64
586.973	13011.6
587.176	13814.4
587.379	13705.86
587.582	13376.14
587.786	13369.99
587.989	13505.16
588.192	14164.61
588.395	13042.32
588.599	13556.36
588.802	13701.76
589.005	13568.65
589.208	13167.24
589.411	13195.92
589.615	13609.61
589.818	14121.6
590.021	13466.25
590.224	13634.18
590.427	13914.75
590.63	13810.31
590.833	13419.14
591.036	13353.61
591.239	13662.85
591.442	13609.61
591.645	13441.67
591.848	13578.89
592.051	13783.68
592.254	14307.96
592.457	13820.55
592.66	13654.66
592.863	13820.55
593.066	14027.39
593.269	13736.58
593.472	13877.89
593.675	13767.3
593.878	14183.04
594.081	13824.64
594.284	13570.69
594.486	14113.41
594.689	14142.08
594.892	13650.57
595.095	13568.65
595.298	14209.66
595.5	13836.93
595.703	14105.21
595.906	13900.42
596.109	14479.99
596.311	14539.38
596.514	13648.52
596.717	13990.53
596.92	14314.11
597.122	14422.65
597.325	13687.43
597.528	13857.41
597.73	14875.25
597.933	14342.78
598.136	13914.75
598.338	13724.29
598.541	14479.99
598.743	14762.61
598.946	14056.06
599.148	14232.19
599.351	14477.94
599.554	14738.04
599.756	13933.18
599.959	14316.15
600.161	14770.8
600.363	14842.48
600.566	14357.11
600.768	14195.32
600.971	14959.22
601.173	14690.93
601.376	14170.75
601.578	14344.83
601.78	14682.74
601.983	15131.25
602.185	14439.03
602.388	14699.13
602.59	14834.29
602.792	14772.85
602.995	14617.21
603.197	14330.49
603.399	14953.07
603.601	14742.13
603.804	14221.95
604.006	14357.11
604.208	14482.04
604.41	14234.24
604.613	14668.41
604.815	14445.18
605.017	15346.28
605.219	14688.89
605.421	14729.84
605.623	14555.77
605.826	14869.11
606.028	15284.84
606.23	14455.42
606.432	14670.45
606.634	15239.79
606.836	14979.7
607.038	14168.7
607.24	14504.57
607.442	14934.64
607.644	15049.33
607.846	14600.82
608.048	14557.82
608.25	15211.12
608.452	14801.52
608.654	14557.82
608.856	14236.28
609.058	14877.3
609.26	15006.32
609.462	14682.74
609.664	14621.3
609.866	15268.46
610.067	15139.44
610.269	14688.89
610.471	14400.12
610.673	14885.49
610.875	15155.82
611.077	14662.26
611.278	14840.43
611.48	14991.98
611.682	15442.54
611.884	14914.16
612.085	14994.03
612.287	14754.42
612.489	14946.93
612.69	14604.92
612.892	15250.03
613.094	15508.07
613.295	15032.94
613.497	14811.76
613.699	14766.71
613.9	15227.5
614.102	15360.62
614.304	15098.48
614.505	14715.51
614.707	15254.12
614.908	14920.31
615.11	14592.63
615.311	14903.92
615.513	15325.8
615.714	15616.62
615.916	14996.08
616.117	14779
616.319	15182.45
616.52	15135.34
616.722	14856.82
616.923	14887.54
617.124	15616.62
617.326	15395.43
617.527	15088.24
617.729	15157.87
617.93	15135.34
618.131	15501.93
618.333	14969.46
618.534	14965.36
618.735	15252.08
618.937	15544.94
619.138	14742.13
619.339	14764.66
619.54	15334
619.742	15127.15
619.943	15180.4
620.144	14865.01
620.345	15536.74
620.546	15528.55
620.748	14887.54
620.949	15186.54
621.15	15440.49
621.351	15342.19
621.552	15131.25
621.753	14951.03
621.954	15182.45
622.155	15745.64
622.356	15024.75
622.558	15086.19
622.759	15526.5
622.96	15739.49
623.161	15063.66
623.362	15256.17
623.563	15540.84
623.764	15338.09
623.965	15186.54
624.166	15342.19
624.366	15188.59
624.567	15274.6
624.768	14973.55
624.969	14742.13
625.17	15096.43
625.371	15506.02
625.572	15004.27
625.773	14750.32
625.973	15585.9
626.174	15571.56
626.375	15049.33
626.576	15286.89
626.777	15282.8
626.977	16020.06
627.178	15297.13
627.379	15024.75
627.58	15377
627.78	15592.04
627.981	15061.62
628.182	15221.36
628.382	15563.37
628.583	15174.25
628.784	15352.43
628.984	15223.41
629.185	15682.15
629.386	15819.36
629.586	15430.25
629.787	15338.09
629.987	15340.14
630.188	15434.35
630.388	15368.81
630.589	15409.77
630.79	16149.09
630.99	15841.89
631.191	15395.43
631.391	15684.2
631.591	15782.5
631.792	16052.83
631.992	15725.16
632.193	15348.33
632.393	15872.61
632.594	15573.61
632.794	15182.45
632.994	15475.31
633.195	15497.83
633.395	15790.69
633.595	15280.75
633.796	15635.05
633.996	15893.09
634.196	16177.76
634.397	15522.41
634.597	15493.74
634.797	15399.53
634.997	16067.17
635.198	15485.55
635.398	15407.72
635.598	15866.47
635.798	16020.06
635.998	15870.56
636.199	15381.1
636.399	15518.31
636.599	15618.66
636.799	15317.61
636.999	15684.2
637.199	15911.52
637.399	16099.94
637.599	15669.86
637.799	15688.29
637.999	15751.78
638.199	16331.36
638.399	15667.81
638.599	15319.66
638.799	15979.11
638.999	16339.55
639.199	15825.51
639.399	15721.06
639.599	16431.71
639.799	15901.28
639.999	15362.67
640.199	15645.29
640.399	15850.08
640.599	15688.29
640.799	16054.88
640.998	15764.07
641.198	16388.7
641.398	16128.61
641.598	15706.73
641.798	15745.64
641.997	16921.17
642.197	16130.66
642.397	16005.73
642.597	15716.97
642.796	16239.2
642.996	16228.96
643.196	15837.8
643.395	15682.15
643.595	16290.4
643.795	15798.88
643.994	15958.63
644.194	16245.34
644.394	16603.74
644.593	16257.63
644.793	15923.81
644.992	16282.2
645.192	16296.54
645.392	15725.16
645.591	16280.16
645.791	16130.66
645.99	16544.34
646.19	16564.82
646.389	16138.85
646.589	16065.12
646.788	16364.12
646.987	16466.52
647.187	16503.39
647.386	16112.22
647.586	16411.23
647.785	16329.31
647.984	16108.13
648.184	15940.19
648.383	15831.65
648.582	16321.12
648.782	15991.39
648.981	16007.78
649.18	15827.56
649.38	16304.73
649.579	16140.9
649.778	16110.18
649.977	16552.54
650.177	16308.83
650.376	15977.06
650.575	15594.09
650.774	16837.2
650.973	16198.24
651.173	15886.95
651.372	16325.21
651.571	16443.99
651.77	16556.63
651.969	16112.22
652.168	16233.05
652.367	16384.6
652.566	16564.82
652.765	16185.95
652.964	16538.2
653.163	17154.64
653.362	16454.23
653.561	16251.49
653.76	16351.84
653.959	16349.79
654.158	16579.16
654.357	16398.94
654.556	16286.3
654.755	16656.98
654.954	16589.4
655.153	16349.79
655.352	16527.96
655.551	16763.48
655.749	16507.48
655.948	16226.91
656.147	16478.81
656.346	16728.66
656.545	16630.36
656.743	16249.44
656.942	16237.15
657.141	16601.69
657.34	16366.17
657.538	16335.45
657.737	16388.7
657.936	16431.71
658.135	16722.52
658.333	16622.17
658.532	16448.09
658.731	17197.65
658.929	17019.47
659.128	16599.64
659.326	16497.24
659.525	16994.9
659.724	16425.56
659.922	16128.61
660.121	16255.58
660.319	16730.71
660.518	16343.64
660.716	16007.78
660.915	16503.39
661.113	16912.98
661.312	16349.79
661.51	16577.11
661.709	16286.3
661.907	16835.16
662.105	16955.99
662.304	16570.97
662.502	16808.53
662.701	17099.34
662.899	16695.89
663.097	16714.33
663.296	16349.79
663.494	17095.25
663.692	17177.17
663.891	16497.24
664.089	16370.27
664.287	17097.3
664.485	17080.91
664.684	16351.84
664.882	16296.54
665.08	16845.4
665.278	16898.64
665.476	16321.12
665.675	16708.18
665.873	17254.99
666.071	16976.47
666.269	16421.47
666.467	16575.06
666.665	16693.85
666.863	16609.88
667.061	16732.76
667.259	16644.7
667.457	16640.6
667.655	16974.42
667.853	16355.93
668.051	16450.14
668.249	16540.25
668.447	16695.89
668.645	16407.13
668.843	16798.29
669.041	16978.51
669.239	16489.05
669.437	16437.85
669.635	16521.82
669.833	16775.77
670.031	16912.98
670.229	16513.63
670.426	16609.88
670.624	16861.78
670.822	16636.5
671.02	16437.85
671.218	16812.63
671.415	16454.23
671.613	16685.65
671.811	16622.17
672.009	16405.08
672.206	17054.29
672.404	16462.43
672.602	16446.04
672.799	16691.8
672.997	16917.08
673.195	16708.18
673.392	16355.93
673.59	16196.19
673.788	16761.43
673.985	16114.27
674.183	16235.1
674.38	16638.55
674.578	16876.12
674.775	16628.31
674.973	16144.99
675.17	16343.64
675.368	16988.75
675.565	16986.71
675.763	16351.84
675.96	16130.66
676.158	16831.06
676.355	16073.31
676.553	16214.62
676.75	16288.35
676.947	16581.21
677.145	16446.04
677.342	16628.31
677.539	16669.27
677.737	16585.3
677.934	17373.77
678.131	16390.75
678.329	16394.84
678.526	16986.71
678.723	17044.05
678.92	16575.06
679.118	16507.48
679.315	16294.49
679.512	16990.8
679.709	16456.28
679.906	16042.59
680.104	16652.89
680.301	16398.94
680.498	15878.76
680.695	15905.38
680.892	16042.59
681.089	16231.01
681.286	16407.13
681.483	16224.86
681.68	16513.63
681.877	16616.02
682.075	16349.79
682.272	16366.17
682.469	16349.79
682.665	16349.79
682.862	16091.74
683.059	16181.85
683.256	16480.86
683.453	16388.7
683.65	16331.36
683.847	16378.46
684.044	16120.42
684.241	16159.33
684.438	16536.15
684.635	16228.96
684.831	16794.2
685.028	16861.78
685.225	15966.82
685.422	16259.68
685.619	16294.49
685.815	16394.84
686.012	16310.88
686.209	15975.01
686.405	16196.19
686.602	16519.77
686.799	15600.23
686.996	15929.95
687.192	15874.66
687.389	16843.35
687.586	16058.98
687.782	15999.59
687.979	16685.65
688.175	16280.16
688.372	15932
688.568	16024.16
688.765	16183.9
688.962	16603.74
689.158	15952.48
689.355	15874.66
689.551	16331.36
689.748	15825.51
689.944	15913.57
690.14	15649.38
690.337	16181.85
690.533	15907.43
690.73	16093.79
690.926	16134.75
691.123	16007.78
691.319	16159.33
691.515	15604.33
691.712	15903.33
691.908	16130.66
692.104	16050.78
692.301	16077.41
692.497	15393.39
692.693	16228.96
692.889	16169.57
693.086	15839.84
693.282	15686.25
693.478	15958.63
693.674	16513.63
693.87	15870.56
694.067	15747.69
694.263	16085.6
694.459	16015.97
694.655	16106.08
694.851	15727.21
695.047	16081.5
695.243	16177.76
695.439	15932
695.635	15647.33
695.831	16112.22
696.027	15692.39
696.224	15546.98
696.42	16058.98
696.615	16427.61
696.811	16179.81
697.007	15479.4
697.203	15442.54
697.399	15854.18
697.595	16386.65
697.791	15520.36
697.987	15800.93
698.183	15743.59
698.379	15725.16
698.575	15716.97
698.77	15608.42
698.966	15802.98
699.162	15788.64
699.358	15487.59
699.554	15428.2
699.749	16138.85
699.945	15944.29
700.141	15624.81
700.337	15370.86
700.532	15745.64
700.728	15442.54
700.924	15530.6
701.119	15362.67
701.315	15673.96
701.511	15776.36
701.706	15682.15
701.902	15293.04
702.097	15329.9
702.293	15899.23
702.489	15569.51
702.684	15469.16
702.88	15358.57
703.075	15592.04
703.271	15538.79
703.466	15141.49
703.662	15598.18
703.857	15970.91
704.053	15510.12
704.248	15385.19
704.443	15708.77
704.639	16011.87
704.834	15483.5
705.03	15407.72
705.225	15903.33
705.42	15938.15
705.616	15829.6
705.811	15237.74
706.006	15528.55
706.202	15585.9
706.397	15503.98
706.592	15157.87
706.787	15727.21
706.983	15420.01
707.178	15802.98
707.373	15460.97
707.568	15512.17
707.763	15477.35
707.959	15145.58
708.154	15180.4
708.349	15346.28
708.544	15571.56
708.739	15344.24
708.934	14891.63
709.129	15567.46
709.324	15518.31
709.519	15186.54
709.714	15133.29
709.909	15561.32
710.104	15352.43
710.299	15080.05
710.494	15133.29
710.689	15385.19
710.884	15041.14
711.079	15284.84
711.274	15389.29
711.469	15487.59
711.664	15235.69
711.859	15012.46
712.054	15145.58
712.249	15372.91
712.443	15344.24
712.638	15071.86
712.833	14926.45
713.028	15272.56
713.223	14961.27
713.417	15358.57
713.612	15143.53
713.807	15440.49
714.002	15725.16
714.196	15338.09
714.391	14850.67
714.586	15424.11
714.78	15393.39
714.975	14822
715.17	15055.47
715.364	15356.52
715.559	15497.83
715.754	14725.75
715.948	14897.78
716.143	15530.6
716.337	15157.87
716.532	15071.86
716.726	14963.31
716.921	15231.6
717.115	15395.43
717.31	14903.92
717.504	15196.78
717.699	15043.18
717.893	15051.38
718.088	14672.5
718.282	14738.04
718.476	15116.91
718.671	14660.21
718.865	14604.92
719.059	14772.85
719.254	14832.24
719.448	14842.48
719.642	16003.68
719.837	14244.48
720.031	14994.03
720.225	15030.9
720.419	14678.65
720.614	14617.21
720.808	15260.27
721.002	14766.71
721.196	14543.48
721.39	14742.13
721.585	15194.73
721.779	15022.7
721.973	14502.52
722.167	14051.97
722.361	14643.83
722.555	14957.17
722.749	14465.66
722.943	14537.34
723.137	14772.85
723.331	14793.33
723.525	14690.93
723.719	14289.53
723.913	15135.34
724.107	15032.94
724.301	14453.37
724.495	14768.76
724.689	15092.34
724.883	14867.06
725.077	14428.79
725.271	14555.77
725.465	15090.29
725.659	14785.14
725.853	14656.12
726.046	14570.1
726.24	14422.65
726.434	14551.67
726.628	14377.59
726.822	14346.87
727.015	14799.48
727.209	14934.64
727.403	14142.08
727.596	14185.08
727.79	14912.11
727.984	14545.53
728.177	14377.59
728.371	14406.27
728.565	14957.17
728.758	14365.31
728.952	14285.44
729.146	14334.59
729.339	15045.23
729.533	14635.64
729.726	14547.58
729.92	14381.69
730.113	14975.6
730.307	14664.31
730.5	14420.6
730.694	14285.44
730.887	14406.27
731.081	14854.77
731.274	14277.24
731.468	14449.27
731.661	14412.41
731.854	14432.89
732.048	14283.39
732.241	14166.65
732.435	14486.14
732.628	14582.39
732.821	14473.85
733.014	14555.77
733.208	14451.32
733.401	14903.92
733.594	14287.48
733.788	13982.34
733.981	14633.59
734.174	14635.64
734.367	14164.61
734.56	14310.01
734.754	14930.55
734.947	14490.23
735.14	14295.68
735.333	14422.65
735.526	14660.21
735.719	14416.51
735.912	14215.8
736.105	14150.27
736.298	14340.73
736.491	14125.69
736.684	14375.55
736.877	14187.13
737.07	14465.66
737.263	14598.77
737.456	14277.24
737.649	13924.99
737.842	14269.05
738.035	14418.55
738.228	14283.39
738.421	14219.9
738.614	14742.13
738.807	14672.5
739	14019.2
739.192	13791.87
739.385	14166.65
739.578	14484.09
739.771	14617.21
739.964	13914.75
740.156	14496.38
740.349	14310.01
740.542	14240.38
740.735	13615.75
740.927	14072.45
741.12	14324.35
741.313	13963.9
741.505	14240.38
741.698	14279.29
741.891	14066.3
742.083	14365.31
742.276	14150.27
742.468	14455.42
742.661	14224
742.854	13859.46
743.046	14072.45
743.239	14553.72
743.431	14187.13
743.624	13916.8
743.816	13851.27
744.009	14004.86
744.201	14434.94
744.393	13945.47
744.586	13777.54
744.778	14381.69
744.971	14113.41
745.163	14152.32
745.355	14113.41
745.548	14252.67
745.74	14226.04
745.932	14054.01
746.125	13845.12
746.317	14531.19
746.509	14191.23
746.702	14166.65
746.894	13914.75
747.086	14123.65
747.278	14488.18
747.471	14021.25
747.663	13660.8
747.855	14082.69
748.047	14498.42
748.239	13736.58
748.431	13828.74
748.623	14418.55
748.815	14447.22
749.008	13585.03
749.2	13888.13
749.392	14359.16
749.584	14289.53
749.776	13982.34
749.968	14011.01
750.16	14584.44
750.352	14054.01
750.544	13957.76
750.736	13763.2
750.928	14467.7
751.12	14133.89
751.311	13568.65
751.503	13931.14
751.695	14160.51
751.887	13853.31
752.079	13683.33
752.271	13511.3
752.463	14772.85
752.654	14176.89
752.846	13650.57
753.038	13505.16
753.23	13703.81
753.421	13884.03
753.613	13572.74
753.805	13859.46
753.997	14234.24
754.188	14146.17
754.38	13552.26
754.572	13529.73
754.763	13769.35
754.955	13828.74
755.146	13619.85
755.338	13732.48
755.53	14025.34
755.721	13851.27
755.913	13410.95
756.104	13214.35
756.296	13501.06
756.487	13742.72
756.679	13355.66
756.87	13288.07
757.062	13435.53
757.253	13820.55
757.445	13318.79
757.636	13769.35
757.827	13496.97
758.019	14107.26
758.21	13273.74
758.401	13249.16
758.593	14168.7
758.784	14045.82
758.975	13089.42
759.167	13019.79
759.358	13640.33
759.549	13900.42
759.74	13107.85
759.932	13001.36
760.123	13630.09
760.314	13116.05
760.505	13230.73
760.696	13191.82
760.888	13845.12
761.079	13529.73
761.27	13081.23
761.461	12946.06
761.652	13718.15
761.843	13157
762.034	13154.96
762.225	13496.97
762.416	13349.51
762.607	13441.67
762.798	13058.7
762.989	13300.36
763.18	14060.16
763.371	13193.87
763.562	13027.98
763.753	12790.42
763.944	13656.71
764.135	13449.86
764.326	13187.72
764.517	13085.33
764.708	12995.22
764.899	13279.88
765.089	12708.5
765.28	12964.5
765.471	13247.12
765.662	13181.58
765.853	12782.23
766.043	12511.89
766.234	13046.41
766.425	13034.13
766.615	12581.53
766.806	12427.93
766.997	13238.92
767.187	12896.91
767.378	12722.84
767.569	12364.44
767.759	12792.47
767.95	12939.92
768.141	12833.43
768.331	12505.75
768.522	12950.16
768.712	12892.82
768.903	12536.47
769.093	12636.82
769.284	12903.06
769.474	12683.92
769.665	12370.58
769.855	12315.29
770.046	12915.34
770.236	12620.44
770.426	12493.46
770.617	12409.5
770.807	12542.61
770.998	12667.54
771.188	12327.58
771.378	12208.8
771.569	12800.66
771.759	12669.59
771.949	12008.09
772.139	12231.32
772.33	12608.15
772.52	12776.08
772.71	12030.62
772.9	12065.44
773.09	12806.8
773.281	12804.75
773.471	12073.63
773.661	12008.09
773.851	12567.19
774.041	12264.09
774.231	11969.18
774.421	12008.09
774.611	12651.16
774.802	12321.43
774.992	11956.89
775.182	11895.46
775.372	12186.27
775.562	12589.72
775.752	11907.74
775.942	12004
776.131	12540.57
776.321	12479.13
776.511	11967.13
776.701	11915.94
776.891	12479.13
777.081	11887.26
777.271	11780.77
777.461	11764.39
777.651	12153.5
777.84	12364.44
778.03	11897.5
778.22	11743.91
778.41	12411.54
778.599	11778.72
778.789	11868.83
778.979	11764.39
779.169	12126.88
779.358	11938.46
779.548	12192.41
779.738	11543.21
779.927	11872.93
780.117	11928.22
780.307	11707.04
780.496	11432.61
780.686	11942.56
780.875	12030.62
781.065	11571.88
781.254	11526.82
781.444	11729.57
781.633	11758.24
781.823	11346.6
782.012	11514.53
782.202	11940.51
782.391	11834.02
782.581	11461.29
782.77	11690.66
782.96	11991.71
783.149	11492.01
783.338	11494.05
783.528	11301.54
783.717	11958.94
783.906	12278.43
784.096	11602.6
784.285	11205.29
784.474	11371.18
784.663	11502.25
784.853	11475.62
785.042	11393.7
785.231	11590.31
785.42	11725.47
785.61	11375.27
785.799	10787.5
785.988	11434.66
786.177	11379.37
786.366	11184.81
786.555	11342.5
786.744	11522.73
786.933	11465.38
787.122	11276.97
787.312	11313.83
787.501	11414.18
787.69	11494.05
787.879	10894
788.068	11086.51
788.257	11041.45
788.445	11113.13
788.634	11203.24
788.823	11045.55
789.012	11913.89
789.201	11512.49
789.39	10889.9
789.579	10707.63
789.768	11143.85
789.957	11410.09
790.145	10957.49
790.334	10513.08
790.523	11109.04
790.712	11092.65
790.9	11002.54
791.089	10703.54
791.278	11367.08
791.467	11109.04
791.655	10803.89
791.844	11102.89
792.033	10857.14
792.221	11035.31
792.41	10902.19
792.599	10623.67
792.787	11424.42
792.976	11164.33
793.164	10740.4
793.353	10607.28
793.541	11219.63
793.73	11203.24
793.918	10889.9
794.107	10623.67
794.295	10902.19
794.484	10904.24
794.672	10697.39
794.861	10511.03
795.049	10965.68
795.238	11252.39
795.426	10566.32
795.614	10470.07
795.803	10840.75
795.991	11209.39
796.179	10582.71
796.368	10570.42
796.556	10889.9
796.744	10658.48
796.932	10453.69
797.121	10410.68
797.309	11004.59
797.497	11113.13
797.685	10582.71
797.874	10416.82
798.062	10672.82
798.25	10984.11
798.438	10468.02
798.626	10615.48
798.814	10871.47
799.002	11258.54
799.19	10662.58
799.378	10601.14
799.566	11209.39
799.755	11137.71
799.943	10607.28
800.131	10529.46
800.318	10912.43
800.506	10797.74
800.694	10406.58
800.882	10345.14
801.07	11063.98
801.258	10574.52
801.446	10519.22
801.634	10373.82
801.822	10439.35
802.01	10633.91
802.197	10306.23
802.385	10713.78
802.573	10832.56
802.761	10617.52
802.949	10459.83
803.136	10355.38
803.324	10951.34
803.512	11031.21
803.699	10482.36
803.887	10263.22
804.075	11059.88
804.262	10547.89
804.45	10363.58
804.638	10611.38
804.825	10539.7
805.013	10394.29
805.201	10537.65
805.388	10232.51
805.576	10785.46
805.763	11350.7
805.951	10810.03
806.138	10824.37
806.326	11215.53
806.513	10904.24
806.701	10523.32
806.888	10566.32
807.075	10840.75
807.263	10898.1
807.45	10396.34
807.638	10795.7
807.825	11416.23
808.012	11236.01
808.2	10635.96
808.387	10984.11
808.574	10920.62
808.761	10980.01
808.949	10461.88
809.136	10805.94
809.323	10820.27
809.51	10762.93
809.698	10797.74
809.885	10685.11
810.072	10967.73
810.259	11074.22
810.446	10795.7
810.633	10472.12
810.82	11201.19
811.008	11307.69
811.195	10742.45
811.382	10676.91
811.569	11199.15
811.756	10855.09
811.943	10867.38
812.13	10562.23
812.317	10912.43
812.504	10863.28
812.691	10853.04
812.878	10783.41
813.064	11254.44
813.251	10992.3
813.438	10506.93
813.625	10992.3
813.812	10980.01
813.999	10934.96
814.186	10914.48
814.372	10844.85
814.559	11090.6
814.746	11451.05
814.933	10656.43
815.12	11055.79
815.306	10797.74
815.493	10744.5
815.68	10951.34
815.866	10828.46
816.053	11307.69
816.24	11592.36
816.426	10777.26
816.613	10478.26
816.799	11102.89
816.986	11152.04
817.173	10724.02
817.359	10656.43
817.546	11125.42
817.732	10603.19
817.919	10533.56
818.105	10767.03
818.292	10881.71
818.478	11150
818.665	10951.34
818.851	10687.15
819.037	11606.69
819.224	11098.8
819.41	10826.42
819.597	10695.35
819.783	11313.83
819.969	11123.37
820.156	10627.76
820.342	10771.12
820.528	11612.84
820.714	11002.54
820.901	10930.86
821.087	10601.14
821.273	11162.28
821.459	10848.94
821.646	10568.37
821.832	10613.43
822.018	10951.34
822.204	10799.79
822.39	10633.91
822.576	10267.32
822.762	10846.9
822.948	10773.17
823.134	10664.63
823.32	10330.81
823.507	10404.53
823.693	10853.04
823.879	10582.71
824.065	10498.74
824.25	10703.54
824.436	10470.07
824.622	10508.98
824.808	10343.1
824.994	10719.92
825.18	10590.9
825.366	10459.83
825.552	10240.7
825.738	10539.7
825.923	10744.5
826.109	10713.78
826.295	10369.72
826.481	10287.8
826.667	10392.25
826.852	10336.95
827.038	10115.77
827.224	10795.7
827.409	10853.04
827.595	9978.56
827.781	10361.53
827.966	10881.71
828.152	10613.43
828.338	10369.72
828.523	9931.45
828.709	10398.39
828.894	10640.05
829.08	10132.15
829.266	10095.29
829.451	10226.36
829.637	10355.38
829.822	10048.19
830.008	9792.19
830.193	10560.18
830.378	10683.06
830.564	10068.67
830.749	9890.49
830.935	10441.4
831.12	10502.84
831.305	10144.44
831.491	10064.57
831.676	10136.25
831.861	10842.8
832.047	10246.84
832.232	9988.8
832.417	10566.32
832.602	10369.72
832.788	10099.39
832.973	9855.68
833.158	10275.51
833.343	10324.66
833.528	9999.04
833.714	10080.96
833.899	10474.17
834.084	10453.69
834.269	9972.41
834.454	10042.04
834.639	10339
834.824	10068.67
835.009	10175.16
835.194	10111.68
835.379	10314.42
835.564	10674.87
835.749	9933.5
835.934	9706.18
836.119	10236.6
836.304	9812.67
836.489	9784
836.674	9980.61
836.859	9814.72
837.044	10373.82
837.228	9611.97
837.413	9571.01
837.598	10111.68
837.783	10052.28
837.968	9835.2
838.152	9327.3
838.337	9394.89
838.522	10050.24
838.707	10023.61
838.891	9775.81
839.076	9888.45
839.261	10021.56
839.445	9683.65
839.63	9663.17
839.815	10181.31
839.999	9753.28
840.184	9679.55
840.368	9571.01
840.553	9919.17
840.737	9994.94
840.922	9327.3
841.106	9370.31
841.291	9239.24
841.475	9697.99
841.66	9194.19
841.844	9288.39
842.029	10207.93
842.213	9288.39
842.397	9288.39
842.582	8817.36
842.766	9792.19
842.951	9775.81
843.135	9278.15
843.319	9341.64
843.504	9575.11
843.688	9767.62
843.872	9054.92
844.056	9140.94
844.241	9665.22
844.425	9503.43
844.609	9413.32
844.793	9102.03
844.977	9773.76
845.161	9294.54
845.346	9140.94
845.53	9114.31
845.714	9505.48
845.898	9687.75
846.082	8708.82
846.266	9235.14
846.45	9394.89
846.634	9331.4
846.818	9067.21
847.002	9298.63
847.186	9620.16
847.37	9153.23
847.554	8895.18
847.738	9155.27
847.922	9423.56
848.106	9485
848.29	8921.81
848.473	8942.28
848.657	9349.83
848.841	9321.16
849.025	9091.79
849.209	8751.82
849.392	9460.42
849.576	9167.56
849.76	8358.61
849.944	8876.75
850.127	9372.36
850.311	8786.64
850.495	8837.84
850.678	8712.91
850.862	9444.04
851.046	9386.69
851.229	9022.16
851.413	8616.66
851.596	9034.44
851.78	8915.66
851.964	8862.41
852.147	8878.8
852.331	9734.85
852.514	9310.92
852.698	8897.23
852.881	8518.36
853.065	9020.11
853.248	8925.9
853.431	8886.99
853.615	8667.86
853.798	9575.11
853.982	9073.35
854.165	8805.07
854.348	8465.11
854.532	8743.63
854.715	8821.45
854.898	8796.88
855.081	8512.21
855.265	8889.04
855.448	9089.74
855.631	8278.74
855.814	8225.5
855.997	8960.72
856.181	8721.1
856.364	8418
856.547	8303.32
856.73	8880.85
856.913	8598.23
857.096	8061.66
857.279	8602.32
857.462	8471.25
857.645	8850.13
857.828	8465.11
858.011	8481.49
858.194	8458.96
858.377	8667.86
858.56	8280.79
858.743	8282.84
858.926	8440.53
859.109	8512.21
859.292	8198.87
859.475	8190.68
859.658	8794.83
859.841	8788.69
860.023	8403.67
860.206	8170.2
860.389	8655.57
860.572	9007.82
860.755	8162.01
860.937	8297.17
861.12	8385.24
861.303	8440.53
861.486	8381.14
861.668	7961.31
861.851	8510.16
862.034	8471.25
862.216	8170.2
862.399	7490.28
862.581	8446.68
862.764	8594.13
862.947	8170.2
863.129	8002.27
863.312	8123.1
863.494	8719.06
863.677	8540.88
863.859	7942.88
864.042	8540.88
864.224	8544.98
864.406	8051.42
864.589	7682.78
864.771	8243.93
864.954	7838.43
865.136	7916.25
865.318	7906.01
865.501	8356.57
865.683	7666.4
865.865	7832.29
866.048	7693.02
866.23	8016.6
866.412	8116.95
866.594	7617.25
866.777	7803.61
866.959	8237.78
867.141	8030.94
867.323	7971.55
867.505	7953.12
867.687	8119
867.869	8024.79
868.052	7842.53
868.234	7650.02
868.416	7910.11
868.598	7977.69
868.78	7768.8
868.962	7660.26
869.144	8092.38
869.326	8035.03
869.508	7828.19
869.69	7604.96
869.872	7699.17
870.054	8241.88
870.236	7498.47
870.417	7568.1
870.599	7836.38
870.781	8276.7
870.963	7740.13
871.145	7465.7
871.327	7369.44
871.508	7928.54
871.69	7498.47
871.872	7402.21
872.054	7846.62
872.235	7961.31
872.417	7572.19
872.599	7332.58
872.78	8186.58
872.962	7873.25
873.144	7330.53
873.325	7480.04
873.507	8149.72
873.689	7815.9
873.87	7408.36
874.052	7656.16
874.233	7779.04
874.415	8032.99
874.596	7650.02
874.778	7465.7
874.959	7815.9
875.141	8092.38
875.322	7596.77
875.503	7414.5
875.685	7721.7
875.866	7627.49
876.048	7523.04
876.229	7314.15
876.41	7826.14
876.592	7822.05
876.773	7477.99
876.954	7457.51
877.136	8243.93
877.317	7772.89
877.498	7506.66
877.679	7719.65
877.86	7860.96
878.042	7893.72
878.223	7467.75
878.404	7817.95
878.585	8098.52
878.766	8583.89
878.947	8057.56
879.128	7893.72
879.309	8241.88
879.49	8043.23
879.672	7699.17
879.853	7723.74
880.034	7811.81
880.215	7801.57
880.396	7666.4
880.576	7731.94
880.757	7801.57
880.938	8303.32
881.119	7719.65
881.3	7568.1
881.481	7834.33
881.662	8860.37
881.843	7609.06
882.023	7494.37
882.204	8051.42
882.385	8121.05
882.566	7695.07
882.747	7566.05
882.927	8202.97
883.108	7889.63
883.289	7752.42
883.469	8073.95
883.65	7842.53
883.831	8071.9
884.011	8020.7
884.192	7973.6
884.373	8358.61
884.553	8411.86
884.734	7844.57
884.914	8252.12
885.095	9050.83
885.275	8587.99
885.456	8174.3
885.636	7826.14
885.817	8278.74
885.997	8141.53
886.178	7650.02
886.358	8135.39
886.538	8329.94
886.719	9269.96
886.899	7979.74
887.08	8080.09
887.26	8538.84
887.44	8102.62
887.621	8049.37
887.801	7992.03
887.981	8932.05
888.161	8549.07
888.342	8331.99
888.522	8166.1
888.702	8600.27
888.882	8577.75
889.062	8266.46
889.242	7781.09
889.423	8682.19
889.603	8481.49
889.783	8327.89
889.963	7983.84
890.143	8256.22
890.323	8594.13
890.503	7965.4
890.683	7957.21
890.863	8291.03
891.043	8272.6
891.223	8139.48
891.403	8235.74
891.583	8239.83
891.763	8501.97
891.943	8143.58
892.122	8217.3
892.302	8305.37
892.482	8456.92
892.662	8299.22
892.842	8178.39
893.022	8348.37
893.201	8162.01
893.381	8256.22
893.561	8153.82
893.741	8573.65
893.92	8379.09
894.1	8102.62
894.28	8035.03
894.459	8317.65
894.639	8055.51
894.819	8063.71
894.998	8067.8
895.178	8180.44
895.357	8209.11
895.537	8116.95
895.716	7781.09
895.896	8153.82
896.075	8606.42
896.255	7899.87
896.434	7887.58
896.614	8366.81
896.793	8567.51
896.973	8059.61
897.152	7912.16
897.331	8207.06
897.511	8389.33
897.69	7758.56
897.87	7985.88
898.049	8364.76
898.228	8202.97
898.407	7875.29
898.587	7989.98
898.766	7963.36
898.945	8067.8
899.124	7922.4
899.304	7797.47
899.483	8059.61
899.662	8323.8
899.841	7527.14
900.02	7631.58
900.199	8180.44
900.378	7891.68
900.557	7535.33
900.737	7553.76
900.916	8075.99
901.095	8125.15
901.274	7844.57
901.453	7486.18
901.632	7523.04
901.811	7701.22
901.989	7428.84
902.168	7240.42
902.347	7725.79
902.526	7473.89
902.705	7336.68
902.884	7525.09
903.063	7873.25
903.242	7938.78
903.42	7144.17
903.599	7326.44
903.778	7645.92
903.957	7953.12
904.135	7242.47
904.314	7256.81
904.493	7383.78
904.672	7424.74
904.85	7148.26
905.029	7027.43
905.207	7398.12
905.386	8254.17
905.565	6836.97
905.743	6945.52
905.922	7045.87
906.1	7236.33
906.279	6793.97
906.457	6830.83
906.636	6910.7
906.814	6916.84
906.993	6595.31
907.171	6875.88
907.35	6980.33
907.528	7189.22
907.707	6998.76
907.885	6494.96
908.063	7162.6
908.242	6753.01
908.42	6589.17
908.598	6443.76
908.777	6963.95
908.955	6683.38
909.133	6734.57
909.311	6449.91
909.49	6900.46
909.668	6712.05
909.846	6699.76
910.024	6535.92
910.202	7054.06
910.38	7039.72
910.559	6550.26
910.737	6628.08
910.915	6851.31
911.093	6920.94
911.271	6644.46
911.449	6966
911.627	7117.54
911.805	7557.86
911.983	6744.81
912.161	6857.45
912.339	7181.03
912.517	7303.91
912.695	6925.04
912.872	6816.49
913.05	6916.84
913.228	7207.66
913.406	6896.36
913.584	6847.21
913.762	7385.83
913.939	7226.09
914.117	6757.1
914.295	6839.02
914.473	7342.82
914.65	7455.46
914.828	6806.25
915.006	7052.01
915.184	6691.57
915.361	7125.74
915.539	7049.96
915.716	7166.7
915.894	7142.12
916.072	7305.96
916.249	6906.6
916.427	6689.52
916.604	6793.97
916.782	7287.53
916.959	6683.38
917.137	6832.88
917.314	7095.02
917.492	7125.74
917.669	6718.19
917.847	6630.13
918.024	6879.98
918.201	6867.69
918.379	6697.71
918.556	6744.81
918.733	7191.27
918.911	6617.84
919.088	6992.62
919.265	6554.35
919.442	7035.63
919.62	6867.69
919.797	6517.49
919.974	6206.2
920.151	6812.4
920.328	6714.09
920.506	6621.94
920.683	6839.02
920.86	6599.41
921.037	6683.38
921.214	6490.87
921.391	6306.55
921.568	6978.28
921.745	6656.75
921.922	6433.52
922.099	6425.33
922.276	7088.87
922.453	6693.62
922.63	6380.28
922.807	6757.1
922.984	6439.67
923.161	6263.54
923.338	6249.21
923.514	6286.07
923.691	6474.48
923.868	6638.32
924.045	6140.66
924.222	6093.56
924.399	6613.74
924.575	6746.86
924.752	6322.93
924.929	6482.67
925.105	6404.85
925.282	6499.06
925.459	6232.82
925.635	6066.94
925.812	6378.23
925.989	6081.27
926.165	6165.24
926.342	6093.56
926.518	6134.52
926.695	6150.9
926.871	5950.2
927.048	5923.58
927.224	6275.83
927.401	6023.93
927.577	6032.12
927.754	5849.85
927.93	6372.08
928.107	6343.41
928.283	5683.97
928.459	5966.59
928.636	6392.56
928.812	6138.62
928.988	5776.13
929.165	5645.06
929.341	5970.68
929.517	6036.22
929.693	6114.04
929.87	5499.65
930.046	6249.21
930.222	5665.53
930.398	5479.17
930.574	5739.26
930.751	5610.24
930.927	5657.34
931.103	5536.51
931.279	5577.47
931.455	5479.17
931.631	5860.09
931.807	5417.73
931.983	5446.4
932.159	5407.49
932.335	5733.12
932.511	5600
932.687	5315.33
932.863	5659.39
933.039	5604.1
933.215	5163.78
933.391	5294.85
933.566	5491.46
933.742	5520.13
933.918	5155.59
934.094	5075.72
934.27	5176.07
934.445	5389.06
934.621	5057.29
934.797	4692.75
934.973	5290.76
935.148	5266.18
935.324	4786.96
935.5	4676.37
935.675	5241.61
935.851	4897.55
936.027	4666.13
936.202	4684.56
936.378	4911.88
936.553	4832.01
936.729	4844.3
936.904	4205.33
937.08	4346.64
937.255	4453.14
937.431	4129.56
937.606	4090.65
937.782	4268.82
937.957	4406.03
938.133	4096.79
938.308	3846.94
938.483	3904.28
938.659	3816.22
938.834	3808.03
939.009	3676.96
939.185	3756.83
939.36	3699.48
939.535	3214.12
939.71	3599.13
939.886	3971.86
940.061	3930.91
940.236	3480.35
940.411	3506.98
940.586	3869.47
940.761	3722.01
940.937	3423.01
941.112	3220.26
941.287	3361.57
941.462	3279.65
941.637	3050.28
941.812	3207.97
941.987	3336.99
942.162	3371.81
942.337	3046.18
942.512	3056.42
942.687	3549.98
942.862	3394.34
943.037	2935.59
943.212	2892.59
943.386	3216.16
943.561	3326.75
943.736	3076.9
943.911	3205.92
944.086	3263.27
944.26	3173.16
944.435	2872.11
944.61	2890.54
944.785	3377.95
944.959	3486.5
945.134	2945.83
945.309	2908.97
945.483	3156.77
945.658	3576.61
945.833	2718.51
946.007	2851.63
946.182	3619.61
946.357	2868.01
946.531	2929.45
946.706	2892.59
946.88	2802.47
947.055	3085.09
947.229	2982.7
947.404	2972.46
947.578	3504.93
947.752	3148.58
947.927	2863.91
948.101	2767.66
948.276	3312.42
948.45	3412.77
948.624	3222.31
948.799	3095.33
948.973	3293.99
949.147	2935.59
949.321	3078.95
949.496	3064.61
949.67	3429.15
949.844	3177.25
950.018	2951.98
950.193	3017.51
950.367	3754.78
950.541	3289.89
950.715	3265.32
950.889	3230.5
951.063	3210.02
951.237	3490.59
951.411	2976.55
951.585	3021.61
951.759	3500.83
951.933	3353.38
952.107	3132.2
952.281	3308.32
952.455	3855.13
952.629	3642.14
952.803	3234.6
952.977	3189.54
953.151	3629.85
953.325	3601.18
953.499	3363.62
953.672	3009.32
953.846	3322.66
954.02	3377.95
954.194	3111.72
954.368	3255.08
954.541	3660.57
954.715	3298.08
954.889	3345.19
955.062	3300.13
955.236	3502.88
955.41	3427.11
955.583	3316.51
955.757	3218.21
955.93	3527.46
956.104	3296.04
956.278	3277.6
956.451	3402.53
956.625	3633.95
956.798	3877.66
956.972	3502.88
957.145	3328.8
957.319	3455.78
957.492	3615.52
957.665	3541.79
957.839	3351.33
958.012	3724.06
958.185	3463.97
958.359	3242.79
958.532	3554.08
958.705	3853.08
958.879	3636
959.052	3367.71
959.225	3150.63
959.398	3576.61
959.572	3658.53
959.745	3357.47
959.918	3562.27
960.091	3519.26
960.264	3785.5
960.438	3177.25
960.611	3210.02
960.784	3722.01
960.957	3388.19
961.13	3926.81
961.303	3269.41
961.476	3558.18
961.649	3799.84
961.822	3416.87
961.995	3361.57
962.168	3853.08
962.341	3595.04
962.514	3359.52
962.686	3398.43
962.859	3644.19
963.032	3711.77
963.205	3271.46
963.378	3248.93
963.551	3713.82
963.723	3525.41
963.896	3443.49
964.069	3427.11
964.242	3590.94
964.414	3803.93
964.587	3433.25
964.76	3386.15
964.932	3566.37
965.105	3629.85
965.278	3357.47
965.45	3302.18
965.623	3410.72
965.795	3805.98
965.968	3240.74
966.14	3296.04
966.313	3330.85
966.485	3492.64
966.658	3212.07
966.83	3343.14
967.003	3722.01
967.175	3666.72
967.348	3371.81
967.52	3361.57
967.692	3957.53
967.865	3685.15
968.037	3341.09
968.209	3476.26
968.382	3373.86
968.554	3709.72
968.726	3199.78
968.898	3162.92
969.071	3484.45
969.243	3451.68
969.415	3265.32
969.587	3203.88
969.759	3951.39
969.932	3672.86
970.104	3134.25
970.276	3033.9
970.448	3207.97
970.62	3265.32
970.792	3351.33
970.964	3267.36
971.136	3877.66
971.308	3664.67
971.48	3115.81
971.652	3185.44
971.824	3775.26
971.996	3201.83
972.168	3275.56
972.339	3205.92
972.511	3566.37
972.683	3250.98
972.855	3349.28
973.027	3119.91
973.199	3271.46
973.37	3443.49
973.542	3173.16
973.714	3238.69
973.886	3275.56
974.057	3629.85
974.229	2939.69
974.401	2974.5
974.572	3037.99
974.744	2964.26
974.915	3052.33
975.087	2984.74
975.259	3531.55
975.43	3169.06
975.602	2935.59
975.773	2954.02
975.945	2978.6
976.116	3441.44
976.288	2984.74
976.459	3093.29
976.63	3089.19
976.802	3359.52
976.973	2925.35
977.145	3064.61
977.316	3627.81
977.487	3595.04
977.659	3015.46
977.83	2943.78
978.001	3461.92
978.172	3158.82
978.344	2642.73
978.515	2779.95
978.686	2849.58
978.857	3474.21
979.028	2798.38
979.2	2728.75
979.371	3318.56
979.542	3113.77
979.713	3019.56
979.884	2513.71
980.055	2878.25
980.226	2982.7
980.397	2843.43
980.568	2765.61
980.739	3232.55
980.91	2964.26
981.081	2849.58
981.252	2765.61
981.423	3099.43
981.594	3287.84
981.765	2704.17
981.936	2884.39
982.106	3005.22
982.277	3322.66
982.448	2616.11
982.619	2911.02
982.79	2794.28
982.96	3142.44
983.131	2845.48
983.302	2487.09
983.472	2781.99
983.643	2931.5
983.814	2751.28
983.984	2626.35
984.155	2859.82
984.326	3076.9
984.496	2646.83
984.667	2708.27
984.837	2628.4
985.008	3195.68
985.178	2700.08
985.349	2685.74
985.519	2868.01
985.69	2591.53
985.86	2614.06
986.031	2489.14
986.201	2894.63
986.371	2804.52
986.542	2464.56
986.712	2288.43
986.882	2943.78
987.053	2689.84
987.223	2329.39
987.393	2577.2
987.563	2419.5
987.734	2859.82
987.904	2820.91
988.074	2415.41
988.244	2702.12
988.414	2456.37
988.585	2335.54
988.755	2337.59
988.925	2577.2
989.095	2968.36
989.265	2257.71
989.435	2464.56
989.605	2728.75
989.775	2626.35
989.945	2607.92
990.115	2190.13
990.285	2476.85
990.455	2573.1
990.625	2501.42
990.795	2190.13
990.965	2814.76
991.134	2456.37
991.304	2206.52
991.474	2220.85
991.644	2542.38
991.814	2853.67
991.984	2167.6
992.153	2149.17
992.323	2439.98
992.493	2423.6
992.662	1991.48
992.832	2261.81
993.002	2442.03
993.171	2493.23
993.341	1966.9
993.511	2339.63
993.68	2278.19
993.85	2562.86
994.019	1862.46
994.189	2009.91
994.358	2317.11
994.528	2155.32
994.697	1854.27
994.867	2009.91
995.036	2433.84
995.206	2222.9
995.375	1858.36
995.544	2100.02
995.714	2407.22
995.883	2140.98
996.052	2120.5
996.222	1706.81
996.391	2734.89
996.56	2263.86
996.73	1862.46
996.899	1889.08
997.068	2583.34
997.237	2270
997.406	1827.64
997.576	1743.67
997.745	2161.46
997.914	2143.03
998.083	1755.96
998.252	1721.15
998.421	2030.39
998.59	1944.38
998.759	1665.85
998.928	1612.6
999.097	2310.96
999.266	2200.37
999.435	1856.31
999.604	1524.54
999.773	2499.38
999.942	1891.13
1000.111	1567.55
1000.28	1526.59
1000.448	1762.11
1000.617	1817.4
1000.786	1848.12
1000.955	1579.84
1001.124	2091.83
1001.292	2683.69
1001.461	1686.33
1001.63	1588.03
1001.798	2286.39
1001.967	2204.47
1002.136	1575.74
1002.304	1526.59
1002.473	1985.34
1002.642	2026.29
1002.81	1663.8
1002.979	1553.21
1003.147	2032.44
1003.316	2331.44
1003.484	1542.97
1003.653	1405.76
1003.821	2151.22
1003.99	1760.06
1004.158	1608.51
1004.327	1506.11
1004.495	2007.86
1004.663	1628.99
1004.832	1655.61
1005	1364.8
1005.168	1960.76
1005.337	1735.48
1005.505	1348.42
1005.673	1581.89
1005.842	1852.22
1006.01	1897.27
1006.178	1397.57
1006.346	1426.24
1006.514	1893.18
1006.683	1973.05
1006.851	1440.58
1007.019	1528.64
1007.187	1581.89
1007.355	1258.31
1007.523	1196.87
1007.691	1153.86
1007.859	1395.52
1008.027	1942.33
1008.195	1338.18
1008.363	1207.11
1008.531	1854.27
1008.699	1438.53
1008.867	1219.39
1009.035	1305.41
1009.203	1805.11
1009.37	1747.77
1009.538	1342.27
1009.706	1821.5
1009.874	1610.56
1010.042	1616.7
1010.209	1172.29
1010.377	1213.25
1010.545	1813.31
1010.713	1530.69
1010.88	1270.59
1011.048	1313.6
1011.216	1440.58
1011.383	1911.61
1011.551	1252.16
1011.718	1157.96
1011.886	1676.09
1012.054	1420.1
1012.221	1149.76
1012.389	1194.82
1012.556	1381.18
1012.724	1903.42
1012.891	1286.98
1013.058	938.82
1013.226	1596.22
1013.393	1631.04
1013.561	977.73
1013.728	983.88
1013.895	1610.56
1014.063	1506.11
1014.23	967.49
1014.397	1098.56
1014.565	1497.92
1014.732	1299.27
1014.899	1049.41
1015.066	891.72
1015.233	1413.95
1015.401	1538.88
1015.568	1045.32
1015.735	1200.96
1015.902	1401.66
1016.069	1547.07
1016.236	1028.93
1016.403	883.53
1016.57	1110.85
1016.737	1551.17
1016.904	981.83
1017.071	725.83
1017.238	1157.96
1017.405	1452.86
1017.572	924.49
1017.739	1186.63
1017.906	1467.2
1018.073	1479.49
1018.24	811.85
1018.407	967.49
1018.573	1561.41
1018.74	1104.71
1018.907	947.01
1019.074	715.59
1019.241	1481.53
1019.407	1313.6
1019.574	914.25
1019.741	799.56
1019.907	1301.31
1020.074	1370.94
1020.241	625.48
1020.407	815.94
1020.574	1282.88
1020.74	1164.1
1020.907	842.57
1021.073	695.11
1021.24	1856.31
1021.406	1491.77
1021.573	625.48
1021.739	953.16
1021.906	1313.6
1022.072	1104.71
1022.239	795.47
1022.405	764.75
1022.571	1162.05
1022.738	922.44
1022.904	740.17
1023.07	854.86
1023.237	1215.3
1023.403	1403.71
1023.569	748.36
1023.735	834.38
1023.902	1067.85
1024.068	1190.72
1024.234	676.68
1024.4	695.11
1024.566	1086.28
1024.732	1307.46
1024.898	715.59
1025.065	594.76
1025.231	1227.59
1025.397	918.34
1025.563	721.74
1025.729	596.81
1025.895	564.04
1026.061	867.14
1026.227	361.3
1026.392	695.11
1026.558	1264.45
1026.724	1223.49
1026.89	652.11
1027.056	666.44
1027.222	1014.6
1027.388	906.06
1027.553	654.16
1027.719	455.5
1027.885	1358.66
1028.051	1153.86
1028.216	451.41
1028.382	588.62
1028.548	1184.58
1028.713	863.05
1028.879	537.42
1029.045	750.41
1029.21	1250.11
1029.376	1278.79
1029.541	662.35
1029.707	576.33
1029.873	1100.61
1030.038	994.12
1030.204	643.92
1030.369	576.33
1030.534	1180.48
1030.7	838.47
1030.865	559.95
1031.031	441.17
1031.196	1026.89
1031.361	1014.6
1031.527	543.57
1031.692	424.78
1031.857	570.19
1032.023	1006.41
1032.188	463.69
1032.353	592.72
1032.518	1272.64
1032.684	901.96
1032.849	387.92
1033.014	592.72
1033.179	953.16
1033.344	1088.32
1033.509	623.44
1033.674	559.95
1033.839	977.73
1034.004	1104.71
1034.17	398.16
1034.335	404.3
1034.5	764.75
1034.664	625.48
1034.829	367.44
1034.994	463.69
1035.159	891.72
1035.324	858.95
1035.489	486.22
1035.654	328.53
1035.819	1065.8
1035.984	850.76
1036.148	416.59
1036.313	465.74
1036.478	998.21
1036.643	727.88
1036.807	428.88
1036.972	291.66
1037.137	1037.13
1037.301	803.66
1037.466	228.18
1037.631	439.12
1037.795	1090.37
1037.96	777.03
1038.124	480.08
1038.289	387.92
1038.454	932.68
1038.618	875.34
1038.783	422.73
1038.947	502.61
1039.111	762.7
1039.276	576.33
1039.44	332.62
1039.605	879.43
1039.769	674.64
1039.933	668.49
1040.098	387.92
1040.262	594.76
1040.426	928.58
1040.591	893.77
1040.755	222.03
1040.919	344.91
1041.083	834.38
1041.248	699.21
1041.412	201.55
1041.576	291.66
1041.74	611.15
1041.904	865.1
1042.068	191.31
1042.232	422.73
1042.397	881.48
1042.561	721.74
1042.725	80.72
1042.889	486.22
1043.053	846.66
1043.217	863.05
1043.381	514.89
1043.544	160.59
1043.708	867.14
1043.872	361.3
1044.036	60.24
1044.2	164.69
1044.364	910.15
1044.528	1014.6
1044.691	3164.97
1044.855	183.12
1045.019	963.4
1045.183	838.47
1045.346	299.86
1045.51	273.23
1045.674	652.11
1045.837	787.27
1046.001	293.71
1046.165	301.9
1046.328	1162.05
1046.492	707.4
1046.655	430.93
1046.819	297.81
1046.983	502.61
1047.146	676.68
1047.31	236.37
1047.473	-40.11
1047.636	658.25
1047.8	385.87
1047.963	199.51
1048.127	254.8
1048.29	498.51
