Data from Hydrogel_Ink_Intensity_Test_1_USB4F045381__33__00033.txt Node

Date: Mon Jul 31 10:43:25 EDT 2023
User: mmckonesweet
Spectrometer: USB4F04538
Trigger mode: 4
Integration Time (sec): 9.000000E-1
Scans to average: 1
Electric dark correction enabled: true
Nonlinearity correction enabled: false
Boxcar width: 0
XAxis mode: Wavelengths
Number of Pixels in Spectrum: 3648
>>>>>Begin Spectral Data<<<<<
345.52	-984.22
345.736	-984.22
345.952	-984.22
346.168	-994.46
346.384	-1008.8
346.6	-128.17
346.816	-242.85
347.032	-220.33
347.248	332.62
347.464	-259.24
347.68	-95.4
347.896	117.59
348.112	467.79
348.328	7
348.544	-187.56
348.76	-42.15
348.975	250.71
349.191	-210.09
349.407	-162.98
349.623	33.62
349.839	-25.77
350.055	-113.83
350.27	58.2
350.486	211.79
350.702	367.44
350.918	244.56
351.133	-107.69
351.349	179.03
351.565	375.63
351.781	-224.42
351.996	62.29
352.212	408.4
352.428	-107.69
352.644	-115.88
352.859	-136.36
353.075	406.35
353.291	0.85
353.506	-62.63
353.722	-189.61
353.938	2.9
354.153	469.84
354.369	86.87
354.584	-156.84
354.8	359.25
355.016	-263.33
355.231	-222.38
355.447	-25.77
355.662	76.63
355.878	887.62
356.093	-261.29
356.309	-58.54
356.524	-105.64
356.74	293.71
356.955	-226.47
357.171	54.1
357.386	242.51
357.602	-287.91
357.817	4.95
358.033	-109.74
358.248	422.73
358.464	189.27
358.679	19.29
358.895	-183.46
359.11	37.72
359.325	367.44
359.541	281.43
359.756	93.01
359.972	-191.66
360.187	275.28
360.402	-142.5
360.618	-132.26
360.833	936.78
361.048	285.52
361.264	-103.59
361.479	45.91
361.694	27.48
361.909	224.08
362.125	-132.26
362.34	-83.11
362.555	359.25
362.77	88.92
362.986	-191.66
363.201	-79.02
363.416	285.52
363.631	97.11
363.847	-66.73
364.062	-136.36
364.277	234.32
364.492	207.7
364.707	0.85
364.922	-300.2
365.138	338.77
365.353	430.93
365.568	-191.66
365.783	60.24
365.998	170.83
366.213	611.15
366.428	-128.17
366.643	207.7
366.858	416.59
367.073	234.32
367.288	7
367.503	-183.46
367.718	219.99
367.933	439.12
368.148	-205.99
368.363	90.96
368.578	90.96
368.793	508.75
369.008	-124.07
369.223	-183.46
369.438	203.6
369.653	432.97
369.868	-111.78
370.083	-93.35
370.298	111.44
370.513	459.6
370.728	152.4
370.943	-89.26
371.157	-79.02
371.372	609.1
371.587	-128.17
371.802	-187.56
372.017	133.97
372.232	525.13
372.446	82.77
372.661	-140.46
372.876	287.57
373.091	207.7
373.306	27.48
373.52	-150.7
373.735	-83.11
373.95	478.03
374.165	35.67
374.379	-31.91
374.594	11.09
374.809	291.66
375.023	146.26
375.238	-91.31
375.453	389.97
375.667	-101.55
375.882	-89.26
376.097	-83.11
376.311	150.36
376.526	80.72
376.741	-40.11
376.955	246.61
377.17	691.02
377.384	619.34
377.599	-27.82
377.813	-122.02
378.028	672.59
378.242	363.34
378.457	25.43
378.672	-216.23
378.886	240.47
379.101	17.24
379.315	-183.46
379.53	-3.24
379.744	244.56
379.958	252.75
380.173	-74.92
380.387	-13.48
380.602	297.81
380.816	25.43
381.031	0.85
381.245	-99.5
381.459	338.77
381.674	2638.64
381.888	-136.36
382.103	250.71
382.317	2.9
382.531	598.86
382.746	45.91
382.96	62.29
383.174	-25.77
383.388	623.44
383.603	166.74
383.817	-42.15
384.031	271.19
384.246	625.48
384.46	136.02
384.674	426.83
384.888	201.55
385.103	291.66
385.317	-162.98
385.531	72.53
385.745	412.5
385.959	465.74
386.174	-42.15
386.388	-97.45
386.602	197.46
386.816	50
387.03	50
387.244	156.5
387.458	242.51
387.672	592.72
387.887	-119.98
388.101	-156.84
388.315	643.92
388.529	363.34
388.743	105.3
388.957	-7.34
389.171	510.8
389.385	60.24
389.599	115.54
389.813	250.71
390.027	189.27
390.241	916.3
390.455	64.34
390.669	140.12
390.883	35.67
391.097	701.26
391.311	267.09
391.525	64.34
391.738	377.68
391.952	435.02
392.166	187.22
392.38	88.92
392.594	525.13
392.808	584.52
393.022	95.06
393.236	125.78
393.449	445.26
393.663	463.69
393.877	-1.19
394.091	187.22
394.305	189.27
394.518	68.44
394.732	-5.29
394.946	166.74
395.16	699.21
395.373	369.49
395.587	113.49
395.801	64.34
396.015	553.8
396.228	414.54
396.442	-3.24
396.656	-93.35
396.869	580.43
397.083	672.59
397.297	252.75
397.51	185.17
397.724	588.62
397.938	363.34
398.151	0.85
398.365	105.3
398.578	609.1
398.792	707.4
399.005	219.99
399.219	254.8
399.433	412.5
399.646	396.11
399.86	379.73
400.073	375.63
400.287	523.09
400.5	281.43
400.714	310.1
400.927	224.08
401.141	498.51
401.354	1301.31
401.567	418.64
401.781	72.53
401.994	670.54
402.208	877.38
402.421	254.8
402.635	295.76
402.848	488.27
403.061	596.81
403.275	316.24
403.488	150.36
403.701	858.95
403.915	547.66
404.128	480.08
404.341	197.46
404.555	555.85
404.768	361.3
404.981	355.15
405.195	183.12
405.408	893.77
405.621	637.77
405.834	392.02
406.048	152.4
406.261	809.8
406.474	848.71
406.687	256.85
406.9	418.64
407.114	484.17
407.327	645.96
407.54	203.6
407.753	109.4
407.966	336.72
408.179	676.68
408.392	136.02
408.605	197.46
408.819	506.7
409.032	555.85
409.245	246.61
409.458	410.45
409.671	670.54
409.884	760.65
410.097	209.75
410.31	566.09
410.523	602.96
410.736	445.26
410.949	402.26
411.162	373.58
411.375	895.82
411.588	809.8
411.801	559.95
412.014	353.1
412.227	572.24
412.44	471.89
412.653	320.34
412.865	510.8
413.078	836.42
413.291	682.83
413.504	488.27
413.717	367.44
413.93	752.46
414.143	295.76
414.356	480.08
414.568	342.86
414.781	783.18
414.994	631.63
415.207	508.75
415.42	523.09
415.632	777.03
415.845	1026.89
416.058	340.82
416.271	392.02
416.483	525.13
416.696	1043.27
416.909	387.92
417.121	377.68
417.334	760.65
417.547	1125.19
417.759	461.65
417.972	396.11
418.185	441.17
418.397	914.25
418.61	338.77
418.823	379.73
419.035	1004.36
419.248	688.97
419.46	516.94
419.673	615.24
419.885	830.28
420.098	570.19
420.311	531.28
420.523	297.81
420.736	826.18
420.948	838.47
421.161	510.8
421.373	361.3
421.586	772.94
421.798	584.52
422.01	312.14
422.223	664.4
422.435	625.48
422.648	826.18
422.86	523.09
423.073	551.76
423.285	1030.98
423.497	443.21
423.71	414.54
423.922	510.8
424.134	854.86
424.347	1119.04
424.559	793.42
424.771	838.47
424.984	658.25
425.196	957.25
425.408	543.57
425.621	531.28
425.833	1100.61
426.045	1121.09
426.257	637.77
426.47	584.52
426.682	1039.17
426.894	998.21
427.106	654.16
427.318	662.35
427.531	707.4
427.743	1080.13
427.955	680.78
428.167	1067.85
428.379	1030.98
428.591	865.1
428.804	883.53
429.016	676.68
429.228	832.33
429.44	1084.23
429.652	961.35
429.864	656.2
430.076	953.16
430.288	947.01
430.5	932.68
430.712	793.42
430.924	1299.27
431.136	1086.28
431.348	613.2
431.56	754.51
431.772	977.73
431.984	920.39
432.196	760.65
432.408	887.62
432.62	975.69
432.832	1129.28
433.044	1088.32
433.256	1006.41
433.468	1260.35
433.679	738.12
433.891	756.55
434.103	1112.9
434.315	1391.42
434.527	1399.62
434.739	1030.98
434.95	1028.93
435.162	1295.17
435.374	1051.46
435.586	1006.41
435.798	904.01
436.009	947.01
436.221	1182.53
436.433	1028.93
436.645	987.97
436.856	1086.28
437.068	1399.62
437.28	998.21
437.491	1256.26
437.703	1375.04
437.915	1340.22
438.126	1073.99
438.338	1321.79
438.55	1297.22
438.761	1418.05
438.973	1071.94
439.184	1041.22
439.396	1336.13
439.608	1418.05
439.819	1121.09
440.031	1178.44
440.242	1469.25
440.454	1444.67
440.665	1080.13
440.877	1237.83
441.088	1440.58
441.3	1329.99
441.511	1055.56
441.723	1137.48
441.934	1364.8
442.146	1467.2
442.357	1409.86
442.569	1489.73
442.78	1418.05
442.991	1788.73
443.203	1508.16
443.414	1047.37
443.626	1680.19
443.837	1256.26
444.048	1198.92
444.26	1057.61
444.471	1542.97
444.682	1743.67
444.894	1073.99
445.105	1114.95
445.316	1702.72
445.528	1573.69
445.739	1403.71
445.95	1309.51
446.161	1581.89
446.373	1848.12
446.584	1342.27
446.795	1276.74
447.006	1776.44
447.217	1966.9
447.429	1221.44
447.64	1293.12
447.851	1837.88
448.062	1571.65
448.273	1241.92
448.484	1229.63
448.695	1764.15
448.907	1612.6
449.118	1493.82
449.329	1579.84
449.54	1522.49
449.751	1450.82
449.962	1356.61
450.173	1377.09
450.384	1911.61
450.595	1848.12
450.806	1545.02
451.017	1352.51
451.228	2114.36
451.439	1860.41
451.65	1583.93
451.861	1246.02
452.072	1508.16
452.283	1801.02
452.494	1612.6
452.705	1459.01
452.915	2255.67
453.126	1973.05
453.337	1641.28
453.548	1583.93
453.759	2085.69
453.97	2444.08
454.181	1936.18
454.391	1690.43
454.602	1915.7
454.813	1991.48
455.024	1825.59
455.235	1602.36
455.445	1874.74
455.656	2061.11
455.867	1841.98
456.078	1798.97
456.288	1876.79
456.499	2204.47
456.71	1669.95
456.921	1999.67
457.131	2114.36
457.342	2140.98
457.553	1807.16
457.763	1846.07
457.974	2270
458.184	2284.34
458.395	1870.65
458.606	1762.11
458.816	2470.7
459.027	2726.7
459.237	2116.41
459.448	1905.46
459.659	2509.62
459.869	2898.73
460.08	1884.98
460.29	2218.8
460.501	2704.17
460.711	2255.67
460.922	1925.94
461.132	2167.6
461.343	2962.22
461.553	2100.02
461.764	2179.89
461.974	2151.22
462.184	2700.08
462.395	2609.97
462.605	2376.5
462.816	2124.6
463.026	2521.9
463.236	2773.8
463.447	2308.91
463.657	2325.3
463.867	2941.74
464.078	2474.8
464.288	2491.18
464.498	2394.93
464.709	2718.51
464.919	2718.51
465.129	2546.48
465.339	2501.42
465.55	2890.54
465.76	2900.78
465.97	2677.55
466.18	2573.1
466.391	3136.29
466.601	2890.54
466.811	2827.05
467.021	2614.06
467.231	3078.95
467.441	3318.56
467.651	2935.59
467.862	2597.68
468.072	3298.08
468.282	3529.5
468.492	2896.68
468.702	3099.43
468.912	3320.61
469.122	3930.91
469.332	3396.39
469.542	3060.52
469.752	3633.95
469.962	3461.92
470.172	3144.49
470.382	3283.75
470.592	3625.76
470.802	3859.23
471.012	3588.89
471.222	3353.38
471.432	3885.85
471.642	3898.14
471.852	3844.89
472.062	3416.87
472.272	3877.66
472.482	3705.63
472.691	3691.29
472.901	3666.72
473.111	3980.06
473.321	4780.81
473.531	3746.59
473.741	3984.15
473.95	4371.22
474.16	4272.92
474.37	4033.3
474.58	3861.27
474.79	4885.26
474.999	4528.91
475.209	3902.23
475.419	4186.9
475.628	4451.09
475.838	4670.22
476.048	4420.37
476.258	4242.2
476.467	4934.41
476.677	4637.45
476.886	4815.63
477.096	4750.09
477.306	4848.4
477.515	5137.16
477.725	4795.15
477.935	4918.03
478.144	5415.68
478.354	4872.97
478.563	4858.64
478.773	4918.03
478.982	5460.74
479.192	5702.4
479.401	5307.14
479.611	5032.71
479.82	5268.23
480.03	5690.11
480.239	5139.21
480.449	5241.61
480.658	6169.34
480.868	5665.53
481.077	5731.07
481.287	5683.97
481.496	5905.15
481.705	6335.22
481.915	5958.39
482.124	6021.88
482.333	6140.66
482.543	6447.86
482.752	6083.32
482.961	5964.54
483.171	6456.05
483.38	6406.9
483.589	6142.71
483.799	6257.4
484.008	6642.42
484.217	6753.01
484.426	6454
484.636	6363.89
484.845	6763.25
485.054	6408.95
485.263	6691.57
485.472	6619.89
485.682	7219.94
485.891	6931.18
486.1	6763.25
486.309	6980.33
486.518	7062.25
486.727	7418.6
486.936	6791.92
487.146	6806.25
487.355	7557.86
487.564	7183.08
487.773	7070.44
487.982	7248.61
488.191	7340.77
488.4	7506.66
488.609	7269.09
488.818	7428.84
489.027	8272.6
489.236	8256.22
489.445	7420.64
489.654	7420.64
489.863	8182.49
490.072	8092.38
490.281	8155.86
490.49	7748.32
490.698	8514.26
490.907	8547.03
491.116	7996.12
491.325	7985.88
491.534	8438.48
491.743	8344.28
491.952	8180.44
492.16	8080.09
492.369	8549.07
492.578	8698.58
492.787	8231.64
492.996	8162.01
493.204	8377.05
493.413	9190.09
493.622	8344.28
493.831	8200.92
494.039	9304.78
494.248	8694.48
494.457	8604.37
494.665	8549.07
494.874	9286.34
495.083	9501.38
495.291	8833.74
495.5	8671.95
495.709	9534.15
495.917	9159.37
496.126	9142.99
496.335	8973
496.543	9190.09
496.752	9444.04
496.96	9370.31
497.169	9161.42
497.377	9272.01
497.586	9804.48
497.794	9407.17
498.003	9216.71
498.211	9818.82
498.42	10166.97
498.628	9546.44
498.837	9433.8
499.045	10099.39
499.254	9921.21
499.462	9591.49
499.671	9730.75
499.879	10373.82
500.087	10431.16
500.296	9560.77
500.504	9843.39
500.713	10156.73
500.921	10996.4
501.129	9941.69
501.338	9962.17
501.546	10599.09
501.754	10500.79
501.962	10107.58
502.171	10011.32
502.379	10570.42
502.587	10709.68
502.795	10302.14
503.004	10386.1
503.212	10750.64
503.42	10805.94
503.628	10455.73
503.837	10523.32
504.045	10990.25
504.253	11078.32
504.461	10545.84
504.669	10193.59
504.877	10973.87
505.085	11319.98
505.294	10556.08
505.502	10855.09
505.71	11020.97
505.918	11238.06
506.126	10562.23
506.334	10777.26
506.542	11162.28
506.75	11211.43
506.958	10975.92
507.166	10988.21
507.374	11301.54
507.582	11745.95
507.79	11272.87
507.998	11152.04
508.206	11657.89
508.414	11709.09
508.622	11344.55
508.83	11432.61
509.037	11989.66
509.245	11373.22
509.453	11352.74
509.661	11285.16
509.869	11874.98
510.077	11704.99
510.285	11684.52
510.492	11283.11
510.7	12479.13
510.908	11704.99
511.116	11578.02
511.324	11704.99
511.531	11872.93
511.739	12155.55
511.947	12108.44
512.155	12305.05
512.362	12257.95
512.57	11772.58
512.778	11702.95
512.985	11731.62
513.193	12296.86
513.401	12515.99
513.608	12241.56
513.816	12051.1
514.024	12448.41
514.231	12507.8
514.439	12053.15
514.646	12325.53
514.854	12835.47
515.061	12685.97
515.269	12358.3
515.477	12229.27
515.684	12272.28
515.892	12995.22
516.099	12223.13
516.307	12380.82
516.514	13046.41
516.722	13290.12
516.929	12645.01
517.136	12454.55
517.344	13089.42
517.551	12882.58
517.759	12618.39
517.966	12544.66
518.173	12866.19
518.381	13238.92
518.588	12913.3
518.796	12683.92
519.003	13398.66
519.21	13005.45
519.418	12810.9
519.625	13109.9
519.832	13144.72
520.039	13605.51
520.247	13077.13
520.454	13103.76
520.661	13726.34
520.868	13636.23
521.076	13195.92
521.283	13134.48
521.49	13902.47
521.697	13415.05
521.904	13351.56
522.112	13232.78
522.319	13863.55
522.526	13654.66
522.733	13507.21
522.94	13359.75
523.147	13765.25
523.354	14084.73
523.561	13449.86
523.768	13722.24
523.975	14344.83
524.183	13685.38
524.39	13963.9
524.597	13783.68
524.804	14105.21
525.011	13879.94
525.218	13941.38
525.425	13830.79
525.632	14459.51
525.838	14080.64
526.045	13875.84
526.252	14121.6
526.459	15643.24
526.666	15299.18
526.873	14105.21
527.08	14236.28
527.287	14846.58
527.494	14813.81
527.701	14543.48
527.907	14244.48
528.114	14727.8
528.321	14527.1
528.528	14729.84
528.735	14518.9
528.941	14559.86
529.148	14473.85
529.355	14520.95
529.562	14445.18
529.768	15254.12
529.975	14752.37
530.182	14727.8
530.388	14641.78
530.595	15250.03
530.802	14613.11
531.008	15088.24
531.215	15004.27
531.422	15719.01
531.628	15995.49
531.835	15000.18
532.042	15012.46
532.248	14967.41
532.455	15227.5
532.661	15078
532.868	15239.79
533.074	15471.21
533.281	15862.37
533.487	15391.34
533.694	15096.43
533.9	15577.7
534.107	15809.12
534.313	15483.5
534.52	15385.19
534.726	15753.83
534.933	16126.56
535.139	15506.02
535.345	15612.52
535.552	16022.11
535.758	15927.91
535.965	15737.45
536.171	15721.06
536.377	15870.56
536.584	16478.81
536.79	15743.59
536.996	15968.87
537.203	16212.57
537.409	16243.29
537.615	16044.64
537.821	16349.79
538.028	16460.38
538.234	16460.38
538.44	16288.35
538.646	16032.35
538.853	16708.18
539.059	16347.74
539.265	16640.6
539.471	15888.99
539.677	16962.13
539.883	16689.75
540.09	16632.41
540.296	16968.27
540.502	16656.98
540.708	16857.68
540.914	16786.01
541.12	16464.47
541.326	17011.28
541.532	16968.27
541.738	16589.4
541.944	16740.95
542.15	17486.41
542.356	16925.27
542.562	16609.88
542.768	16980.56
542.974	17924.68
543.18	17689.16
543.386	17119.82
543.592	17123.92
543.798	17926.72
544.004	17793.61
544.21	17128.02
544.415	17269.33
544.621	17822.28
544.827	17685.06
545.033	17398.35
545.239	17619.53
545.445	17842.76
545.651	17666.63
545.856	17343.05
546.062	17384.01
546.268	17496.65
546.474	17996.35
546.679	17451.6
546.885	17351.24
547.091	17812.04
547.297	18299.45
547.502	17730.12
547.708	17721.93
547.914	17738.31
548.119	18250.3
548.325	17480.27
548.531	17343.05
548.736	18344.51
548.942	17822.28
549.147	17713.74
549.353	18051.65
549.559	18348.61
549.764	18115.14
549.97	17668.68
550.175	17875.52
550.381	18301.5
550.586	18078.27
550.792	18131.52
550.997	18047.55
551.203	18362.94
551.408	18418.24
551.614	18115.14
551.819	18205.25
552.025	19071.54
552.23	18860.6
552.435	18178.62
552.641	18946.61
552.846	18635.32
553.052	19550.76
553.257	19034.67
553.462	19077.68
553.668	18559.55
553.873	19198.51
554.078	18541.11
554.283	18879.03
554.489	19233.33
554.694	19087.92
554.899	18565.69
555.105	18876.98
555.31	19186.22
555.515	19534.38
555.72	19178.03
555.925	18858.55
556.131	19630.63
556.336	19106.35
556.541	19042.87
556.746	19206.7
556.951	19767.85
557.156	19460.65
557.361	19323.44
557.567	19470.89
557.772	20195.87
557.977	19982.88
558.182	19339.82
558.387	19214.9
558.592	19251.76
558.797	19991.08
559.002	19524.14
559.207	19452.46
559.412	19733.03
559.617	20103.71
559.822	19368.49
560.027	19657.26
560.232	19864.1
560.437	19864.1
560.642	19507.76
560.847	19380.78
561.051	19696.17
561.256	19946.02
561.461	19681.83
561.666	19817
561.871	19888.68
562.076	20445.73
562.281	19954.21
562.485	19606.06
562.69	20496.92
562.895	20011.56
563.1	19636.78
563.305	19653.16
563.509	20412.96
563.714	20736.54
563.919	19638.83
564.123	19976.74
564.328	20242.98
564.533	20881.94
564.737	19835.43
564.942	20062.76
565.147	20855.32
565.351	20984.34
565.556	20171.3
565.761	20369.95
565.965	20570.65
566.17	20384.29
566.374	20175.39
566.579	20310.56
566.784	20427.29
566.988	20904.47
567.193	20177.44
567.397	20300.32
567.602	20328.99
567.806	20679.19
568.011	20277.79
568.215	20632.09
568.42	20791.83
568.624	20875.8
568.828	20523.55
569.033	20597.28
569.237	21086.74
569.442	21199.38
569.646	20234.78
569.85	20789.78
570.055	20963.86
570.259	20902.42
570.463	20781.59
570.668	20883.99
570.872	20902.42
571.076	21015.06
571.281	21004.82
571.485	21191.19
571.689	21174.8
571.893	21404.17
572.098	21369.36
572.302	21074.45
572.506	21576.2
572.71	21182.99
572.914	21053.97
573.119	21338.64
573.323	21783.05
573.527	21912.07
573.731	21176.85
573.935	21254.67
574.139	21516.81
574.343	21203.47
574.547	21355.02
574.751	21484.05
574.955	21791.24
575.159	21918.21
575.364	21090.84
575.568	21625.36
575.772	21887.5
575.976	21993.99
576.18	21746.19
576.383	21430.8
576.587	22125.06
576.791	22016.52
576.995	21189.14
577.199	21479.95
577.403	21838.34
577.607	22307.33
577.811	21789.19
578.015	21895.69
578.219	22174.21
578.422	22354.43
578.626	22092.29
578.83	22053.38
579.034	22270.47
579.238	22100.48
579.442	21848.58
579.645	22462.97
579.849	22407.68
580.053	22358.53
580.257	22307.33
580.46	22342.14
580.664	22929.91
580.868	22620.67
581.071	22438.4
581.275	22241.79
581.479	22399.49
581.682	22479.36
581.886	22522.37
582.09	22270.47
582.293	22669.82
582.497	22911.48
582.7	22604.28
582.904	22577.66
583.107	22503.93
583.311	22333.95
583.515	22561.28
583.718	22569.47
583.922	23044.6
584.125	23362.03
584.329	22442.49
584.532	22536.7
584.735	23577.07
584.939	22819.32
585.142	22452.73
585.346	22921.72
585.549	22895.1
585.753	22759.93
585.956	22739.45
586.159	23065.08
586.363	23738.86
586.566	23777.77
586.769	23077.37
586.973	22796.79
587.176	23362.03
587.379	23624.17
587.582	23874.03
587.786	23147
587.989	23577.07
588.192	24130.02
588.395	23439.86
588.599	23556.59
588.802	23767.53
589.005	23788.01
589.208	23478.77
589.411	23505.39
589.615	23831.02
589.818	24398.31
590.021	23812.59
590.224	23745
590.427	23914.98
590.63	23851.5
590.833	23347.7
591.036	23745
591.239	23962.09
591.442	23810.54
591.645	23855.59
591.848	23876.07
592.051	24316.39
592.254	24461.79
592.457	23931.37
592.66	23822.83
592.863	24351.2
593.066	24277.47
593.269	23968.23
593.472	24267.24
593.675	24101.35
593.878	24781.28
594.081	24179.17
594.284	23796.2
594.486	24611.29
594.689	24762.84
594.892	24304.1
595.095	24336.87
595.298	24533.47
595.5	24527.33
595.703	24588.77
595.906	24515.04
596.109	25147.86
596.311	24779.23
596.514	24213.99
596.717	24574.43
596.92	25065.94
597.122	25080.28
597.325	24146.4
597.528	24750.56
597.73	25471.44
597.933	24955.35
598.136	24760.8
598.338	24420.83
598.541	25346.51
598.743	25010.65
598.946	24746.46
599.148	25074.13
599.351	25352.66
599.554	25465.3
599.756	25373.14
599.959	25156.05
600.161	25313.75
600.363	25643.47
600.566	25645.52
600.768	24918.49
600.971	25690.57
601.173	25557.46
601.376	25111
601.578	25307.6
601.78	25778.64
601.983	26157.51
602.185	24910.3
602.388	25631.18
602.59	25395.67
602.792	25666
602.995	25479.63
603.197	24941.02
603.399	25729.48
603.601	25737.68
603.804	25381.33
604.006	25145.81
604.208	25633.23
604.41	25287.12
604.613	25536.98
604.815	25229.78
605.017	26268.1
605.219	25582.03
605.421	25795.02
605.623	25530.83
605.826	26300.87
606.028	26073.54
606.23	25698.77
606.432	25532.88
606.634	26497.47
606.836	26057.16
607.038	25496.02
607.24	26134.98
607.442	26081.74
607.644	25915.85
607.846	25958.86
608.048	25420.24
608.25	26270.15
608.452	25725.39
608.654	25637.33
608.856	25344.47
609.058	25944.52
609.26	26106.31
609.462	25610.7
609.664	26032.58
609.866	26186.18
610.067	26134.98
610.269	25797.07
610.471	25520.59
610.673	26180.04
610.875	26184.13
611.077	25430.48
611.278	25891.27
611.48	26169.8
611.682	26587.58
611.884	26067.4
612.085	25749.96
612.287	26214.85
612.489	26393.03
612.69	26048.97
612.892	25831.88
613.094	26659.26
613.295	26171.85
613.497	25745.87
613.699	26124.74
613.9	26681.79
614.102	26333.64
614.304	26161.61
614.505	25627.09
614.707	26417.6
614.908	26247.62
615.11	25786.83
615.311	26323.4
615.513	26329.54
615.714	26575.3
615.916	25999.82
616.117	25985.48
616.319	26167.75
616.52	26831.29
616.722	26374.59
616.923	26126.79
617.124	26681.79
617.326	26606.02
617.527	25977.29
617.729	26479.04
617.93	26483.14
618.131	26753.47
618.333	26026.44
618.534	26565.06
618.735	26311.11
618.937	26773.95
619.138	26302.92
619.339	26132.93
619.54	26610.11
619.742	26522.05
619.943	26560.96
620.144	26374.59
620.345	26763.71
620.546	26786.24
620.748	26390.98
620.949	26247.62
621.15	26913.21
621.351	26763.71
621.552	26358.21
621.753	26276.29
621.954	26501.57
622.155	26960.31
622.356	26083.78
622.558	26184.13
622.759	26794.43
622.96	27132.34
623.161	26249.67
623.362	26399.17
623.563	26804.67
623.764	26579.39
623.965	26644.93
624.166	26835.39
624.366	26608.06
624.567	27089.34
624.768	26393.03
624.969	26589.63
625.17	26612.16
625.371	27081.14
625.572	26599.87
625.773	26149.32
625.973	27290.04
626.174	26829.24
626.375	26671.55
626.576	26788.28
626.777	27240.89
626.977	27290.04
627.178	26651.07
627.379	26556.86
627.58	27175.35
627.78	26761.66
627.981	26685.89
628.182	26747.33
628.382	27021.75
628.583	26321.35
628.784	26476.99
628.984	26749.37
629.185	27050.42
629.386	26954.17
629.586	26894.78
629.787	26440.13
629.987	26892.73
630.188	26917.31
630.388	26894.78
630.589	26851.77
630.79	27732.4
630.99	27357.62
631.191	26991.03
631.391	27177.4
631.591	27310.52
631.792	27728.3
631.992	27044.28
632.193	27361.72
632.393	27599.28
632.594	27083.19
632.794	26950.07
632.994	27161.01
633.195	26997.18
633.395	27103.67
633.595	26487.23
633.796	27081.14
633.996	27316.66
634.196	27320.76
634.397	27230.65
634.597	27060.66
634.797	27163.06
634.997	27681.2
635.198	27304.37
635.398	26751.42
635.598	27654.58
635.798	27605.42
635.998	27390.39
636.199	27154.87
636.399	27496.88
636.599	27156.92
636.799	27404.72
636.999	27382.2
637.199	27496.88
637.399	27601.33
637.599	27455.92
637.799	26870.2
637.999	27462.07
638.199	27963.82
638.399	27582.9
638.599	27275.7
638.799	28139.94
638.999	28156.33
639.199	27627.95
639.399	27660.72
639.599	28314.02
639.799	27388.34
639.999	27353.52
640.199	27343.28
640.399	27656.62
640.599	27138.49
640.799	27957.67
640.998	27965.87
641.198	27974.06
641.398	27799.98
641.598	27578.8
641.798	27589.04
641.997	28711.33
642.197	27685.29
642.397	27918.76
642.597	27402.68
642.796	28211.62
642.996	28332.45
643.196	27560.37
643.395	27742.64
643.595	28129.7
643.795	27799.98
643.994	27808.17
644.194	27802.03
644.394	27982.25
644.593	28359.08
644.793	27984.3
644.992	27969.96
645.192	27929
645.392	27695.53
645.591	28262.82
645.791	27822.51
645.99	28359.08
646.19	27914.67
646.389	28238.25
646.589	27793.84
646.788	28680.61
646.987	27935.15
647.187	28547.49
647.386	28199.34
647.586	28451.24
647.785	28404.13
647.984	28191.14
648.184	28379.56
648.383	28238.25
648.582	28281.25
648.782	28070.31
648.981	28322.21
649.18	27664.82
649.38	28518.82
649.579	28170.66
649.778	28223.91
649.977	28850.59
650.177	28551.59
650.376	28193.19
650.575	28017.07
650.774	28907.93
650.973	28023.21
651.173	27644.34
651.372	28363.17
651.571	28647.84
651.77	28684.7
651.969	28379.56
652.168	28524.96
652.367	28146.09
652.566	28567.97
652.765	28533.15
652.964	28584.35
653.163	28916.12
653.362	28217.77
653.561	28660.13
653.76	28250.53
653.959	28813.73
654.158	29034.91
654.357	28901.79
654.556	28336.55
654.755	29145.5
654.954	28862.88
655.153	28131.75
655.352	28383.65
655.551	29143.45
655.749	28948.89
655.948	28719.52
656.147	28940.7
656.346	28924.32
656.545	28445.09
656.743	28629.41
656.942	28801.44
657.141	28969.37
657.34	28643.74
657.538	28916.12
657.737	28815.77
657.936	29061.53
658.135	29057.43
658.333	28234.15
658.532	28625.31
658.731	29297.05
658.929	28916.12
659.128	28873.12
659.326	28588.45
659.525	29084.06
659.724	28735.9
659.922	28322.21
660.121	28240.29
660.319	28645.79
660.518	28309.93
660.716	28502.43
660.915	28647.84
661.113	29430.16
661.312	28903.84
661.51	28684.7
661.709	28727.71
661.907	29184.41
662.105	29467.03
662.304	28725.66
662.502	29059.48
662.701	29346.2
662.899	28610.98
663.097	28948.89
663.296	28729.76
663.494	29170.07
663.692	29469.08
663.891	28606.88
664.089	28639.65
664.287	29096.35
664.485	29464.98
664.684	28909.98
664.882	28742.05
665.08	29208.98
665.278	29372.82
665.476	28516.77
665.675	28989.85
665.873	29704.59
666.071	29208.98
666.269	28746.14
666.467	28912.03
666.665	29153.69
666.863	28711.33
667.061	28748.19
667.259	28672.42
667.457	29073.82
667.655	28977.56
667.853	28445.09
668.051	28696.99
668.249	28914.08
668.447	29090.2
668.645	28828.06
668.843	29094.3
669.041	29260.18
669.239	28873.12
669.437	28690.85
669.635	29229.46
669.833	29092.25
670.031	29159.83
670.229	28617.12
670.426	28717.47
670.624	28821.92
670.822	28891.55
671.02	28676.51
671.218	28707.23
671.415	28826.01
671.613	28764.57
671.811	28942.75
672.009	28762.53
672.206	29264.28
672.404	28807.58
672.602	28690.85
672.799	28893.6
672.997	29340.05
673.195	28918.17
673.392	28707.23
673.59	28633.5
673.788	29008.28
673.985	28391.84
674.183	28477.86
674.38	28713.38
674.578	28778.91
674.775	28254.63
674.973	28141.99
675.17	28363.17
675.368	29120.92
675.565	29018.52
675.763	28465.57
675.96	28168.62
676.158	29055.39
676.355	28391.84
676.553	28668.32
676.75	28645.79
676.947	28873.12
677.145	28287.4
677.342	28891.55
677.539	28690.85
677.737	28881.31
677.934	29370.77
678.131	28774.81
678.329	28459.43
678.526	28916.12
678.723	28973.47
678.92	28314.02
679.118	28533.15
679.315	28236.2
679.512	29129.11
679.709	28248.49
679.906	28441
680.104	28658.08
680.301	28613.02
680.498	28299.69
680.695	28008.87
680.892	28004.78
681.089	28301.73
681.286	28199.34
681.483	27830.7
681.68	28492.19
681.877	28791.2
682.075	27951.53
682.272	28576.16
682.469	28418.47
682.665	28176.81
682.862	28082.6
683.059	27812.27
683.256	28215.72
683.453	28492.19
683.65	28438.95
683.847	28084.65
684.044	28287.4
684.241	27943.34
684.438	28238.25
684.635	27898.28
684.831	28504.48
685.028	28709.28
685.225	27804.08
685.422	27759.02
685.619	28004.78
685.815	28461.48
686.012	27767.21
686.209	27572.66
686.405	27902.38
686.602	28451.24
686.799	27308.47
686.996	27984.3
687.192	27498.93
687.389	28518.82
687.586	27605.42
687.782	28311.97
687.979	28299.69
688.175	27980.2
688.372	27779.5
688.568	27425.2
688.765	27756.97
688.962	28443.04
689.158	27922.86
689.355	27183.54
689.551	28111.27
689.748	27914.67
689.944	27599.28
690.14	27619.76
690.337	28115.37
690.533	27783.6
690.73	27511.22
690.926	27855.28
691.123	27789.74
691.319	27408.82
691.515	27691.44
691.712	27550.13
691.908	27945.39
692.104	27961.77
692.301	27414.96
692.497	27523.51
692.693	27711.92
692.889	27625.9
693.086	27425.2
693.282	27392.44
693.478	27447.73
693.674	27888.04
693.87	27406.77
694.067	27541.94
694.263	27730.35
694.459	27351.48
694.655	27613.62
694.851	27367.86
695.047	27478.45
695.243	27779.5
695.439	27558.32
695.635	27218.36
695.831	27554.22
696.027	27689.39
696.224	27077.05
696.42	27570.61
696.615	27736.49
696.811	27574.7
697.007	27126.2
697.203	27046.33
697.399	27324.85
697.595	27603.38
697.791	26935.74
697.987	27062.71
698.183	26778.04
698.379	26923.45
698.575	27199.93
698.77	27040.18
698.966	27251.13
699.162	27236.79
699.358	27029.94
699.554	26876.35
699.749	27201.97
699.945	27333.04
700.141	26608.06
700.337	26626.5
700.532	27025.85
700.728	26599.87
700.924	26345.92
701.119	26687.93
701.315	26991.03
701.511	27109.82
701.706	26941.88
701.902	26417.6
702.097	27001.27
702.293	27093.43
702.489	26816.96
702.684	26876.35
702.88	26970.55
703.075	26937.79
703.271	26427.84
703.466	26767.8
703.662	26685.89
703.857	27290.04
704.053	26728.89
704.248	26706.37
704.443	27001.27
704.639	26968.51
704.834	26692.03
705.03	26624.45
705.225	27122.1
705.42	26974.65
705.616	26565.06
705.811	26304.96
706.006	26927.55
706.202	27023.8
706.397	26581.44
706.592	26479.04
706.787	26601.92
706.983	26397.12
707.178	26735.04
707.373	26487.23
707.568	26677.69
707.763	26749.37
707.959	26565.06
708.154	26483.14
708.349	26499.52
708.544	26939.83
708.739	26266.05
708.934	26294.72
709.129	26509.76
709.324	26515.9
709.519	26251.72
709.714	26350.02
709.909	26925.5
710.104	26356.16
710.299	25778.64
710.494	26307.01
710.689	26634.69
710.884	26495.43
711.079	26454.47
711.274	26474.95
711.469	26601.92
711.664	26433.99
711.859	26479.04
712.054	26536.38
712.249	26589.63
712.443	26853.82
712.638	26257.86
712.833	26077.64
713.028	26608.06
713.223	26401.22
713.417	26476.99
713.612	26169.8
713.807	26403.27
714.002	26747.33
714.196	26581.44
714.391	26059.21
714.586	26644.93
714.78	26069.45
714.975	26206.66
715.17	26016.2
715.364	26024.39
715.559	26448.32
715.754	25436.63
715.948	25719.24
716.143	26415.55
716.337	25719.24
716.532	26020.3
716.726	25706.96
716.921	26403.27
717.115	26245.57
717.31	25754.06
717.504	26313.16
717.699	25711.05
717.893	25950.67
718.088	25670.09
718.282	25690.57
718.476	25940.43
718.671	25637.33
718.865	25407.95
719.059	25227.73
719.254	25633.23
719.448	25973.19
719.642	25434.58
719.837	25006.55
720.031	25942.47
720.225	25618.89
720.419	25313.75
720.614	25412.05
720.808	25917.9
721.002	25321.94
721.196	25119.19
721.39	25149.91
721.585	25463.25
721.779	25254.36
721.973	25217.49
722.167	24926.68
722.361	25639.37
722.555	25649.61
722.749	25102.81
722.943	25047.51
723.137	24967.64
723.331	25248.21
723.525	25582.03
723.719	25321.94
723.913	25407.95
724.107	25549.26
724.301	25139.67
724.495	24998.36
724.689	25940.43
724.883	25809.36
725.077	25414.1
725.271	25014.74
725.465	25702.86
725.659	24943.06
725.853	25172.44
726.046	24955.35
726.24	25053.66
726.434	25070.04
726.628	24691.16
726.822	24984.02
727.015	25504.21
727.209	25221.59
727.403	24912.35
727.596	24822.23
727.79	25690.57
727.984	25438.67
728.177	25027.03
728.371	25125.33
728.565	25592.27
728.758	25100.76
728.952	24967.64
729.146	25186.77
729.339	25596.37
729.533	24953.3
729.726	25082.33
729.92	24803.8
730.113	25485.78
730.307	25676.24
730.5	24627.68
730.694	24965.59
730.887	24687.07
731.081	25272.79
731.274	25133.53
731.468	24736.22
731.661	24861.15
731.854	25012.7
732.048	24910.3
732.241	24594.91
732.435	24934.87
732.628	24863.19
732.821	24844.76
733.014	24768.99
733.208	24545.76
733.401	25360.85
733.594	24871.39
733.788	24695.26
733.981	24865.24
734.174	25213.4
734.367	24728.03
734.56	25000.41
734.754	25145.81
734.947	25131.48
735.14	24541.66
735.333	24787.42
735.526	25330.13
735.719	24887.77
735.912	24482.27
736.105	24828.38
736.298	25186.77
736.491	24943.06
736.684	24828.38
736.877	24828.38
737.07	24744.41
737.263	25049.56
737.456	24496.61
737.649	24601.05
737.842	25004.5
738.035	24857.05
738.228	24318.43
738.421	25004.5
738.614	25129.43
738.807	25231.83
739	23992.81
739.192	24357.35
739.385	24732.12
739.578	24943.06
739.771	24627.68
739.964	24185.32
740.156	24869.34
740.349	24635.87
740.542	24717.79
740.735	24242.66
740.927	24357.35
741.12	24521.18
741.313	24345.06
741.505	24504.8
741.698	24498.66
741.891	24617.44
742.083	24537.57
742.276	24447.46
742.468	24650.21
742.661	24562.14
742.854	24406.5
743.046	24252.9
743.239	24842.71
743.431	24349.15
743.624	24027.62
743.816	23871.98
744.009	24187.36
744.201	24570.33
744.393	24170.98
744.586	24037.86
744.778	24510.94
744.971	24222.18
745.163	24226.28
745.355	24244.71
745.548	24175.08
745.74	24226.28
745.932	24142.31
746.125	24091.11
746.317	24906.2
746.509	24328.67
746.702	24476.13
746.894	23960.04
747.086	24490.46
747.278	24570.33
747.471	24302.05
747.663	23968.23
747.855	24338.91
748.047	24783.32
748.239	24406.5
748.431	24033.77
748.623	24715.74
748.815	24785.37
749.008	24211.94
749.2	24142.31
749.392	24281.57
749.584	24222.18
749.776	24381.92
749.968	24142.31
750.16	24832.47
750.352	23847.4
750.544	23800.3
750.736	23853.55
750.928	24551.9
751.12	24340.96
751.311	23527.92
751.503	24160.74
751.695	24166.88
751.887	24080.87
752.079	23788.01
752.271	23673.32
752.463	24926.68
752.654	24320.48
752.846	23878.12
753.038	23742.96
753.23	23749.1
753.421	23867.88
753.613	23654.89
753.805	23865.83
753.997	23937.51
754.188	24187.36
754.38	23425.52
754.572	23427.57
754.763	23599.6
754.955	23886.31
755.146	23796.2
755.338	23636.46
755.53	23769.58
755.721	23538.16
755.913	23239.15
756.104	23224.82
756.296	23509.49
756.487	23667.18
756.679	23065.08
756.87	23163.38
757.062	23218.68
757.253	23704.04
757.445	23169.52
757.636	23165.43
757.827	23585.26
758.019	23863.79
758.21	23011.83
758.401	23106.04
758.593	23521.77
758.784	23429.62
758.975	22753.79
759.167	22520.32
759.358	23364.08
759.549	23460.34
759.74	23046.65
759.932	22936.06
760.123	23493.1
760.314	22962.68
760.505	22958.58
760.696	22786.55
760.888	23448.05
761.079	22931.96
761.27	22518.27
761.461	22714.87
761.652	23034.36
761.843	22614.52
762.034	22913.53
762.225	22940.15
762.416	22931.96
762.607	22661.63
762.798	22663.68
762.989	22475.26
763.18	23525.87
763.371	22376.96
763.562	22333.95
763.753	22249.99
763.944	23124.47
764.135	22811.13
764.326	22583.8
764.517	22307.33
764.708	22528.51
764.899	22696.44
765.089	22356.48
765.28	22082.05
765.471	22508.03
765.662	22473.21
765.853	22100.48
766.043	22030.85
766.234	22327.81
766.425	22305.28
766.615	21877.26
766.806	21799.43
766.997	22360.58
767.187	21803.53
767.378	21789.19
767.569	21412.37
767.759	22137.35
767.95	22336
768.141	21811.72
768.331	21750.28
768.522	22067.72
768.712	22034.95
768.903	21981.7
769.093	21889.54
769.284	22114.82
769.474	22049.28
769.665	21398.03
769.855	21207.57
770.046	21907.98
770.236	21944.84
770.426	21731.85
770.617	21400.08
770.807	21580.3
770.998	21785.1
771.188	21600.78
771.378	21307.92
771.569	21781
771.759	21916.17
771.949	21072.4
772.139	21293.58
772.33	21187.09
772.52	22075.91
772.71	21258.77
772.9	21066.26
773.09	21893.64
773.281	21719.56
773.471	21019.16
773.661	20865.56
773.851	21670.41
774.041	21402.13
774.231	21076.5
774.421	21168.66
774.611	21500.43
774.802	20785.69
774.992	21074.45
775.182	21019.16
775.372	20863.51
775.562	21269.01
775.752	20871.7
775.942	20630.04
776.131	21340.69
776.321	20982.29
776.511	20822.55
776.701	20470.3
776.891	21010.96
777.081	20701.72
777.271	20640.28
777.461	20351.52
777.651	20931.09
777.84	21066.26
778.03	20804.12
778.22	20576.8
778.41	20947.48
778.599	20773.4
778.789	20372
778.979	20351.52
779.169	20853.27
779.358	20691.48
779.548	20488.73
779.738	19927.59
779.927	20285.98
780.117	19929.64
780.307	20202.02
780.496	19665.45
780.686	20752.92
780.875	20685.34
781.065	20365.85
781.254	20316.7
781.444	20292.13
781.633	20302.37
781.823	20044.32
782.012	20029.99
782.202	20079.14
782.391	20236.83
782.581	19866.15
782.77	19933.73
782.96	20419.1
783.149	19872.29
783.338	19720.74
783.528	19790.38
783.717	20382.24
783.906	20154.91
784.096	19860.01
784.285	19542.57
784.474	19616.3
784.663	19655.21
784.853	19491.37
785.042	19561
785.231	19563.05
785.42	20038.18
785.61	19518
785.799	19579.43
785.988	19741.22
786.177	19606.06
786.366	19530.28
786.555	19753.51
786.744	20085.28
786.933	19460.65
787.122	19419.69
787.312	19139.12
787.501	19397.17
787.69	19616.3
787.879	19173.94
788.068	19196.46
788.257	18881.08
788.445	19159.6
788.634	19141.17
788.823	18969.14
789.012	20140.58
789.201	19397.17
789.39	18971.19
789.579	19130.93
789.768	19380.78
789.957	19182.13
790.145	19147.31
790.334	18760.25
790.523	19089.97
790.712	19173.94
790.9	19178.03
791.089	18709.05
791.278	19405.36
791.467	19268.14
791.655	19024.44
791.844	19350.06
792.033	18977.33
792.221	18760.25
792.41	18979.38
792.599	18750.01
792.787	19214.9
792.976	19147.31
793.164	18512.44
793.353	18793.01
793.541	18979.38
793.73	19159.6
793.918	18934.32
794.107	18473.53
794.295	18743.86
794.484	18856.5
794.672	18676.28
794.861	18424.38
795.049	18885.17
795.238	18913.84
795.426	18418.24
795.614	18434.62
795.803	18690.62
795.991	19028.53
796.179	18309.69
796.368	18174.53
796.556	18985.52
796.744	18244.16
796.932	18364.99
797.121	18162.24
797.309	18815.54
797.497	18502.2
797.685	18180.67
797.874	18225.73
798.062	18682.42
798.25	18565.69
798.438	18430.52
798.626	18453.05
798.814	18565.69
799.002	19130.93
799.19	18201.15
799.378	18410.04
799.566	18547.26
799.755	18649.66
799.943	18149.95
800.131	18096.71
800.318	18463.29
800.506	18315.84
800.694	18217.54
800.882	18022.98
801.07	18747.96
801.258	18360.89
801.446	18070.08
801.634	18063.94
801.822	18305.6
802.01	18420.28
802.197	18225.73
802.385	18467.39
802.573	18262.59
802.761	18332.22
802.949	18328.13
803.136	18244.16
803.324	18848.31
803.512	18762.3
803.699	18233.92
803.887	18242.11
804.075	18760.25
804.262	18473.53
804.45	18260.54
804.638	18238.02
804.825	18453.05
805.013	18381.37
805.201	18575.93
805.388	18410.04
805.576	18750.01
805.763	19259.95
805.951	18238.02
806.138	18278.97
806.326	19214.9
806.513	18598.46
806.701	18385.47
806.888	18295.36
807.075	18645.56
807.263	19378.73
807.45	18242.11
807.638	18307.65
807.825	19079.73
808.012	18930.23
808.2	18260.54
808.387	18790.97
808.574	18739.77
808.761	18868.79
808.949	18444.86
809.136	18545.21
809.323	18649.66
809.51	18606.65
809.698	19012.15
809.885	18661.94
810.072	18772.53
810.259	19016.24
810.446	18625.08
810.633	18442.81
810.82	19157.55
811.008	19280.43
811.195	18960.95
811.382	18745.91
811.569	18883.13
811.756	18293.31
811.943	18598.46
812.13	18733.62
812.317	18612.79
812.504	18856.5
812.691	18922.04
812.878	18737.72
813.064	19028.53
813.251	18762.3
813.438	18555.45
813.625	18418.24
813.812	18684.47
813.999	18919.99
814.186	18647.61
814.372	18580.03
814.559	18618.94
814.746	19100.21
814.933	18416.19
815.12	18541.11
815.306	18518.59
815.493	18559.55
815.68	18594.36
815.866	18405.95
816.053	18866.74
816.24	19024.44
816.426	18410.04
816.613	18418.24
816.799	19059.25
816.986	19067.44
817.173	18514.49
817.359	18514.49
817.546	18633.27
817.732	18512.44
817.919	18530.87
818.105	18420.28
818.292	18358.85
818.478	19071.54
818.665	18461.24
818.851	18403.9
819.037	19268.14
819.224	18881.08
819.41	18309.69
819.597	18362.94
819.783	18973.24
819.969	18686.52
820.156	18475.58
820.342	18233.92
820.528	19223.09
820.714	18553.4
820.901	18659.9
821.087	18190.91
821.273	19049.01
821.459	18393.66
821.646	18379.32
821.832	18076.23
822.018	18586.17
822.204	18309.69
822.39	18346.56
822.576	18020.93
822.762	18491.96
822.948	18188.86
823.134	18127.42
823.32	17742.41
823.507	18010.69
823.693	18405.95
823.879	18444.86
824.065	18102.85
824.25	18233.92
824.436	17754.69
824.622	17906.24
824.808	17879.62
824.994	18065.99
825.18	17820.23
825.366	17998.4
825.552	17562.19
825.738	18074.18
825.923	18330.17
826.109	18149.95
826.295	18020.93
826.481	18078.27
826.667	18072.13
826.852	17908.29
827.038	17586.76
827.224	18381.37
827.409	18666.04
827.595	17562.19
827.781	18012.74
827.966	18338.37
828.152	18039.36
828.338	17879.62
828.523	17218.13
828.709	17719.88
828.894	17951.3
829.08	17646.15
829.266	17424.97
829.451	17631.82
829.637	17840.71
829.822	17521.23
830.008	17320.53
830.193	17979.97
830.378	18145.86
830.564	17312.33
830.749	17242.7
830.935	17877.57
831.12	17834.57
831.305	17189.46
831.491	17218.13
831.676	17177.17
831.861	17605.19
832.047	17105.49
832.232	17113.68
832.417	17582.67
832.602	17504.84
832.788	16921.17
832.973	16704.09
833.158	17394.25
833.343	17179.22
833.528	17168.98
833.714	17048.15
833.899	17390.16
834.084	17680.97
834.269	17279.57
834.454	17027.67
834.639	17343.05
834.824	17193.55
835.009	16994.9
835.194	16972.37
835.379	17343.05
835.564	17357.39
835.749	17179.22
835.934	16820.82
836.119	17232.46
836.304	17238.61
836.489	16632.41
836.674	16976.47
836.859	16966.23
837.044	17545.8
837.228	16849.49
837.413	16796.25
837.598	17050.19
837.783	16937.55
837.968	16736.85
838.152	16527.96
838.337	16384.6
838.522	17158.74
838.707	16976.47
838.891	16577.11
839.076	17042
839.261	17144.4
839.445	16554.58
839.63	16638.55
839.815	17085.01
839.999	16759.38
840.184	16366.17
840.368	16317.02
840.553	16902.74
840.737	16820.82
840.922	16216.67
841.106	16304.73
841.291	16366.17
841.475	16542.3
841.66	16312.92
841.844	16394.84
842.029	17312.33
842.213	16263.77
842.397	15964.77
842.582	15940.19
842.766	16669.27
842.951	16634.46
843.135	16083.55
843.319	16484.95
843.504	16362.08
843.688	16796.25
843.872	15995.49
844.056	16122.46
844.241	16357.98
844.425	16147.04
844.609	16165.47
844.793	15592.04
844.977	16515.67
845.161	15946.34
845.346	15604.33
845.53	15845.99
845.714	15833.7
845.898	16517.72
846.082	15520.36
846.266	15741.54
846.45	15829.6
846.634	16013.92
846.818	15676.01
847.002	15716.97
847.186	15956.58
847.37	15633
847.554	15409.77
847.738	15520.36
847.922	15975.01
848.106	16069.22
848.29	15405.67
848.473	15583.85
848.657	15643.24
848.841	15759.97
849.025	15444.59
849.209	15321.71
849.392	15829.6
849.576	15432.3
849.76	15020.66
849.944	15424.11
850.127	16144.99
850.311	15262.32
850.495	15037.04
850.678	15125.1
850.862	15616.62
851.046	15559.27
851.229	15518.31
851.413	14879.35
851.596	15397.48
851.78	15454.83
851.964	15118.96
852.147	14764.66
852.331	16214.62
852.514	15641.19
852.698	15264.36
852.881	14965.36
853.065	15395.43
853.248	15104.62
853.431	15104.62
853.615	15112.81
853.798	15870.56
853.982	15389.29
854.165	15004.27
854.348	14662.26
854.532	14742.13
854.715	15055.47
854.898	14850.67
855.081	14756.47
855.265	15481.45
855.448	15374.95
855.631	14621.3
855.814	14815.86
855.997	15239.79
856.181	14889.59
856.364	14697.08
856.547	14539.38
856.73	14901.87
856.913	14805.62
857.096	14645.88
857.279	14635.64
857.462	14801.52
857.645	15123.05
857.828	14498.42
858.011	14600.82
858.194	14584.44
858.377	14926.45
858.56	14465.66
858.743	14418.55
858.926	14539.38
859.109	14844.53
859.292	14187.13
859.475	13970.05
859.658	14887.54
859.841	14629.49
860.023	14295.68
860.206	13988.48
860.389	14690.93
860.572	14701.17
860.755	14277.24
860.937	14240.38
861.12	14133.89
861.303	14310.01
861.486	14160.51
861.668	13855.36
861.851	14477.94
862.034	14328.44
862.216	14193.28
862.399	13750.92
862.581	14275.2
862.764	14244.48
862.947	14117.5
863.129	13931.14
863.312	13687.43
863.494	14455.42
863.677	14152.32
863.859	13652.61
864.042	14023.3
864.224	14445.18
864.406	13544.07
864.589	13363.85
864.771	13881.99
864.954	13730.44
865.136	13920.9
865.318	13380.23
865.501	13888.13
865.683	13490.82
865.865	13642.37
866.048	13736.58
866.23	13843.07
866.412	13738.63
866.594	13200.01
866.777	13728.39
866.959	13998.72
867.141	13564.55
867.323	13720.2
867.505	13472.39
867.687	13570.69
867.869	13793.92
868.052	13281.93
868.234	13068.94
868.416	13634.18
868.598	13841.03
868.78	13097.61
868.962	13224.59
869.144	13857.41
869.326	13572.74
869.508	12821.14
869.69	13034.13
869.872	13195.92
870.054	13634.18
870.236	12950.16
870.417	13154.96
870.599	13402.76
870.781	13888.13
870.963	13265.55
871.145	13275.79
871.327	13107.85
871.508	13453.96
871.69	13283.98
871.872	13171.34
872.054	13386.38
872.235	13435.53
872.417	13167.24
872.599	12925.58
872.78	13660.8
872.962	13376.14
873.144	12774.03
873.325	13091.47
873.507	13687.43
873.689	13118.09
873.87	13091.47
874.052	13277.83
874.233	13183.63
874.415	13390.47
874.596	13118.09
874.778	12829.33
874.959	13308.55
875.141	13496.97
875.322	13001.36
875.503	12927.63
875.685	13474.44
875.866	12868.24
876.048	12679.83
876.229	12923.54
876.41	13091.47
876.592	13234.83
876.773	13163.15
876.954	12909.2
877.136	13628.04
877.317	13044.37
877.498	12886.67
877.679	13140.62
877.86	13507.21
878.042	13101.71
878.223	13240.97
878.404	13216.4
878.585	13400.71
878.766	13810.31
878.947	13398.66
879.128	13273.74
879.309	13851.27
879.49	13695.62
879.672	13197.96
879.853	13275.79
880.034	13120.14
880.215	13220.49
880.396	13269.64
880.576	13361.8
880.757	13122.19
880.938	13775.49
881.119	13408.9
881.3	13032.08
881.481	13673.09
881.662	14582.39
881.843	13558.41
882.023	13226.64
882.204	13507.21
882.385	13707.91
882.566	13390.47
882.747	13318.79
882.927	13574.79
883.108	13744.77
883.289	13437.58
883.469	13734.53
883.65	13494.92
883.831	13769.35
884.011	13615.75
884.192	13587.08
884.373	13953.66
884.553	13869.7
884.734	13613.7
884.914	13941.38
885.095	14584.44
885.275	14441.08
885.456	13957.76
885.636	13826.69
885.817	14031.49
885.997	14011.01
886.178	13652.61
886.358	14043.78
886.538	14068.35
886.719	15016.56
886.899	13795.97
887.08	13630.09
887.26	14291.58
887.44	13625.99
887.621	13765.25
887.801	13613.7
887.981	14523
888.161	14252.67
888.342	13955.71
888.522	13830.79
888.702	14420.6
888.882	14428.79
889.062	13941.38
889.242	13728.39
889.423	14654.07
889.603	14420.6
889.783	14113.41
889.963	13802.11
890.143	14471.8
890.323	14477.94
890.503	13933.18
890.683	13959.81
890.863	14180.99
891.043	14432.89
891.223	13939.33
891.403	13773.44
891.583	14490.23
891.763	14068.35
891.943	14228.09
892.122	14062.21
892.302	14103.17
892.482	13845.12
892.662	13742.72
892.842	13687.43
893.022	14273.15
893.201	14066.3
893.381	14090.88
893.561	13728.39
893.741	14531.19
893.92	14367.35
894.1	13945.47
894.28	14291.58
894.459	14017.15
894.639	14344.83
894.819	13779.59
894.998	13957.76
895.178	14219.9
895.357	14258.81
895.537	13855.36
895.716	13484.68
895.896	13810.31
896.075	14269.05
896.255	13619.85
896.434	13630.09
896.614	14203.52
896.793	14103.17
896.973	13705.86
897.152	13499.02
897.331	14019.2
897.511	14154.37
897.69	13351.56
897.87	13802.11
898.049	14035.58
898.228	13634.18
898.407	13812.35
898.587	13560.45
898.766	13546.12
898.945	13699.72
899.124	13550.21
899.304	13486.73
899.483	13525.64
899.662	14142.08
899.841	13245.07
900.02	13267.59
900.199	13628.04
900.378	13580.93
900.557	13208.2
900.737	13148.81
900.916	13494.92
901.095	13404.81
901.274	13189.77
901.453	12917.39
901.632	13003.41
901.811	12886.67
901.989	12901.01
902.168	12657.3
902.347	13380.23
902.526	12778.13
902.705	12728.98
902.884	12849.81
903.063	13103.76
903.242	13144.72
903.42	12597.91
903.599	12956.3
903.778	12984.98
903.957	13073.04
904.135	12493.46
904.314	12448.41
904.493	12620.44
904.672	12665.49
904.85	12237.47
905.029	11946.66
905.207	12464.79
905.386	12989.07
905.565	11864.74
905.743	11848.35
905.922	12219.03
906.1	12241.56
906.279	11784.87
906.457	11823.78
906.636	12014.24
906.814	11788.96
906.993	11696.8
907.171	11743.91
907.35	11909.79
907.528	12067.49
907.707	11989.66
907.885	11526.82
908.063	12001.95
908.242	11449
908.42	11477.67
908.598	10961.58
908.777	11563.68
908.955	11412.14
909.133	11430.57
909.311	11295.4
909.49	11405.99
909.668	11444.9
909.846	11311.78
910.024	11082.41
910.202	11528.87
910.38	11733.67
910.559	11145.9
910.737	11250.35
910.915	11618.98
911.093	11782.82
911.271	11461.29
911.449	11879.07
911.627	12063.39
911.805	12282.52
911.983	11702.95
912.161	11549.35
912.339	12118.68
912.517	12339.87
912.695	12032.67
912.872	11766.43
913.05	11877.02
913.228	12016.29
913.406	11737.76
913.584	11639.46
913.762	12161.69
913.939	11995.81
914.117	11852.45
914.295	11592.36
914.473	12210.84
914.65	12130.97
914.828	11766.43
915.006	11483.81
915.184	11598.5
915.361	11778.72
915.539	11881.12
915.716	11952.8
915.894	11940.51
916.072	12485.27
916.249	11872.93
916.427	11817.63
916.604	11633.32
916.782	12049.05
916.959	11494.05
917.137	11510.44
917.314	11879.07
917.492	11920.03
917.669	11664.04
917.847	11766.43
918.024	11795.11
918.201	11741.86
918.379	11532.97
918.556	11461.29
918.733	11868.83
918.911	11647.65
919.088	11651.75
919.265	11369.13
919.442	11926.18
919.62	11655.84
919.797	11444.9
919.974	11154.09
920.151	11598.5
920.328	11520.68
920.506	11147.95
920.683	11393.7
920.86	11293.35
921.037	11188.91
921.214	11203.24
921.391	11225.77
921.568	11475.62
921.745	11238.06
921.922	11193
922.099	10863.28
922.276	11522.73
922.453	11410.09
922.63	10973.87
922.807	11471.53
922.984	11205.29
923.161	10898.1
923.338	11096.75
923.514	10853.04
923.691	11279.02
923.868	11176.62
924.045	10807.98
924.222	10611.38
924.399	10990.25
924.575	11045.55
924.752	10861.23
924.929	10947.25
925.105	11117.23
925.282	10681.01
925.459	10660.53
925.635	10613.43
925.812	10730.16
925.989	10822.32
926.165	10664.63
926.342	10291.9
926.518	10418.87
926.695	10834.61
926.871	10144.44
927.048	10195.64
927.224	10758.83
927.401	10386.1
927.577	10402.49
927.754	10175.16
927.93	10830.51
928.107	10537.65
928.283	10162.87
928.459	10205.88
928.636	10359.48
928.812	10162.87
928.988	9947.84
929.165	9925.31
929.341	10103.48
929.517	10056.38
929.693	10232.51
929.87	9779.9
930.046	10218.17
930.222	9921.21
930.398	9884.35
930.574	9898.69
930.751	10138.3
930.927	9718.47
931.103	9824.96
931.279	9394.89
931.455	9603.78
931.631	9728.7
931.807	9417.41
931.983	9261.77
932.159	9198.28
932.335	9566.92
932.511	9368.26
932.687	9061.07
932.863	9435.85
933.039	9382.6
933.215	9165.51
933.391	8903.37
933.566	9079.5
933.742	9157.32
933.918	9050.83
934.094	8614.61
934.27	9073.35
934.445	8927.95
934.621	9026.25
934.797	8397.53
934.973	9024.2
935.148	8714.96
935.324	8254.17
935.5	8104.67
935.675	8641.23
935.851	8510.16
936.027	8075.99
936.202	7932.64
936.378	8112.86
936.553	7875.29
936.729	8174.3
936.904	7305.96
937.08	7211.75
937.255	7371.49
937.431	7029.48
937.606	6820.59
937.782	7066.35
937.957	7127.78
938.133	6845.16
938.308	6638.32
938.483	6949.61
938.659	6513.39
938.834	6400.76
939.009	6284.02
939.185	6306.55
939.36	6179.58
939.535	5839.61
939.71	6023.93
939.886	6593.26
940.061	6447.86
940.236	6038.27
940.411	5888.76
940.586	6200.05
940.761	6089.46
940.937	5651.2
941.112	5634.82
941.287	5708.54
941.462	5673.73
941.637	5341.96
941.812	5569.28
941.987	5624.58
942.162	5614.34
942.337	5329.67
942.512	5384.96
942.687	5548.8
942.862	5767.93
943.037	4961.03
943.212	4817.68
943.386	5372.68
943.561	5382.92
943.736	5290.76
943.911	5311.24
944.086	5475.07
944.26	5499.65
944.435	5276.42
944.61	5225.22
944.785	5724.93
944.959	5724.93
945.134	4983.56
945.309	4930.31
945.483	5065.48
945.658	5454.59
945.833	4934.41
946.007	4983.56
946.182	5862.14
946.357	5155.59
946.531	5036.81
946.706	5028.62
946.88	4913.93
947.055	5323.52
947.229	5192.45
947.404	5059.34
947.578	5645.06
947.752	5286.66
947.927	5106.44
948.101	4918.03
948.276	5528.32
948.45	5389.06
948.624	5432.07
948.799	5223.17
948.973	5513.99
949.147	5270.28
949.321	5276.42
949.496	5260.04
949.67	5853.95
949.844	5362.44
950.018	5376.77
950.193	5354.24
950.367	5925.63
950.541	5464.83
950.715	5368.58
950.889	5477.12
951.063	5524.23
951.237	5866.24
951.411	5460.74
951.585	5309.19
951.759	5690.11
951.933	5757.69
952.107	5544.7
952.281	5718.78
952.455	5933.82
952.629	5991.16
952.803	5417.73
952.977	5473.03
953.151	6023.93
953.325	5583.62
953.499	5577.47
953.672	5401.35
953.846	5669.63
954.02	5749.5
954.194	5548.8
954.368	5448.45
954.541	6060.79
954.715	5751.55
954.889	5868.28
955.062	5686.01
955.236	5843.71
955.41	5749.5
955.583	5950.2
955.757	5544.7
955.93	5829.37
956.104	5817.08
956.278	5745.41
956.451	5708.54
956.625	5982.97
956.798	6380.28
956.972	6114.04
957.145	5696.25
957.319	5929.72
957.492	5974.78
957.665	5968.63
957.839	5772.03
958.012	6071.03
958.185	5939.96
958.359	5905.15
958.532	5907.2
958.705	6216.44
958.879	6044.41
959.052	6150.9
959.225	5655.3
959.398	5972.73
959.572	6109.94
959.745	5825.28
959.918	5872.38
960.091	6085.37
960.264	6126.33
960.438	5835.52
960.611	5806.84
960.784	6232.82
960.957	6046.46
961.13	6048.51
961.303	5763.84
961.476	6007.55
961.649	6249.21
961.822	5624.58
961.995	5837.56
962.168	6286.07
962.341	6066.94
962.514	5909.24
962.686	5829.37
962.859	5919.48
963.032	6310.65
963.205	5806.84
963.378	5710.59
963.551	6134.52
963.723	5980.92
963.896	5874.43
964.069	6013.69
964.242	5860.09
964.414	6152.95
964.587	5778.17
964.76	5837.56
964.932	6138.62
965.105	6048.51
965.278	5755.65
965.45	5831.42
965.623	6048.51
965.795	6116.09
965.968	5640.96
966.14	5772.03
966.313	5776.13
966.485	5839.61
966.658	5675.77
966.83	5636.86
967.003	6226.68
967.175	6089.46
967.348	5733.12
967.52	5710.59
967.692	6382.32
967.865	5935.87
968.037	5548.8
968.209	5858.04
968.382	5872.38
968.554	6071.03
968.726	5665.53
968.898	5606.14
969.071	5982.97
969.243	5829.37
969.415	5696.25
969.587	5544.7
969.759	5999.35
969.932	5958.39
970.104	5698.3
970.276	5221.13
970.448	5663.49
970.62	5493.51
970.792	5550.85
970.964	5600
971.136	6265.59
971.308	5864.19
971.48	5548.8
971.652	5423.87
971.824	6087.42
971.996	5542.66
972.168	5417.73
972.339	5421.83
972.511	5800.7
972.683	5479.17
972.855	5679.87
973.027	5446.4
973.199	5612.29
973.37	5696.25
973.542	5444.35
973.714	5450.5
973.886	5556.99
974.057	5673.73
974.229	5309.19
974.401	5253.89
974.572	5407.49
974.744	5006.09
974.915	5047.05
975.087	5094.15
975.259	5686.01
975.43	5290.76
975.602	5135.11
975.773	5030.66
975.945	5249.8
976.116	5563.14
976.288	5301
976.459	5542.66
976.63	5366.53
976.802	5432.07
976.973	5098.25
977.145	5194.5
977.316	5755.65
977.487	5712.64
977.659	5239.56
977.83	4942.6
978.001	5792.51
978.172	5411.59
978.344	4852.49
978.515	4905.74
978.686	5126.92
978.857	5686.01
979.028	4999.95
979.2	4868.88
979.371	5352.2
979.542	5204.74
979.713	5053.19
979.884	4502.29
980.055	5100.3
980.226	4983.56
980.397	4875.02
980.568	4752.14
980.739	5419.78
980.91	4803.34
981.081	5032.71
981.252	4578.06
981.423	5081.86
981.594	5139.21
981.765	4723.47
981.936	4958.99
982.106	5001.99
982.277	5096.2
982.448	4545.3
982.619	4891.4
982.79	4840.2
982.96	5145.35
983.131	4768.52
983.302	4326.16
983.472	4789
983.643	4989.71
983.814	4950.79
983.984	4604.69
984.155	4836.11
984.326	5088.01
984.496	4733.71
984.667	4526.86
984.837	4694.8
985.008	5081.86
985.178	4709.13
985.349	4324.12
985.519	4596.5
985.69	4592.4
985.86	4502.29
986.031	4455.19
986.201	4805.39
986.371	4619.02
986.542	4463.38
986.712	4109.08
986.882	4545.3
987.053	4510.48
987.223	4315.92
987.393	4524.82
987.563	4297.49
987.734	4608.78
987.904	4565.78
988.074	4258.58
988.244	4547.34
988.414	4340.5
988.585	4160.28
988.755	4334.36
988.925	4287.25
989.095	4723.47
989.265	4033.3
989.435	4115.22
989.605	4403.99
989.775	4268.82
989.945	4299.54
990.115	3922.71
990.285	4234
990.455	4215.57
990.625	4100.89
990.795	3935
990.965	4530.96
991.134	3963.67
991.304	3894.04
991.474	3998.49
991.644	4344.6
991.814	4426.51
991.984	3752.73
992.153	3640.09
992.323	4049.69
992.493	4090.65
992.662	3427.11
992.832	3896.09
993.002	4160.28
993.171	3971.86
993.341	3609.37
993.511	3863.32
993.68	4004.63
993.85	4289.3
994.019	3570.46
994.189	3648.29
994.358	4057.88
994.528	3779.36
994.697	3521.31
994.867	3480.35
995.036	4031.26
995.206	3732.25
995.375	3623.71
995.544	3615.52
995.714	3947.29
995.883	3707.68
996.052	3754.78
996.222	3357.47
996.391	4326.16
996.56	3803.93
996.73	3162.92
996.899	3226.4
997.068	3935
997.237	3617.57
997.406	3263.27
997.576	3222.31
997.745	3664.67
997.914	3797.79
998.083	3154.73
998.252	3355.43
998.421	3498.78
998.59	3476.26
998.759	3132.2
998.928	3042.09
999.097	3861.27
999.266	3703.58
999.435	3240.74
999.604	3042.09
999.773	4057.88
999.942	3461.92
1000.111	3068.71
1000.28	3058.47
1000.448	3126.05
1000.617	3175.2
1000.786	3339.04
1000.955	3066.66
1001.124	3590.94
1001.292	3947.29
1001.461	3068.71
1001.63	3042.09
1001.798	3623.71
1001.967	3556.13
1002.136	2767.66
1002.304	2939.69
1002.473	3248.93
1002.642	3390.24
1002.81	3081
1002.979	2919.21
1003.147	3404.58
1003.316	3736.35
1003.484	3025.7
1003.653	2749.23
1003.821	3384.1
1003.99	2972.46
1004.158	2970.41
1004.327	2982.7
1004.495	3175.2
1004.663	2870.06
1004.832	2929.45
1005	2566.96
1005.168	3136.29
1005.337	2894.63
1005.505	2632.49
1005.673	2822.95
1005.842	3169.06
1006.01	3017.51
1006.178	2683.69
1006.346	2591.53
1006.514	2972.46
1006.683	3185.44
1006.851	2571.05
1007.019	2808.62
1007.187	2652.97
1007.355	2384.69
1007.523	2489.14
1007.691	2503.47
1007.859	2575.15
1008.027	3203.88
1008.195	2630.45
1008.363	2304.82
1008.531	2919.21
1008.699	2597.68
1008.867	2458.42
1009.035	2315.06
1009.203	2960.17
1009.37	2601.77
1009.538	2341.68
1009.706	2925.35
1009.874	2724.65
1010.042	2642.73
1010.209	2284.34
1010.377	2298.67
1010.545	2814.76
1010.713	2597.68
1010.88	2173.75
1011.048	2292.53
1011.216	2439.98
1011.383	2816.81
1011.551	2089.78
1011.718	2132.79
1011.886	2736.94
1012.054	2548.53
1012.221	2079.54
1012.389	2167.6
1012.556	2566.96
1012.724	2900.78
1012.891	2290.48
1013.058	1948.47
1013.226	2523.95
1013.393	2671.4
1013.561	1905.46
1013.728	1925.94
1013.895	2650.92
1014.063	2507.57
1014.23	2014.01
1014.397	1889.08
1014.565	2427.7
1014.732	2243.38
1014.899	2048.82
1015.066	1835.83
1015.233	2241.33
1015.401	2394.93
1015.568	2067.25
1015.735	1993.53
1015.902	2143.03
1016.069	2458.42
1016.236	1911.61
1016.403	1803.07
1016.57	2042.68
1016.737	2313.01
1016.904	1852.22
1017.071	1835.83
1017.238	1975.1
1017.405	2376.5
1017.572	1811.26
1017.739	2061.11
1017.906	2227
1018.073	2251.57
1018.24	1674.04
1018.407	1684.28
1018.573	2329.39
1018.74	2061.11
1018.907	1829.69
1019.074	1475.39
1019.241	2276.15
1019.407	2073.4
1019.574	1672
1019.741	1551.17
1019.907	2003.77
1020.074	2050.87
1020.241	1391.42
1020.407	1620.8
1020.574	2040.63
1020.74	2057.01
1020.907	1590.08
1021.073	1526.59
1021.24	2403.12
1021.406	2327.35
1021.573	1442.62
1021.739	1530.69
1021.906	2034.49
1022.072	1729.34
1022.239	1495.87
1022.405	1553.21
1022.571	1796.92
1022.738	1698.62
1022.904	1573.69
1023.07	1553.21
1023.237	1817.4
1023.403	2063.16
1023.569	1518.4
1023.735	1538.88
1023.902	1762.11
1024.068	1831.74
1024.234	1395.52
1024.4	1389.38
1024.566	1776.44
1024.732	1915.7
1024.898	1354.56
1025.065	1250.11
1025.231	1993.53
1025.397	1676.09
1025.563	1477.44
1025.729	1385.28
1025.895	1282.88
1026.061	1469.25
1026.227	1221.44
1026.392	1448.77
1026.558	1876.79
1026.724	1846.07
1026.89	1350.46
1027.056	1329.99
1027.222	1729.34
1027.388	1542.97
1027.553	1284.93
1027.719	1182.53
1027.885	1999.67
1028.051	1606.46
1028.216	1102.66
1028.382	1276.74
1028.548	1706.81
1028.713	1536.83
1028.879	1127.24
1029.045	1387.33
1029.21	1766.2
1029.376	1735.48
1029.541	1141.57
1029.707	1223.49
1029.873	1680.19
1030.038	1741.63
1030.204	1094.47
1030.369	1153.86
1030.534	1745.72
1030.7	1342.27
1030.865	1129.28
1031.031	1006.41
1031.196	1549.12
1031.361	1508.16
1031.527	1186.63
1031.692	1180.48
1031.857	1125.19
1032.023	1528.64
1032.188	1131.33
1032.353	1121.09
1032.518	1905.46
1032.684	1528.64
1032.849	1004.36
1033.014	1084.23
1033.179	1555.26
1033.344	1536.83
1033.509	1157.96
1033.674	985.93
1033.839	1536.83
1034.004	1569.6
1034.17	1022.79
1034.335	901.96
1034.5	1327.94
1034.664	1272.64
1034.829	842.57
1034.994	961.35
1035.159	1420.1
1035.324	1329.99
1035.489	1008.45
1035.654	920.39
1035.819	1542.97
1035.984	1391.42
1036.148	1000.26
1036.313	852.81
1036.478	1581.89
1036.643	1305.41
1036.807	811.85
1036.972	826.18
1037.137	1565.5
1037.301	1252.16
1037.466	752.46
1037.631	1014.6
1037.795	1551.17
1037.96	1217.35
1038.124	1049.41
1038.289	770.89
1038.454	1354.56
1038.618	1270.59
1038.783	805.71
1038.947	893.77
1039.111	1340.22
1039.276	1069.89
1039.44	777.03
1039.605	1354.56
1039.769	1096.52
1039.933	1030.98
1040.098	807.75
1040.262	934.73
1040.426	1385.28
1040.591	1254.21
1040.755	777.03
1040.919	824.14
1041.083	1258.31
1041.248	1106.76
1041.412	629.58
1041.576	748.36
1041.74	1024.84
1041.904	1446.72
1042.068	652.11
1042.232	832.33
1042.397	1332.03
1042.561	1164.1
1042.725	572.24
1042.889	793.42
1043.053	1194.82
1043.217	1217.35
1043.381	863.05
1043.544	580.43
1043.708	1510.21
1043.872	719.69
1044.036	453.45
1044.2	514.89
1044.364	1307.46
1044.528	1366.85
1044.691	3638.05
1044.855	576.33
1045.019	1364.8
1045.183	1174.34
1045.346	721.74
1045.51	525.13
1045.674	1178.44
1045.837	1176.39
1046.001	637.77
1046.165	531.28
1046.328	1497.92
1046.492	1125.19
1046.655	826.18
1046.819	662.35
1046.983	809.8
1047.146	1063.75
1047.31	731.98
1047.473	455.5
1047.636	930.63
1047.8	752.46
1047.963	619.34
1048.127	541.52
1048.29	762.7
