Data from Hydrogel_Ink_Intensity_Test_1_USB4F045381__5__00005.txt Node

Date: Mon Jul 31 10:35:33 EDT 2023
User: mmckonesweet
Spectrometer: USB4F04538
Trigger mode: 4
Integration Time (sec): 9.000000E-1
Scans to average: 1
Electric dark correction enabled: true
Nonlinearity correction enabled: false
Boxcar width: 0
XAxis mode: Wavelengths
Number of Pixels in Spectrum: 3648
>>>>>Begin Spectral Data<<<<<
345.52	-957.6
345.736	-957.6
345.952	-957.6
346.168	-969.88
346.384	-926.88
346.6	-113.83
346.816	-195.75
347.032	-246.95
347.248	240.47
347.464	-169.13
347.68	37.72
347.896	101.2
348.112	355.15
348.328	-124.07
348.544	-81.07
348.76	25.43
348.975	170.83
349.191	-253.09
349.407	-119.98
349.623	37.72
349.839	-54.44
350.055	-111.78
350.27	140.12
350.486	183.12
350.702	437.07
350.918	250.71
351.133	-171.18
351.349	228.18
351.565	437.07
351.781	-160.94
351.996	-17.58
352.212	365.39
352.428	-148.65
352.644	-105.64
352.859	-138.41
353.075	353.1
353.291	37.72
353.506	-40.11
353.722	-111.78
353.938	25.43
354.153	461.65
354.369	127.83
354.584	-115.88
354.8	222.03
355.016	-251.05
355.231	-122.02
355.447	-56.49
355.662	181.07
355.878	979.78
356.093	-220.33
356.309	56.15
356.524	-89.26
356.74	262.99
356.955	-7.34
357.171	13.14
357.386	176.98
357.602	-181.42
357.817	-17.58
358.033	-50.35
358.248	363.34
358.464	295.76
358.679	-36.01
358.895	-218.28
359.11	82.77
359.325	457.55
359.541	246.61
359.756	129.88
359.972	-201.9
360.187	234.32
360.402	-89.26
360.618	-19.63
360.833	899.91
361.048	265.04
361.264	-126.12
361.479	35.67
361.694	15.19
361.909	277.33
362.125	-126.12
362.34	-27.82
362.555	250.71
362.77	156.5
362.986	-179.37
363.201	-36.01
363.416	170.83
363.631	52.05
363.847	-42.15
364.062	-56.49
364.277	228.18
364.492	125.78
364.707	-27.82
364.922	-261.29
365.138	295.76
365.353	430.93
365.568	-136.36
365.783	72.53
365.998	123.73
366.213	557.9
366.428	-50.35
366.643	179.03
366.858	420.69
367.073	246.61
367.288	88.92
367.503	-117.93
367.718	199.51
367.933	373.58
368.148	-126.12
368.363	58.2
368.578	131.92
368.793	482.13
369.008	17.24
369.223	-152.74
369.438	213.84
369.653	508.75
369.868	-142.5
370.083	-68.78
370.298	160.59
370.513	445.26
370.728	252.75
370.943	-60.59
371.157	-99.5
371.372	570.19
371.587	-156.84
371.802	-103.59
372.017	148.31
372.232	500.56
372.446	156.5
372.661	-130.22
372.876	394.06
373.091	228.18
373.306	93.01
373.52	-56.49
373.735	-44.2
373.95	533.33
374.165	41.81
374.379	45.91
374.594	-17.58
374.809	168.79
375.023	240.47
375.238	-175.27
375.453	414.54
375.667	-175.27
375.882	78.68
376.097	-81.07
376.311	226.13
376.526	121.68
376.741	21.33
376.955	250.71
377.17	721.74
377.384	707.4
377.599	97.11
377.813	-58.54
378.028	736.07
378.242	226.13
378.457	146.26
378.672	-181.42
378.886	318.29
379.101	129.88
379.315	-79.02
379.53	56.15
379.744	320.34
379.958	367.44
380.173	21.33
380.387	0.85
380.602	385.87
380.816	35.67
381.031	37.72
381.245	70.48
381.459	396.11
381.674	2626.35
381.888	74.58
382.103	346.96
382.317	31.57
382.531	742.22
382.746	203.6
382.96	168.79
383.174	56.15
383.388	625.48
383.603	338.77
383.817	-46.25
384.031	367.44
384.246	645.96
384.46	291.66
384.674	500.56
384.888	324.43
385.103	248.66
385.317	41.81
385.531	211.79
385.745	590.67
385.959	500.56
386.174	133.97
386.388	9.05
386.602	222.03
386.816	183.12
387.03	207.7
387.244	213.84
387.458	367.44
387.672	627.53
387.887	-36.01
388.101	17.24
388.315	666.44
388.529	342.86
388.743	224.08
388.957	86.87
389.171	666.44
389.385	76.63
389.599	148.31
389.813	432.97
390.027	457.55
390.241	944.97
390.455	275.28
390.669	338.77
390.883	265.04
391.097	701.26
391.311	293.71
391.525	240.47
391.738	498.51
391.952	447.31
392.166	297.81
392.38	125.78
392.594	672.59
392.808	596.81
393.022	373.58
393.236	283.47
393.449	607.05
393.663	426.83
393.877	168.79
394.091	277.33
394.305	271.19
394.518	308.05
394.732	97.11
394.946	252.75
395.16	797.51
395.373	414.54
395.587	308.05
395.801	246.61
396.015	695.11
396.228	506.7
396.442	224.08
396.656	125.78
396.869	703.31
397.083	783.18
397.297	308.05
397.51	308.05
397.724	807.75
397.938	539.47
398.151	109.4
398.365	191.31
398.578	674.64
398.792	838.47
399.005	449.36
399.219	398.16
399.433	404.3
399.646	613.2
399.86	457.55
400.073	496.46
400.287	734.03
400.5	369.49
400.714	539.47
400.927	463.69
401.141	731.98
401.354	1368.9
401.567	680.78
401.781	240.47
401.994	813.9
402.208	1073.99
402.421	392.02
402.635	518.99
402.848	553.8
403.061	865.1
403.275	555.85
403.488	318.29
403.701	934.73
403.915	830.28
404.128	525.13
404.341	412.5
404.555	688.97
404.768	643.92
404.981	750.41
405.195	394.06
405.408	1010.5
405.621	828.23
405.834	639.82
406.048	473.93
406.261	881.48
406.474	1106.76
406.687	353.1
406.9	621.39
407.114	648.01
407.327	817.99
407.54	373.58
407.753	379.73
407.966	490.32
408.179	877.38
408.392	435.02
408.605	416.59
408.819	795.47
409.032	924.49
409.245	475.98
409.458	668.49
409.671	899.91
409.884	1026.89
410.097	443.21
410.31	738.12
410.523	815.94
410.736	645.96
410.949	557.9
411.162	697.16
411.375	1176.39
411.588	1065.8
411.801	848.71
412.014	617.29
412.227	815.94
412.44	670.54
412.653	598.86
412.865	742.22
413.078	1073.99
413.291	1043.27
413.504	715.59
413.717	758.6
413.93	1010.5
414.143	607.05
414.356	697.16
414.568	564.04
414.781	1018.69
414.994	1000.26
415.207	805.71
415.42	686.92
415.632	1073.99
415.845	1246.02
416.058	566.09
416.271	566.09
416.483	887.62
416.696	1329.99
416.909	721.74
417.121	510.8
417.334	1102.66
417.547	1446.72
417.759	725.83
417.972	752.46
418.185	904.01
418.397	1098.56
418.61	676.68
418.823	752.46
419.035	1356.61
419.248	912.2
419.46	861
419.673	863.05
419.885	1106.76
420.098	1022.79
420.311	844.62
420.523	633.68
420.736	1106.76
420.948	979.78
421.161	801.61
421.373	746.31
421.586	1096.52
421.798	834.38
422.01	758.6
422.223	1051.46
422.435	893.77
422.648	1241.92
422.86	850.76
423.073	887.62
423.285	1391.42
423.497	768.84
423.71	975.69
423.922	926.54
424.134	1284.93
424.347	1510.21
424.559	1303.36
424.771	1235.78
424.984	1016.65
425.196	1311.55
425.408	785.23
425.621	820.04
425.833	1450.82
426.045	1555.26
426.257	934.73
426.47	961.35
426.682	1372.99
426.894	1278.79
427.106	1039.17
427.318	1155.91
427.531	1098.56
427.743	1424.19
427.955	987.97
428.167	1454.91
428.379	1456.96
428.591	1184.58
428.804	1291.07
429.016	1121.09
429.228	1194.82
429.44	1409.86
429.652	1340.22
429.864	1030.98
430.076	1319.75
430.288	1348.42
430.5	1368.9
430.712	1266.5
430.924	1528.64
431.136	1456.96
431.348	1117
431.56	1227.59
431.772	1434.43
431.984	1409.86
432.196	1059.65
432.408	1264.45
432.62	1416
432.832	1622.84
433.044	1573.69
433.256	1405.76
433.468	1768.25
433.679	1237.83
433.891	1182.53
434.103	1565.5
434.315	1905.46
434.527	1749.82
434.739	1555.26
434.95	1631.04
435.162	1950.52
435.374	1481.53
435.586	1416
435.798	1493.82
436.009	1377.09
436.221	1583.93
436.433	1442.62
436.645	1469.25
436.856	1583.93
437.068	1864.5
437.28	1438.53
437.491	1876.79
437.703	1948.47
437.915	1882.94
438.126	1538.88
438.338	1815.35
438.55	1798.97
438.761	1999.67
438.973	1694.52
439.184	1731.39
439.396	1745.72
439.608	2132.79
439.819	1540.93
440.031	1751.87
440.242	2028.34
440.454	2005.81
440.665	1872.7
440.877	1880.89
441.088	2042.68
441.3	1803.07
441.511	1620.8
441.723	1710.91
441.934	1932.09
442.146	1954.62
442.357	1917.75
442.569	1934.14
442.78	2081.59
442.991	2419.5
443.203	2075.45
443.414	1798.97
443.626	2353.97
443.837	1782.59
444.048	1729.34
444.26	1639.23
444.471	2095.93
444.682	2267.95
444.894	1731.39
445.105	1731.39
445.316	2237.24
445.528	2071.35
445.739	2026.29
445.95	1964.86
446.161	2229.04
446.373	2396.98
446.584	1911.61
446.795	1973.05
447.006	2386.74
447.217	2523.95
447.429	1858.36
447.64	1897.27
447.851	2343.73
448.062	2138.93
448.273	1856.31
448.484	2040.63
448.695	2210.61
448.907	2229.04
449.118	2261.81
449.329	2202.42
449.54	2136.88
449.751	2044.73
449.962	2159.41
450.173	2091.83
450.384	2491.18
450.595	2634.54
450.806	2292.53
451.017	2104.12
451.228	2599.73
451.439	2646.83
451.65	2298.67
451.861	1950.52
452.072	2247.48
452.283	2462.51
452.494	2468.66
452.705	2251.57
452.915	2904.87
453.126	2530.09
453.337	2351.92
453.548	2274.1
453.759	2708.27
453.97	3117.86
454.181	2671.4
454.391	2581.29
454.602	2765.61
454.813	2659.12
455.024	2482.99
455.235	2509.62
455.445	2718.51
455.656	2855.72
455.867	2720.56
456.078	2421.55
456.288	2632.49
456.499	2960.17
456.71	2562.86
456.921	2870.06
457.131	2802.47
457.342	2833.19
457.553	2677.55
457.763	2569.01
457.974	3158.82
458.184	3083.05
458.395	2726.7
458.606	2691.88
458.816	3263.27
459.027	3449.63
459.237	3134.25
459.448	2704.17
459.659	3242.79
459.869	3568.41
460.08	2886.44
460.29	3160.87
460.501	3654.43
460.711	3238.69
460.922	2966.31
461.132	3136.29
461.343	4000.54
461.553	3162.92
461.764	3210.02
461.974	3162.92
462.184	3445.54
462.395	3384.1
462.605	3455.78
462.816	3195.68
463.026	3545.89
463.236	3889.95
463.447	3398.43
463.657	3365.67
463.867	3836.7
464.078	3707.68
464.288	3418.91
464.498	3660.57
464.709	3652.38
464.919	3781.4
465.129	3574.56
465.339	3513.12
465.55	4039.45
465.76	4006.68
465.97	3726.11
466.18	3711.77
466.391	4293.4
466.601	4180.76
466.811	3953.43
467.021	3906.33
467.231	4430.61
467.441	4436.75
467.651	4145.94
467.862	3949.34
468.072	4416.27
468.282	4778.76
468.492	4193.05
468.702	4297.49
468.912	4500.24
469.122	5108.49
469.332	4672.27
469.542	4342.55
469.752	4967.18
469.962	4746
470.172	4424.47
470.382	4748.04
470.592	5137.16
470.802	5247.75
471.012	4797.2
471.222	4842.25
471.432	5217.03
471.642	5284.61
471.852	5192.45
472.062	5055.24
472.272	5204.74
472.482	5296.9
472.691	5421.83
472.901	5153.54
473.111	5571.33
473.321	6181.62
473.531	5382.92
473.741	5579.52
473.95	5847.8
474.16	6091.51
474.37	5823.23
474.58	5571.33
474.79	6513.39
474.999	6017.79
475.209	5821.18
475.419	6005.5
475.628	6269.69
475.838	6574.83
476.048	6171.38
476.258	6261.49
476.467	6994.67
476.677	6523.63
476.886	6675.18
477.096	6685.42
477.306	6693.62
477.515	7256.81
477.725	6769.39
477.935	6828.78
478.144	7316.2
478.354	6922.99
478.563	7156.46
478.773	7062.25
478.982	7422.69
479.192	7713.5
479.401	7482.08
479.611	7142.12
479.82	7412.45
480.03	7711.46
480.239	7672.54
480.449	7424.74
480.658	8393.43
480.868	7779.04
481.077	7973.6
481.287	7899.87
481.496	8407.77
481.705	8661.71
481.915	8331.99
482.124	8497.88
482.333	8454.87
482.543	8731.34
482.752	8362.71
482.961	8325.85
483.171	8884.94
483.38	8680.14
483.589	8821.45
483.799	8555.22
484.008	8979.15
484.217	9009.87
484.426	9005.77
484.636	8975.05
484.845	9274.06
485.054	8805.07
485.263	9544.39
485.472	9413.32
485.682	9896.64
485.891	9673.41
486.1	9071.31
486.309	9552.58
486.518	9765.57
486.727	10134.2
486.936	9747.14
487.146	9822.91
487.355	10390.2
487.564	9753.28
487.773	10228.41
487.982	10189.5
488.191	10334.9
488.4	10511.03
488.609	10336.95
488.818	10265.27
489.027	11051.69
489.236	11104.94
489.445	10529.46
489.654	10629.81
489.863	11240.11
490.072	10996.4
490.281	11125.42
490.49	10816.18
490.698	11479.72
490.907	11512.49
491.116	11315.88
491.325	10965.68
491.534	11752.1
491.743	11442.85
491.952	11356.84
492.16	11389.61
492.369	11784.87
492.578	11960.99
492.787	11434.66
492.996	11405.99
493.204	11852.45
493.413	12581.53
493.622	11715.23
493.831	11614.88
494.039	12634.77
494.248	11813.54
494.457	12044.96
494.665	12079.77
494.874	12409.5
495.083	12837.52
495.291	12176.03
495.5	12366.49
495.709	12905.1
495.917	12690.07
496.126	12487.32
496.335	12554.9
496.543	12888.72
496.752	12933.78
496.96	12923.54
497.169	12655.25
497.377	13075.09
497.586	13357.71
497.794	13146.76
498.003	12858
498.211	13476.49
498.42	13785.73
498.628	13453.96
498.837	13193.87
499.045	13562.5
499.254	13462.15
499.462	13482.63
499.671	13396.62
499.879	14154.37
500.087	13970.05
500.296	13476.49
500.504	13742.72
500.713	13929.09
500.921	14531.19
501.129	13523.59
501.338	13585.03
501.546	14508.66
501.754	14375.55
501.962	13949.57
502.171	13959.81
502.379	14666.36
502.587	14776.95
502.795	14279.29
503.004	13965.95
503.212	14658.17
503.42	14512.76
503.628	14563.96
503.837	14559.86
504.045	15098.48
504.253	15405.67
504.461	14563.96
504.669	14635.64
504.877	14967.41
505.085	15403.63
505.294	14676.6
505.502	15008.37
505.71	15399.53
505.918	15315.56
506.126	14873.2
506.334	14953.07
506.542	15252.08
506.75	15211.12
506.958	15319.66
507.166	15501.93
507.374	15327.85
507.582	16075.36
507.79	15850.08
507.998	15387.24
508.206	15792.74
508.414	15852.13
508.622	15600.23
508.83	15575.66
509.037	16527.96
509.245	15876.71
509.453	15788.64
509.661	15786.6
509.869	16312.92
510.077	15878.76
510.285	15577.7
510.492	15620.71
510.7	16906.84
510.908	16024.16
511.116	16142.94
511.324	15880.8
511.531	16222.81
511.739	16446.04
511.947	16179.81
512.155	16607.83
512.362	16626.26
512.57	16454.23
512.778	16480.86
512.985	16231.01
513.193	16783.96
513.401	16947.79
513.608	16720.47
513.816	16622.17
514.024	17068.62
514.231	17156.69
514.439	16732.76
514.646	16761.43
514.854	17107.54
515.061	17056.34
515.269	17009.23
515.477	16722.52
515.684	17355.34
515.892	17277.52
516.099	16912.98
516.307	17162.83
516.514	17568.33
516.722	18045.51
516.929	17261.13
517.136	16992.85
517.344	17539.66
517.551	17625.67
517.759	17328.72
517.966	17476.17
518.173	17570.38
518.381	17838.66
518.588	17695.3
518.796	17576.52
519.003	17848.9
519.21	17818.18
519.418	17474.12
519.625	18080.32
519.832	18065.99
520.039	18045.51
520.247	17762.89
520.454	18080.32
520.661	18602.55
520.868	18106.95
521.076	18227.78
521.283	17904.2
521.49	18514.49
521.697	18747.96
521.904	18426.43
522.112	18152
522.319	18565.69
522.526	18645.56
522.733	18381.37
522.94	18565.69
523.147	18958.9
523.354	18811.45
523.561	18403.9
523.768	18661.94
523.975	19341.87
524.183	18946.61
524.39	18758.2
524.597	19012.15
524.804	19155.51
525.011	18956.85
525.218	18876.98
525.425	18999.86
525.632	19317.29
525.838	19270.19
526.045	19055.15
526.252	19186.22
526.459	20840.98
526.666	20326.94
526.873	19663.4
527.08	19718.7
527.287	20124.19
527.494	20087.33
527.701	19597.87
527.907	19348.01
528.114	20179.49
528.321	19550.76
528.528	19610.15
528.735	19642.92
528.941	19864.1
529.148	19487.28
529.355	19943.97
529.562	19474.99
529.768	20292.13
529.975	19927.59
530.182	20208.16
530.388	20197.92
530.595	20582.94
530.802	20040.23
531.008	20333.09
531.215	20363.81
531.422	21248.53
531.628	21406.22
531.835	20630.04
532.042	20595.23
532.248	21246.48
532.455	20904.47
532.661	20771.35
532.868	20564.51
533.074	21168.66
533.281	21342.74
533.487	20726.3
533.694	21000.72
533.9	21150.23
534.107	21385.74
534.313	20918.81
534.52	20959.77
534.726	21615.12
534.933	21793.29
535.139	21174.8
535.345	21295.63
535.552	21692.94
535.758	21799.43
535.965	21449.23
536.171	21533.2
536.377	21916.17
536.584	22155.78
536.79	21639.69
536.996	21910.02
537.203	22088.2
537.409	21867.02
537.615	21656.07
537.821	21821.96
538.028	22434.3
538.234	22141.44
538.44	21623.31
538.646	22004.23
538.853	22204.93
539.059	22200.83
539.265	22454.78
539.471	22282.75
539.677	22579.71
539.883	22655.48
540.09	22454.78
540.296	22526.46
540.502	22979.06
540.708	22442.49
540.914	22706.68
541.12	22551.04
541.326	23058.93
541.532	23054.84
541.738	23017.97
541.944	22573.56
542.15	23370.22
542.356	22847.99
542.562	22831.61
542.768	23026.17
542.974	24052.2
543.18	24109.54
543.386	23450.1
543.592	22929.91
543.798	24009.19
544.004	23745
544.21	23618.03
544.415	23468.53
544.621	23835.11
544.827	23730.67
545.033	23319.03
545.239	23794.15
545.445	23867.88
545.651	23931.37
545.856	23562.73
546.062	23548.4
546.268	23828.97
546.474	23894.5
546.679	23695.85
546.885	24017.38
547.091	23933.42
547.297	24398.31
547.502	23855.59
547.708	23710.19
547.914	23859.69
548.119	24310.24
548.325	23906.79
548.531	23489.01
548.736	24668.64
548.942	24084.97
549.147	24048.1
549.353	23992.81
549.559	24621.53
549.764	24801.75
549.97	24142.31
550.175	24259.04
550.381	24850.91
550.586	24246.76
550.792	24500.7
550.997	24680.92
551.203	25067.99
551.408	25031.13
551.614	24779.23
551.819	24951.26
552.025	25536.98
552.23	25948.62
552.435	25016.79
552.641	25479.63
552.846	25502.16
553.052	25852.36
553.257	24969.69
553.462	25561.55
553.668	25319.89
553.873	25936.33
554.078	25412.05
554.283	25334.23
554.489	26005.96
554.694	25987.53
554.899	25246.16
555.105	25721.29
555.31	25747.92
555.515	25975.24
555.72	25782.73
555.925	25653.71
556.131	26431.94
556.336	25688.53
556.541	25840.08
556.746	26005.96
556.951	26337.73
557.156	26597.82
557.361	25840.08
557.567	26603.97
557.772	26386.88
557.977	26411.46
558.182	26120.65
558.387	25985.48
558.592	26560.96
558.797	26454.47
559.002	26212.81
559.207	26431.94
559.412	26204.61
559.617	27103.67
559.822	26386.88
560.027	26634.69
560.232	26665.41
560.437	26821.05
560.642	26157.51
560.847	26782.14
561.051	26722.75
561.256	26520
561.461	26636.73
561.666	26423.75
561.871	27130.3
562.076	27343.28
562.281	26765.76
562.485	26464.71
562.69	27105.72
562.895	26935.74
563.1	26900.92
563.305	26745.28
563.509	26948.03
563.714	27570.61
563.919	26825.15
564.123	27042.23
564.328	27120.06
564.533	27447.73
564.737	27146.68
564.942	26972.6
565.147	27851.18
565.351	27953.58
565.556	27062.71
565.761	27169.21
565.965	27509.17
566.17	27197.88
566.374	26978.75
566.579	27177.4
566.784	27062.71
566.988	27656.62
567.193	27400.63
567.397	27468.21
567.602	27926.96
567.806	27453.87
568.011	27480.5
568.215	28133.8
568.42	27472.31
568.624	28023.21
568.828	27709.87
569.033	28012.97
569.237	28412.32
569.442	27797.93
569.646	27406.77
569.85	27984.3
570.055	27951.53
570.259	28234.15
570.463	28371.36
570.668	27992.49
570.872	27779.5
571.076	28047.79
571.281	28248.49
571.485	28443.04
571.689	28244.39
571.893	28572.07
572.098	28340.64
572.302	28475.81
572.506	28547.49
572.71	28330.41
572.914	28426.66
573.119	28553.63
573.323	29139.35
573.527	29039
573.731	28449.19
573.935	28246.44
574.139	28887.45
574.343	28436.9
574.547	28717.47
574.751	29088.15
574.955	29004.19
575.159	29094.3
575.364	28805.53
575.568	28766.62
575.772	29045.15
575.976	29458.84
576.18	28914.08
576.383	29174.17
576.587	29581.71
576.791	29561.23
576.995	28676.51
577.199	29045.15
577.403	29288.85
577.607	30069.13
577.811	29532.56
578.015	28860.83
578.219	29811.09
578.422	29790.61
578.626	29608.34
578.83	29415.83
579.034	29770.13
579.238	29399.44
579.442	29290.9
579.645	29804.94
579.849	29979.02
580.053	30118.28
580.257	29606.29
580.46	29837.71
580.664	30235.02
580.868	29895.05
581.071	29880.72
581.275	30065.03
581.479	29874.57
581.682	30210.44
581.886	30017.93
582.09	29847.95
582.293	30058.89
582.497	30501.25
582.7	30114.19
582.904	30335.37
583.107	30562.69
583.311	30040.46
583.515	29974.92
583.718	30159.24
583.922	30876.03
584.125	31099.26
584.329	30022.03
584.532	30583.17
584.735	31193.47
584.939	30620.03
585.142	30239.11
585.346	30347.65
585.549	30781.82
585.753	30646.66
585.956	30779.78
586.159	30572.93
586.363	31328.63
586.566	31289.72
586.769	30996.86
586.973	30353.8
587.176	31289.72
587.379	31271.29
587.582	31410.55
587.786	31033.72
587.989	31289.72
588.192	31742.32
588.395	31457.65
588.599	31459.7
588.802	31850.86
589.005	31443.32
589.208	31742.32
589.411	31312.25
589.615	31394.17
589.818	32233.83
590.021	32047.47
590.224	31732.08
590.427	32119.15
590.63	31908.21
590.833	31611.25
591.036	31578.48
591.239	32235.88
591.442	31629.68
591.645	31885.68
591.848	31842.67
592.051	32231.79
592.254	32629.09
592.457	32158.06
592.66	31887.73
592.863	32289.13
593.066	32201.07
593.269	32086.38
593.472	32029.04
593.675	32541.03
593.878	32412.01
594.081	32907.62
594.284	32235.88
594.486	32549.22
594.689	32442.73
594.892	32184.68
595.095	32831.84
595.298	32958.81
595.5	32397.67
595.703	32547.17
595.906	32530.79
596.109	33304.92
596.311	32903.52
596.514	32354.66
596.717	33286.49
596.92	33339.74
597.122	33012.06
597.325	32463.21
597.528	33055.07
597.73	33622.36
597.933	33141.08
598.136	32840.03
598.338	32600.42
598.541	33677.65
598.743	33900.88
598.946	32878.94
599.148	33257.82
599.351	33634.64
599.554	33974.61
599.756	33427.8
599.959	33479
600.161	33671.51
600.363	34009.42
600.566	33544.53
600.768	33448.28
600.971	34134.35
601.173	33501.53
601.376	33427.8
601.578	33440.09
601.78	34099.53
601.983	34816.32
602.185	33399.13
602.388	33923.41
602.59	34068.81
602.792	34001.23
602.995	33702.23
603.197	33747.28
603.399	34335.05
603.601	33947.98
603.804	33872.21
604.006	33964.37
604.208	33778
604.41	33816.91
604.613	33984.85
604.815	33780.05
605.017	34421.06
605.219	33988.94
605.421	33765.71
605.623	33851.73
605.826	34715.97
606.028	34240.84
606.23	34042.19
606.432	34109.77
606.634	34912.58
606.836	35019.07
607.038	33993.04
607.24	34109.77
607.442	34507.08
607.644	34584.9
607.846	34300.23
608.048	34144.59
608.25	34324.81
608.452	34300.23
608.654	34394.44
608.856	33902.93
609.058	34462.02
609.26	34738.5
609.462	34169.16
609.664	34443.59
609.866	34349.39
610.067	34611.53
610.269	34287.95
610.471	34435.4
610.673	34664.77
610.875	34715.97
611.077	33964.37
611.278	34244.94
611.48	34615.62
611.682	34748.74
611.884	34812.23
612.085	34550.09
612.287	34650.44
612.489	34791.75
612.69	34576.71
612.892	34746.69
613.094	35070.27
613.295	34763.07
613.497	34410.82
613.699	34709.83
613.9	35664.18
614.102	34988.35
614.304	34660.68
614.505	34230.6
614.707	35004.74
614.908	34531.65
615.11	34431.3
615.311	34562.37
615.513	34703.68
615.714	35305.79
615.916	34617.67
616.117	34441.54
616.319	34814.27
616.52	35277.12
616.722	34593.09
616.923	34644.29
617.124	35004.74
617.326	34699.59
617.527	35184.96
617.729	34980.16
617.93	35090.75
618.131	35356.99
618.333	34396.49
618.534	35070.27
618.735	34924.86
618.937	35529.02
619.138	34627.91
619.339	34496.84
619.54	35361.08
619.742	35053.89
619.943	35250.49
620.144	34822.47
620.345	35307.83
620.546	34969.92
620.748	34931.01
620.949	35066.17
621.15	35162.43
621.351	35283.26
621.552	34726.21
621.753	34648.39
621.954	35014.98
622.155	35002.69
622.356	34916.67
622.558	34947.39
622.759	35000.64
622.96	35430.71
623.161	34787.65
623.362	34593.09
623.563	35172.67
623.764	34961.73
623.965	35184.96
624.166	35432.76
624.366	35336.51
624.567	35174.72
624.768	34814.27
624.969	34945.34
625.17	35152.19
625.371	35178.81
625.572	34748.74
625.773	35043.65
625.973	35739.96
626.174	35750.2
626.375	35578.17
626.576	35375.42
626.777	35795.25
626.977	36055.34
627.178	35709.24
627.379	34894.14
627.58	35168.57
627.78	35543.35
627.981	34967.87
628.182	35365.18
628.382	35705.14
628.583	35221.82
628.784	35096.89
628.984	35543.35
629.185	35967.28
629.386	35672.37
629.586	35668.28
629.787	35594.55
629.987	35664.18
630.188	36045.1
630.388	35610.93
630.589	35275.07
630.79	36493.61
630.99	36065.58
631.191	35518.78
631.391	35899.7
631.591	35875.12
631.792	36176.17
631.992	35965.23
632.193	36049.2
632.393	36294.96
632.594	35858.74
632.794	35764.53
632.994	35791.16
633.195	36530.47
633.395	36196.65
633.595	35303.74
633.796	36114.73
633.996	36335.91
634.196	36380.97
634.397	35635.51
634.597	36227.37
634.797	35793.2
634.997	36331.82
635.198	36024.62
635.398	35891.51
635.598	36270.38
635.798	36260.14
635.998	36428.07
636.199	35979.57
636.399	36221.23
636.599	36163.89
636.799	36127.02
636.999	35934.51
637.199	36573.48
637.399	36639.01
637.599	35868.98
637.799	36145.45
637.999	36290.86
638.199	36692.26
638.399	36096.3
638.599	35619.13
638.799	36266.28
638.999	36966.69
639.199	36356.39
639.399	36430.12
639.599	36649.25
639.799	36299.05
639.999	36401.45
640.199	36088.11
640.399	36413.74
640.599	35856.69
640.799	36935.97
640.998	36444.46
641.198	36376.87
641.398	36733.22
641.598	36659.49
641.798	36485.42
641.997	37114.14
642.197	36989.22
642.397	36757.8
642.597	36155.69
642.796	36837.67
642.996	36696.36
643.196	36862.24
643.395	36170.03
643.595	36841.76
643.795	36088.11
643.994	36471.08
644.194	36464.94
644.394	36725.03
644.593	36774.18
644.793	36745.51
644.992	36897.06
645.192	37060.9
645.392	36522.28
645.591	36880.67
645.791	36878.63
645.99	37230.88
646.19	36835.62
646.389	36663.59
646.589	36763.94
646.788	37392.67
646.987	37263.64
647.187	37474.59
647.386	36974.88
647.586	37468.44
647.785	37212.45
647.984	37019.94
648.184	37101.86
648.383	36917.54
648.582	36972.83
648.782	37028.13
648.981	37099.81
649.18	36983.07
649.38	37609.75
649.579	37265.69
649.778	37263.64
649.977	37665.05
650.177	37531.93
650.376	37148.96
650.575	36786.47
650.774	37892.37
650.973	37282.08
651.173	37155.1
651.372	37257.5
651.571	37298.46
651.77	37439.77
651.969	36946.21
652.168	37308.7
652.367	36993.31
652.566	37552.41
652.765	37450.01
652.964	37660.95
653.163	37822.74
653.362	37493.02
653.561	37200.16
653.76	37478.68
653.959	37302.56
654.158	37966.1
654.357	37429.53
654.556	36981.03
654.755	37652.76
654.954	38279.44
655.153	37191.97
655.352	37552.41
655.551	37728.53
655.749	37556.5
655.948	37550.36
656.147	37806.36
656.346	38097.17
656.545	37652.76
656.743	37396.76
656.942	38000.91
657.141	37871.89
657.34	37628.18
657.538	37636.38
657.737	37609.75
657.936	38238.48
658.135	37564.7
658.333	37261.6
658.532	37507.35
658.731	38430.99
658.929	37777.68
659.128	37306.65
659.326	37894.42
659.525	38359.31
659.724	37615.9
659.922	37615.9
660.121	37425.43
660.319	38007.06
660.518	37781.78
660.716	37810.45
660.915	37445.91
661.113	38385.93
661.312	37949.71
661.51	37564.7
661.709	37630.23
661.907	38189.33
662.105	38463.75
662.304	37810.45
662.502	38144.27
662.701	38310.16
662.899	37619.99
663.097	38269.2
663.296	37300.51
663.494	38545.67
663.692	38467.85
663.891	37732.63
664.089	37460.25
664.287	37792.02
664.485	38041.87
664.684	37495.07
664.882	37275.93
665.08	37931.28
665.278	38021.39
665.476	37364
665.675	37751.06
665.873	38439.18
666.071	38228.24
666.269	37562.65
666.467	37652.76
666.665	38512.91
666.863	37388.57
667.061	37630.23
667.259	37699.86
667.457	37892.37
667.655	38048.02
667.853	37370.14
668.051	37697.81
668.249	37800.21
668.447	38164.75
668.645	37284.12
668.843	38017.3
669.041	38500.62
669.239	37597.46
669.437	37519.64
669.635	38054.16
669.833	38131.98
670.031	37994.77
670.229	37568.79
670.426	37775.64
670.624	37908.75
670.822	37531.93
671.02	37794.07
671.218	37853.46
671.415	37851.41
671.613	37765.4
671.811	37718.29
672.009	37683.48
672.206	38148.37
672.404	37933.33
672.602	38091.02
672.799	37890.32
672.997	38101.26
673.195	38068.5
673.392	37773.59
673.59	37314.84
673.788	37624.09
673.985	36825.38
674.183	37857.56
674.38	37630.23
674.578	37896.47
674.775	37151.01
674.973	37140.77
675.17	37396.76
675.368	37695.77
675.565	38058.26
675.763	37400.86
675.96	37525.78
676.158	37495.07
676.355	37032.22
676.553	37617.94
676.75	37034.27
676.947	37011.74
677.145	37132.57
677.342	37472.54
677.539	37232.93
677.737	37179.68
677.934	37880.08
678.131	37083.42
678.329	37239.07
678.526	37486.87
678.723	37364
678.92	37861.65
679.118	36716.84
679.315	36950.31
679.512	37812.5
679.709	37355.8
679.906	37052.7
680.104	37722.39
680.301	37392.67
680.498	36917.54
680.695	36720.93
680.892	36956.45
681.089	37253.4
681.286	37273.88
681.483	36616.49
681.68	37540.12
681.877	37445.91
682.075	37378.33
682.272	37183.77
682.469	36743.46
682.665	36901.15
682.862	36749.6
683.059	36745.51
683.256	36921.63
683.453	37003.55
683.65	36983.07
683.847	36765.99
684.044	37126.43
684.241	36868.39
684.438	36946.21
684.635	36495.66
684.831	37648.66
685.028	36864.29
685.225	36536.62
685.422	36475.18
685.619	36419.88
685.815	36761.89
686.012	36419.88
686.209	36163.89
686.405	36741.41
686.602	37241.12
686.799	36114.73
686.996	36376.87
687.192	35856.69
687.389	36739.36
687.586	36319.53
687.782	36940.07
687.979	37042.46
688.175	36700.45
688.372	36233.52
688.568	36626.73
688.765	36303.15
688.962	36632.87
689.158	36008.24
689.355	36014.38
689.551	36297
689.748	36522.28
689.944	36088.11
690.14	35948.85
690.337	36573.48
690.533	36053.3
690.73	36034.86
690.926	36440.36
691.123	36213.04
691.319	36415.79
691.515	35604.79
691.712	36514.09
691.908	36192.56
692.104	36129.07
692.301	35832.11
692.497	35488.06
692.693	36069.68
692.889	36172.08
693.086	35961.14
693.282	35094.85
693.478	35727.67
693.674	36309.29
693.87	35848.5
694.067	35498.3
694.263	36155.69
694.459	35680.56
694.655	35760.44
694.851	35795.25
695.047	35920.18
695.243	36143.41
695.439	35463.48
695.635	35848.5
695.831	35639.61
696.027	35848.5
696.224	34910.53
696.42	35768.63
696.615	36737.32
696.811	35866.93
697.007	35037.5
697.203	35477.82
697.399	35596.6
697.595	35717.43
697.791	35242.3
697.987	35260.73
698.183	35490.1
698.379	35162.43
698.575	35371.32
698.77	35164.48
698.966	35422.52
699.162	35696.95
699.358	35432.76
699.554	34801.99
699.749	35922.23
699.945	35533.11
700.141	34801.99
700.337	35457.34
700.532	34943.3
700.728	34920.77
700.924	34783.55
701.119	35014.98
701.315	34814.27
701.511	34924.86
701.706	35207.48
701.902	34679.11
702.097	35037.5
702.293	35356.99
702.489	35055.93
702.684	35076.41
702.88	34988.35
703.075	35189.05
703.271	35123.52
703.466	34648.39
703.662	34767.17
703.857	35567.93
704.053	35211.58
704.248	35178.81
704.443	35178.81
704.639	34783.55
704.834	35041.6
705.03	34976.06
705.225	34982.21
705.42	34781.51
705.616	34513.22
705.811	34459.98
706.006	34535.75
706.202	34605.38
706.397	34273.61
706.592	34289.99
706.787	34580.81
706.983	34488.65
707.178	35010.88
707.373	34437.45
707.568	35023.17
707.763	34937.15
707.959	34535.75
708.154	34335.05
708.349	34572.61
708.544	34695.49
708.739	34171.21
708.934	34165.07
709.129	34646.34
709.324	34427.21
709.519	34554.18
709.714	34312.52
709.909	35289.4
710.104	34935.1
710.299	34302.28
710.494	34959.68
710.689	34607.43
710.884	34253.13
711.079	34496.84
711.274	34507.08
711.469	34765.12
711.664	34451.78
711.859	34193.74
712.054	34392.39
712.249	34087.25
712.443	34537.8
712.638	34158.92
712.833	33882.45
713.028	34619.72
713.223	34279.75
713.417	34408.78
713.612	34259.27
713.807	34750.79
714.002	34810.18
714.196	34146.64
714.391	34007.37
714.586	33999.18
714.78	33724.75
714.975	33763.67
715.17	33753.43
715.364	34130.25
715.559	34189.64
715.754	32878.94
715.948	33360.22
716.143	33917.26
716.337	33339.74
716.532	33696.08
716.726	33821.01
716.921	33747.28
717.115	34222.41
717.31	32946.53
717.504	34042.19
717.699	33710.42
717.893	33636.69
718.088	33175.9
718.282	33177.95
718.476	33526.1
718.671	33341.78
718.865	32973.15
719.059	33526.1
719.254	33784.15
719.448	33839.44
719.642	34482.5
719.837	33319.26
720.031	33497.43
720.225	33413.46
720.419	32999.77
720.614	32782.69
720.808	33329.5
721.002	32940.38
721.196	32633.19
721.39	32995.68
721.585	33104.22
721.779	32856.42
721.973	32547.17
722.167	32428.39
722.361	32625
722.555	33231.19
722.749	32422.25
722.943	33014.11
723.137	32678.24
723.331	32692.58
723.525	32694.63
723.719	32905.57
723.913	33290.59
724.107	33257.82
724.301	32936.29
724.495	32907.62
724.689	32979.29
724.883	33274.2
725.077	32770.4
725.271	32817.5
725.465	32997.73
725.659	32532.84
725.853	32346.47
726.046	32543.08
726.24	32467.3
726.434	32276.84
726.628	32489.83
726.822	32747.87
727.015	33194.33
727.209	32958.81
727.403	32899.42
727.596	32360.81
727.79	32676.19
727.984	33245.53
728.177	32573.8
728.371	32772.45
728.565	32919.9
728.758	32807.26
728.952	32446.82
729.146	32446.82
729.339	32913.76
729.533	32704.87
729.726	32731.49
729.92	32516.45
730.113	32942.43
730.307	32911.71
730.5	32387.43
730.694	32479.59
730.887	32577.89
731.081	33071.45
731.274	32557.41
731.468	32194.92
731.661	32641.38
731.854	32913.76
732.048	32725.35
732.241	32244.07
732.435	32438.63
732.628	32739.68
732.821	32500.07
733.014	32330.09
733.208	32469.35
733.401	33063.26
733.594	32561.51
733.788	32436.58
733.981	32921.95
734.174	33112.41
734.367	32506.21
734.56	32686.43
734.754	32737.63
734.947	32944.48
735.14	32649.57
735.333	32727.39
735.526	32803.17
735.719	32383.34
735.912	32676.19
736.105	32612.71
736.298	32676.19
736.491	32379.24
736.684	32139.63
736.877	32473.45
737.07	32811.36
737.263	32964.96
737.456	32293.22
737.649	32178.54
737.842	32420.2
738.035	32491.88
738.228	32084.33
738.421	32510.31
738.614	32856.42
738.807	32702.82
739	31930.73
739.192	31986.03
739.385	32225.64
739.578	32514.41
739.771	32553.32
739.964	31863.15
740.156	32366.95
740.349	32610.66
740.542	32782.69
740.735	31949.17
740.927	31994.22
741.12	31850.86
741.313	31904.11
741.505	32438.63
741.698	32170.35
741.891	32235.88
742.083	32412.01
742.276	32282.98
742.468	32188.78
742.661	31986.03
742.854	31803.76
743.046	31918.45
743.239	32553.32
743.431	32371.05
743.624	31742.32
743.816	31701.36
744.009	31986.03
744.201	32059.76
744.393	31678.83
744.586	31412.6
744.778	32211.31
744.971	31750.51
745.163	31916.4
745.355	31715.7
745.548	31961.45
745.74	31625.59
745.932	31691.12
746.125	31977.84
746.317	32385.38
746.509	31801.71
746.702	31750.51
746.894	31406.45
747.086	31609.2
747.278	32024.94
747.471	31385.97
747.663	31299.96
747.855	31666.55
748.047	31797.62
748.239	31553.91
748.431	31107.45
748.623	31981.93
748.815	31822.19
749.008	31248.76
749.2	31349.11
749.392	31500.66
749.584	31480.18
749.776	31592.82
749.968	31347.06
750.16	31768.94
750.352	30990.72
750.544	31263.1
750.736	31007.1
750.928	31674.74
751.12	30968.19
751.311	30943.61
751.503	31476.09
751.695	31316.34
751.887	31039.87
752.079	30982.52
752.271	31158.65
752.463	31824.24
752.654	31314.3
752.846	30904.7
753.038	30521.73
753.23	30630.27
753.421	31103.35
753.613	30280.07
753.805	31240.57
753.997	30865.79
754.188	31183.23
754.38	30826.88
754.572	30474.63
754.763	30671.23
754.955	30673.28
755.146	30495.11
755.338	30413.19
755.53	30658.95
755.721	30650.75
755.913	30284.17
756.104	30421.38
756.296	30583.17
756.487	30634.37
756.679	30136.71
756.87	30067.08
757.062	29909.39
757.253	30521.73
757.445	30255.5
757.636	30462.34
757.827	30308.74
758.019	30806.4
758.21	29811.09
758.401	29716.88
758.593	30491.01
758.784	30194.06
758.975	29522.32
759.167	29606.29
759.358	30183.82
759.549	30224.78
759.74	29550.99
759.932	29899.15
760.123	30226.82
760.314	29444.5
760.505	29442.45
760.696	29428.12
760.888	30282.12
761.079	29626.77
761.27	29376.92
761.461	29039
761.652	30114.19
761.843	29215.13
762.034	29213.08
762.225	29329.81
762.416	29675.92
762.607	29151.64
762.798	29335.96
762.989	29014.43
763.18	30304.65
763.371	29426.07
763.562	29045.15
763.753	29090.2
763.944	29536.66
764.135	29338.01
764.326	29247.9
764.517	28873.12
764.708	29256.09
764.899	29041.05
765.089	28432.8
765.28	28631.46
765.471	29018.52
765.662	28590.5
765.853	28766.62
766.043	27974.06
766.234	29225.37
766.425	28594.59
766.615	28643.74
766.806	28486.05
766.997	29141.4
767.187	28819.87
767.378	28713.38
767.569	28367.27
767.759	28785.05
767.95	29002.14
768.141	28823.97
768.331	28338.6
768.522	28737.95
768.712	28408.23
768.903	28373.41
769.093	28006.83
769.284	28610.98
769.474	28295.59
769.665	27732.4
769.855	27797.93
770.046	28473.76
770.236	27945.39
770.426	27912.62
770.617	28115.37
770.807	28101.03
770.998	28197.29
771.188	27953.58
771.378	27763.12
771.569	28221.86
771.759	28015.02
771.949	27537.84
772.139	27619.76
772.33	27615.66
772.52	28404.13
772.71	27273.65
772.9	27709.87
773.09	28238.25
773.281	27621.81
773.471	27103.67
773.661	27238.84
773.851	27576.75
774.041	27206.07
774.231	27406.77
774.421	27468.21
774.611	27601.33
774.802	27349.43
774.992	27163.06
775.182	26884.54
775.372	27167.16
775.562	27189.69
775.752	26855.87
775.942	26796.48
776.131	27212.21
776.321	27140.54
776.511	26876.35
776.701	26511.81
776.891	27130.3
777.081	26714.56
777.271	26528.19
777.461	26862.01
777.651	26724.8
777.84	27206.07
778.03	26227.14
778.22	26476.99
778.41	26784.19
778.599	26757.57
778.789	26599.87
778.979	26030.54
779.169	26634.69
779.358	26511.81
779.548	26712.51
779.738	25913.8
779.927	26544.58
780.117	26442.18
780.307	26421.7
780.496	25723.34
780.686	26563.01
780.875	26345.92
781.065	25770.44
781.254	25768.4
781.444	26276.29
781.633	26268.1
781.823	25876.94
782.012	25801.16
782.202	25915.85
782.391	26055.11
782.581	25659.85
782.77	26055.11
782.96	26247.62
783.149	25336.27
783.338	25254.36
783.528	25321.94
783.717	25858.51
783.906	26108.36
784.096	25479.63
784.285	25356.75
784.474	25207.25
784.663	25481.68
784.853	24938.97
785.042	25221.59
785.231	24959.45
785.42	25489.87
785.61	25147.86
785.799	24914.39
785.988	25076.18
786.177	25270.74
786.366	25149.91
786.555	25467.34
786.744	25203.16
786.933	25172.44
787.122	24779.23
787.312	25014.74
787.501	25119.19
787.69	25192.92
787.879	25186.77
788.068	24695.26
788.257	25194.96
788.445	24695.26
788.634	25285.08
788.823	24871.39
789.012	25825.74
789.201	25326.03
789.39	24660.45
789.579	24451.55
789.768	25047.51
789.957	24883.67
790.145	24699.36
790.334	24701.4
790.523	24594.91
790.712	24586.72
790.9	24781.28
791.089	24371.68
791.278	24861.15
791.467	24809.95
791.655	24517.09
791.844	24926.68
792.033	24095.21
792.221	24310.24
792.41	24029.67
792.599	23810.54
792.787	24433.12
792.976	24588.77
793.164	23874.03
793.353	24037.86
793.541	24271.33
793.73	24207.84
793.918	24037.86
794.107	23957.99
794.295	23960.04
794.484	24406.5
794.672	24209.89
794.861	23667.18
795.049	24127.97
795.238	24207.84
795.426	23679.47
795.614	23638.51
795.803	23861.74
795.991	24187.36
796.179	23712.24
796.368	23441.9
796.556	23972.33
796.744	23349.75
796.932	23675.37
797.121	23179.76
797.309	23572.97
797.497	23980.52
797.685	23359.98
797.874	23519.73
798.062	23964.14
798.25	24203.75
798.438	23552.49
798.626	23548.4
798.814	23914.98
799.002	24310.24
799.19	23597.55
799.378	23480.82
799.566	23656.94
799.755	24072.68
799.943	23437.81
800.131	23265.78
800.318	23837.16
800.506	23560.69
800.694	23450.1
800.882	23376.37
801.07	24095.21
801.258	23779.82
801.446	23558.64
801.634	23577.07
801.822	23519.73
802.01	23843.31
802.197	23888.36
802.385	23788.01
802.573	23753.19
802.761	23726.57
802.949	23656.94
803.136	23423.47
803.324	23996.9
803.512	23804.39
803.699	23544.3
803.887	23816.68
804.075	24338.91
804.262	23648.75
804.45	23646.7
804.638	23734.76
804.825	23628.27
805.013	23587.31
805.201	23810.54
805.388	23869.93
805.576	23679.47
805.763	24420.83
805.951	23470.58
806.138	23757.29
806.326	24211.94
806.513	24064.49
806.701	23824.87
806.888	23714.28
807.075	24150.5
807.263	24371.68
807.45	24082.92
807.638	23908.84
807.825	24660.45
808.012	24201.7
808.2	23562.73
808.387	23949.8
808.574	24410.59
808.761	24447.46
808.949	23976.42
809.136	23824.87
809.323	23976.42
809.51	23988.71
809.698	23968.23
809.885	23794.15
810.072	24279.52
810.259	24521.18
810.446	23882.22
810.633	23917.03
810.82	24859.1
811.008	24314.34
811.195	24252.9
811.382	24058.34
811.569	24134.12
811.756	23636.46
811.943	23974.38
812.13	23894.5
812.317	24001
812.504	23982.57
812.691	24168.93
812.878	24205.8
813.064	24396.26
813.251	24121.83
813.438	23976.42
813.625	24318.43
813.812	23886.31
813.999	24381.92
814.186	24660.45
814.372	24205.8
814.559	24310.24
814.746	24392.16
814.933	24097.25
815.12	24392.16
815.306	23728.62
815.493	23949.8
815.68	24453.6
815.866	23906.79
816.053	24404.45
816.24	24676.83
816.426	23949.8
816.613	23976.42
816.799	24275.43
816.986	24697.31
817.173	24099.3
817.359	23615.98
817.546	24265.19
817.732	23759.34
817.919	23831.02
818.105	23978.47
818.292	23951.85
818.478	24134.12
818.665	24263.14
818.851	24021.48
819.037	24664.54
819.224	24095.21
819.41	23708.14
819.597	23693.8
819.783	24322.53
819.969	23925.22
820.156	23429.62
820.342	23702
820.528	24379.87
820.714	23796.2
820.901	24105.45
821.087	23298.55
821.273	24195.56
821.459	23677.42
821.646	23898.6
821.832	24033.77
822.018	23929.32
822.204	23630.32
822.39	23400.94
822.576	23185.91
822.762	23689.71
822.948	23300.59
823.134	23323.12
823.32	23233.01
823.507	23249.39
823.693	23697.9
823.879	23652.84
824.065	23204.34
824.25	23687.66
824.436	23570.93
824.622	23554.54
824.808	23116.28
824.994	23144.95
825.18	23138.8
825.366	23106.04
825.552	23015.93
825.738	23226.87
825.923	23308.79
826.109	23200.24
826.295	22741.5
826.481	22843.9
826.667	22745.59
826.852	22786.55
827.038	23005.69
827.224	23355.89
827.409	23370.22
827.595	22934.01
827.781	23292.4
827.966	23572.97
828.152	23181.81
828.338	22618.62
828.523	22696.44
828.709	22626.81
828.894	22827.51
829.08	22841.85
829.266	22538.75
829.451	22888.95
829.637	23249.39
829.822	22821.37
830.008	22561.28
830.193	23034.36
830.378	23032.31
830.564	22673.92
830.749	22585.85
830.935	22737.4
831.12	22704.63
831.305	22602.24
831.491	22469.12
831.676	22276.61
831.861	22530.56
832.047	22225.41
832.232	21819.91
832.417	22882.81
832.602	22327.81
832.788	22159.88
832.973	21918.21
833.158	22086.15
833.343	22039.05
833.528	22053.38
833.714	22077.96
833.899	22446.59
834.084	22551.04
834.269	22364.67
834.454	21688.84
834.639	21959.17
834.824	22116.87
835.009	21643.79
835.194	22014.47
835.379	22436.35
835.564	22153.73
835.749	21848.58
835.934	21756.43
836.119	22016.52
836.304	22090.24
836.489	21748.23
836.674	22127.11
836.859	21516.81
837.044	22200.83
837.228	21877.26
837.413	21729.8
837.598	22088.2
837.783	22284.8
837.968	21862.92
838.152	21684.75
838.337	21201.43
838.522	21895.69
838.707	22112.77
838.891	21385.74
839.076	21467.66
839.261	21854.73
839.445	21709.32
839.63	21721.61
839.815	22043.14
839.999	21389.84
840.184	21443.09
840.368	21385.74
840.553	21766.67
840.737	21467.66
840.922	21113.36
841.106	21160.47
841.291	21195.28
841.475	21438.99
841.66	21088.79
841.844	20886.04
842.029	21985.8
842.213	21084.69
842.397	20867.61
842.582	20793.88
842.766	21709.32
842.951	21156.37
843.135	20752.92
843.319	20873.75
843.504	21258.77
843.688	21307.92
843.872	20722.2
844.056	20544.03
844.241	21252.63
844.425	20679.19
844.609	20816.41
844.793	20449.82
844.977	21043.73
845.161	21090.84
845.346	20595.23
845.53	20795.93
845.714	20840.98
845.898	21135.89
846.082	20623.9
846.266	20593.18
846.45	20525.6
846.634	20808.22
846.818	20441.63
847.002	20574.75
847.186	20679.19
847.37	20222.5
847.554	19950.12
847.738	20349.47
847.922	20482.59
848.106	20533.79
848.29	19986.98
848.473	20285.98
848.657	20204.07
848.841	20228.64
849.025	20308.51
849.209	20007.46
849.392	20552.22
849.576	20187.68
849.76	19458.6
849.944	20216.35
850.127	20341.28
850.311	19450.41
850.495	19778.09
850.678	19470.89
850.862	20279.84
851.046	20236.83
851.229	19804.71
851.413	19421.74
851.596	19866.15
851.78	19853.86
851.964	19909.16
852.147	19526.19
852.331	20507.16
852.514	20027.94
852.698	19421.74
852.881	19331.63
853.065	20060.71
853.248	19776.04
853.431	19730.98
853.615	19681.83
853.798	20060.71
853.982	20068.9
854.165	19477.04
854.348	19057.2
854.532	19374.64
854.715	19253.81
854.898	19190.32
855.081	19104.31
855.265	19649.07
855.448	19567.15
855.631	18940.47
855.814	18971.19
855.997	19495.47
856.181	19030.58
856.364	19096.11
856.547	19069.49
856.73	19175.98
856.913	19165.74
857.096	18829.88
857.279	19155.51
857.462	18930.23
857.645	19096.11
857.828	19124.79
858.011	18698.81
858.194	18815.54
858.377	19067.44
858.56	18483.77
858.743	18489.92
858.926	18598.46
859.109	18696.76
859.292	18659.9
859.475	18420.28
859.658	19087.92
859.841	18967.09
860.023	18475.58
860.206	18412.09
860.389	18950.71
860.572	18866.74
860.755	18551.35
860.937	18422.33
861.12	18436.67
861.303	18600.51
861.486	18287.17
861.668	18156.1
861.851	18551.35
862.034	18496.06
862.216	18291.26
862.399	17879.62
862.581	18270.78
862.764	18479.68
862.947	18012.74
863.129	17687.11
863.312	17748.55
863.494	18446.91
863.677	18156.1
863.859	17816.13
864.042	18377.28
864.224	18197.06
864.406	17971.78
864.589	17412.68
864.771	17766.98
864.954	17785.41
865.136	17640.01
865.318	17377.87
865.501	17838.66
865.683	17451.6
865.865	17693.26
866.048	17388.11
866.23	17715.78
866.412	17568.33
866.594	17459.79
866.777	17404.49
866.959	17783.37
867.141	17302.09
867.323	17400.4
867.505	17439.31
867.687	17828.42
867.869	17644.1
868.052	17433.16
868.234	17152.59
868.416	17381.96
868.598	17922.63
868.78	17347.15
868.962	17322.57
869.144	17834.57
869.326	17597
869.508	17085.01
869.69	17185.36
869.872	17248.85
870.054	17379.92
870.236	17070.67
870.417	17144.4
870.599	17211.98
870.781	17484.36
870.963	17308.24
871.145	16806.48
871.327	17171.02
871.508	17355.34
871.69	17031.76
871.872	17080.91
872.054	17216.08
872.235	17429.07
872.417	16947.79
872.599	16931.41
872.78	17875.52
872.962	17357.39
873.144	16859.73
873.325	17033.81
873.507	17666.63
873.689	17252.94
873.87	16953.94
874.052	17338.96
874.233	17134.16
874.415	17414.73
874.596	17236.56
874.778	16900.69
874.959	17449.55
875.141	17519.18
875.322	17328.72
875.503	17074.77
875.685	17490.51
875.866	16691.8
876.048	16923.22
876.229	16896.6
876.41	17001.04
876.592	17224.27
876.773	16923.22
876.954	16745.05
877.136	17431.12
877.317	17310.29
877.498	16890.45
877.679	17140.3
877.86	17427.02
878.042	17203.79
878.223	17252.94
878.404	17758.79
878.585	17320.53
878.766	17760.84
878.947	17363.53
879.128	17312.33
879.309	17635.91
879.49	17752.65
879.672	17316.43
879.853	17418.83
880.034	17386.06
880.215	17642.06
880.396	17353.29
880.576	17539.66
880.757	17547.85
880.938	17963.59
881.119	17398.35
881.3	17431.12
881.481	17558.09
881.662	18604.6
881.843	17244.75
882.023	17572.43
882.204	17834.57
882.385	17881.67
882.566	17549.9
882.747	17715.78
882.927	18111.04
883.108	18242.11
883.289	17885.76
883.469	18084.42
883.65	17828.42
883.831	18139.71
884.011	17918.53
884.192	18006.59
884.373	18326.08
884.553	18059.84
884.734	17914.44
884.914	18223.68
885.095	18545.21
885.275	18500.16
885.456	18510.39
885.636	17965.64
885.817	18182.72
885.997	18139.71
886.178	18076.23
886.358	18053.7
886.538	18084.42
886.719	19104.31
886.899	18174.53
887.08	18430.52
887.26	18541.11
887.44	18213.44
887.621	18219.58
887.801	18231.87
887.981	19208.75
888.161	19208.75
888.342	18242.11
888.522	18319.93
888.702	18707
888.882	18874.93
889.062	18356.8
889.242	18025.03
889.423	18887.22
889.603	18676.28
889.783	18494.01
889.963	18393.66
890.143	18686.52
890.323	18668.09
890.503	18149.95
890.683	18401.85
890.863	18256.45
891.043	18604.6
891.223	18506.3
891.403	18405.95
891.583	18299.45
891.763	18717.24
891.943	18631.23
892.122	18328.13
892.302	18733.62
892.482	18815.54
892.662	18530.87
892.842	18897.46
893.022	18821.69
893.201	18645.56
893.381	18940.47
893.561	18682.42
893.741	19214.9
893.92	18907.7
894.1	18592.31
894.28	18661.94
894.459	18549.31
894.639	18651.7
894.819	18555.45
894.998	18784.82
895.178	18922.04
895.357	19147.31
895.537	18629.18
895.716	18563.64
895.896	18797.11
896.075	18819.64
896.255	18545.21
896.434	18469.44
896.614	19321.39
896.793	19348.01
896.973	18408
897.152	18582.07
897.331	18735.67
897.511	18600.51
897.69	18154.05
897.87	18657.85
898.049	19026.48
898.228	18821.69
898.407	18731.58
898.587	18651.7
898.766	18487.87
898.945	18717.24
899.124	18510.39
899.304	18262.59
899.483	18508.35
899.662	18922.04
899.841	17783.37
900.02	17799.75
900.199	18348.61
900.378	18391.61
900.557	17875.52
900.737	18049.6
900.916	18498.11
901.095	18403.9
901.274	18397.76
901.453	18195.01
901.632	18117.18
901.811	18164.29
901.989	17957.44
902.168	17924.68
902.347	18403.9
902.526	18371.13
902.705	18006.59
902.884	18178.62
903.063	18911.8
903.242	18491.96
903.42	17592.9
903.599	17990.21
903.778	18256.45
903.957	18643.51
904.135	17934.92
904.314	18084.42
904.493	17791.56
904.672	17887.81
904.85	17500.75
905.029	17746.5
905.207	17850.95
905.386	18678.33
905.565	17353.29
905.743	17709.64
905.922	17388.11
906.1	17982.02
906.279	17277.52
906.457	17197.65
906.636	17793.61
906.814	17478.22
906.993	17312.33
907.171	17463.88
907.35	17711.69
907.528	17689.16
907.707	17834.57
907.885	17105.49
908.063	17914.44
908.242	17168.98
908.42	17205.84
908.598	17199.69
908.777	17295.95
908.955	17007.19
909.133	17236.56
909.311	17064.53
909.49	17068.62
909.668	17052.24
909.846	17050.19
910.024	16519.77
910.202	17029.71
910.38	17257.04
910.559	16530.01
910.737	16505.43
910.915	16931.41
911.093	16896.6
911.271	16454.23
911.449	16988.75
911.627	16878.16
911.805	17244.75
911.983	16405.08
912.161	16396.89
912.339	16906.84
912.517	17001.04
912.695	16798.29
912.872	16599.64
913.05	16749.14
913.228	16941.65
913.406	16661.08
913.584	16546.39
913.762	16736.85
913.939	16548.44
914.117	16226.91
914.295	15895.14
914.473	16456.28
914.65	16149.09
914.828	15888.99
915.006	15561.32
915.184	16069.22
915.361	16175.71
915.539	16085.6
915.716	15977.06
915.894	15919.71
916.072	16423.51
916.249	16222.81
916.427	16069.22
916.604	16007.78
916.782	15884.9
916.959	15491.69
917.137	15475.31
917.314	16208.48
917.492	16058.98
917.669	16069.22
917.847	15551.08
918.024	15868.52
918.201	15514.22
918.379	15565.42
918.556	15481.45
918.733	15923.81
918.911	15239.79
919.088	15526.5
919.265	15069.81
919.442	15553.13
919.62	15104.62
919.797	15047.28
919.974	15075.95
920.151	15407.72
920.328	15186.54
920.506	14934.64
920.683	15065.71
920.86	14756.47
921.037	15006.32
921.214	14721.65
921.391	14916.21
921.568	14738.04
921.745	14815.86
921.922	14400.12
922.099	14289.53
922.276	14578.29
922.453	14856.82
922.63	14523
922.807	14715.51
922.984	14783.09
923.161	14535.29
923.338	14629.49
923.514	14537.34
923.691	14688.89
923.868	14621.3
924.045	14271.1
924.222	14045.82
924.399	14547.58
924.575	14625.4
924.752	14393.98
924.929	14264.96
925.105	14344.83
925.282	14201.47
925.459	14000.77
925.635	14054.01
925.812	13881.99
925.989	13779.59
926.165	13574.79
926.342	13349.51
926.518	13429.38
926.695	13484.68
926.871	13402.76
927.048	13191.82
927.224	13904.51
927.401	13212.3
927.577	13380.23
927.754	13212.3
927.93	13709.96
928.107	13318.79
928.283	13132.43
928.459	13167.24
928.636	13394.57
928.812	13253.26
928.988	12991.12
929.165	13017.74
929.341	13341.32
929.517	13382.28
929.693	13378.19
929.87	12397.21
930.046	13224.59
930.222	12737.17
930.398	12677.78
930.574	12616.34
930.751	12849.81
930.927	12579.48
931.103	12653.2
931.279	12571.29
931.455	12335.77
931.631	12405.4
931.807	12067.49
931.983	11965.09
932.159	11903.65
932.335	12184.22
932.511	12319.39
932.687	12090.01
932.863	12282.52
933.039	12001.95
933.215	11803.3
933.391	11459.24
933.566	11733.67
933.742	11848.35
933.918	11520.68
934.094	11299.5
934.27	11444.9
934.445	11252.39
934.621	11055.79
934.797	10744.5
934.973	11262.63
935.148	11178.67
935.324	10662.58
935.5	10488.5
935.675	11051.69
935.851	10736.31
936.027	10353.34
936.202	10132.15
936.378	10453.69
936.553	10093.24
936.729	10388.15
936.904	9614.02
937.08	9556.68
937.255	9272.01
937.431	9026.25
937.606	8825.55
937.782	8917.71
937.957	8889.04
938.133	8786.64
938.308	8620.75
938.483	8520.4
938.659	8469.2
938.834	8293.08
939.009	8209.11
939.185	8278.74
939.36	8043.23
939.535	7547.62
939.71	7942.88
939.886	8108.76
940.061	7910.11
940.236	7549.67
940.411	7789.28
940.586	7842.53
940.761	7684.83
940.937	7250.66
941.112	7095.02
941.287	7265
941.462	7308.01
941.637	7011.05
941.812	7254.76
941.987	7424.74
942.162	7035.63
942.337	6916.84
942.512	7025.39
942.687	7289.57
942.862	7150.31
943.037	6732.53
943.212	6359.8
943.386	6810.35
943.561	6922.99
943.736	6812.4
943.911	6882.03
944.086	7000.81
944.26	6922.99
944.435	6660.85
944.61	6710
944.785	7097.07
944.959	7201.51
945.134	6646.51
945.309	6615.79
945.483	6845.16
945.658	7099.11
945.833	6267.64
946.007	6343.41
946.182	7221.99
946.357	6562.55
946.531	6451.95
946.706	6564.59
946.88	6454
947.055	6826.73
947.229	6593.26
947.404	6630.13
947.578	7146.22
947.752	6740.72
947.927	6630.13
948.101	6738.67
948.276	7072.49
948.45	6935.28
948.624	7111.4
948.799	6648.56
948.973	7105.26
949.147	6873.84
949.321	6873.84
949.496	6720.24
949.67	7060.2
949.844	7158.5
950.018	6841.07
950.193	6798.06
950.367	7680.74
950.541	7221.99
950.715	7240.42
950.889	7072.49
951.063	7111.4
951.237	7353.06
951.411	6906.6
951.585	7033.58
951.759	7318.25
951.933	7340.77
952.107	7129.83
952.281	7402.21
952.455	7766.75
952.629	7631.58
952.803	7191.27
952.977	7246.57
953.151	7578.34
953.325	7750.37
953.499	7230.18
953.672	7209.7
953.846	7267.05
954.02	7568.1
954.194	7162.6
954.368	7422.69
954.541	7891.68
954.715	7443.17
954.889	7580.39
955.062	7260.9
955.236	7609.06
955.41	7394.02
955.583	7553.76
955.757	7295.72
955.93	7310.05
956.104	7402.21
956.278	7398.12
956.451	7441.12
956.625	7791.33
956.798	8209.11
956.972	7844.57
957.145	7570.15
957.319	7758.56
957.492	7596.77
957.665	7774.94
957.839	7686.88
958.012	7717.6
958.185	7711.46
958.359	7756.51
958.532	7787.23
958.705	8008.41
958.879	7858.91
959.052	7727.84
959.225	7516.9
959.398	7977.69
959.572	7865.05
959.745	7633.63
959.918	7748.32
960.091	7566.05
960.264	7946.97
960.438	7607.01
960.611	7627.49
960.784	8078.04
960.957	7713.5
961.13	8037.08
961.303	7697.12
961.476	7719.65
961.649	7940.83
961.822	7578.34
961.995	7688.93
962.168	8063.71
962.341	7983.84
962.514	7578.34
962.686	7623.39
962.859	7936.73
963.032	7879.39
963.205	7654.11
963.378	7193.32
963.551	7836.38
963.723	7467.75
963.896	7531.23
964.069	7572.19
964.242	7756.51
964.414	7906.01
964.587	7529.19
964.76	7541.47
964.932	7766.75
965.105	7662.3
965.278	7564
965.45	7283.43
965.623	7682.78
965.795	7656.16
965.968	7381.73
966.14	7297.77
966.313	7387.88
966.485	7590.63
966.658	7252.71
966.83	7432.93
967.003	7930.59
967.175	7785.18
967.348	7172.84
967.52	7453.41
967.692	7858.91
967.865	7564
968.037	7447.27
968.209	7516.9
968.382	7416.55
968.554	7465.7
968.726	7428.84
968.898	7344.87
969.071	7576.29
969.243	7514.85
969.415	7205.61
969.587	7308.01
969.759	7944.92
969.932	7549.67
970.104	7234.28
970.276	7187.18
970.448	7293.67
970.62	7361.25
970.792	7406.31
970.964	7269.09
971.136	7774.94
971.308	7301.86
971.48	7068.39
971.652	7017.19
971.824	7582.43
971.996	7092.97
972.168	7201.51
972.339	6859.5
972.511	7238.37
972.683	7074.54
972.855	7043.82
973.027	6894.32
973.199	7011.05
973.37	7326.44
973.542	7033.58
973.714	6949.61
973.886	7006.95
974.057	7244.52
974.229	6683.38
974.401	6804.21
974.572	6867.69
974.744	6619.89
974.915	6716.14
975.087	6662.9
975.259	7316.2
975.43	6660.85
975.602	6724.33
975.773	6769.39
975.945	6634.22
976.116	7078.63
976.288	6685.42
976.459	6877.93
976.63	6834.93
976.802	6882.03
976.973	6560.5
977.145	6666.99
977.316	7009
977.487	7037.67
977.659	6662.9
977.83	6511.35
978.001	7090.92
978.172	6771.44
978.344	6515.44
978.515	6306.55
978.686	6503.15
978.857	6843.12
979.028	6378.23
979.2	6331.12
979.371	6691.57
979.542	6501.11
979.713	6583.02
979.884	6046.46
980.055	6195.96
980.226	6406.9
980.397	6206.2
980.568	6195.96
980.739	6759.15
980.91	6419.19
981.081	6351.6
981.252	6068.98
981.423	6683.38
981.594	6515.44
981.765	5933.82
981.936	6304.5
982.106	6408.95
982.277	6376.18
982.448	5980.92
982.619	6161.14
982.79	6091.51
982.96	6540.02
983.131	6111.99
983.302	5737.21
983.472	6101.75
983.643	5991.16
983.814	6015.74
983.984	5819.13
984.155	6157.05
984.326	6269.69
984.496	5819.13
984.667	5624.58
984.837	5845.76
985.008	6171.38
985.178	6023.93
985.349	5841.66
985.519	5786.37
985.69	5655.3
985.86	5839.61
986.031	5675.77
986.201	5989.11
986.371	6040.31
986.542	5634.82
986.712	5391.11
986.882	5876.48
987.053	5862.14
987.223	5645.06
987.393	5675.77
987.563	5751.55
987.734	5815.04
987.904	5798.65
988.074	5708.54
988.244	5606.14
988.414	5425.92
988.585	5466.88
988.755	5579.52
988.925	5497.6
989.095	5982.97
989.265	5362.44
989.435	5257.99
989.605	5632.77
989.775	5604.1
989.945	5528.32
990.115	5051.14
990.285	5397.25
990.455	5430.02
990.625	5171.97
990.795	4881.16
990.965	5673.73
991.134	5163.78
991.304	5110.54
991.474	5083.91
991.644	5313.28
991.814	5757.69
991.984	4963.08
992.153	4883.21
992.323	5184.26
992.493	5186.31
992.662	4834.06
992.832	4928.27
993.002	5122.82
993.171	5071.62
993.341	4836.11
993.511	5061.38
993.68	4858.64
993.85	5309.19
994.019	4670.22
994.189	4504.34
994.358	5090.06
994.528	4641.55
994.697	4444.95
994.867	4571.92
995.036	4899.59
995.206	4717.33
995.375	4676.37
995.544	4690.7
995.714	4934.41
995.883	4801.29
996.052	4709.13
996.222	4469.52
996.391	5292.8
996.56	4711.18
996.73	4518.67
996.899	4358.93
997.068	5227.27
997.237	4614.93
997.406	4442.9
997.576	4346.64
997.745	4662.03
997.914	4877.07
998.083	4342.55
998.252	4434.71
998.421	4569.87
998.59	4399.89
998.759	4223.76
998.928	4109.08
999.097	4868.88
999.266	4477.71
999.435	4393.75
999.604	4152.09
999.773	5059.34
999.942	4315.92
1000.111	4080.41
1000.28	3904.28
1000.448	4268.82
1000.617	4084.5
1000.786	4125.46
1000.955	3963.67
1001.124	4463.38
1001.292	4942.6
1001.461	4023.06
1001.63	3832.6
1001.798	4533.01
1001.967	4477.71
1002.136	3781.4
1002.304	3754.78
1002.473	4223.76
1002.642	4346.64
1002.81	3947.29
1002.979	3920.67
1003.147	4234
1003.316	4702.99
1003.484	4072.22
1003.653	3736.35
1003.821	4346.64
1003.99	3973.91
1004.158	3848.99
1004.327	3736.35
1004.495	4127.51
1004.663	3730.2
1004.832	3777.31
1005	3511.07
1005.168	4023.06
1005.337	3859.23
1005.505	3349.28
1005.673	3808.03
1005.842	3891.99
1006.01	3994.39
1006.178	3537.7
1006.346	3681.05
1006.514	3871.51
1006.683	3984.15
1006.851	3459.87
1007.019	3490.59
1007.187	3431.2
1007.355	3132.2
1007.523	3214.12
1007.691	3130.15
1007.859	3423.01
1008.027	3881.75
1008.195	3377.95
1008.363	3380
1008.531	3816.22
1008.699	3326.75
1008.867	3236.64
1009.035	3195.68
1009.203	3865.37
1009.37	3511.07
1009.538	3212.07
1009.706	3560.22
1009.874	3590.94
1010.042	3363.62
1010.209	2974.5
1010.377	3095.33
1010.545	3711.77
1010.713	3310.37
1010.88	3130.15
1011.048	3189.54
1011.216	3250.98
1011.383	3799.84
1011.551	2972.46
1011.718	2982.7
1011.886	3504.93
1012.054	3345.19
1012.221	2980.65
1012.389	3048.23
1012.556	3183.4
1012.724	3576.61
1012.891	2964.26
1013.058	2618.16
1013.226	3386.15
1013.393	3271.46
1013.561	2736.94
1013.728	2820.91
1013.895	3320.61
1014.063	3201.83
1014.23	2698.03
1014.397	2747.18
1014.565	3144.49
1014.732	2962.22
1014.899	2710.32
1015.066	2638.64
1015.233	2970.41
1015.401	3160.87
1015.568	2827.05
1015.735	2704.17
1015.902	2890.54
1016.069	2915.11
1016.236	2581.29
1016.403	2640.69
1016.57	2601.77
1016.737	2992.94
1016.904	2677.55
1017.071	2429.74
1017.238	2769.71
1017.405	3111.72
1017.572	2540.33
1017.739	2667.31
1017.906	2800.43
1018.073	2992.94
1018.24	2552.62
1018.407	2442.03
1018.573	3058.47
1018.74	2609.97
1018.907	2446.13
1019.074	2321.2
1019.241	2800.43
1019.407	2728.75
1019.574	2331.44
1019.741	2241.33
1019.907	2671.4
1020.074	2802.47
1020.241	2093.88
1020.407	2102.07
1020.574	2679.6
1020.74	2685.74
1020.907	2335.54
1021.073	2181.94
1021.24	3060.52
1021.406	2861.87
1021.573	2128.69
1021.739	2153.27
1021.906	2730.8
1022.072	2310.96
1022.239	2149.17
1022.405	2132.79
1022.571	2351.92
1022.738	2204.47
1022.904	2216.76
1023.07	1960.76
1023.237	2495.28
1023.403	2605.87
1023.569	1999.67
1023.735	2071.35
1023.902	2425.65
1024.068	2368.31
1024.234	1901.37
1024.4	1981.24
1024.566	2411.31
1024.732	2575.15
1024.898	1919.8
1025.065	1794.87
1025.231	2562.86
1025.397	2040.63
1025.563	1825.59
1025.729	1903.42
1025.895	1874.74
1026.061	2132.79
1026.227	1741.63
1026.392	1880.89
1026.558	2452.27
1026.724	2177.84
1026.89	1647.42
1027.056	1901.37
1027.222	2210.61
1027.388	1958.71
1027.553	1825.59
1027.719	1760.06
1027.885	2439.98
1028.051	2159.41
1028.216	1585.98
1028.382	1747.77
1028.548	2173.75
1028.713	1987.38
1028.879	1598.27
1029.045	1876.79
1029.21	2300.72
1029.376	2192.18
1029.541	1688.38
1029.707	1647.42
1029.873	2079.54
1030.038	2177.84
1030.204	1585.98
1030.369	1665.85
1030.534	2097.97
1030.7	1837.88
1030.865	1502.01
1031.031	1540.93
1031.196	2079.54
1031.361	1968.95
1031.527	1493.82
1031.692	1442.62
1031.857	1528.64
1032.023	2034.49
1032.188	1375.04
1032.353	1452.86
1032.518	2212.66
1032.684	1876.79
1032.849	1411.9
1033.014	1487.68
1033.179	1932.09
1033.344	1805.11
1033.509	1481.53
1033.674	1530.69
1033.839	1817.4
1034.004	1801.02
1034.17	1397.57
1034.335	1254.21
1034.5	1614.65
1034.664	1530.69
1034.829	1256.26
1034.994	1366.85
1035.159	1872.7
1035.324	1649.47
1035.489	1342.27
1035.654	1364.8
1035.819	1919.8
1035.984	1628.99
1036.148	1338.18
1036.313	1430.34
1036.478	1815.35
1036.643	1506.11
1036.807	1223.49
1036.972	1233.73
1037.137	1872.7
1037.301	1598.27
1037.466	1098.56
1037.631	1266.5
1037.795	1860.41
1037.96	1547.07
1038.124	1366.85
1038.289	1141.57
1038.454	1704.76
1038.618	1606.46
1038.783	1211.2
1038.947	1227.59
1039.111	1616.7
1039.276	1387.33
1039.44	1211.2
1039.605	1485.63
1039.769	1246.02
1039.933	1399.62
1040.098	1178.44
1040.262	1213.25
1040.426	1633.08
1040.591	1567.55
1040.755	975.69
1040.919	1028.93
1041.083	1286.98
1041.248	1372.99
1041.412	1026.89
1041.576	959.3
1041.74	1301.31
1041.904	1569.6
1042.068	924.49
1042.232	1080.13
1042.397	1493.82
1042.561	1530.69
1042.725	826.18
1042.889	1174.34
1043.053	1516.35
1043.217	1438.53
1043.381	1241.92
1043.544	750.41
1043.708	1581.89
1043.872	1020.74
1044.036	717.64
1044.2	779.08
1044.364	1362.75
1044.528	1604.41
1044.691	5176.07
1044.855	848.71
1045.019	1583.93
1045.183	1332.03
1045.346	1039.17
1045.51	858.95
1045.674	1319.75
1045.837	1321.79
1046.001	899.91
1046.165	863.05
1046.328	1794.87
1046.492	1166.15
1046.655	926.54
1046.819	904.01
1046.983	1090.37
1047.146	1278.79
1047.31	1030.98
1047.473	654.16
1047.636	1155.91
1047.8	957.25
1047.963	789.32
1048.127	791.37
1048.29	1096.52
