Data from Hydrogel_Ink_Intensity_Test_1_USB4F045381__25__00025.txt Node

Date: Mon Jul 31 10:40:28 EDT 2023
User: mmckonesweet
Spectrometer: USB4F04538
Trigger mode: 4
Integration Time (sec): 9.000000E-1
Scans to average: 1
Electric dark correction enabled: true
Nonlinearity correction enabled: false
Boxcar width: 0
XAxis mode: Wavelengths
Number of Pixels in Spectrum: 3648
>>>>>Begin Spectral Data<<<<<
345.52	-952.99
345.736	-952.99
345.952	-952.99
346.168	-1004.19
346.384	-1004.19
346.6	-199.34
346.816	-223.91
347.032	-301.73
347.248	257.36
347.464	-219.82
347.68	-90.79
347.896	111.96
348.112	425.29
348.328	-29.35
348.544	-31.4
348.76	48.47
348.975	253.27
349.191	-213.67
349.407	-182.95
349.623	32.08
349.839	46.42
350.055	-94.89
350.27	75.09
350.486	189.78
350.702	394.58
350.918	341.33
351.133	-68.27
351.349	234.83
351.565	376.14
351.781	-195.24
351.996	95.57
352.212	427.34
352.428	9.56
352.644	-105.13
352.859	-150.18
353.075	408.91
353.291	30.04
353.506	-31.4
353.722	-115.37
353.938	-86.7
354.153	527.69
354.369	146.77
354.584	-146.09
354.8	312.66
355.016	-230.06
355.231	-160.42
355.447	11.61
355.662	146.77
355.878	896.33
356.093	-164.52
356.309	-17.07
356.524	-238.25
356.74	251.22
356.955	-109.22
357.171	-39.59
357.386	230.74
357.602	-117.42
357.817	-72.36
358.033	-23.21
358.248	335.18
358.464	243.03
358.679	-15.02
358.895	-228.01
359.11	19.8
359.325	419.15
359.541	351.57
359.756	56.66
359.972	-195.24
360.187	283.98
360.402	-129.7
360.618	-58.03
360.833	922.95
361.048	148.82
361.264	-27.31
361.479	75.09
361.694	-2.73
361.909	304.46
362.125	-158.38
362.34	89.43
362.555	353.62
362.77	161.11
362.986	-230.06
363.201	-74.41
363.416	245.07
363.631	89.43
363.847	-68.27
364.062	-72.36
364.277	228.69
364.492	167.25
364.707	-96.94
364.922	-262.82
365.138	419.15
365.353	386.38
365.568	-88.75
365.783	-39.59
365.998	243.03
366.213	599.37
366.428	-70.31
366.643	146.77
366.858	353.62
367.073	374.1
367.288	-62.12
367.503	-107.18
367.718	181.59
367.933	333.14
368.148	-240.3
368.363	21.84
368.578	103.76
368.793	664.91
369.008	-82.6
369.223	-101.03
369.438	349.52
369.653	550.22
369.868	-115.37
370.083	-176.81
370.298	255.31
370.513	449.87
370.728	83.28
370.943	-115.37
371.157	-78.51
371.372	664.91
371.587	-55.98
371.802	-152.23
372.017	238.93
372.232	523.6
372.446	54.61
372.661	-170.66
372.876	316.75
373.091	220.5
373.306	21.84
373.52	-6.83
373.735	7.51
373.95	460.11
374.165	13.65
374.379	-39.59
374.594	-19.11
374.809	191.83
375.023	167.25
375.238	-141.99
375.453	316.75
375.667	-141.99
375.882	-17.07
376.097	-58.03
376.311	85.33
376.526	197.97
376.741	-37.55
376.955	263.51
377.17	697.67
377.384	709.96
377.599	83.28
377.813	-178.86
378.028	707.91
378.242	269.65
378.457	17.75
378.672	-141.99
378.886	288.08
379.101	122.2
379.315	-141.99
379.53	54.61
379.744	316.75
379.958	378.19
380.173	91.48
380.387	-4.78
380.602	310.61
380.816	91.48
381.031	21.84
381.245	91.48
381.459	312.66
381.674	2653.48
381.888	58.71
382.103	263.51
382.317	27.99
382.531	621.9
382.746	93.52
382.96	83.28
383.174	91.48
383.388	677.19
383.603	253.27
383.817	-66.22
384.031	367.95
384.246	658.76
384.46	206.16
384.674	560.46
384.888	273.75
385.103	277.84
385.317	-17.07
385.531	206.16
385.745	499.02
385.959	499.02
386.174	-6.83
386.388	-17.07
386.602	271.7
386.816	60.76
387.03	154.96
387.244	179.54
387.458	257.36
387.672	556.36
387.887	-47.79
388.101	-33.45
388.315	630.09
388.529	382.29
388.743	109.91
388.957	36.18
389.171	599.37
389.385	38.23
389.599	140.63
389.813	404.82
390.027	314.7
390.241	865.61
390.455	138.58
390.669	267.6
390.883	124.24
391.097	658.76
391.311	314.7
391.525	118.1
391.738	464.21
391.952	341.33
392.166	255.31
392.38	134.48
392.594	574.8
392.808	607.56
393.022	177.49
393.236	124.24
393.449	453.97
393.663	468.3
393.877	154.96
394.091	193.87
394.305	312.66
394.518	136.53
394.732	42.32
394.946	157.01
395.16	613.71
395.373	292.18
395.587	185.68
395.801	150.87
396.015	589.13
396.228	531.79
396.442	118.1
396.656	56.66
396.869	716.11
397.083	824.65
397.297	261.46
397.51	243.03
397.724	705.87
397.938	464.21
398.151	-25.26
398.365	132.44
398.578	601.42
398.792	736.59
399.005	345.42
399.219	290.13
399.433	550.22
399.646	611.66
399.86	443.73
400.073	413.01
400.287	660.81
400.5	392.53
400.714	388.43
400.927	365.9
401.141	716.11
401.354	1408.32
401.567	578.89
401.781	140.63
401.994	779.59
402.208	1008.97
402.421	402.77
402.635	353.62
402.848	519.5
403.061	812.36
403.275	406.86
403.488	267.6
403.701	1000.77
403.915	628.04
404.128	544.08
404.341	255.31
404.555	656.72
404.768	447.82
404.981	535.89
405.195	281.94
405.408	949.57
405.621	677.19
405.834	621.9
406.048	314.7
406.261	851.27
406.474	1051.97
406.687	329.04
406.9	535.89
407.114	628.04
407.327	763.21
407.54	316.75
407.753	316.75
407.966	443.73
408.179	771.4
408.392	351.57
408.605	351.57
408.819	722.25
409.032	759.11
409.245	480.59
409.458	654.67
409.671	773.45
409.884	949.57
410.097	351.57
410.31	572.75
410.523	789.83
410.736	636.24
410.949	548.17
411.162	595.28
411.375	1015.11
411.588	951.62
411.801	718.15
412.014	456.01
412.227	730.44
412.44	707.91
412.653	443.73
412.865	644.43
413.078	916.81
413.291	859.46
413.504	501.07
413.717	515.41
413.93	896.33
414.143	523.6
414.356	615.76
414.568	376.14
414.781	906.57
414.994	886.09
415.207	613.71
415.42	644.43
415.632	1027.4
415.845	1250.63
416.058	458.06
416.271	513.36
416.483	841.03
416.696	1211.71
416.909	605.52
417.121	515.41
417.334	935.24
417.547	1254.72
417.759	537.93
417.972	621.9
418.185	712.01
418.397	1070.4
418.61	662.86
418.823	615.76
419.035	1174.85
419.248	787.79
419.46	771.4
419.673	806.22
419.885	941.38
420.098	761.16
420.311	699.72
420.523	509.26
420.736	1099.08
420.948	980.29
421.161	681.29
421.373	591.18
421.586	1025.35
421.798	890.18
422.01	511.31
422.223	845.13
422.435	853.32
422.648	1086.79
422.86	718.15
423.073	820.55
423.285	1238.34
423.497	619.85
423.71	795.98
423.922	806.22
424.134	1168.71
424.347	1410.37
424.559	1008.97
424.771	1152.32
424.984	910.66
425.196	1078.6
425.408	599.37
425.621	849.22
425.833	1248.58
426.045	1273.15
426.257	673.1
426.47	959.81
426.682	1168.71
426.894	1176.9
427.106	980.29
427.318	927.05
427.531	963.91
427.743	1291.59
427.955	974.15
428.167	1369.41
428.379	1363.26
428.591	1113.41
428.804	1150.28
429.016	943.43
429.228	1015.11
429.44	1377.6
429.652	1236.29
429.864	927.05
430.076	1164.61
430.288	1217.86
430.5	1088.84
430.712	1146.18
430.924	1512.77
431.136	1254.72
431.348	925
431.56	996.68
431.772	1203.52
431.984	1111.36
432.196	955.72
432.408	1164.61
432.62	1254.72
432.832	1318.21
433.044	1418.56
433.256	1318.21
433.468	1598.78
433.679	949.57
433.891	1111.36
434.103	1396.03
434.315	1822.01
434.527	1596.73
434.739	1310.02
434.95	1342.78
435.162	1629.5
435.374	1365.31
435.586	1326.4
435.798	1287.49
436.009	1221.95
436.221	1340.74
436.433	1299.78
436.645	1350.98
436.856	1398.08
437.068	1783.1
437.28	1305.92
437.491	1543.49
437.703	1672.51
437.915	1574.21
438.126	1482.05
438.338	1609.02
438.55	1580.35
438.761	1723.71
438.973	1443.14
439.184	1527.1
439.396	1625.4
439.608	1815.87
439.819	1344.83
440.031	1523.01
440.242	1727.8
440.454	1787.19
440.665	1475.9
440.877	1676.6
441.088	1903.93
441.3	1602.88
441.511	1443.14
441.723	1408.32
441.934	1604.92
442.146	1807.67
442.357	1723.71
442.569	1852.73
442.78	1746.23
442.991	2080.05
443.203	1903.93
443.414	1533.25
443.626	2192.69
443.837	1692.99
444.048	1525.05
444.26	1508.67
444.471	1899.83
444.682	2055.48
444.894	1512.77
445.105	1609.02
445.316	1955.13
445.528	1977.66
445.739	1776.95
445.95	1779
446.161	1797.43
446.373	2151.73
446.584	1768.76
446.795	1666.36
447.006	2123.06
447.217	2323.76
447.429	1570.11
447.64	1660.22
447.851	2307.38
448.062	1961.27
448.273	1563.97
448.484	1746.23
448.695	2123.06
448.907	1916.22
449.118	1768.76
449.329	2147.64
449.54	1883.45
449.751	1860.92
449.962	1789.24
450.173	1774.91
450.384	2303.28
450.595	2323.76
450.806	1940.79
451.017	1910.07
451.228	2379.06
451.439	2487.6
451.65	1813.82
451.861	1680.7
452.072	2020.66
452.283	2188.6
452.494	2139.44
452.705	1924.41
452.915	2522.41
453.126	2274.61
453.337	2084.15
453.548	2032.95
453.759	2454.83
453.97	2764.08
454.181	2235.7
454.391	2258.23
454.602	2352.43
454.813	2583.85
455.024	2278.71
455.235	2256.18
455.445	2469.17
455.656	2579.76
455.867	2290.99
456.078	2207.03
456.288	2297.14
456.499	2719.02
456.71	2223.41
456.921	2506.03
457.131	2676.01
457.342	2569.52
457.553	2372.91
457.763	2403.63
457.974	2850.09
458.184	2792.75
458.395	2327.86
458.606	2467.12
458.816	2923.82
459.027	3251.49
459.237	2630.96
459.448	2366.77
459.659	3089.7
459.869	3317.03
460.08	2454.83
460.29	2784.55
460.501	3444
460.711	2817.32
460.922	2514.22
461.132	2651.44
461.343	3642.65
461.553	2620.72
461.764	2735.4
461.974	2657.58
462.184	3081.51
462.395	3269.92
462.605	3136.81
462.816	2788.65
463.026	3024.17
463.236	3509.54
463.447	2845.99
463.657	2893.1
463.867	3392.8
464.078	3239.2
464.288	3099.94
464.498	3145
464.709	3511.58
464.919	3384.61
465.129	3300.64
465.339	3114.28
465.55	3650.85
465.76	3671.33
465.97	3394.85
466.18	3308.83
466.391	3831.07
466.601	3661.09
466.811	3595.55
467.021	3456.29
467.231	4085.01
467.441	3960.09
467.651	3716.38
467.862	3392.8
468.072	4076.82
468.282	4341.01
468.492	3673.37
468.702	3900.7
468.912	4240.66
469.122	4699.41
469.332	4310.29
469.542	3941.66
469.752	4504.85
469.962	4390.16
470.172	4027.67
470.382	4263.19
470.592	4547.86
470.802	4637.97
471.012	4384.02
471.222	4293.91
471.432	4969.74
471.642	4816.14
471.852	4689.17
472.062	4611.34
472.272	4855.05
472.482	4773.13
472.691	4515.09
472.901	4519.18
473.111	5055.75
473.321	5758.21
473.531	4812.04
473.741	4861.2
473.95	5174.53
474.16	5442.82
474.37	5215.49
474.58	4996.36
474.79	5784.83
474.999	5573.89
475.209	5219.59
475.419	5319.94
475.628	5606.66
475.838	5973.24
476.048	5489.92
476.258	5551.36
476.467	6337.78
476.677	5903.61
476.886	5952.76
477.096	6145.27
477.306	5963
477.515	6518
477.725	6063.35
477.935	6149.37
478.144	6730.99
478.354	6098.17
478.563	6278.39
478.773	6407.41
478.982	6886.64
479.192	7169.26
479.401	6558.96
479.611	6360.31
479.82	6669.55
480.03	7048.43
480.239	6733.04
480.449	6831.34
480.658	7587.04
480.868	7056.62
481.077	7148.78
481.287	7075.05
481.496	7392.48
481.705	7791.84
481.915	7460.07
482.124	7507.17
482.333	7705.82
482.543	8025.31
482.752	7662.82
482.961	7507.17
483.171	8262.87
483.38	7861.47
483.589	7793.89
483.799	7881.95
484.008	8027.35
484.217	8402.13
484.426	8053.98
484.636	8080.6
484.845	8500.44
485.054	8103.13
485.263	8453.33
485.472	8410.33
485.682	9073.87
485.891	8838.35
486.1	8439
486.309	8561.87
486.518	8926.41
486.727	9008.33
486.936	8860.88
487.146	9077.96
487.355	9358.53
487.564	8897.74
487.773	9041.1
487.982	8981.71
488.191	9231.56
488.4	9411.78
488.609	9305.29
488.818	9422.02
489.027	10116.28
489.236	9923.77
489.445	9745.6
489.654	9364.68
489.863	10198.2
490.072	10118.33
490.281	10060.99
490.49	9860.29
490.698	10566.84
490.907	10372.28
491.116	9958.59
491.325	10104
491.534	10646.71
491.743	10523.83
491.952	10255.54
492.16	10208.44
492.369	10577.08
492.578	10833.07
492.787	10372.28
492.996	10491.06
493.204	10624.18
493.413	11599.01
493.622	10550.45
493.831	10448.05
494.039	11355.3
494.248	10724.53
494.457	10781.87
494.665	10912.94
494.874	11177.13
495.083	11768.99
495.291	10986.67
495.5	11132.08
495.709	11328.68
495.917	11469.99
496.126	11320.49
496.335	11459.75
496.543	11566.24
496.752	11658.4
496.96	11865.25
497.169	11492.52
497.377	11719.84
497.586	12313.75
497.794	11828.38
498.003	11535.53
498.211	11949.22
498.42	12481.69
498.628	12330.14
498.837	12141.72
499.045	12663.96
499.254	12272.79
499.462	12162.2
499.671	12147.87
499.879	12922
500.087	12594.33
500.296	12430.49
500.504	12690.58
500.713	12659.86
500.921	13509.77
501.129	12506.26
501.338	12483.73
501.546	12919.95
501.754	12743.83
501.962	12762.26
502.171	12850.32
502.379	13520.01
502.587	13454.47
502.795	13210.76
503.004	12987.54
503.212	13384.84
503.42	13458.57
503.628	13104.27
503.837	13173.9
504.045	13593.73
504.253	13845.63
504.461	13407.37
504.669	13329.55
504.877	13960.32
505.085	13911.17
505.294	13452.42
505.502	13642.89
505.71	13933.7
505.918	14115.97
506.126	13722.76
506.334	13649.03
506.542	13991.04
506.75	14017.66
506.958	13986.94
507.166	14136.45
507.374	14023.81
507.582	14455.93
507.79	13939.84
507.998	13978.75
508.206	14341.24
508.414	14455.93
508.622	14081.15
508.83	14308.47
509.037	15101.04
509.245	14400.63
509.453	14240.89
509.661	14310.52
509.869	14881.91
510.077	14615.67
510.285	14359.67
510.492	14359.67
510.7	15645.8
510.908	14754.93
511.116	14560.38
511.324	14685.3
511.531	14748.79
511.739	15217.77
511.947	15299.69
512.155	15002.74
512.362	15273.07
512.57	14974.06
512.778	14767.22
512.985	14754.93
513.193	15393.9
513.401	15680.61
513.608	14929.01
513.816	14773.36
514.024	15453.29
514.231	15758.44
514.439	15451.24
514.646	15375.47
514.854	15879.27
515.061	15770.72
515.269	15508.58
515.477	15617.13
515.684	15826.02
515.892	15942.75
516.099	15619.17
516.307	15596.65
516.514	16227.42
516.722	16249.95
516.929	16030.82
517.136	15641.7
517.344	16270.43
517.551	16139.36
517.759	15789.16
517.966	15996
518.173	16188.51
518.381	16440.41
518.588	16170.08
518.796	16116.83
519.003	16811.09
519.21	16458.84
519.418	16405.6
519.625	16219.23
519.832	16424.03
520.039	16788.57
520.247	16333.92
520.454	16620.63
520.661	17151.06
520.868	16948.31
521.076	16778.33
521.283	16802.9
521.49	17591.37
521.697	17044.56
521.904	17060.94
522.112	16704.6
522.319	17157.2
522.526	16991.31
522.733	17169.49
522.94	16823.38
523.147	17101.9
523.354	17624.14
523.561	17157.2
523.768	17036.37
523.975	17921.09
524.183	17394.76
524.39	17278.03
524.597	17275.98
524.804	17661
525.011	17720.39
525.218	17405
525.425	17476.68
525.632	17980.48
525.838	17714.25
526.045	17785.93
526.252	17804.36
526.459	19231.79
526.666	18875.45
526.873	17747.01
527.08	17675.34
527.287	18353.21
527.494	18375.74
527.701	18148.42
527.907	17742.92
528.114	18592.83
528.321	18304.06
528.528	18236.48
528.735	18449.47
528.941	18631.74
529.148	18031.68
529.355	18105.41
529.562	18121.79
529.768	18777.14
529.975	18236.48
530.182	18390.08
530.388	18388.03
530.595	18969.65
530.802	18406.46
531.008	18828.34
531.215	18854.97
531.422	19766.31
531.628	19618.86
531.835	19072.05
532.042	19026.99
532.248	19065.91
532.455	19242.03
532.661	19182.64
532.868	19100.72
533.074	19432.49
533.281	19579.95
533.487	19424.3
533.694	19147.83
533.9	19557.42
534.107	19541.04
534.313	19295.28
534.52	19317.81
534.726	19983.4
534.933	20190.24
535.139	19375.15
535.345	19514.41
535.552	19868.71
535.758	20081.7
535.965	19913.77
536.171	19821.61
536.377	20431.9
536.584	20358.17
536.79	19911.72
536.996	20194.34
537.203	20188.19
537.409	20507.68
537.615	19930.15
537.821	20415.52
538.028	20810.78
538.234	20456.48
538.44	20274.21
538.646	20329.5
538.853	20814.87
539.059	20452.38
539.265	20608.03
539.471	20288.54
539.677	20945.94
539.883	20939.8
540.09	20589.6
540.296	21249.04
540.502	21191.7
540.708	20743.19
540.914	20868.12
541.12	21222.42
541.326	21267.47
541.532	21310.48
541.738	21179.41
541.944	21120.02
542.15	21773.32
542.356	21521.42
542.562	21255.18
542.768	21408.78
542.974	22080.52
543.18	21896.2
543.386	21427.21
543.592	21496.85
543.798	22107.14
544.004	22328.32
544.21	21527.56
544.415	21658.63
544.621	22096.9
544.827	22471.68
545.033	21494.8
545.239	21967.88
545.445	22180.87
545.651	22242.31
545.856	22184.96
546.062	22096.9
546.268	22117.38
546.474	22481.92
546.679	21703.69
546.885	22127.62
547.091	22352.9
547.297	22361.09
547.502	22242.31
547.708	21935.11
547.914	22137.86
548.119	22641.66
548.325	22045.7
548.531	21931.01
548.736	23247.86
548.942	22277.12
549.147	22379.52
549.353	22694.91
549.559	23122.93
549.764	22926.33
549.97	22187.01
550.175	22531.07
550.381	22762.49
550.586	22606.84
550.792	22625.28
550.997	22811.64
551.203	23084.02
551.408	23018.49
551.614	22993.91
551.819	22977.53
552.025	23692.27
552.23	23704.56
552.435	23057.4
552.641	23770.09
552.846	23397.36
553.052	23811.05
553.257	23733.23
553.462	23544.81
553.668	23421.94
553.873	24196.07
554.078	23520.24
554.283	23409.65
554.489	24038.37
554.694	23907.3
554.899	23512.05
555.105	23958.5
555.31	24017.89
555.515	24249.32
555.72	24171.49
555.925	23841.77
556.131	24548.32
556.336	23735.28
556.541	23981.03
556.746	24083.43
556.951	24499.17
557.156	24433.63
557.361	23913.45
557.567	24404.96
557.772	25148.37
557.977	24333.28
558.182	23999.46
558.387	24116.2
558.592	24202.21
558.797	24771.55
559.002	24544.22
559.207	24445.92
559.412	24536.03
559.617	25037.78
559.822	24456.16
560.027	24347.62
560.232	25054.17
560.437	25035.74
560.642	24660.96
560.847	24574.94
561.051	25072.6
561.256	25050.07
561.461	24609.76
561.666	24583.13
561.871	25138.13
562.076	25127.89
562.281	24814.55
562.485	24556.51
562.69	25426.9
562.895	25375.7
563.1	24789.98
563.305	24677.34
563.509	25537.49
563.714	25805.77
563.919	25195.48
564.123	25035.74
564.328	25377.75
564.533	25560.02
564.737	24720.35
564.942	25215.96
565.147	25902.03
565.351	25928.65
565.556	25236.44
565.761	25324.5
565.965	25670.61
566.17	25420.75
566.374	25232.34
566.579	25758.67
566.784	25555.92
566.988	25529.3
567.193	25420.75
567.397	25271.25
567.602	25813.96
567.806	25437.14
568.011	25299.92
568.215	25764.81
568.42	25703.37
568.624	26411.97
568.828	25680.85
569.033	26080.2
569.237	26366.91
569.442	26033.1
569.646	25695.18
569.85	25967.56
570.055	26006.47
570.259	26471.36
570.463	26315.72
570.668	26069.96
570.872	26354.63
571.076	26299.33
571.281	26559.42
571.485	26190.79
571.689	26629.06
571.893	26588.1
572.098	26082.25
572.302	26319.81
572.506	26620.86
572.71	26887.1
572.914	26299.33
573.119	26536.9
573.323	26997.69
573.527	27175.86
573.731	26321.86
573.935	26670.01
574.139	26878.91
574.343	26571.71
574.547	26811.32
574.751	26743.74
574.955	27079.61
575.159	27495.35
575.364	26344.39
575.568	26581.95
575.772	26977.21
575.976	27319.22
576.18	26844.09
576.383	26948.54
576.587	27546.54
576.791	27126.71
576.995	26844.09
577.199	27071.42
577.403	27528.11
577.607	27833.26
577.811	27196.34
578.015	27327.41
578.219	27575.22
578.422	27986.86
578.626	27612.08
578.83	27667.38
579.034	27958.19
579.238	27726.77
579.442	27624.37
579.645	28001.19
579.849	27810.73
580.053	27741.1
580.257	26870.72
580.46	28031.91
580.664	28240.81
580.868	27929.52
581.071	28058.54
581.275	27960.23
581.479	27739.05
581.682	28343.2
581.886	27786.16
582.09	27995.05
582.293	28404.64
582.497	28208.04
582.7	28140.46
582.904	28355.49
583.107	28304.29
583.311	28396.45
583.515	28404.64
583.718	28097.45
583.922	28625.82
584.125	29193.11
584.329	28130.22
584.532	28574.63
584.735	28902.3
584.939	28603.3
585.142	28193.7
585.346	28394.4
585.549	28887.96
585.753	28765.09
585.956	28943.26
586.159	28930.97
586.363	29445.01
586.566	29209.5
586.769	28752.8
586.973	28609.44
587.176	29356.95
587.379	29596.56
587.582	29383.57
587.786	29264.79
587.989	29432.72
588.192	29717.39
588.395	29182.87
588.599	29391.76
588.802	29424.53
589.005	29264.79
589.208	29563.79
589.411	29361.05
589.615	29688.72
589.818	30323.59
590.021	29723.54
590.224	29739.92
590.427	30190.47
590.63	29848.46
590.833	29641.62
591.036	29809.55
591.239	30053.26
591.442	29674.38
591.645	29748.11
591.848	30030.73
592.051	30126.99
592.254	29950.86
592.457	29926.28
592.66	30110.6
592.863	30319.49
593.066	30241.67
593.269	30167.94
593.472	30055.31
593.675	30413.7
593.878	30514.05
594.081	30284.68
594.284	29815.69
594.486	30514.05
594.689	31038.33
594.892	30397.32
595.095	30555.01
595.298	30577.54
595.5	30659.46
595.703	30790.53
595.906	30550.92
596.109	31114.11
596.311	30993.28
596.514	30055.31
596.717	30647.17
596.92	31445.88
597.122	30962.56
597.325	30466.95
597.528	30706.56
597.73	31816.56
597.933	31363.96
598.136	30991.23
598.338	30792.58
598.541	31560.56
598.743	31636.34
598.946	31021.95
599.148	31243.13
599.351	31654.77
599.554	31761.26
599.756	31249.27
599.959	31439.73
600.161	31597.43
600.363	32299.88
600.566	31576.95
600.768	31323
600.971	32154.47
601.173	31771.5
601.376	31382.39
601.578	31581.04
601.78	31683.44
601.983	32455.53
602.185	31585.14
602.388	31908.72
602.59	31544.18
602.792	32054.12
602.995	31576.95
603.197	31413.11
603.399	32041.84
603.601	31634.29
603.804	31323
604.006	31538.04
604.208	32101.23
604.41	31521.65
604.613	31798.13
604.815	32060.27
605.017	32672.61
605.219	31617.91
605.421	32111.47
605.623	31806.32
605.826	32605.03
606.028	32185.19
606.23	31781.74
606.432	32109.42
606.634	32873.31
606.836	32674.66
607.038	31984.49
607.24	32287.59
607.442	32101.23
607.644	32273.26
607.846	32193.39
608.048	32299.88
608.25	32732
608.452	32512.87
608.654	32375.66
608.856	31744.88
609.058	32506.73
609.26	32635.75
609.462	32342.89
609.664	32412.52
609.866	32596.84
610.067	32779.11
610.269	32506.73
610.471	32252.78
610.673	32815.97
610.875	32904.03
611.077	32445.29
611.278	32531.3
611.48	32633.7
611.682	32940.89
611.884	32285.54
612.085	32277.35
612.287	32635.75
612.489	32672.61
612.69	32383.85
612.892	32639.84
613.094	33108.83
613.295	32664.42
613.497	32541.54
613.699	32559.97
613.9	33178.46
614.102	33024.86
614.304	32465.77
614.505	32222.06
614.707	32635.75
614.908	32461.67
615.11	32228.2
615.311	32680.8
615.513	32770.91
615.714	33123.16
615.916	32549.73
616.117	32684.9
616.319	33098.59
616.52	33256.28
616.722	32746.34
616.923	32654.18
617.124	33133.4
617.326	32777.06
617.527	32732
617.729	33135.45
617.93	33243.99
618.131	33436.5
618.333	32502.63
618.534	32815.97
618.735	32621.41
618.937	32959.33
619.138	32623.46
619.339	32580.45
619.54	33149.79
619.742	32748.39
619.943	32842.59
620.144	32953.18
620.345	33540.95
620.546	33325.91
620.748	32969.57
620.949	32799.58
621.15	33217.37
621.351	33299.29
621.552	32844.64
621.753	32895.84
621.954	32867.17
622.155	33092.44
622.356	32916.32
622.558	33055.58
622.759	33401.69
622.96	33725.27
623.161	32871.26
623.362	32994.14
623.563	33432.41
623.764	32742.24
623.965	33149.79
624.166	33403.74
624.366	32820.06
624.567	33483.61
624.768	32770.91
624.969	32869.22
625.17	33375.06
625.371	33119.07
625.572	32971.61
625.773	33045.34
625.973	33776.47
626.174	34024.27
626.375	33483.61
626.576	33313.62
626.777	33502.04
626.977	33856.34
627.178	33545.05
627.379	33610.58
627.58	33450.84
627.78	33477.46
627.981	33096.54
628.182	33434.46
628.382	33557.33
628.583	33428.31
628.784	33194.84
628.984	33547.09
629.185	33663.83
629.386	33557.33
629.586	33536.85
629.787	33444.69
629.987	33704.79
630.188	33672.02
630.388	33538.9
630.589	33405.78
630.79	34124.62
630.99	33852.24
631.191	33659.73
631.391	33848.14
631.591	33608.53
631.792	33948.5
631.992	33606.48
632.193	34292.55
632.393	34136.91
632.594	33798.99
632.794	33346.39
632.994	34009.93
633.195	33960.78
633.395	33872.72
633.595	33473.37
633.796	34208.59
633.996	34106.19
634.196	34513.73
634.397	34204.49
634.597	33600.34
634.797	33946.45
634.997	34306.89
635.198	34028.37
635.398	33461.08
635.598	34270.03
635.798	34458.44
635.998	33856.34
636.199	33755.99
636.399	33823.57
636.599	33989.45
636.799	34067.28
636.999	34077.52
637.199	34558.79
637.399	34282.31
637.599	34130.76
637.799	33872.72
637.999	34634.56
638.199	34521.93
638.399	34151.24
638.599	34247.5
638.799	34464.58
638.999	34779.97
639.199	34431.82
639.399	34255.69
639.599	35326.78
639.799	34499.4
639.999	34294.6
640.199	34583.37
640.399	34841.41
640.599	34087.76
640.799	34550.6
640.998	34863.94
641.198	35091.26
641.398	34716.48
641.598	34960.19
641.798	34906.94
641.997	35107.65
642.197	34786.11
642.397	34509.64
642.597	34706.24
642.796	35081.02
642.996	35347.26
643.196	34456.39
643.395	34429.77
643.595	34812.74
643.795	34462.54
643.994	34591.56
644.194	34497.35
644.394	35154.75
644.593	34816.83
644.793	34898.75
644.992	34552.65
645.192	35257.15
645.392	34825.03
645.591	35070.78
645.791	35083.07
645.99	35130.17
646.19	35033.92
646.389	35107.65
646.589	34872.13
646.788	34931.52
646.987	35027.77
647.187	35169.08
647.386	35056.45
647.586	35189.56
647.785	35691.32
647.984	35277.63
648.184	35623.73
648.383	34931.52
648.582	35466.04
648.782	35017.53
648.981	35472.18
649.18	34986.82
649.38	35767.09
649.579	35218.24
649.778	35224.38
649.977	35777.33
650.177	35410.74
650.376	35089.21
650.575	34734.92
650.774	35849.01
650.973	34945.86
651.173	34653
651.372	35304.25
651.571	35195.71
651.77	35961.65
651.969	35181.37
652.168	35236.67
652.367	35466.04
652.566	35767.09
652.765	35486.52
652.964	35638.07
653.163	35986.22
653.362	35576.63
653.561	34945.86
653.76	35420.98
653.959	35623.73
654.158	36057.9
654.357	35216.19
654.556	35420.98
654.755	36014.9
654.954	35846.96
655.153	35138.37
655.352	35902.26
655.551	35785.52
655.749	35806
655.948	35582.77
656.147	35726.13
656.346	35775.28
656.545	35920.69
656.743	35750.71
656.942	35683.12
657.141	35918.64
657.34	35771.19
657.538	35552.05
657.737	35550.01
657.936	35791.67
658.135	36004.66
658.333	35629.88
658.532	35904.31
658.731	36281.13
658.929	36133.68
659.128	36217.64
659.326	36008.75
659.525	36283.18
659.724	36002.61
659.922	35849.01
660.121	36090.67
660.319	35709.75
660.518	35861.3
660.716	35822.39
660.915	36072.24
661.113	36442.92
661.312	35896.11
661.51	36199.21
661.709	35871.54
661.907	36244.27
662.105	36096.81
662.304	36062
662.502	36029.23
662.701	36492.07
662.899	35873.59
663.097	36008.75
663.296	35611.45
663.494	36573.99
663.692	36641.57
663.891	36094.77
664.089	35488.57
664.287	36160.3
664.485	36696.87
664.684	35990.32
664.882	36100.91
665.08	36504.36
665.278	36246.32
665.476	36098.86
665.675	36121.39
665.873	36494.12
666.071	36506.41
666.269	35646.26
666.467	36088.62
666.665	36018.99
666.863	35570.49
667.061	35887.92
667.259	35502.9
667.457	36365.1
667.655	36377.39
667.853	35701.56
668.051	35988.27
668.249	35814.19
668.447	35885.87
668.645	35920.69
668.843	35949.36
669.041	36467.5
669.239	36207.4
669.437	35951.41
669.635	36277.04
669.833	35892.02
670.031	36129.58
670.229	35828.53
670.426	36051.76
670.624	35855.15
670.822	35785.52
671.02	35793.72
671.218	36213.55
671.415	35713.84
671.613	36145.97
671.811	36002.61
672.009	36193.07
672.206	36307.76
672.404	36025.14
672.602	35965.74
672.799	35980.08
672.997	36176.69
673.195	36307.76
673.392	35842.87
673.59	35705.65
673.788	35900.21
673.985	35187.52
674.183	35543.86
674.38	35662.65
674.578	36164.4
674.775	35779.38
674.973	35365.69
675.17	35386.17
675.368	36043.57
675.565	36223.79
675.763	35722.04
675.96	35382.07
676.158	36064.05
676.355	35285.82
676.553	36051.76
676.75	35390.27
676.947	35834.67
677.145	35472.18
677.342	35550.01
677.539	35664.69
677.737	36205.36
677.934	36303.66
678.131	35504.95
678.329	35566.39
678.526	35924.79
678.723	36291.37
678.92	35814.19
679.118	35105.6
679.315	35033.92
679.512	36139.82
679.709	35642.17
679.906	35470.14
680.104	35842.87
680.301	35734.32
680.498	35164.99
680.695	35025.73
680.892	35244.86
681.089	35160.89
681.286	35566.39
681.483	34837.31
681.68	35769.14
681.877	35509.05
682.075	34921.28
682.272	35494.71
682.469	35222.33
682.665	35476.28
682.862	34872.13
683.059	34734.92
683.256	35167.04
683.453	35367.74
683.65	35081.02
683.847	35066.69
684.044	35289.91
684.241	35208
684.438	35300.15
684.635	34908.99
684.831	35619.64
685.028	35316.54
685.225	35095.36
685.422	34956.1
685.619	34986.82
685.815	35089.21
686.012	35308.35
686.209	34417.48
686.405	34884.42
686.602	35451.7
686.799	34554.69
686.996	34640.71
687.192	34708.29
687.389	35259.2
687.586	34677.57
687.782	34659.14
687.979	35212.09
688.175	34976.58
688.372	34599.75
688.568	34722.63
688.765	34421.58
688.962	35244.86
689.158	34317.13
689.355	34313.03
689.551	34722.63
689.748	34513.73
689.944	34413.38
690.14	34229.07
690.337	34558.79
690.533	34497.35
690.73	34423.62
690.926	34644.8
691.123	34648.9
691.319	34431.82
691.515	34077.52
691.712	34397
691.908	34462.54
692.104	34630.47
692.301	34650.95
692.497	33809.23
692.693	34446.15
692.889	34569.03
693.086	34292.55
693.282	33952.59
693.478	34693.96
693.674	34904.9
693.87	34032.46
694.067	34239.31
694.263	34327.37
694.459	34609.99
694.655	34480.97
694.851	34286.41
695.047	34528.07
695.243	34362.18
695.439	34194.25
695.635	34044.75
695.831	34323.27
696.027	34231.11
696.224	33373.02
696.42	34229.07
696.615	34491.21
696.811	34382.66
697.007	33463.13
697.203	33594.2
697.399	33719.12
697.595	33987.41
697.791	33954.64
697.987	33508.18
698.183	33485.65
698.379	33368.92
698.575	33399.64
698.77	33272.67
698.966	34202.44
699.162	34167.63
699.358	33629.01
699.554	33385.3
699.749	34100.04
699.945	34009.93
700.141	33930.06
700.337	33682.26
700.532	33706.83
700.728	33407.83
700.924	33575.76
701.119	33024.86
701.315	33573.72
701.511	33133.4
701.706	33569.62
701.902	33104.73
702.097	33442.65
702.293	33940.3
702.489	33354.58
702.684	33454.93
702.88	33362.78
703.075	33131.36
703.271	33428.31
703.466	32994.14
703.662	33577.81
703.857	33747.79
704.053	33547.09
704.248	33432.41
704.443	33645.4
704.639	33700.69
704.834	32822.11
705.03	33264.47
705.225	33469.27
705.42	33536.85
705.616	33299.29
705.811	33024.86
706.006	33387.35
706.202	33303.39
706.397	33305.43
706.592	32957.28
706.787	33063.77
706.983	33526.61
707.178	33260.38
707.373	33332.06
707.568	33518.42
707.763	33383.26
707.959	32912.22
708.154	32813.92
708.349	33117.02
708.544	33346.39
708.739	32914.27
708.934	32674.66
709.129	33330.01
709.324	33342.3
709.519	33155.93
709.714	32482.15
709.909	33747.79
710.104	32668.51
710.299	32402.28
710.494	32559.97
710.689	32848.74
710.884	32852.83
711.079	32762.72
711.274	32918.37
711.469	33411.93
711.664	32922.46
711.859	32914.27
712.054	32709.47
712.249	32775.01
712.443	33106.78
712.638	32396.13
712.833	32570.21
713.028	32453.48
713.223	32244.59
713.417	32801.63
713.612	32224.11
713.807	33022.81
714.002	33399.64
714.196	33035.1
714.391	32605.03
714.586	32799.58
714.78	33172.32
714.975	32293.74
715.17	32422.76
715.364	32564.07
715.559	33198.94
715.754	31837.04
715.948	32125.8
716.143	32484.2
716.337	32535.4
716.532	32979.81
716.726	32623.46
716.921	32928.61
717.115	33069.92
717.31	31677.3
717.504	32826.21
717.699	32521.06
717.893	32545.64
718.088	32115.56
718.282	32351.08
718.476	32152.43
718.671	32693.09
718.865	32279.4
719.059	32002.92
719.254	32232.3
719.448	32463.72
719.642	33233.75
719.837	31402.87
720.031	31894.38
720.225	31968.11
720.419	31959.92
720.614	31769.46
720.808	32453.48
721.002	31818.61
721.196	31583.09
721.39	31429.49
721.585	31820.66
721.779	32056.17
721.973	31419.25
722.167	31120.25
722.361	31853.42
722.555	31869.81
722.749	31019.9
722.943	31488.88
723.137	30995.32
723.331	31947.63
723.525	31691.63
723.719	31153.02
723.913	31759.22
724.107	31423.35
724.301	30913.41
724.495	31359.86
724.689	32189.29
724.883	31834.99
725.077	31048.57
725.271	31169.4
725.465	31759.22
725.659	31290.23
725.853	31351.67
726.046	31126.39
726.24	30884.73
726.434	31200.12
726.628	31013.76
726.822	31435.64
727.015	31910.77
727.209	31630.19
727.403	31251.32
727.596	31048.57
727.79	31499.12
727.984	31724.4
728.177	31558.52
728.371	31468.41
728.565	31601.52
728.758	31277.94
728.952	31060.86
729.146	31126.39
729.339	31996.78
729.533	31599.48
729.726	30978.94
729.92	31165.31
730.113	31748.98
730.307	31826.8
730.5	30888.83
730.694	31083.39
730.887	31357.81
731.081	31638.39
731.274	30897.02
731.468	30987.13
731.661	31128.44
731.854	31277.94
732.048	31046.52
732.241	30874.49
732.435	31196.03
732.628	31605.62
732.821	30974.84
733.014	31032.19
733.208	30997.37
733.401	31443.83
733.594	30749.57
733.788	30897.02
733.981	31198.07
734.174	31439.73
734.367	30917.5
734.56	31200.12
734.754	31548.28
734.947	31288.18
735.14	30770.05
735.333	31085.44
735.526	31583.09
735.719	30819.2
735.912	30921.6
736.105	30968.7
736.298	30894.97
736.491	30487.43
736.684	30843.77
736.877	30778.24
737.07	30886.78
737.263	30759.81
737.456	30507.91
737.649	30522.24
737.842	30731.14
738.035	30950.27
738.228	30645.12
738.421	30647.17
738.614	31171.45
738.807	31218.55
739	30401.41
739.192	30364.55
739.385	30745.47
739.578	30722.94
739.771	30790.53
739.964	30436.23
740.156	31083.39
740.349	30956.41
740.542	30708.61
740.735	30266.25
740.927	30448.52
741.12	30495.62
741.313	30081.93
741.505	30839.68
741.698	30616.45
741.891	30743.42
742.083	30546.82
742.276	30540.68
742.468	30624.64
742.661	30698.37
742.854	30206.86
743.046	29950.86
743.239	30661.51
743.431	31126.39
743.624	30215.05
743.816	29875.09
744.009	30681.99
744.201	30532.48
744.393	30188.42
744.586	29897.61
744.778	30501.76
744.971	30155.66
745.163	30145.42
745.355	30012.3
745.548	30323.59
745.74	30077.83
745.932	30225.29
746.125	29989.77
746.317	31216.51
746.509	30495.62
746.702	30202.76
746.894	30380.93
747.086	30231.43
747.278	30671.75
747.471	30268.3
747.663	29979.53
747.855	30335.88
748.047	30671.75
748.239	30391.17
748.431	30083.98
748.623	31093.63
748.815	30753.66
749.008	30040.97
749.2	29930.38
749.392	30344.07
749.584	30270.34
749.776	30120.84
749.968	30020.49
750.16	30894.97
750.352	29971.34
750.544	29850.51
750.736	30061.45
750.928	30057.35
751.12	29713.3
751.311	29449.11
751.503	30094.22
751.695	30030.73
751.887	29770.64
752.079	29455.25
752.271	29537.17
752.463	30829.44
752.654	30088.07
752.846	30065.55
753.038	29576.08
753.23	29326.23
753.421	29819.79
753.613	29496.21
753.805	29762.45
753.997	29770.64
754.188	30043.02
754.38	29494.16
754.572	29399.96
754.763	29502.36
754.955	29848.46
755.146	29596.56
755.338	29219.74
755.53	29305.75
755.721	29588.37
755.913	28976.03
756.104	28892.06
756.296	29006.75
756.487	29666.19
756.679	29156.25
756.87	29062.04
757.062	28871.58
757.253	29350.81
757.445	29191.06
757.636	29266.84
757.827	29420.44
758.019	29748.11
758.21	28681.12
758.401	29031.32
758.593	29322.13
758.784	29328.28
758.975	28423.08
759.167	28375.97
759.358	29172.63
759.549	29174.68
759.74	28640.16
759.932	28359.59
760.123	29125.53
760.314	28916.64
760.505	28343.2
760.696	28416.93
760.888	29303.7
761.079	28220.33
761.27	28543.91
761.461	28427.17
761.652	28787.61
761.843	28375.97
762.034	28425.12
762.225	28224.42
762.416	28490.66
762.607	28308.39
762.798	28040.11
762.989	28384.16
763.18	29281.17
763.371	27945.9
763.562	28019.63
763.753	28072.87
763.944	28748.7
764.135	28453.8
764.326	28087.21
764.517	27982.76
764.708	28257.19
764.899	28347.3
765.089	27691.95
765.28	27501.49
765.471	27884.46
765.662	27661.23
765.853	27630.51
766.043	27431.86
766.234	28263.33
766.425	27876.27
766.615	27489.2
766.806	27638.7
766.997	28502.95
767.187	27726.77
767.378	27247.54
767.569	27079.61
767.759	27767.73
767.95	27720.62
768.141	27599.79
768.331	27495.35
768.522	27351.99
768.712	27882.41
768.903	27304.88
769.093	27026.36
769.284	27771.82
769.474	27421.62
769.665	26631.1
769.855	26969.02
770.046	27325.36
770.236	27241.4
770.426	27073.46
770.617	26827.71
770.807	27036.6
770.998	27245.49
771.188	26852.28
771.378	26635.2
771.569	27091.9
771.759	26829.76
771.949	26514.37
772.139	26817.47
772.33	26905.53
772.52	27358.13
772.71	26569.66
772.9	26258.37
773.09	26735.55
773.281	27198.39
773.471	26518.46
773.661	26465.22
773.851	26844.09
774.041	26213.32
774.231	26049.48
774.421	26166.21
774.611	26792.89
774.802	26442.69
774.992	26135.49
775.182	26225.61
775.372	26389.44
775.562	26530.75
775.752	26020.81
775.942	25850.83
776.131	26381.25
776.321	25926.6
776.511	25961.42
776.701	25818.06
776.891	26282.95
777.081	25654.22
777.271	25752.52
777.461	25920.46
777.651	26043.34
777.84	26399.68
778.03	25478.1
778.22	25400.27
778.41	26299.33
778.599	25314.26
778.789	25555.92
778.979	25353.17
779.169	25553.87
779.358	25324.5
779.548	25881.55
779.738	25369.55
779.927	25621.45
780.117	25281.49
780.307	24937.43
780.496	25310.16
780.686	25373.65
780.875	25852.87
781.065	25205.72
781.254	25326.55
781.444	25320.4
781.633	25523.15
781.823	25074.65
782.012	24890.33
782.202	24908.76
782.391	24951.77
782.581	24816.6
782.77	24976.34
782.96	25453.52
783.149	24527.84
783.338	24800.22
783.528	24294.37
783.717	25172.95
783.906	25453.52
784.096	24761.31
784.285	24386.53
784.474	24763.36
784.663	24609.76
784.853	24591.33
785.042	24751.07
785.231	24771.55
785.42	25326.55
785.61	24753.12
785.799	24243.17
785.988	24368.1
786.177	24343.52
786.366	24292.32
786.555	24404.96
786.744	24566.75
786.933	24392.67
787.122	23831.53
787.312	24245.22
787.501	24329.19
787.69	24886.23
787.879	24282.08
788.068	23895.02
788.257	23958.5
788.445	23938.02
788.634	24044.52
788.823	23950.31
789.012	24849.37
789.201	24400.86
789.39	23991.27
789.579	23903.21
789.768	24120.29
789.957	23966.7
790.145	23946.22
790.334	23593.97
790.523	23737.32
790.712	23933.93
790.9	23954.41
791.089	22998.01
791.278	24288.23
791.467	23991.27
791.655	23839.72
791.844	23786.47
792.033	23538.67
792.221	23716.84
792.41	23428.08
792.599	23045.11
792.787	23854.06
792.976	23559.15
793.164	23417.84
793.353	23155.7
793.541	23825.39
793.73	23413.74
793.918	23444.46
794.107	23155.7
794.295	23311.35
794.484	23215.09
794.672	23143.41
794.861	23084.02
795.049	23376.88
795.238	23751.66
795.426	23006.2
795.614	22881.27
795.803	23092.21
795.991	23325.68
796.179	22516.73
796.368	23137.27
796.556	23104.5
796.744	22787.07
796.932	22875.13
797.121	22651.9
797.309	22864.89
797.497	23432.18
797.685	22914.04
797.874	22758.39
798.062	23178.23
798.25	23215.09
798.438	23024.63
798.626	22866.94
798.814	23102.45
799.002	23665.64
799.19	22785.02
799.378	23090.17
799.566	23333.87
799.755	23309.3
799.943	22920.18
800.131	22729.72
800.318	23208.95
800.506	23213.04
800.694	22680.57
800.882	22793.21
801.07	23147.51
801.258	22942.71
801.446	22975.48
801.634	22537.21
801.822	22746.11
802.01	22985.72
802.197	22832.12
802.385	22862.84
802.573	23045.11
802.761	22729.72
802.949	22778.87
803.136	22610.94
803.324	23313.39
803.512	22946.81
803.699	22674.43
803.887	22522.88
804.075	23221.24
804.262	22942.71
804.45	22903.8
804.638	22807.55
804.825	23053.3
805.013	22815.74
805.201	23049.21
805.388	22586.36
805.576	22883.32
805.763	23540.72
805.951	22897.66
806.138	23116.79
806.326	23845.87
806.513	23270.39
806.701	23106.55
806.888	23235.57
807.075	23669.74
807.263	23395.31
807.45	23012.34
807.638	23161.84
807.825	23770.09
808.012	23362.54
808.2	23057.4
808.387	23004.15
808.574	23223.28
808.761	23663.6
808.949	22871.03
809.136	23208.95
809.323	23340.02
809.51	23591.92
809.698	23307.25
809.885	23270.39
810.072	23278.58
810.259	23716.84
810.446	23184.37
810.633	23239.67
810.82	23811.05
811.008	23970.79
811.195	23630.83
811.382	23176.18
811.569	23507.95
811.756	23155.7
811.943	23305.2
812.13	22924.28
812.317	23188.47
812.504	23254
812.691	23512.05
812.878	23251.95
813.064	23796.71
813.251	23362.54
813.438	23172.08
813.625	23340.02
813.812	23047.16
813.999	23471.09
814.186	23227.38
814.372	23331.83
814.559	23542.77
814.746	23677.93
814.933	23043.06
815.12	23491.57
815.306	23211
815.493	23149.56
815.68	23364.59
815.866	23415.79
816.053	23569.39
816.24	23841.77
816.426	23258.1
816.613	23059.45
816.799	23593.97
816.986	23823.34
817.173	23208.95
817.359	22899.7
817.546	23399.41
817.732	22979.57
817.919	23118.84
818.105	23110.64
818.292	23436.27
818.478	23411.7
818.665	23561.2
818.851	22993.91
819.037	24081.38
819.224	23454.7
819.41	23167.99
819.597	22606.84
819.783	23501.81
819.969	23245.81
820.156	22885.37
820.342	23145.46
820.528	23892.97
820.714	23096.31
820.901	22952.95
821.087	22793.21
821.273	23663.6
821.459	23049.21
821.646	23124.98
821.832	22985.72
822.018	23127.03
822.204	22934.52
822.39	22813.69
822.576	22397.95
822.762	23038.97
822.948	22656
823.134	22746.11
823.32	22397.95
823.507	22178.82
823.693	22907.9
823.879	22758.39
824.065	22481.92
824.25	22866.94
824.436	22365.18
824.622	22676.48
824.808	22500.35
824.994	22406.14
825.18	22123.52
825.366	22369.28
825.552	22230.02
825.738	22744.06
825.923	22479.87
826.109	22742.01
826.295	22238.21
826.481	22344.7
826.667	22309.89
826.852	22234.11
827.038	21926.92
827.224	22793.21
827.409	22821.88
827.595	21978.12
827.781	22045.7
827.966	22584.32
828.152	22289.41
828.338	22012.93
828.523	21654.54
828.709	22189.06
828.894	22438.91
829.08	21963.78
829.266	21859.34
829.451	21990.41
829.637	21879.82
829.822	21873.67
830.008	21668.87
830.193	22383.62
830.378	22457.34
830.564	22064.13
830.749	21771.27
830.935	21820.42
831.12	22101
831.305	21697.55
831.491	21707.79
831.676	21861.38
831.861	22072.32
832.047	21634.06
832.232	21206.03
832.417	21949.45
832.602	21795.85
832.788	21748.75
832.973	21591.05
833.158	21670.92
833.343	21771.27
833.528	21644.3
833.714	21836.81
833.899	21662.73
834.084	22062.08
834.269	21562.38
834.454	21273.62
834.639	21830.66
834.824	21218.32
835.009	21502.99
835.194	21378.06
835.379	21795.85
835.564	21642.25
835.749	21251.09
835.934	21050.39
836.119	21388.3
836.304	20954.13
836.489	21070.87
836.674	21173.27
836.859	20872.21
837.044	21783.56
837.228	20907.03
837.413	20827.16
837.598	21294.1
837.783	21265.42
837.968	20872.21
838.152	20632.6
838.337	20565.02
838.522	21115.92
838.707	21265.42
838.891	21093.4
839.076	20786.2
839.261	20958.23
839.445	20722.71
839.63	20612.12
839.815	21113.88
839.999	20786.2
840.184	20730.9
840.368	20501.53
840.553	20667.42
840.737	21185.55
840.922	20429.85
841.106	20309.02
841.291	20331.55
841.475	20782.1
841.66	20669.47
841.844	20302.88
842.029	21029.91
842.213	20337.69
842.397	20311.07
842.582	20153.38
842.766	20923.41
842.951	20534.3
843.135	20268.06
843.319	20175.91
843.504	20321.31
843.688	20773.91
843.872	20229.15
844.056	20106.27
844.241	20474.91
844.425	20122.66
844.609	19883.05
844.793	19917.86
844.977	20392.99
845.161	20112.42
845.346	19393.58
845.53	19817.51
845.714	20206.62
845.898	20411.42
846.082	19688.49
846.266	19723.3
846.45	19981.35
846.634	19874.85
846.818	19639.34
847.002	19741.74
847.186	20597.79
847.37	19928.1
847.554	19414.06
847.738	19768.36
847.922	19887.14
848.106	19985.44
848.29	19278.9
848.473	19403.82
848.657	19588.14
848.841	19616.81
849.025	19387.44
849.209	19102.77
849.392	19606.57
849.576	19379.25
849.76	19180.59
849.944	19186.74
850.127	20112.42
850.311	19217.46
850.495	19321.9
850.678	19119.15
850.862	19625
851.046	19518.51
851.229	19061.81
851.413	18967.6
851.596	18893.88
851.78	19242.03
851.964	18967.6
852.147	18818.1
852.331	19811.37
852.514	19405.87
852.698	18906.16
852.881	18342.97
853.065	19248.18
853.248	19135.54
853.431	19041.33
853.615	18754.62
853.798	19534.89
853.982	19080.24
854.165	18820.15
854.348	18744.38
854.532	18670.65
854.715	18758.71
854.898	18687.03
855.081	18527.29
855.265	18824.25
855.448	19205.17
855.631	18261.05
855.814	18537.53
855.997	19012.66
856.181	18449.47
856.364	18717.75
856.547	18435.13
856.73	18625.59
856.913	18662.46
857.096	18060.35
857.279	18404.41
857.462	18383.93
857.645	18895.92
857.828	18347.07
858.011	18394.17
858.194	18324.54
858.377	18175.04
858.56	17945.67
858.743	17972.29
858.926	18023.49
859.109	18275.39
859.292	17867.84
859.475	17712.2
859.658	18496.57
859.841	18201.66
860.023	17663.05
860.206	17701.96
860.389	18189.38
860.572	18373.69
860.755	17761.35
860.937	17495.11
861.12	18066.5
861.303	18078.79
861.486	17749.06
861.668	17783.88
861.851	17749.06
862.034	18003.01
862.216	17697.86
862.399	17239.12
862.581	17497.16
862.764	17966.15
862.947	17437.77
863.129	17349.71
863.312	17286.22
863.494	17978.43
863.677	17480.78
863.859	17050.71
864.042	17544.27
864.224	18103.36
864.406	17257.55
864.589	16737.37
864.771	17685.58
864.954	16825.43
865.136	16931.92
865.318	17081.42
865.501	17134.67
865.683	16612.44
865.865	17036.37
866.048	16686.17
866.23	17275.98
866.412	17194.06
866.594	16700.5
866.777	17065.04
866.959	17269.84
867.141	16811.09
867.323	17138.77
867.505	16987.22
867.687	16983.12
867.869	17013.84
868.052	16940.11
868.234	16833.62
868.416	16847.96
868.598	17237.07
868.78	16403.55
868.962	16696.41
869.144	16989.27
869.326	17114.19
869.508	16403.55
869.69	16467.03
869.872	16585.82
870.054	17364.04
870.236	16436.31
870.417	16475.23
870.599	16700.5
870.781	17292.37
870.963	16731.22
871.145	16370.78
871.327	16411.74
871.508	16698.45
871.69	16348.25
871.872	16645.21
872.054	16882.77
872.235	16843.86
872.417	16329.82
872.599	16616.54
872.78	16989.27
872.962	17044.56
873.144	16221.28
873.325	16495.71
873.507	17249.36
873.689	16338.01
873.87	16305.24
874.052	16577.62
874.233	16499.8
874.415	16596.06
874.596	16497.75
874.778	16292.96
874.959	16526.43
875.141	16708.69
875.322	16135.26
875.503	16262.24
875.685	16847.96
875.866	16008.29
876.048	16135.26
876.229	16155.74
876.41	16147.55
876.592	16438.36
876.773	16299.1
876.954	16196.7
877.136	16856.15
877.317	16321.63
877.498	16012.38
877.679	16348.25
877.86	16589.91
878.042	16305.24
878.223	16297.05
878.404	16581.72
878.585	16794.71
878.766	17069.14
878.947	16792.66
879.128	16622.68
879.309	16702.55
879.49	17081.42
879.672	16745.56
879.853	16286.81
880.034	16467.03
880.215	16647.26
880.396	16839.76
880.576	16663.64
880.757	16610.39
880.938	17120.34
881.119	16546.9
881.3	16444.51
881.481	16714.84
881.662	17755.21
881.843	16440.41
882.023	16657.5
882.204	17101.9
882.385	17134.67
882.566	17050.71
882.747	17048.66
882.927	17439.82
883.108	17185.87
883.289	16643.16
883.469	17138.77
883.65	17024.08
883.831	16970.83
884.011	17347.66
884.192	17089.62
884.373	17491.02
884.553	17275.98
884.734	17415.24
884.914	17392.72
885.095	17921.09
885.275	17478.73
885.456	17591.37
885.636	17136.72
885.817	17470.54
885.997	17298.51
886.178	17210.45
886.358	17394.76
886.538	17503.31
886.719	18232.38
886.899	17165.39
887.08	17341.52
887.26	17941.57
887.44	17454.15
887.621	17300.56
887.801	17462.35
887.981	18293.82
888.161	17742.92
888.342	17228.88
888.522	17396.81
888.702	17931.33
888.882	17902.66
889.062	17634.38
889.242	17323.08
889.423	18019.39
889.603	17742.92
889.783	17816.65
889.963	17335.37
890.143	18136.13
890.323	18072.64
890.503	17587.27
890.683	17560.65
890.863	17689.67
891.043	17888.32
891.223	17781.83
891.403	17708.1
891.583	17740.87
891.763	17833.03
891.943	17712.2
892.122	17382.48
892.302	17658.95
892.482	17642.57
892.662	17521.74
892.842	17482.83
893.022	17847.36
893.201	17476.68
893.381	17675.34
893.561	17382.48
893.741	18142.27
893.92	17675.34
894.1	17697.86
894.28	17423.44
894.459	18046.02
894.639	17783.88
894.819	17206.35
894.998	17572.94
895.178	17790.02
895.357	17638.47
895.537	17015.89
895.716	17327.18
895.896	17368.14
896.075	17853.51
896.255	17316.94
896.434	16802.9
896.614	17816.65
896.793	17646.66
896.973	17136.72
897.152	17196.11
897.331	17654.86
897.511	17589.32
897.69	17048.66
897.87	17067.09
898.049	17398.86
898.228	17306.7
898.407	17183.82
898.587	17042.51
898.766	17269.84
898.945	17415.24
899.124	16778.33
899.304	16647.26
899.483	17149.01
899.662	17226.83
899.841	16815.19
900.02	16856.15
900.199	17118.29
900.378	17050.71
900.557	16417.88
900.737	16430.17
900.916	16690.26
901.095	16544.86
901.274	16651.35
901.453	16100.45
901.632	16184.41
901.811	16510.04
901.989	16125.02
902.168	16333.92
902.347	16684.12
902.526	16188.51
902.705	15940.71
902.884	16211.04
903.063	16561.24
903.242	16434.27
903.42	15877.22
903.599	15848.55
903.778	16032.86
903.957	16333.92
904.135	15735.91
904.314	15545.45
904.493	15717.48
904.672	15830.12
904.85	15445.1
905.029	15463.53
905.207	15531.11
905.386	16206.94
905.565	15017.07
905.743	15207.53
905.922	15004.78
906.1	15475.82
906.279	14652.53
906.457	14644.34
906.636	15301.74
906.814	14785.65
906.993	14685.3
907.171	14562.42
907.35	14832.76
907.528	14990.45
907.707	14654.58
907.885	14148.73
908.063	14754.93
908.242	14535.8
908.42	14214.27
908.598	14189.69
908.777	14513.27
908.955	14404.73
909.133	14460.02
909.311	13931.65
909.49	14261.37
909.668	14470.26
909.846	14328.95
910.024	14107.77
910.202	14646.39
910.38	14709.88
910.559	13927.55
910.737	14124.16
910.915	14759.03
911.093	14705.78
911.271	14652.53
911.449	14505.08
911.627	14957.68
911.805	15324.27
911.983	14625.91
912.161	14208.12
912.339	15021.17
912.517	15109.23
912.695	15033.46
912.872	14548.09
913.05	14636.15
913.228	15074.42
913.406	14494.84
913.584	14709.88
913.762	15058.03
913.939	14750.84
914.117	14795.89
914.295	14722.16
914.473	15021.17
914.65	15172.72
914.828	14523.51
915.006	14673.01
915.184	14591.09
915.361	14900.34
915.539	14814.32
915.716	14789.75
915.894	15387.75
916.072	15191.15
916.249	14926.96
916.427	14806.13
916.604	14689.4
916.782	15055.98
916.959	14445.69
917.137	14308.47
917.314	15012.98
917.492	14804.08
917.669	14537.85
917.847	14769.27
918.024	14830.71
918.201	14439.54
918.379	14437.5
918.556	14345.34
918.733	14943.35
918.911	14156.93
919.088	14482.55
919.265	14331
919.442	14472.31
919.62	14376.06
919.797	14271.61
919.974	13868.16
920.151	14408.83
920.328	14255.23
920.506	13778.05
920.683	14275.71
920.86	13859.97
921.037	14118.01
921.214	14423.16
921.391	13794.43
921.568	14417.02
921.745	14007.42
921.922	14089.34
922.099	13665.41
922.276	14531.7
922.453	14148.73
922.63	13759.62
922.807	14132.35
922.984	14128.25
923.161	13896.83
923.338	13603.97
923.514	13773.96
923.691	14140.54
923.868	14040.19
924.045	13468.81
924.222	13663.36
924.399	13741.19
924.575	14085.25
924.752	13706.37
924.929	13743.24
925.105	13667.46
925.282	13526.15
925.459	13446.28
925.635	13640.84
925.812	13671.56
925.989	13374.6
926.165	13253.77
926.342	13296.78
926.518	13137.04
926.695	13593.73
926.871	13046.93
927.048	12942.48
927.224	13659.27
927.401	12969.1
927.577	12928.14
927.754	12541.08
927.93	13264.01
928.107	13106.32
928.283	12508.31
928.459	13020.3
928.636	13118.61
928.812	12532.89
928.988	12592.28
929.165	12504.21
929.341	12666
929.517	12729.49
929.693	12973.2
929.87	12188.83
930.046	12899.47
930.222	12442.78
930.398	12340.38
930.574	12113.05
930.751	12397.72
930.927	12137.63
931.103	12160.16
931.279	12145.82
931.455	11812
931.631	12194.97
931.807	11717.79
931.983	11834.53
932.159	11605.16
932.335	11902.11
932.511	11830.43
932.687	11586.72
932.863	11789.47
933.039	11644.07
933.215	11318.44
933.391	11396.26
933.566	11316.39
933.742	11494.57
933.918	11193.51
934.094	11125.93
934.27	11039.92
934.445	11175.08
934.621	10896.56
934.797	10759.35
934.973	11041.96
935.148	10720.43
935.324	10286.26
935.5	10003.64
935.675	10749.11
935.851	10380.47
936.027	10142.91
936.202	10052.8
936.378	10235.07
936.553	9784.51
936.729	10003.64
936.904	9473.22
937.08	9104.59
937.255	9168.07
937.431	8778.96
937.606	8781.01
937.782	8867.02
937.957	8778.96
938.133	8537.3
938.308	8297.69
938.483	8555.73
938.659	8232.15
938.834	8152.28
939.009	8004.83
939.185	8080.6
939.36	7886.05
939.535	7304.42
939.71	7589.09
939.886	7935.2
940.061	7750.88
940.236	7703.78
940.411	7251.17
940.586	7593.19
940.761	7539.94
940.937	7171.3
941.112	6948.08
941.287	7146.73
941.462	7144.68
941.637	6788.33
941.812	6943.98
941.987	7343.33
942.162	6894.83
942.337	6685.94
942.512	6827.25
942.687	7005.42
942.862	6937.84
943.037	6446.32
943.212	6378.74
943.386	6667.5
943.561	6690.03
943.736	6659.31
943.911	6700.27
944.086	6714.61
944.26	6839.53
944.435	6440.18
944.61	6458.61
944.785	6919.4
944.959	6935.79
945.134	6474.99
945.309	6423.8
945.483	6554.87
945.658	6890.73
945.833	6221.05
946.007	6311.16
946.182	7120.1
946.357	6413.56
946.531	6479.09
946.706	6364.4
946.88	6221.05
947.055	6739.18
947.229	6468.85
947.404	6372.6
947.578	6980.84
947.752	6624.5
947.927	6493.43
948.101	6548.72
948.276	6728.94
948.45	6771.95
948.624	6706.42
948.799	6612.21
948.973	6634.74
949.147	6509.81
949.321	6761.71
949.496	6628.59
949.67	7191.78
949.844	6866.16
950.018	6657.26
950.193	6690.03
950.367	7380.2
950.541	6860.01
950.715	6860.01
950.889	7079.15
951.063	6925.55
951.237	7025.9
951.411	6687.98
951.585	6825.2
951.759	7173.35
951.933	7099.62
952.107	6878.44
952.281	7177.45
952.455	7537.89
952.629	7404.77
952.803	6915.31
952.977	6931.69
953.151	7367.91
953.325	7294.18
953.499	7113.96
953.672	6927.6
953.846	7171.3
954.02	7245.03
954.194	7247.08
954.368	7050.47
954.541	7441.64
954.715	7263.46
954.889	7212.26
955.062	7152.87
955.236	7378.15
955.41	7316.71
955.583	7472.36
955.757	7156.97
955.93	7365.86
956.104	7068.91
956.278	7271.65
956.451	7288.04
956.625	7687.39
956.798	7949.53
956.972	7568.61
957.145	7101.67
957.319	7824.61
957.492	7488.74
957.665	7523.55
957.839	7308.52
958.012	7648.48
958.185	7595.23
958.359	7310.57
958.532	7513.31
958.705	7787.74
958.879	7623.91
959.052	7412.96
959.225	7234.79
959.398	7576.8
959.572	7439.59
959.745	7335.14
959.918	7521.51
960.091	7558.37
960.264	7812.32
960.438	7304.42
960.611	7017.71
960.784	7843.04
960.957	7283.94
961.13	7556.32
961.303	7339.24
961.476	7447.78
961.649	7701.73
961.822	7380.2
961.995	7236.84
962.168	7720.16
962.341	7566.56
962.514	7345.38
962.686	7165.16
962.859	7552.23
963.032	7699.68
963.205	7240.93
963.378	7005.42
963.551	7634.14
963.723	7343.33
963.896	7609.57
964.069	7228.65
964.242	7593.19
964.414	7464.16
964.587	7326.95
964.76	7347.43
964.932	7523.55
965.105	7486.69
965.278	7318.76
965.45	7355.62
965.623	7662.82
965.795	7427.3
965.968	7283.94
966.14	7224.55
966.313	7269.61
966.485	7503.07
966.658	7234.79
966.83	7238.89
967.003	7619.81
967.175	7646.43
967.348	7179.5
967.52	7146.73
967.692	7732.45
967.865	7439.59
968.037	7146.73
968.209	7484.64
968.382	7177.45
968.554	7443.68
968.726	7224.55
968.898	7236.84
969.071	7187.69
969.243	7320.81
969.415	7058.67
969.587	7124.2
969.759	7658.72
969.932	7388.39
970.104	7052.52
970.276	6843.63
970.448	7105.77
970.62	7025.9
970.792	7247.08
970.964	7011.56
971.136	7832.8
971.308	7238.89
971.48	6692.08
971.652	6759.66
971.824	7480.55
971.996	6950.12
972.168	6894.83
972.339	6903.02
972.511	7339.24
972.683	6847.72
972.855	6827.25
973.027	6923.5
973.199	6917.36
973.37	6933.74
973.542	6782.19
973.714	6657.26
973.886	6927.6
974.057	7169.26
974.229	6495.47
974.401	6692.08
974.572	6757.61
974.744	6526.19
974.915	6522.1
975.087	6526.19
975.259	7091.43
975.43	6604.02
975.602	6638.83
975.773	6505.71
975.945	6706.42
976.116	6851.82
976.288	6542.58
976.459	6808.81
976.63	6677.74
976.802	6833.39
976.973	6481.14
977.145	6495.47
977.316	7089.39
977.487	6565.11
977.659	6604.02
977.83	6575.34
978.001	6950.12
978.172	6624.5
978.344	6247.67
978.515	6460.66
978.686	6483.19
978.857	6821.1
979.028	6235.38
979.2	6081.78
979.371	6579.44
979.542	6540.53
979.713	6282.49
979.884	5729.53
980.055	6169.85
980.226	6321.4
980.397	6253.81
980.568	5864.7
980.739	6442.23
980.91	6106.36
981.081	6444.27
981.252	6028.54
981.423	6331.64
981.594	6374.64
981.765	5911.8
981.936	6057.21
982.106	6192.37
982.277	6520.05
982.448	5907.71
982.619	6178.04
982.79	5897.47
982.96	6483.19
983.131	6063.35
983.302	5596.42
983.472	5934.33
983.643	6092.02
983.814	6014.2
983.984	5696.77
984.155	6014.2
984.326	6360.31
984.496	5932.28
984.667	5881.08
984.837	5876.99
985.008	6114.55
985.178	5827.84
985.349	5602.56
985.519	5674.24
985.69	5555.46
985.86	5512.45
986.031	5467.39
986.201	5809.4
986.371	5743.87
986.542	5395.72
986.712	5240.07
986.882	5915.9
987.053	5772.54
987.223	5516.55
987.393	5645.57
987.563	5514.5
987.734	5801.21
987.904	5735.68
988.074	5311.75
988.244	5567.74
988.414	5516.55
988.585	5365
988.755	5385.48
988.925	5383.43
989.095	5809.4
989.265	5166.34
989.435	5278.98
989.605	5743.87
989.775	5467.39
989.945	5356.8
990.115	5084.42
990.285	5252.36
990.455	5258.5
990.625	5270.79
990.795	4922.63
990.965	5563.65
991.134	5068.04
991.304	4865.29
991.474	5063.94
991.644	5315.84
991.814	5557.5
991.984	4900.11
992.153	5020.94
992.323	5125.38
992.493	4994.31
992.662	4642.06
992.832	4934.92
993.002	5080.33
993.171	5006.6
993.341	4769.04
993.511	4885.77
993.68	4951.31
993.85	4975.88
994.019	4482.32
994.189	4515.09
994.358	4910.35
994.528	4664.59
994.697	4429.07
994.867	4566.29
995.036	5035.27
995.206	4560.14
995.375	4533.52
995.544	4607.25
995.714	4699.41
995.883	4502.8
996.052	4605.2
996.222	4228.37
996.391	5248.26
996.56	4539.66
996.73	4287.76
996.899	4064.54
997.068	5027.08
997.237	4504.85
997.406	4140.31
997.576	4101.4
997.745	4689.17
997.914	4484.37
998.083	4128.02
998.252	4128.02
998.421	4461.84
998.59	4349.2
998.759	4105.49
998.928	3988.76
999.097	4789.52
999.266	4412.69
999.435	4193.56
999.604	3892.51
999.773	4863.24
999.942	4150.55
1000.111	3826.97
1000.28	3693.85
1000.448	4070.68
1000.617	3964.18
1000.786	4023.58
1000.955	3824.92
1001.124	4320.53
1001.292	4783.37
1001.461	3966.23
1001.63	3841.31
1001.798	4480.27
1001.967	4338.96
1002.136	3636.51
1002.304	3704.09
1002.473	4105.49
1002.642	4105.49
1002.81	3845.4
1002.979	3777.82
1003.147	4093.21
1003.316	4527.38
1003.484	3753.24
1003.653	3527.97
1003.821	4203.8
1003.99	3857.69
1004.158	3806.49
1004.327	3626.27
1004.495	3982.62
1004.663	3669.28
1004.832	3640.61
1005	3339.55
1005.168	3888.41
1005.337	3704.09
1005.505	3136.81
1005.673	3693.85
1005.842	3919.13
1006.01	3826.97
1006.178	3339.55
1006.346	3323.17
1006.514	3716.38
1006.683	3841.31
1006.851	3294.5
1007.019	3310.88
1007.187	3421.47
1007.355	3112.23
1007.523	3077.41
1007.691	3151.14
1007.859	3161.38
1008.027	3654.94
1008.195	3089.7
1008.363	3061.03
1008.531	3792.16
1008.699	3468.58
1008.867	3048.74
1009.035	3056.93
1009.203	3575.07
1009.37	3355.94
1009.538	3169.57
1009.706	3527.97
1009.874	3421.47
1010.042	3222.82
1010.209	2805.03
1010.377	2837.8
1010.545	3476.77
1010.713	3249.44
1010.88	3003.69
1011.048	2979.11
1011.216	3126.57
1011.383	3540.26
1011.551	2772.27
1011.718	2694.44
1011.886	3380.51
1012.054	3200.29
1012.221	2755.88
1012.389	2764.08
1012.556	3063.08
1012.724	3362.08
1012.891	2925.86
1013.058	2534.7
1013.226	3058.98
1013.393	3067.17
1013.561	2450.74
1013.728	2526.51
1013.895	3034.41
1014.063	3142.95
1014.23	2592.05
1014.397	2618.67
1014.565	3077.41
1014.732	2710.83
1014.899	2452.78
1015.066	2295.09
1015.233	2927.91
1015.401	2999.59
1015.568	2594.09
1015.735	2530.61
1015.902	2805.03
1016.069	2952.49
1016.236	2282.8
1016.403	2362.67
1016.57	2680.11
1016.737	2870.57
1016.904	2407.73
1017.071	2241.84
1017.238	2403.63
1017.405	2874.67
1017.572	2426.16
1017.739	2544.94
1017.906	2739.5
1018.073	2782.51
1018.24	2188.6
1018.407	2323.76
1018.573	2819.37
1018.74	2352.43
1018.907	2278.71
1019.074	2067.77
1019.241	2764.08
1019.407	2469.17
1019.574	2121.01
1019.741	2020.66
1019.907	2485.55
1020.074	2676.01
1020.241	1932.6
1020.407	2047.29
1020.574	2471.22
1020.74	2497.84
1020.907	2090.29
1021.073	2008.37
1021.24	2911.53
1021.406	2667.82
1021.573	1877.3
1021.739	2082.1
1021.906	2563.37
1022.072	2252.08
1022.239	2047.29
1022.405	2018.61
1022.571	2338.1
1022.738	2135.35
1022.904	1895.74
1023.07	1961.27
1023.237	2372.91
1023.403	2379.06
1023.569	1951.03
1023.735	1914.17
1023.902	2155.83
1024.068	2159.92
1024.234	1889.59
1024.4	1803.58
1024.566	2194.74
1024.732	2465.07
1024.898	1889.59
1025.065	1670.46
1025.231	2321.71
1025.397	1971.51
1025.563	1740.09
1025.729	1660.22
1025.895	1709.37
1026.061	1844.54
1026.227	1652.03
1026.392	1707.32
1026.558	2139.44
1026.724	2051.38
1026.89	1735.99
1027.056	1707.32
1027.222	2221.36
1027.388	2024.76
1027.553	1695.04
1027.719	1699.13
1027.885	2334
1028.051	2080.05
1028.216	1414.46
1028.382	1570.11
1028.548	2102.58
1028.713	1801.53
1028.879	1365.31
1029.045	1729.85
1029.21	2168.12
1029.376	2164.02
1029.541	1553.73
1029.707	1629.5
1029.873	2045.24
1030.038	2022.71
1030.204	1609.02
1030.369	1545.53
1030.534	2012.47
1030.7	1781.05
1030.865	1617.21
1031.031	1424.7
1031.196	1887.54
1031.361	1834.3
1031.527	1334.59
1031.692	1424.7
1031.857	1271.11
1032.023	1856.82
1032.188	1480
1032.353	1457.47
1032.518	2100.53
1032.684	1801.53
1032.849	1334.59
1033.014	1502.53
1033.179	1938.74
1033.344	1905.98
1033.509	1430.85
1033.674	1373.5
1033.839	1842.49
1034.004	1783.1
1034.17	1287.49
1034.335	1211.71
1034.5	1568.06
1034.664	1459.52
1034.829	1289.54
1034.994	1334.59
1035.159	1729.85
1035.324	1684.8
1035.489	1318.21
1035.654	1238.34
1035.819	1994.04
1035.984	1744.19
1036.148	1338.69
1036.313	1355.07
1036.478	1834.3
1036.643	1514.81
1036.807	1252.67
1036.972	1105.22
1037.137	1836.35
1037.301	1541.44
1037.466	970.05
1037.631	1277.25
1037.795	1883.45
1037.96	1602.88
1038.124	1373.5
1038.289	1066.31
1038.454	1692.99
1038.618	1559.87
1038.783	1164.61
1038.947	1197.38
1039.111	1504.57
1039.276	1305.92
1039.44	1045.83
1039.605	1363.26
1039.769	1307.97
1039.933	1344.83
1040.098	1217.86
1040.262	1291.59
1040.426	1561.92
1040.591	1566.01
1040.755	1049.93
1040.919	1054.02
1041.083	1502.53
1041.248	1291.59
1041.412	861.51
1041.576	951.62
1041.74	1213.76
1041.904	1584.45
1042.068	929.1
1042.232	1230.15
1042.397	1580.35
1042.561	1473.85
1042.725	722.25
1042.889	1164.61
1043.053	1619.26
1043.217	1412.42
1043.381	1051.97
1043.544	890.18
1043.708	1600.83
1043.872	925
1044.036	664.91
1044.2	861.51
1044.364	1402.18
1044.528	1520.96
1044.691	2215.22
1044.855	834.89
1045.019	1508.67
1045.183	1410.37
1045.346	1006.92
1045.51	789.83
1045.674	1310.02
1045.837	1348.93
1046.001	933.19
1046.165	871.75
1046.328	1735.99
1046.492	1275.2
1046.655	965.96
1046.819	875.85
1046.983	1142.08
1047.146	1353.02
1047.31	892.23
1047.473	699.72
1047.636	1133.89
1047.8	996.68
1047.963	849.22
1048.127	902.47
1048.29	939.34
