Data from Hydrogel_Ink_Intensity_Test_1_USB4F045381__10__00010.txt Node

Date: Mon Jul 31 10:37:02 EDT 2023
User: mmckonesweet
Spectrometer: USB4F04538
Trigger mode: 4
Integration Time (sec): 9.000000E-1
Scans to average: 1
Electric dark correction enabled: true
Nonlinearity correction enabled: false
Boxcar width: 0
XAxis mode: Wavelengths
Number of Pixels in Spectrum: 3648
>>>>>Begin Spectral Data<<<<<
345.52	-882.33
345.736	-882.33
345.952	-882.33
346.168	-929.44
346.384	-933.53
346.6	-124.58
346.816	-245.41
347.032	-249.51
347.248	332.11
347.464	-183.98
347.68	-95.91
347.896	106.84
348.112	368.98
348.328	-89.77
348.544	-122.54
348.76	33.11
348.975	270.67
349.191	-188.07
349.407	0.34
349.623	29.01
349.839	-61.1
350.055	-3.75
350.27	186.71
350.486	252.24
350.702	502.09
350.918	340.3
351.133	-61.1
351.349	264.53
351.565	446.8
351.781	-136.87
351.996	123.22
352.212	463.18
352.428	-87.72
352.644	-1.71
352.859	-79.53
353.075	368.98
353.291	-3.75
353.506	-3.75
353.722	-46.76
353.938	-16.04
354.153	471.37
354.369	123.22
354.584	-97.96
354.8	262.48
355.016	-304.81
355.231	-85.67
355.447	18.77
355.662	315.73
355.878	1042.76
356.093	-208.55
356.309	117.08
356.524	-110.25
356.74	248.15
356.955	-89.77
357.171	88.4
357.386	211.28
357.602	-134.82
357.817	39.25
358.033	-59.05
358.248	551.24
358.464	231.76
358.679	133.46
358.895	-159.4
359.11	135.51
359.325	426.32
359.541	411.98
359.756	117.08
359.972	-155.3
360.187	260.43
360.402	-13.99
360.618	12.63
360.833	989.51
361.048	264.53
361.264	-13.99
361.479	92.5
361.694	51.54
361.909	336.21
362.125	4.44
362.34	80.21
362.555	389.46
362.77	178.51
362.986	-85.67
363.201	-67.24
363.416	315.73
363.631	78.16
363.847	-11.95
364.062	-32.43
364.277	307.54
364.492	190.8
364.707	20.82
364.922	-132.78
365.138	319.82
365.353	401.74
365.568	-89.77
365.783	65.88
365.998	180.56
366.213	762.19
366.428	-130.73
366.643	174.42
366.858	459.09
367.073	252.24
367.288	35.16
367.503	-38.57
367.718	262.48
367.933	383.31
368.148	-116.39
368.363	78.16
368.578	201.04
368.793	510.29
369.008	-3.75
369.223	-30.38
369.438	348.5
369.653	635.21
369.868	-22.19
370.083	-85.67
370.298	264.53
370.513	508.24
370.728	231.76
370.943	-7.85
371.157	-13.99
371.372	713.03
371.587	-102.06
371.802	-110.25
372.017	254.29
372.232	547.15
372.446	92.5
372.661	-149.16
372.876	418.13
373.091	342.35
373.306	119.12
373.52	-34.47
373.735	-22.19
373.95	594.25
374.165	172.37
374.379	76.12
374.594	-42.67
374.809	289.1
375.023	182.61
375.238	-36.52
375.453	405.84
375.667	-44.71
375.882	78.16
376.097	-1.71
376.311	172.37
376.526	100.69
376.741	-59.05
376.955	184.66
377.17	774.47
377.384	792.91
377.599	135.51
377.813	12.63
378.028	629.07
378.242	307.54
378.457	67.92
378.672	-136.87
378.886	248.15
379.101	223.57
379.315	-59.05
379.53	57.68
379.744	328.02
379.958	338.26
380.173	92.5
380.387	84.31
380.602	350.54
380.816	72.02
381.031	115.03
381.245	170.32
381.459	393.55
381.674	2597.17
381.888	119.12
382.103	301.39
382.317	100.69
382.531	772.43
382.746	233.81
382.96	123.22
383.174	158.03
383.388	663.88
383.603	391.5
383.817	-1.71
384.031	450.89
384.246	782.67
384.46	176.47
384.674	479.57
384.888	301.39
385.103	307.54
385.317	106.84
385.531	246.1
385.745	571.72
385.959	602.44
386.174	164.18
386.388	29.01
386.602	227.67
386.816	262.48
387.03	213.33
387.244	254.29
387.458	516.43
387.672	672.08
387.887	33.11
388.101	67.92
388.315	663.88
388.529	364.88
388.743	242
388.957	139.6
389.171	676.17
389.385	160.08
389.599	227.67
389.813	528.72
390.027	418.13
390.241	1026.37
390.455	250.19
390.669	352.59
390.883	260.43
391.097	745.8
391.311	444.75
391.525	194.9
391.738	596.3
391.952	444.75
392.166	348.5
392.38	211.28
392.594	721.23
392.808	674.12
393.022	260.43
393.236	235.86
393.449	610.64
393.663	600.4
393.877	172.37
394.091	389.46
394.305	166.23
394.518	229.71
394.732	115.03
394.946	305.49
395.16	864.58
395.373	510.29
395.587	233.81
395.801	387.41
396.015	790.86
396.228	618.83
396.442	262.48
396.656	170.32
396.869	868.68
397.083	883.02
397.297	424.27
397.51	344.4
397.724	893.26
397.938	631.12
398.151	164.18
398.365	256.34
398.578	727.37
398.792	852.3
399.005	522.57
399.219	375.12
399.433	629.07
399.646	741.71
399.86	491.85
400.073	516.43
400.287	756.04
400.5	500.05
400.714	581.96
400.927	534.86
401.141	723.27
401.354	1546.56
401.567	776.52
401.781	293.2
401.994	827.72
402.208	1104.2
402.421	545.1
402.635	651.6
402.848	481.61
403.061	909.64
403.275	635.21
403.488	430.41
403.701	1159.49
403.915	835.91
404.128	641.36
404.341	577.87
404.555	758.09
404.768	637.26
404.981	647.5
405.195	495.95
405.408	1118.53
405.621	758.09
405.834	661.84
406.048	522.57
406.261	1026.37
406.474	1157.44
406.687	502.09
406.9	794.95
407.114	676.17
407.327	905.54
407.54	416.08
407.753	399.7
407.966	567.63
408.179	954.69
408.392	506.19
408.605	426.32
408.819	969.03
409.032	823.62
409.245	524.62
409.458	823.62
409.671	854.34
409.884	1100.1
410.097	463.18
410.31	762.19
410.523	1014.09
410.736	715.08
410.949	780.62
411.162	633.16
411.375	1151.3
411.588	1177.92
411.801	909.64
412.014	624.97
412.227	741.71
412.44	790.86
412.653	688.46
412.865	887.11
413.078	1034.57
413.291	1007.94
413.504	821.58
413.717	614.73
413.93	1116.48
414.143	768.33
414.356	837.96
414.568	516.43
414.781	1222.98
414.994	1089.86
415.207	778.57
415.42	842.06
415.632	1251.65
415.845	1331.52
416.058	653.64
416.271	710.99
416.483	1063.24
416.696	1349.95
416.909	784.71
417.121	776.52
417.334	1282.37
417.547	1569.09
417.759	833.86
417.972	792.91
418.185	928.07
418.397	1225.03
418.61	893.26
418.823	827.72
419.035	1521.98
419.248	1077.57
419.46	981.32
419.673	1048.9
419.885	1286.47
420.098	1120.58
420.311	999.75
420.523	727.37
420.736	1296.71
420.948	1143.11
421.161	991.56
421.373	813.38
421.586	1147.2
421.798	969.03
422.01	926.02
422.223	1079.62
422.435	1007.94
422.648	1325.38
422.86	1034.57
423.073	1003.85
423.285	1538.37
423.497	940.36
423.71	991.56
423.922	999.75
424.134	1403.2
424.347	1626.43
424.559	1270.08
424.771	1366.34
424.984	1161.54
425.196	1444.16
425.408	938.31
425.621	917.83
425.833	1597.76
426.045	1601.85
426.257	1044.81
426.47	1114.44
426.682	1554.75
426.894	1540.41
427.106	1214.79
427.318	1298.75
427.531	1194.31
427.743	1546.56
427.955	1245.51
428.167	1634.62
428.379	1599.8
428.591	1339.71
428.804	1343.81
429.016	1284.42
429.228	1497.41
429.44	1489.21
429.652	1528.13
429.864	1173.83
430.076	1487.17
430.288	1556.8
430.5	1374.53
430.712	1540.41
430.924	1880.38
431.136	1538.37
431.348	1161.54
431.56	1335.62
431.772	1681.72
431.984	1515.84
432.196	1401.15
432.408	1608
432.62	1536.32
432.832	1833.27
433.044	1839.42
433.256	1679.68
433.468	1995.06
433.679	1427.78
433.891	1372.48
434.103	1808.7
434.315	2130.23
434.527	1894.71
434.739	1714.49
434.95	1839.42
435.162	1993.01
435.374	1667.39
435.586	1663.29
435.798	1743.16
436.009	1634.62
436.221	1851.71
436.433	1753.4
436.645	1679.68
436.856	1818.94
437.068	2183.48
437.28	1831.23
437.491	2042.17
437.703	2163
437.915	1945.91
438.126	1816.89
438.338	2089.27
438.55	2027.83
438.761	2101.56
438.973	1900.86
439.184	1884.47
439.396	2103.61
439.608	2218.29
439.819	1747.26
440.031	1968.44
440.242	2177.33
440.454	2230.58
440.665	2027.83
440.877	2048.31
441.088	2341.17
441.3	2060.6
441.511	1833.27
441.723	2056.5
441.934	2187.57
442.146	2169.14
442.357	2218.29
442.569	2375.99
442.78	2257.2
442.991	2642.22
443.203	2408.75
443.414	1980.73
443.626	2640.17
443.837	2183.48
444.048	2097.46
444.26	1909.05
444.471	2222.39
444.682	2613.55
444.894	2007.35
445.105	2101.56
445.316	2502.96
445.528	2519.34
445.739	2390.32
445.95	2285.87
446.161	2316.59
446.373	2650.41
446.584	2246.96
446.795	2214.2
447.006	2769.2
447.217	2842.92
447.429	2160.95
447.64	2183.48
447.851	2693.42
448.062	2466.1
448.273	2134.32
448.484	2343.22
448.695	2613.55
448.907	2556.21
449.118	2457.9
449.329	2584.88
449.54	2462
449.751	2367.79
449.962	2384.18
450.173	2531.63
450.384	2885.93
450.595	3150.12
450.806	2545.97
451.017	2591.02
451.228	3078.44
451.439	2939.18
451.65	2576.69
451.861	2380.08
452.072	2642.22
452.283	2718
452.494	2793.77
452.705	2597.17
452.915	3137.83
453.126	2904.36
453.337	2703.66
453.548	2623.79
453.759	3000.62
453.97	3649.82
454.181	3062.05
454.391	2818.35
454.602	3072.29
454.813	3219.75
455.024	2984.23
455.235	2873.64
455.445	2973.99
455.656	3135.78
455.867	3094.82
456.078	2990.38
456.288	3047.72
456.499	3485.98
456.71	2967.85
456.921	3162.41
457.131	3496.22
457.342	3309.86
457.553	3076.39
457.763	2957.61
457.974	3471.65
458.184	3465.5
458.395	3244.32
458.606	3232.04
458.816	3815.71
459.027	3922.2
459.237	3479.84
459.448	3156.26
459.659	3641.63
459.869	4151.57
460.08	3166.5
460.29	3510.56
460.501	4129.05
460.711	3668.25
460.922	3264.8
461.132	3580.19
461.343	4405.52
461.553	3518.75
461.764	3672.35
461.974	3662.11
462.184	3924.25
462.395	4112.66
462.605	3899.67
462.816	3696.92
463.026	4047.13
463.236	4247.83
463.447	3866.91
463.657	3944.73
463.867	4485.39
464.078	3977.5
464.288	4075.8
464.498	4047.13
464.709	4313.36
464.919	4321.56
465.129	4215.06
465.339	4180.25
465.55	4649.23
465.76	4530.45
465.97	4352.27
466.18	4417.81
466.391	4825.36
466.601	4755.72
466.811	4690.19
467.021	4417.81
467.231	5001.48
467.441	5081.35
467.651	4780.3
467.862	4528.4
468.072	5120.26
468.282	5363.97
468.492	4825.36
468.702	5034.25
468.912	5320.96
469.122	5792
469.332	5413.12
469.542	5026.06
469.752	5431.55
469.962	5456.13
470.172	5331.2
470.382	5269.76
470.592	5660.93
470.802	6025.47
471.012	5601.54
471.222	5501.19
471.432	6095.1
471.642	6062.33
471.852	5933.31
472.062	5822.72
472.272	6070.52
472.482	6002.94
472.691	6023.42
472.901	5927.16
473.111	6361.33
473.321	7014.63
473.531	6314.23
473.741	6271.22
473.95	6801.65
474.16	6674.67
474.37	6635.76
474.58	6693.1
474.79	7270.63
474.999	7164.14
475.209	6525.17
475.419	6889.71
475.628	7014.63
475.838	7299.3
476.048	7176.42
476.258	7045.35
476.467	7864.54
476.677	7436.52
476.886	7669.98
477.096	7743.71
477.306	7606.5
477.515	8227.03
477.725	7590.11
477.935	7745.76
478.144	8306.9
478.354	7960.8
478.563	7971.04
478.773	7940.32
478.982	8460.5
479.192	8878.29
479.401	8448.21
479.611	8216.79
479.82	8560.85
480.03	8855.76
480.239	8566.99
480.449	8493.27
480.658	9398.47
480.868	9064.65
481.077	9060.56
481.287	9322.7
481.496	9408.71
481.705	9818.3
481.915	9597.12
482.124	9547.97
482.333	9556.16
482.543	10019
482.752	9711.81
482.961	9760.96
483.171	10125.5
483.38	9926.85
483.589	10012.86
483.799	10252.47
484.008	10281.14
484.217	10342.58
484.426	10188.99
484.636	10168.51
484.845	10662.07
485.054	10236.09
485.263	10832.05
485.472	10653.87
485.682	11409.58
485.891	10905.77
486.1	10619.06
486.309	11008.17
486.518	11331.75
486.727	11415.72
486.936	11090.09
487.146	11485.35
487.355	11966.62
487.564	11356.33
487.773	11266.22
487.982	11626.66
488.191	11995.29
488.4	11894.94
488.609	11628.71
488.818	11927.71
489.027	12732.56
489.236	12755.09
489.445	12142.75
489.654	11919.52
489.863	12601.49
490.072	12611.73
490.281	12738.71
490.49	12685.46
490.698	13305.99
490.907	13174.92
491.116	12683.41
491.325	12648.6
491.534	13355.15
491.743	13236.36
491.952	13144.2
492.16	13050
492.369	13531.27
492.578	13774.98
492.787	13287.56
492.996	13367.43
493.204	13336.71
493.413	13985.92
493.622	13109.39
493.831	13469.83
494.039	14108.8
494.248	13590.66
494.457	13920.38
494.665	13760.64
494.874	14303.36
495.083	14764.15
495.291	14002.3
495.5	14147.71
495.709	14671.99
495.917	14628.98
496.126	14549.11
496.335	14467.19
496.543	14606.45
496.752	14698.61
496.96	14807.16
497.169	14659.7
497.377	15136.88
497.586	15482.99
497.794	15118.45
498.003	14622.84
498.211	15120.49
498.42	15902.82
498.628	15183.98
498.837	15280.24
499.045	15716.45
499.254	15499.37
499.462	15276.14
499.671	15603.82
499.879	16154.72
500.087	16078.94
500.296	15566.95
500.504	15675.49
500.713	16074.85
500.921	16687.19
501.129	15970.4
501.338	15724.65
501.546	16566.36
501.754	16343.13
501.962	16134.24
502.171	16291.93
502.379	16621.66
502.587	16930.9
502.795	16373.85
503.004	16244.83
503.212	16582.74
503.42	16988.24
503.628	16670.81
503.837	17109.07
504.045	17342.54
504.253	17616.97
504.461	16982.1
504.669	16879.7
504.877	17150.03
505.085	17782.85
505.294	17078.35
505.502	17104.98
505.71	17535.05
505.918	17399.88
506.126	16932.95
506.334	17303.63
506.542	17707.08
506.75	17522.76
506.958	17690.7
507.166	17805.38
507.374	17967.17
507.582	18434.11
507.79	17852.48
507.998	17797.19
508.206	18085.95
508.414	18174.02
508.622	17879.11
508.83	17860.68
509.037	18735.16
509.245	18108.48
509.453	18235.46
509.661	18157.63
509.869	18669.62
510.077	18425.92
510.285	18671.67
510.492	18153.54
510.7	19507.24
510.908	18536.51
511.116	18280.51
511.324	18503.74
511.531	18835.51
511.739	19066.93
511.947	18743.35
512.155	19003.44
512.362	19251.25
512.57	19091.51
512.778	18794.55
512.985	19132.47
513.193	19312.69
513.401	19583.02
513.608	19204.14
513.816	19333.17
514.024	19603.5
514.231	19632.17
514.439	19335.21
514.646	19447.85
514.854	19615.79
515.061	19673.13
515.269	19611.69
515.477	19529.77
515.684	19509.29
515.892	20408.35
516.099	19636.27
516.307	19753
516.514	20369.44
516.722	20346.91
516.929	19988.52
517.136	19970.08
517.344	20443.17
517.551	20480.03
517.759	20230.18
517.966	20117.54
518.173	20205.6
518.381	20543.52
518.588	20465.69
518.796	20328.48
519.003	21037.08
519.21	20410.4
519.418	20430.88
519.625	20774.94
519.832	20760.6
520.039	21260.3
520.247	20619.29
520.454	20748.31
520.661	21211.15
520.868	21422.09
521.076	21223.44
521.283	20983.83
521.49	21745.67
521.697	21526.54
521.904	21055.51
522.112	21106.71
522.319	21911.56
522.526	21366.8
522.733	21348.37
522.94	21196.82
523.147	21837.83
523.354	21837.83
523.561	21409.81
523.768	21575.69
523.975	22329.34
524.183	22028.29
524.39	21995.53
524.597	21784.58
524.804	22118.4
525.011	22280.19
525.218	21633.04
525.425	22200.32
525.632	22310.91
525.838	22386.69
526.045	22192.13
526.252	22454.27
526.459	23748.59
526.666	23506.93
526.873	22499.33
527.08	22681.6
527.287	23248.88
527.494	22976.5
527.701	22622.2
527.907	22642.68
528.114	22878.2
528.321	23203.83
528.528	22706.17
528.735	23173.11
528.941	23193.59
529.148	23042.04
529.355	22859.77
529.562	22722.55
529.768	23584.75
529.975	23146.48
530.182	23263.22
530.388	23142.39
530.595	23865.32
530.802	23343.09
531.008	23947.24
531.215	23396.34
531.422	24418.27
531.628	24690.65
531.835	23773.16
532.042	23834.6
532.248	24268.77
532.455	24180.71
532.661	23896.04
532.868	23850.99
533.074	24426.46
533.281	24649.69
533.487	24158.18
533.694	24106.98
533.9	24715.23
534.107	24557.53
534.313	24109.03
534.52	24487.9
534.726	25038.81
534.933	25341.91
535.139	24602.59
535.345	24614.88
535.552	24795.1
535.758	25300.95
535.965	25102.29
536.171	25128.92
536.377	25423.83
536.584	25573.33
536.79	24954.84
536.996	25513.94
537.203	25456.59
537.409	25745.36
537.615	25212.88
537.821	25300.95
538.028	26081.22
538.234	26019.78
538.44	25530.32
538.646	25407.44
538.853	25896.91
539.059	25784.27
539.265	26056.65
539.471	25612.24
539.677	25927.63
539.883	26093.51
540.09	25884.62
540.296	26400.71
540.502	26089.42
540.708	26095.56
540.914	26320.84
541.12	26255.3
541.326	27031.48
541.532	26984.38
541.738	26802.11
541.944	26468.29
542.15	26773.44
542.356	26955.71
542.562	26337.22
542.768	26599.36
542.974	27537.33
543.18	27740.08
543.386	27144.12
543.592	27056.06
543.798	27606.96
544.004	27783.09
544.21	27412.4
544.415	27041.72
544.621	27512.75
544.827	27568.05
545.033	27486.13
545.239	27715.5
545.445	27725.74
545.651	27850.67
545.856	27709.36
546.062	27844.52
546.268	27869.1
546.474	28010.41
546.679	27819.95
546.885	27494.32
547.091	27885.48
547.297	28585.89
547.502	27787.18
547.708	27578.29
547.914	27752.37
548.119	28589.99
548.325	27836.33
548.531	27717.55
548.736	28463.01
548.942	27981.74
549.147	28022.7
549.353	28497.83
549.559	28833.69
549.764	27961.26
549.97	27971.5
550.175	28313.51
550.381	28723.1
550.586	28131.24
550.792	28618.66
550.997	28360.61
551.203	28913.56
551.408	28972.96
551.614	28215.21
551.819	28835.74
552.025	29503.38
552.23	29751.18
552.435	28839.84
552.641	29382.55
552.846	29345.69
553.052	29949.84
553.257	29507.48
553.462	29530
553.668	29421.46
553.873	29798.29
554.078	29441.94
554.283	29290.39
554.489	29902.73
554.694	29888.4
554.899	29661.07
555.105	29894.54
555.31	30197.64
555.515	30193.54
555.72	30060.43
555.925	29708.18
556.131	30408.58
556.336	30300.04
556.541	30275.46
556.746	29886.35
556.951	30695.3
557.156	30932.86
557.361	30244.74
557.567	30594.95
557.772	31131.51
557.977	30844.8
558.182	30246.79
558.387	30474.12
558.592	30277.51
558.797	30953.34
559.002	30717.82
559.207	30877.57
559.412	30906.24
559.617	31178.62
559.822	30812.03
560.027	30484.36
560.232	31332.22
560.437	31113.08
560.642	30592.9
560.847	31055.74
561.051	31305.59
561.256	30957.44
561.461	30969.72
561.666	30640
561.871	31326.07
562.076	31575.92
562.281	31231.86
562.485	31027.07
562.69	31561.59
562.895	31487.86
563.1	31321.98
563.305	31094.65
563.509	31868.78
563.714	31836.02
563.919	31311.74
564.123	31321.98
564.328	31473.53
564.533	32038.76
564.737	31299.45
564.942	30979.96
565.147	32069.48
565.351	32515.94
565.556	31342.46
565.761	31809.39
565.965	31682.42
566.17	31778.67
566.374	31485.81
566.579	31706.99
566.784	31844.21
566.988	32116.59
567.193	31772.53
567.397	31946.61
567.602	32241.51
567.806	32388.97
568.011	32288.62
568.215	32161.64
568.42	32474.98
568.624	32421.73
568.828	31850.35
569.033	32249.71
569.237	32868.19
569.442	32886.62
569.646	32124.78
569.85	32821.09
570.055	32903.01
570.259	32982.88
570.463	32804.7
570.668	32769.89
570.872	32796.51
571.076	33118.04
571.281	32833.38
571.485	33015.65
571.689	32831.33
571.893	33308.51
572.098	32917.34
572.302	32976.73
572.506	32790.37
572.71	33335.13
572.914	32982.88
573.119	33531.73
573.323	33501.01
573.527	33924.94
573.731	33652.56
573.935	33333.08
574.139	33853.26
574.343	33607.51
574.547	33328.98
574.751	33591.12
574.955	34029.39
575.159	33924.94
575.364	33664.85
575.568	33314.65
575.772	33845.07
575.976	34416.46
576.18	33548.12
576.383	33896.27
576.587	34543.43
576.791	34633.54
576.995	33818.45
577.199	34107.21
577.403	34246.47
577.607	34981.7
577.811	34271.05
578.015	34131.79
578.219	34660.16
578.422	34621.25
578.626	34471.75
578.83	34676.55
579.034	34643.78
579.238	34406.22
579.442	34715.46
579.645	35028.8
579.849	34715.46
580.053	35295.03
580.257	34561.86
580.46	34563.91
580.664	34920.26
580.868	34957.12
581.071	35020.61
581.275	34596.68
581.479	34488.14
581.682	35039.04
581.886	34922.3
582.09	35020.61
582.293	35491.64
582.497	35413.82
582.7	35209.02
582.904	35508.02
583.107	35440.44
583.311	35317.56
583.515	35661.62
583.718	35376.95
583.922	35985.2
584.125	35974.96
584.329	35254.08
584.532	35694.39
584.735	36300.59
584.939	35528.5
585.142	35170.11
585.346	35725.11
585.549	35698.48
585.753	35964.72
585.956	35901.23
586.159	35809.07
586.363	36460.33
586.566	36085.55
586.769	35727.16
586.973	35921.71
587.176	36908.83
587.379	36880.16
587.582	36362.03
587.786	36392.75
587.989	36357.93
588.192	37134.11
588.395	36425.51
588.599	36929.31
588.802	37021.47
589.005	36452.14
589.208	36167.47
589.411	36486.95
589.615	36966.18
589.818	37472.03
590.021	37021.47
590.224	37150.49
590.427	37177.12
590.63	37531.42
590.833	36837.16
591.036	37201.69
591.239	37445.4
591.442	37132.06
591.645	37478.17
591.848	37177.12
592.051	37863.19
592.254	37816.08
592.457	37594.9
592.66	37433.11
592.863	37535.51
593.066	37711.64
593.269	37627.67
593.472	37621.53
593.675	37795.6
593.878	37945.11
594.081	37732.12
594.284	37744.41
594.486	38383.37
594.689	38199.05
594.892	37828.37
595.095	37973.78
595.298	38594.31
595.5	37955.35
595.703	38631.18
595.906	38268.69
596.109	39010.05
596.311	38969.09
596.514	38151.95
596.717	38487.82
596.92	39266.05
597.122	38629.13
597.325	38100.75
597.528	38420.24
597.73	39382.78
597.933	38739.72
598.136	38518.54
598.338	38190.86
598.541	39264
598.743	39341.82
598.946	38541.07
599.148	38878.98
599.351	39378.68
599.554	39345.92
599.756	39018.24
599.959	39122.69
600.161	39509.75
600.363	39548.67
600.566	39452.41
600.768	38553.35
600.971	39671.54
601.173	39362.3
601.376	38692.61
601.578	39089.92
601.78	39536.38
601.983	40402.67
602.185	39044.87
602.388	39859.96
602.59	39753.46
602.792	39550.71
602.995	39008
603.197	39700.22
603.399	39986.93
603.601	39792.37
603.804	39708.41
604.006	39405.31
604.208	39692.02
604.41	39530.23
604.613	39603.96
604.815	39812.85
605.017	40763.11
605.219	39706.36
605.421	40144.62
605.623	39720.7
605.826	40476.4
606.028	40226.54
606.23	39845.62
606.432	39671.54
606.634	40632.04
606.836	40675.05
607.038	39745.27
607.24	40251.12
607.442	40513.26
607.644	40277.74
607.846	40314.61
608.048	40189.68
608.25	40277.74
608.452	40308.46
608.654	40201.97
608.856	39941.88
609.058	40455.92
609.26	40267.5
609.462	40374
609.664	40503.02
609.866	40500.97
610.067	40292.08
610.269	40425.2
610.471	40142.58
610.673	40634.09
610.875	40478.44
611.077	39831.29
611.278	39952.12
611.48	40730.34
611.682	40621.8
611.884	40824.55
612.085	40376.05
612.287	40603.37
612.489	40675.05
612.69	39954.16
612.892	40466.16
613.094	41285.34
613.295	40607.47
613.497	40621.8
613.699	40572.65
613.9	41000.68
614.102	41219.81
614.304	40484.59
614.505	40337.13
614.707	40599.27
614.908	40453.87
615.11	40324.85
615.311	40716.01
615.513	40632.04
615.714	41164.51
615.916	40230.64
616.117	40677.1
616.319	40779.5
616.52	40492.78
616.722	40472.3
616.923	40910.57
617.124	40521.45
617.326	40681.19
617.527	40791.78
617.729	40716.01
617.93	41105.12
618.131	41211.62
618.333	40177.39
618.534	40425.2
618.735	40885.99
618.937	41250.53
619.138	40752.87
619.339	40849.13
619.54	41178.85
619.742	40785.64
619.943	41510.62
620.144	40748.78
620.345	41449.18
620.546	41348.83
620.748	41049.83
620.949	40771.3
621.15	41651.93
621.351	41051.87
621.552	40838.89
621.753	40830.69
621.954	40982.24
622.155	41275.1
622.356	40713.96
622.558	41307.87
622.759	41209.57
622.96	41610.97
623.161	40906.47
623.362	40437.48
623.563	41281.25
623.764	40818.41
623.965	41479.9
624.166	41389.79
624.366	41264.86
624.567	41066.21
624.768	41109.22
624.969	40791.78
625.17	41053.92
625.371	41539.29
625.572	41242.34
625.773	40949.48
625.973	41957.08
626.174	41772.76
626.375	41037.54
626.576	41983.7
626.777	42043.09
626.977	41705.18
627.178	41658.07
627.379	41412.32
627.58	41289.44
627.78	41443.04
627.981	41082.59
628.182	41537.24
628.382	42032.85
628.583	41828.06
628.784	41690.84
628.984	41324.25
629.185	42020.56
629.386	41918.17
629.586	42190.55
629.787	41916.12
629.987	42086.1
630.188	42043.09
630.388	42157.78
630.589	41488.09
630.79	42809.03
630.99	42030.8
631.191	42067.67
631.391	41909.97
631.591	42096.34
631.792	42106.58
631.992	42321.62
632.193	42028.76
632.393	42581.71
632.594	42053.33
632.794	41787.1
632.994	41668.31
633.195	41670.36
633.395	42198.74
633.595	41778.9
633.796	42684.11
633.996	42321.62
634.196	42327.76
634.397	42294.99
634.597	41764.57
634.797	42641.1
634.997	42616.52
635.198	42241.74
635.398	42165.97
635.598	42438.35
635.798	42680.01
635.998	42632.91
636.199	42125.01
636.399	42700.49
636.599	41914.07
636.799	42497.74
636.999	41746.14
637.199	42741.45
637.399	42622.67
637.599	42254.03
637.799	42217.17
637.999	42182.35
638.199	43529.92
638.399	42313.42
638.599	42661.58
638.799	42823.37
638.999	43554.49
639.199	43095.75
639.399	42520.27
639.599	43407.04
639.799	42862.28
639.999	42634.95
640.199	42475.21
640.399	42604.24
640.599	41789.14
640.799	43075.27
640.998	42565.32
641.198	43222.72
641.398	42870.47
641.598	43126.47
641.798	43087.56
641.997	43579.07
642.197	42669.77
642.397	42985.16
642.597	42733.26
642.796	43433.66
642.996	43560.64
643.196	42948.29
643.395	42708.68
643.595	43491.01
643.795	42426.06
643.994	42673.87
644.194	42770.12
644.394	43634.36
644.593	43294.4
644.793	43032.26
644.992	43626.17
645.192	43671.23
645.392	43091.65
645.591	43730.62
645.791	43151.04
645.99	43540.16
646.19	43425.47
646.389	43863.74
646.589	43226.82
646.788	43802.3
646.987	43499.2
647.187	43724.47
647.386	43663.04
647.586	43804.34
647.785	43974.33
647.984	43402.94
648.184	43845.3
648.383	43536.06
648.582	43570.88
648.782	43562.68
648.981	43265.73
649.18	43318.98
649.38	44195.51
649.579	43777.72
649.778	43753.15
649.977	44340.91
650.177	44058.29
650.376	43364.03
650.575	43472.57
650.774	44142.26
650.973	43564.73
651.173	43302.59
651.372	43593.4
651.571	43929.27
651.77	43910.84
651.969	43796.15
652.168	44066.48
652.367	43769.53
652.566	44277.43
652.765	43595.45
652.964	44080.82
653.163	44558
653.362	44459.69
653.561	43959.99
653.76	43931.32
653.959	44220.08
654.158	44254.9
654.357	43777.72
654.556	44078.77
654.755	44299.95
654.954	44572.33
655.153	43902.65
655.352	43937.46
655.551	44355.25
655.749	44555.95
655.948	43605.69
656.147	44258.99
656.346	44703.4
656.545	44035.77
656.743	43867.83
656.942	44205.75
657.141	44672.68
657.34	44345.01
657.538	44273.33
657.737	44416.69
657.936	44793.51
658.135	44576.43
658.333	44258.99
658.532	44345.01
658.731	44818.09
658.929	44848.81
659.128	44324.53
659.326	44027.57
659.525	44820.14
659.724	44400.3
659.922	43937.46
660.121	43890.36
660.319	44181.17
660.518	43966.13
660.716	44512.94
660.915	44545.71
661.113	44938.92
661.312	44463.79
661.51	44682.92
661.709	44523.18
661.907	44502.7
662.105	44781.23
662.304	44787.37
662.502	44531.37
662.701	44977.83
662.899	44388.02
663.097	44830.38
663.296	44246.71
663.494	44605.1
663.692	44859.05
663.891	44187.32
664.089	44203.7
664.287	44957.35
664.485	44760.75
664.684	44072.63
664.882	44580.53
665.08	44371.63
665.278	45043.37
665.476	44261.04
665.675	44787.37
665.873	45373.09
666.071	44449.46
666.269	44865.19
666.467	44490.41
666.665	44613.29
666.863	44338.86
667.061	44742.31
667.259	44334.77
667.457	44674.73
667.655	44635.82
667.853	44238.51
668.051	44547.76
668.249	44476.08
668.447	44652.2
668.645	44463.79
668.843	44926.63
669.041	45035.17
669.239	44514.99
669.437	44760.75
669.635	44635.82
669.833	44621.48
670.031	44701.36
670.229	44488.37
670.426	44306.1
670.624	44494.51
670.822	44410.54
671.02	44164.79
671.218	44875.43
671.415	43962.04
671.613	44412.59
671.811	44232.37
672.009	44322.48
672.206	45035.17
672.404	44457.65
672.602	44506.8
672.799	44388.02
672.997	44787.37
673.195	44805.8
673.392	44383.92
673.59	44428.98
673.788	44175.03
673.985	43710.14
674.183	44105.4
674.38	44310.19
674.578	44426.93
674.775	44162.74
674.973	43439.81
675.17	44437.17
675.368	44433.07
675.565	44605.1
675.763	44246.71
675.96	44076.72
676.158	44283.57
676.355	44086.96
676.553	44240.56
676.75	43302.59
676.947	44164.79
677.145	43978.42
677.342	43802.3
677.539	43808.44
677.737	44304.05
677.934	44908.2
678.131	44109.49
678.329	43966.13
678.526	44445.36
678.723	44318.39
678.92	44086.96
679.118	43828.92
679.315	43728.57
679.512	44271.28
679.709	43708.09
679.906	44164.79
680.104	44342.96
680.301	43884.22
680.498	43257.54
680.695	43308.74
680.892	43880.12
681.089	43505.34
681.286	44097.2
681.483	43200.19
681.68	43663.04
681.877	44187.32
682.075	43130.56
682.272	43656.89
682.469	43454.14
682.665	43697.85
682.862	42999.49
683.059	43128.52
683.256	43714.23
683.453	43642.56
683.65	43218.63
683.847	43568.83
684.044	43423.42
684.241	43427.52
684.438	44177.08
684.635	43175.62
684.831	44148.4
685.028	43880.12
685.225	43034.31
685.422	43323.07
685.619	43208.39
685.815	43458.24
686.012	43265.73
686.209	42829.51
686.405	43003.59
686.602	43439.81
686.799	42616.52
686.996	43003.59
687.192	42540.75
687.389	43425.47
687.586	42798.79
687.782	43093.7
687.979	43816.63
688.175	42962.63
688.372	42778.31
688.568	42987.21
688.765	42817.22
688.962	43036.36
689.158	42575.56
689.355	42538.7
689.551	42782.41
689.748	42815.18
689.944	42880.71
690.14	42473.17
690.337	42743.5
690.533	42692.3
690.73	42409.68
690.926	43024.07
691.123	42811.08
691.319	42559.18
691.515	42084.05
691.712	42723.02
691.908	42718.92
692.104	42686.15
692.301	42585.8
692.497	42389.2
692.693	42727.11
692.889	42933.96
693.086	42598.09
693.282	42366.67
693.478	42249.94
693.674	42931.91
693.87	42034.9
694.067	42362.57
694.263	42231.5
694.459	42544.84
694.655	42397.39
694.851	42143.44
695.047	42391.25
695.243	42639.05
695.439	41924.31
695.635	41942.74
695.831	42245.84
696.027	41926.36
696.224	41971.41
696.42	42211.03
696.615	42555.08
696.811	42335.95
697.007	41496.28
697.203	42114.77
697.399	42120.91
697.595	42051.28
697.791	41823.96
697.987	41633.5
698.183	41983.7
698.379	41332.45
698.575	41952.98
698.77	42008.28
698.966	41729.75
699.162	41940.69
699.358	41905.88
699.554	41469.66
699.749	41926.36
699.945	42092.24
700.141	41199.33
700.337	41645.79
700.532	41098.98
700.728	41656.03
700.924	41588.44
701.119	41475.8
701.315	41725.66
701.511	41459.42
701.706	41527
701.902	41103.07
702.097	41389.79
702.293	42362.57
702.489	41271.01
702.684	41232.1
702.88	41164.51
703.075	41129.7
703.271	40808.17
703.466	41238.24
703.662	41379.55
703.857	41545.44
704.053	41393.89
704.248	41238.24
704.443	41361.12
704.639	41641.69
704.834	40994.53
705.03	41242.34
705.225	41328.35
705.42	41514.72
705.616	41111.27
705.811	40627.95
706.006	40894.18
706.202	40869.61
706.397	40847.08
706.592	40593.13
706.787	40947.43
706.983	40906.47
707.178	41545.44
707.373	40560.36
707.568	40982.24
707.763	41232.1
707.959	41131.75
708.154	40976.1
708.349	40736.49
708.544	40853.22
708.739	40679.14
708.934	40439.53
709.129	40984.29
709.324	40941.28
709.519	40847.08
709.714	40916.71
709.909	41377.5
710.104	40386.29
710.299	40894.18
710.494	40521.45
710.689	40951.52
710.884	40390.38
711.079	40826.6
711.274	40419.05
711.469	41160.42
711.664	40961.76
711.859	40423.15
712.054	40666.86
712.249	40478.44
712.443	40980.2
712.638	40124.15
712.833	40580.84
713.028	40470.25
713.223	40838.89
713.417	40627.95
713.612	40400.62
713.807	40605.42
714.002	40570.6
714.196	40550.12
714.391	39892.72
714.586	40546.03
714.78	40423.15
714.975	40214.26
715.17	39610.1
715.364	40472.3
715.559	40611.56
715.754	39554.81
715.948	39784.18
716.143	40435.44
716.337	39763.7
716.532	40005.36
716.726	39931.64
716.921	40212.21
717.115	40519.4
717.31	39689.98
717.504	40425.2
717.699	40034.03
717.893	39821.05
718.088	39397.12
718.282	39524.09
718.476	39689.98
718.671	39675.64
718.865	40130.29
719.059	39468.8
719.254	39581.43
719.448	39962.36
719.642	40838.89
719.837	38631.18
720.031	39325.44
720.225	39814.9
720.419	39188.22
720.614	39411.45
720.808	39812.85
721.002	39487.23
721.196	39417.6
721.39	39030.53
721.585	39579.39
721.779	38909.7
721.973	39044.87
722.167	38553.35
722.361	39378.68
722.555	39759.61
722.749	39073.54
722.943	38784.77
723.137	38985.47
723.331	39124.74
723.525	39358.2
723.719	38731.53
723.913	39116.54
724.107	39247.61
724.301	38459.15
724.495	38412.04
724.689	39182.08
724.883	38985.47
725.077	38858.5
725.271	39186.18
725.465	39399.16
725.659	38952.71
725.853	38584.07
726.046	38799.11
726.24	38772.49
726.434	38864.64
726.628	38614.79
726.822	38592.26
727.015	39048.96
727.209	39061.25
727.403	38559.5
727.596	38639.37
727.79	38809.35
727.984	39100.16
728.177	38801.16
728.371	39003.91
728.565	38899.46
728.758	38428.43
728.952	38518.54
729.146	38289.17
729.339	38997.76
729.533	38901.51
729.726	38426.38
729.92	38641.42
730.113	39171.84
730.307	38823.68
730.5	38522.63
730.694	38373.13
730.887	38455.05
731.081	39048.96
731.274	38733.57
731.468	38307.6
731.661	38729.48
731.854	38526.73
732.048	38682.38
732.241	38371.08
732.435	38612.74
732.628	38313.74
732.821	38700.81
733.014	38510.35
733.208	38547.21
733.401	38825.73
733.594	38158.1
733.788	37920.53
733.981	38784.77
734.174	38768.39
734.367	38166.29
734.56	38577.93
734.754	38844.16
734.947	38932.23
735.14	38321.93
735.333	38784.77
735.526	38874.88
735.719	38301.45
735.912	38309.64
736.105	38307.6
736.298	38455.05
736.491	38264.59
736.684	38119.18
736.877	37916.43
737.07	38256.4
737.263	38463.24
737.456	37879.57
737.649	38039.31
737.842	38100.75
738.035	38313.74
738.228	37789.46
738.421	38108.94
738.614	38586.12
738.807	38592.26
739	37748.5
739.192	37535.51
739.385	37791.51
739.578	37984.02
739.771	38039.31
739.964	37177.12
740.156	38453
740.349	37723.93
740.542	38137.62
740.735	37494.55
740.927	37805.84
741.12	37386.01
741.313	37685.01
741.505	38166.29
741.698	37818.13
741.891	37826.32
742.083	38053.65
742.276	37795.6
742.468	38143.76
742.661	37832.47
742.854	37588.76
743.046	37267.23
743.239	38088.46
743.431	37631.77
743.624	37414.68
743.816	37340.96
744.009	37474.07
744.201	37351.2
744.393	37725.97
744.586	36898.59
744.778	37646.1
744.971	37398.3
745.163	37175.07
745.355	37621.53
745.548	37183.26
745.74	37433.11
745.932	37435.16
746.125	37400.35
746.317	38043.41
746.509	37392.15
746.702	37232.41
746.894	37422.87
747.086	37455.64
747.278	37584.66
747.471	36828.96
747.663	37519.13
747.855	37433.11
748.047	37611.29
748.239	37574.42
748.431	37101.34
748.623	37842.71
748.815	37728.02
749.008	37287.71
749.2	37033.76
749.392	37201.69
749.584	37084.96
749.776	37158.69
749.968	37070.62
750.16	38043.41
750.352	37297.95
750.544	36945.7
750.736	37052.19
750.928	37695.25
751.12	36943.65
751.311	36355.88
751.503	37250.84
751.695	37205.79
751.887	36859.68
752.079	36747.04
752.271	36562.73
752.463	38027.03
752.654	37281.56
752.846	36851.49
753.038	36583.21
753.23	36661.03
753.421	36781.86
753.613	36153.13
753.805	37056.29
753.997	37068.58
754.188	36970.27
754.38	36220.72
754.572	36462.38
754.763	37033.76
754.955	36292.4
755.146	36378.41
755.338	36482.86
755.53	36142.89
755.721	36073.26
755.913	35747.64
756.104	35835.7
756.296	36314.92
756.487	36620.07
756.679	36384.55
756.87	35835.7
757.062	35925.81
757.253	36081.45
757.445	35532.6
757.636	36376.36
757.827	35985.2
758.019	36902.69
758.21	35983.15
758.401	35630.9
758.593	36546.34
758.784	36198.19
758.975	35266.36
759.167	35204.92
759.358	35530.55
759.549	36052.78
759.74	35237.69
759.932	35462.97
760.123	35526.46
760.314	35553.08
760.505	35376.95
760.696	34950.98
760.888	35852.08
761.079	35065.66
761.27	34965.31
761.461	35051.33
761.652	35766.07
761.843	34891.58
762.034	34963.26
762.225	35145.53
762.416	35409.72
762.607	34701.12
762.798	34469.7
762.989	34635.59
763.18	35764.02
763.371	34643.78
763.562	34453.32
763.753	34283.34
763.944	35280.7
764.135	34793.28
764.326	34594.63
764.517	34473.8
764.708	34932.54
764.899	34830.15
765.089	34127.69
765.28	33953.62
765.471	34596.68
765.662	34588.49
765.853	33998.67
766.043	33656.66
766.234	34838.34
766.425	34340.68
766.615	34432.84
766.806	34242.38
766.997	34484.04
767.187	33857.36
767.378	33994.57
767.569	33447.77
767.759	34137.93
767.95	34156.36
768.141	34113.36
768.331	33556.31
768.522	33615.7
768.712	33943.38
768.903	33742.67
769.093	33541.97
769.284	33955.66
769.474	33738.58
769.665	32808.8
769.855	33242.97
770.046	33859.41
770.236	33488.73
770.426	33165.15
770.617	33021.79
770.807	33544.02
770.998	33716.05
771.188	32909.15
771.378	32843.62
771.569	33541.97
771.759	32986.97
771.949	32653.16
772.139	33060.7
772.33	32866.14
772.52	33482.58
772.71	32958.3
772.9	32620.39
773.09	33091.42
773.281	33390.42
773.471	32436.07
773.661	32673.63
773.851	32722.79
774.041	32558.95
774.231	32315.24
774.421	32407.4
774.611	32780.13
774.802	32886.62
774.992	32049
775.182	32325.48
775.372	32431.97
775.562	32517.99
775.752	32360.3
775.942	32212.84
776.131	32671.59
776.321	32425.83
776.511	32040.81
776.701	32147.31
776.891	32141.16
777.081	31883.12
777.271	31913.84
777.461	31786.86
777.651	31915.89
777.84	31928.17
778.03	31709.04
778.22	31426.42
778.41	32259.95
778.599	31946.61
778.789	31608.69
778.979	31610.74
779.169	31864.69
779.358	31846.26
779.548	31817.58
779.738	31108.99
779.927	31272.82
780.117	31465.33
780.307	30969.72
780.496	30912.38
780.686	31917.93
780.875	31747.95
781.065	31082.36
781.254	30967.68
781.444	31346.55
781.633	31348.6
781.823	30908.29
782.012	30799.74
782.202	30996.35
782.391	31057.79
782.581	30525.32
782.77	30762.88
782.96	31231.86
783.149	30691.2
783.338	30506.88
783.528	30336.9
783.717	31123.32
783.906	31137.66
784.096	30531.46
784.285	30719.87
784.474	30586.75
784.663	30345.09
784.853	30308.23
785.042	30234.5
785.231	30480.26
785.42	30977.92
785.61	30506.88
785.799	30386.05
785.988	30195.59
786.177	30465.92
786.366	30381.96
786.555	30472.07
786.744	30463.88
786.933	30277.51
787.122	29902.73
787.312	29656.98
787.501	30029.71
787.69	30369.67
787.879	29894.54
788.068	29573.01
788.257	29601.68
788.445	29622.16
788.634	29636.5
788.823	29579.15
789.012	30316.42
789.201	29929.36
789.39	29568.91
789.579	29433.75
789.768	29679.5
789.957	29476.76
790.145	29501.33
790.334	29075.35
790.523	29280.15
790.712	29517.71
790.9	29558.67
791.089	29288.34
791.278	29439.89
791.467	29269.91
791.655	29372.31
791.844	29538.19
792.033	29194.14
792.221	29022.11
792.41	28899.23
792.599	28753.82
792.787	29523.86
792.976	29343.64
793.164	28661.66
793.353	29187.99
793.541	29067.16
793.73	29304.73
793.918	29136.79
794.107	28716.96
794.295	28886.94
794.484	28764.06
794.672	28598.18
794.861	28223.4
795.049	28790.69
795.238	29239.19
795.426	28520.35
795.614	28368.8
795.803	28827.55
795.991	28630.94
796.179	28239.78
796.368	28508.07
796.556	28739.49
796.744	28082.09
796.932	28446.63
797.121	28084.14
797.309	28127.14
797.497	28796.83
797.685	28338.08
797.874	28538.79
798.062	28641.18
798.25	28499.87
798.438	28131.24
798.626	28143.53
798.814	28632.99
799.002	29048.73
799.19	28012.46
799.378	27996.07
799.566	28493.73
799.755	28620.7
799.943	28342.18
800.131	28047.27
800.318	28067.75
800.506	28198.82
800.694	28002.22
800.882	27748.27
801.07	28565.41
801.258	28225.45
801.446	28221.35
801.634	27609.01
801.822	28379.04
802.01	28329.89
802.197	27963.31
802.385	28067.75
802.573	28540.83
802.761	28311.46
802.949	28092.33
803.136	27797.42
803.324	28893.08
803.512	28546.98
803.699	28207.01
803.887	28123.05
804.075	28800.93
804.262	28182.44
804.45	28428.2
804.638	28454.82
804.825	28546.98
805.013	28202.92
805.201	28569.51
805.388	28049.32
805.576	28884.89
805.763	29083.55
805.951	28057.51
806.138	28374.95
806.326	29052.83
806.513	28465.06
806.701	28790.69
806.888	28280.74
807.075	29149.08
807.263	28788.64
807.45	28362.66
807.638	28495.78
807.825	29142.94
808.012	29065.11
808.2	28764.06
808.387	28802.97
808.574	28751.77
808.761	28872.6
808.949	28432.29
809.136	28688.29
809.323	28573.6
809.51	28600.22
809.698	28622.75
809.885	28469.15
810.072	28696.48
810.259	29218.71
810.446	28587.94
810.633	28829.6
810.82	29237.14
811.008	28936.09
811.195	29110.17
811.382	28696.48
811.569	28610.46
811.756	28788.64
811.943	29036.44
812.13	28800.93
812.317	28522.4
812.504	28796.83
812.691	28825.5
812.878	29104.03
813.064	29339.54
813.251	29034.39
813.438	28598.18
813.625	28958.62
813.812	28657.57
813.999	28979.1
814.186	28841.89
814.372	28723.1
814.559	28886.94
814.746	29153.18
814.933	28360.61
815.12	28684.19
815.306	28647.33
815.493	28749.73
815.68	28655.52
815.866	28866.46
816.053	29040.54
816.24	29044.63
816.426	29058.97
816.613	28903.32
816.799	28925.85
816.986	29290.39
817.173	28759.97
817.359	28510.11
817.546	28467.11
817.732	28401.57
817.919	28477.35
818.105	28645.28
818.292	28651.42
818.478	28854.17
818.665	28780.45
818.851	28569.51
819.037	29224.86
819.224	28815.26
819.41	28413.86
819.597	28219.3
819.783	28923.8
819.969	28796.83
820.156	28602.27
820.342	28299.17
820.528	28987.29
820.714	28319.65
820.901	28620.7
821.087	28151.72
821.273	29052.83
821.459	28413.86
821.646	27971.5
821.832	27994.03
822.018	28481.44
822.204	28231.59
822.39	28084.14
822.576	27684.78
822.762	28303.27
822.948	28065.71
823.134	27760.56
823.32	27819.95
823.507	27926.44
823.693	28370.85
823.879	28198.82
824.065	27858.86
824.25	28385.19
824.436	27928.49
824.622	27793.33
824.808	27805.61
824.994	27600.82
825.18	27742.13
825.366	27498.42
825.552	27762.61
825.738	27824.04
825.923	27926.44
826.109	27865
826.295	27484.08
826.481	27674.54
826.667	27551.66
826.852	27508.66
827.038	27566
827.224	27918.25
827.409	28110.76
827.595	27152.31
827.781	27281.33
827.966	28030.89
828.152	27848.62
828.338	27457.46
828.523	26783.68
828.709	27269.05
828.894	27764.65
829.08	27121.59
829.266	26931.13
829.451	27498.42
829.637	27455.41
829.822	27273.14
830.008	26836.92
830.193	27471.79
830.378	27512.75
830.564	27293.62
830.749	27031.48
830.935	26931.13
831.12	27027.38
831.305	26478.53
831.491	26804.16
831.676	26566.59
831.861	26822.59
832.047	26611.65
832.232	26292.16
832.417	27011
832.602	26836.92
832.788	26679.23
832.973	26820.54
833.158	26947.51
833.343	26767.29
833.528	26437.57
833.714	26597.31
833.899	26709.95
834.084	26867.64
834.269	26699.71
834.454	25954.25
834.639	26611.65
834.824	26437.57
835.009	26427.33
835.194	26580.93
835.379	26531.78
835.564	26531.78
835.749	26064.84
835.934	26200.01
836.119	26478.53
836.304	26288.07
836.489	26169.29
836.674	26085.32
836.859	25984.97
837.044	26443.71
837.228	25771.98
837.413	25976.78
837.598	26365.89
837.783	26200.01
837.968	26056.65
838.152	25733.07
838.337	25610.19
838.522	25872.33
838.707	26103.75
838.891	25583.57
839.076	25954.25
839.261	26027.98
839.445	25253.84
839.63	25829.32
839.815	25833.42
839.999	25591.76
840.184	25630.67
840.368	25452.5
840.553	25843.66
840.737	25749.45
840.922	25137.11
841.106	25014.23
841.291	25262.04
841.475	25329.62
841.66	25169.88
841.844	25194.45
842.029	26322.88
842.213	25182.17
842.397	24993.75
842.582	24885.21
842.766	25714.64
842.951	25511.89
843.135	25030.62
843.319	24809.43
843.504	24920.03
843.688	25530.32
843.872	24387.55
844.056	25006.04
844.241	25063.38
844.425	24846.3
844.609	24801.24
844.793	24625.12
844.977	25255.89
845.161	24604.64
845.346	24561.63
845.53	24252.39
845.714	24643.55
845.898	25018.33
846.082	24258.53
846.266	24475.62
846.45	24469.47
846.634	24924.12
846.818	24297.44
847.002	24418.27
847.186	24737.76
847.37	23922.66
847.554	24115.17
847.738	24135.65
847.922	24416.22
848.106	24661.98
848.29	23795.69
848.473	24330.21
848.657	24129.51
848.841	24338.4
849.025	23640.04
849.209	23748.59
849.392	23918.57
849.576	24258.53
849.76	23416.82
849.944	23842.79
850.127	24457.18
850.311	23453.68
850.495	23887.85
850.678	23169.01
850.862	24469.47
851.046	24149.99
851.229	23807.98
851.413	23121.91
851.596	23738.35
851.78	23726.06
851.964	23629.8
852.147	23164.92
852.331	24211.43
852.514	23623.66
852.698	23484.4
852.881	23320.56
853.065	23443.44
853.248	23519.21
853.431	23541.74
853.615	23212.02
853.798	23830.51
853.982	23392.24
854.165	23240.69
854.348	22931.45
854.532	23074.81
854.715	23023.61
854.898	23136.24
855.081	23033.85
855.265	23412.72
855.448	23398.38
855.631	22802.43
855.814	22876.15
855.997	23037.94
856.181	23011.32
856.364	23021.56
856.547	22560.77
856.73	23076.85
856.913	22923.26
857.096	22704.12
857.279	22685.69
857.462	22704.12
857.645	23140.34
857.828	22595.58
858.011	22759.42
858.194	22657.02
858.377	22566.91
858.56	22204.42
858.743	22523.9
858.926	22347.78
859.109	22595.58
859.292	22257.67
859.475	22306.82
859.658	22640.64
859.841	22810.62
860.023	21854.22
860.206	21964.81
860.389	22540.29
860.572	22423.55
860.755	21856.26
860.937	22085.64
861.12	22054.92
861.303	22226.95
861.486	21829.64
861.668	21962.76
861.851	22122.5
862.034	21932.04
862.216	21665.8
862.399	21219.35
862.581	21970.95
862.764	22147.08
862.947	21542.92
863.129	21389.33
863.312	21172.24
863.494	21944.33
863.677	21770.25
863.859	21788.68
864.042	21604.36
864.224	21835.78
864.406	21553.16
864.589	21035.03
864.771	21221.39
864.954	21063.7
865.136	20969.49
865.318	20748.31
865.501	20901.91
865.683	20795.42
865.865	21067.8
866.048	20838.42
866.23	21475.34
866.412	20910.1
866.594	20566.04
866.777	21237.78
866.959	21364.75
867.141	20795.42
867.323	21041.17
867.505	21035.03
867.687	20860.95
867.869	21121.04
868.052	20660.25
868.234	20596.76
868.416	20916.25
868.598	20946.97
868.78	20508.7
868.962	20529.18
869.144	21307.41
869.326	21145.62
869.508	20523.04
869.69	20439.07
869.872	20572.19
870.054	21059.6
870.236	20283.42
870.417	20465.69
870.599	20543.52
870.781	20967.45
870.963	20508.7
871.145	20334.62
871.327	20512.8
871.508	21028.88
871.69	20326.43
871.872	20674.59
872.054	20856.86
872.235	20619.29
872.417	20422.69
872.599	19939.37
872.78	20955.16
872.962	20545.56
873.144	20359.2
873.325	20045.86
873.507	21030.93
873.689	20482.08
873.87	20162.59
874.052	20480.03
874.233	20295.71
874.415	20674.59
874.596	20463.65
874.778	20287.52
874.959	20551.71
875.141	20580.38
875.322	20242.46
875.503	20023.33
875.685	20621.34
875.866	20133.92
876.048	20271.14
876.229	19918.89
876.41	20095.01
876.592	20682.78
876.773	20551.71
876.954	20156.45
877.136	20797.46
877.317	20348.96
877.498	20334.62
877.679	20385.82
877.86	20725.79
878.042	20733.98
878.223	20199.46
878.404	20701.21
878.585	20654.11
878.766	20924.44
878.947	20822.04
879.128	20660.25
879.309	20985.88
879.49	21162
879.672	20639.77
879.853	20404.25
880.034	20387.87
880.215	20951.06
880.396	20711.45
880.576	20504.6
880.757	20707.35
880.938	21205.01
881.119	20817.94
881.3	20789.27
881.481	20871.19
881.662	21846.02
881.843	20776.98
882.023	20611.1
882.204	20750.36
882.385	21035.03
882.566	20662.3
882.747	21110.8
882.927	21315.6
883.108	21096.47
883.289	20938.77
883.469	21331.98
883.65	21295.12
883.831	21198.87
884.011	21424.14
884.192	21186.58
884.373	21657.61
884.553	21215.25
884.734	21202.96
884.914	21526.54
885.095	21909.51
885.275	21657.61
885.456	21714.95
885.636	21350.42
885.817	21524.49
885.997	21751.82
886.178	21288.98
886.358	21737.48
886.538	21790.73
886.719	22556.67
886.899	21436.43
887.08	21712.91
887.26	21751.82
887.44	21516.3
887.621	21524.49
887.801	21639.18
887.981	22638.59
888.161	21997.57
888.342	21467.15
888.522	21698.57
888.702	22005.77
888.882	22112.26
889.062	21616.65
889.242	21399.57
889.423	22132.74
889.603	22083.59
889.783	21901.32
889.963	21518.35
890.143	21962.76
890.323	21905.42
890.503	21647.37
890.683	21893.13
890.863	21831.69
891.043	22095.88
891.223	21559.31
891.403	22093.83
891.583	21807.11
891.763	21536.78
891.943	21637.13
892.122	21766.15
892.302	21913.61
892.482	21794.82
892.662	21704.71
892.842	21585.93
893.022	21979.14
893.201	21393.42
893.381	21776.39
893.561	21719.05
893.741	21729.29
893.92	21973
894.1	21798.92
894.28	21598.22
894.459	21747.72
894.639	22235.14
894.819	21514.25
894.998	21899.27
895.178	21604.36
895.357	21944.33
895.537	21319.7
895.716	21590.03
895.896	21755.91
896.075	21934.09
896.255	21524.49
896.434	21053.46
896.614	21938.18
896.793	21604.36
896.973	21510.16
897.152	21473.29
897.331	21606.41
897.511	21522.44
897.69	20789.27
897.87	20934.68
898.049	21547.02
898.228	21356.56
898.407	21100.56
898.587	21184.53
898.766	21096.47
898.945	21129.23
899.124	20830.23
899.304	21063.7
899.483	20887.57
899.662	21321.74
899.841	20832.28
900.02	20744.22
900.199	21301.26
900.378	21061.65
900.557	20375.58
900.737	20549.66
900.916	20953.11
901.095	20742.17
901.274	20672.54
901.453	19953.7
901.632	20289.57
901.811	20256.8
901.989	20224.03
902.168	19914.79
902.347	20416.54
902.526	19787.82
902.705	19765.29
902.884	20070.44
903.063	20434.97
903.242	20318.24
903.42	19458.09
903.599	19666.99
903.778	19955.75
903.957	19779.62
904.135	19439.66
904.314	19406.89
904.493	19476.52
904.672	19472.43
904.85	18798.65
905.029	19243.06
905.207	19503.15
905.386	20099.11
905.565	18737.21
905.743	18780.21
905.922	18735.16
906.1	19089.46
906.279	18319.42
906.457	18305.09
906.636	18653.24
906.814	18413.63
906.993	17848.39
907.171	18206.78
907.35	18659.38
907.528	18397.24
907.707	18217.02
907.885	17881.16
908.063	18380.86
908.242	18010.18
908.42	17860.68
908.598	17391.69
908.777	18102.34
908.955	17659.98
909.133	17668.17
909.311	17479.75
909.49	17666.12
909.668	17887.3
909.846	17739.85
910.024	17477.71
910.202	18106.43
910.38	17958.98
910.559	17487.95
910.737	17551.43
910.915	18067.52
911.093	18305.09
911.271	18208.83
911.449	18083.91
911.627	18505.79
911.805	18657.34
911.983	18067.52
912.161	17987.65
912.339	18511.93
912.517	18524.22
912.695	18503.74
912.872	18165.82
913.05	18337.85
913.228	18409.53
913.406	18421.82
913.584	18331.71
913.762	18599.99
913.939	18468.92
914.117	18403.39
914.295	18137.15
914.473	18847.8
914.65	18890.81
914.828	18090.05
915.006	18272.32
915.184	18296.89
915.361	18739.26
915.539	18513.98
915.716	18479.16
915.894	18651.19
916.072	18810.93
916.249	18346.05
916.427	18268.22
916.604	18526.27
916.782	18591.8
916.959	18147.39
917.137	17907.78
917.314	18395.2
917.492	18368.57
917.669	18212.93
917.847	17924.16
918.024	18102.34
918.201	17821.77
918.379	17995.84
918.556	17588.3
918.733	18411.58
918.911	17707.08
919.088	17662.02
919.265	17653.83
919.442	18040.9
919.62	17616.97
919.797	17434.7
919.974	17748.04
920.151	17774.66
920.328	17530.95
920.506	17729.61
920.683	17870.92
920.86	17268.81
921.037	17453.13
921.214	17375.31
921.391	17393.74
921.568	17819.72
921.745	17268.81
921.922	17358.92
922.099	17438.8
922.276	17707.08
922.453	17651.78
922.63	17406.03
922.807	17322.06
922.984	17209.42
923.161	17119.31
923.338	16988.24
923.514	17111.12
923.691	17242.19
923.868	17526.86
924.045	16930.9
924.222	16822.36
924.399	17274.96
924.575	17295.44
924.752	16709.72
924.929	16961.62
925.105	17000.53
925.282	16744.53
925.459	16519.26
925.635	16722.01
925.812	16531.55
925.989	16310.36
926.165	16580.7
926.342	16326.75
926.518	16119.9
926.695	16568.41
926.871	15886.43
927.048	16011.36
927.224	16615.51
927.401	16078.94
927.577	15960.16
927.754	15849.57
927.93	16556.12
928.107	16246.88
928.283	15777.89
928.459	16124
928.636	16091.23
928.812	16072.8
928.988	15743.08
929.165	15468.65
929.341	15599.72
929.517	15718.5
929.693	15773.8
929.87	15040.62
930.046	15601.77
930.222	15298.67
930.398	15263.85
930.574	15294.57
930.751	15595.62
930.927	14956.66
931.103	15073.39
931.279	15136.88
931.455	14917.75
931.631	15251.56
931.807	14483.58
931.983	14616.69
932.159	14469.24
932.335	14835.83
932.511	14633.08
932.687	14301.31
932.863	14692.47
933.039	14567.54
933.215	14348.41
933.391	13754.5
933.566	14262.4
933.742	14131.33
933.918	13625.48
934.094	13617.29
934.27	13908.1
934.445	13709.44
934.621	13582.47
934.797	13361.29
934.973	13551.75
935.148	13303.95
935.324	12875.92
935.5	12740.75
935.675	12961.94
935.851	12777.62
936.027	12460.18
936.202	12288.15
936.378	12527.77
936.553	12204.19
936.729	12142.75
936.904	11663.52
937.08	11587.75
937.255	11468.97
937.431	11112.62
937.606	11141.29
937.782	11090.09
937.957	10952.88
938.133	10758.32
938.308	10348.73
938.483	10455.22
938.659	10236.09
938.834	9978.05
939.009	9775.3
939.185	9916.61
939.36	9588.93
939.535	9058.51
939.71	9527.49
939.886	9894.08
940.061	9633.99
940.236	9429.19
940.411	9165
940.586	9259.21
940.761	9064.65
940.937	9046.22
941.112	8825.04
941.287	8675.54
941.462	8782.03
941.637	8575.19
941.812	8616.15
941.987	8685.78
942.162	8483.03
942.337	8421.59
942.512	8294.61
942.687	8456.4
942.862	8700.11
943.037	8073.43
943.212	7958.75
943.386	8165.59
943.561	8157.4
943.736	7932.12
943.911	8243.42
944.086	8351.96
944.26	8401.11
944.435	7925.98
944.61	8048.86
944.785	8483.03
944.959	8558.8
945.134	7983.32
945.309	8018.14
945.483	8184.02
945.658	8569.04
945.833	7696.61
946.007	7925.98
946.182	8569.04
946.357	8030.43
946.531	7909.6
946.706	7846.11
946.88	7637.22
947.055	8276.18
947.229	7913.69
947.404	7893.21
947.578	8579.28
947.752	8106.2
947.927	8042.71
948.101	8134.87
948.276	8286.42
948.45	8472.79
948.624	8483.03
948.799	8108.25
948.973	8474.84
949.147	8253.66
949.321	8235.22
949.496	8440.02
949.67	8706.26
949.844	8468.69
950.018	8564.95
950.193	8290.52
950.367	8859.85
950.541	8462.55
950.715	8732.88
950.889	8712.4
951.063	8464.6
951.237	8868.05
951.411	8392.92
951.585	8413.4
951.759	8970.44
951.933	8757.46
952.107	8612.05
952.281	8806.61
952.455	9251.02
952.629	9027.79
952.803	8763.6
952.977	8501.46
953.151	9095.37
953.325	9201.86
953.499	8841.42
953.672	8595.67
953.846	8833.23
954.02	8919.25
954.194	9023.69
954.368	8646.87
954.541	9201.86
954.715	8892.62
954.889	8741.07
955.062	8784.08
955.236	9177.29
955.41	8984.78
955.583	8861.9
955.757	8765.65
955.93	8906.96
956.104	8843.47
956.278	8974.54
956.451	8992.97
956.625	9230.54
956.798	9752.77
956.972	9386.18
957.145	8886.48
957.319	9257.16
957.492	9291.98
957.665	9136.33
957.839	8941.77
958.012	9242.82
958.185	9351.37
958.359	9044.17
958.532	9162.95
958.705	9541.83
958.879	9193.67
959.052	9371.85
959.225	8868.05
959.398	9449.67
959.572	9355.46
959.745	8992.97
959.918	9042.12
960.091	9296.07
960.264	9435.33
960.438	8960.2
960.611	8949.96
960.784	9572.55
960.957	9091.27
961.13	9289.93
961.303	9033.93
961.476	9101.51
961.649	9441.48
961.822	8947.92
961.995	8974.54
962.168	9314.5
962.341	9287.88
962.514	8984.78
962.686	8775.89
962.859	9117.9
963.032	9461.96
963.205	8804.56
963.378	8999.12
963.551	9449.67
963.723	9126.09
963.896	9031.88
964.069	8960.2
964.242	9097.42
964.414	9531.59
964.587	9177.29
964.76	8956.11
964.932	9365.7
965.105	9242.82
965.278	9025.74
965.45	8759.5
965.623	9261.26
965.795	9259.21
965.968	8900.81
966.14	8872.14
966.313	8997.07
966.485	8886.48
966.658	8650.96
966.83	8622.29
967.003	9519.3
967.175	9044.17
967.348	8892.62
967.52	8984.78
967.692	9615.55
967.865	9148.62
968.037	8827.09
968.209	8966.35
968.382	9009.36
968.554	9214.15
968.726	8687.82
968.898	8691.92
969.071	8992.97
969.243	8960.2
969.415	8691.92
969.587	8902.86
969.759	9478.34
969.932	9173.19
970.104	8618.19
970.276	8372.44
970.448	8716.5
970.62	8818.89
970.792	8728.78
970.964	8816.85
971.136	9279.69
971.308	8902.86
971.48	8642.77
971.652	8450.26
971.824	8986.83
971.996	8696.02
972.168	8351.96
972.339	8308.95
972.511	8761.55
972.683	8734.93
972.855	8665.3
973.027	8677.58
973.199	8483.03
973.37	8704.21
973.542	8331.48
973.714	8376.53
973.886	8532.18
974.057	8798.42
974.229	8077.53
974.401	8249.56
974.572	8306.9
974.744	8036.57
974.915	8028.38
975.087	7999.71
975.259	8610
975.43	8229.08
975.602	8046.81
975.773	8042.71
975.945	7958.75
976.116	8411.35
976.288	7923.93
976.459	8159.45
976.63	8073.43
976.802	8163.54
976.973	7751.9
977.145	8061.15
977.316	8560.85
977.487	8259.8
977.659	8030.43
977.83	7979.23
978.001	8571.09
978.172	7903.45
978.344	7788.77
978.515	7729.38
978.686	7948.51
978.857	8319.19
979.028	7835.87
979.2	7657.7
979.371	8007.9
979.542	7882.97
979.713	7780.57
979.884	7192.81
980.055	7667.94
980.226	7665.89
980.397	7610.59
980.568	7573.73
980.739	8089.82
980.91	7520.48
981.081	7594.21
981.252	7452.9
981.423	7710.94
981.594	7901.4
981.765	7192.81
981.936	7512.29
982.106	7559.39
982.277	7512.29
982.448	7418.08
982.619	7260.39
982.79	7373.03
982.96	7643.36
983.131	7346.41
983.302	6965.48
983.472	7516.39
983.643	7346.41
983.814	7321.83
983.984	7198.95
984.155	7207.14
984.326	7629.02
984.496	7139.56
984.667	6963.44
984.837	6938.86
985.008	7444.71
985.178	7016.68
985.349	7006.44
985.519	6990.06
985.69	6842.6
985.86	6813.93
986.031	6940.91
986.201	7104.74
986.371	7049.45
986.542	6783.21
986.712	6349.04
986.882	7041.26
987.053	7082.22
987.223	6846.7
987.393	6637.81
987.563	6840.56
987.734	7086.31
987.904	6904.04
988.074	6668.53
988.244	6789.36
988.414	6537.46
988.585	6289.65
988.755	6494.45
988.925	6621.42
989.095	7041.26
989.265	6480.11
989.435	6480.11
989.605	6631.66
989.775	6701.3
989.945	6588.66
990.115	6365.43
990.285	6410.48
990.455	6545.65
990.625	6463.73
990.795	6066.42
990.965	6615.28
991.134	6363.38
991.304	6056.18
991.474	6324.47
991.644	6402.29
991.814	6568.18
991.984	5955.83
992.153	5947.64
992.323	6080.76
992.493	6039.8
992.662	5738.75
992.832	5957.88
993.002	6211.83
993.171	6168.82
993.341	5839.1
993.511	6131.96
993.68	5990.65
993.85	5906.68
994.019	5632.26
994.189	5566.72
994.358	5873.92
994.528	5880.06
994.697	5505.28
994.867	5724.41
995.036	6023.42
995.206	5769.47
995.375	5345.54
995.544	5810.43
995.714	5742.85
995.883	5835
996.052	5548.29
996.222	5208.33
996.391	6228.21
996.56	5624.06
996.73	5359.88
996.899	5333.25
997.068	5902.59
997.237	5679.36
997.406	5306.63
997.576	5277.96
997.745	5591.3
997.914	5511.43
998.083	5116.17
998.252	5343.49
998.421	5392.64
998.59	5273.86
998.759	5202.18
998.928	4944.14
999.097	5644.54
999.266	5411.07
999.435	5298.44
999.604	4993.29
999.773	5892.35
999.942	5249.29
1000.111	4864.27
1000.28	4823.31
1000.448	4962.57
1000.617	5056.78
1000.786	5165.32
1000.955	4905.23
1001.124	5435.65
1001.292	5767.42
1001.461	4780.3
1001.63	4692.24
1001.798	5433.6
1001.967	5363.97
1002.136	4698.38
1002.304	4770.06
1002.473	4989.19
1002.642	5097.74
1002.81	4825.36
1002.979	4714.77
1003.147	4940.04
1003.316	5476.61
1003.484	4598.03
1003.653	4426
1003.821	5177.61
1003.99	4679.95
1004.158	4571.41
1004.327	4450.58
1004.495	4978.95
1004.663	4477.2
1004.832	4614.41
1005	4321.56
1005.168	4788.49
1005.337	4671.76
1005.505	4210.97
1005.673	4448.53
1005.842	4722.96
1006.01	4557.07
1006.178	4290.84
1006.346	4296.98
1006.514	4565.26
1006.683	4690.19
1006.851	4145.43
1007.019	4362.51
1007.187	4399.38
1007.355	3946.78
1007.523	4071.7
1007.691	3983.64
1007.859	4139.29
1008.027	4499.73
1008.195	4059.42
1008.363	3977.5
1008.531	4417.81
1008.699	4010.26
1008.867	3911.96
1009.035	3733.79
1009.203	4264.21
1009.37	4135.19
1009.538	3852.57
1009.706	4323.6
1009.874	4127
1010.042	4112.66
1010.209	3594.53
1010.377	3647.77
1010.545	4243.73
1010.713	4149.53
1010.88	3547.42
1011.048	3760.41
1011.216	3995.93
1011.383	4421.91
1011.551	3633.44
1011.718	3545.38
1011.886	4127
1012.054	3778.84
1012.221	3479.84
1012.389	3479.84
1012.556	3713.31
1012.724	4215.06
1012.891	3545.38
1013.058	3408.16
1013.226	3916.06
1013.393	3963.16
1013.561	3246.37
1013.728	3266.85
1013.895	3854.62
1014.063	3631.39
1014.23	3273
1014.397	3354.91
1014.565	3770.65
1014.732	3584.29
1014.899	3258.66
1015.066	3037.48
1015.233	3621.15
1015.401	3625.25
1015.568	3295.52
1015.735	3256.61
1015.902	3473.7
1016.069	3465.5
1016.236	3094.82
1016.403	3057.96
1016.57	3166.5
1016.737	3430.69
1016.904	3064.1
1017.071	2892.07
1017.238	3064.1
1017.405	3629.34
1017.572	2879.79
1017.739	3176.74
1017.906	3334.43
1018.073	3438.88
1018.24	2769.2
1018.407	2887.98
1018.573	3416.35
1018.74	3162.41
1018.907	2984.23
1019.074	2691.37
1019.241	3340.58
1019.407	3035.43
1019.574	2769.2
1019.741	2570.54
1019.907	3141.93
1020.074	3127.59
1020.241	2394.42
1020.407	2670.89
1020.574	3060.01
1020.74	3162.41
1020.907	2660.65
1021.073	2537.77
1021.24	3340.58
1021.406	3160.36
1021.573	2625.84
1021.739	2550.06
1021.906	3164.45
1022.072	2742.57
1022.239	2531.63
1022.405	2623.79
1022.571	2873.64
1022.738	2621.74
1022.904	2390.32
1023.07	2558.25
1023.237	2642.22
1023.403	2926.89
1023.569	2496.82
1023.735	2470.19
1023.902	2861.35
1024.068	2761
1024.234	2332.98
1024.4	2191.67
1024.566	2695.47
1024.732	2865.45
1024.898	2345.27
1025.065	2019.64
1025.231	2863.4
1025.397	2507.06
1025.563	2285.87
1025.729	2224.44
1025.895	2259.25
1026.061	2351.41
1026.227	2117.94
1026.392	2279.73
1026.558	2756.91
1026.724	2548.01
1026.89	2187.57
1027.056	2175.28
1027.222	2603.31
1027.388	2251.06
1027.553	2027.83
1027.719	2210.1
1027.885	2744.62
1028.051	2609.45
1028.216	1966.39
1028.382	2206
1028.548	2500.91
1028.713	2171.19
1028.879	1927.48
1029.045	2238.77
1029.21	2791.72
1029.376	2496.82
1029.541	2056.5
1029.707	2079.03
1029.873	2478.38
1030.038	2474.29
1030.204	1882.42
1030.369	2013.49
1030.534	2427.18
1030.7	2115.89
1030.865	1921.34
1031.031	1849.66
1031.196	2320.69
1031.361	2265.39
1031.527	1874.23
1031.692	1765.69
1031.857	1777.98
1032.023	2275.63
1032.188	1995.06
1032.353	1794.36
1032.518	2576.69
1032.684	2119.99
1032.849	1710.4
1033.014	1956.15
1033.179	2287.92
1033.344	2156.85
1033.509	1866.04
1033.674	1814.84
1033.839	2294.07
1034.004	2210.1
1034.17	1773.88
1034.335	1700.16
1034.5	2019.64
1034.664	1870.14
1034.829	1724.73
1034.994	1685.82
1035.159	2048.31
1035.324	2126.13
1035.489	1698.11
1035.654	1634.62
1035.819	2144.56
1035.984	2023.73
1036.148	1636.67
1036.313	1773.88
1036.478	2113.85
1036.643	1984.82
1036.807	1644.86
1036.972	1585.47
1037.137	2160.95
1037.301	2017.59
1037.466	1440.06
1037.631	1698.11
1037.795	2175.28
1037.96	1902.9
1038.124	1681.72
1038.289	1347.9
1038.454	2015.54
1038.618	2003.25
1038.783	1536.32
1038.947	1644.86
1039.111	1874.23
1039.276	1739.07
1039.44	1450.3
1039.605	1839.42
1039.769	1712.44
1039.933	1624.38
1040.098	1487.17
1040.262	1534.27
1040.426	1962.3
1040.591	1839.42
1040.755	1317.19
1040.919	1362.24
1041.083	1771.83
1041.248	1605.95
1041.412	1255.75
1041.576	1343.81
1041.74	1622.33
1041.904	1952.06
1042.068	1300.8
1042.232	1349.95
1042.397	1866.04
1042.561	1730.87
1042.725	1188.16
1042.889	1462.59
1043.053	1741.11
1043.217	1734.97
1043.381	1376.58
1043.544	1044.81
1043.708	1853.75
1043.872	1251.65
1044.036	1034.57
1044.2	1167.68
1044.364	1777.98
1044.528	1904.95
1044.691	4118.81
1044.855	1087.81
1045.019	1794.36
1045.183	1661.24
1045.346	1179.97
1045.51	1196.36
1045.674	1558.85
1045.837	1646.91
1046.001	1143.11
1046.165	1108.29
1046.328	2003.25
1046.492	1519.93
1046.655	1352
1046.819	1304.9
1046.983	1333.57
1047.146	1577.28
1047.31	1278.27
1047.473	921.93
1047.636	1388.86
1047.8	1020.23
1047.963	1136.96
1048.127	934.22
1048.29	1143.11
