Data from Hydrogel_Ink_Intensity_Test_1_USB4F045381__68__00068.txt Node

Date: Mon Jul 31 10:53:40 EDT 2023
User: mmckonesweet
Spectrometer: USB4F04538
Trigger mode: 4
Integration Time (sec): 9.000000E-1
Scans to average: 1
Electric dark correction enabled: true
Nonlinearity correction enabled: false
Boxcar width: 0
XAxis mode: Wavelengths
Number of Pixels in Spectrum: 3648
>>>>>Begin Spectral Data<<<<<
345.52	-1004.53
345.736	-1004.53
345.952	-1004.53
346.168	-1072.11
346.384	-998.38
346.6	-199.68
346.816	-183.29
347.032	-193.53
347.248	351.23
347.464	-218.11
347.68	-119.81
347.896	44.03
348.112	359.42
348.328	-44.03
348.544	-105.47
348.76	76.8
348.975	232.44
349.191	-195.58
349.407	-214.01
349.623	25.6
349.839	-35.84
350.055	-105.47
350.27	11.26
350.486	111.61
350.702	279.55
350.918	181.25
351.133	-228.35
351.349	89.09
351.565	465.91
351.781	-252.92
351.996	-80.89
352.212	351.23
352.428	-150.53
352.644	-230.4
352.859	-263.16
353.075	320.51
353.291	-64.51
353.506	-119.81
353.722	-138.24
353.938	-56.32
354.153	478.2
354.369	160.77
354.584	-156.67
354.8	289.79
355.016	-334.84
355.231	-173.05
355.447	-78.85
355.662	140.29
355.878	842.74
356.093	-322.56
356.309	-13.31
356.524	-244.73
356.74	191.49
356.955	-195.58
357.171	-105.47
357.386	173.05
357.602	-156.67
357.817	-82.94
358.033	-185.34
358.248	410.62
358.464	138.24
358.679	-146.43
358.895	-334.84
359.11	17.41
359.325	287.74
359.541	279.55
359.756	13.31
359.972	-297.98
360.187	195.58
360.402	-203.77
360.618	-146.43
360.833	1057.78
361.048	105.47
361.264	-185.34
361.479	-39.94
361.694	-9.22
361.909	214.01
362.125	-238.59
362.34	-84.99
362.555	304.12
362.77	33.79
362.986	-252.92
363.201	-185.34
363.416	242.68
363.631	46.08
363.847	-232.44
364.062	-138.24
364.277	171.01
364.492	156.67
364.707	-168.96
364.922	-293.88
365.138	289.79
365.353	314.36
365.568	-281.6
365.783	-130.05
365.998	150.53
366.213	637.94
366.428	-216.06
366.643	87.04
366.858	300.03
367.073	166.91
367.288	-91.13
367.503	-244.73
367.718	62.46
367.933	377.85
368.148	-310.27
368.363	-3.07
368.578	-44.03
368.793	484.34
369.008	-168.96
369.223	-205.82
369.438	193.53
369.653	386.04
369.868	-306.17
370.083	-168.96
370.298	105.47
370.513	484.34
370.728	66.56
370.943	-183.29
371.157	-150.53
371.372	465.91
371.587	-216.06
371.802	-279.55
372.017	123.9
372.232	439.29
372.446	-23.55
372.661	-218.11
372.876	340.99
373.091	199.68
373.306	-80.89
373.52	-166.91
373.735	-82.94
373.95	402.43
374.165	-84.99
374.379	-87.04
374.594	-132.09
374.809	78.85
375.023	13.31
375.238	-228.35
375.453	273.4
375.667	-273.4
375.882	-185.34
376.097	-162.81
376.311	52.22
376.526	50.18
376.741	-314.36
376.955	130.05
377.17	533.5
377.384	605.17
377.599	-82.94
377.813	-209.92
378.028	519.16
378.242	279.55
378.457	-68.61
378.672	-338.94
378.886	168.96
379.101	37.89
379.315	-261.12
379.53	-205.82
379.744	179.2
379.958	101.37
380.173	-128
380.387	-148.48
380.602	257.02
380.816	-72.7
381.031	-80.89
381.245	-103.42
381.459	189.44
381.674	2845.65
381.888	-181.25
382.103	62.46
382.317	-136.19
382.531	467.96
382.746	-74.75
382.96	-117.76
383.174	-93.18
383.388	517.11
383.603	154.62
383.817	-265.21
384.031	222.2
384.246	476.15
384.46	5.12
384.674	355.32
384.888	44.03
385.103	123.9
385.317	-242.68
385.531	25.6
385.745	336.89
385.959	383.99
386.174	-132.09
386.388	-265.21
386.602	-39.94
386.816	-72.7
387.03	-60.42
387.244	-72.7
387.458	109.57
387.672	390.14
387.887	-232.44
388.101	-220.16
388.315	375.8
388.529	193.53
388.743	-117.76
388.957	-207.87
389.171	355.32
389.385	-54.27
389.599	-136.19
389.813	123.9
390.027	152.57
390.241	697.33
390.455	-54.27
390.669	-23.55
390.883	-27.65
391.097	556.02
391.311	123.9
391.525	-128
391.738	265.21
391.952	156.67
392.166	119.81
392.38	-168.96
392.594	343.03
392.808	283.64
393.022	-33.79
393.236	1.02
393.449	216.06
393.663	402.43
393.877	-121.85
394.091	-89.09
394.305	1.02
394.518	-74.75
394.732	-236.54
394.946	-138.24
395.16	476.15
395.373	168.96
395.587	-111.61
395.801	-105.47
396.015	402.43
396.228	203.77
396.442	-222.2
396.656	-320.51
396.869	420.86
397.083	568.31
397.297	-35.84
397.51	-64.51
397.724	353.27
397.938	220.16
398.151	-261.12
398.365	-191.49
398.578	289.79
398.792	427
399.005	50.18
399.219	-134.14
399.433	99.33
399.646	306.17
399.86	62.46
400.073	1.02
400.287	336.89
400.5	97.28
400.714	25.6
400.927	29.7
401.141	332.79
401.354	1147.89
401.567	281.6
401.781	-228.35
401.994	398.33
402.208	721.91
402.421	97.28
402.635	-78.85
402.848	117.76
403.061	424.95
403.275	76.8
403.488	-142.33
403.701	508.92
403.915	320.51
404.128	35.84
404.341	-89.09
404.555	295.93
404.768	35.84
404.981	152.57
405.195	-162.81
405.408	578.55
405.621	386.04
405.834	175.1
406.048	-197.63
406.261	502.78
406.474	541.69
406.687	-113.66
406.9	117.76
407.114	185.34
407.327	353.27
407.54	-115.71
407.753	-187.39
407.966	-68.61
408.179	347.13
408.392	-117.76
408.605	-154.62
408.819	291.84
409.032	261.12
409.245	-193.53
409.458	160.77
409.671	283.64
409.884	445.43
410.097	-158.72
410.31	80.89
410.523	273.4
410.736	148.48
410.949	46.08
411.162	25.6
411.375	504.82
411.588	379.9
411.801	160.77
412.014	-54.27
412.227	156.67
412.44	99.33
412.653	-113.66
412.865	107.52
413.078	435.19
413.291	336.89
413.504	41.98
413.717	-31.74
413.93	394.23
414.143	-21.5
414.356	97.28
414.568	-220.16
414.781	349.18
414.994	265.21
415.207	52.22
415.42	58.37
415.632	470.01
415.845	734.2
416.058	-203.77
416.271	-134.14
416.483	248.83
416.696	658.42
416.909	-78.85
417.121	-25.6
417.334	404.47
417.547	631.8
417.759	-119.81
417.972	-105.47
418.185	136.19
418.397	457.72
418.61	-48.13
418.823	-31.74
419.035	668.66
419.248	257.02
419.46	50.18
419.673	87.04
419.885	369.66
420.098	173.05
420.311	-31.74
420.523	-134.14
420.736	427
420.948	220.16
421.161	-52.22
421.373	-72.7
421.586	328.7
421.798	39.94
422.01	-177.15
422.223	115.71
422.435	138.24
422.648	392.19
422.86	-54.27
423.073	29.7
423.285	519.16
423.497	-87.04
423.71	-115.71
423.922	-44.03
424.134	467.96
424.347	490.49
424.559	269.31
424.771	332.79
424.984	216.06
425.196	404.47
425.408	-119.81
425.621	-138.24
425.833	523.26
426.045	465.91
426.257	-44.03
426.47	37.89
426.682	328.7
426.894	373.75
427.106	62.46
427.318	103.42
427.531	97.28
427.743	494.58
427.955	74.75
428.167	431.1
428.379	433.15
428.591	273.4
428.804	230.4
429.016	-11.26
429.228	236.54
429.44	422.91
429.652	230.4
429.864	-78.85
430.076	297.98
430.288	240.64
430.5	193.53
430.712	132.09
430.924	639.99
431.136	291.84
431.348	-80.89
431.56	-11.26
431.772	269.31
431.984	175.1
432.196	37.89
432.408	140.29
432.62	252.92
432.832	467.96
433.044	394.23
433.256	254.97
433.468	566.26
433.679	46.08
433.891	-46.08
434.103	394.23
434.315	691.19
434.527	504.82
434.739	269.31
434.95	207.87
435.162	502.78
435.374	222.2
435.586	166.91
435.798	142.33
436.009	84.99
436.221	283.64
436.433	128
436.645	173.05
436.856	201.72
437.068	590.84
437.28	72.7
437.491	435.19
437.703	574.46
437.915	480.25
438.126	218.11
438.338	402.43
438.55	308.22
438.761	467.96
438.973	220.16
439.184	254.97
439.396	410.62
439.608	572.41
439.819	78.85
440.031	259.07
440.242	603.13
440.454	588.79
440.665	211.96
440.877	306.17
441.088	551.93
441.3	275.45
441.511	68.61
441.723	95.23
441.934	406.52
442.146	553.98
442.357	316.41
442.569	533.5
442.78	476.15
442.991	807.92
443.203	427
443.414	156.67
443.626	746.48
443.837	336.89
444.048	173.05
444.26	25.6
444.471	510.97
444.682	617.46
444.894	91.13
445.105	62.46
445.316	639.99
445.528	566.26
445.739	304.12
445.95	328.7
446.161	455.67
446.373	717.81
446.584	273.4
446.795	199.68
447.006	588.79
447.217	830.45
447.429	44.03
447.64	162.81
447.851	795.64
448.062	467.96
448.273	74.75
448.484	214.01
448.695	556.02
448.907	439.29
449.118	318.46
449.329	484.34
449.54	377.85
449.751	396.28
449.962	265.21
450.173	214.01
450.384	721.91
450.595	840.69
450.806	248.83
451.017	252.92
451.228	795.64
451.439	687.09
451.65	359.42
451.861	-1.02
452.072	267.26
452.283	525.3
452.494	492.54
452.705	226.3
452.915	977.91
453.126	685.05
453.337	304.12
453.548	183.29
453.759	740.34
453.97	1025.01
454.181	531.45
454.391	332.79
454.602	517.11
454.813	734.2
455.024	363.51
455.235	205.82
455.445	648.18
455.656	666.61
455.867	476.15
456.078	295.93
456.288	521.21
456.499	707.57
456.71	285.69
456.921	623.61
457.131	701.43
457.342	670.71
457.553	480.25
457.763	351.23
457.974	707.57
458.184	914.42
458.395	345.08
458.606	220.16
458.816	945.14
459.027	1055.73
459.237	562.17
459.448	205.82
459.659	904.18
459.869	1176.56
460.08	302.08
460.29	513.02
460.501	1119.21
460.711	547.83
460.922	250.88
461.132	390.14
461.343	1324.01
461.553	367.61
461.764	402.43
461.974	513.02
462.184	951.28
462.395	803.83
462.605	627.7
462.816	406.52
463.026	766.96
463.236	951.28
463.447	463.86
463.657	480.25
463.867	906.23
464.078	726
464.288	635.89
464.498	543.74
464.709	773.11
464.919	775.16
465.129	599.03
465.339	564.22
465.55	992.24
465.76	1029.1
465.97	662.52
466.18	496.63
466.391	1213.42
466.601	861.17
466.811	656.37
467.021	410.62
467.231	1014.77
467.441	1055.73
467.651	726
467.862	418.81
468.072	922.61
468.282	1272.81
468.492	551.93
468.702	783.35
468.912	959.47
469.122	1561.58
469.332	982
469.542	625.65
469.752	1238
469.962	1057.78
470.172	738.29
470.382	697.33
470.592	1172.46
470.802	1305.58
471.012	938.99
471.222	695.29
471.432	1309.68
471.642	1338.35
471.852	967.67
472.062	775.16
472.272	1070.06
472.482	838.64
472.691	787.44
472.901	721.91
473.111	1186.8
473.321	1774.56
473.531	809.97
473.741	1043.44
473.95	1401.83
474.16	1301.48
474.37	1205.23
474.58	836.6
474.79	1606.63
474.999	1401.83
475.209	869.36
475.419	1049.58
475.628	1201.13
475.838	1623.02
476.048	1133.55
476.258	928.75
476.467	1629.16
476.677	1358.83
476.886	1360.88
477.096	1178.61
477.306	1336.3
477.515	1803.24
477.725	1250.28
477.935	1287.15
478.144	1754.09
478.354	1235.95
478.563	1311.72
478.773	1217.52
478.982	1752.04
479.192	1879.01
479.401	1338.35
479.611	1254.38
479.82	1270.76
480.03	1772.52
480.239	1221.61
480.449	1340.4
480.658	1950.69
480.868	1639.4
481.077	1483.75
481.287	1414.12
481.496	1846.24
481.705	2042.85
481.915	1706.98
482.124	1848.29
482.333	1721.32
482.543	2139.1
482.752	1717.22
482.961	1467.37
483.171	2059.23
483.38	1770.47
483.589	1694.69
483.799	1537
484.008	1836
484.217	2151.39
484.426	1627.11
484.636	1584.1
484.845	1950.69
485.054	1659.88
485.263	2012.13
485.472	1774.56
485.682	2345.95
485.891	2008.03
486.1	1602.54
486.309	1807.33
486.518	2206.69
486.727	2534.36
486.936	1721.32
487.146	2034.66
487.355	2495.45
487.564	1803.24
487.773	1887.2
487.982	1928.16
488.191	2077.66
488.4	2114.53
488.609	1946.59
488.818	1965.03
489.027	2839.51
489.236	2509.79
489.445	1983.46
489.654	1885.16
489.863	2669.53
490.072	2446.3
490.281	2358.24
490.49	2085.86
490.698	2591.7
490.907	2667.48
491.116	2067.42
491.325	2038.75
491.534	2675.67
491.743	2450.39
491.952	2280.41
492.16	2110.43
492.369	2614.23
492.578	2726.87
492.787	2214.88
492.996	2053.09
493.204	2128.86
493.413	3044.31
493.622	2016.23
493.831	2118.62
494.039	2823.12
494.248	2327.52
494.457	2155.49
494.665	2155.49
494.874	2667.48
495.083	3111.89
495.291	2415.58
495.5	2233.31
495.709	2888.66
495.917	2741.21
496.126	2513.88
496.335	2458.59
496.543	2696.15
496.752	2733.01
496.96	2667.48
497.169	2221.02
497.377	2743.25
497.586	3021.78
497.794	2632.66
498.003	2280.41
498.211	2794.45
498.42	3091.41
498.628	2675.67
498.837	2264.03
499.045	2927.57
499.254	2782.17
499.462	2565.08
499.671	2499.55
499.879	3306.45
500.087	2982.87
500.296	2460.63
500.504	2560.98
500.713	2950.1
500.921	3468.24
501.129	2509.79
501.338	2534.36
501.546	3070.93
501.754	3156.94
501.962	2802.65
502.171	2571.22
502.379	3132.37
502.587	3339.21
502.795	2909.14
503.004	2829.27
503.212	3001.3
503.42	3177.42
503.628	2782.17
503.837	2884.56
504.045	3279.82
504.253	3552.2
504.461	2835.41
504.669	2712.53
504.877	3398.6
505.085	3558.35
505.294	2749.4
505.502	3109.84
505.71	3365.84
505.918	3453.9
506.126	2802.65
506.334	2911.19
506.542	3257.29
506.75	3179.47
506.958	3124.18
507.166	3001.3
507.374	3120.08
507.582	3744.71
507.79	3093.46
507.998	2864.08
508.206	3580.87
508.414	3458
508.622	3083.22
508.83	3138.51
509.037	3757
509.245	3261.39
509.453	2984.91
509.661	2966.48
509.869	3478.47
510.077	3308.49
510.285	3281.87
510.492	2839.51
510.7	4008.9
510.908	3335.12
511.116	3087.31
511.324	3087.31
511.531	3265.49
511.739	3433.42
511.947	3318.73
512.155	3595.21
512.362	3589.07
512.57	3351.5
512.778	3146.7
512.985	3007.44
513.193	3705.8
513.401	3863.49
513.608	3294.16
513.816	3343.31
514.024	3720.14
514.231	3843.01
514.439	3335.12
514.646	3333.07
514.854	3890.12
515.061	3871.68
515.269	3455.95
515.477	3396.56
515.684	3539.91
515.892	3791.81
516.099	3236.81
516.307	3271.63
516.514	3916.74
516.722	4043.71
516.929	3576.78
517.136	3466.19
517.344	4094.91
517.551	3713.99
517.759	3478.47
517.966	3351.5
518.173	3709.9
518.381	3810.25
518.588	3535.82
518.796	3425.23
519.003	3988.42
519.21	3752.9
519.418	3482.57
519.625	3834.82
519.832	3810.25
520.039	3888.07
520.247	3400.65
520.454	3490.76
520.661	4133.82
520.868	3804.1
521.076	3527.63
521.283	3697.61
521.49	4410.3
521.697	4068.29
521.904	3587.02
522.112	3675.08
522.319	4115.39
522.526	4015.04
522.733	3609.54
522.94	3711.94
523.147	3896.26
523.354	4115.39
523.561	3392.46
523.768	3877.83
523.975	4389.82
524.183	3965.89
524.39	3857.35
524.597	3802.05
524.804	3992.52
525.011	3943.36
525.218	3810.25
525.425	3738.57
525.632	4367.29
525.838	3937.22
526.045	3869.64
526.252	3818.44
526.459	5465
526.666	4985.78
526.873	3769.29
527.08	3843.01
527.287	4699.06
527.494	4426.68
527.701	3742.66
527.907	3818.44
528.114	4426.68
528.321	4238.27
528.528	3949.51
528.735	3855.3
528.941	4199.36
529.148	4117.44
529.355	4037.57
529.562	3703.75
529.768	4709.3
529.975	4111.3
530.182	4090.82
530.388	3843.01
530.595	4473.79
530.802	4133.82
531.008	4221.89
531.215	4172.74
531.422	5082.03
531.628	5014.45
531.835	4121.54
532.042	4070.34
532.248	4309.95
532.455	4473.79
532.661	4135.87
532.868	4160.45
533.074	4596.67
533.281	4654.01
533.487	4240.32
533.694	4025.28
533.9	4283.33
534.107	4535.23
534.313	4211.65
534.52	4174.78
534.726	4715.45
534.933	4973.49
535.139	4232.13
535.345	4139.97
535.552	4617.15
535.758	4574.14
535.965	4375.49
536.171	4275.13
536.377	4717.5
536.584	5032.88
536.79	4350.91
536.996	4428.73
537.203	4721.59
537.409	4803.51
537.615	4477.88
537.821	4547.51
538.028	5030.84
538.234	4791.22
538.44	4426.68
538.646	4461.5
538.853	4944.82
539.059	4717.5
539.265	4867
539.471	4271.04
539.677	4948.92
539.883	4744.12
540.09	4361.15
540.296	5034.93
540.502	4770.74
540.708	4539.32
540.914	4803.51
541.12	4408.25
541.326	5018.55
541.532	5028.79
541.738	4793.27
541.944	4795.32
542.15	5241.78
542.356	4828.09
542.562	4502.46
542.768	4707.26
542.974	5501.87
543.18	5538.73
543.386	4731.83
543.592	4633.53
543.798	5323.69
544.004	5153.71
544.21	4621.24
544.415	4907.96
544.621	5157.81
544.827	5342.13
545.033	4649.91
545.239	5125.04
545.445	4901.81
545.651	5219.25
545.856	4846.52
546.062	4873.14
546.268	5010.36
546.474	5133.23
546.679	4879.29
546.885	4854.71
547.091	4918.2
547.297	5532.59
547.502	4813.75
547.708	4662.2
547.914	4914.1
548.119	5469.1
548.325	4864.95
548.531	4717.5
548.736	5645.23
548.942	4991.92
549.147	4725.69
549.353	5194.67
549.559	5567.4
549.764	5385.13
549.97	4983.73
550.175	4838.33
550.381	5338.03
550.586	5196.72
550.792	4932.53
550.997	4823.99
551.203	5276.59
551.408	5522.35
551.614	4998.07
551.819	5063.6
552.025	5743.53
552.23	5800.87
552.435	4981.68
552.641	5297.07
552.846	5346.22
553.052	5755.82
553.257	5215.15
553.462	5286.83
553.668	5137.33
553.873	5696.43
554.078	4993.97
554.283	5184.43
554.489	5514.16
554.694	5483.44
554.899	4963.25
555.105	5276.59
555.31	5663.66
555.515	5714.86
555.72	5385.13
555.925	5245.87
556.131	5663.66
556.336	5403.57
556.541	5153.71
556.746	5370.8
556.951	5858.21
557.156	5901.22
557.361	5383.09
557.567	5624.75
557.772	5972.9
557.977	5784.49
558.182	5290.93
558.387	5338.03
558.592	5528.49
558.797	6001.57
559.002	5417.9
559.207	5669.8
559.412	5702.57
559.617	6288.29
559.822	5309.36
560.027	5368.75
560.232	5802.92
560.437	5755.82
560.642	5311.41
560.847	5501.87
561.051	5874.6
561.256	5807.02
561.461	5481.39
561.666	5284.78
561.871	5698.47
562.076	5966.76
562.281	5571.5
562.485	5378.99
562.69	5909.41
562.895	5989.28
563.1	5645.23
563.305	5573.55
563.509	6003.62
563.714	6288.29
563.919	5458.86
564.123	5432.24
564.328	5780.39
564.533	6292.38
564.737	5440.43
564.942	5391.28
565.147	6196.13
565.351	6435.74
565.556	5735.34
565.761	5700.52
565.965	6056.87
566.17	5596.07
566.374	5630.89
566.579	5434.29
566.784	5917.61
566.988	5813.16
567.193	5608.36
567.397	5610.41
567.602	5639.08
567.806	5987.24
568.011	5837.73
568.215	5833.64
568.42	5972.9
568.624	5956.52
568.828	5671.85
569.033	5933.99
569.237	6347.68
569.442	6288.29
569.646	5540.78
569.85	5696.43
570.055	6087.59
570.259	6144.93
570.463	6087.59
570.668	5936.04
570.872	6017.96
571.076	6165.41
571.281	5981.09
571.485	5878.69
571.689	6194.08
571.893	6298.53
572.098	5954.47
572.302	5903.27
572.506	6296.48
572.71	6235.04
572.914	5866.41
573.119	5962.66
573.323	6529.95
573.527	6501.28
573.731	5657.51
573.935	5862.31
574.139	6298.53
574.343	5993.38
574.547	6034.34
574.751	5876.65
574.955	6517.66
575.159	6575
575.364	5999.52
575.568	5802.92
575.772	6226.85
575.976	6622.11
576.18	5899.17
576.383	6067.11
576.587	6773.66
576.791	6452.13
576.995	5743.53
577.199	5854.12
577.403	6532
577.607	6679.45
577.811	5966.76
578.015	6202.27
578.219	6546.33
578.422	6624.15
578.626	6144.93
578.83	6286.24
579.034	6521.76
579.238	6321.06
579.442	6050.72
579.645	6415.26
579.849	6452.13
580.053	6591.39
580.257	6151.07
580.46	6319.01
580.664	6734.75
580.868	6570.91
581.071	6376.35
581.275	6192.03
581.479	6099.87
581.682	6720.41
581.886	6116.26
582.09	6374.3
582.293	6773.66
582.497	6695.83
582.7	6470.56
582.904	6290.34
583.107	6560.67
583.311	6407.07
583.515	6265.76
583.718	6253.47
583.922	6742.94
584.125	7175.06
584.329	6294.43
584.532	6517.66
584.735	7152.53
584.939	6681.5
585.142	6255.52
585.346	6230.94
585.549	6783.9
585.753	6556.57
585.956	6396.83
586.159	6493.08
586.363	7302.03
586.566	6863.77
586.769	6345.63
586.973	6353.82
587.176	6972.31
587.379	6994.84
587.582	6783.9
587.786	6792.09
587.989	6925.21
588.192	7451.53
588.395	6486.94
588.599	6785.94
588.802	6882.2
589.005	6808.47
589.208	6488.99
589.411	6515.61
589.615	6917.01
589.818	7359.38
590.021	6898.58
590.224	6611.87
590.427	7003.03
590.63	7111.57
590.833	6439.84
591.036	6462.37
591.239	6925.21
591.442	6771.61
591.645	6792.09
591.848	6671.26
592.051	7125.91
592.254	7150.48
592.457	6816.66
592.66	6730.65
592.863	6992.79
593.066	7023.51
593.269	6779.8
593.472	6992.79
593.675	6654.87
593.878	7232.4
594.081	6792.09
594.284	6613.92
594.486	7130
594.689	7052.18
594.892	7146.39
595.095	6886.29
595.298	7197.59
595.5	7107.48
595.703	7043.99
595.906	7048.08
596.109	7375.76
596.311	7426.96
596.514	6685.59
596.717	6931.35
596.92	7439.25
597.122	7330.7
597.325	6759.32
597.528	6785.94
597.73	7531.41
597.933	7123.86
598.136	6857.62
598.338	6654.87
598.541	7308.18
598.743	7373.71
598.946	6976.41
599.148	7125.91
599.351	7437.2
599.554	7398.29
599.756	7246.74
599.959	7099.28
600.161	7623.56
600.363	7963.53
600.566	7322.51
600.768	7072.66
600.971	7517.07
601.173	7637.9
601.376	6919.06
601.578	7150.48
601.78	7293.84
601.983	7961.48
602.185	7007.13
602.388	7269.27
602.59	7365.52
602.792	7367.57
602.995	7293.84
603.197	7046.04
603.399	7754.63
603.601	7478.16
603.804	7076.76
604.006	7164.82
604.208	7328.66
604.41	7160.72
604.613	7295.89
604.815	7146.39
605.017	7834.5
605.219	7351.18
605.421	7578.51
605.623	7209.87
605.826	7820.17
606.028	7865.22
606.23	7152.53
606.432	7279.5
606.634	8065.92
606.836	7852.94
607.038	7123.86
607.24	7480.21
607.442	7447.44
607.644	7662.48
607.846	7336.85
608.048	7240.59
608.25	7945.09
608.452	7533.45
608.654	7342.99
608.856	7078.8
609.058	7484.3
609.26	7537.55
609.462	7455.63
609.664	7295.89
609.866	7945.09
610.067	7582.6
610.269	7426.96
610.471	7340.94
610.673	7631.76
610.875	7752.59
611.077	7166.87
611.278	7322.51
611.48	7574.41
611.682	7973.77
611.884	7193.49
612.085	7465.87
612.287	7322.51
612.489	7717.77
612.69	7242.64
612.892	7345.04
613.094	7746.44
613.295	7607.18
613.497	7148.43
613.699	7402.38
613.9	7924.62
614.102	7861.13
614.304	7355.28
614.505	7209.87
614.707	7551.88
614.908	7629.71
615.11	7109.52
615.311	7441.29
615.513	7805.83
615.714	7828.36
615.916	7367.57
616.117	7429.01
616.319	7773.07
616.52	7818.12
616.722	7402.38
616.923	7455.63
617.124	8057.73
617.326	7885.7
617.527	7472.01
617.729	7639.95
617.93	7785.35
618.131	7943.05
618.333	7211.92
618.534	7617.42
618.735	7402.38
618.937	8092.55
619.138	7072.66
619.339	7158.67
619.54	7752.59
619.742	7494.54
619.943	7533.45
620.144	7482.25
620.345	8070.02
620.546	7910.28
620.748	7369.62
620.949	7541.64
621.15	7906.18
621.351	7728.01
621.552	7443.34
621.753	7250.83
621.954	7453.58
622.155	8160.13
622.356	7508.88
622.558	7580.56
622.759	7818.12
622.96	8115.08
623.161	7451.53
623.362	7492.49
623.563	7748.49
623.764	7897.99
623.965	7678.86
624.166	7701.39
624.366	7441.29
624.567	7783.31
624.768	7328.66
624.969	7545.74
625.17	7838.6
625.371	7936.9
625.572	7359.38
625.773	7402.38
625.973	7799.69
626.174	8020.87
626.375	7623.56
626.576	7547.79
626.777	7934.85
626.977	8278.91
627.178	7519.12
627.379	7629.71
627.58	7750.54
627.78	7867.27
627.981	7502.73
628.182	7613.32
628.382	8049.54
628.583	7347.09
628.784	7510.93
628.984	7652.24
629.185	7859.08
629.386	7986.05
629.586	7713.67
629.787	7502.73
629.987	8059.78
630.188	7687.05
630.388	7668.62
630.589	7564.17
630.79	8563.58
630.99	8014.73
631.191	7687.05
631.391	7678.86
631.591	8072.07
631.792	8268.67
631.992	7902.09
632.193	7728.01
632.393	8063.88
632.594	7857.03
632.794	7564.17
632.994	7725.96
633.195	8018.82
633.395	7971.72
633.595	7592.84
633.796	7828.36
633.996	7680.91
634.196	8307.59
634.397	7680.91
634.597	7799.69
634.797	7799.69
634.997	8360.83
635.198	7869.32
635.398	7566.22
635.598	7971.72
635.798	8340.35
635.998	7941
636.199	7574.41
636.399	7797.64
636.599	7740.3
636.799	7846.79
636.999	8049.54
637.199	8057.73
637.399	8301.44
637.599	7701.39
637.799	7725.96
637.999	7947.14
638.199	8297.35
638.399	7730.06
638.599	7637.9
638.799	8201.09
638.999	8924.02
639.199	8098.69
639.399	7945.09
639.599	8364.93
639.799	7996.29
639.999	7895.94
640.199	7734.15
640.399	8115.08
640.599	8102.79
640.799	7850.89
640.998	7990.15
641.198	8489.85
641.398	8229.76
641.598	8049.54
641.798	7867.27
641.997	8942.46
642.197	7971.72
642.397	7957.38
642.597	7805.83
642.796	8274.82
642.996	8463.23
643.196	8160.13
643.395	7742.35
643.595	8188.8
643.795	7850.89
643.994	7885.7
644.194	7836.55
644.394	8407.94
644.593	8366.98
644.793	8033.16
644.992	8061.83
645.192	8344.45
645.392	7916.42
645.591	8174.47
645.791	7758.73
645.99	8569.73
646.19	8098.69
646.389	8016.77
646.589	7861.13
646.788	8317.83
646.987	8350.59
647.187	8244.1
647.386	8309.63
647.586	8309.63
647.785	8512.38
647.984	8096.64
648.184	8137.6
648.383	8024.97
648.582	7969.67
648.782	8010.63
648.981	8067.97
649.18	8029.06
649.38	8520.57
649.579	8031.11
649.778	8006.53
649.977	8414.08
650.177	8502.14
650.376	7795.59
650.575	7938.95
650.774	8698.75
650.973	8260.48
651.173	7863.18
651.372	8158.08
651.571	8266.63
651.77	8647.55
651.969	8108.93
652.168	8248.19
652.367	8135.56
652.566	8274.82
652.765	7955.33
652.964	8377.22
653.163	8690.56
653.362	8366.98
653.561	7955.33
653.76	8119.17
653.959	8149.89
654.158	8555.39
654.357	8371.07
654.556	8045.45
654.755	8553.34
654.954	8405.89
655.153	8129.41
655.352	8252.29
655.551	8672.12
655.749	8190.85
655.948	7891.85
656.147	8381.31
656.346	8403.84
656.545	8328.06
656.743	8194.95
656.942	8207.23
657.141	8409.98
657.34	8209.28
657.538	8219.52
657.737	8297.35
657.936	8469.37
658.135	8477.57
658.333	8231.81
658.532	8418.18
658.731	8813.43
658.929	8756.09
659.128	8598.4
659.326	8022.92
659.525	8719.23
659.724	8430.46
659.922	7938.95
660.121	8076.16
660.319	8498.05
660.518	8024.97
660.716	8184.71
660.915	8125.32
661.113	8727.42
661.312	8317.83
661.51	8264.58
661.709	8262.53
661.907	8668.03
662.105	8893.3
662.304	8323.97
662.502	8344.45
662.701	8827.77
662.899	8577.92
663.097	8661.88
663.296	8096.64
663.494	8825.72
663.692	8647.55
663.891	8141.7
664.089	8074.12
664.287	8747.9
664.485	8725.37
664.684	8149.89
664.882	8240
665.08	8569.73
665.278	8465.28
665.476	8303.49
665.675	8457.09
665.873	8944.5
666.071	8962.94
666.269	8076.16
666.467	8575.87
666.665	8602.49
666.863	8506.24
667.061	8225.67
667.259	8110.98
667.457	8438.66
667.655	8584.06
667.853	8117.12
668.051	8457.09
668.249	8391.55
668.447	8547.2
668.645	8043.4
668.843	8442.75
669.041	8545.15
669.239	8149.89
669.437	8285.06
669.635	8440.7
669.833	8338.3
670.031	8686.46
670.229	8283.01
670.426	8668.03
670.624	8289.15
670.822	8364.93
671.02	8332.16
671.218	8162.18
671.415	8260.48
671.613	8512.38
671.811	8160.13
672.009	8221.57
672.206	8551.29
672.404	8516.48
672.602	8401.79
672.799	8356.74
672.997	8498.05
673.195	8663.93
673.392	8426.37
673.59	8027.01
673.788	8813.43
673.985	7885.7
674.183	8399.74
674.38	8098.69
674.578	8665.98
674.775	8113.03
674.973	8143.75
675.17	8309.63
675.368	8868.73
675.565	8545.15
675.763	8151.94
675.96	8233.86
676.158	8684.41
676.355	8291.2
676.553	8235.91
676.75	8119.17
676.947	8442.75
677.145	8295.3
677.342	8317.83
677.539	8184.71
677.737	8242.05
677.934	8917.88
678.131	8383.36
678.329	7965.57
678.526	8938.36
678.723	8569.73
678.92	8409.98
679.118	8098.69
679.315	8223.62
679.512	8833.91
679.709	8311.68
679.906	8237.95
680.104	8786.81
680.301	8653.69
680.498	8106.88
680.695	8233.86
680.892	8266.63
681.089	8147.84
681.286	8225.67
681.483	8115.08
681.68	8328.06
681.877	8455.04
682.075	8106.88
682.272	8242.05
682.469	8307.59
682.665	8172.42
682.862	7955.33
683.059	7867.27
683.256	8416.13
683.453	8252.29
683.65	8174.47
683.847	8225.67
684.044	8328.06
684.241	8102.79
684.438	8233.86
684.635	8045.45
684.831	8756.09
685.028	8688.51
685.225	7857.03
685.422	8094.6
685.619	8055.69
685.815	8321.92
686.012	8057.73
686.209	8067.97
686.405	7867.27
686.602	8489.85
686.799	7652.24
686.996	7787.4
687.192	7981.96
687.389	8784.76
687.586	7914.38
687.782	7779.21
687.979	8694.65
688.175	8489.85
688.372	8125.32
688.568	7941
688.765	8012.68
688.962	8655.74
689.158	8184.71
689.355	7512.97
689.551	8387.46
689.748	7930.76
689.944	8231.81
690.14	7648.14
690.337	8061.83
690.533	8004.49
690.73	8000.39
690.926	7988.1
691.123	8225.67
691.319	7979.91
691.515	7857.03
691.712	8127.36
691.908	8405.89
692.104	8250.24
692.301	8063.88
692.497	7967.62
692.693	8375.17
692.889	8629.12
693.086	7965.57
693.282	7635.85
693.478	8213.38
693.674	8502.14
693.87	7846.79
694.067	7672.71
694.263	8293.25
694.459	8012.68
694.655	7951.24
694.851	7945.09
695.047	8262.53
695.243	8278.91
695.439	7861.13
695.635	7586.7
695.831	8323.97
696.027	8078.21
696.224	7863.18
696.42	8141.7
696.615	8412.03
696.811	8446.85
697.007	7578.51
697.203	7828.36
697.399	8364.93
697.595	8344.45
697.791	7742.35
697.987	8045.45
698.183	7662.48
698.379	7875.46
698.575	7824.26
698.77	7795.59
698.966	8100.74
699.162	8352.64
699.358	7908.23
699.554	7809.93
699.749	8160.13
699.945	8219.52
700.141	8033.16
700.337	7811.98
700.532	8049.54
700.728	7822.22
700.924	7762.83
701.119	7480.21
701.315	7906.18
701.511	7934.85
701.706	7918.47
701.902	7635.85
702.097	7703.43
702.293	8110.98
702.489	8027.01
702.684	7685
702.88	7897.99
703.075	7748.49
703.271	7807.88
703.466	7414.67
703.662	7867.27
703.857	8139.65
704.053	7764.87
704.248	7746.44
704.443	7990.15
704.639	8039.3
704.834	7721.87
705.03	7723.91
705.225	8016.77
705.42	8168.32
705.616	7910.28
705.811	7474.06
706.006	7930.76
706.202	7826.31
706.397	7744.39
706.592	7607.18
706.787	8086.4
706.983	7873.42
707.178	7998.34
707.373	7736.2
707.568	8076.16
707.763	8053.64
707.959	7613.32
708.154	7670.67
708.349	7824.26
708.544	7906.18
708.739	7775.11
708.934	7639.95
709.129	8180.61
709.324	8020.87
709.519	7562.12
709.714	7736.2
709.909	8217.47
710.104	8045.45
710.299	7652.24
710.494	7711.63
710.689	8123.27
710.884	7742.35
711.079	7693.19
711.274	7793.55
711.469	7902.09
711.664	7744.39
711.859	7545.74
712.054	7705.48
712.249	7783.31
712.443	7932.81
712.638	7242.64
712.833	7381.9
713.028	7766.92
713.223	7836.55
713.417	7691.15
713.612	7486.35
713.807	7885.7
714.002	8311.68
714.196	7664.52
714.391	7435.15
714.586	7877.51
714.78	7910.28
714.975	7551.88
715.17	7447.44
715.364	7652.24
715.559	8041.35
715.754	7136.15
715.948	7443.34
716.143	8147.84
716.337	7836.55
716.532	7730.06
716.726	7531.41
716.921	7924.62
717.115	8278.91
717.31	7398.29
717.504	8151.94
717.699	7506.83
717.893	7758.73
718.088	7283.6
718.282	7371.66
718.476	7594.89
718.671	7752.59
718.865	7451.53
719.059	7285.65
719.254	7519.12
719.448	8029.06
719.642	8684.41
719.837	7068.56
720.031	7816.07
720.225	7852.94
720.419	7490.45
720.614	7322.51
720.808	7799.69
721.002	7480.21
721.196	7181.2
721.39	7267.22
721.585	7695.24
721.779	7773.07
721.973	7279.5
722.167	7140.24
722.361	7596.94
722.555	7906.18
722.749	7043.99
722.943	7306.13
723.137	7201.68
723.331	7629.71
723.525	7238.55
723.719	7166.87
723.913	7631.76
724.107	7850.89
724.301	7066.52
724.495	7154.58
724.689	7854.98
724.883	7744.39
725.077	7228.31
725.271	7373.71
725.465	7742.35
725.659	7383.95
725.853	7367.57
726.046	7216.02
726.24	7244.69
726.434	7728.01
726.628	7363.47
726.822	7267.22
727.015	7787.4
727.209	7773.07
727.403	7349.14
727.596	7193.49
727.79	7768.97
727.984	7619.47
728.177	7238.55
728.371	7467.92
728.565	7738.25
728.758	7281.55
728.952	7189.39
729.146	7447.44
729.339	7867.27
729.533	7414.67
729.726	7132.05
729.92	7039.89
730.113	7766.92
730.307	7439.25
730.5	7138.2
730.694	7240.59
730.887	7390.1
731.081	7744.39
731.274	7304.08
731.468	7242.64
731.661	7414.67
731.854	7113.62
732.048	7478.16
732.241	7304.08
732.435	7414.67
732.628	7486.35
732.821	7263.12
733.014	7039.89
733.208	7201.68
733.401	7687.05
733.594	7152.53
733.788	7166.87
733.981	7691.15
734.174	7676.81
734.367	7177.11
734.56	7218.07
734.754	7564.17
734.947	7525.26
735.14	7273.36
735.333	7179.15
735.526	7617.42
735.719	7195.54
735.912	7220.11
736.105	7123.86
736.298	7519.12
736.491	7263.12
736.684	7107.48
736.877	7091.09
737.07	7580.56
737.263	7721.87
737.456	7054.23
737.649	6937.49
737.842	7170.96
738.035	7406.48
738.228	7101.33
738.421	7211.92
738.614	7635.85
738.807	7574.41
739	6951.83
739.192	6863.77
739.385	7545.74
739.578	7521.17
739.771	7322.51
739.964	7134.1
740.156	7359.38
740.349	7222.16
740.542	7209.87
740.735	6906.77
740.927	7046.04
741.12	7154.58
741.313	6812.57
741.505	7259.03
741.698	7424.91
741.891	7338.9
742.083	7160.72
742.276	6921.11
742.468	7275.41
742.661	7267.22
742.854	6986.65
743.046	6996.89
743.239	7691.15
743.431	7273.36
743.624	7177.11
743.816	6732.7
744.009	7132.05
744.201	7308.18
744.393	7183.25
744.586	6761.37
744.778	7439.25
744.971	7170.96
745.163	7064.47
745.355	7017.36
745.548	7256.98
745.74	7072.66
745.932	7017.36
746.125	7041.94
746.317	7736.2
746.509	7091.09
746.702	7082.9
746.894	7084.95
747.086	7422.86
747.278	7414.67
747.471	7107.48
747.663	6992.79
747.855	7246.74
748.047	7594.89
748.239	7021.46
748.431	6888.34
748.623	7668.62
748.815	7478.16
749.008	6884.25
749.2	6939.54
749.392	7398.29
749.584	7324.56
749.776	7041.94
749.968	6914.97
750.16	7598.99
750.352	7201.68
750.544	6910.87
750.736	6933.4
750.928	7252.88
751.12	7299.98
751.311	7140.24
751.503	6949.78
751.695	7158.67
751.887	7136.15
752.079	6562.72
752.271	6882.2
752.463	7818.12
752.654	7332.75
752.846	6978.45
753.038	6695.83
753.23	6923.16
753.421	7316.37
753.613	6734.75
753.805	7005.08
753.997	7414.67
754.188	7426.96
754.38	6796.18
754.572	7017.36
754.763	6998.93
754.955	7013.27
755.146	6839.19
755.338	6949.78
755.53	7152.53
755.721	7082.9
755.913	6577.05
756.104	6693.79
756.296	7009.17
756.487	6949.78
756.679	6648.73
756.87	6747.03
757.062	6914.97
757.253	7238.55
757.445	6701.98
757.636	6849.43
757.827	7095.19
758.019	7410.57
758.21	6546.33
758.401	6714.27
758.593	7492.49
758.784	7252.88
758.975	6658.97
759.167	6601.63
759.358	6974.36
759.549	7148.43
759.74	6546.33
759.932	6325.15
760.123	7304.08
760.314	6802.33
760.505	6925.21
760.696	6540.19
760.888	7267.22
761.079	6759.32
761.27	6532
761.461	6167.46
761.652	7234.45
761.843	6575
762.034	6587.29
762.225	6685.59
762.416	6824.86
762.607	6880.15
762.798	6495.13
762.989	6333.34
763.18	7433.1
763.371	6656.92
763.562	6441.89
763.753	6468.51
763.944	7072.66
764.135	6974.36
764.326	6679.45
764.517	6355.87
764.708	6624.15
764.899	6654.87
765.089	6351.78
765.28	6329.25
765.471	6732.7
765.662	6755.22
765.853	6468.51
766.043	5985.19
766.234	6968.21
766.425	6865.82
766.615	6454.17
766.806	6278.05
766.997	6910.87
767.187	6751.13
767.378	6280.1
767.569	6159.27
767.759	6816.66
767.95	6622.11
768.141	6548.38
768.331	6153.12
768.522	6441.89
768.712	6663.07
768.903	6290.34
769.093	6312.86
769.284	6933.4
769.474	6685.59
769.665	6026.15
769.855	6198.18
770.046	6642.59
770.236	6398.88
770.426	6384.54
770.617	6228.9
770.807	6603.68
770.998	6458.27
771.188	6390.69
771.378	6095.78
771.569	6472.61
771.759	6480.8
771.949	5919.65
772.139	5981.09
772.33	6370.21
772.52	6781.85
772.71	5950.37
772.9	5919.65
773.09	6706.07
773.281	6718.36
773.471	6208.42
773.661	6067.11
773.851	6425.5
774.041	6259.62
774.231	5981.09
774.421	6241.18
774.611	6751.13
774.802	6349.73
774.992	5974.95
775.182	6017.96
775.372	6284.19
775.562	6499.23
775.752	6009.76
775.942	6263.71
776.131	6501.28
776.321	6503.32
776.511	5796.78
776.701	5938.09
776.891	6402.97
777.081	5974.95
777.271	5911.46
777.461	5917.61
777.651	6554.52
777.84	6456.22
778.03	6153.12
778.22	5868.45
778.41	6445.98
778.599	6116.26
778.789	5938.09
778.979	5923.75
779.169	6063.01
779.358	6200.23
779.548	6034.34
779.738	5854.12
779.927	6097.83
780.117	5911.46
780.307	5866.41
780.496	5579.69
780.686	6271.9
780.875	6480.8
781.065	6093.73
781.254	5688.23
781.444	6128.55
781.633	6144.93
781.823	5749.67
782.012	5645.23
782.202	5919.65
782.391	6101.92
782.581	5710.76
782.77	5921.7
782.96	6206.37
783.149	5940.13
783.338	5792.68
783.528	5546.92
783.717	6337.44
783.906	6278.05
784.096	5917.61
784.285	5598.12
784.474	5907.37
784.663	5798.82
784.853	5802.92
785.042	5731.24
785.231	5696.43
785.42	5991.33
785.61	5852.07
785.799	5518.25
785.988	5616.55
786.177	5852.07
786.366	5411.76
786.555	5792.68
786.744	6192.03
786.933	5804.97
787.122	5456.81
787.312	5378.99
787.501	5784.49
787.69	5985.19
787.879	5469.1
788.068	5393.33
788.257	5591.98
788.445	5620.65
788.634	5522.35
788.823	5448.62
789.012	6392.73
789.201	6075.3
789.39	5540.78
789.579	5231.54
789.768	5759.91
789.957	5792.68
790.145	5485.48
790.334	5190.58
790.523	5645.23
790.712	5532.59
790.9	5518.25
791.089	5276.59
791.278	6071.2
791.467	5665.71
791.655	5602.22
791.844	6026.15
792.033	5501.87
792.221	5454.76
792.41	5583.79
792.599	5292.98
792.787	6030.24
792.976	5909.41
793.164	5149.62
793.353	5376.94
793.541	5915.56
793.73	5860.26
793.918	5456.81
794.107	5211.06
794.295	5604.27
794.484	5614.51
794.672	5258.16
794.861	5366.7
795.049	5766.06
795.238	6128.55
795.426	5327.79
795.614	5276.59
795.803	5784.49
795.991	5921.7
796.179	5407.66
796.368	5249.97
796.556	5905.32
796.744	5112.75
796.932	5141.43
797.121	5159.86
797.309	5530.54
797.497	5764.01
797.685	5077.94
797.874	5196.72
798.062	5434.29
798.25	5764.01
798.438	5008.31
798.626	5321.65
798.814	5761.96
799.002	6005.67
799.19	5350.32
799.378	5374.89
799.566	5692.33
799.755	5843.88
799.943	5325.74
800.131	5176.24
800.318	5598.12
800.506	5694.38
800.694	5194.67
800.882	5352.37
801.07	5821.35
801.258	5444.52
801.446	5419.95
801.634	5364.65
801.822	5481.39
802.01	5313.45
802.197	4969.4
802.385	5190.58
802.573	5604.27
802.761	5317.55
802.949	5288.88
803.136	5256.11
803.324	5815.21
803.512	5628.84
803.699	5376.94
803.887	5135.28
804.075	5792.68
804.262	5327.79
804.45	5014.45
804.638	5481.39
804.825	5270.45
805.013	5206.96
805.201	5393.33
805.388	5100.47
805.576	5456.81
805.763	5940.13
805.951	5276.59
806.138	5383.09
806.326	6063.01
806.513	5833.64
806.701	5385.13
806.888	5149.62
807.075	5757.86
807.263	5882.79
807.45	5163.95
807.638	5571.5
807.825	5936.04
808.012	5692.33
808.2	5409.71
808.387	5641.13
808.574	5671.85
808.761	5909.41
808.949	5174.19
809.136	5348.27
809.323	5649.32
809.51	5462.96
809.698	5546.92
809.885	5419.95
810.072	5555.12
810.259	5968.8
810.446	5252.02
810.633	5286.83
810.82	5899.17
811.008	6038.44
811.195	5471.15
811.382	5475.24
811.569	5710.76
811.756	5417.9
811.943	5356.46
812.13	5374.89
812.317	5411.76
812.504	5499.82
812.691	5530.54
812.878	5524.4
813.064	5931.94
813.251	5522.35
813.438	5125.04
813.625	5702.57
813.812	5618.6
813.999	5551.02
814.186	5454.76
814.372	5407.66
814.559	5686.19
814.746	5962.66
814.933	5116.85
815.12	5383.09
815.306	5503.92
815.493	5497.77
815.68	5403.57
815.866	5346.22
816.053	5850.02
816.24	6015.91
816.426	5405.61
816.613	5301.17
816.799	5800.87
816.986	5821.35
817.173	5292.98
817.359	5268.4
817.546	5630.89
817.732	5295.02
817.919	5168.05
818.105	5462.96
818.292	5456.81
818.478	5788.58
818.665	5602.22
818.851	5407.66
819.037	6085.54
819.224	5766.06
819.41	5202.86
819.597	5112.75
819.783	5841.83
819.969	5614.51
820.156	5247.92
820.342	5131.19
820.528	6179.75
820.714	5432.24
820.901	5514.16
821.087	5395.37
821.273	6114.21
821.459	5327.79
821.646	5180.34
821.832	5247.92
822.018	5583.79
822.204	5534.64
822.39	5305.26
822.576	5159.86
822.762	5536.68
822.948	5442.48
823.134	5452.72
823.32	5317.55
823.507	5149.62
823.693	5411.76
823.879	5508.01
824.065	5141.43
824.25	5540.78
824.436	5346.22
824.622	5260.21
824.808	5047.22
824.994	5434.29
825.18	5254.06
825.366	5020.6
825.552	5055.41
825.738	5446.57
825.923	5612.46
826.109	5387.18
826.295	5200.82
826.481	5200.82
826.667	5186.48
826.852	5327.79
827.038	5092.27
827.224	5790.63
827.409	5815.21
827.595	4850.61
827.781	5229.49
827.966	5620.65
828.152	5450.67
828.338	5143.47
828.523	4842.42
828.709	5100.47
828.894	5718.95
829.08	5047.22
829.266	4844.47
829.451	4959.16
829.637	5575.59
829.822	5223.34
830.008	5036.98
830.193	5520.3
830.378	5559.21
830.564	5110.71
830.749	4953.01
830.935	5522.35
831.12	5473.2
831.305	4926.39
831.491	5018.55
831.676	4817.85
831.861	5505.96
832.047	4979.64
832.232	4850.61
832.417	5456.81
832.602	5182.38
832.788	4785.08
832.973	4879.29
833.158	4965.3
833.343	5227.44
833.528	5211.06
833.714	5084.08
833.899	5327.79
834.084	5671.85
834.269	5028.79
834.454	4983.73
834.639	5424.05
834.824	5174.19
835.009	5069.75
835.194	5043.12
835.379	5297.07
835.564	5417.9
835.749	5065.65
835.934	4826.04
836.119	5145.52
836.304	5071.79
836.489	4897.72
836.674	5024.69
836.859	4846.52
837.044	5403.57
837.228	4737.98
837.413	4768.7
837.598	5198.77
837.783	5278.64
837.968	4875.19
838.152	4742.07
838.337	4721.59
838.522	5434.29
838.707	5190.58
838.891	5014.45
839.076	5145.52
839.261	5391.28
839.445	4881.33
839.63	4852.66
839.815	5436.33
839.999	4955.06
840.184	4764.6
840.368	4793.27
840.553	5153.71
840.737	5159.86
840.922	4656.06
841.106	4592.57
841.291	4608.95
841.475	5053.36
841.66	4656.06
841.844	4541.37
842.029	5675.95
842.213	4578.23
842.397	4654.01
842.582	4432.83
842.766	5155.76
842.951	5133.23
843.135	4613.05
843.319	4770.74
843.504	4985.78
843.688	5211.06
843.872	4445.12
844.056	4654.01
844.241	5036.98
844.425	4838.33
844.609	4744.12
844.793	4375.49
844.977	5129.14
845.161	4959.16
845.346	4322.24
845.53	4576.19
845.714	4795.32
845.898	5192.62
846.082	4213.7
846.266	4670.39
846.45	4737.98
846.634	5006.26
846.818	4555.71
847.002	4723.64
847.186	5112.75
847.37	4496.32
847.554	4516.8
847.738	4596.67
847.922	5026.74
848.106	4813.75
848.29	4514.75
848.473	4504.51
848.657	4893.62
848.841	4522.94
849.025	4428.73
849.209	4217.79
849.392	4975.54
849.576	4705.21
849.76	4219.84
849.944	4588.47
850.127	5049.27
850.311	4377.53
850.495	4305.85
850.678	4195.26
850.862	5006.26
851.046	4965.3
851.229	4658.1
851.413	4367.29
851.596	4625.34
851.78	4606.91
851.964	4457.4
852.147	4309.95
852.331	5473.2
852.514	5018.55
852.698	4647.87
852.881	4195.26
853.065	4625.34
853.248	4522.94
853.431	4342.72
853.615	4422.59
853.798	5149.62
853.982	4699.06
854.165	4355.01
854.348	4355.01
854.532	4191.17
854.715	4467.64
854.898	4447.16
855.081	4195.26
855.265	4762.55
855.448	4893.62
855.631	4123.59
855.814	4180.93
855.997	4809.65
856.181	4533.18
856.364	4322.24
856.547	4072.39
856.73	4596.67
856.913	4537.27
857.096	4017.09
857.279	4223.94
857.462	4291.52
857.645	4649.91
857.828	4424.64
858.011	4297.66
858.194	4293.57
858.377	4674.49
858.56	4101.06
858.743	4099.01
858.926	4113.35
859.109	4748.22
859.292	4109.25
859.475	4105.15
859.658	4694.97
859.841	4477.88
860.023	3937.22
860.206	4094.91
860.389	4520.89
860.572	4637.63
860.755	4053.95
860.937	4158.4
861.12	4316.09
861.303	4361.15
861.486	4047.81
861.668	3986.37
861.851	4375.49
862.034	4332.48
862.216	4180.93
862.399	3990.47
862.581	4477.88
862.764	4619.19
862.947	4117.44
863.129	3847.11
863.312	3984.32
863.494	4733.88
863.677	4279.23
863.859	3830.73
864.042	4418.49
864.224	4598.71
864.406	3961.8
864.589	3664.84
864.771	4412.35
864.954	3843.01
865.136	3828.68
865.318	3654.6
865.501	4344.77
865.683	3716.04
865.865	4031.43
866.048	3820.49
866.23	4111.3
866.412	4250.56
866.594	3728.33
866.777	3951.56
866.959	4162.5
867.141	3867.59
867.323	4099.01
867.505	3986.37
867.687	4119.49
867.869	4105.15
868.052	3826.63
868.234	3681.22
868.416	4062.15
868.598	4187.07
868.78	3873.73
868.962	3816.39
869.144	4443.07
869.326	4264.89
869.508	3707.85
869.69	3705.8
869.872	4000.71
870.054	4340.67
870.236	3617.74
870.417	3818.44
870.599	3992.52
870.781	4404.16
870.963	4039.62
871.145	3863.49
871.327	3847.11
871.508	4189.12
871.69	3757
871.872	3744.71
872.054	3828.68
872.235	4182.98
872.417	3836.87
872.599	3683.27
872.78	4555.71
872.962	4115.39
873.144	3711.94
873.325	3810.25
873.507	4381.63
873.689	4082.63
873.87	3501
874.052	3900.36
874.233	4099.01
874.415	4182.98
874.596	3697.61
874.778	3630.02
874.959	4051.91
875.141	4209.6
875.322	3793.86
875.503	3666.89
875.685	4088.77
875.866	3679.18
876.048	3742.66
876.229	3554.25
876.41	3894.21
876.592	4203.46
876.773	3916.74
876.954	3607.5
877.136	4330.43
877.317	3845.06
877.498	3562.44
877.679	3824.58
877.86	4244.42
878.042	4107.2
878.223	3683.27
878.404	3978.18
878.585	4256.7
878.766	4420.54
878.947	3998.66
879.128	3845.06
879.309	4240.32
879.49	4236.22
879.672	3779.53
879.853	3746.76
880.034	3883.97
880.215	4084.67
880.396	3838.92
880.576	3744.71
880.757	4031.43
880.938	4518.84
881.119	3800.01
881.3	3687.37
881.481	3967.94
881.662	4887.48
881.843	3736.52
882.023	3720.14
882.204	4103.11
882.385	3941.32
882.566	3883.97
882.747	3933.12
882.927	4193.22
883.108	4053.95
883.289	3834.82
883.469	4027.33
883.65	4051.91
883.831	4068.29
884.011	4074.43
884.192	4027.33
884.373	4441.02
884.553	4266.94
884.734	4015.04
884.914	4268.99
885.095	4887.48
885.275	4602.81
885.456	4350.91
885.636	3769.29
885.817	4096.96
885.997	4201.41
886.178	3883.97
886.358	3916.74
886.538	4332.48
886.719	5202.86
886.899	4076.48
887.08	3910.6
887.26	4449.21
887.44	3963.84
887.621	3875.78
887.801	4084.67
887.981	4821.94
888.161	4438.97
888.342	4133.82
888.522	4041.67
888.702	4488.12
888.882	4424.64
889.062	3978.18
889.242	3855.3
889.423	4545.47
889.603	4228.03
889.783	3969.99
889.963	3793.86
890.143	4350.91
890.323	4500.41
890.503	4113.35
890.683	3814.34
890.863	4277.18
891.043	4346.81
891.223	4074.43
891.403	4195.26
891.583	4355.01
891.763	4285.37
891.943	3863.49
892.122	3918.79
892.302	4209.6
892.482	4121.54
892.662	4000.71
892.842	4133.82
893.022	4355.01
893.201	4168.64
893.381	4264.89
893.561	4094.91
893.741	4506.56
893.92	4342.72
894.1	4185.02
894.28	4000.71
894.459	4502.46
894.639	4242.37
894.819	4117.44
894.998	4066.24
895.178	4293.57
895.357	4432.83
895.537	3861.45
895.716	3883.97
895.896	4154.3
896.075	4631.48
896.255	3949.51
896.434	3771.33
896.614	4555.71
896.793	4504.51
896.973	3998.66
897.152	4056
897.331	4314.05
897.511	4514.75
897.69	3650.5
897.87	4082.63
898.049	4305.85
898.228	4242.37
898.407	4062.15
898.587	4051.91
898.766	4043.71
898.945	4393.92
899.124	4115.39
899.304	4012.99
899.483	4240.32
899.662	4502.46
899.841	3720.14
900.02	3769.29
900.199	4424.64
900.378	4195.26
900.557	3720.14
900.737	3630.02
900.916	4178.88
901.095	4033.47
901.274	4086.72
901.453	3632.07
901.632	3851.21
901.811	3816.39
901.989	3589.07
902.168	3732.42
902.347	4119.49
902.526	3914.69
902.705	3652.55
902.884	3806.15
903.063	4236.22
903.242	4223.94
903.42	3564.49
903.599	3707.85
903.778	4084.67
903.957	4277.18
904.135	3703.75
904.314	3455.95
904.493	3892.16
904.672	3953.6
904.85	3621.83
905.029	3566.54
905.207	3769.29
905.386	4471.74
905.565	3298.25
905.743	3529.67
905.922	3646.41
906.1	3834.82
906.279	3228.62
906.457	3169.23
906.636	3603.4
906.814	3589.07
906.993	3380.17
907.171	3277.77
907.35	3660.74
907.528	3822.53
907.707	3511.24
907.885	3249.1
908.063	3855.3
908.242	3326.93
908.42	3376.08
908.598	2972.63
908.777	3654.6
908.955	3255.25
909.133	3380.17
909.311	3158.99
909.49	3376.08
909.668	3517.39
909.846	3339.21
910.024	3007.44
910.202	3570.63
910.38	3611.59
910.559	3077.07
910.737	3044.31
910.915	3693.51
911.093	3591.11
911.271	3290.06
911.449	3541.96
911.627	3685.32
911.805	4043.71
911.983	3376.08
912.161	3302.35
912.339	3814.34
912.517	4080.58
912.695	3613.64
912.872	3464.14
913.05	3421.13
913.228	3832.77
913.406	3507.15
913.584	3285.97
913.762	3904.45
913.939	3625.93
914.117	3255.25
914.295	3443.66
914.473	3771.33
914.65	3828.68
914.828	3478.47
915.006	3257.29
915.184	3349.45
915.361	3658.7
915.539	3451.85
915.716	3564.49
915.894	3722.18
916.072	3728.33
916.249	3515.34
916.427	3324.88
916.604	3363.79
916.782	3713.99
916.959	3214.29
917.137	3328.97
917.314	3584.97
917.492	3703.75
917.669	3437.52
917.847	3398.6
918.024	3666.89
918.201	3326.93
918.379	3466.19
918.556	3326.93
918.733	3861.45
918.911	3548.11
919.088	3498.95
919.265	3292.11
919.442	3763.14
919.62	3525.58
919.797	3163.09
919.974	3056.59
920.151	3744.71
920.328	3634.12
920.506	3367.88
920.683	3439.56
920.86	3304.4
921.037	3347.4
921.214	3290.06
921.391	3171.28
921.568	3724.23
921.745	3181.52
921.922	3281.87
922.099	3036.11
922.276	3683.27
922.453	3441.61
922.63	3138.51
922.807	3447.76
922.984	3404.75
923.161	3328.97
923.338	3195.86
923.514	3154.9
923.691	3414.99
923.868	3441.61
924.045	3093.46
924.222	2962.39
924.399	3398.6
924.575	3664.84
924.752	3126.22
924.929	3132.37
925.105	3513.29
925.282	3171.28
925.459	3208.14
925.635	3048.4
925.812	3343.31
925.989	3122.13
926.165	3255.25
926.342	2888.66
926.518	3140.56
926.695	3285.97
926.871	3079.12
927.048	2886.61
927.224	3419.08
927.401	3113.94
927.577	3107.79
927.754	2816.98
927.93	3537.87
928.107	3404.75
928.283	2816.98
928.459	3142.61
928.636	3328.97
928.812	3199.95
928.988	2919.38
929.165	2814.93
929.341	3228.62
929.517	3230.67
929.693	3410.89
929.87	2610.14
930.046	3281.87
930.222	2986.96
930.398	2829.27
930.574	2876.37
930.751	3046.35
930.927	2892.76
931.103	2831.32
931.279	2776.02
931.455	2814.93
931.631	3204.05
931.807	2569.18
931.983	2636.76
932.159	2714.58
932.335	2974.67
932.511	2737.11
932.687	2599.9
932.863	2855.89
933.039	2716.63
933.215	2503.64
933.391	2434.01
933.566	2935.76
933.742	2894.8
933.918	2571.22
934.094	2376.67
934.27	2706.39
934.445	2763.73
934.621	2696.15
934.797	2356.19
934.973	2995.15
935.148	2667.48
935.324	2302.94
935.5	2151.39
935.675	2808.79
935.851	2636.76
936.027	2341.85
936.202	2395.1
936.378	2509.79
936.553	2552.79
936.729	2669.53
936.904	2063.33
937.08	1993.7
937.255	2067.42
937.431	1932.26
937.606	1825.76
937.782	2157.54
937.957	2118.62
938.133	1960.93
938.308	1889.25
938.483	2010.08
938.659	1827.81
938.834	1930.21
939.009	1674.21
939.185	1942.5
939.36	1790.95
939.535	1430.51
939.71	1813.48
939.886	2122.72
940.061	2003.94
940.236	1889.25
940.411	1598.44
940.586	2114.53
940.761	2051.04
940.937	1575.91
941.112	1491.95
941.287	1866.72
941.462	1782.76
941.637	1418.22
941.812	1565.67
941.987	1762.28
942.162	1737.7
942.337	1580.01
942.512	1453.03
942.687	1934.31
942.862	1805.28
943.037	1387.5
943.212	1246.19
943.386	1649.64
943.561	1807.33
943.736	1594.34
943.911	1772.52
944.086	1770.47
944.26	1784.8
944.435	1481.71
944.61	1491.95
944.785	2089.95
944.959	2081.76
945.134	1483.75
945.309	1375.21
945.483	1502.19
945.658	1930.21
945.833	1147.89
946.007	1264.62
946.182	2005.99
946.357	1471.47
946.531	1354.73
946.706	1291.24
946.88	1315.82
947.055	1764.33
947.229	1532.9
947.404	1262.57
947.578	1973.22
947.752	1530.86
947.927	1352.68
948.101	1270.76
948.276	1688.55
948.45	1766.37
948.624	1645.54
948.799	1428.46
948.973	1846.24
949.147	1364.97
949.321	1631.21
949.496	1496.04
949.67	2024.42
949.844	1655.78
950.018	1506.28
950.193	1493.99
950.367	2188.25
950.541	1682.41
950.715	1706.98
950.889	1643.49
951.063	1680.36
951.237	1881.06
951.411	1313.77
951.585	1285.1
951.759	1911.78
951.933	1754.09
952.107	1444.84
952.281	1616.87
952.455	2155.49
952.629	1979.36
952.803	1532.9
952.977	1561.58
953.151	1917.92
953.325	1809.38
953.499	1706.98
953.672	1457.13
953.846	1633.26
954.02	1657.83
954.194	1565.67
954.368	1461.23
954.541	1944.55
954.715	1764.33
954.889	1711.08
955.062	1467.37
955.236	1774.56
955.41	1821.67
955.583	1833.96
955.757	1367.02
955.93	1780.71
956.104	1588.2
956.278	1483.75
956.451	1690.6
956.625	1856.48
956.798	2294.75
956.972	1950.69
957.145	1557.48
957.319	1883.11
957.492	1715.17
957.665	1745.89
957.839	1553.38
958.012	1975.27
958.185	1829.86
958.359	1663.97
958.532	1784.8
958.705	1958.88
958.879	1993.7
959.052	1635.3
959.225	1506.28
959.398	1799.14
959.572	1981.41
959.745	1637.35
959.918	1713.13
960.091	1825.76
960.264	1969.12
960.438	1430.51
960.611	1627.11
960.784	2005.99
960.957	1856.48
961.13	2059.23
961.303	1557.48
961.476	1836
961.649	2055.14
961.822	1516.52
961.995	1700.84
962.168	1946.59
962.341	1893.35
962.514	1569.77
962.686	1575.91
962.859	1940.45
963.032	2044.9
963.205	1516.52
963.378	1455.08
963.551	2083.81
963.723	1901.54
963.896	1803.24
964.069	1749.99
964.242	1807.33
964.414	2075.62
964.587	1684.45
964.76	1698.79
964.932	1848.29
965.105	1825.76
965.278	1598.44
965.45	1532.9
965.623	1993.7
965.795	1930.21
965.968	1586.15
966.14	1502.19
966.313	1807.33
966.485	1823.72
966.658	1557.48
966.83	1618.92
967.003	2145.25
967.175	2034.66
967.348	1643.49
967.52	1639.4
967.692	2270.17
967.865	1864.68
968.037	1493.99
968.209	1854.44
968.382	1711.08
968.554	1930.21
968.726	1623.02
968.898	1637.35
969.071	1842.15
969.243	2005.99
969.415	1666.02
969.587	1715.17
969.759	2284.51
969.932	2034.66
970.104	1680.36
970.276	1362.92
970.448	1616.87
970.62	1557.48
970.792	1588.2
970.964	1496.04
971.136	2182.11
971.308	1913.83
971.48	1471.47
971.652	1522.66
971.824	2108.38
971.996	1676.26
972.168	1727.46
972.339	1547.24
972.511	1940.45
972.683	1639.4
972.855	1805.28
973.027	1557.48
973.199	1803.24
973.37	1895.4
973.542	1668.07
973.714	1612.78
973.886	1741.8
974.057	1909.73
974.229	1389.55
974.401	1496.04
974.572	1584.1
974.744	1293.29
974.915	1344.49
975.087	1442.79
975.259	2126.82
975.43	1532.9
975.602	1426.41
975.773	1326.06
975.945	1375.21
976.116	1940.45
976.288	1387.5
976.459	1692.65
976.63	1502.19
976.802	1745.89
976.973	1383.4
977.145	1543.14
977.316	2073.57
977.487	1969.12
977.659	1555.43
977.83	1483.75
978.001	2018.27
978.172	1657.83
978.344	1465.32
978.515	1491.95
978.686	1618.92
978.857	1999.84
979.028	1436.65
979.2	1319.92
979.371	1897.44
979.542	1631.21
979.713	1565.67
979.884	959.47
980.055	1412.07
980.226	1534.95
980.397	1231.85
980.568	1246.19
980.739	1817.57
980.91	1414.12
981.081	1545.19
981.252	1336.3
981.423	1643.49
981.594	1737.7
981.765	1199.09
981.936	1477.61
982.106	1530.86
982.277	1844.2
982.448	1258.48
982.619	1434.6
982.79	1522.66
982.96	1721.32
983.131	1321.96
983.302	1143.79
983.472	1410.03
983.643	1567.72
983.814	1422.31
983.984	1166.32
984.155	1467.37
984.326	1854.44
984.496	1412.07
984.667	1324.01
984.837	1422.31
985.008	1950.69
985.178	1510.38
985.349	1315.82
985.519	1401.83
985.69	1209.33
985.86	1274.86
986.031	1147.89
986.201	1559.53
986.371	1600.49
986.542	1072.11
986.712	1082.35
986.882	1575.91
987.053	1475.56
987.223	1162.22
987.393	1317.87
987.563	1358.83
987.734	1504.23
987.904	1586.15
988.074	1192.94
988.244	1422.31
988.414	1262.57
988.585	1133.55
988.755	1319.92
988.925	1270.76
989.095	1768.42
989.265	994.29
989.435	1235.95
989.605	1483.75
989.775	1500.14
989.945	1338.35
990.115	953.33
990.285	1401.83
990.455	1334.25
990.625	1164.27
990.795	1012.72
990.965	1573.86
991.134	1041.39
991.304	1035.25
991.474	1061.87
991.644	1508.33
991.814	1721.32
991.984	877.55
992.153	1045.49
992.323	1166.32
992.493	1467.37
992.662	764.92
992.832	1291.24
993.002	1238
993.171	1438.7
993.341	936.95
993.511	1092.59
993.68	1233.9
993.85	1471.47
994.019	904.18
994.189	881.65
994.358	1291.24
994.528	1063.92
994.697	803.83
994.867	846.84
995.036	1475.56
995.206	1092.59
995.375	900.08
995.544	1113.07
995.714	1328.11
995.883	998.38
996.052	1041.39
996.222	572.41
996.391	1620.97
996.56	1174.51
996.73	758.77
996.899	701.43
997.068	1586.15
997.237	1082.35
997.406	855.03
997.576	717.81
997.745	1207.28
997.914	1125.36
998.083	642.04
998.252	797.68
998.421	1119.21
998.59	1037.3
998.759	691.19
998.928	646.13
999.097	1321.96
999.266	1178.61
999.435	992.24
999.604	736.24
999.773	1526.76
999.942	1149.93
1000.111	656.37
1000.28	619.51
1000.448	848.88
1000.617	914.42
1000.786	908.27
1000.955	553.98
1001.124	1182.7
1001.292	1692.65
1001.461	795.64
1001.63	674.81
1001.798	1221.61
1001.967	1412.07
1002.136	568.31
1002.304	506.87
1002.473	1143.79
1002.642	996.34
1002.81	781.3
1002.979	646.13
1003.147	1225.71
1003.316	1567.72
1003.484	693.24
1003.653	615.41
1003.821	1295.34
1003.99	898.03
1004.158	779.25
1004.327	711.67
1004.495	1156.08
1004.663	742.39
1004.832	752.63
1005	476.15
1005.168	1149.93
1005.337	979.95
1005.505	558.07
1005.673	824.31
1005.842	1104.88
1006.01	977.91
1006.178	521.21
1006.346	525.3
1006.514	947.19
1006.683	1168.37
1006.851	562.17
1007.019	756.72
1007.187	801.78
1007.355	513.02
1007.523	402.43
1007.691	441.34
1007.859	541.69
1008.027	1197.04
1008.195	615.41
1008.363	400.38
1008.531	1063.92
1008.699	687.09
1008.867	494.58
1009.035	558.07
1009.203	1057.78
1009.37	934.9
1009.538	517.11
1009.706	953.33
1009.874	889.84
1010.042	812.02
1010.209	422.91
1010.377	480.25
1010.545	1000.43
1010.713	955.38
1010.88	443.39
1011.048	525.3
1011.216	807.92
1011.383	1254.38
1011.551	474.1
1011.718	334.84
1011.886	1076.21
1012.054	824.31
1012.221	373.75
1012.389	404.47
1012.556	697.33
1012.724	1256.43
1012.891	547.83
1013.058	373.75
1013.226	918.51
1013.393	973.81
1013.561	328.7
1013.728	238.59
1013.895	947.19
1014.063	914.42
1014.23	353.27
1014.397	340.99
1014.565	1012.72
1014.732	633.85
1014.899	271.36
1015.066	279.55
1015.233	715.77
1015.401	818.16
1015.568	480.25
1015.735	437.24
1015.902	689.14
1016.069	814.07
1016.236	297.98
1016.403	295.93
1016.57	525.3
1016.737	889.84
1016.904	357.37
1017.071	191.49
1017.238	574.46
1017.405	975.86
1017.572	351.23
1017.739	519.16
1017.906	803.83
1018.073	879.6
1018.24	197.63
1018.407	324.6
1018.573	967.67
1018.74	623.61
1018.907	406.52
1019.074	107.52
1019.241	902.13
1019.407	644.09
1019.574	179.2
1019.741	160.77
1019.907	721.91
1020.074	912.37
1020.241	33.79
1020.407	158.72
1020.574	791.54
1020.74	816.12
1020.907	248.83
1021.073	232.44
1021.24	1094.64
1021.406	943.09
1021.573	263.16
1021.739	287.74
1021.906	859.12
1022.072	599.03
1022.239	287.74
1022.405	304.12
1022.571	656.37
1022.738	492.54
1022.904	246.78
1023.07	320.51
1023.237	592.89
1023.403	904.18
1023.569	224.25
1023.735	240.64
1023.902	664.57
1024.068	746.48
1024.234	177.15
1024.4	205.82
1024.566	713.72
1024.732	777.2
1024.898	228.35
1025.065	95.23
1025.231	848.88
1025.397	478.2
1025.563	222.2
1025.729	125.95
1025.895	123.9
1026.061	355.32
1026.227	39.94
1026.392	232.44
1026.558	803.83
1026.724	648.18
1026.89	95.23
1027.056	287.74
1027.222	652.28
1027.388	343.03
1027.553	164.86
1027.719	113.66
1027.885	893.94
1028.051	674.81
1028.216	-13.31
1028.382	173.05
1028.548	721.91
1028.713	435.19
1028.879	9.22
1029.045	228.35
1029.21	828.4
1029.376	848.88
1029.541	205.82
1029.707	134.14
1029.873	726
1030.038	717.81
1030.204	162.81
1030.369	179.2
1030.534	730.1
1030.7	461.82
1030.865	125.95
1031.031	9.22
1031.196	537.59
1031.361	564.22
1031.527	15.36
1031.692	95.23
1031.857	171.01
1032.023	646.13
1032.188	54.27
1032.353	115.71
1032.518	898.03
1032.684	594.93
1032.849	-21.5
1033.014	125.95
1033.179	711.67
1033.344	709.62
1033.509	230.4
1033.674	95.23
1033.839	689.14
1034.004	621.56
1034.17	154.62
1034.335	-11.26
1034.5	406.52
1034.664	386.04
1034.829	5.12
1034.994	109.57
1035.159	515.06
1035.324	564.22
1035.489	128
1035.654	48.13
1035.819	822.26
1035.984	615.41
1036.148	191.49
1036.313	93.18
1036.478	691.19
1036.643	484.34
1036.807	89.09
1036.972	-17.41
1037.137	740.34
1037.301	513.02
1037.466	-68.61
1037.631	146.43
1037.795	748.53
1037.96	553.98
1038.124	287.74
1038.289	-23.55
1038.454	642.04
1038.618	592.89
1038.783	62.46
1038.947	183.29
1039.111	465.91
1039.276	349.18
1039.44	-74.75
1039.605	521.21
1039.769	418.81
1039.933	488.44
1040.098	136.19
1040.262	269.31
1040.426	639.99
1040.591	627.7
1040.755	70.65
1040.919	113.66
1041.083	451.58
1041.248	338.94
1041.412	-89.09
1041.576	31.74
1041.74	418.81
1041.904	523.26
1042.068	29.7
1042.232	58.37
1042.397	582.65
1042.561	582.65
1042.725	-191.49
1042.889	259.07
1043.053	680.95
1043.217	488.44
1043.381	132.09
1043.544	-105.47
1043.708	697.33
1043.872	150.53
1044.036	-89.09
1044.2	-29.7
1044.364	672.76
1044.528	672.76
1044.691	4879.29
1044.855	-31.74
1045.019	566.26
1045.183	463.86
1045.346	111.61
1045.51	66.56
1045.674	510.97
1045.837	576.5
1046.001	37.89
1046.165	-35.84
1046.328	879.6
1046.492	482.3
1046.655	205.82
1046.819	140.29
1046.983	257.02
1047.146	500.73
1047.31	99.33
1047.473	-168.96
1047.636	476.15
1047.8	254.97
1047.963	68.61
1048.127	52.22
1048.29	183.29
