Data from Hydrogel_Ink_Intensity_Test_1_USB4F045381__63__00063.txt Node

Date: Mon Jul 31 10:52:52 EDT 2023
User: mmckonesweet
Spectrometer: USB4F04538
Trigger mode: 4
Integration Time (sec): 9.000000E-1
Scans to average: 1
Electric dark correction enabled: true
Nonlinearity correction enabled: false
Boxcar width: 0
XAxis mode: Wavelengths
Number of Pixels in Spectrum: 3648
>>>>>Begin Spectral Data<<<<<
345.52	-1027.91
345.736	-1027.91
345.952	-1027.91
346.168	-1036.1
346.384	-927.56
346.6	-112.47
346.816	-221.01
347.032	-126.8
347.248	282.79
347.464	-266.07
347.68	-135
347.896	51.37
348.112	397.48
348.328	-55.12
348.544	-120.66
348.76	43.18
348.975	262.31
349.191	-249.68
349.407	-153.43
349.623	12.46
349.839	-77.65
350.055	-75.6
350.27	18.6
350.486	194.73
350.702	247.97
350.918	166.06
351.133	-182.1
351.349	92.33
351.565	397.48
351.781	-147.28
351.996	51.37
352.212	344.23
352.428	-169.81
352.644	-153.43
352.859	-178
353.075	364.71
353.291	51.37
353.506	-75.6
353.722	-223.06
353.938	2.22
354.153	415.91
354.369	143.53
354.584	-227.15
354.8	346.28
355.016	-251.73
355.231	-206.67
355.447	-51.03
355.662	100.52
355.878	870.56
356.093	-313.17
356.309	10.41
356.524	-161.62
356.74	272.55
356.955	-241.49
357.171	-30.55
357.386	190.63
357.602	-141.14
357.817	-63.32
358.033	-149.33
358.248	364.71
358.464	135.34
358.679	-116.56
358.895	-329.55
359.11	14.51
359.325	254.12
359.541	252.07
359.756	34.99
359.972	-268.11
360.187	252.07
360.402	-153.43
360.618	-132.95
360.833	1042.59
361.048	139.43
361.264	-137.04
361.479	47.27
361.694	53.42
361.909	202.92
362.125	-182.1
362.34	-96.08
362.555	256.17
362.77	131.24
362.986	-214.87
363.201	-169.81
363.416	247.97
363.631	106.67
363.847	-178
364.062	-145.24
364.277	258.21
364.492	188.58
364.707	-83.8
364.922	-319.31
365.138	340.13
365.353	354.47
365.568	-145.24
365.783	-135
365.998	69.8
366.213	622.75
366.428	-171.86
366.643	57.51
366.858	325.8
367.073	223.4
367.288	-85.84
367.503	-268.11
367.718	129.19
367.933	383.14
368.148	-319.31
368.363	-38.74
368.578	-51.03
368.793	452.77
369.008	-100.18
369.223	-200.53
369.438	213.16
369.653	420
369.868	-204.63
370.083	-261.97
370.298	135.34
370.513	403.62
370.728	75.95
370.943	-202.58
371.157	-184.15
371.372	536.74
371.587	-214.87
371.802	-186.19
372.017	55.47
372.232	512.16
372.446	51.37
372.661	-208.72
372.876	225.45
373.091	215.21
373.306	-20.31
373.52	-264.02
373.735	-194.39
373.95	356.52
374.165	-94.04
374.379	-59.22
374.594	-155.47
374.809	182.44
375.023	63.66
375.238	-227.15
375.453	344.23
375.667	-198.48
375.882	-124.76
376.097	-198.48
376.311	61.61
376.526	-12.12
376.741	-116.56
376.955	190.63
377.17	618.66
377.384	606.37
377.599	-94.04
377.813	-210.77
378.028	506.02
378.242	178.34
378.457	-46.93
378.672	-304.98
378.886	92.33
379.101	16.55
379.315	-347.98
379.53	-44.88
379.744	282.79
379.958	190.63
380.173	-124.76
380.387	-137.04
380.602	200.87
380.816	32.94
381.031	-149.33
381.245	-124.76
381.459	192.68
381.674	2779.26
381.888	-87.89
382.103	63.66
382.317	-157.52
382.531	553.12
382.746	-102.23
382.96	-85.84
383.174	-44.88
383.388	436.39
383.603	37.03
383.817	-241.49
384.031	157.86
384.246	475.3
384.46	-3.93
384.674	383.14
384.888	24.75
385.103	166.06
385.317	-235.35
385.531	-40.79
385.745	493.73
385.959	413.86
386.174	-104.28
386.388	-235.35
386.602	37.03
386.816	-79.7
387.03	-65.36
387.244	-38.74
387.458	102.57
387.672	501.92
387.887	-208.72
388.101	-223.06
388.315	350.37
388.529	198.82
388.743	-141.14
388.957	-100.18
389.171	415.91
389.385	-135
389.599	-34.64
389.813	131.24
390.027	239.78
390.241	704.67
390.455	-81.75
390.669	-34.64
390.883	-38.74
391.097	501.92
391.311	141.48
391.525	-34.64
391.738	325.8
391.952	270.5
392.166	55.47
392.38	-137.04
392.594	432.29
392.808	426.15
393.022	-112.47
393.236	-5.97
393.449	354.47
393.663	295.08
393.877	-175.95
394.091	-20.31
394.305	-30.55
394.518	-87.89
394.732	-143.19
394.946	-46.93
395.16	422.05
395.373	153.77
395.587	-114.52
395.801	-128.85
396.015	348.33
396.228	327.85
396.442	-167.76
396.656	-196.43
396.869	395.43
397.083	569.51
397.297	10.41
397.51	-81.75
397.724	413.86
397.938	284.84
398.151	-200.53
398.365	-175.95
398.578	280.74
398.792	444.58
399.005	133.29
399.219	-91.99
399.433	360.61
399.646	254.12
399.86	65.71
400.073	37.03
400.287	250.02
400.5	12.46
400.714	43.18
400.927	12.46
401.141	432.29
401.354	1177.75
401.567	280.74
401.781	-167.76
401.994	413.86
402.208	698.53
402.421	-42.84
402.635	-71.51
402.848	227.5
403.061	383.14
403.275	55.47
403.488	-5.97
403.701	583.84
403.915	372.9
404.128	75.95
404.341	-83.8
404.555	299.17
404.768	108.71
404.981	112.81
405.195	-30.55
405.408	680.1
405.621	346.28
405.834	151.72
406.048	-69.46
406.261	497.83
406.474	495.78
406.687	-137.04
406.9	86.19
407.114	213.16
407.327	395.43
407.54	-218.96
407.753	-221.01
407.966	2.22
408.179	366.76
408.392	-116.56
408.605	-173.91
408.819	301.22
409.032	319.65
409.245	-46.93
409.458	141.48
409.671	336.04
409.884	460.96
410.097	-116.56
410.31	88.23
410.523	317.61
410.736	104.62
410.949	69.8
411.162	57.51
411.375	532.64
411.588	469.16
411.801	151.72
412.014	-69.46
412.227	125.1
412.44	63.66
412.653	-22.36
412.865	184.49
413.078	428.2
413.291	403.62
413.504	77.99
413.717	-178
413.93	465.06
414.143	10.41
414.356	14.51
414.568	-151.38
414.781	501.92
414.994	293.03
415.207	94.38
415.42	55.47
415.632	420
415.845	698.53
416.058	-98.13
416.271	-46.93
416.483	305.32
416.696	596.13
416.909	-44.88
417.121	-26.45
417.334	372.9
417.547	694.43
417.759	-69.46
417.972	-38.74
418.185	121
418.397	415.91
418.61	-87.89
418.823	6.31
419.035	616.61
419.248	123.05
419.46	149.67
419.673	143.53
419.885	393.38
420.098	192.68
420.311	-22.36
420.523	-190.29
420.736	460.96
420.948	303.27
421.161	-30.55
421.373	-118.61
421.586	338.09
421.798	161.96
422.01	-73.56
422.223	135.34
422.435	106.67
422.648	452.77
422.86	20.65
423.073	-18.26
423.285	540.83
423.497	10.41
423.71	-18.26
423.922	-59.22
424.134	440.48
424.347	637.09
424.559	313.51
424.771	262.31
424.984	211.11
425.196	342.18
425.408	-85.84
425.621	-63.32
425.833	575.65
426.045	628.9
426.257	-51.03
426.47	100.52
426.682	405.67
426.894	360.61
427.106	96.43
427.318	51.37
427.531	88.23
427.743	471.2
427.955	96.43
428.167	499.88
428.379	438.44
428.591	204.97
428.804	198.82
429.016	10.41
429.228	243.88
429.44	383.14
429.652	235.69
429.864	-30.55
430.076	288.93
430.288	327.85
430.5	88.23
430.712	141.48
430.924	518.31
431.136	368.81
431.348	-63.32
431.56	55.47
431.772	243.88
431.984	217.26
432.196	-3.93
432.408	77.99
432.62	217.26
432.832	485.54
433.044	387.24
433.256	229.54
433.468	534.69
433.679	18.6
433.891	30.89
434.103	333.99
434.315	655.52
434.527	510.11
434.739	176.3
434.95	215.21
435.162	520.35
435.374	262.31
435.586	168.1
435.798	166.06
436.009	88.23
436.221	379.04
436.433	135.34
436.645	110.76
436.856	247.97
437.068	637.09
437.28	121
437.491	397.48
437.703	632.99
437.915	465.06
438.126	207.02
438.338	432.29
438.55	364.71
438.761	471.2
438.973	223.4
439.184	243.88
439.396	301.22
439.608	565.41
439.819	108.71
440.031	239.78
440.242	520.35
440.454	587.94
440.665	219.3
440.877	280.74
441.088	585.89
441.3	368.81
441.511	12.46
441.723	159.91
441.934	370.85
442.146	463.01
442.357	338.09
442.569	397.48
442.78	360.61
442.991	866.46
443.203	538.79
443.414	8.36
443.626	735.39
443.837	254.12
444.048	92.33
444.26	90.28
444.471	456.87
444.682	708.77
444.894	-8.02
445.105	-18.26
445.316	690.34
445.528	569.51
445.739	329.89
445.95	272.55
446.161	481.44
446.373	719.01
446.584	272.55
446.795	268.45
447.006	673.95
447.217	872.61
447.429	55.47
447.64	174.25
447.851	774.3
448.062	473.25
448.273	18.6
448.484	164.01
448.695	530.59
448.907	372.9
449.118	286.89
449.329	471.2
449.54	282.79
449.751	333.99
449.962	196.78
450.173	262.31
450.384	774.3
450.595	856.22
450.806	227.5
451.017	329.89
451.228	776.35
451.439	755.87
451.65	243.88
451.861	-30.55
452.072	356.52
452.283	465.06
452.494	526.5
452.705	286.89
452.915	964.76
453.126	645.28
453.337	270.5
453.548	196.78
453.759	817.31
453.97	1112.22
454.181	510.11
454.391	288.93
454.602	563.36
454.813	733.34
455.024	360.61
455.235	301.22
455.445	624.8
455.656	616.61
455.867	372.9
456.078	342.18
456.288	399.52
456.499	798.88
456.71	286.89
456.921	540.83
457.131	659.62
457.342	651.42
457.553	434.34
457.763	284.84
457.974	735.39
458.184	778.4
458.395	252.07
458.606	182.44
458.816	944.28
459.027	1083.55
459.237	542.88
459.448	290.98
459.659	852.13
459.869	1239.19
460.08	284.84
460.29	477.35
460.501	1134.75
460.711	514.21
460.922	313.51
461.132	432.29
461.343	1390.74
461.553	356.52
461.764	368.81
461.974	514.21
462.184	854.17
462.395	835.74
462.605	444.58
462.816	366.76
463.026	735.39
463.236	1042.59
463.447	411.81
463.657	444.58
463.867	932
464.078	725.15
464.288	458.92
464.498	536.74
464.709	700.58
464.919	811.17
465.129	530.59
465.339	458.92
465.55	870.56
465.76	917.66
465.97	407.72
466.18	520.35
466.391	1013.92
466.601	921.76
466.811	649.38
467.021	420
467.231	981.15
467.441	1114.27
467.651	729.25
467.862	338.09
468.072	872.61
468.282	1179.8
468.492	559.27
468.702	725.15
468.912	927.9
469.122	1431.7
469.332	1007.77
469.542	544.93
469.752	1169.56
469.962	948.38
470.172	651.42
470.382	690.34
470.592	1116.31
470.802	1298.58
471.012	921.76
471.222	667.81
471.432	1222.81
471.642	1241.24
471.852	940.19
472.062	682.14
472.272	929.95
472.482	913.56
472.691	774.3
472.901	731.3
473.111	1089.69
473.321	1599.63
473.531	788.64
473.741	960.67
473.95	1286.3
474.16	1329.3
474.37	1048.73
474.58	856.22
474.79	1546.39
474.999	1423.51
475.209	903.32
475.419	919.71
475.628	1177.75
475.838	1546.39
476.048	1050.78
476.258	868.51
476.467	1546.39
476.677	1190.04
476.886	1190.04
477.096	1296.53
477.306	1198.23
477.515	1581.2
477.725	1132.7
477.935	1153.18
478.144	1679.51
478.354	1233.05
478.563	1163.42
478.773	1233.05
478.982	1530
479.192	1640.59
479.401	1251.48
479.611	1132.7
479.82	1302.68
480.03	1607.83
480.239	1183.9
480.449	1190.04
480.658	1904.78
480.868	1462.42
481.077	1427.6
481.287	1423.51
481.496	1730.7
481.705	1896.59
481.915	1681.55
482.124	1665.17
482.333	1734.8
482.543	2115.72
482.752	1552.53
482.961	1329.3
483.171	1841.29
483.38	1722.51
483.589	1624.21
483.799	1476.76
484.008	1722.51
484.217	2025.61
484.426	1603.73
484.636	1460.37
484.845	1786
485.054	1630.35
485.263	1931.41
485.472	1599.63
485.682	2324.62
485.891	1945.74
486.1	1484.95
486.309	1734.8
486.518	2054.28
486.727	2338.95
486.936	1642.64
487.146	1773.71
487.355	2300.04
487.564	1890.45
487.773	1779.86
487.982	1656.98
488.191	1904.78
488.4	2054.28
488.609	1829.01
488.818	1837.2
489.027	2570.37
489.236	2551.94
489.445	1839.25
489.654	1779.86
489.863	2449.54
490.072	2248.84
490.281	2283.66
490.49	1951.88
490.698	2506.88
490.907	2640
491.116	1906.83
491.325	1753.23
491.534	2603.14
491.743	2414.73
491.952	2076.81
492.16	2115.72
492.369	2312.33
492.578	2566.28
492.787	2287.75
492.996	1937.55
493.204	2216.07
493.413	2828.42
493.622	1935.5
493.831	1955.98
494.039	2836.61
494.248	2226.31
494.457	2193.55
494.665	2185.35
494.874	2545.8
495.083	2943.1
495.291	2177.16
495.5	2144.39
495.709	2652.29
495.917	2744.45
496.126	2320.52
496.335	2158.73
496.543	2594.95
496.752	2752.64
496.96	2574.47
497.169	2072.72
497.377	2627.71
497.586	2959.49
497.794	2519.17
498.003	2226.31
498.211	2721.92
498.42	3018.88
498.628	2508.93
498.837	2312.33
499.045	2867.33
499.254	2721.92
499.462	2427.01
499.671	2384.01
499.879	3309.69
500.087	3022.97
500.296	2506.88
500.504	2506.88
500.713	2857.09
500.921	3344.5
501.129	2502.79
501.338	2470.02
501.546	2750.59
501.754	2807.94
501.962	2592.9
502.171	2605.19
502.379	2885.76
502.587	3328.12
502.795	2648.19
503.004	2640
503.212	2879.61
503.42	3121.28
503.628	2844.8
503.837	2863.23
504.045	3158.14
504.253	3262.58
504.461	2660.48
504.669	2543.75
504.877	3096.7
505.085	3354.74
505.294	2631.81
505.502	2906.24
505.71	3037.31
505.918	3266.68
506.126	2625.67
506.334	2740.35
506.542	3004.54
506.75	3162.23
506.958	2766.98
507.166	2857.09
507.374	3072.12
507.582	3473.53
507.79	3022.97
507.998	2777.22
508.206	3186.81
508.414	3338.36
508.622	2840.7
508.83	2941.05
509.037	3643.51
509.245	3299.45
509.453	2828.42
509.661	2771.07
509.869	3487.86
510.077	3268.73
510.285	3098.75
510.492	2615.43
510.7	3887.22
510.908	3123.32
511.116	2910.33
511.324	2840.7
511.531	3242.11
511.739	3551.35
511.947	3238.01
512.155	3352.7
512.362	3293.3
512.57	3068.03
512.778	3039.36
512.985	2807.94
513.193	3520.63
513.401	3696.75
513.608	3119.23
513.816	3018.88
514.024	3494.01
514.231	3672.18
514.439	3133.56
514.646	3139.71
514.854	3768.43
515.061	3614.84
515.269	3123.32
515.477	3266.68
515.684	3283.06
515.892	3750
516.099	3039.36
516.307	3041.4
516.514	3721.33
516.722	3856.5
516.929	3594.36
517.136	3143.8
517.344	3674.23
517.551	3512.44
517.759	3147.9
517.966	3369.08
518.173	3401.85
518.381	3461.24
518.588	3405.94
518.796	3156.09
519.003	3876.98
519.21	3588.21
519.418	3358.84
519.625	3721.33
519.832	3545.2
520.039	3616.88
520.247	3188.86
520.454	3481.72
520.661	3954.8
520.868	3864.69
521.076	3383.42
521.283	3530.87
521.49	4278.38
521.697	3897.46
521.904	3514.49
522.112	3360.89
522.319	3858.54
522.526	3745.91
522.733	3418.23
522.94	3397.75
523.147	3889.26
523.354	3985.52
523.561	3293.3
523.768	3510.39
523.975	4231.27
524.183	3950.7
524.39	3688.56
524.597	3463.29
524.804	3838.06
525.011	3725.43
525.218	3518.58
525.425	3577.97
525.632	4223.08
525.838	3815.54
526.045	3645.56
526.252	3735.67
526.459	5300.31
526.666	4827.23
526.873	3647.6
527.08	3721.33
527.287	4243.56
527.494	4153.45
527.701	3528.82
527.907	3696.75
528.114	4249.71
528.321	3967.09
528.528	3659.89
528.735	3840.11
528.941	3891.31
529.148	3829.87
529.355	4032.62
529.562	3709.04
529.768	4393.06
529.975	4077.68
530.182	3885.17
530.388	3733.62
530.595	4266.09
530.802	3680.37
531.008	4137.07
531.215	3858.54
531.422	5005.41
531.628	4837.47
531.835	3944.56
532.042	4032.62
532.248	4020.33
532.455	4188.27
532.661	4085.87
532.868	3899.5
533.074	4321.38
533.281	4577.38
533.487	4018.29
533.694	3919.98
533.9	4145.26
534.107	4261.99
534.313	4020.33
534.52	4014.19
534.726	4485.22
534.933	4821.09
535.139	4008.05
535.345	3979.37
535.552	4468.84
535.758	4356.2
535.965	4196.46
536.171	4182.12
536.377	4659.3
536.584	4812.9
536.79	4151.4
536.996	4253.8
537.203	4632.68
537.409	4542.57
537.615	4143.21
537.821	4335.72
538.028	4679.78
538.234	4659.3
538.44	4102.25
538.646	4300.91
538.853	4673.64
539.059	4431.98
539.265	4671.59
539.471	3956.85
539.677	4655.2
539.883	4468.84
540.09	4335.72
540.296	4847.71
540.502	4733.03
540.708	4366.44
540.914	4710.5
541.12	4472.93
541.326	4829.28
541.532	4829.28
541.738	4565.09
541.944	4384.87
542.15	4993.12
542.356	4565.09
542.562	4241.51
542.768	4397.16
542.974	5167.2
543.18	5265.5
543.386	4470.89
543.592	4266.09
543.798	5154.91
544.004	5156.96
544.21	4366.44
544.415	4536.42
544.621	4900.96
544.827	4952.16
545.033	4581.48
545.239	4632.68
545.445	4704.35
545.651	4999.26
545.856	4548.71
546.062	4456.55
546.268	4685.92
546.474	4800.61
546.679	4444.26
546.885	4687.97
547.091	4829.28
547.297	5476.44
547.502	4819.04
547.708	4413.54
547.914	4577.38
548.119	5058.65
548.325	4577.38
548.531	4487.27
548.736	5417.05
548.942	4745.31
549.147	4597.86
549.353	4919.39
549.559	5408.86
549.764	5169.24
549.97	4681.83
550.175	4667.49
550.381	5136.48
550.586	4821.09
550.792	4796.51
550.997	4704.35
551.203	5066.85
551.408	5333.08
551.614	4716.64
551.819	4593.76
552.025	5531.73
552.23	5589.08
552.435	4622.44
552.641	5128.28
552.846	4972.64
553.052	5617.75
553.257	4991.07
553.462	4995.17
553.668	5027.93
553.873	5328.99
554.078	4855.9
554.283	4833.38
554.489	5322.84
554.694	5212.25
554.899	4765.79
555.105	5148.76
555.31	5326.94
555.515	5363.8
555.72	5027.93
555.925	4905.06
556.131	5328.99
556.336	5191.77
556.541	4999.26
556.746	5101.66
556.951	5527.64
557.156	5675.09
557.361	5029.98
557.567	5255.26
557.772	5818.45
557.977	5531.73
558.182	5021.79
558.387	5142.62
558.592	5148.76
558.797	5541.97
559.002	5187.68
559.207	5296.22
559.412	5384.28
559.617	5904.46
559.822	5179.48
560.027	5152.86
560.232	5511.25
560.437	5564.5
560.642	5025.89
560.847	5167.2
561.051	5392.47
561.256	5492.82
561.461	5290.07
561.666	5040.22
561.871	5623.89
562.076	5775.44
562.281	5146.72
562.485	5206.11
562.69	5711.96
562.895	5656.66
563.1	5421.14
563.305	5169.24
563.509	5937.23
563.714	5953.62
563.919	5271.64
564.123	5347.42
564.328	5535.83
564.533	6131.79
564.737	5212.25
564.942	5320.79
565.147	5943.38
565.351	6148.17
565.556	5410.9
565.761	5388.38
565.965	5822.55
566.17	5503.06
566.374	5337.18
566.579	5306.46
566.784	5732.44
566.988	5474.39
567.193	5326.94
567.397	5265.5
567.602	5417.05
567.806	5675.09
568.011	5363.8
568.215	5531.73
568.42	5742.68
568.624	5556.31
568.828	5605.46
569.033	5740.63
569.237	5961.81
569.442	5908.56
569.646	5380.18
569.85	5511.25
570.055	5861.46
570.259	5847.12
570.463	5752.91
570.668	5380.18
570.872	5634.13
571.076	5804.11
571.281	5711.96
571.485	5560.41
571.689	5867.6
571.893	6056.01
572.098	5705.81
572.302	5476.44
572.506	5937.23
572.71	5918.8
572.914	5632.08
573.119	5556.31
573.323	6189.13
573.527	6312.01
573.731	5537.88
573.935	5693.52
574.139	5986.38
574.343	5750.87
574.547	5681.24
574.751	5722.2
574.955	6133.84
575.159	6246.48
575.364	5761.11
575.568	5529.69
575.772	6080.59
575.976	6264.91
576.18	5634.13
576.383	5498.97
576.587	6234.19
576.791	6387.79
576.995	5552.21
577.199	5673.04
577.403	6271.05
577.607	6410.31
577.811	5668.95
578.015	5886.03
578.219	6164.56
578.422	6162.51
578.626	5865.55
578.83	6236.24
579.034	6467.66
579.238	6172.75
579.442	5621.84
579.645	5890.13
579.849	6168.65
580.053	6301.77
580.257	5898.32
580.46	5873.75
580.664	6522.95
580.868	6281.29
581.071	6101.07
581.275	6084.69
581.479	5892.18
581.682	6420.55
581.886	5937.23
582.09	6000.72
582.293	6619.21
582.497	6490.18
582.7	6156.36
582.904	5847.12
583.107	6359.11
583.311	6023.25
583.515	6043.73
583.718	5918.8
583.922	6260.81
584.125	6895.68
584.329	5908.56
584.532	6166.6
584.735	6699.08
584.939	6309.96
585.142	5916.75
585.346	6068.3
585.549	6539.33
585.753	6283.34
585.956	6187.08
586.159	6213.71
586.363	6678.6
586.566	6412.36
586.769	5861.46
586.973	6031.44
587.176	6617.16
587.379	6711.36
587.582	6574.15
587.786	6269
587.989	6359.11
588.192	7082.05
588.395	6350.92
588.599	6467.66
588.802	6572.1
589.005	6557.77
589.208	6361.16
589.411	6398.03
589.615	6842.43
589.818	6971.46
590.021	6488.14
590.224	6320.2
590.427	6787.14
590.63	6764.61
590.833	5990.48
591.036	6498.38
591.239	6586.44
591.442	6344.78
591.645	6674.5
591.848	6301.77
592.051	6744.13
592.254	6778.95
592.457	6514.76
592.66	6412.36
592.863	6621.25
593.066	6676.55
593.269	6408.26
593.472	6461.51
593.675	6387.79
593.878	6948.93
594.081	6484.04
594.284	6434.89
594.486	6912.07
594.689	6891.59
594.892	6645.83
595.095	6709.32
595.298	6981.7
595.5	6592.58
595.703	6688.84
595.906	6815.81
596.109	7096.38
596.311	7184.45
596.514	6277.19
596.717	6658.12
596.92	7268.41
597.122	7010.37
597.325	6309.96
597.528	6510.66
597.73	7114.81
597.933	6924.35
598.136	6527.05
598.338	6400.07
598.541	7077.95
598.743	7198.78
598.946	6760.52
599.148	6666.31
599.351	7176.25
599.554	7338.04
599.756	6854.72
599.959	6869.06
600.161	7153.73
600.363	7487.54
600.566	6750.28
600.768	6752.32
600.971	7409.72
601.173	7030.85
601.376	6740.04
601.578	6848.58
601.78	7172.16
601.983	7602.23
602.185	6692.93
602.388	6930.5
602.59	7147.58
602.792	6793.28
602.995	6957.12
603.197	6735.94
603.399	7149.63
603.601	7049.28
603.804	6879.3
604.006	6754.37
604.208	6981.7
604.41	6449.22
604.613	6850.63
604.815	6633.54
605.017	7710.77
605.219	6940.74
605.421	7155.77
605.623	6910.02
605.826	7583.8
606.028	7522.36
606.23	6834.24
606.432	6826.05
606.634	7579.7
606.836	7505.98
607.038	6877.25
607.24	7030.85
607.442	7049.28
607.644	7116.86
607.846	7092.29
608.048	6832.19
608.25	7639.09
608.452	6930.5
608.654	7125.05
608.856	6760.52
609.058	7055.42
609.26	7329.85
609.462	7018.56
609.664	7067.71
609.866	7751.73
610.067	7479.35
610.269	6973.5
610.471	6901.83
610.673	7192.64
610.875	7379
611.077	6879.3
611.278	6934.59
611.48	7301.18
611.682	7624.76
611.884	7211.07
612.085	7149.63
612.287	7141.44
612.489	7299.13
612.69	7006.27
612.892	7022.66
613.094	7505.98
613.295	7329.85
613.497	6928.45
613.699	6959.17
613.9	7710.77
614.102	7309.37
614.304	7016.51
614.505	6766.66
614.707	7192.64
614.908	7456.82
615.11	6647.88
615.311	7256.12
615.513	7450.68
615.714	7559.22
615.916	6928.45
616.117	7114.81
616.319	7180.35
616.52	7536.7
616.722	6932.54
616.923	6887.49
617.124	7575.61
617.326	7346.23
617.527	7135.29
617.729	7309.37
617.93	7684.15
618.131	7321.66
618.333	7067.71
618.534	7116.86
618.735	7288.89
618.937	7723.06
619.138	6993.98
619.339	6989.89
619.54	7415.87
619.742	7307.32
619.943	7182.4
620.144	7043.14
620.345	7659.57
620.546	7659.57
620.748	7145.53
620.949	7229.5
621.15	7651.38
621.351	7616.57
621.552	7202.88
621.753	6848.58
621.954	7125.05
622.155	7936.05
622.356	6869.06
622.558	7241.79
622.759	7624.76
622.96	7882.8
623.161	7135.29
623.362	6967.36
623.563	7325.75
623.764	7358.52
623.965	7350.33
624.166	7456.82
624.366	7440.44
624.567	7526.46
624.768	6903.87
624.969	7080
625.17	7452.73
625.371	7559.22
625.572	7219.26
625.773	6985.79
625.973	7630.9
626.174	7776.31
626.375	7194.68
626.576	7186.49
626.777	7665.72
626.977	7954.48
627.178	7249.98
627.379	7184.45
627.58	7362.62
627.78	7495.74
627.981	7211.07
628.182	7518.26
628.382	7854.13
628.583	7178.3
628.784	7170.11
628.984	7270.46
629.185	7571.51
629.386	7614.52
629.586	7401.53
629.787	7153.73
629.987	7770.16
630.188	7376.95
630.388	7299.13
630.589	7317.56
630.79	8110.13
630.99	7708.73
631.191	7335.99
631.391	7596.09
631.591	7817.27
631.792	7876.66
631.992	7501.88
632.193	7333.95
632.393	7942.19
632.594	7518.26
632.794	7252.03
632.994	7645.24
633.195	7604.28
633.395	7628.85
633.595	7383.1
633.796	7518.26
633.996	7548.98
634.196	7882.8
634.397	7143.49
634.597	7256.12
634.797	7426.11
634.997	8034.35
635.198	7614.52
635.398	7149.63
635.598	7821.36
635.798	7800.88
635.998	7635
636.199	7346.23
636.399	7456.82
636.599	7467.06
636.799	7536.7
636.999	7645.24
637.199	7825.46
637.399	8048.69
637.599	7268.41
637.799	7725.11
637.999	7759.92
638.199	8159.28
638.399	7397.43
638.599	7475.26
638.799	7942.19
638.999	8253.48
639.199	7653.43
639.399	7624.76
639.599	8165.42
639.799	7581.75
639.999	7417.91
640.199	7438.39
640.399	7665.72
640.599	7690.29
640.799	7653.43
640.998	7632.95
641.198	8106.03
641.398	7796.79
641.598	7727.16
641.798	7442.49
641.997	8652.84
642.197	7604.28
642.397	7600.18
642.597	7624.76
642.796	7962.67
642.996	8280.11
643.196	7725.11
643.395	7518.26
643.595	7909.43
643.795	7428.15
643.994	7641.14
644.194	7426.11
644.394	8009.78
644.593	7958.58
644.793	7528.5
644.992	7632.95
645.192	8067.12
645.392	7387.19
645.591	7897.14
645.791	7733.3
645.99	8034.35
646.19	7845.94
646.389	7635
646.589	7735.35
646.788	8063.02
646.987	8073.26
647.187	7919.67
647.386	7944.24
647.586	7858.23
647.785	8136.75
647.984	7694.39
648.184	7721.01
648.383	7958.58
648.582	7651.38
648.782	7735.35
648.981	7731.25
649.18	7651.38
649.38	7991.34
649.579	7624.76
649.778	7723.06
649.977	8200.24
650.177	8013.87
650.376	7698.49
650.575	7462.97
650.774	8314.92
650.973	7802.93
651.173	7401.53
651.372	7800.88
651.571	7950.39
651.77	8220.72
651.969	7706.68
652.168	7948.34
652.367	7663.67
652.566	8032.3
652.765	7594.04
652.964	8187.95
653.163	8417.32
653.362	7905.33
653.561	7667.77
653.76	7731.25
653.959	8118.32
654.158	8190
654.357	7970.87
654.556	7614.52
654.755	8239.15
654.954	8212.53
655.153	7718.96
655.352	7817.27
655.551	8415.27
655.749	7854.13
655.948	7708.73
656.147	8034.35
656.346	8269.87
656.545	7997.49
656.743	7987.25
656.942	7903.28
657.141	8181.81
657.34	7874.61
657.538	7870.51
657.737	8028.21
657.936	8054.83
658.135	8190
658.333	7749.68
658.532	7813.17
658.731	8466.47
658.929	8362.03
659.128	8116.27
659.326	7919.67
659.525	8503.34
659.724	8200.24
659.922	7733.3
660.121	7735.35
660.319	8237.1
660.518	7882.8
660.716	7721.01
660.915	7940.15
661.113	8570.92
661.312	7815.22
661.51	8183.85
661.709	7841.84
661.907	8286.25
662.105	8376.36
662.304	7985.2
662.502	7796.79
662.701	8474.67
662.899	8040.5
663.097	8202.29
663.296	7753.78
663.494	8515.62
663.692	8466.47
663.891	7741.49
664.089	7811.12
664.287	8300.59
664.485	8489
664.684	7981.1
664.882	7927.86
665.08	8284.2
665.278	8220.72
665.476	7589.94
665.675	8167.47
665.873	8546.34
666.071	8190
666.269	7884.85
666.467	7962.67
666.665	8247.34
666.863	8108.08
667.061	8067.12
667.259	7950.39
667.457	8181.81
667.655	8319.02
667.853	7606.33
668.051	8222.77
668.249	7895.09
668.447	8235.05
668.645	7723.06
668.843	8228.91
669.041	8304.68
669.239	8124.46
669.437	8063.02
669.635	7981.1
669.833	7921.71
670.031	8169.52
670.229	8034.35
670.426	7934
670.624	8190
670.822	7735.35
671.02	7626.81
671.218	7845.94
671.415	7784.5
671.613	8095.79
671.811	7864.37
672.009	7950.39
672.206	8357.93
672.404	8181.81
672.602	8247.34
672.799	8212.53
672.997	8329.26
673.195	8321.07
673.392	8030.26
673.59	7745.59
673.788	8218.67
673.985	7458.87
674.183	8224.81
674.38	7972.91
674.578	8294.44
674.775	7993.39
674.973	7809.08
675.17	7915.57
675.368	8466.47
675.565	8216.62
675.763	7921.71
675.96	7637.05
676.158	8370.22
676.355	7940.15
676.553	7819.32
676.75	7956.53
676.947	8095.79
677.145	7950.39
677.342	7950.39
677.539	7843.89
677.737	7958.58
677.934	8556.58
678.131	8097.84
678.329	7817.27
678.526	8482.86
678.723	8216.62
678.92	7940.15
679.118	7876.66
679.315	7893.04
679.512	8464.43
679.709	7931.95
679.906	8071.22
680.104	8226.86
680.301	7960.63
680.498	7598.13
680.695	7747.64
680.892	7940.15
681.089	7876.66
681.286	7764.02
681.483	7622.71
681.68	7968.82
681.877	8304.68
682.075	7800.88
682.272	7905.33
682.469	7968.82
682.665	7743.54
682.862	7645.24
683.059	7501.88
683.256	8032.3
683.453	7950.39
683.65	7811.12
683.847	7907.38
684.044	8069.17
684.241	7583.8
684.438	7948.34
684.635	7524.41
684.831	8378.41
685.028	8357.93
685.225	7721.01
685.422	7835.7
685.619	7993.39
685.815	7931.95
686.012	7944.24
686.209	7618.61
686.405	7604.28
686.602	8103.98
686.799	7563.32
686.996	7491.64
687.192	7714.87
687.389	8491.05
687.586	7622.71
687.782	7737.4
687.979	8108.08
688.175	8089.65
688.372	7678.01
688.568	7778.36
688.765	7843.89
688.962	8362.03
689.158	7841.84
689.355	7548.98
689.551	8179.76
689.748	7858.23
689.944	7565.37
690.14	7497.78
690.337	8118.32
690.533	7796.79
690.73	7823.41
690.926	7796.79
691.123	7751.73
691.319	7725.11
691.515	7268.41
691.712	7811.12
691.908	8073.26
692.104	7821.36
692.301	7647.29
692.497	7563.32
692.693	8091.7
692.889	7983.15
693.086	7829.56
693.282	7335.99
693.478	7747.64
693.674	8194.09
693.87	7632.95
694.067	7452.73
694.263	7911.47
694.459	7792.69
694.655	7645.24
694.851	7710.77
695.047	7903.28
695.243	7944.24
695.439	7632.95
695.635	7333.95
695.831	7827.51
696.027	7751.73
696.224	7424.06
696.42	7882.8
696.615	8296.49
696.811	7977.01
697.007	7411.77
697.203	7456.82
697.399	7704.63
697.595	8134.7
697.791	7503.93
697.987	7585.85
698.183	7295.04
698.379	7591.99
698.575	7530.55
698.77	7653.43
698.966	7768.12
699.162	7827.51
699.358	7514.17
699.554	7442.49
699.749	7649.33
699.945	7858.23
700.141	7604.28
700.337	7612.47
700.532	7411.77
700.728	7565.37
700.924	7346.23
701.119	7200.83
701.315	7696.44
701.511	7604.28
701.706	7526.46
701.902	7151.68
702.097	7600.18
702.293	7780.4
702.489	7534.65
702.684	7383.1
702.88	7624.76
703.075	7475.26
703.271	7428.15
703.466	7147.58
703.662	7538.74
703.857	7694.39
704.053	7225.4
704.248	7436.35
704.443	7774.26
704.639	7616.57
704.834	7186.49
705.03	7411.77
705.225	7921.71
705.42	7948.34
705.616	7456.82
705.811	7129.15
706.006	7637.05
706.202	7653.43
706.397	7321.66
706.592	7366.71
706.787	7477.3
706.983	7575.61
707.178	7757.88
707.373	7340.09
707.568	7868.47
707.763	7909.43
707.959	7340.09
708.154	7323.71
708.349	7538.74
708.544	7796.79
708.739	7518.26
708.934	7135.29
709.129	7772.21
709.324	7804.98
709.519	7245.88
709.714	7221.31
709.909	8052.78
710.104	7647.29
710.299	7235.64
710.494	7143.49
710.689	7643.19
710.884	7499.83
711.079	7225.4
711.274	7417.91
711.469	7804.98
711.664	7465.02
711.859	7137.34
712.054	7428.15
712.249	7579.7
712.443	7735.35
712.638	7161.92
712.833	7317.56
713.028	7366.71
713.223	7352.38
713.417	7546.94
713.612	7161.92
713.807	7604.28
714.002	8173.61
714.196	7532.6
714.391	7307.32
714.586	7694.39
714.78	7559.22
714.975	7292.99
715.17	6967.36
715.364	7407.67
715.559	7759.92
715.754	6993.98
715.948	7153.73
716.143	7688.25
716.337	7518.26
716.532	7426.11
716.726	7186.49
716.921	7424.06
717.115	7815.22
717.31	6955.07
717.504	7690.29
717.699	7370.81
717.893	7551.03
718.088	7133.25
718.282	7063.61
718.476	7501.88
718.671	7589.94
718.865	7088.19
719.059	7030.85
719.254	7323.71
719.448	7497.78
719.642	8491.05
719.837	6809.67
720.031	7370.81
720.225	7555.13
720.419	7145.53
720.614	7161.92
720.808	7557.18
721.002	7102.53
721.196	7002.18
721.39	6905.92
721.585	7555.13
721.779	7329.85
721.973	7133.25
722.167	6830.15
722.361	7323.71
722.555	7643.19
722.749	6944.83
722.943	6905.92
723.137	7053.38
723.331	7247.93
723.525	6901.83
723.719	7018.56
723.913	7518.26
724.107	7497.78
724.301	6885.44
724.495	7024.7
724.689	7600.18
724.883	7481.4
725.077	6934.59
725.271	6969.41
725.465	7376.95
725.659	7204.92
725.853	7125.05
726.046	6832.19
726.24	7020.61
726.434	7276.6
726.628	6828.1
726.822	7075.9
727.015	7430.2
727.209	7395.39
727.403	6981.7
727.596	6826.05
727.79	7354.43
727.984	7116.86
728.177	6965.31
728.371	6950.98
728.565	7348.28
728.758	6905.92
728.952	6826.05
729.146	6787.14
729.339	7594.04
729.533	7211.07
729.726	6953.02
729.92	6684.74
730.113	7534.65
730.307	7131.2
730.5	6955.07
730.694	6983.74
730.887	7098.43
731.081	7444.54
731.274	6912.07
731.468	6924.35
731.661	7176.25
731.854	6950.98
732.048	7063.61
732.241	6807.62
732.435	7047.23
732.628	7098.43
732.821	7063.61
733.014	6834.24
733.208	6920.26
733.401	7460.92
733.594	6789.19
733.788	6821.95
733.981	7530.55
734.174	7309.37
734.367	6918.21
734.56	6977.6
734.754	7415.87
734.947	7186.49
735.14	6756.42
735.333	7012.42
735.526	7272.51
735.719	7039.04
735.912	6916.16
736.105	6787.14
736.298	7108.67
736.491	7075.9
736.684	6791.24
736.877	6768.71
737.07	7223.36
737.263	7161.92
737.456	6953.02
737.649	6611.01
737.842	7080
738.035	7028.8
738.228	6811.71
738.421	7174.21
738.614	7495.74
738.807	7280.7
739	6664.26
739.192	6801.47
739.385	6991.94
739.578	7184.45
739.771	7020.61
739.964	6633.54
740.156	7206.97
740.349	6930.5
740.542	6926.4
740.735	6651.97
740.927	6733.89
741.12	6760.52
741.313	6654.02
741.505	6932.54
741.698	7108.67
741.891	7145.53
742.083	7004.22
742.276	6754.37
742.468	6983.74
742.661	7077.95
742.854	6811.71
743.046	6699.08
743.239	7327.8
743.431	6883.39
743.624	6731.84
743.816	6525
744.009	7002.18
744.201	7108.67
744.393	7006.27
744.586	6576.2
744.778	7278.65
744.971	7088.19
745.163	6879.3
745.355	6821.95
745.548	7129.15
745.74	6750.28
745.932	6733.89
746.125	6690.88
746.317	7405.63
746.509	7008.32
746.702	6754.37
746.894	6701.12
747.086	6975.55
747.278	7145.53
747.471	6756.42
747.663	6635.59
747.855	7104.57
748.047	7145.53
748.239	6920.26
748.431	6703.17
748.623	7317.56
748.815	7256.12
749.008	6594.63
749.2	6692.93
749.392	7237.69
749.584	6955.07
749.776	6766.66
749.968	6752.32
750.16	7454.78
750.352	7116.86
750.544	6737.99
750.736	6598.73
750.928	7049.28
751.12	6924.35
751.311	6449.22
751.503	6778.95
751.695	7174.21
751.887	6858.82
752.079	6322.25
752.271	6600.77
752.463	7630.9
752.654	7084.09
752.846	6629.45
753.038	6572.1
753.23	6744.13
753.421	7006.27
753.613	6576.2
753.805	6979.65
753.997	7086.14
754.188	7043.14
754.38	6457.42
754.572	6633.54
754.763	6611.01
754.955	6826.05
755.146	6731.84
755.338	6672.45
755.53	6901.83
755.721	6836.29
755.913	6533.19
756.104	6518.86
756.296	6819.91
756.487	6817.86
756.679	6576.2
756.87	6379.59
757.062	6449.22
757.253	6889.54
757.445	6535.24
757.636	6522.95
757.827	6596.68
758.019	7163.97
758.21	6309.96
758.401	6477.9
758.593	7133.25
758.784	7024.7
758.975	6230.09
759.167	6359.11
759.358	6772.8
759.549	7006.27
759.74	6320.2
759.932	6395.98
760.123	6975.55
760.314	6260.81
760.505	6490.18
760.696	6213.71
760.888	6924.35
761.079	6531.14
761.27	6207.56
761.461	6119.5
761.652	6834.24
761.843	6324.3
762.034	6273.1
762.225	6557.77
762.416	6543.43
762.607	6391.88
762.798	6389.83
762.989	6111.31
763.18	7362.62
763.371	6260.81
763.562	6336.59
763.753	6219.85
763.944	6608.97
764.135	6574.15
764.326	6252.62
764.517	6240.33
764.708	6545.48
764.899	6484.04
765.089	6191.18
765.28	6187.08
765.471	6438.98
765.662	6481.99
765.853	6199.37
766.043	5998.67
766.234	6608.97
766.425	6561.86
766.615	6166.6
766.806	6025.29
766.997	6858.82
767.187	6375.5
767.378	6131.79
767.569	5867.6
767.759	6428.74
767.95	6291.53
768.141	6289.48
768.331	6064.21
768.522	6238.28
768.712	6502.47
768.903	6029.39
769.093	6099.02
769.284	6596.68
769.474	6297.67
769.665	5789.78
769.855	5980.24
770.046	6490.18
770.236	6049.87
770.426	6223.95
770.617	5943.38
770.807	6344.78
770.998	6228.04
771.188	6002.77
771.378	5685.33
771.569	6320.2
771.759	6375.5
771.949	5826.64
772.139	5638.23
772.33	6275.15
772.52	6486.09
772.71	5949.52
772.9	5900.37
773.09	6486.09
773.281	6684.74
773.471	5814.35
773.661	5814.35
773.851	6400.07
774.041	5965.9
774.231	5744.72
774.421	5914.7
774.611	6357.07
774.802	6148.17
774.992	5847.12
775.182	5609.56
775.372	6035.53
775.562	6187.08
775.752	5865.55
775.942	5736.53
776.131	6459.46
776.321	6035.53
776.511	5605.46
776.701	5664.85
776.891	6209.61
777.081	5736.53
777.271	5881.94
777.461	5730.39
777.651	6058.06
777.84	6146.12
778.03	5795.92
778.22	5695.57
778.41	6219.85
778.599	5683.28
778.789	5677.14
778.979	5646.42
779.169	5926.99
779.358	5898.32
779.548	6019.15
779.738	5490.77
779.927	5877.84
780.117	5666.9
780.307	5646.42
780.496	5384.28
780.686	6119.5
780.875	6400.07
781.065	5785.68
781.254	5730.39
781.444	5912.66
781.633	5851.22
781.823	5535.83
782.012	5539.93
782.202	5775.44
782.391	5795.92
782.581	5517.4
782.77	5742.68
782.96	5785.68
783.149	5855.31
783.338	5591.13
783.528	5265.5
783.717	5939.28
783.906	5929.04
784.096	5535.83
784.285	5365.85
784.474	5625.94
784.663	5531.73
784.853	5453.91
785.042	5562.45
785.231	5359.7
785.42	5947.47
785.61	5695.57
785.799	5365.85
785.988	5449.82
786.177	5537.88
786.366	5468.25
786.555	5552.21
786.744	5892.18
786.933	5453.91
787.122	5265.5
787.312	5292.12
787.501	5521.49
787.69	5877.84
787.879	5419.1
788.068	5337.18
788.257	5261.4
788.445	5392.47
788.634	5433.43
788.823	5171.29
789.012	6172.75
789.201	5769.3
789.39	5228.63
789.579	5232.73
789.768	5619.8
789.957	5613.65
790.145	5271.64
790.334	5027.93
790.523	5492.82
790.712	5337.18
790.9	5435.48
791.089	5027.93
791.278	5599.32
791.467	5390.42
791.655	5605.46
791.844	5808.21
792.033	5251.16
792.221	5281.88
792.41	5253.21
792.599	4960.35
792.787	5640.28
792.976	5687.38
793.164	5140.57
793.353	5095.52
793.541	5582.93
793.73	5705.81
793.918	5245.02
794.107	5167.2
794.295	5449.82
794.484	5312.6
794.672	5195.87
794.861	5156.96
795.049	5556.31
795.238	5840.98
795.426	5034.08
795.614	5093.47
795.803	5435.48
795.991	5531.73
796.179	4993.12
796.368	5232.73
796.556	5656.66
796.744	5150.81
796.932	5027.93
797.121	4831.33
797.309	5322.84
797.497	5548.12
797.685	5150.81
797.874	5005.41
798.062	5238.87
798.25	5613.65
798.438	5068.89
798.626	4991.07
798.814	5443.67
799.002	5851.22
799.19	5290.07
799.378	5023.84
799.566	5609.56
799.755	5730.39
799.943	5224.54
800.131	4997.21
800.318	5320.79
800.506	5365.85
800.694	5003.36
800.882	5126.24
801.07	5562.45
801.258	5230.68
801.446	5040.22
801.634	4954.21
801.822	5146.72
802.01	5290.07
802.197	5097.56
802.385	5249.11
802.573	5322.84
802.761	4927.58
802.949	5019.74
803.136	4786.27
803.324	5642.32
803.512	5259.35
803.699	5152.86
803.887	4808.8
804.075	5724.24
804.262	5265.5
804.45	4997.21
804.638	5156.96
804.825	5171.29
805.013	5075.04
805.201	5087.33
805.388	4978.78
805.576	5242.97
805.763	5744.72
805.951	5245.02
806.138	5128.28
806.326	5785.68
806.513	5431.38
806.701	5111.9
806.888	4929.63
807.075	5371.99
807.263	5744.72
807.45	5048.41
807.638	5300.31
807.825	5736.53
808.012	5498.97
808.2	5304.41
808.387	5275.74
808.574	5412.95
808.761	5800.02
808.949	5023.84
809.136	5116
809.323	5279.83
809.51	5376.09
809.698	5415
809.885	5066.85
810.072	5548.12
810.259	5742.68
810.446	5333.08
810.633	5138.52
810.82	5726.29
811.008	5769.3
811.195	5406.81
811.382	5204.06
811.569	5326.94
811.756	5159
811.943	5298.27
812.13	5138.52
812.317	5285.98
812.504	5447.77
812.691	5337.18
812.878	5345.37
813.064	5818.45
813.251	5566.55
813.438	4929.63
813.625	5300.31
813.812	5310.55
813.999	5511.25
814.186	5296.22
814.372	5263.45
814.559	5437.53
814.746	5820.5
814.933	5132.38
815.12	5310.55
815.306	5224.54
815.493	5132.38
815.68	5179.48
815.866	5072.99
816.053	5720.15
816.24	5826.64
816.426	5316.7
816.613	5046.37
816.799	5558.36
816.986	5697.62
817.173	5095.52
817.359	5007.45
817.546	5568.6
817.732	5015.65
817.919	5052.51
818.105	5433.43
818.292	5236.83
818.478	5400.66
818.665	5326.94
818.851	5204.06
819.037	5836.88
819.224	5374.04
819.41	5056.61
819.597	5044.32
819.783	5752.91
819.969	5705.81
820.156	5109.85
820.342	5046.37
820.528	6182.99
820.714	5269.59
820.901	5343.32
821.087	5054.56
821.273	5646.42
821.459	5351.51
821.646	5089.37
821.832	4913.25
822.018	5386.33
822.204	5253.21
822.39	5009.5
822.576	5056.61
822.762	5505.11
822.948	5341.27
823.134	5120.09
823.32	5103.71
823.507	5042.27
823.693	5460.06
823.879	5468.25
824.065	5036.13
824.25	5335.13
824.436	5267.55
824.622	5032.03
824.808	5003.36
824.994	5169.24
825.18	5109.85
825.366	4851.81
825.552	4753.51
825.738	5236.83
825.923	5341.27
826.109	5062.75
826.295	4868.19
826.481	5085.28
826.667	5144.67
826.852	5144.67
827.038	4827.23
827.224	5507.16
827.409	5507.16
827.595	4694.12
827.781	5294.17
827.966	5482.58
828.152	5380.18
828.338	4941.92
828.523	4743.27
828.709	4980.83
828.894	5458.01
829.08	4954.21
829.266	4907.1
829.451	5036.13
829.637	5216.35
829.822	4845.66
830.008	4761.7
830.193	5355.61
830.378	5412.95
830.564	5097.56
830.749	4780.13
830.935	5261.4
831.12	5204.06
831.305	4806.75
831.491	4870.24
831.676	4784.23
831.861	5148.76
832.047	4679.78
832.232	4651.11
832.417	5396.57
832.602	4976.73
832.788	4776.03
832.973	4638.82
833.158	5003.36
833.343	4884.58
833.528	4913.25
833.714	4761.7
833.899	5113.95
834.084	5421.14
834.269	4898.91
834.454	4606.05
834.639	5163.1
834.824	5064.8
835.009	4825.19
835.194	4851.81
835.379	5009.5
835.564	5417.05
835.749	4757.6
835.934	4681.83
836.119	5197.92
836.304	4888.67
836.489	4532.33
836.674	4776.03
836.859	4638.82
837.044	5314.65
837.228	4794.47
837.413	4479.08
837.598	4972.64
837.783	4948.06
837.968	4706.4
838.152	4638.82
838.337	4483.17
838.522	5228.63
838.707	5187.68
838.891	4687.97
839.076	4857.95
839.261	5103.71
839.445	4597.86
839.63	4726.88
839.815	5238.87
839.999	4665.44
840.184	4511.85
840.368	4444.26
840.553	4995.17
840.737	4978.78
840.922	4481.13
841.106	4429.93
841.291	4419.69
841.475	4767.84
841.66	4466.79
841.844	4474.98
842.029	5234.78
842.213	4569.19
842.397	4538.47
842.582	4458.6
842.766	5068.89
842.951	4827.23
843.135	4429.93
843.319	4409.45
843.504	4710.5
843.688	5093.47
843.872	4335.72
844.056	4352.1
844.241	4872.29
844.425	4675.68
844.609	4472.93
844.793	4147.31
844.977	4814.95
845.161	4642.92
845.346	4352.1
845.53	4233.32
845.714	4733.03
845.898	4911.2
846.082	4192.36
846.266	4345.96
846.45	4544.61
846.634	4606.05
846.818	4278.38
847.002	4546.66
847.186	4874.34
847.37	4282.47
847.554	4167.79
847.738	4425.83
847.922	4587.62
848.106	4800.61
848.29	4165.74
848.473	4288.62
848.657	4722.79
848.841	4573.28
849.025	4452.45
849.209	4143.21
849.392	4745.31
849.576	4608.1
849.76	4022.38
849.944	4434.02
850.127	4741.22
850.311	4247.66
850.495	4118.64
850.678	3940.46
850.862	4720.74
851.046	4870.24
851.229	4466.79
851.413	4278.38
851.596	4468.84
851.78	4612.2
851.964	4364.39
852.147	4104.3
852.331	5171.29
852.514	4804.71
852.698	4259.95
852.881	3989.61
853.065	4610.15
853.248	4393.06
853.431	4294.76
853.615	4364.39
853.798	5099.61
853.982	4491.37
854.165	4298.86
854.348	4198.51
854.532	4192.36
854.715	4327.53
854.898	4253.8
855.081	4120.68
855.265	4716.64
855.448	4626.53
855.631	4081.77
855.814	3954.8
855.997	4659.3
856.181	4370.54
856.364	4180.07
856.547	3975.28
856.73	4374.63
856.913	4415.59
857.096	3981.42
857.279	4165.74
857.462	4208.75
857.645	4751.46
857.828	4157.55
858.011	4081.77
858.194	3965.04
858.377	4436.07
858.56	3895.41
858.743	4065.39
858.926	4020.33
859.109	4532.33
859.292	3983.47
859.475	3913.84
859.658	4511.85
859.841	4323.43
860.023	3932.27
860.206	3819.63
860.389	4231.27
860.572	4511.85
860.755	3942.51
860.937	3858.54
861.12	4190.31
861.303	4247.66
861.486	3922.03
861.668	3750
861.851	4454.5
862.034	4376.68
862.216	4069.48
862.399	3614.84
862.581	4247.66
862.764	4495.46
862.947	3993.71
863.129	3856.5
863.312	3690.61
863.494	4356.2
863.677	4294.76
863.859	3750
864.042	4259.95
864.224	4274.28
864.406	3985.52
864.589	3618.93
864.771	4245.61
864.954	3805.3
865.136	3772.53
865.318	3571.83
865.501	4171.88
865.683	3602.55
865.865	3573.88
866.048	3696.75
866.23	4104.3
866.412	4130.92
866.594	3743.86
866.777	3795.06
866.959	4184.17
867.141	3879.02
867.323	3985.52
867.505	3899.5
867.687	4032.62
867.869	3983.47
868.052	3790.96
868.234	3444.85
868.416	4083.82
868.598	4147.31
868.78	3598.45
868.962	3573.88
869.144	4204.65
869.326	4089.96
869.508	3610.74
869.69	3446.9
869.872	3858.54
870.054	4184.17
870.236	3553.4
870.417	3367.03
870.599	3889.26
870.781	4216.94
870.963	3840.11
871.145	3659.89
871.327	3629.17
871.508	4159.6
871.69	3659.89
871.872	3647.6
872.054	3934.32
872.235	4186.22
872.417	3756.15
872.599	3655.79
872.78	4434.02
872.962	4012.14
873.144	3655.79
873.325	3635.32
873.507	4120.68
873.689	3909.74
873.87	3592.31
874.052	3709.04
874.233	3887.22
874.415	4251.75
874.596	3643.51
874.778	3524.72
874.959	3903.6
875.141	4182.12
875.322	3500.15
875.503	3676.27
875.685	3897.46
875.866	3481.72
876.048	3539.06
876.229	3520.63
876.41	3975.28
876.592	3956.85
876.773	3663.99
876.954	3416.18
877.136	4155.5
877.317	3795.06
877.498	3358.84
877.679	3836.02
877.86	4130.92
878.042	3686.51
878.223	3627.12
878.404	3915.89
878.585	3979.37
878.766	4421.74
878.947	3919.98
879.128	3797.1
879.309	3962.99
879.49	4190.31
879.672	3688.56
879.853	3680.37
880.034	3717.23
880.215	3797.1
880.396	3776.63
880.576	3485.81
880.757	3745.91
880.938	4393.06
881.119	3696.75
881.3	3637.36
881.481	3823.73
881.662	4683.88
881.843	3649.65
882.023	3500.15
882.204	3903.6
882.385	4040.81
882.566	3723.38
882.747	3764.34
882.927	3950.7
883.108	4137.07
883.289	3489.91
883.469	4046.96
883.65	3885.17
883.831	3944.56
884.011	3860.59
884.192	3670.13
884.373	4212.84
884.553	4180.07
884.734	3831.92
884.914	3838.06
885.095	4780.13
885.275	4491.37
885.456	4245.61
885.636	3657.84
885.817	4028.53
885.997	4049
886.178	3737.71
886.358	3909.74
886.538	4077.68
886.719	5236.83
886.899	3715.19
887.08	3803.25
887.26	4434.02
887.44	3815.54
887.621	3688.56
887.801	3876.98
887.981	4769.89
888.161	4184.17
888.342	3901.55
888.522	3852.4
888.702	4321.38
888.882	4362.34
889.062	3965.04
889.242	3563.64
889.423	4343.91
889.603	4309.1
889.783	4130.92
889.963	3805.3
890.143	4376.68
890.323	4425.83
890.503	3776.63
890.683	3739.76
890.863	4180.07
891.043	4049
891.223	3893.36
891.403	4192.36
891.583	4171.88
891.763	4016.24
891.943	3885.17
892.122	3737.71
892.302	4102.25
892.482	4239.47
892.662	4083.82
892.842	3954.8
893.022	4233.32
893.201	4003.95
893.381	3948.65
893.561	3725.43
893.741	4212.84
893.92	4307.05
894.1	3866.74
894.28	3854.45
894.459	4065.39
894.639	4212.84
894.819	3836.02
894.998	3952.75
895.178	4180.07
895.357	4169.84
895.537	3741.81
895.716	3686.51
895.896	3962.99
896.075	4388.97
896.255	3780.72
896.434	3608.69
896.614	4386.92
896.793	4466.79
896.973	4132.97
897.152	3823.73
897.331	4212.84
897.511	4282.47
897.69	3620.98
897.87	3893.36
898.049	4266.09
898.228	4083.82
898.407	3895.41
898.587	3803.25
898.766	3944.56
898.945	4003.95
899.124	3938.41
899.304	3956.85
899.483	4132.97
899.662	4454.5
899.841	3555.44
900.02	3598.45
900.199	4196.46
900.378	3987.57
900.557	3719.28
900.737	3494.01
900.916	3971.18
901.095	4169.84
901.274	3922.03
901.453	3494.01
901.632	3700.85
901.811	3819.63
901.989	3573.88
902.168	3504.25
902.347	4040.81
902.526	3704.95
902.705	3668.08
902.884	3518.58
903.063	4092.01
903.242	4036.72
903.42	3389.56
903.599	3631.22
903.778	4173.93
903.957	4163.69
904.135	3666.03
904.314	3444.85
904.493	3786.86
904.672	3805.3
904.85	3426.42
905.029	3438.71
905.207	3762.29
905.386	4223.08
905.565	3285.11
905.743	3258.49
905.922	3453.05
906.1	3819.63
906.279	3090.56
906.457	3205.24
906.636	3410.04
906.814	3487.86
906.993	3172.47
907.171	3186.81
907.35	3666.03
907.528	3557.49
907.707	3393.65
907.885	3278.97
908.063	3913.84
908.242	3182.71
908.42	3254.39
908.598	3049.6
908.777	3571.83
908.955	3258.49
909.133	3297.4
909.311	3033.21
909.49	3389.56
909.668	3414.13
909.846	3164.28
910.024	2959.49
910.202	3477.62
910.38	3618.93
910.559	2988.16
910.737	3090.56
910.915	3502.2
911.093	3496.05
911.271	3285.11
911.449	3405.94
911.627	3627.12
911.805	4032.62
911.983	3287.16
912.161	3151.99
912.339	3559.54
912.517	3862.64
912.695	3283.06
912.872	3260.54
913.05	3307.64
913.228	3772.53
913.406	3235.96
913.584	3215.48
913.762	3774.58
913.939	3401.85
914.117	3168.38
914.295	3262.58
914.473	3616.88
914.65	3731.57
914.828	3250.3
915.006	3217.53
915.184	3297.4
915.361	3686.51
915.539	3401.85
915.716	3358.84
915.894	3573.88
916.072	3713.14
916.249	3502.2
916.427	3412.09
916.604	3272.82
916.782	3573.88
916.959	3039.36
917.137	3346.55
917.314	3432.57
917.492	3641.46
917.669	3369.08
917.847	3317.88
918.024	3549.3
918.201	3295.35
918.379	3223.67
918.556	3430.52
918.733	3666.03
918.911	3438.71
919.088	3496.05
919.265	3139.71
919.442	3475.57
919.62	3385.46
919.797	3004.54
919.974	3004.54
920.151	3594.36
920.328	3348.6
920.506	3225.72
920.683	3278.97
920.86	3197.05
921.037	3235.96
921.214	3199.1
921.391	3035.26
921.568	3606.64
921.745	3278.97
921.922	3168.38
922.099	3018.88
922.276	3594.36
922.453	3297.4
922.63	3100.8
922.807	3360.89
922.984	3350.65
923.161	3195
923.338	3149.95
923.514	2986.11
923.691	3213.43
923.868	3369.08
924.045	2975.87
924.222	2955.39
924.399	3428.47
924.575	3541.11
924.752	3145.85
924.929	3057.79
925.105	3356.79
925.282	3004.54
925.459	2996.35
925.635	3029.12
925.812	3195
925.989	3156.09
926.165	3025.02
926.342	2746.5
926.518	2971.77
926.695	3238.01
926.871	2971.77
927.048	2762.88
927.224	3315.83
927.401	3119.23
927.577	2838.66
927.754	2701.44
927.93	3434.61
928.107	3326.07
928.283	2750.59
928.459	2990.21
928.636	3172.47
928.812	3033.21
928.988	2689.15
929.165	2648.19
929.341	2984.06
929.517	3051.64
929.693	3139.71
929.87	2582.66
930.046	3215.48
930.222	2846.85
930.398	2721.92
930.574	2908.29
930.751	3049.6
930.927	2867.33
931.103	2730.11
931.279	2699.39
931.455	2779.26
931.631	2953.34
931.807	2523.27
931.983	2564.23
932.159	2615.43
932.335	3000.44
932.511	2756.74
932.687	2363.53
932.863	2975.87
933.039	2754.69
933.215	2400.39
933.391	2435.21
933.566	2701.44
933.742	2662.53
933.918	2508.93
934.094	2330.76
934.27	2640
934.445	2756.74
934.621	2441.35
934.797	2230.41
934.973	2703.49
935.148	2689.15
935.324	2115.72
935.5	2048.14
935.675	2748.54
935.851	2562.18
936.027	2261.13
936.202	2214.02
936.378	2470.02
936.553	2322.57
936.729	2549.89
936.904	2138.25
937.08	1958.03
937.255	2064.52
937.431	1878.16
937.606	1880.21
937.782	1970.32
937.957	2066.57
938.133	1859.73
938.308	1902.73
938.483	2005.13
938.659	1966.22
938.834	1894.54
939.009	1714.32
939.185	1902.73
939.36	1796.24
939.535	1484.95
939.71	1851.53
939.886	2136.2
940.061	1949.84
940.236	1845.39
940.411	1736.85
940.586	1968.27
940.761	2019.47
940.937	1605.78
941.112	1425.56
941.287	1718.42
941.462	1851.53
941.637	1411.22
941.812	1538.2
941.987	1910.93
942.162	1644.69
942.337	1560.72
942.512	1429.65
942.687	1992.84
942.862	1943.69
943.037	1339.54
943.212	1276.06
943.386	1501.33
943.561	1687.7
943.736	1573.01
943.911	1757.33
944.086	1669.27
944.26	1712.27
944.435	1337.49
944.61	1472.66
944.785	1966.22
944.959	2050.19
945.134	1562.77
945.309	1274.01
945.483	1476.76
945.658	1798.29
945.833	1157.27
946.007	1167.51
946.182	1962.12
946.357	1501.33
946.531	1411.22
946.706	1396.89
946.88	1243.29
947.055	1587.35
947.229	1304.73
947.404	1284.25
947.578	1874.06
947.752	1628.31
947.927	1327.25
948.101	1312.92
948.276	1661.07
948.45	1730.7
948.624	1613.97
948.799	1368.21
948.973	1804.43
949.147	1288.34
949.321	1573.01
949.496	1374.36
949.67	1837.2
949.844	1562.77
950.018	1374.36
950.193	1435.8
950.367	2089.1
950.541	1626.26
950.715	1601.68
950.889	1648.79
951.063	1667.22
951.237	1822.86
951.411	1280.15
951.585	1439.89
951.759	1742.99
951.933	1661.07
952.107	1552.53
952.281	1683.6
952.455	2027.66
952.629	1984.65
952.803	1427.6
952.977	1538.2
953.151	1931.41
953.325	1808.53
953.499	1683.6
953.672	1423.51
953.846	1527.96
954.02	1642.64
954.194	1509.52
954.368	1411.22
954.541	2054.28
954.715	1632.4
954.889	1622.16
955.062	1452.18
955.236	1771.66
955.41	1552.53
955.583	1742.99
955.757	1366.17
955.93	1738.9
956.104	1534.1
956.278	1570.96
956.451	1611.92
956.625	1835.15
956.798	2168.97
956.972	1763.47
957.145	1419.41
957.319	1927.31
957.492	1876.11
957.665	1587.35
957.839	1484.95
958.012	1894.54
958.185	1634.45
958.359	1599.63
958.532	1736.85
958.705	1968.27
958.879	1837.2
959.052	1800.34
959.225	1396.89
959.398	1804.43
959.572	1888.4
959.745	1538.2
959.918	1671.31
960.091	1734.8
960.264	1984.65
960.438	1421.46
960.611	1437.84
960.784	1853.58
960.957	1747.09
961.13	1939.6
961.303	1507.48
961.476	1835.15
961.649	2001.04
961.822	1497.24
961.995	1538.2
962.168	1939.6
962.341	1833.1
962.514	1583.25
962.686	1611.92
962.859	1972.36
963.032	1941.65
963.205	1495.19
963.378	1431.7
963.551	1927.31
963.723	1755.28
963.896	1706.13
964.069	1618.07
964.242	1925.26
964.414	1921.17
964.587	1546.39
964.76	1646.74
964.932	1853.58
965.105	1812.62
965.278	1566.87
965.45	1527.96
965.623	1863.82
965.795	1919.12
965.968	1517.72
966.14	1581.2
966.313	1783.95
966.485	1808.53
966.658	1487
966.83	1405.08
967.003	2003.08
967.175	2005.13
967.348	1507.48
967.52	1484.95
967.692	2203.79
967.865	1798.29
968.037	1575.06
968.209	1853.58
968.382	1874.06
968.554	1880.21
968.726	1507.48
968.898	1611.92
969.071	1761.42
969.243	1929.36
969.415	1575.06
969.587	1495.19
969.759	2293.9
969.932	1896.59
970.104	1464.47
970.276	1280.15
970.448	1648.79
970.62	1548.44
970.792	1601.68
970.964	1538.2
971.136	2218.12
971.308	1917.07
971.48	1302.68
971.652	1536.15
971.824	1972.36
971.996	1640.59
972.168	1497.24
972.339	1497.24
972.511	1960.08
972.683	1683.6
972.855	1738.9
973.027	1493.14
973.199	1697.94
973.37	1800.34
973.542	1575.06
973.714	1642.64
973.886	1755.28
974.057	1953.93
974.229	1317.01
974.401	1484.95
974.572	1308.82
974.744	1263.77
974.915	1329.3
975.087	1341.59
975.259	1994.89
975.43	1513.62
975.602	1382.55
975.773	1296.53
975.945	1487
976.116	1861.77
976.288	1366.17
976.459	1497.24
976.63	1634.45
976.802	1757.33
976.973	1456.28
977.145	1605.78
977.316	2007.18
977.487	1632.4
977.659	1538.2
977.83	1325.21
978.001	2035.85
978.172	1712.27
978.344	1282.2
978.515	1542.29
978.686	1534.1
978.857	1974.41
979.028	1312.92
979.2	1302.68
979.371	1794.19
979.542	1697.94
979.713	1482.9
979.884	915.61
980.055	1446.04
980.226	1480.85
980.397	1300.63
980.568	1038.49
980.739	1796.24
980.91	1480.85
981.081	1482.9
981.252	1177.75
981.423	1566.87
981.594	1816.72
981.765	1101.98
981.936	1384.6
982.106	1527.96
982.277	1833.1
982.448	1149.08
982.619	1411.22
982.79	1443.99
982.96	1749.14
983.131	1353.88
983.302	975
983.472	1360.02
983.643	1550.48
983.814	1298.58
983.984	1161.37
984.155	1456.28
984.326	1654.93
984.496	1366.17
984.667	1263.77
984.837	1247.38
985.008	1706.13
985.178	1468.56
985.349	1239.19
985.519	1435.8
985.69	1218.71
985.86	1175.7
986.031	1104.03
986.201	1460.37
986.371	1659.03
986.542	1026.2
986.712	901.28
986.882	1476.76
987.053	1581.2
987.223	1052.83
987.393	1263.77
987.563	1231
987.734	1527.96
987.904	1403.03
988.074	1181.85
988.244	1435.8
988.414	1286.3
988.585	1095.83
988.755	1212.57
988.925	1306.77
989.095	1786
989.265	1034.39
989.435	1136.79
989.605	1431.7
989.775	1521.81
989.945	1312.92
990.115	944.28
990.285	1321.11
990.455	1421.46
990.625	1218.71
990.795	1026.2
990.965	1521.81
991.134	1120.41
991.304	1009.82
991.474	987.29
991.644	1419.41
991.814	1751.18
991.984	884.89
992.153	911.52
992.323	1144.99
992.493	1233.05
992.662	727.2
992.832	1034.39
993.002	1360.02
993.171	1357.97
993.341	886.94
993.511	1155.23
993.68	1271.96
993.85	1417.37
994.019	794.78
994.189	821.41
994.358	1163.42
994.528	1101.98
994.697	624.8
994.867	817.31
995.036	1308.82
995.206	1101.98
995.375	852.13
995.544	909.47
995.714	1288.34
995.883	1112.22
996.052	1077.4
996.222	788.64
996.391	1482.9
996.56	1142.94
996.73	868.51
996.899	729.25
997.068	1542.29
997.237	1190.04
997.406	735.39
997.576	782.49
997.745	1187.99
997.914	1190.04
998.083	616.61
998.252	774.3
998.421	1130.65
998.59	925.85
998.759	768.16
998.928	659.62
999.097	1345.69
999.266	1112.22
999.435	942.24
999.604	592.03
999.773	1550.48
999.942	985.24
1000.111	589.99
1000.28	551.07
1000.448	831.65
1000.617	870.56
1000.786	862.37
1000.955	657.57
1001.124	1089.69
1001.292	1724.56
1001.461	757.92
1001.63	624.8
1001.798	1378.45
1001.967	1370.26
1002.136	530.59
1002.304	557.22
1002.473	1034.39
1002.642	1085.59
1002.81	735.39
1002.979	657.57
1003.147	1104.03
1003.316	1630.35
1003.484	782.49
1003.653	616.61
1003.821	1271.96
1003.99	839.84
1004.158	755.87
1004.327	684.19
1004.495	999.58
1004.663	737.44
1004.832	749.73
1005	411.81
1005.168	1003.68
1005.337	981.15
1005.505	448.68
1005.673	778.4
1005.842	1009.82
1006.01	1056.92
1006.178	534.69
1006.346	506.02
1006.514	1001.63
1006.683	1159.32
1006.851	565.41
1007.019	608.42
1007.187	837.79
1007.355	573.6
1007.523	366.76
1007.691	387.24
1007.859	602.27
1008.027	1122.46
1008.195	506.02
1008.363	354.47
1008.531	1042.59
1008.699	604.32
1008.867	454.82
1009.035	559.27
1009.203	1124.51
1009.37	749.73
1009.538	452.77
1009.706	899.23
1009.874	899.23
1010.042	796.83
1010.209	403.62
1010.377	501.92
1010.545	1140.89
1010.713	817.31
1010.88	420
1011.048	506.02
1011.216	739.49
1011.383	1099.93
1011.551	442.53
1011.718	295.08
1011.886	962.72
1012.054	743.58
1012.221	377
1012.389	362.66
1012.556	764.06
1012.724	1226.9
1012.891	522.4
1013.058	272.55
1013.226	872.61
1013.393	970.91
1013.561	264.36
1013.728	204.97
1013.895	987.29
1014.063	813.21
1014.23	278.69
1014.397	387.24
1014.565	929.95
1014.732	643.23
1014.899	352.42
1015.066	252.07
1015.233	733.34
1015.401	850.08
1015.568	372.9
1015.735	379.04
1015.902	759.97
1016.069	860.32
1016.236	313.51
1016.403	231.59
1016.57	420
1016.737	927.9
1016.904	354.47
1017.071	241.83
1017.238	479.4
1017.405	878.75
1017.572	405.67
1017.739	624.8
1017.906	796.83
1018.073	934.04
1018.24	174.25
1018.407	370.85
1018.573	919.71
1018.74	497.83
1018.907	405.67
1019.074	172.2
1019.241	923.8
1019.407	581.79
1019.574	272.55
1019.741	139.43
1019.907	729.25
1020.074	757.92
1020.241	2.22
1020.407	176.3
1020.574	772.25
1020.74	800.93
1020.907	256.17
1021.073	293.03
1021.24	1056.92
1021.406	936.09
1021.573	198.82
1021.739	182.44
1021.906	780.45
1022.072	549.03
1022.239	270.5
1022.405	256.17
1022.571	624.8
1022.738	426.15
1022.904	280.74
1023.07	252.07
1023.237	727.2
1023.403	886.94
1023.569	241.83
1023.735	256.17
1023.902	657.57
1024.068	663.71
1024.234	112.81
1024.4	260.26
1024.566	669.86
1024.732	829.6
1024.898	161.96
1025.065	106.67
1025.231	819.36
1025.397	577.7
1025.563	209.06
1025.729	94.38
1025.895	104.62
1026.061	266.41
1026.227	-8.02
1026.392	174.25
1026.558	786.59
1026.724	643.23
1026.89	141.48
1027.056	121
1027.222	632.99
1027.388	440.48
1027.553	174.25
1027.719	211.11
1027.885	938.14
1028.051	682.14
1028.216	22.7
1028.382	180.39
1028.548	721.06
1028.713	379.04
1028.879	24.75
1029.045	331.94
1029.21	829.6
1029.376	659.62
1029.541	176.3
1029.707	280.74
1029.873	764.06
1030.038	690.34
1030.204	196.78
1030.369	233.64
1030.534	598.18
1030.7	460.96
1030.865	110.76
1031.031	100.52
1031.196	637.09
1031.361	512.16
1031.527	102.57
1031.692	133.29
1031.857	28.84
1032.023	698.53
1032.188	75.95
1032.353	139.43
1032.518	837.79
1032.684	551.07
1032.849	-32.6
1033.014	207.02
1033.179	661.66
1033.344	663.71
1033.509	151.72
1033.674	121
1033.839	569.51
1034.004	661.66
1034.17	127.14
1034.335	10.41
1034.5	420
1034.664	385.19
1034.829	75.95
1034.994	96.43
1035.159	581.79
1035.324	501.92
1035.489	32.94
1035.654	88.23
1035.819	854.17
1035.984	532.64
1036.148	190.63
1036.313	145.58
1036.478	616.61
1036.643	526.5
1036.807	47.27
1036.972	20.65
1037.137	774.3
1037.301	473.25
1037.466	-69.46
1037.631	182.44
1037.795	733.34
1037.96	487.59
1038.124	317.61
1038.289	-22.36
1038.454	596.13
1038.618	587.94
1038.783	77.99
1038.947	204.97
1039.111	467.11
1039.276	395.43
1039.44	22.7
1039.605	544.93
1039.769	403.62
1039.933	372.9
1040.098	45.23
1040.262	256.17
1040.426	682.14
1040.591	555.17
1040.755	51.37
1040.919	-28.5
1041.083	616.61
1041.248	377
1041.412	-83.8
1041.576	6.31
1041.74	370.85
1041.904	628.9
1042.068	-63.32
1042.232	116.9
1042.397	565.41
1042.561	526.5
1042.725	-167.76
1042.889	141.48
1043.053	600.23
1043.217	575.65
1043.381	141.48
1043.544	-14.17
1043.708	729.25
1043.872	202.92
1044.036	-227.15
1044.2	-38.74
1044.364	665.76
1044.528	802.97
1044.691	1487
1044.855	-83.8
1045.019	630.95
1045.183	555.17
1045.346	98.47
1045.51	-5.97
1045.674	493.73
1045.837	536.74
1046.001	137.38
1046.165	-77.65
1046.328	995.48
1046.492	514.21
1046.655	192.68
1046.819	123.05
1046.983	254.12
1047.146	501.92
1047.31	53.42
1047.473	-135
1047.636	452.77
1047.8	116.9
1047.963	100.52
1048.127	12.46
1048.29	321.7
