Data from Hydrogel_Ink_Intensity_Test_1_USB4F045381__67__00067.txt Node

Date: Mon Jul 31 10:53:39 EDT 2023
User: mmckonesweet
Spectrometer: USB4F04538
Trigger mode: 4
Integration Time (sec): 9.000000E-1
Scans to average: 1
Electric dark correction enabled: true
Nonlinearity correction enabled: false
Boxcar width: 0
XAxis mode: Wavelengths
Number of Pixels in Spectrum: 3648
>>>>>Begin Spectral Data<<<<<
345.52	-1039.51
345.736	-1039.51
345.952	-1039.51
346.168	-1076.38
346.384	-1019.04
346.6	-81.07
346.816	-220.33
347.032	-214.18
347.248	191.31
347.464	-167.08
347.68	-72.87
347.896	62.29
348.112	377.68
348.328	-105.64
348.544	-83.11
348.76	107.35
348.975	205.65
349.191	-249
349.407	-201.9
349.623	-27.82
349.839	-13.48
350.055	-152.74
350.27	21.33
350.486	86.87
350.702	285.52
350.918	224.08
351.133	-265.38
351.349	129.88
351.565	330.58
351.781	-277.67
351.996	-9.39
352.212	250.71
352.428	-179.37
352.644	-244.9
352.859	-203.94
353.075	215.89
353.291	-44.2
353.506	-138.41
353.722	-208.04
353.938	-19.63
354.153	379.73
354.369	103.25
354.584	-193.7
354.8	250.71
355.016	-371.88
355.231	-257.19
355.447	-109.74
355.662	97.11
355.878	850.76
356.093	-359.59
356.309	-46.25
356.524	-255.14
356.74	242.51
356.955	-232.62
357.171	-66.73
357.386	160.59
357.602	-234.66
357.817	-111.78
358.033	-169.13
358.248	324.43
358.464	95.06
358.679	-171.18
358.895	-298.15
359.11	-29.87
359.325	287.57
359.541	213.84
359.756	-40.11
359.972	-310.44
360.187	224.08
360.402	-187.56
360.618	-212.14
360.833	930.63
361.048	142.16
361.264	-150.7
361.479	-46.25
361.694	70.48
361.909	160.59
362.125	-195.75
362.34	-255.14
362.555	201.55
362.77	-36.01
362.986	-222.38
363.201	-275.62
363.416	140.12
363.631	43.86
363.847	-232.62
364.062	-142.5
364.277	138.07
364.492	181.07
364.707	-210.09
364.922	-359.59
365.138	226.13
365.353	359.25
365.568	-267.43
365.783	-124.07
365.998	111.44
366.213	578.38
366.428	-253.09
366.643	-3.24
366.858	246.61
367.073	209.75
367.288	-113.83
367.503	-265.38
367.718	109.4
367.933	310.1
368.148	-279.72
368.363	-17.58
368.578	-56.49
368.793	437.07
369.008	-162.98
369.223	-224.42
369.438	215.89
369.653	392.02
369.868	-312.49
370.083	-265.38
370.298	127.83
370.513	349.01
370.728	45.91
370.943	-277.67
371.157	-208.04
371.372	449.36
371.587	-298.15
371.802	-296.1
372.017	17.24
372.232	443.21
372.446	21.33
372.661	-150.7
372.876	162.64
373.091	148.31
373.306	-93.35
373.52	-328.87
373.735	-195.75
373.95	375.63
374.165	-93.35
374.379	-105.64
374.594	-138.41
374.809	72.53
375.023	54.1
375.238	-242.85
375.453	222.03
375.667	-302.25
375.882	-191.66
376.097	-263.33
376.311	-15.53
376.526	43.86
376.741	-232.62
376.955	58.2
377.17	639.82
377.384	598.86
377.599	-64.68
377.813	-330.92
378.028	566.09
378.242	189.27
378.457	-136.36
378.672	-400.55
378.886	86.87
379.101	-40.11
379.315	-335.01
379.53	-212.14
379.744	164.69
379.958	185.17
380.173	-189.61
380.387	-193.7
380.602	170.83
380.816	-183.46
381.031	-199.85
381.245	-165.03
381.459	168.79
381.674	2640.69
381.888	-134.31
382.103	99.16
382.317	-158.89
382.531	473.93
382.746	-107.69
382.96	-154.79
383.174	-44.2
383.388	506.7
383.603	56.15
383.817	-187.56
384.031	117.59
384.246	488.27
384.46	0.85
384.674	310.1
384.888	43.86
385.103	47.96
385.317	-312.49
385.531	-31.91
385.745	342.86
385.959	369.49
386.174	-289.96
386.388	-175.27
386.602	17.24
386.816	-179.37
387.03	-89.26
387.244	-40.11
387.458	115.54
387.672	367.44
387.887	-236.71
388.101	-251.05
388.315	357.2
388.529	187.22
388.743	-105.64
388.957	-249
389.171	308.05
389.385	-134.31
389.599	-113.83
389.813	99.16
390.027	111.44
390.241	633.68
390.455	-117.93
390.669	-21.67
390.883	-97.45
391.097	451.41
391.311	80.72
391.525	-111.78
391.738	193.36
391.952	215.89
392.166	-44.2
392.38	-265.38
392.594	326.48
392.808	332.62
393.022	-85.16
393.236	-220.33
393.449	236.37
393.663	236.37
393.877	-232.62
394.091	-64.68
394.305	11.09
394.518	-83.11
394.732	-322.73
394.946	-81.07
395.16	516.94
395.373	86.87
395.587	-130.22
395.801	-169.13
396.015	375.63
396.228	215.89
396.442	-242.85
396.656	-369.83
396.869	256.85
397.083	398.16
397.297	-76.97
397.51	-220.33
397.724	416.59
397.938	123.73
398.151	-312.49
398.365	-289.96
398.578	330.58
398.792	381.78
399.005	66.39
399.219	-42.15
399.433	148.31
399.646	342.86
399.86	95.06
400.073	107.35
400.287	238.42
400.5	74.58
400.714	50
400.927	-33.96
401.141	277.33
401.354	1143.62
401.567	246.61
401.781	-240.81
401.994	349.01
402.208	643.92
402.421	0.85
402.635	-117.93
402.848	78.68
403.061	385.87
403.275	50
403.488	-177.32
403.701	504.65
403.915	326.48
404.128	97.11
404.341	-79.02
404.555	336.72
404.768	74.58
404.981	62.29
405.195	-132.26
405.408	586.57
405.621	357.2
405.834	119.64
406.048	-119.98
406.261	498.51
406.474	543.57
406.687	-105.64
406.9	64.34
407.114	129.88
407.327	322.38
407.54	-269.48
407.753	-197.8
407.966	4.95
408.179	324.43
408.392	-113.83
408.605	-265.38
408.819	252.75
409.032	234.32
409.245	-81.07
409.458	70.48
409.671	219.99
409.884	377.68
410.097	-271.53
410.31	66.39
410.523	258.9
410.736	47.96
410.949	70.48
411.162	0.85
411.375	494.41
411.588	465.74
411.801	160.59
412.014	-103.59
412.227	176.98
412.44	2.9
412.653	-101.55
412.865	105.3
413.078	432.97
413.291	351.06
413.504	64.34
413.717	-134.31
413.93	365.39
414.143	17.24
414.356	-56.49
414.568	-234.66
414.781	441.17
414.994	275.28
415.207	-23.72
415.42	-29.87
415.632	389.97
415.845	619.34
416.058	-162.98
416.271	-76.97
416.483	242.51
416.696	672.59
416.909	-31.91
417.121	-97.45
417.334	299.86
417.547	664.4
417.759	-3.24
417.972	-126.12
418.185	203.6
418.397	314.19
418.61	-5.29
418.823	-74.92
419.035	566.09
419.248	176.98
419.46	-15.53
419.673	72.53
419.885	308.05
420.098	176.98
420.311	-33.96
420.523	-294.05
420.736	406.35
420.948	148.31
421.161	-113.83
421.373	-134.31
421.586	342.86
421.798	-15.53
422.01	-150.7
422.223	90.96
422.435	56.15
422.648	416.59
422.86	-7.34
423.073	-36.01
423.285	500.56
423.497	-66.73
423.71	-36.01
423.922	-66.73
424.134	422.73
424.347	627.53
424.559	228.18
424.771	303.95
424.984	162.64
425.196	334.67
425.408	-150.7
425.621	-54.44
425.833	578.38
426.045	523.09
426.257	-79.02
426.47	-58.54
426.682	308.05
426.894	336.72
427.106	-13.48
427.318	80.72
427.531	144.21
427.743	389.97
427.955	105.3
428.167	469.84
428.379	377.68
428.591	156.5
428.804	111.44
429.016	29.52
429.228	201.55
429.44	351.06
429.652	193.36
429.864	-173.22
430.076	168.79
430.288	254.8
430.5	-58.54
430.712	117.59
430.924	471.89
431.136	308.05
431.348	-117.93
431.56	17.24
431.772	285.52
431.984	205.65
432.196	17.24
432.408	-7.34
432.62	215.89
432.832	418.64
433.044	330.58
433.256	123.73
433.468	418.64
433.679	-52.39
433.891	-85.16
434.103	289.62
434.315	621.39
434.527	465.74
434.739	187.22
434.95	158.55
435.162	494.41
435.374	156.5
435.586	111.44
435.798	76.63
436.009	23.38
436.221	238.42
436.433	58.2
436.645	119.64
436.856	273.23
437.068	566.09
437.28	45.91
437.491	463.69
437.703	553.8
437.915	500.56
438.126	117.59
438.338	379.73
438.55	340.82
438.761	514.89
438.973	129.88
439.184	136.02
439.396	273.23
439.608	478.03
439.819	37.72
440.031	230.23
440.242	594.76
440.454	516.94
440.665	246.61
440.877	189.27
441.088	471.89
441.3	172.88
441.511	-52.39
441.723	7
441.934	455.5
442.146	398.16
442.357	301.9
442.569	490.32
442.78	420.69
442.991	738.12
443.203	504.65
443.414	121.68
443.626	799.56
443.837	226.13
444.048	33.62
444.26	54.1
444.471	404.3
444.682	531.28
444.894	45.91
445.105	33.62
445.316	662.35
445.528	572.24
445.739	267.09
445.95	201.55
446.161	459.6
446.373	680.78
446.584	240.47
446.795	217.94
447.006	670.54
447.217	754.51
447.429	15.19
447.64	113.49
447.851	777.03
448.062	531.28
448.273	4.95
448.484	203.6
448.695	594.76
448.907	420.69
449.118	293.71
449.329	418.64
449.54	365.39
449.751	295.76
449.962	232.27
450.173	252.75
450.384	707.4
450.595	746.31
450.806	297.81
451.017	254.8
451.228	801.61
451.439	727.88
451.65	273.23
451.861	66.39
452.072	269.14
452.283	418.64
452.494	379.73
452.705	160.59
452.915	910.15
453.126	617.29
453.337	320.34
453.548	148.31
453.759	766.79
453.97	1016.65
454.181	432.97
454.391	209.75
454.602	578.38
454.813	787.27
455.024	322.38
455.235	238.42
455.445	639.82
455.656	664.4
455.867	516.94
456.078	383.82
456.288	496.46
456.499	742.22
456.71	328.53
456.921	525.13
457.131	607.05
457.342	652.11
457.553	394.06
457.763	353.1
457.974	801.61
458.184	756.55
458.395	215.89
458.606	230.23
458.816	967.49
459.027	1145.67
459.237	537.42
459.448	197.46
459.659	930.63
459.869	1200.96
460.08	275.28
460.29	512.85
460.501	1170.24
460.711	435.02
460.922	248.66
461.132	443.21
461.343	1293.12
461.553	291.66
461.764	480.08
461.974	359.25
462.184	932.68
462.395	721.74
462.605	498.51
462.816	283.47
463.026	756.55
463.236	877.38
463.447	437.07
463.657	457.55
463.867	893.77
464.078	758.6
464.288	422.73
464.498	557.9
464.709	703.31
464.919	779.08
465.129	619.34
465.339	494.41
465.55	840.52
465.76	865.1
465.97	594.76
466.18	625.48
466.391	1049.41
466.601	840.52
466.811	670.54
467.021	396.11
467.231	938.82
467.441	1180.48
467.651	551.76
467.862	312.14
468.072	885.58
468.282	1141.57
468.492	547.66
468.702	807.75
468.912	973.64
469.122	1454.91
469.332	856.9
469.542	582.48
469.752	1096.52
469.962	1049.41
470.172	645.96
470.382	764.75
470.592	1272.64
470.802	1397.57
471.012	924.49
471.222	760.65
471.432	1329.99
471.642	1397.57
471.852	990.02
472.062	789.32
472.272	1004.36
472.482	955.21
472.691	721.74
472.901	758.6
473.111	1190.72
473.321	1719.1
473.531	777.03
473.741	996.17
473.95	1350.46
474.16	1258.31
474.37	1160
474.58	867.14
474.79	1684.28
474.999	1454.91
475.209	834.38
475.419	1082.18
475.628	1248.07
475.838	1585.98
476.048	1033.03
476.258	916.3
476.467	1702.72
476.677	1164.1
476.886	1360.7
477.096	1233.73
477.306	1295.17
477.515	1680.19
477.725	1205.06
477.935	1254.21
478.144	1727.29
478.354	1262.4
478.563	1260.35
478.773	1084.23
478.982	1602.36
479.192	1739.58
479.401	1469.25
479.611	1313.6
479.82	1272.64
480.03	1547.07
480.239	1291.07
480.449	1301.31
480.658	2167.6
480.868	1489.73
481.077	1524.54
481.287	1440.58
481.496	1747.77
481.705	2036.53
481.915	1663.8
482.124	1706.81
482.333	1835.83
482.543	2159.41
482.752	1651.52
482.961	1424.19
483.171	1923.9
483.38	1696.57
483.589	1522.49
483.799	1399.62
484.008	1749.82
484.217	2083.64
484.426	1704.76
484.636	1563.45
484.845	1979.19
485.054	1604.41
485.263	2128.69
485.472	1657.66
485.682	2356.02
485.891	2104.12
486.1	1561.41
486.309	1798.97
486.518	2157.36
486.727	2452.27
486.936	1717.05
487.146	1837.88
487.355	2474.8
487.564	1923.9
487.773	1866.55
487.982	1977.14
488.191	1981.24
488.4	2233.14
488.609	1907.51
488.818	1872.7
489.027	2712.36
489.236	2622.25
489.445	2022.2
489.654	1973.05
489.863	2456.37
490.072	2323.25
490.281	2325.3
490.49	2003.77
490.698	2609.97
490.907	2734.89
491.116	2110.26
491.325	1833.79
491.534	2687.79
491.743	2521.9
491.952	2245.43
492.16	2243.38
492.369	2601.77
492.578	2673.45
492.787	2198.32
492.996	2057.01
493.204	2341.68
493.413	2855.72
493.622	2040.63
493.831	1999.67
494.039	2876.2
494.248	2339.63
494.457	2222.9
494.665	2153.27
494.874	2669.36
495.083	3142.44
495.291	2390.83
495.5	2151.22
495.709	2847.53
495.917	2691.88
496.126	2487.09
496.335	2374.45
496.543	2372.4
496.752	2759.47
496.96	2642.73
497.169	2394.93
497.377	2765.61
497.586	2868.01
497.794	2669.36
498.003	2288.43
498.211	2761.52
498.42	3078.95
498.628	2671.4
498.837	2442.03
499.045	2716.46
499.254	2745.13
499.462	2669.36
499.671	2487.09
499.879	3380
500.087	3089.19
500.296	2425.65
500.504	2609.97
500.713	3070.76
500.921	3511.07
501.129	2642.73
501.338	2599.73
501.546	3068.71
501.754	3046.18
501.962	2706.22
502.171	2636.59
502.379	3167.01
502.587	3439.39
502.795	2671.4
503.004	2845.48
503.212	2931.5
503.42	3357.47
503.628	2728.75
503.837	2884.39
504.045	3207.97
504.253	3609.37
504.461	2790.19
504.669	2597.68
504.877	3212.07
505.085	3496.74
505.294	2564.91
505.502	2997.03
505.71	3265.32
505.918	3318.56
506.126	2841.39
506.334	2847.53
506.542	3181.35
506.75	3187.49
506.958	3205.92
507.166	2992.94
507.374	3042.09
507.582	3539.74
507.79	3033.9
507.998	2954.02
508.206	3349.28
508.414	3328.8
508.622	3033.9
508.83	2966.31
509.037	3818.27
509.245	3310.37
509.453	2949.93
509.661	2878.25
509.869	3580.7
510.077	3367.71
510.285	3222.31
510.492	2822.95
510.7	3846.94
510.908	3351.33
511.116	3185.44
511.324	3201.83
511.531	3375.91
511.739	3519.26
511.947	3363.62
512.155	3513.12
512.362	3408.67
512.57	3218.21
512.778	3066.66
512.985	3117.86
513.193	3728.16
513.401	3990.3
513.608	3291.94
513.816	3205.92
514.024	3523.36
514.231	3631.9
514.439	3117.86
514.646	3339.04
514.854	3838.75
515.061	3846.94
515.269	3291.94
515.477	3367.71
515.684	3341.09
515.892	3818.27
516.099	3205.92
516.307	3259.17
516.514	3767.07
516.722	4150.04
516.929	3515.17
517.136	3169.06
517.344	3902.23
517.551	3844.89
517.759	3357.47
517.966	3445.54
518.173	3724.06
518.381	3750.68
518.588	3519.26
518.796	3392.29
519.003	3945.24
519.21	3685.15
519.418	3396.39
519.625	3619.61
519.832	3734.3
520.039	3978.01
520.247	3351.33
520.454	3506.98
520.661	4109.08
520.868	4004.63
521.076	3554.08
521.283	3605.28
521.49	4502.29
521.697	3912.47
521.904	3539.74
522.112	3615.52
522.319	4113.17
522.526	3973.91
522.733	3527.46
522.94	3642.14
523.147	3814.17
523.354	4141.85
523.561	3367.71
523.768	3830.55
523.975	4234
524.183	4086.55
524.39	3859.23
524.597	3474.21
524.804	4035.35
525.011	3887.9
525.218	3740.44
525.425	3656.48
525.632	4322.07
525.838	4023.06
526.045	3779.36
526.252	3808.03
526.459	5481.22
526.666	5110.54
526.873	3707.68
527.08	3902.23
527.287	4436.75
527.494	4221.72
527.701	3824.41
527.907	3810.08
528.114	4170.52
528.321	4068.12
528.528	3867.42
528.735	3988.25
528.941	4070.17
529.148	4072.22
529.355	3906.33
529.562	3691.29
529.768	4789
529.975	4305.68
530.182	4072.22
530.388	3801.88
530.595	4453.14
530.802	4078.36
531.008	4248.34
531.215	4049.69
531.422	5047.05
531.628	4899.59
531.835	4068.12
532.042	4131.61
532.248	4168.47
532.455	4453.14
532.661	4141.85
532.868	4158.23
533.074	4621.07
533.281	4612.88
533.487	4309.78
533.694	4021.02
533.9	4141.85
534.107	4602.64
534.313	4088.6
534.52	4018.97
534.726	4774.67
534.933	5010.18
535.139	4182.81
535.345	4064.02
535.552	4662.03
535.758	4662.03
535.965	4322.07
536.171	4313.88
536.377	4803.34
536.584	4940.55
536.79	4274.96
536.996	4354.83
537.203	4588.3
537.409	4608.78
537.615	4365.07
537.821	4438.8
538.028	4928.27
538.234	4842.25
538.44	4367.12
538.646	4363.03
538.853	4858.64
539.059	4655.89
539.265	4844.3
539.471	4346.64
539.677	4854.54
539.883	4616.97
540.09	4446.99
540.296	4860.68
540.502	4768.52
540.708	4756.24
540.914	4610.83
541.12	4471.57
541.326	5018.38
541.532	4768.52
541.738	4748.04
541.944	4651.79
542.15	5053.19
542.356	4739.85
542.562	4643.6
542.768	4647.69
542.974	5477.12
543.18	5452.55
543.386	4641.55
543.592	4506.38
543.798	5290.76
544.004	5180.17
544.21	4518.67
544.415	4840.2
544.621	5071.62
544.827	5251.85
545.033	4850.44
545.239	5049.1
545.445	4872.97
545.651	5073.67
545.856	4678.41
546.062	4711.18
546.268	4846.35
546.474	5214.98
546.679	4696.85
546.885	4746
547.091	5081.86
547.297	5657.34
547.502	4850.44
547.708	4727.57
547.914	4789
548.119	5288.71
548.325	4870.92
548.531	4473.62
548.736	5520.13
548.942	4956.94
549.147	4864.78
549.353	5157.64
549.559	5509.89
549.764	5278.47
549.97	4887.31
550.175	4969.23
550.381	5446.4
550.586	4870.92
550.792	5006.09
550.997	4981.51
551.203	5317.38
551.408	5466.88
551.614	4832.01
551.819	5098.25
552.025	5534.46
552.23	5739.26
552.435	5088.01
552.641	5194.5
552.846	5237.51
553.052	5737.21
553.257	5290.76
553.462	5108.49
553.668	5253.89
553.873	5726.97
554.078	5143.3
554.283	5026.57
554.489	5597.95
554.694	5546.75
554.899	5065.48
555.105	5401.35
555.31	5593.86
555.515	5767.93
555.72	5337.86
555.925	5034.76
556.131	5665.53
556.336	5423.87
556.541	5243.65
556.746	5161.73
556.951	5839.61
557.156	5866.24
557.361	5247.75
557.567	5323.52
557.772	6191.86
557.977	5706.49
558.182	5380.87
558.387	5329.67
558.592	5501.7
558.797	6011.64
559.002	5407.49
559.207	5511.94
559.412	5626.62
559.617	6132.47
559.822	5339.91
560.027	5311.24
560.232	5718.78
560.437	5925.63
560.642	5272.32
560.847	5407.49
561.051	5704.45
561.256	5743.36
561.461	5413.63
561.666	5284.61
561.871	5825.28
562.076	5853.95
562.281	5552.9
562.485	5294.85
562.69	5921.53
562.895	5972.73
563.1	5516.03
563.305	5395.2
563.509	6390.52
563.714	6310.65
563.919	5645.06
564.123	5309.19
564.328	5735.17
564.533	6140.66
564.737	5600
564.942	5559.04
565.147	6212.34
565.351	6263.54
565.556	5622.53
565.761	5626.62
565.965	5974.78
566.17	5749.5
566.374	5458.69
566.579	5401.35
566.784	5894.91
566.988	5665.53
567.193	5403.39
567.397	5663.49
567.602	5573.38
567.806	5718.78
568.011	5602.05
568.215	5839.61
568.42	6001.4
568.624	5890.81
568.828	5710.59
569.033	5675.77
569.237	6161.14
569.442	6273.78
569.646	5569.28
569.85	5724.93
570.055	5931.77
570.259	5874.43
570.463	6011.64
570.668	5724.93
570.872	5964.54
571.076	5917.44
571.281	5864.19
571.485	5933.82
571.689	5997.31
571.893	6337.27
572.098	5954.3
572.302	5911.29
572.506	6226.68
572.71	6243.06
572.914	5812.99
573.119	5737.21
573.323	6439.67
573.527	6417.14
573.731	5890.81
573.935	5907.2
574.139	6091.51
574.343	5950.2
574.547	5919.48
574.751	6030.07
574.955	6386.42
575.159	6566.64
575.364	5888.76
575.568	5649.15
575.772	6157.05
575.976	6591.22
576.18	5878.52
576.383	5909.24
576.587	6521.59
576.791	6433.52
576.995	5753.6
577.199	5888.76
577.403	6187.77
577.607	6677.23
577.811	5980.92
578.015	6089.46
578.219	6513.39
578.422	6578.93
578.626	6111.99
578.83	6255.35
579.034	6576.88
579.238	6376.18
579.442	6032.12
579.645	6478.58
579.849	6292.21
580.053	6288.12
580.257	6083.32
580.46	6171.38
580.664	6734.57
580.868	6671.09
581.071	6415.09
581.275	6251.25
581.479	6071.03
581.682	6591.22
581.886	5989.11
582.09	6286.07
582.293	6843.12
582.497	6746.86
582.7	6165.24
582.904	6222.58
583.107	6460.15
583.311	6507.25
583.515	6281.97
583.718	6306.55
583.922	6593.26
584.125	7121.64
584.329	6116.09
584.532	6656.75
584.735	6886.12
584.939	6892.27
585.142	6322.93
585.346	6191.86
585.549	6632.18
585.753	6619.89
585.956	6468.34
586.159	6517.49
586.363	7224.04
586.566	6879.98
586.769	6216.44
586.973	6284.02
587.176	6734.57
587.379	7072.49
587.582	6830.83
587.786	6623.98
587.989	6687.47
588.192	7574.24
588.395	6574.83
588.599	6894.32
588.802	6867.69
589.005	6857.45
589.208	6615.79
589.411	6460.15
589.615	7156.46
589.818	7289.57
590.021	6861.55
590.224	6789.87
590.427	7039.72
590.63	6951.66
590.833	6417.14
591.036	6505.2
591.239	6662.9
591.442	6656.75
591.645	6722.29
591.848	6644.46
592.051	7271.14
592.254	7174.89
592.457	6628.08
592.66	6699.76
592.863	7011.05
593.066	7009
593.269	6652.66
593.472	6894.32
593.675	6761.2
593.878	7244.52
594.081	6714.09
594.284	6658.8
594.486	7400.16
594.689	7117.54
594.892	6812.4
595.095	6832.88
595.298	7203.56
595.5	6912.75
595.703	7084.78
595.906	6857.45
596.109	7492.32
596.311	7357.16
596.514	6611.7
596.717	7088.87
596.92	7312.1
597.122	7299.81
597.325	6626.03
597.528	6744.81
597.73	7547.62
597.933	7426.79
598.136	6963.95
598.338	6851.31
598.541	7488.23
598.743	7594.72
598.946	6894.32
599.148	6976.23
599.351	7490.28
599.554	7447.27
599.756	7027.43
599.959	7215.85
600.161	7379.68
600.363	7996.12
600.566	7181.03
600.768	6953.71
600.971	7674.59
601.173	7617.25
601.376	6978.28
601.578	7164.65
601.78	7418.6
601.983	7959.26
602.185	7068.39
602.388	7127.78
602.59	7465.7
602.792	7275.24
602.995	7213.8
603.197	7058.15
603.399	7580.39
603.601	7471.84
603.804	7039.72
604.006	7125.74
604.208	7105.26
604.41	6912.75
604.613	7555.81
604.815	7095.02
605.017	8043.23
605.219	7445.22
605.421	7426.79
605.623	7262.95
605.826	7854.81
606.028	7756.51
606.23	7287.53
606.432	7150.31
606.634	7793.37
606.836	7801.57
607.038	7095.02
607.24	7267.05
607.442	7611.11
607.644	7609.06
607.846	7383.78
608.048	7127.78
608.25	7631.58
608.452	7369.44
608.654	7365.35
608.856	6922.99
609.058	7439.08
609.26	7559.91
609.462	7269.09
609.664	7273.19
609.866	7959.26
610.067	7783.13
610.269	7379.68
610.471	7058.15
610.673	7428.84
610.875	7731.94
611.077	7293.67
611.278	7512.8
611.48	7432.93
611.682	7846.62
611.884	7377.64
612.085	7369.44
612.287	7328.49
612.489	7574.24
612.69	7052.01
612.892	7293.67
613.094	7932.64
613.295	7725.79
613.497	7160.55
613.699	7402.21
613.9	8004.32
614.102	7834.33
614.304	7334.63
614.505	7262.95
614.707	7488.23
614.908	7504.61
615.11	7070.44
615.311	7398.12
615.513	7916.25
615.714	8022.75
615.916	7336.68
616.117	7187.18
616.319	7572.19
616.52	7797.47
616.722	7353.06
616.923	7269.09
617.124	7934.68
617.326	7867.1
617.527	7434.98
617.729	7656.16
617.93	7901.92
618.131	7797.47
618.333	7267.05
618.534	7502.56
618.735	7295.72
618.937	7869.15
619.138	7224.04
619.339	7447.27
619.54	7779.04
619.742	7572.19
619.943	7570.15
620.144	7434.98
620.345	7756.51
620.546	7813.85
620.748	7359.21
620.949	7525.09
621.15	7629.54
621.351	7721.7
621.552	7383.78
621.753	7258.85
621.954	7353.06
622.155	8129.24
622.356	7459.56
622.558	7426.79
622.759	7686.88
622.96	8057.56
623.161	7439.08
623.362	7455.46
623.563	7664.35
623.764	7797.47
623.965	7420.64
624.166	7709.41
624.366	7598.82
624.567	7727.84
624.768	7258.85
624.969	7248.61
625.17	7627.49
625.371	7944.92
625.572	7707.36
625.773	7369.44
625.973	8155.86
626.174	8039.13
626.375	7434.98
626.576	7500.51
626.777	7934.68
626.977	8270.55
627.178	7609.06
627.379	7490.28
627.58	7781.09
627.78	7754.46
627.981	7512.8
628.182	7529.19
628.382	8200.92
628.583	7359.21
628.784	7299.81
628.984	7639.78
629.185	8000.22
629.386	7959.26
629.586	7838.43
629.787	7451.36
629.987	8135.39
630.188	7912.16
630.388	7688.93
630.589	7525.09
630.79	8323.8
630.99	7856.86
631.191	7635.68
631.391	7770.85
631.591	7910.11
631.792	8241.88
631.992	7723.74
632.193	7578.34
632.393	8336.09
632.594	7865.05
632.794	7570.15
632.994	7867.1
633.195	7813.85
633.395	7949.02
633.595	7701.22
633.796	8035.03
633.996	7592.67
634.196	8256.22
634.397	7580.39
634.597	7754.46
634.797	7658.21
634.997	8256.22
635.198	7938.78
635.398	7561.95
635.598	8096.47
635.798	8299.22
635.998	8178.39
636.199	7486.18
636.399	7830.24
636.599	7840.48
636.799	7746.27
636.999	7826.14
637.199	8004.32
637.399	8223.45
637.599	7807.71
637.799	7799.52
637.999	7846.62
638.199	8315.61
638.399	7697.12
638.599	7779.04
638.799	8143.58
638.999	8420.05
639.199	7967.45
639.399	7985.88
639.599	8440.53
639.799	7772.89
639.999	7731.94
640.199	7770.85
640.399	8198.87
640.599	7940.83
640.799	8030.94
640.998	8067.8
641.198	8262.36
641.398	8059.61
641.598	7959.26
641.798	7828.19
641.997	8954.57
642.197	8209.11
642.397	7942.88
642.597	7881.44
642.796	8344.28
642.996	8286.93
643.196	7930.59
643.395	7664.35
643.595	8116.95
643.795	7555.81
643.994	7908.06
644.194	7883.49
644.394	8223.45
644.593	8106.71
644.793	7758.56
644.992	8045.27
645.192	8331.99
645.392	7893.72
645.591	8159.96
645.791	7869.15
645.99	8299.22
646.19	8065.75
646.389	8020.7
646.589	8119
646.788	8282.84
646.987	8344.28
647.187	8268.5
647.386	8065.75
647.586	8329.94
647.785	8364.76
647.984	7883.49
648.184	8096.47
648.383	8213.21
648.582	8108.76
648.782	7955.16
648.981	8149.72
649.18	7922.4
649.38	8352.47
649.579	7979.74
649.778	8000.22
649.977	8407.77
650.177	8485.59
650.376	8200.92
650.575	7738.08
650.774	8846.03
650.973	7963.36
651.173	7856.86
651.372	8192.73
651.571	8411.86
651.77	8622.8
651.969	8028.89
652.168	8106.71
652.367	7850.72
652.566	8338.13
652.765	8098.52
652.964	8241.88
653.163	8893.13
653.362	8159.96
653.561	7975.64
653.76	8002.27
653.959	8309.46
654.158	8665.81
654.357	8282.84
654.556	8254.17
654.755	8483.54
654.954	8614.61
655.153	8215.26
655.352	8327.89
655.551	8598.23
655.749	8270.55
655.948	8119
656.147	8366.81
656.346	8557.27
656.545	8485.59
656.743	8311.51
656.942	8370.9
657.141	8344.28
657.34	8090.33
657.538	8219.35
657.737	8188.63
657.936	8637.14
658.135	8489.68
658.333	8018.65
658.532	7985.88
658.731	8905.42
658.929	8665.81
659.128	8536.79
659.326	8254.17
659.525	8846.03
659.724	8458.96
659.922	8049.37
660.121	8026.84
660.319	8835.79
660.518	8145.63
660.716	7979.74
660.915	8061.66
661.113	8733.39
661.312	8223.45
661.51	8534.74
661.709	7975.64
661.907	8694.48
662.105	8743.63
662.304	8135.39
662.502	8491.73
662.701	8743.63
662.899	8291.03
663.097	8618.71
663.296	7953.12
663.494	8653.52
663.692	8854.22
663.891	8139.48
664.089	8094.43
664.287	8626.9
664.485	8755.92
664.684	7989.98
664.882	8436.44
665.08	8153.82
665.278	8321.75
665.476	7889.63
665.675	8635.09
665.873	8979.15
666.071	8753.87
666.269	8221.4
666.467	8366.81
666.665	8286.93
666.863	8461.01
667.061	8542.93
667.259	8123.1
667.457	8395.48
667.655	8655.57
667.853	8102.62
668.051	8307.41
668.249	8344.28
668.447	8653.52
668.645	8045.27
668.843	8305.37
669.041	8737.49
669.239	8444.63
669.437	8252.12
669.635	8590.03
669.833	8418
670.031	8637.14
670.229	8348.37
670.426	8483.54
670.624	8508.12
670.822	8291.03
671.02	8356.57
671.218	8254.17
671.415	8311.51
671.613	8463.06
671.811	8295.13
672.009	8278.74
672.206	8665.81
672.404	8497.88
672.602	8454.87
672.799	8280.79
672.997	8739.54
673.195	8651.47
673.392	8475.35
673.59	8327.89
673.788	8641.23
673.985	7924.44
674.183	8129.24
674.38	8266.46
674.578	8598.23
674.775	8243.93
674.973	8196.82
675.17	8116.95
675.368	8698.58
675.565	8442.58
675.763	8192.73
675.96	8094.43
676.158	8590.03
676.355	8485.59
676.553	8192.73
676.75	8178.39
676.947	8573.65
677.145	8305.37
677.342	8192.73
677.539	8200.92
677.737	8381.14
677.934	8911.57
678.131	8569.55
678.329	8139.48
678.526	8938.19
678.723	8630.99
678.92	8258.26
679.118	8293.08
679.315	8051.42
679.512	8886.99
679.709	8331.99
679.906	8051.42
680.104	8798.93
680.301	8202.97
680.498	8127.19
680.695	8108.76
680.892	8200.92
681.089	8213.21
681.286	8090.33
681.483	7918.3
681.68	8389.33
681.877	8375
682.075	8104.67
682.272	8383.19
682.469	8215.26
682.665	8209.11
682.862	8071.9
683.059	7916.25
683.256	8405.72
683.453	8174.3
683.65	8100.57
683.847	8108.76
684.044	8202.97
684.241	8149.72
684.438	8155.86
684.635	7858.91
684.831	8708.82
685.028	8585.94
685.225	7901.92
685.422	8147.67
685.619	8123.1
685.815	8125.15
686.012	8131.29
686.209	8123.1
686.405	8143.58
686.602	8401.62
686.799	7969.5
686.996	8090.33
687.192	7848.67
687.389	8866.51
687.586	7807.71
687.782	8016.6
687.979	8557.27
688.175	8524.5
688.372	8053.47
688.568	8053.47
688.765	8051.42
688.962	8409.81
689.158	7916.25
689.355	7820
689.551	8483.54
689.748	8123.1
689.944	8063.71
690.14	7750.37
690.337	8428.24
690.533	7957.21
690.73	7924.44
690.926	8092.38
691.123	8041.18
691.319	8225.5
691.515	7832.29
691.712	7955.16
691.908	8172.25
692.104	8217.3
692.301	7860.96
692.497	7949.02
692.693	8227.54
692.889	8272.6
693.086	7994.08
693.282	7598.82
693.478	8035.03
693.674	8444.63
693.87	7936.73
694.067	7856.86
694.263	8217.3
694.459	7967.45
694.655	8207.06
694.851	7879.39
695.047	8172.25
695.243	8278.74
695.439	7959.26
695.635	7707.36
695.831	8209.11
696.027	7936.73
696.224	7740.13
696.42	8186.58
696.615	8499.92
696.811	8116.95
697.007	7459.56
697.203	7916.25
697.399	8084.19
697.595	8450.77
697.791	7785.18
697.987	7959.26
698.183	7758.56
698.379	7768.8
698.575	7807.71
698.77	7817.95
698.966	8162.01
699.162	8346.33
699.358	7750.37
699.554	7746.27
699.749	8217.3
699.945	8096.47
700.141	7858.91
700.337	7877.34
700.532	7860.96
700.728	7824.09
700.924	7875.29
701.119	7502.56
701.315	8172.25
701.511	7770.85
701.706	7795.42
701.902	7254.76
702.097	7951.07
702.293	8010.46
702.489	7762.65
702.684	7680.74
702.88	7934.68
703.075	7903.96
703.271	7719.65
703.466	7586.53
703.662	7926.49
703.857	8069.85
704.053	7797.47
704.248	7744.22
704.443	8288.98
704.639	8065.75
704.834	7643.87
705.03	7531.23
705.225	8073.95
705.42	8045.27
705.616	7828.19
705.811	7631.58
706.006	7746.27
706.202	7639.78
706.397	7779.04
706.592	7381.73
706.787	7703.26
706.983	7865.05
707.178	7889.63
707.373	7717.6
707.568	8028.89
707.763	8141.53
707.959	7461.6
708.154	7492.32
708.349	7709.41
708.544	8032.99
708.739	7930.59
708.934	7570.15
709.129	7906.01
709.324	8094.43
709.519	7506.66
709.714	7332.58
709.909	8168.15
710.104	7783.13
710.299	7666.4
710.494	7500.51
710.689	8018.65
710.884	7875.29
711.079	7801.57
711.274	7766.75
711.469	8014.56
711.664	7824.09
711.859	7533.28
712.054	7805.66
712.249	7781.09
712.443	7877.34
712.638	7365.35
712.833	7439.08
713.028	7844.57
713.223	7742.18
713.417	7785.18
713.612	7504.61
713.807	7795.42
714.002	8448.72
714.196	7664.35
714.391	7353.06
714.586	7871.2
714.78	7578.34
714.975	7582.43
715.17	7305.96
715.364	7670.5
715.559	7924.44
715.754	7113.45
715.948	7379.68
716.143	8082.14
716.337	7559.91
716.532	7856.86
716.726	7391.97
716.921	7881.44
717.115	8110.81
717.31	7226.09
717.504	7815.9
717.699	7574.24
717.893	7738.08
718.088	7381.73
718.282	7351.01
718.476	7729.89
718.671	7803.61
718.865	7176.94
719.059	7340.77
719.254	7541.47
719.448	7883.49
719.642	8647.38
719.837	7164.65
720.031	7752.42
720.225	7766.75
720.419	7295.72
720.614	7232.23
720.808	7711.46
721.002	7604.96
721.196	7396.07
721.39	7289.57
721.585	7983.84
721.779	7658.21
721.973	7381.73
722.167	7017.19
722.361	7658.21
722.555	7817.95
722.749	7240.42
722.943	7125.74
723.137	7183.08
723.331	7455.46
723.525	7181.03
723.719	7146.22
723.913	7482.08
724.107	7670.5
724.301	7293.67
724.495	7279.33
724.689	7951.07
724.883	7838.43
725.077	7107.3
725.271	7334.63
725.465	7727.84
725.659	7412.45
725.853	7221.99
726.046	7197.42
726.24	7389.92
726.434	7658.21
726.628	7256.81
726.822	7387.88
727.015	7703.26
727.209	7660.26
727.403	7193.32
727.596	6970.09
727.79	7662.3
727.984	7695.07
728.177	7240.42
728.371	7338.73
728.565	7613.15
728.758	7248.61
728.952	7353.06
729.146	7416.55
729.339	7723.74
729.533	7340.77
729.726	7156.46
729.92	6988.52
730.113	7766.75
730.307	7504.61
730.5	7183.08
730.694	7064.3
730.887	7353.06
731.081	7568.1
731.274	7299.81
731.468	7049.96
731.661	7461.6
731.854	7426.79
732.048	7113.45
732.241	6994.67
732.435	7293.67
732.628	7412.45
732.821	7326.44
733.014	7054.06
733.208	7088.87
733.401	7615.2
733.594	7017.19
733.788	7060.2
733.981	7590.63
734.174	7625.44
734.367	7234.28
734.56	7230.18
734.754	7512.8
734.947	7617.25
735.14	7103.21
735.333	7119.59
735.526	7500.51
735.719	7158.5
735.912	6949.61
736.105	7017.19
736.298	7473.89
736.491	7176.94
736.684	7160.55
736.877	7041.77
737.07	7385.83
737.263	7514.85
737.456	7047.91
737.649	6875.88
737.842	7203.56
738.035	7420.64
738.228	7228.14
738.421	7193.32
738.614	7549.67
738.807	7545.57
739	7025.39
739.192	7039.72
739.385	7463.65
739.578	7518.95
739.771	7271.14
739.964	6935.28
740.156	7408.36
740.349	7193.32
740.542	7283.43
740.735	7015.15
740.927	7027.43
741.12	7140.07
741.313	6853.36
741.505	7215.85
741.698	7383.78
741.891	7389.92
742.083	7250.66
742.276	7135.98
742.468	7236.33
742.661	7209.7
742.854	6972.14
743.046	6679.28
743.239	7676.64
743.431	7250.66
743.624	7041.77
743.816	7015.15
744.009	7123.69
744.201	7385.83
744.393	7082.73
744.586	6859.5
744.778	7590.63
744.971	7160.55
745.163	7150.31
745.355	6984.43
745.548	7234.28
745.74	6949.61
745.932	7035.63
746.125	7092.97
746.317	7809.76
746.509	7269.09
746.702	7023.34
746.894	7170.79
747.086	7111.4
747.278	7394.02
747.471	7166.7
747.663	6994.67
747.855	7254.76
748.047	7377.64
748.239	7099.11
748.431	6941.42
748.623	7564
748.815	7639.78
749.008	6738.67
749.2	6828.78
749.392	7367.4
749.584	7326.44
749.776	6927.08
749.968	7027.43
750.16	7668.45
750.352	7127.78
750.544	6990.57
750.736	6851.31
750.928	7146.22
751.12	7232.23
751.311	6693.62
751.503	6806.25
751.695	7228.14
751.887	7213.8
752.079	6812.4
752.271	6691.57
752.463	8047.32
752.654	7295.72
752.846	6828.78
753.038	6812.4
753.23	6847.21
753.421	7277.29
753.613	6828.78
753.805	7004.91
753.997	7314.15
754.188	7359.21
754.38	6951.66
754.572	6871.79
754.763	7039.72
754.955	7150.31
755.146	7002.86
755.338	6816.49
755.53	7049.96
755.721	7041.77
755.913	6546.16
756.104	6540.02
756.296	6820.59
756.487	7140.07
756.679	6740.72
756.87	6494.96
757.062	6775.53
757.253	7201.51
757.445	6646.51
757.636	6767.34
757.827	6896.36
758.019	7602.91
758.21	6576.88
758.401	6695.66
758.593	7371.49
758.784	7312.1
758.975	6472.43
759.167	6664.94
759.358	6812.4
759.549	7146.22
759.74	6540.02
759.932	6583.02
760.123	7080.68
760.314	6787.82
760.505	6593.26
760.696	6548.21
760.888	7140.07
761.079	6724.33
761.27	6529.78
761.461	6251.25
761.652	7090.92
761.843	6746.86
762.034	6482.67
762.225	6816.49
762.416	6640.37
762.607	6589.17
762.798	6566.64
762.989	6468.34
763.18	7494.37
763.371	6687.47
763.562	6445.81
763.753	6554.35
763.944	6986.47
764.135	7027.43
764.326	6492.91
764.517	6425.33
764.708	6970.09
764.899	6822.64
765.089	6367.99
765.28	6230.77
765.471	6617.84
765.662	6632.18
765.853	6421.24
766.043	6226.68
766.234	6738.67
766.425	6759.15
766.615	6152.95
766.806	6292.21
766.997	6918.89
767.187	6836.97
767.378	6198.01
767.569	6175.48
767.759	6662.9
767.95	6568.69
768.141	6435.57
768.331	6195.96
768.522	6478.58
768.712	6644.46
768.903	6367.99
769.093	6159.1
769.284	6800.11
769.474	6537.97
769.665	6083.32
769.855	5937.91
770.046	6621.94
770.236	6208.25
770.426	6384.37
770.617	6167.29
770.807	6593.26
770.998	6314.74
771.188	6327.03
771.378	6095.61
771.569	6689.52
771.759	6593.26
771.949	5964.54
772.139	5964.54
772.33	6386.42
772.52	6779.63
772.71	6126.33
772.9	5952.25
773.09	6769.39
773.281	6826.73
773.471	6042.36
773.661	6034.17
773.851	6544.11
774.041	6173.43
774.231	6060.79
774.421	6120.18
774.611	6763.25
774.802	6337.27
774.992	6085.37
775.182	5931.77
775.372	6255.35
775.562	6462.19
775.752	6030.07
775.942	5829.37
776.131	6673.14
776.321	6357.75
776.511	6216.44
776.701	5950.2
776.891	6441.72
777.081	5966.59
777.271	5817.08
777.461	5804.8
777.651	6382.32
777.84	6439.67
778.03	5937.91
778.22	5935.87
778.41	6423.28
778.599	6028.03
778.789	5950.2
778.979	5729.02
779.169	6464.24
779.358	5970.68
779.548	6187.77
779.738	5716.73
779.927	6404.85
780.117	5712.64
780.307	5704.45
780.496	5550.85
780.686	6177.53
780.875	6476.53
781.065	5647.1
781.254	5628.67
781.444	5952.25
781.633	6130.42
781.823	5722.88
782.012	5714.69
782.202	5772.03
782.391	5985.02
782.581	5479.17
782.77	5964.54
782.96	6185.72
783.149	5856
783.338	5587.71
783.528	5509.89
783.717	6103.8
783.906	6253.3
784.096	5776.13
784.285	5530.37
784.474	5917.44
784.663	5661.44
784.853	5610.24
785.042	5763.84
785.231	5733.12
785.42	5997.31
785.61	5694.21
785.799	5411.59
785.988	5800.7
786.177	5765.89
786.366	5563.14
786.555	5690.11
786.744	6036.22
786.933	6030.07
787.122	5501.7
787.312	5415.68
787.501	5544.7
787.69	5837.56
787.879	5378.82
788.068	5401.35
788.257	5491.46
788.445	5669.63
788.634	5579.52
788.823	5182.21
789.012	6333.17
789.201	6105.85
789.39	5505.79
789.579	5571.33
789.768	5548.8
789.957	5915.39
790.145	5520.13
790.334	5141.25
790.523	5460.74
790.712	5546.75
790.9	5509.89
791.089	5239.56
791.278	5708.54
791.467	5640.96
791.655	5575.42
791.844	5952.25
792.033	5583.62
792.221	5618.43
792.41	5620.48
792.599	5200.65
792.787	5749.5
792.976	5769.98
793.164	5272.32
793.353	5255.94
793.541	5786.37
793.73	5665.53
793.918	5405.44
794.107	5235.46
794.295	5528.32
794.484	5718.78
794.672	5323.52
794.861	5333.76
795.049	5589.76
795.238	6052.6
795.426	5303.04
795.614	5282.56
795.803	5724.93
795.991	6005.5
796.179	5214.98
796.368	5223.17
796.556	5896.96
796.744	5346.05
796.932	5286.66
797.121	5088.01
797.309	5565.18
797.497	5794.56
797.685	5260.04
797.874	5112.58
798.062	5333.76
798.25	5950.2
798.438	4999.95
798.626	5251.85
798.814	5479.17
799.002	6030.07
799.19	5524.23
799.378	5251.85
799.566	5716.73
799.755	5929.72
799.943	5569.28
800.131	5131.02
800.318	5516.03
800.506	5761.79
800.694	5167.88
800.882	5413.63
801.07	5731.07
801.258	5477.12
801.446	5296.9
801.634	5182.21
801.822	5696.25
802.01	5456.64
802.197	5221.13
802.385	5278.47
802.573	5587.71
802.761	5264.13
802.949	5204.74
803.136	5077.77
803.324	5804.8
803.512	5458.69
803.699	5210.89
803.887	4995.85
804.075	5845.76
804.262	5454.59
804.45	5100.3
804.638	5358.34
804.825	5245.7
805.013	5350.15
805.201	5206.79
805.388	5010.18
805.576	5405.44
805.763	5982.97
805.951	5233.41
806.138	5325.57
806.326	5823.23
806.513	5569.28
806.701	5477.12
806.888	5301
807.075	5567.23
807.263	5757.69
807.45	5178.12
807.638	5391.11
807.825	5917.44
808.012	5708.54
808.2	5411.59
808.387	5528.32
808.574	5581.57
808.761	5925.63
808.949	5204.74
809.136	5393.16
809.323	5460.74
809.51	5600
809.698	5620.48
809.885	5495.55
810.072	5706.49
810.259	5845.76
810.446	5434.11
810.633	5282.56
810.82	5888.76
811.008	5880.57
811.195	5477.12
811.382	5432.07
811.569	5712.64
811.756	5208.84
811.943	5526.27
812.13	5307.14
812.317	5409.54
812.504	5554.94
812.691	5403.39
812.878	5473.03
813.064	5919.48
813.251	5661.44
813.438	5147.4
813.625	5536.51
813.812	5458.69
813.999	5563.14
814.186	5327.62
814.372	5178.12
814.559	5716.73
814.746	5882.62
814.933	5128.97
815.12	5522.18
815.306	5432.07
815.493	5364.48
815.68	5061.38
815.866	5389.06
816.053	5913.34
816.24	6091.51
816.426	5354.24
816.613	5102.34
816.799	5792.51
816.986	5786.37
817.173	5329.67
817.359	5157.64
817.546	5522.18
817.732	5331.72
817.919	5116.68
818.105	5337.86
818.292	5565.18
818.478	5640.96
818.665	5417.73
818.851	5243.65
819.037	5964.54
819.224	5712.64
819.41	5159.69
819.597	5204.74
819.783	6003.45
819.969	5847.8
820.156	5427.97
820.342	5161.73
820.528	6169.34
820.714	5520.13
820.901	5374.72
821.087	5196.55
821.273	5911.29
821.459	5264.13
821.646	5147.4
821.832	5042.95
822.018	5491.46
822.204	5411.59
822.39	5219.08
822.576	4954.89
822.762	5630.72
822.948	5366.53
823.134	5362.44
823.32	5354.24
823.507	5241.61
823.693	5479.17
823.879	5591.81
824.065	5053.19
824.25	5425.92
824.436	5272.32
824.622	5042.95
824.808	5126.92
824.994	5421.83
825.18	5255.94
825.366	5206.79
825.552	5010.18
825.738	5364.48
825.923	5509.89
826.109	5298.95
826.295	5180.17
826.481	5176.07
826.667	5161.73
826.852	5137.16
827.038	5053.19
827.224	5503.75
827.409	5683.97
827.595	4961.03
827.781	5370.63
827.966	5516.03
828.152	5618.43
828.338	5210.89
828.523	4803.34
828.709	5333.76
828.894	5710.59
829.08	4846.35
829.266	5106.44
829.451	5292.8
829.637	5446.4
829.822	5118.73
830.008	4987.66
830.193	5624.58
830.378	5690.11
830.564	5165.83
830.749	5020.42
830.935	5518.08
831.12	5448.45
831.305	4856.59
831.491	5149.45
831.676	4952.84
831.861	5348.1
832.047	5063.43
832.232	4793.1
832.417	5561.09
832.602	5231.37
832.788	4944.65
832.973	4889.35
833.158	5280.52
833.343	5092.1
833.528	5028.62
833.714	5038.86
833.899	5264.13
834.084	5448.45
834.269	5104.39
834.454	5059.34
834.639	5190.41
834.824	5067.53
835.009	5149.45
835.194	5198.6
835.379	5210.89
835.564	5473.03
835.749	5020.42
835.934	4819.72
836.119	5417.73
836.304	5184.26
836.489	4739.85
836.674	5141.25
836.859	5057.29
837.044	5427.97
837.228	5047.05
837.413	4705.04
837.598	5182.21
837.783	5327.62
837.968	4684.56
838.152	4723.47
838.337	4664.08
838.522	5462.79
838.707	5188.36
838.891	4913.93
839.076	5182.21
839.261	5255.94
839.445	4930.31
839.63	4995.85
839.815	5366.53
839.999	5067.53
840.184	4705.04
840.368	4727.57
840.553	5227.27
840.737	5102.34
840.922	4610.83
841.106	4533.01
841.291	4645.65
841.475	4809.48
841.66	4619.02
841.844	4647.69
842.029	5772.03
842.213	4690.7
842.397	4469.52
842.582	4440.85
842.766	5208.84
842.951	5167.88
843.135	4612.88
843.319	4672.27
843.504	4944.65
843.688	5128.97
843.872	4530.96
844.056	4473.62
844.241	5063.43
844.425	4750.09
844.609	4915.98
844.793	4299.54
844.977	5085.96
845.161	4821.77
845.346	4461.33
845.53	4422.42
845.714	4725.52
845.898	5276.42
846.082	4201.24
846.266	4637.45
846.45	4707.09
846.634	4872.97
846.818	4559.63
847.002	4688.65
847.186	5038.86
847.37	4567.82
847.554	4502.29
847.738	4543.25
847.922	4879.11
848.106	4682.51
848.29	4186.9
848.473	4557.58
848.657	4944.65
848.841	4731.66
849.025	4606.74
849.209	4176.66
849.392	4985.61
849.576	4633.36
849.76	4246.29
849.944	4487.95
850.127	4922.12
850.311	4274.96
850.495	4291.35
850.678	4162.33
850.862	4864.78
851.046	5069.58
851.229	4461.33
851.413	4154.13
851.596	4619.02
851.78	4551.44
851.964	4365.07
852.147	4393.75
852.331	5233.41
852.514	4981.51
852.698	4363.03
852.881	4047.64
853.065	4850.44
853.248	4608.78
853.431	4563.73
853.615	4350.74
853.798	5192.45
853.982	4748.04
854.165	4520.72
854.348	4334.36
854.532	4365.07
854.715	4463.38
854.898	4213.53
855.081	4215.57
855.265	4764.43
855.448	4977.42
855.631	4061.98
855.814	4199.19
855.997	4739.85
856.181	4520.72
856.364	4217.62
856.547	4039.45
856.73	4469.52
856.913	4473.62
857.096	3971.86
857.279	4197.14
857.462	4334.36
857.645	4690.7
857.828	4313.88
858.011	4432.66
858.194	4201.24
858.377	4584.21
858.56	4039.45
858.743	4109.08
858.926	4311.83
859.109	4746
859.292	4059.93
859.475	3943.19
859.658	4619.02
859.841	4442.9
860.023	3922.71
860.206	3822.36
860.389	4322.07
860.572	4676.37
860.755	4064.02
860.937	3982.1
861.12	4324.12
861.303	4334.36
861.486	4195.09
861.668	3871.51
861.851	4526.86
862.034	4455.19
862.216	4320.02
862.399	3891.99
862.581	4324.12
862.764	4594.45
862.947	4027.16
863.129	3902.23
863.312	3830.55
863.494	4737.81
863.677	4156.18
863.859	3717.92
864.042	4438.8
864.224	4557.58
864.406	3978.01
864.589	3676.96
864.771	4330.26
864.954	4004.63
865.136	3928.86
865.318	3681.05
865.501	4147.99
865.683	3810.08
865.865	3795.74
866.048	3707.68
866.23	4201.24
866.412	4152.09
866.594	3816.22
866.777	4010.78
866.959	4330.26
867.141	3941.15
867.323	4006.68
867.505	3963.67
867.687	4027.16
867.869	3939.1
868.052	3830.55
868.234	3660.57
868.416	4137.75
868.598	4254.48
868.78	3748.64
868.962	3789.6
869.144	4383.51
869.326	4231.96
869.508	3824.41
869.69	3674.91
869.872	3992.34
870.054	4369.17
870.236	3525.41
870.417	3773.21
870.599	4090.65
870.781	4385.55
870.963	3953.43
871.145	3722.01
871.327	3629.85
871.508	4109.08
871.69	3805.98
871.872	3810.08
872.054	4006.68
872.235	3988.25
872.417	3885.85
872.599	3695.39
872.78	4479.76
872.962	4154.13
873.144	3625.76
873.325	3740.44
873.507	4297.49
873.689	3912.47
873.87	3664.67
874.052	3765.02
874.233	3932.95
874.415	4197.14
874.596	3805.98
874.778	3699.48
874.959	3957.53
875.141	4186.9
875.322	3765.02
875.503	3566.37
875.685	4133.65
875.866	3468.06
876.048	3588.89
876.229	3638.05
876.41	3896.09
876.592	4141.85
876.773	3765.02
876.954	3580.7
877.136	4256.53
877.317	4092.69
877.498	3619.61
877.679	3781.4
877.86	4180.76
878.042	4094.74
878.223	3656.48
878.404	4123.41
878.585	3914.52
878.766	4397.84
878.947	4053.78
879.128	4027.16
879.309	4113.17
879.49	4283.16
879.672	3748.64
879.853	3681.05
880.034	3851.03
880.215	3978.01
880.396	3879.71
880.576	3769.12
880.757	3932.95
880.938	4258.58
881.119	3605.28
881.3	3752.73
881.481	3887.9
881.662	4885.26
881.843	3769.12
882.023	3676.96
882.204	4211.48
882.385	4135.7
882.566	3904.28
882.747	3900.19
882.927	4092.69
883.108	4186.9
883.289	3717.92
883.469	4039.45
883.65	4000.54
883.831	4266.77
884.011	3994.39
884.192	3889.95
884.373	4307.73
884.553	4258.58
884.734	4195.09
884.914	4092.69
885.095	4850.44
885.275	4420.37
885.456	4160.28
885.636	3744.54
885.817	4281.11
885.997	4215.57
886.178	3846.94
886.358	4014.87
886.538	4211.48
886.719	5266.18
886.899	3832.6
887.08	4049.69
887.26	4455.19
887.44	3855.13
887.621	3805.98
887.801	4115.22
887.981	4829.96
888.161	4262.68
888.342	4035.35
888.522	3889.95
888.702	4389.65
888.882	4502.29
889.062	4100.89
889.242	3773.21
889.423	4700.94
889.603	4463.38
889.783	4158.23
889.963	3826.46
890.143	4258.58
890.323	4588.3
890.503	3990.3
890.683	3996.44
890.863	4434.71
891.043	4309.78
891.223	4109.08
891.403	4182.81
891.583	4123.41
891.763	4199.19
891.943	4080.41
892.122	3748.64
892.302	4256.53
892.482	4305.68
892.662	4156.18
892.842	3924.76
893.022	4264.72
893.201	4133.65
893.381	4057.88
893.561	3994.39
893.741	4457.23
893.92	4334.36
894.1	4199.19
894.28	3859.23
894.459	4391.7
894.639	4444.95
894.819	3900.19
894.998	4002.58
895.178	4303.64
895.357	4391.7
895.537	3830.55
895.716	3701.53
895.896	4193.05
896.075	4631.31
896.255	3881.75
896.434	3679.01
896.614	4512.53
896.793	4332.31
896.973	4092.69
897.152	4035.35
897.331	4340.5
897.511	4381.46
897.69	3730.2
897.87	3973.91
898.049	4240.15
898.228	4133.65
898.407	4129.56
898.587	4033.3
898.766	4014.87
898.945	4293.4
899.124	4027.16
899.304	4010.78
899.483	4352.79
899.662	4571.92
899.841	3859.23
900.02	3726.11
900.199	4397.84
900.378	4279.06
900.557	3795.74
900.737	3824.41
900.916	3953.43
901.095	4158.23
901.274	3982.1
901.453	3566.37
901.632	3797.79
901.811	3875.61
901.989	3640.09
902.168	3558.18
902.347	4027.16
902.526	3711.77
902.705	3679.01
902.884	3746.59
903.063	4242.2
903.242	4201.24
903.42	3429.15
903.599	3623.71
903.778	4152.09
903.957	4346.64
904.135	3703.58
904.314	3627.81
904.493	3867.42
904.672	3963.67
904.85	3539.74
905.029	3402.53
905.207	3779.36
905.386	4420.37
905.565	3396.39
905.743	3361.57
905.922	3451.68
906.1	3877.66
906.279	3343.14
906.457	3363.62
906.636	3359.52
906.814	3527.46
906.993	3320.61
907.171	3193.64
907.35	3738.4
907.528	3808.03
907.707	3470.11
907.885	3035.94
908.063	3978.01
908.242	3324.71
908.42	3238.69
908.598	2900.78
908.777	3693.34
908.955	3304.23
909.133	3468.06
909.311	3232.55
909.49	3453.73
909.668	3390.24
909.846	3238.69
910.024	3015.46
910.202	3615.52
910.38	3627.81
910.559	3093.29
910.737	3160.87
910.915	3744.54
911.093	3572.51
911.271	3380
911.449	3402.53
911.627	3556.13
911.805	4137.75
911.983	3248.93
912.161	3224.36
912.339	3601.18
912.517	3805.98
912.695	3365.67
912.872	3263.27
913.05	3388.19
913.228	3664.67
913.406	3476.26
913.584	3226.4
913.762	3734.3
913.939	3533.6
914.117	3355.43
914.295	3320.61
914.473	3801.88
914.65	3824.41
914.828	3474.21
915.006	3326.75
915.184	3380
915.361	3662.62
915.539	3570.46
915.716	3474.21
915.894	3662.62
916.072	3783.45
916.249	3506.98
916.427	3463.97
916.604	3377.95
916.782	3642.14
916.959	3228.45
917.137	3273.51
917.314	3545.89
917.492	3765.02
917.669	3404.58
917.847	3334.95
918.024	3734.3
918.201	3388.19
918.379	3326.75
918.556	3380
918.733	3756.83
918.911	3496.74
919.088	3468.06
919.265	3177.25
919.442	3625.76
919.62	3427.11
919.797	3160.87
919.974	3126.05
920.151	3466.02
920.328	3461.92
920.506	3177.25
920.683	3418.91
920.86	3203.88
921.037	3375.91
921.214	3203.88
921.391	3275.56
921.568	3726.11
921.745	3248.93
921.922	3117.86
922.099	3126.05
922.276	3611.42
922.453	3506.98
922.63	3136.29
922.807	3367.71
922.984	3732.25
923.161	3136.29
923.338	3029.8
923.514	3119.91
923.691	3355.43
923.868	3443.49
924.045	3099.43
924.222	3068.71
924.399	3466.02
924.575	3484.45
924.752	3250.98
924.929	3234.6
925.105	3388.19
925.282	3058.47
925.459	3097.38
925.635	3289.89
925.812	3347.23
925.989	3081
926.165	3076.9
926.342	2845.48
926.518	3031.85
926.695	3367.71
926.871	2974.5
927.048	2747.18
927.224	3537.7
927.401	3058.47
927.577	3060.52
927.754	2939.69
927.93	3525.41
928.107	3513.12
928.283	2917.16
928.459	3015.46
928.636	3224.36
928.812	3126.05
928.988	2900.78
929.165	2753.32
929.341	3158.82
929.517	3128.1
929.693	3255.08
929.87	2630.45
930.046	3242.79
930.222	3154.73
930.398	2796.33
930.574	2769.71
930.751	2880.3
930.927	2804.52
931.103	2868.01
931.279	2759.47
931.455	2841.39
931.631	3062.57
931.807	2614.06
931.983	2607.92
932.159	2636.59
932.335	2949.93
932.511	2708.27
932.687	2665.26
932.863	2861.87
933.039	2982.7
933.215	2491.18
933.391	2421.55
933.566	2698.03
933.742	2726.7
933.918	2517.81
934.094	2345.78
934.27	2812.71
934.445	2755.37
934.621	2655.02
934.797	2294.58
934.973	2843.43
935.148	2534.19
935.324	2118.45
935.5	2118.45
935.675	2841.39
935.851	2673.45
936.027	2433.84
936.202	2286.39
936.378	2532.14
936.553	2405.17
936.729	2569.01
936.904	2130.74
937.08	2118.45
937.255	2319.15
937.431	1823.55
937.606	1934.14
937.782	2106.17
937.957	2329.39
938.133	1848.12
938.308	1829.69
938.483	2016.05
938.659	1872.7
938.834	1921.85
939.009	1764.15
939.185	2036.53
939.36	1655.61
939.535	1389.38
939.71	1817.4
939.886	2196.28
940.061	1985.34
940.236	1784.63
940.411	1690.43
940.586	2007.86
940.761	1905.46
940.937	1551.17
941.112	1561.41
941.287	1905.46
941.462	1876.79
941.637	1467.2
941.812	1571.65
941.987	1798.97
942.162	1694.52
942.337	1542.97
942.512	1547.07
942.687	1923.9
942.862	1841.98
943.037	1293.12
943.212	1131.33
943.386	1635.13
943.561	1762.11
943.736	1569.6
943.911	1864.5
944.086	1731.39
944.26	1760.06
944.435	1479.49
944.61	1411.9
944.785	1882.94
944.959	2196.28
945.134	1426.24
945.309	1364.8
945.483	1395.52
945.658	1901.37
945.833	1168.2
946.007	1319.75
946.182	2075.45
946.357	1336.13
946.531	1280.83
946.706	1358.66
946.88	1272.64
947.055	1735.48
947.229	1295.17
947.404	1391.42
947.578	1930.04
947.752	1596.22
947.927	1385.28
948.101	1182.53
948.276	1628.99
948.45	1651.52
948.624	1633.08
948.799	1428.29
948.973	1817.4
949.147	1481.53
949.321	1520.45
949.496	1370.94
949.67	1971
949.844	1676.09
950.018	1518.4
950.193	1528.64
950.367	2214.71
950.541	1602.36
950.715	1669.95
950.889	1663.8
951.063	1655.61
951.237	1880.89
951.411	1291.07
951.585	1432.38
951.759	1819.45
951.933	1708.86
952.107	1489.73
952.281	1727.29
952.455	2192.18
952.629	1995.57
952.803	1413.95
952.977	1413.95
953.151	1977.14
953.325	1938.23
953.499	1700.67
953.672	1385.28
953.846	1590.08
954.02	1700.67
954.194	1524.54
954.368	1499.97
954.541	1915.7
954.715	1637.18
954.889	1776.44
955.062	1577.79
955.236	1729.34
955.41	1700.67
955.583	1672
955.757	1420.1
955.93	1688.38
956.104	1561.41
956.278	1647.42
956.451	1588.03
956.625	2020.15
956.798	2229.04
956.972	1819.45
957.145	1487.68
957.319	1831.74
957.492	1741.63
957.665	1721.15
957.839	1598.27
958.012	2065.21
958.185	1717.05
958.359	1532.73
958.532	1803.07
958.705	2005.81
958.879	2022.2
959.052	1674.04
959.225	1448.77
959.398	1815.35
959.572	1817.4
959.745	1547.07
959.918	1596.22
960.091	1753.91
960.264	1989.43
960.438	1542.97
960.611	1538.88
960.784	1966.9
960.957	1698.62
961.13	2042.68
961.303	1540.93
961.476	1782.59
961.649	2071.35
961.822	1512.25
961.995	1741.63
962.168	1997.62
962.341	1897.27
962.514	1495.87
962.686	1540.93
962.859	1932.09
963.032	2009.91
963.205	1651.52
963.378	1409.86
963.551	1864.5
963.723	1790.78
963.896	1643.32
964.069	1739.58
964.242	1839.93
964.414	2014.01
964.587	1727.29
964.76	1774.39
964.932	1983.29
965.105	1827.64
965.278	1606.46
965.45	1479.49
965.623	1891.13
965.795	1958.71
965.968	1594.17
966.14	1512.25
966.313	1788.73
966.485	1880.89
966.658	1610.56
966.83	1424.19
967.003	1979.19
967.175	2044.73
967.348	1622.84
967.52	1524.54
967.692	2235.19
967.865	1905.46
968.037	1561.41
968.209	1737.53
968.382	1706.81
968.554	1991.48
968.726	1565.5
968.898	1495.87
969.071	1919.8
969.243	1864.5
969.415	1594.17
969.587	1723.2
969.759	2196.28
969.932	1925.94
970.104	1547.07
970.276	1323.84
970.448	1690.43
970.62	1643.32
970.792	1631.04
970.964	1620.8
971.136	2235.19
971.308	1884.98
971.48	1520.45
971.652	1438.53
971.824	2151.22
971.996	1520.45
972.168	1526.59
972.339	1520.45
972.511	2005.81
972.683	1676.09
972.855	1768.25
973.027	1536.83
973.199	1618.75
973.37	1901.37
973.542	1614.65
973.714	1485.63
973.886	1583.93
974.057	2052.92
974.229	1305.41
974.401	1397.57
974.572	1377.09
974.744	1243.97
974.915	1342.27
975.087	1340.22
975.259	2071.35
975.43	1510.21
975.602	1366.85
975.773	1348.42
975.945	1600.32
976.116	1930.04
976.288	1329.99
976.459	1616.7
976.63	1540.93
976.802	1663.8
976.973	1381.18
977.145	1635.13
977.316	2048.82
977.487	2175.8
977.659	1559.36
977.83	1323.84
978.001	1964.86
978.172	1604.41
978.344	1274.69
978.515	1405.76
978.686	1444.67
978.857	1956.66
979.028	1430.34
979.2	1262.4
979.371	2007.86
979.542	1538.88
979.713	1542.97
979.884	1100.61
980.055	1403.71
980.226	1516.35
980.397	1284.93
980.568	1164.1
980.739	1839.93
980.91	1348.42
981.081	1530.69
981.252	1194.82
981.423	1602.36
981.594	1737.53
981.765	1274.69
981.936	1327.94
982.106	1477.44
982.277	1776.44
982.448	1209.15
982.619	1495.87
982.79	1430.34
982.96	1801.02
983.131	1348.42
983.302	1147.72
983.472	1309.51
983.643	1590.08
983.814	1301.31
983.984	1180.48
984.155	1403.71
984.326	1663.8
984.496	1315.65
984.667	1309.51
984.837	1307.46
985.008	1803.07
985.178	1426.24
985.349	1319.75
985.519	1440.58
985.69	1297.22
985.86	1213.25
986.031	1241.92
986.201	1563.45
986.371	1545.02
986.542	1049.41
986.712	1028.93
986.882	1579.84
987.053	1418.05
987.223	1037.13
987.393	1284.93
987.563	1184.58
987.734	1573.69
987.904	1487.68
988.074	1170.24
988.244	1438.53
988.414	1319.75
988.585	1051.46
988.755	1160
988.925	1342.27
989.095	1749.82
989.265	1039.17
989.435	1073.99
989.605	1512.25
989.775	1522.49
989.945	1348.42
990.115	852.81
990.285	1327.94
990.455	1282.88
990.625	1123.14
990.795	1102.66
990.965	1700.67
991.134	1180.48
991.304	932.68
991.474	1053.51
991.644	1315.65
991.814	1614.65
991.984	854.86
992.153	914.25
992.323	1157.96
992.493	1319.75
992.662	914.25
992.832	1123.14
993.002	1237.83
993.171	1317.7
993.341	807.75
993.511	1160
993.68	1071.94
993.85	1399.62
994.019	752.46
994.189	979.78
994.358	1243.97
994.528	1057.61
994.697	650.06
994.867	850.76
995.036	1454.91
995.206	1022.79
995.375	885.58
995.544	1016.65
995.714	1194.82
995.883	1174.34
996.052	1024.84
996.222	731.98
996.391	1618.75
996.56	1215.3
996.73	813.9
996.899	729.93
997.068	1416
997.237	1241.92
997.406	736.07
997.576	660.3
997.745	1207.11
997.914	1225.54
998.083	613.2
998.252	785.23
998.421	1045.32
998.59	938.82
998.759	664.4
998.928	641.87
999.097	1368.9
999.266	1200.96
999.435	930.63
999.604	609.1
999.773	1495.87
999.942	1057.61
1000.111	607.05
1000.28	533.33
1000.448	770.89
1000.617	820.04
1000.786	918.34
1000.955	734.03
1001.124	1178.44
1001.292	1680.19
1001.461	703.31
1001.63	695.11
1001.798	1479.49
1001.967	1323.84
1002.136	559.95
1002.304	529.23
1002.473	1102.66
1002.642	934.73
1002.81	734.03
1002.979	648.01
1003.147	1160
1003.316	1534.78
1003.484	637.77
1003.653	547.66
1003.821	1207.11
1003.99	1020.74
1004.158	832.33
1004.327	770.89
1004.495	1088.32
1004.663	865.1
1004.832	727.88
1005	465.74
1005.168	1051.46
1005.337	922.44
1005.505	475.98
1005.673	758.6
1005.842	983.88
1006.01	1014.6
1006.178	514.89
1006.346	537.42
1006.514	1030.98
1006.683	1217.35
1006.851	602.96
1007.019	666.44
1007.187	750.41
1007.355	381.78
1007.523	400.21
1007.691	381.78
1007.859	627.53
1008.027	1157.96
1008.195	404.3
1008.363	467.79
1008.531	975.69
1008.699	750.41
1008.867	379.73
1009.035	457.55
1009.203	1110.85
1009.37	820.04
1009.538	494.41
1009.706	895.82
1009.874	881.48
1010.042	801.61
1010.209	328.53
1010.377	465.74
1010.545	1012.55
1010.713	707.4
1010.88	418.64
1011.048	469.84
1011.216	684.87
1011.383	1170.24
1011.551	447.31
1011.718	291.66
1011.886	1012.55
1012.054	760.65
1012.221	435.02
1012.389	416.59
1012.556	748.36
1012.724	1188.68
1012.891	471.89
1013.058	226.13
1013.226	867.14
1013.393	979.78
1013.561	215.89
1013.728	228.18
1013.895	961.35
1014.063	908.1
1014.23	217.94
1014.397	353.1
1014.565	861
1014.732	648.01
1014.899	328.53
1015.066	381.78
1015.233	772.94
1015.401	922.44
1015.568	334.67
1015.735	504.65
1015.902	695.11
1016.069	758.6
1016.236	320.34
1016.403	244.56
1016.57	465.74
1016.737	910.15
1016.904	324.43
1017.071	211.79
1017.238	461.65
1017.405	787.27
1017.572	312.14
1017.739	557.9
1017.906	807.75
1018.073	910.15
1018.24	144.21
1018.407	355.15
1018.573	983.88
1018.74	564.04
1018.907	375.63
1019.074	131.92
1019.241	906.06
1019.407	607.05
1019.574	199.51
1019.741	146.26
1019.907	691.02
1020.074	734.03
1020.241	58.2
1020.407	127.83
1020.574	725.83
1020.74	703.31
1020.907	312.14
1021.073	168.79
1021.24	1114.95
1021.406	932.68
1021.573	136.02
1021.739	209.75
1021.906	811.85
1022.072	562
1022.239	174.93
1022.405	152.4
1022.571	510.8
1022.738	475.98
1022.904	170.83
1023.07	230.23
1023.237	631.63
1023.403	858.95
1023.569	256.85
1023.735	238.42
1023.902	633.68
1024.068	727.88
1024.234	142.16
1024.4	205.65
1024.566	678.73
1024.732	828.23
1024.898	174.93
1025.065	-27.82
1025.231	668.49
1025.397	492.37
1025.563	291.66
1025.729	90.96
1025.895	246.61
1026.061	271.19
1026.227	41.81
1026.392	158.55
1026.558	777.03
1026.724	684.87
1026.89	101.2
1027.056	170.83
1027.222	617.29
1027.388	418.64
1027.553	103.25
1027.719	103.25
1027.885	883.53
1028.051	586.57
1028.216	-79.02
1028.382	129.88
1028.548	725.83
1028.713	404.3
1028.879	9.05
1029.045	246.61
1029.21	772.94
1029.376	713.55
1029.541	158.55
1029.707	148.31
1029.873	607.05
1030.038	717.64
1030.204	60.24
1030.369	154.45
1030.534	709.45
1030.7	422.73
1030.865	119.64
1031.031	93.01
1031.196	590.67
1031.361	545.61
1031.527	23.38
1031.692	54.1
1031.857	62.29
1032.023	586.57
1032.188	52.05
1032.353	17.24
1032.518	856.9
1032.684	506.7
1032.849	-76.97
1033.014	138.07
1033.179	611.15
1033.344	627.53
1033.509	131.92
1033.674	113.49
1033.839	705.35
1034.004	635.72
1034.17	97.11
1034.335	-31.91
1034.5	484.17
1034.664	320.34
1034.829	58.2
1034.994	19.29
1035.159	564.04
1035.324	518.99
1035.489	56.15
1035.654	-15.53
1035.819	719.69
1035.984	557.9
1036.148	127.83
1036.313	97.11
1036.478	695.11
1036.643	430.93
1036.807	13.14
1036.972	-60.59
1037.137	734.03
1037.301	363.34
1037.466	-109.74
1037.631	74.58
1037.795	674.64
1037.96	484.17
1038.124	219.99
1038.289	-122.02
1038.454	508.75
1038.618	582.48
1038.783	-3.24
1038.947	125.78
1039.111	408.4
1039.276	285.52
1039.44	33.62
1039.605	533.33
1039.769	344.91
1039.933	357.2
1040.098	160.59
1040.262	285.52
1040.426	578.38
1040.591	516.94
1040.755	-15.53
1040.919	-27.82
1041.083	537.42
1041.248	349.01
1041.412	-175.27
1041.576	-97.45
1041.74	250.71
1041.904	619.34
1042.068	-7.34
1042.232	58.2
1042.397	562
1042.561	488.27
1042.725	-255.14
1042.889	152.4
1043.053	564.04
1043.217	529.23
1043.381	127.83
1043.544	-48.3
1043.708	705.35
1043.872	144.21
1044.036	-246.95
1044.2	-124.07
1044.364	592.72
1044.528	774.99
1044.691	4950.79
1044.855	-93.35
1045.019	598.86
1045.183	580.43
1045.346	56.15
1045.51	-105.64
1045.674	471.89
1045.837	549.71
1046.001	43.86
1046.165	-25.77
1046.328	942.92
1046.492	521.04
1046.655	252.75
1046.819	113.49
1046.983	219.99
1047.146	539.47
1047.31	70.48
1047.473	-158.89
1047.636	381.78
1047.8	162.64
1047.963	-3.24
1048.127	-19.63
1048.29	219.99
