Data from Hydrogel_Ink_Intensity_Test_1_USB4F045381__57__00057.txt Node

Date: Mon Jul 31 10:51:15 EDT 2023
User: mmckonesweet
Spectrometer: USB4F04538
Trigger mode: 4
Integration Time (sec): 9.000000E-1
Scans to average: 1
Electric dark correction enabled: true
Nonlinearity correction enabled: false
Boxcar width: 0
XAxis mode: Wavelengths
Number of Pixels in Spectrum: 3648
>>>>>Begin Spectral Data<<<<<
345.52	-941.38
345.736	-941.38
345.952	-941.38
346.168	-1058.12
346.384	-943.43
346.6	-152.91
346.816	-167.25
347.032	-269.65
347.248	221.86
347.464	-267.6
347.68	-87.38
347.896	133.8
348.112	385.7
348.328	-87.38
348.544	-34.13
348.76	6.83
348.975	318.12
349.191	-187.73
349.407	-105.81
349.623	-5.46
349.839	10.92
350.055	-83.28
350.27	72.36
350.486	178.86
350.702	393.89
350.918	301.73
351.133	-206.16
351.349	219.82
351.565	381.6
351.781	-200.02
351.996	-23.89
352.212	400.04
352.428	-150.87
352.644	-138.58
352.859	-204.11
353.075	338.6
353.291	58.03
353.506	-109.91
353.722	-249.17
353.938	-83.28
354.153	518.82
354.369	160.42
354.584	-228.69
354.8	301.73
355.016	-296.27
355.231	-232.79
355.447	-50.52
355.662	137.9
355.878	801.44
356.093	-269.65
356.309	25.26
356.524	-191.83
356.74	178.86
356.955	-124.24
357.171	-17.75
357.386	166.57
357.602	-99.67
357.817	-1.37
358.033	-132.44
358.248	412.32
358.464	230.06
358.679	-79.19
358.895	-275.79
359.11	-5.46
359.325	342.69
359.541	289.45
359.756	43.69
359.972	-243.03
360.187	115.37
360.402	-228.69
360.618	-97.62
360.833	1030.81
361.048	187.05
361.264	-171.35
361.479	51.88
361.694	8.87
361.909	195.24
362.125	-136.53
362.34	-97.62
362.555	293.54
362.77	133.8
362.986	-189.78
363.201	-109.91
363.416	219.82
363.631	88.75
363.847	-144.72
364.062	-140.63
364.277	217.77
364.492	154.28
364.707	-138.58
364.922	-314.7
365.138	244.39
365.353	383.65
365.568	-157.01
365.783	-87.38
365.998	113.32
366.213	623.27
366.428	-89.43
366.643	78.51
366.858	328.36
367.073	289.45
367.288	10.92
367.503	-163.15
367.718	146.09
367.933	436.9
368.148	-193.87
368.363	-52.56
368.578	117.42
368.793	461.48
369.008	-109.91
369.223	-214.35
369.438	246.44
369.653	535.2
369.868	-224.59
370.083	-148.82
370.298	260.77
370.513	424.61
370.728	29.35
370.943	-128.34
371.157	-81.24
371.372	617.12
371.587	-308.56
371.802	-165.2
372.017	70.31
372.232	441
372.446	-36.18
372.661	-255.31
372.876	332.45
373.091	311.97
373.306	-101.72
373.52	-152.91
373.735	-124.24
373.95	508.58
374.165	-77.14
374.379	-17.75
374.594	-120.15
374.809	133.8
375.023	113.32
375.238	-206.16
375.453	369.32
375.667	-165.2
375.882	-81.24
376.097	-146.77
376.311	135.85
376.526	47.79
376.741	-185.68
376.955	96.94
377.17	635.55
377.384	543.39
377.599	-50.52
377.813	-169.3
378.028	627.36
378.242	291.49
378.457	23.21
378.672	-240.98
378.886	232.1
379.101	15.02
379.315	-228.69
379.53	-75.09
379.744	199.34
379.958	252.58
380.173	-38.23
380.387	-79.19
380.602	252.58
380.816	-15.7
381.031	-71
381.245	-66.9
381.459	221.86
381.674	2759.3
381.888	-128.34
382.103	201.38
382.317	-79.19
382.531	504.48
382.746	-17.75
382.96	-54.61
383.174	10.92
383.388	561.83
383.603	90.79
383.817	-195.92
384.031	252.58
384.246	488.1
384.46	109.22
384.674	479.91
384.888	117.42
385.103	178.86
385.317	-99.67
385.531	27.31
385.745	514.72
385.959	400.04
386.174	-52.56
386.388	-116.05
386.602	113.32
386.816	33.45
387.03	8.87
387.244	29.35
387.458	242.34
387.672	465.57
387.887	-179.54
388.101	-204.11
388.315	445.09
388.529	348.84
388.743	12.97
388.957	-118.1
389.171	418.47
389.385	-5.46
389.599	21.16
389.813	189.1
390.027	213.67
390.241	723.62
390.455	-87.38
390.669	60.07
390.883	72.36
391.097	707.23
391.311	121.51
391.525	-17.75
391.738	301.73
391.952	400.04
392.166	82.6
392.38	-99.67
392.594	418.47
392.808	443.04
393.022	49.83
393.236	-38.23
393.449	348.84
393.663	324.26
393.877	-165.2
394.091	-5.46
394.305	55.98
394.518	10.92
394.732	-150.87
394.946	-17.75
395.16	488.1
395.373	248.49
395.587	-50.52
395.801	-75.09
396.015	430.76
396.228	387.75
396.442	-73.04
396.656	-144.72
396.869	512.67
397.083	565.92
397.297	58.03
397.51	-9.56
397.724	504.48
397.938	240.3
398.151	-130.39
398.365	-105.81
398.578	334.5
398.792	539.3
399.005	98.99
399.219	62.12
399.433	275.11
399.646	309.93
399.86	211.62
400.073	219.82
400.287	477.86
400.5	156.33
400.714	154.28
400.927	111.27
401.141	477.86
401.354	1198.74
401.567	438.95
401.781	-120.15
401.994	436.9
402.208	750.24
402.421	49.83
402.635	35.5
402.848	139.94
403.061	486.05
403.275	84.65
403.488	-48.47
403.701	653.98
403.915	457.38
404.128	234.15
404.341	43.69
404.555	428.71
404.768	178.86
404.981	256.68
405.195	25.26
405.408	696.99
405.621	443.04
405.834	139.94
406.048	113.32
406.261	598.69
406.474	653.98
406.687	27.31
406.9	236.2
407.114	334.5
407.327	465.57
407.54	-32.08
407.753	-75.09
407.966	166.57
408.179	426.66
408.392	25.26
408.605	-120.15
408.819	441
409.032	447.14
409.245	86.7
409.458	301.73
409.671	441
409.884	672.42
410.097	15.02
410.31	238.25
410.523	479.91
410.736	242.34
410.949	156.33
411.162	144.04
411.375	670.37
411.588	653.98
411.801	357.03
412.014	221.86
412.227	260.77
412.44	240.3
412.653	35.5
412.865	230.06
413.078	529.06
413.291	475.81
413.504	189.1
413.717	27.31
413.93	527.01
414.143	166.57
414.356	162.47
414.568	-68.95
414.781	563.87
414.994	432.8
415.207	238.25
415.42	301.73
415.632	557.73
415.845	846.49
416.058	27.31
416.271	17.07
416.483	432.8
416.696	811.68
416.909	166.57
417.121	55.98
417.334	531.11
417.547	850.59
417.759	150.18
417.972	80.55
418.185	262.82
418.397	510.63
418.61	211.62
418.823	170.66
419.035	701.09
419.248	354.98
419.46	217.77
419.673	246.44
419.885	518.82
420.098	402.08
420.311	199.34
420.523	-38.23
420.736	475.81
420.948	416.42
421.161	187.05
421.373	129.7
421.586	469.67
421.798	336.55
422.01	29.35
422.223	254.63
422.435	326.31
422.648	598.69
422.86	223.91
423.073	264.87
423.285	662.18
423.497	94.89
423.71	242.34
423.922	172.71
424.134	615.07
424.347	776.86
424.559	484
424.771	459.43
424.984	354.98
425.196	533.15
425.408	141.99
425.621	146.09
425.833	817.82
426.045	787.1
426.257	182.95
426.47	199.34
426.682	537.25
426.894	555.68
427.106	289.45
427.318	332.45
427.531	285.35
427.743	682.66
427.955	332.45
428.167	623.27
428.379	617.12
428.591	410.28
428.804	516.77
429.016	195.24
429.228	414.37
429.44	627.36
429.652	506.53
429.864	199.34
430.076	490.15
430.288	549.54
430.5	416.42
430.712	467.62
430.924	778.91
431.136	572.07
431.348	121.51
431.56	318.12
431.772	467.62
431.984	545.44
432.196	320.17
432.408	330.41
432.62	551.59
432.832	682.66
433.044	615.07
433.256	527.01
433.468	838.3
433.679	264.87
433.891	248.49
434.103	682.66
434.315	938.65
434.527	776.86
434.739	535.2
434.95	490.15
435.162	862.88
435.374	504.48
435.586	471.72
435.798	363.17
436.009	309.93
436.221	473.76
436.433	391.84
436.645	426.66
436.856	506.53
437.068	1030.81
437.28	395.94
437.491	705.18
437.703	930.46
437.915	735.9
438.126	373.41
438.338	672.42
438.55	690.85
438.761	877.21
438.973	531.11
439.184	432.8
439.396	647.84
439.608	897.69
439.819	441
440.031	518.82
440.242	916.12
440.454	848.54
440.665	590.5
440.877	580.26
441.088	998.04
441.3	729.76
441.511	291.49
441.723	436.9
441.934	744.1
442.146	783.01
442.357	735.9
442.569	883.36
442.78	762.53
442.991	1127.07
443.203	852.64
443.414	424.61
443.626	1165.98
443.837	664.22
444.048	416.42
444.26	393.89
444.471	860.83
444.682	1016.48
444.894	436.9
445.105	363.17
445.316	1041.05
445.528	975.52
445.739	721.57
445.95	696.99
446.161	852.64
446.373	1051.29
446.584	666.27
446.795	699.04
447.006	1008.28
447.217	1338.01
447.429	492.2
447.64	449.19
447.851	1184.41
448.062	916.12
448.273	463.52
448.484	625.31
448.695	948.89
448.907	922.27
449.118	707.23
449.329	914.08
449.54	701.09
449.751	776.86
449.962	598.69
450.173	617.12
450.384	1264.28
450.595	1190.55
450.806	733.86
451.017	719.52
451.228	1358.49
451.439	1163.93
451.65	645.79
451.861	467.62
452.072	842.4
452.283	877.21
452.494	973.47
452.705	668.32
452.915	1338.01
453.126	983.71
453.337	848.54
453.548	682.66
453.759	1254.04
453.97	1532.56
454.181	1092.25
454.391	844.45
454.602	1059.48
454.813	1251.99
455.024	920.22
455.235	729.76
455.445	1153.69
455.656	1249.94
455.867	1057.43
456.078	924.32
456.288	1039
456.499	1215.13
456.71	803.49
456.921	1122.97
457.131	1262.23
457.342	1141.4
457.553	916.12
457.763	797.34
457.974	1249.94
458.184	1307.29
458.395	783.01
458.606	803.49
458.816	1505.94
459.027	1659.54
459.237	1024.67
459.448	737.95
459.659	1374.87
459.869	1729.17
460.08	727.71
460.29	1024.67
460.501	1739.41
460.711	1131.16
460.922	852.64
461.132	967.32
461.343	1876.62
461.553	1002.14
461.764	1024.67
461.974	866.97
462.184	1518.23
462.395	1430.16
462.605	1202.84
462.816	938.65
463.026	1358.49
463.236	1669.78
463.447	1063.58
463.657	1102.49
463.867	1614.48
464.078	1317.53
464.288	1262.23
464.498	1237.66
464.709	1555.09
464.919	1409.69
465.129	1329.81
465.339	1131.16
465.55	1563.28
465.76	1759.89
465.97	1186.46
466.18	1268.38
466.391	1716.88
466.601	1604.24
466.811	1407.64
467.021	1260.18
467.231	1804.94
467.441	1929.87
467.651	1454.74
467.862	1153.69
468.072	1735.31
468.282	1987.21
468.492	1368.73
468.702	1550.99
468.912	1749.65
469.122	2357.89
469.332	1804.94
469.542	1415.83
469.752	2077.32
469.962	1895.05
470.172	1591.95
470.382	1536.66
470.592	2161.29
470.802	2181.77
471.012	1723.02
471.222	1536.66
471.432	2245.26
471.642	2189.96
471.852	1784.46
472.062	1714.83
472.272	1923.73
472.482	1868.43
472.691	1757.84
472.901	1645.2
473.111	2259.59
473.321	2761.34
473.531	1776.27
473.741	2169.48
473.95	2491.01
474.16	2318.98
474.37	2251.4
474.58	1997.45
474.79	2769.54
474.999	2599.56
475.209	2007.69
475.419	2073.23
475.628	2398.85
475.838	2736.77
476.048	2255.5
476.258	2038.41
476.467	2779.78
476.677	2474.63
476.886	2499.2
477.096	2554.5
477.306	2521.73
477.515	2937.47
477.725	2542.21
477.935	2566.79
478.144	3007.1
478.354	2640.51
478.563	2421.38
478.773	2411.14
478.982	2941.57
479.192	3107.45
479.401	2701.95
479.611	2476.68
479.82	2695.81
480.03	3076.73
480.239	2636.42
480.449	2781.82
480.658	3408.5
480.868	2808.45
481.077	3095.16
481.287	2806.4
481.496	3236.47
481.705	3668.59
481.915	3052.16
482.124	3144.31
482.333	3345.02
482.543	3730.03
482.752	3084.92
482.961	3003
483.171	3517.05
483.38	3357.3
483.589	3140.22
483.799	3152.51
484.008	3506.81
484.217	3637.88
484.426	3353.21
484.636	3160.7
484.845	3709.55
485.054	3127.93
485.263	3750.51
485.472	3345.02
485.682	4110.96
485.891	3805.81
486.1	3248.76
486.309	3504.76
486.518	3932.78
486.727	4254.31
486.936	3531.38
487.146	3650.16
487.355	4121.2
487.564	3641.97
487.773	3684.98
487.982	3697.27
488.191	3770.99
488.4	4065.9
488.609	3922.54
488.818	3820.14
489.027	4725.35
489.236	4436.58
489.445	4137.58
489.654	3824.24
489.863	4461.16
490.072	4383.34
490.281	4237.93
490.49	4012.65
490.698	4506.21
490.907	4610.66
491.116	4072.04
491.325	4006.51
491.534	4696.68
491.743	4452.97
491.952	4289.13
492.16	4274.79
492.369	4590.18
492.578	4604.52
492.787	4256.36
492.996	4246.12
493.204	4487.78
493.413	5042.78
493.622	4186.73
493.831	4096.62
494.039	5034.59
494.248	4588.13
494.457	4600.42
494.665	4334.18
494.874	4960.86
495.083	5345.88
495.291	4643.43
495.5	4500.07
495.709	5061.21
495.917	5122.65
496.126	4856.42
496.335	4467.3
496.543	4766.31
496.752	5053.02
496.96	5102.17
497.169	4723.3
497.377	5102.17
497.586	5257.82
497.794	5038.69
498.003	4688.48
498.211	5096.03
498.42	5372.5
498.628	4872.8
498.837	4819.55
499.045	5470.81
499.254	5378.65
499.462	4899.42
499.671	5028.45
499.879	5741.14
500.087	5556.82
500.296	5077.6
500.504	5270.11
500.713	5526.1
500.921	6034
501.129	5102.17
501.338	5083.74
501.546	5618.26
501.754	5554.77
501.962	5382.74
502.171	5151.32
502.379	5712.47
502.587	6134.35
502.795	5511.77
503.004	5360.22
503.212	5681.75
503.42	5904.98
503.628	5589.59
503.837	5462.62
504.045	5954.13
504.253	6263.37
504.461	5503.57
504.669	5349.98
504.877	5872.21
505.085	6122.06
505.294	5378.65
505.502	5878.35
505.71	6021.71
505.918	6132.3
506.126	5538.39
506.334	5657.17
506.542	5978.7
506.75	5982.8
506.958	5773.91
507.166	5724.76
507.374	5929.55
507.582	6498.89
507.79	6105.68
507.998	5644.88
508.206	6216.27
508.414	6160.97
508.622	5687.89
508.83	5802.58
509.037	6541.89
509.245	6034
509.453	5896.78
509.661	5818.96
509.869	6591.05
510.077	6191.69
510.285	6115.92
510.492	5669.46
510.7	7074.37
510.908	6206.03
511.116	6017.61
511.324	5995.09
511.531	6480.46
511.739	6478.41
511.947	6197.84
512.155	6453.83
512.362	6459.98
512.57	6242.89
512.778	6263.37
512.985	5896.78
513.193	6543.94
513.401	7086.65
513.608	6128.21
513.816	6429.26
514.024	6658.63
514.231	6900.29
514.439	6326.86
514.646	6212.17
514.854	6824.51
515.061	6922.82
515.269	6269.52
515.477	6328.91
515.684	6380.11
515.892	6916.67
516.099	6433.35
516.307	6283.85
516.514	6961.73
516.722	7268.92
516.929	6761.03
517.136	6400.59
517.344	6992.45
517.551	7006.78
517.759	6543.94
517.966	6666.82
518.173	6822.47
518.381	6863.43
518.588	6576.71
518.796	6572.61
519.003	7240.25
519.21	6842.95
519.418	6650.44
519.625	7012.93
519.832	7123.52
520.039	7137.85
520.247	6509.13
520.454	6765.12
520.661	7289.4
520.868	7377.47
521.076	6715.97
521.283	6969.92
521.49	7862.83
521.697	7397.95
521.904	6961.73
522.112	6855.23
522.319	7549.5
522.526	7430.71
522.733	6980.16
522.94	7012.93
523.147	7434.81
523.354	7529.02
523.561	7019.07
523.768	7049.79
523.975	7834.16
524.183	7336.51
524.39	7496.25
524.597	6971.97
524.804	7449.14
525.011	7354.94
525.218	7166.53
525.425	7238.2
525.632	7758.39
525.838	7524.92
526.045	7406.14
526.252	7203.39
526.459	8778.28
526.666	8559.14
526.873	7371.32
527.08	7381.56
527.287	8133.17
527.494	8022.58
527.701	7213.63
527.907	7334.46
528.114	7885.36
528.321	7809.59
528.528	7516.73
528.735	7531.06
528.941	7750.2
529.148	7596.6
529.355	7666.23
529.562	7653.94
529.768	8270.38
529.975	7819.83
530.182	7649.85
530.388	7748.15
530.595	8190.51
530.802	7555.64
531.008	7911.99
531.215	7789.11
531.422	8966.69
531.628	8596.01
531.835	8041.01
532.042	7907.89
532.248	8065.58
532.455	8198.7
532.661	7952.95
532.868	7850.55
533.074	8337.96
533.281	8563.24
533.487	8018.48
533.694	7963.19
533.9	8122.93
534.107	8399.4
534.313	7930.42
534.52	8114.73
534.726	8632.87
534.933	8755.75
535.139	7866.93
535.345	8061.49
535.552	8428.07
535.758	8553
535.965	8276.52
536.171	8202.8
536.377	8718.89
536.584	8872.48
536.79	8239.66
536.996	8485.42
537.203	8596.01
537.409	8665.64
537.615	8469.03
537.821	8501.8
538.028	8876.58
538.234	8878.63
538.44	8395.31
538.646	8520.23
538.853	8751.65
539.059	8757.8
539.265	8831.52
539.471	8571.43
539.677	9024.03
539.883	8774.18
540.09	8583.72
540.296	9030.18
540.502	8907.3
540.708	8579.62
540.914	8884.77
541.12	8751.65
541.326	9204.25
541.532	8976.93
541.738	8978.98
541.944	8768.04
542.15	9302.56
542.356	8907.3
542.562	8792.61
542.768	8862.24
542.974	9642.52
543.18	9583.13
543.386	9017.89
543.592	8886.82
543.798	9675.29
544.004	9677.33
544.21	8897.06
544.415	9042.46
544.621	9288.22
544.827	9501.21
545.033	8794.66
545.239	9423.39
545.445	9173.53
545.651	9538.07
545.856	8946.21
546.062	9140.77
546.268	9325.08
546.474	9359.9
546.679	9128.48
546.885	9390.62
547.091	9314.84
547.297	10019.35
547.502	9337.37
547.708	9075.23
547.914	9351.71
548.119	9599.51
548.325	9110.05
548.531	9101.86
548.736	9908.76
548.942	9267.74
549.147	9374.24
549.353	9558.55
549.559	9845.27
549.764	9656.86
549.97	9404.96
550.175	9288.22
550.381	9861.65
550.586	9533.98
550.792	9456.15
550.997	9349.66
551.203	9822.74
551.408	9972.24
551.614	9292.32
551.819	9501.21
552.025	10261.01
552.23	10324.49
552.435	9671.19
552.641	10025.49
552.846	10043.92
553.052	10291.73
553.257	9959.95
553.462	9568.79
553.668	10062.35
553.873	10164.75
554.078	9802.26
554.283	9865.75
554.489	10191.38
554.694	10021.39
554.899	9792.02
555.105	10181.14
555.31	10418.7
555.515	10344.97
555.72	10048.02
555.925	10062.35
556.131	10293.77
556.336	10041.87
556.541	9912.85
556.746	9890.32
556.951	10635.78
557.156	10818.05
557.361	10158.61
557.567	10119.7
557.772	10942.98
557.977	10435.08
558.182	10117.65
558.387	10160.66
558.592	10385.93
558.797	10762.76
559.002	10330.64
559.207	10275.34
559.412	10463.76
559.617	10955.27
559.822	10263.05
560.027	10023.44
560.232	10508.81
560.437	10793.48
560.642	10181.14
560.847	10101.26
561.051	10465.8
561.256	10600.97
561.461	10543.63
561.666	10353.16
561.871	10709.51
562.076	11119.1
562.281	10398.22
562.485	10156.56
562.69	10934.79
562.895	10709.51
563.1	10390.03
563.305	10220.05
563.509	10912.26
563.714	11284.99
563.919	10492.43
564.123	10363.4
564.328	10637.83
564.533	11172.35
564.737	10576.39
564.942	10543.63
565.147	11246.08
565.351	11500.03
565.556	10508.81
565.761	10676.74
565.965	10977.8
566.17	10697.22
566.374	10463.76
566.579	10701.32
566.784	10899.97
566.988	10773
567.193	10441.23
567.397	10775.05
567.602	10473.99
567.806	10936.84
568.011	10754.57
568.215	10852.87
568.42	11209.22
568.624	11115.01
568.828	10715.66
569.033	10981.89
569.237	11512.31
569.442	11176.45
569.646	10684.94
569.85	10885.64
570.055	11227.65
570.259	11332.09
570.463	11170.3
570.668	10818.05
570.872	11100.67
571.076	11115.01
571.281	11108.87
571.485	10977.8
571.689	11084.29
571.893	11553.27
572.098	11051.52
572.302	11125.25
572.506	11358.72
572.71	11647.48
572.914	11203.07
573.119	11012.61
573.323	11616.76
573.527	11715.06
573.731	11207.17
573.935	11106.82
574.139	11620.86
574.343	11174.4
574.547	11270.65
574.751	11229.7
574.955	11588.09
575.159	11776.5
575.364	11041.28
575.568	11135.49
575.772	11481.6
575.976	11909.62
576.18	11188.74
576.383	11201.02
576.587	12079.6
576.791	11883
576.995	11424.25
577.199	11395.58
577.403	11842.04
577.607	12091.89
577.811	11510.27
578.015	11438.59
578.219	11735.54
578.422	11885.05
578.626	11446.78
578.83	11479.55
579.034	12044.79
579.238	11842.04
579.442	11500.03
579.645	11934.2
579.849	11991.54
580.053	11917.81
580.257	11637.24
580.46	11997.68
580.664	12167.67
580.868	12417.52
581.071	11934.2
581.275	11874.81
581.479	11737.59
581.682	12085.75
581.886	11643.38
582.09	11725.3
582.293	12278.26
582.497	12376.56
582.7	11715.06
582.904	11942.39
583.107	12206.58
583.311	12040.69
583.515	11850.23
583.718	11753.98
583.922	12364.27
584.125	12607.98
584.329	11674.1
584.532	12009.97
584.735	12526.06
584.939	12356.08
585.142	11780.6
585.346	11624.95
585.549	12513.77
585.753	12108.27
585.956	12210.67
586.159	12167.67
586.363	12841.45
586.566	12435.95
586.769	11930.1
586.973	12003.83
587.176	12591.59
587.379	12650.99
587.582	12503.53
587.786	12270.06
587.989	12509.68
588.192	13126.11
588.395	12288.5
588.599	12737
588.802	12726.76
589.005	12894.69
589.208	12327.41
589.411	12308.97
589.615	12700.14
589.818	12982.76
590.021	12548.59
590.224	12433.9
590.427	12921.32
590.63	12941.8
590.833	12384.75
591.036	12368.37
591.239	12904.93
591.442	12622.31
591.645	12630.51
591.848	12528.11
592.051	13019.62
592.254	12843.49
592.457	12618.22
592.66	12644.84
592.863	12835.3
593.066	13212.13
593.269	12847.59
593.472	12872.17
593.675	12896.74
593.878	13236.7
594.081	12960.23
594.284	12722.66
594.486	13259.23
594.689	13115.87
594.892	12765.67
595.095	12833.25
595.298	13189.6
595.5	12941.8
595.703	12845.54
595.906	12931.56
596.109	13504.99
596.311	13351.39
596.514	12597.74
596.717	12859.88
596.92	13679.07
597.122	13605.34
597.325	12743.14
597.528	12888.55
597.73	13634.01
597.933	13111.78
598.136	13038.05
598.338	12841.45
598.541	13443.55
598.743	13631.96
598.946	13205.99
599.148	12995.04
599.351	13879.77
599.554	13609.43
599.756	13287.9
599.959	13339.1
600.161	13640.15
600.363	13892.05
600.566	13615.58
600.768	13273.57
600.971	14062.04
601.173	13842.9
601.376	13390.3
601.578	13369.82
601.78	13529.56
601.983	14080.47
602.185	13199.84
602.388	13222.37
602.59	13621.72
602.792	13343.2
602.995	13556.19
603.197	13238.75
603.399	13890.01
603.601	13779.42
603.804	13625.82
604.006	13494.75
604.208	13556.19
604.41	13074.92
604.613	13707.74
604.815	13416.93
605.017	14277.07
605.219	13597.15
605.421	13636.06
605.623	13459.93
605.826	14019.03
606.028	14229.97
606.23	13453.79
606.432	13511.13
606.634	14154.19
606.836	14283.22
607.038	13361.63
607.24	13623.77
607.442	13906.39
607.644	13758.94
607.846	13646.3
608.048	13367.77
608.25	13920.73
608.452	13701.59
608.654	13564.38
608.856	13474.27
609.058	13765.08
609.26	13771.22
609.462	13830.62
609.664	13797.85
609.866	14268.88
610.067	14162.39
610.269	13740.51
610.471	13920.73
610.673	13818.33
610.875	13967.83
611.077	13431.26
611.278	13914.58
611.48	13797.85
611.682	14205.39
611.884	13900.25
612.085	13627.87
612.287	13847
612.489	14047.7
612.69	13552.09
612.892	13939.16
613.094	14346.7
613.295	14088.66
613.497	13623.77
613.699	13717.98
613.9	14176.72
614.102	14205.39
614.304	13599.2
614.505	13545.95
614.707	14037.46
614.908	13955.54
615.11	13736.41
615.311	14021.08
615.513	14139.86
615.714	14268.88
615.916	13795.8
616.117	13834.71
616.319	14143.95
616.52	14528.97
616.722	13810.14
616.923	13607.39
617.124	14379.47
617.326	14485.97
617.527	13928.92
617.729	14135.76
617.93	14584.27
618.131	14268.88
618.333	13763.03
618.534	14006.74
618.735	13992.41
618.937	14535.12
619.138	13623.77
619.339	13867.48
619.54	14236.11
619.742	14342.61
619.943	13969.88
620.144	14299.6
620.345	14508.49
620.546	14516.69
620.748	14080.47
620.949	14082.52
621.15	14229.97
621.351	14121.43
621.552	13873.62
621.753	13976.02
621.954	14238.16
622.155	14660.04
622.356	13820.38
622.558	14127.57
622.759	14227.92
622.96	14746.06
623.161	14076.37
623.362	14047.7
623.563	14418.38
623.764	14201.3
623.965	14051.8
624.166	14307.79
624.366	14408.14
624.567	14385.62
624.768	13867.48
624.969	13842.9
625.17	14279.12
625.371	14393.81
625.572	14137.81
625.773	14057.94
625.973	14604.75
626.174	14744.01
626.375	14279.12
626.576	14389.71
626.777	14612.94
626.977	14840.26
627.178	14434.77
627.379	14039.51
627.58	14229.97
627.78	14371.28
627.981	14172.63
628.182	14135.76
628.382	14571.98
628.583	14113.24
628.784	14160.34
628.984	14324.18
629.185	14475.73
629.386	14502.35
629.586	14531.02
629.787	14203.35
629.987	14746.06
630.188	14475.73
630.388	14211.54
630.589	14307.79
630.79	14965.19
630.99	14596.56
631.191	14213.59
631.391	14612.94
631.591	14827.98
631.792	14858.7
631.992	14578.12
632.193	14516.69
632.393	14954.95
632.594	14578.12
632.794	14389.71
632.994	14459.34
633.195	14604.75
633.395	14641.61
633.595	14160.34
633.796	14533.07
633.996	14610.89
634.196	14801.35
634.397	14373.33
634.597	14285.26
634.797	14500.3
634.997	15094.21
635.198	14844.36
635.398	14465.49
635.598	14809.54
635.798	15176.13
635.998	14793.16
636.199	14219.73
636.399	14496.21
636.599	14301.65
636.799	14260.69
636.999	14717.39
637.199	14838.22
637.399	15108.55
637.599	14510.54
637.799	14332.37
637.999	14715.34
638.199	15081.92
638.399	14412.24
638.599	14313.94
638.799	14744.01
638.999	15356.35
639.199	14662.09
639.399	14879.18
639.599	15317.44
639.799	14907.85
639.999	14582.22
640.199	14430.67
640.399	15020.49
640.599	14680.52
640.799	14928.33
640.998	15061.44
641.198	15010.25
641.398	14981.57
641.598	14965.19
641.798	14830.02
641.997	15946.17
642.197	15120.84
642.397	14776.78
642.597	14610.89
642.796	15200.71
642.996	15409.6
643.196	14637.52
643.395	14674.38
643.595	15088.07
643.795	14557.64
643.994	14660.04
644.194	14821.83
644.394	15043.01
644.593	15196.61
644.793	14842.31
644.992	14911.94
645.192	15294.91
645.392	14424.53
645.591	15014.34
645.791	14926.28
645.99	15389.12
646.19	15034.82
646.389	14973.38
646.589	14772.68
646.788	15045.06
646.987	15253.95
647.187	15368.64
647.386	15327.68
647.586	15509.95
647.785	15489.47
647.984	14948.81
648.184	15366.59
648.383	15182.27
648.582	15276.48
648.782	15088.07
648.981	14987.72
649.18	14997.96
649.38	15483.33
649.579	15020.49
649.778	14803.4
649.977	15393.22
650.177	15151.56
650.376	15051.2
650.575	14696.91
650.774	15411.65
650.973	15073.73
651.173	14801.35
651.372	14948.81
651.571	15022.53
651.77	15581.63
651.969	15032.77
652.168	15266.24
652.367	15032.77
652.566	15364.54
652.765	15153.6
652.964	15491.52
653.163	15759.8
653.362	15452.61
653.561	14864.84
653.76	15137.22
653.959	15331.78
654.158	15479.23
654.357	15325.63
654.556	15061.44
654.755	15651.26
654.954	15540.67
655.153	14989.77
655.352	15299.01
655.551	15741.37
655.749	15444.41
655.948	15106.5
656.147	15079.88
656.346	15559.1
656.545	15518.14
656.743	15245.76
656.942	15137.22
657.141	15360.45
657.34	15067.59
657.538	15290.82
657.737	15376.83
657.936	15403.46
658.135	15565.25
658.333	15270.34
658.532	15307.2
658.731	16013.75
658.929	15507.9
659.128	15407.55
659.326	15376.83
659.525	15798.71
659.724	15423.94
659.922	14907.85
660.121	15174.08
660.319	15688.12
660.518	15352.26
660.716	15139.27
660.915	15456.7
661.113	15890.87
661.312	15417.79
661.51	15391.17
661.709	15118.79
661.907	15776.19
662.105	16103.86
662.304	15311.3
662.502	15415.74
662.701	15790.52
662.899	15722.94
663.097	15411.65
663.296	15356.35
663.494	15929.78
663.692	16085.43
663.891	15260.1
664.089	15268.29
664.287	15796.67
664.485	15976.89
664.684	15210.95
664.882	15434.18
665.08	15380.93
665.278	15747.51
665.476	15231.43
665.675	15794.62
665.873	16046.52
666.071	16214.45
666.269	15370.69
666.467	15522.24
666.665	15675.84
666.863	15727.03
667.061	15563.2
667.259	15395.26
667.457	15813.05
667.655	15761.85
667.853	15176.13
668.051	15319.49
668.249	15157.7
668.447	15821.24
668.645	15245.76
668.843	15376.83
669.041	15608.25
669.239	15460.8
669.437	15448.51
669.635	15323.58
669.833	15466.94
670.031	15522.24
670.229	15471.04
670.426	15487.42
670.624	15290.82
670.822	15448.51
671.02	15290.82
671.218	15516.09
671.415	15143.36
671.613	15624.64
671.811	15499.71
672.009	15284.67
672.206	16038.33
672.404	15577.53
672.602	15641.02
672.799	15364.54
672.997	15684.03
673.195	15692.22
673.392	15579.58
673.59	15212.99
673.788	15286.72
673.985	15045.06
674.183	15292.87
674.38	15108.55
674.578	15774.14
674.775	15387.07
674.973	15233.47
675.17	15325.63
675.368	15708.6
675.565	15530.43
675.763	14897.61
675.96	15245.76
676.158	15841.72
676.355	15292.87
676.553	15188.42
676.75	15256
676.947	15473.09
677.145	15184.32
677.342	15430.08
677.539	15315.39
677.737	15499.71
677.934	15825.34
678.131	15219.14
678.329	14961.09
678.526	15788.47
678.723	15589.82
678.92	15409.6
679.118	15227.33
679.315	15350.21
679.512	15972.79
679.709	15169.99
679.906	14913.99
680.104	15761.85
680.301	15321.54
680.498	15161.8
680.695	14993.86
680.892	15053.25
681.089	15305.15
681.286	15278.53
681.483	14782.92
681.68	15452.61
681.877	15419.84
682.075	15038.92
682.272	15131.08
682.469	15497.66
682.665	15270.34
682.862	14772.68
683.059	14873.03
683.256	15333.82
683.453	15245.76
683.65	15090.12
683.847	15108.55
684.044	15190.47
684.241	14897.61
684.438	15309.25
684.635	14838.22
684.831	15610.3
685.028	15616.44
685.225	15026.63
685.422	14944.71
685.619	15030.73
685.815	15049.16
686.012	14844.36
686.209	14916.04
686.405	14944.71
686.602	15294.91
686.799	14594.51
686.996	14858.7
687.192	14621.13
687.389	15589.82
687.586	14776.78
687.782	14944.71
687.979	15247.81
688.175	15188.42
688.372	14784.97
688.568	15004.1
688.765	14664.14
688.962	15362.5
689.158	14721.48
689.355	14688.71
689.551	14971.33
689.748	15028.68
689.944	14770.63
690.14	14668.23
690.337	15411.65
690.533	14844.36
690.73	14711.24
690.926	14551.5
691.123	14881.22
691.319	15202.75
691.515	14635.47
691.712	14918.09
691.908	15012.29
692.104	15059.4
692.301	14963.14
692.497	14510.54
692.693	14995.91
692.889	15032.77
693.086	14934.47
693.282	14272.98
693.478	14754.25
693.674	15339.97
693.87	14627.28
694.067	14445.01
694.263	15034.82
694.459	14948.81
694.655	14809.54
694.851	14672.33
695.047	15122.88
695.243	14936.52
695.439	14719.43
695.635	14309.84
695.831	14954.95
696.027	14651.85
696.224	14602.7
696.42	14920.13
696.615	15131.08
696.811	15067.59
697.007	14309.84
697.203	14528.97
697.399	14830.02
697.595	14909.9
697.791	14182.87
697.987	14604.75
698.183	14469.58
698.379	14522.83
698.575	14545.36
698.77	14819.78
698.966	14735.82
699.162	14768.59
699.358	14391.76
699.554	14328.27
699.749	14731.72
699.945	14754.25
700.141	14445.01
700.337	14285.26
700.532	14471.63
700.728	14146
700.924	14143.95
701.119	13926.87
701.315	14545.36
701.511	14387.66
701.706	14551.5
701.902	14016.98
702.097	14582.22
702.293	14744.01
702.489	14469.58
702.684	14287.31
702.88	14619.08
703.075	14606.8
703.271	14234.07
703.466	14283.22
703.662	14426.57
703.857	14721.48
704.053	14264.78
704.248	14369.23
704.443	14735.82
704.639	14907.85
704.834	14119.38
705.03	14076.37
705.225	14680.52
705.42	15006.15
705.616	14508.49
705.811	14213.59
706.006	14402
706.202	14356.94
706.397	14315.98
706.592	14201.3
706.787	14674.38
706.983	14285.26
707.178	14545.36
707.373	14541.26
707.568	14717.39
707.763	14559.69
707.959	14064.08
708.154	14309.84
708.349	14385.62
708.544	14250.45
708.739	14215.63
708.934	14117.33
709.129	14457.29
709.324	14451.15
709.519	13875.67
709.714	14062.04
709.909	14891.46
710.104	14336.46
710.299	13871.58
710.494	14479.82
710.689	14428.62
710.884	14348.75
711.079	14279.12
711.274	14180.82
711.469	14539.21
711.664	14156.24
711.859	13904.34
712.054	14244.31
712.249	14227.92
712.443	14578.12
712.638	13711.83
712.833	13830.62
713.028	14258.64
713.223	14227.92
713.417	14322.13
713.612	14016.98
713.807	14305.74
714.002	14842.31
714.196	13951.45
714.391	13887.96
714.586	14391.76
714.78	14166.48
714.975	14246.35
715.17	13890.01
715.364	14055.89
715.559	14311.89
715.754	13312.48
715.948	13591
716.143	14402
716.337	14045.65
716.532	14211.54
716.726	13730.27
716.921	14189.01
717.115	14451.15
717.31	13814.23
717.504	14291.41
717.699	13873.62
717.893	14078.42
718.088	13550.04
718.282	13775.32
718.476	13767.13
718.671	14045.65
718.865	13613.53
719.059	13867.48
719.254	14051.8
719.448	14272.98
719.642	15212.99
719.837	13484.51
720.031	14119.38
720.225	14072.28
720.419	13646.3
720.614	13564.38
720.808	13969.88
721.002	13683.16
721.196	13509.08
721.39	13896.15
721.585	14279.12
721.779	14010.84
721.973	13556.19
722.167	13259.23
722.361	13908.44
722.555	14096.85
722.749	13517.28
722.943	13494.75
723.137	13367.77
723.331	13935.06
723.525	13646.3
723.719	13324.77
723.913	13744.6
724.107	13963.73
724.301	13171.17
724.495	13375.97
724.689	14111.19
724.883	13947.35
725.077	13738.46
725.271	13511.13
725.465	13928.92
725.659	13525.47
725.853	13318.62
726.046	13541.85
726.24	13447.65
726.434	13470.17
726.628	13638.11
726.822	13492.7
727.015	13973.97
727.209	13838.81
727.403	13281.76
727.596	13253.09
727.79	14000.6
727.984	13992.41
728.177	13388.25
728.371	13535.71
728.565	13922.77
728.758	13513.18
728.952	13216.22
729.146	13457.89
729.339	13945.3
729.533	13695.45
729.726	13627.87
729.92	13384.16
730.113	13994.45
730.307	13828.57
730.5	13285.86
730.694	13109.73
730.887	13347.29
731.081	13758.94
731.274	13429.21
731.468	13318.62
731.661	13545.95
731.854	13474.27
732.048	13314.53
732.241	13486.56
732.435	13369.82
732.628	13615.58
732.821	13519.32
733.014	13427.17
733.208	13484.51
733.401	13842.9
733.594	13464.03
733.788	13287.9
733.981	13593.05
734.174	13752.79
734.367	13304.29
734.56	13375.97
734.754	13642.2
734.947	13418.97
735.14	13205.99
735.333	13455.84
735.526	13609.43
735.719	13400.54
735.912	13095.39
736.105	13380.06
736.298	13445.6
736.491	13304.29
736.684	13146.59
736.877	13296.1
737.07	13392.35
737.263	13658.59
737.456	13072.87
737.649	13058.53
737.842	13384.16
738.035	13441.5
738.228	13066.72
738.421	13255.14
738.614	13787.61
738.807	13588.96
739	12906.98
739.192	13072.87
739.385	13701.59
739.578	13498.84
739.771	13492.7
739.964	12952.04
740.156	13289.95
740.349	13425.12
740.542	13566.43
740.735	13056.48
740.927	13054.44
741.12	13341.15
741.313	12990.95
741.505	13017.57
741.698	13335.01
741.891	13435.36
742.083	13449.69
742.276	13269.47
742.468	13378.01
742.661	13392.35
742.854	12806.63
743.046	12900.84
743.239	13564.38
743.431	13261.28
743.624	13113.83
743.816	12943.85
744.009	13165.03
744.201	13144.55
744.393	13203.94
744.586	12767.72
744.778	13179.36
744.971	13287.9
745.163	13046.24
745.355	13126.11
745.548	13017.57
745.74	13119.97
745.932	13226.46
746.125	13185.51
746.317	13601.24
746.509	13089.25
746.702	12919.27
746.894	12866.02
747.086	13052.39
747.278	13453.79
747.471	13119.97
747.663	13064.68
747.855	13066.72
748.047	13595.1
748.239	13033.96
748.431	13011.43
748.623	13763.03
748.815	13531.61
749.008	12800.49
749.2	12988.9
749.392	13404.64
749.584	13402.59
749.776	13033.96
749.968	12878.31
750.16	13353.44
750.352	12970.47
750.544	13074.92
750.736	12722.66
750.928	13199.84
751.12	13320.67
751.311	12595.69
751.503	12980.71
751.695	13412.83
751.887	13050.34
752.079	12851.69
752.271	12655.08
752.463	13615.58
752.654	13398.49
752.846	12724.71
753.038	12827.11
753.23	12956.13
753.421	13079.01
753.613	12802.54
753.805	12949.99
753.997	13234.66
754.188	13337.06
754.38	12585.45
754.572	12511.72
754.763	12716.52
754.955	12933.61
755.146	12722.66
755.338	12894.69
755.53	12796.39
755.721	12712.42
755.913	12442.09
756.104	12435.95
756.296	12624.36
756.487	12796.39
756.679	12679.66
756.87	12503.53
757.062	12653.03
757.253	13019.62
757.445	12384.75
757.636	12747.24
757.827	12556.78
758.019	13339.1
758.21	12591.59
758.401	12311.02
758.593	12902.89
758.784	13048.29
758.975	12085.75
759.167	11993.59
759.358	12513.77
759.549	12673.51
759.74	11893.24
759.932	12073.46
760.123	12687.85
760.314	12636.65
760.505	12614.12
760.696	12308.97
760.888	12743.14
761.079	12442.09
761.27	12182
761.461	12149.23
761.652	12892.65
761.843	12259.82
762.034	12270.06
762.225	12433.9
762.416	12425.71
762.607	12311.02
762.798	11862.52
762.989	11903.48
763.18	13132.26
763.371	11821.56
763.562	11809.27
763.753	12106.23
763.944	12593.64
764.135	12130.8
764.326	11839.99
764.517	11805.17
764.708	12184.05
764.899	12102.13
765.089	11966.96
765.28	11860.47
765.471	12315.12
765.662	12415.47
765.853	12081.65
766.043	11780.6
766.234	12605.93
766.425	12032.5
766.615	11762.17
766.806	11727.35
766.997	12442.09
767.187	12241.39
767.378	11682.3
767.569	11479.55
767.759	12093.94
767.95	11921.91
768.141	11852.28
768.331	11475.45
768.522	11717.11
768.712	11923.96
768.903	11756.02
769.093	11614.71
769.284	12349.93
769.474	12020.21
769.665	11457.02
769.855	11211.26
770.046	11923.96
770.236	11612.67
770.426	11706.87
770.617	11491.84
770.807	11928.05
770.998	11790.84
771.188	11676.15
771.378	11532.79
771.569	11907.57
771.759	11880.95
771.949	11282.94
772.139	11364.86
772.33	11538.94
772.52	12173.81
772.71	11416.06
772.9	11428.35
773.09	11946.48
773.281	12040.69
773.471	11352.57
773.661	11551.23
773.851	11737.59
774.041	11516.41
774.231	11074.05
774.421	11272.7
774.611	11805.17
774.802	11530.75
774.992	11256.32
775.182	11049.47
775.372	11594.23
775.562	11733.5
775.752	11348.48
775.942	11225.6
776.131	11667.96
776.321	11549.18
776.511	11059.71
776.701	10975.75
776.891	11377.15
777.081	11055.62
777.271	11170.3
777.461	10938.88
777.651	11536.89
777.84	11495.93
778.03	10985.99
778.22	10691.08
778.41	11538.94
778.599	10805.77
778.789	11028.99
778.979	10945.03
779.169	11282.94
779.358	11106.82
779.548	11170.3
779.738	10742.28
779.927	11063.81
780.117	10840.58
780.307	10832.39
780.496	10572.3
780.686	11100.67
780.875	11725.3
781.065	10893.83
781.254	10674.7
781.444	11018.75
781.633	10865.16
781.823	10744.33
782.012	10693.13
782.202	10816.01
782.391	10949.12
782.581	10826.25
782.77	10983.94
782.96	11225.6
783.149	10684.94
783.338	10721.8
783.528	10564.11
783.717	11082.24
783.906	11137.54
784.096	10793.48
784.285	10701.32
784.474	10650.12
784.663	10705.42
784.853	10471.95
785.042	10600.97
785.231	10582.54
785.42	11164.16
785.61	10449.42
785.799	10304.01
785.988	10566.15
786.177	10625.54
786.366	10510.86
786.555	10732.04
786.744	10680.84
786.933	10813.96
787.122	10318.35
787.312	10230.29
787.501	10607.11
787.69	10666.5
787.879	10242.57
788.068	10314.25
788.257	10150.42
788.445	10365.45
788.634	10144.27
788.823	10107.41
789.012	11020.8
789.201	10789.38
789.39	10095.12
789.579	9992.72
789.768	10478.09
789.957	10406.41
790.145	10125.84
790.334	9826.84
790.523	10228.24
790.712	10281.49
790.9	10224.14
791.089	9749.01
791.278	10586.63
791.467	10545.67
791.655	10254.86
791.844	10504.71
792.033	9888.28
792.221	10252.81
792.41	10240.53
792.599	9663
792.787	10312.21
792.976	10506.76
793.164	9669.14
793.353	9937.43
793.541	10396.17
793.73	10332.69
793.918	9904.66
794.107	9828.88
794.295	10162.7
794.484	10160.66
794.672	9837.08
794.861	9820.69
795.049	10351.12
795.238	10318.35
795.426	9675.29
795.614	9849.36
795.803	10265.1
795.991	10261.01
796.179	9816.6
796.368	9753.11
796.556	10281.49
796.744	9970.19
796.932	9738.77
797.121	9722.39
797.309	10238.48
797.497	10484.23
797.685	9953.81
797.874	9765.4
798.062	9814.55
798.25	10435.08
798.438	9775.64
798.626	9673.24
798.814	10105.36
799.002	10469.9
799.19	9962
799.378	9964.05
799.566	10281.49
799.755	10508.81
799.943	10076.69
800.131	9959.95
800.318	9994.77
800.506	10131.98
800.694	9734.68
800.882	9808.4
801.07	10398.22
801.258	10019.35
801.446	9665.05
801.634	9642.52
801.822	10099.22
802.01	10039.83
802.197	9919
802.385	10134.03
802.573	10390.03
802.761	9863.7
802.949	9855.51
803.136	9456.15
803.324	10471.95
803.512	10363.4
803.699	9773.59
803.887	9601.56
804.075	10459.66
804.262	9898.52
804.45	9771.54
804.638	9912.85
804.825	9996.82
805.013	9980.43
805.201	9951.76
805.388	9726.49
805.576	10150.42
805.763	10770.95
805.951	9947.67
806.138	9900.56
806.326	10453.52
806.513	10265.1
806.701	10002.96
806.888	9800.21
807.075	10050.07
807.263	10506.76
807.45	9789.97
807.638	9957.91
807.825	10641.93
808.012	10299.92
808.2	9859.6
808.387	10125.84
808.574	10197.52
808.761	10643.98
808.949	9976.34
809.136	9945.62
809.323	9736.73
809.51	10189.33
809.698	10117.65
809.885	10109.46
810.072	10396.17
810.259	10428.94
810.446	10099.22
810.633	9546.26
810.82	10285.58
811.008	10738.18
811.195	10168.85
811.382	9925.14
811.569	10195.47
811.756	9947.67
811.943	10115.6
812.13	10037.78
812.317	10172.94
812.504	10324.49
812.691	10160.66
812.878	10035.73
813.064	10482.19
813.251	10396.17
813.438	10121.74
813.625	10084.88
813.812	10287.63
813.999	10162.7
814.186	10056.21
814.372	9953.81
814.559	10248.72
814.746	10469.9
814.933	10078.74
815.12	9955.86
815.306	10048.02
815.493	10162.7
815.68	9912.85
815.866	9996.82
816.053	10484.23
816.24	10643.98
816.426	10015.25
816.613	10007.06
816.799	10562.06
816.986	10357.26
817.173	9904.66
817.359	9802.26
817.546	10170.9
817.732	9792.02
817.919	9783.83
818.105	9986.58
818.292	10035.73
818.478	10242.57
818.665	10103.31
818.851	9900.56
819.037	10615.3
819.224	10336.78
819.41	9945.62
819.597	9812.5
819.783	10275.34
819.969	10306.06
820.156	9925.14
820.342	9800.21
820.528	10908.16
820.714	10215.95
820.901	10138.13
821.087	9832.98
821.273	10500.62
821.459	10050.07
821.646	9761.3
821.832	9706.01
822.018	10304.01
822.204	10062.35
822.39	9816.6
822.576	9517.59
822.762	10103.31
822.948	10011.15
823.134	9857.56
823.32	9777.69
823.507	9556.5
823.693	9916.95
823.879	10095.12
824.065	9607.7
824.25	9839.12
824.436	9757.21
824.622	9720.34
824.808	9521.69
824.994	9802.26
825.18	9673.24
825.366	9593.37
825.552	9689.62
825.738	9857.56
825.923	10070.54
826.109	9890.32
826.295	9630.23
826.481	9730.58
826.667	9878.04
826.852	9810.45
827.038	9374.24
827.224	10138.13
827.409	10365.45
827.595	9413.15
827.781	9646.62
827.966	9779.73
828.152	9972.24
828.338	9525.79
828.523	9103.9
828.709	9388.57
828.894	9853.46
829.08	9450.01
829.266	9501.21
829.451	9421.34
829.637	9830.93
829.822	9552.41
830.008	9114.14
830.193	9708.05
830.378	9873.94
830.564	9458.2
830.749	9120.29
830.935	9640.47
831.12	9642.52
831.305	9269.79
831.491	9476.63
831.676	9269.79
831.861	9802.26
832.047	9228.83
832.232	9042.46
832.417	9738.77
832.602	9443.87
832.788	9304.6
832.973	9011.75
833.158	9482.78
833.343	9605.66
833.528	9280.03
833.714	9423.39
833.899	9581.08
834.084	9898.52
834.269	9253.41
834.454	9232.93
834.639	9427.48
834.824	9316.89
835.009	9185.82
835.194	9312.8
835.379	9454.11
835.564	9626.14
835.749	9091.62
835.934	8813.09
836.119	9271.84
836.304	9114.14
836.489	9050.66
836.674	9163.29
836.859	8968.74
837.044	9550.36
837.228	8958.5
837.413	8872.48
837.598	9302.56
837.783	9505.31
837.968	8921.63
838.152	8866.34
838.337	9019.94
838.522	9345.56
838.707	9323.04
838.891	8976.93
839.076	9314.84
839.261	9337.37
839.445	8923.68
839.63	8890.92
839.815	9417.24
839.999	9054.75
840.184	8890.92
840.368	8983.07
840.553	9232.93
840.737	9210.4
840.922	8641.06
841.106	8602.15
841.291	8784.42
841.475	8852
841.66	8856.1
841.844	8501.8
842.029	9751.06
842.213	8665.64
842.397	8606.25
842.582	8399.4
842.766	9042.46
842.951	9120.29
843.135	8645.16
843.319	8745.51
843.504	9042.46
843.688	9372.19
843.872	8518.18
844.056	8630.82
844.241	8905.25
844.425	8782.37
844.609	8704.55
844.793	8276.52
844.977	9105.95
845.161	8927.78
845.346	8366.63
845.53	8438.31
845.714	8679.97
845.898	9189.92
846.082	8317.48
846.266	8507.94
846.45	8884.77
846.634	8823.33
846.818	8542.76
847.002	8479.27
847.186	8774.18
847.37	8452.65
847.554	8157.74
847.738	8479.27
847.922	8837.67
848.106	8694.31
848.29	8133.17
848.473	8118.83
848.657	8739.37
848.841	8419.88
849.025	8362.54
849.209	8061.49
849.392	8657.45
849.576	8661.54
849.76	8055.34
849.944	8620.58
850.127	8997.41
850.311	8235.56
850.495	8167.98
850.678	8104.49
850.862	8667.69
851.046	8776.23
851.229	8270.38
851.413	8237.61
851.596	8458.79
851.78	8348.2
851.964	8319.53
852.147	8264.24
852.331	9151.01
852.514	8682.02
852.698	8028.72
852.881	7834.16
853.065	8714.79
853.248	8327.72
853.431	8065.58
853.615	8131.12
853.798	8757.8
853.982	8170.03
854.165	8114.73
854.348	7805.49
854.532	8043.06
854.715	8051.25
854.898	8151.6
855.081	7860.79
855.265	8487.47
855.448	8718.89
855.631	8006.19
855.814	7828.02
855.997	8329.77
856.181	8012.34
856.364	8124.97
856.547	7756.34
856.73	8178.22
856.913	8043.06
857.096	7696.95
857.279	7893.55
857.462	8018.48
857.645	8313.39
857.828	8116.78
858.011	7891.51
858.194	7944.75
858.377	8325.68
858.56	7676.47
858.743	7817.78
858.926	7883.31
859.109	8167.98
859.292	7920.18
859.475	7711.28
859.658	8305.2
859.841	8096.3
860.023	7580.21
860.206	7658.04
860.389	8059.44
860.572	8319.53
860.755	7639.61
860.937	7670.33
861.12	7803.44
861.303	8014.38
861.486	7696.95
861.668	7340.6
861.851	7897.65
862.034	7895.6
862.216	7629.37
862.399	7287.36
862.581	7914.03
862.764	8069.68
862.947	7410.23
863.129	7549.5
863.312	7336.51
863.494	8112.69
863.677	7649.85
863.859	7270.97
864.042	7858.74
864.224	7815.73
864.406	7449.14
864.589	7207.48
864.771	7795.25
864.954	7234.11
865.136	7174.72
865.318	7148.09
865.501	7739.96
865.683	7352.89
865.865	7365.18
866.048	7352.89
866.23	7510.58
866.412	7561.78
866.594	7191.1
866.777	7268.92
866.959	7586.36
867.141	7338.55
867.323	7438.91
867.505	7422.52
867.687	7547.45
867.869	7459.38
868.052	7182.91
868.234	7215.68
868.416	7340.6
868.598	7576.12
868.78	7125.57
868.962	7023.17
869.144	7539.26
869.326	7512.63
869.508	7207.48
869.69	7031.36
869.872	7301.69
870.054	7678.52
870.236	6779.46
870.417	6961.73
870.599	7027.26
870.781	7588.41
870.963	7139.9
871.145	6974.02
871.327	7014.98
871.508	7660.09
871.69	6945.34
871.872	6986.3
872.054	7195.2
872.235	7576.12
872.417	6873.67
872.599	7039.55
872.78	7836.21
872.962	7293.5
873.144	6924.86
873.325	7006.78
873.507	7608.89
873.689	7242.3
873.87	7021.12
874.052	7135.81
874.233	7086.65
874.415	7328.31
874.596	6959.68
874.778	6820.42
874.959	7277.12
875.141	7565.88
875.322	7100.99
875.503	6959.68
875.685	7338.55
875.866	6801.99
876.048	6832.71
876.229	6863.43
876.41	7006.78
876.592	7258.68
876.773	6951.49
876.954	6761.03
877.136	7543.35
877.317	7199.29
877.498	6771.27
877.679	6949.44
877.86	7371.32
878.042	7279.16
878.223	6881.86
878.404	7371.32
878.585	7320.12
878.766	7514.68
878.947	7246.4
879.128	7100.99
879.309	7293.5
879.49	7481.91
879.672	7191.1
879.853	7090.75
880.034	7170.62
880.215	7332.41
880.396	7328.31
880.576	7068.22
880.757	7219.77
880.938	7670.33
881.119	7223.87
881.3	7047.74
881.481	7457.34
881.662	8260.14
881.843	7074.37
882.023	7043.65
882.204	7475.77
882.385	7397.95
882.566	7152.19
882.747	7141.95
882.927	7420.47
883.108	7529.02
883.289	7135.81
883.469	7383.61
883.65	7416.38
883.831	7438.91
884.011	7279.16
884.192	7242.3
884.373	7789.11
884.553	7670.33
884.734	7467.58
884.914	7696.95
885.095	8149.55
885.275	8086.06
885.456	7443
885.636	7164.48
885.817	7539.26
885.997	7467.58
886.178	7182.91
886.358	7508.54
886.538	7653.94
886.719	8696.36
886.899	7447.1
887.08	7500.34
887.26	7920.18
887.44	7414.33
887.621	7465.53
887.801	7645.75
887.981	8432.17
888.161	7930.42
888.342	7502.39
888.522	7486.01
888.702	7934.51
888.882	8026.67
889.062	7586.36
889.242	7338.55
889.423	8141.36
889.603	7809.59
889.783	7871.03
889.963	7363.13
890.143	7754.29
890.323	7946.8
890.503	7361.08
890.683	7551.54
890.863	7737.91
891.043	7727.67
891.223	7436.86
891.403	7772.72
891.583	7660.09
891.763	7881.27
891.943	7535.16
892.122	7477.82
892.302	7801.4
892.482	7537.21
892.662	7680.57
892.842	7641.65
893.022	7825.97
893.201	7596.6
893.381	7598.65
893.561	7412.28
893.741	7860.79
893.92	7873.07
894.1	7643.7
894.28	7524.92
894.459	7789.11
894.639	7727.67
894.819	7569.98
894.998	7655.99
895.178	7830.07
895.357	7832.12
895.537	7334.46
895.716	7291.45
895.896	7559.74
896.075	7830.07
896.255	7311.93
896.434	7201.34
896.614	8079.92
896.793	8059.44
896.973	7445.05
897.152	7483.96
897.331	7559.74
897.511	7625.27
897.69	7174.72
897.87	7170.62
898.049	7535.16
898.228	7569.98
898.407	7207.48
898.587	7397.95
898.766	7115.33
898.945	7381.56
899.124	7346.75
899.304	7340.6
899.483	7725.62
899.662	7830.07
899.841	7060.03
900.02	7094.85
900.199	7631.41
900.378	7418.43
900.557	7043.65
900.737	6953.54
900.916	7424.57
901.095	7318.07
901.274	7170.62
901.453	6853.19
901.632	6851.14
901.811	7154.24
901.989	6834.75
902.168	6806.08
902.347	7410.23
902.526	6984.26
902.705	6765.12
902.884	7012.93
903.063	7305.79
903.242	7508.54
903.42	6556.23
903.599	6801.99
903.778	7252.54
903.957	7477.82
904.135	6914.63
904.314	6752.84
904.493	6896.19
904.672	6967.87
904.85	6566.47
905.029	6494.79
905.207	6867.52
905.386	7555.64
905.565	6365.77
905.743	6402.63
905.922	6718.02
906.1	6818.37
906.279	6193.74
906.457	6277.71
906.636	6449.74
906.814	6414.92
906.993	6148.68
907.171	6224.46
907.35	6720.07
907.528	6804.03
907.707	6412.87
907.885	6056.53
908.063	6986.3
908.242	6216.27
908.42	6048.33
908.598	5866.07
908.777	6533.7
908.955	6263.37
909.133	6158.92
909.311	5896.78
909.49	6173.26
909.668	6214.22
909.846	6150.73
910.024	5921.36
910.202	6625.86
910.38	6718.02
910.559	6005.33
910.737	6062.67
910.915	6232.65
911.093	6470.22
911.271	6326.86
911.449	6535.75
911.627	6496.84
911.805	7035.46
911.983	6105.68
912.161	6210.12
912.339	6578.76
912.517	6730.31
912.695	6515.27
912.872	6103.63
913.05	6498.89
913.228	6668.87
913.406	6257.23
913.584	6400.59
913.762	6744.64
913.939	6249.04
914.117	6304.33
914.295	6298.19
914.473	6801.99
914.65	6840.9
914.828	6330.95
915.006	6240.84
915.184	6511.18
915.361	6658.63
915.539	6312.52
915.716	6275.66
915.894	6785.6
916.072	6695.49
916.249	6412.87
916.427	6548.04
916.604	6269.52
916.782	6822.47
916.959	6302.28
917.137	6222.41
917.314	6525.51
917.492	6666.82
917.669	6324.81
917.847	6328.91
918.024	6646.34
918.201	6228.56
918.379	6257.23
918.556	6470.22
918.733	6560.33
918.911	6281.8
919.088	6392.39
919.265	6023.76
919.442	6466.12
919.62	6277.71
919.797	6109.77
919.974	5931.6
920.151	6464.07
920.328	6142.54
920.506	5943.89
920.683	6378.06
920.86	6175.31
921.037	6154.83
921.214	5964.37
921.391	6029.9
921.568	6537.8
921.745	6136.4
921.922	5919.31
922.099	5861.97
922.276	6527.56
922.453	6339.15
922.63	5814.87
922.807	6242.89
922.984	6187.6
923.161	6027.85
923.338	5825.11
923.514	5759.57
923.691	6412.87
923.868	6289.99
924.045	5653.08
924.222	5675.6
924.399	6257.23
924.575	6462.02
924.752	5925.46
924.929	5743.19
925.105	6109.77
925.282	5724.76
925.459	5814.87
925.635	5786.19
925.812	6027.85
925.989	5833.3
926.165	5778
926.342	5522.01
926.518	5569.11
926.695	5950.03
926.871	5575.25
927.048	5454.42
927.224	6095.44
927.401	5714.52
927.577	5640.79
927.754	5372.5
927.93	5866.07
928.107	5790.29
928.283	5202.52
928.459	5542.49
928.636	5925.46
928.812	5651.03
928.988	5356.12
929.165	5186.14
929.341	5577.3
929.517	5665.36
929.693	5618.26
929.87	5124.7
930.046	5560.92
930.222	5503.57
930.398	5069.41
930.574	5286.49
930.751	5438.04
930.927	5368.41
931.103	5184.09
931.279	5165.66
931.455	5196.38
931.631	5405.27
931.807	5038.69
931.983	4973.15
932.159	4866.66
932.335	5429.85
932.511	5075.55
932.687	5001.82
932.863	5208.67
933.039	5190.24
933.215	4747.87
933.391	4598.37
933.566	5012.06
933.742	5143.13
933.918	4864.61
934.094	4606.56
934.27	4866.66
934.445	4885.09
934.621	4670.05
934.797	4579.94
934.973	4891.23
935.148	4913.76
935.324	4442.73
935.5	4080.24
935.675	4815.46
935.851	4627.04
936.027	4348.52
936.202	4274.79
936.378	4526.69
936.553	4239.98
936.729	4530.79
936.904	4012.65
937.08	3988.08
937.255	3881.58
937.431	3687.03
937.606	3531.38
937.782	3711.6
937.957	3967.6
938.133	3617.4
938.308	3396.21
938.483	3627.64
938.659	3467.89
938.834	3490.42
939.009	3240.57
939.185	3465.85
939.36	3242.62
939.535	3005.05
939.71	3308.15
939.886	3693.17
940.061	3539.57
940.236	3234.43
940.411	3185.27
940.586	3639.92
940.761	3373.69
940.937	3062.4
941.112	3084.92
941.287	3246.71
941.462	3322.49
941.637	2759.3
941.812	2892.41
941.987	3408.5
942.162	3117.69
942.337	2841.22
942.512	2878.08
942.687	3332.73
942.862	3152.51
943.037	2607.75
943.212	2439.81
943.386	3078.78
943.561	3054.2
943.736	2794.11
943.911	3082.88
944.086	3111.55
944.26	3039.87
944.435	2759.3
944.61	2828.93
944.785	3283.58
944.959	3400.31
945.134	2769.54
945.309	2677.38
945.483	2910.85
945.658	3166.84
945.833	2550.4
946.007	2681.47
946.182	3455.61
946.357	2599.56
946.531	2722.43
946.706	2615.94
946.88	2656.9
947.055	3179.13
947.229	2712.19
947.404	2751.1
947.578	3351.16
947.752	2931.33
947.927	2638.47
948.101	2450.05
948.276	3050.11
948.45	2966.14
948.624	2970.24
948.799	2828.93
948.973	3115.64
949.147	2681.47
949.321	2830.98
949.496	2882.17
949.67	3332.73
949.844	3084.92
950.018	2734.72
950.193	2781.82
950.367	3492.47
950.541	3031.68
950.715	3015.29
950.889	3035.77
951.063	3031.68
951.237	3342.97
951.411	2773.63
951.585	2792.06
951.759	3203.71
951.933	3160.7
952.107	2902.65
952.281	3113.6
952.455	3439.22
952.629	3449.46
952.803	2982.53
952.977	2986.62
953.151	3340.92
953.325	3385.97
953.499	3179.13
953.672	2837.12
953.846	3015.29
954.02	3054.2
954.194	2861.69
954.368	2998.91
954.541	3422.84
954.715	3089.02
954.889	3224.19
955.062	2962.05
955.236	3332.73
955.41	3195.51
955.583	3172.99
955.757	2869.89
955.93	3281.53
956.104	2914.94
956.278	3003
956.451	3029.63
956.625	3433.08
956.798	3785.33
956.972	3334.78
957.145	3021.44
957.319	3396.21
957.492	3261.05
957.665	3365.5
957.839	3074.68
958.012	3549.81
958.185	3263.1
958.359	3287.67
958.532	3379.83
958.705	3422.84
958.879	3379.83
959.052	3164.79
959.225	2951.81
959.398	3297.91
959.572	3457.65
959.745	3046.01
959.918	3017.34
960.091	3330.68
960.264	3558
960.438	3000.96
960.611	2900.61
960.784	3570.29
960.957	3293.82
961.13	3521.14
961.303	3072.64
961.476	3357.3
961.649	3498.61
961.822	3066.49
961.995	3240.57
962.168	3592.82
962.341	3381.88
962.514	3086.97
962.686	3111.55
962.859	3308.15
963.032	3471.99
963.205	3129.98
963.378	2902.65
963.551	3547.76
963.723	3302.01
963.896	3244.67
964.069	3213.95
964.242	3295.86
964.414	3474.04
964.587	3072.64
964.76	3193.47
964.932	3443.32
965.105	3310.2
965.278	3072.64
965.45	3084.92
965.623	3406.45
965.795	3433.08
965.968	3015.29
966.14	3005.05
966.313	3269.24
966.485	3234.43
966.658	3000.96
966.83	3015.29
967.003	3623.54
967.175	3500.66
967.348	3154.55
967.52	3037.82
967.692	3703.41
967.865	3207.8
968.037	3086.97
968.209	3404.41
968.382	3238.52
968.554	3390.07
968.726	3170.94
968.898	2894.46
969.071	3349.11
969.243	3242.62
969.415	2996.86
969.587	3127.93
969.759	3744.37
969.932	3371.64
970.104	2925.18
970.276	2814.59
970.448	3197.56
970.62	3185.27
970.792	3213.95
970.964	3123.84
971.136	3633.78
971.308	3373.69
971.48	2869.89
971.652	2916.99
971.824	3418.74
971.996	2949.76
972.168	2998.91
972.339	2947.71
972.511	3248.76
972.683	3107.45
972.855	3060.35
973.027	3078.78
973.199	2990.72
973.37	3138.17
973.542	3000.96
973.714	3039.87
973.886	3068.54
974.057	3308.15
974.229	2689.67
974.401	2777.73
974.572	2773.63
974.744	2558.6
974.915	2632.32
975.087	2638.47
975.259	3447.41
975.43	2912.89
975.602	2880.13
975.773	2695.81
975.945	2935.42
976.116	3279.48
976.288	2728.58
976.459	2966.14
976.63	2873.98
976.802	3070.59
976.973	2777.73
977.145	2833.02
977.316	3598.96
977.487	3129.98
977.659	2931.33
977.83	2652.8
978.001	3369.59
978.172	3064.44
978.344	2636.42
978.515	2812.54
978.686	2771.58
978.857	3463.8
979.028	2718.34
979.2	2589.32
979.371	3271.29
979.542	2853.5
979.713	2767.49
979.884	2298.5
980.055	2669.19
980.226	2787.97
980.397	2529.92
980.568	2456.2
980.739	2927.23
980.91	2646.66
981.081	2615.94
981.252	2519.68
981.423	2939.52
981.594	3123.84
981.765	2462.34
981.936	2613.89
982.106	2892.41
982.277	2974.33
982.448	2568.84
982.619	2603.65
982.79	2730.62
982.96	3031.68
983.131	2589.32
983.302	2507.4
983.472	2644.61
983.643	2732.67
983.814	2552.45
983.984	2439.81
984.155	2638.47
984.326	2957.95
984.496	2519.68
984.667	2425.48
984.837	2300.55
985.008	3029.63
985.178	2599.56
985.349	2370.18
985.519	2687.62
985.69	2409.09
985.86	2439.81
986.031	2314.89
986.201	2611.84
986.371	2611.84
986.542	2310.79
986.712	2026.12
986.882	2736.77
987.053	2706.05
987.223	2341.51
987.393	2407.05
987.563	2450.05
987.734	2736.77
987.904	2603.65
988.074	2144.91
988.244	2501.25
988.414	2294.41
988.585	2071.18
988.755	2333.32
988.925	2402.95
989.095	2642.56
989.265	2175.63
989.435	2259.59
989.605	2568.84
989.775	2554.5
989.945	2402.95
990.115	1979.02
990.285	2378.37
990.455	2417.29
990.625	2202.25
990.795	2001.55
990.965	2562.69
991.134	2118.28
991.304	2040.46
991.474	2130.57
991.644	2497.16
991.814	2699.91
991.984	1929.87
992.153	2077.32
992.323	2347.65
992.493	2286.22
992.662	1878.67
992.832	2165.39
993.002	2271.88
993.171	2237.06
993.341	1804.94
993.511	2054.8
993.68	2153.1
993.85	2302.6
994.019	1766.03
994.189	1874.57
994.358	2120.33
994.528	2067.08
994.697	1741.46
994.867	1837.71
995.036	2343.56
995.206	2065.04
995.375	1817.23
995.544	1999.5
995.714	2239.11
995.883	1952.4
996.052	2007.69
996.222	1579.67
996.391	2669.19
996.56	2196.11
996.73	1694.35
996.899	1645.2
997.068	2511.49
997.237	2005.64
997.406	1620.63
997.576	1641.11
997.745	2185.87
997.914	2114.19
998.083	1493.65
998.252	1624.72
998.421	2083.47
998.59	1653.39
998.759	1727.12
998.928	1555.09
999.097	2278.02
999.266	2046.6
999.435	1821.33
999.604	1432.21
999.773	2374.28
999.942	1852.05
1000.111	1456.79
1000.28	1378.97
1000.448	1651.35
1000.617	1512.08
1000.786	1686.16
1000.955	1407.64
1001.124	2038.41
1001.292	2622.08
1001.461	1436.31
1001.63	1446.55
1001.798	2210.44
1001.967	2128.52
1002.136	1399.45
1002.304	1419.93
1002.473	2005.64
1002.642	1913.49
1002.81	1581.71
1002.979	1464.98
1003.147	1987.21
1003.316	2376.33
1003.484	1565.33
1003.653	1276.57
1003.821	2067.08
1003.99	1710.74
1004.158	1583.76
1004.327	1518.23
1004.495	1866.38
1004.663	1637.01
1004.832	1571.47
1005	1286.81
1005.168	1829.52
1005.337	1704.59
1005.505	1151.64
1005.673	1512.08
1005.842	1763.98
1006.01	1823.37
1006.178	1245.85
1006.346	1350.29
1006.514	1819.28
1006.683	1864.33
1006.851	1317.53
1007.019	1440.4
1007.187	1530.52
1007.355	1217.18
1007.523	1133.21
1007.691	1088.15
1007.859	1262.23
1008.027	1899.15
1008.195	1370.77
1008.363	1188.5
1008.531	1774.22
1008.699	1327.77
1008.867	1067.67
1009.035	1108.63
1009.203	1884.81
1009.37	1491.6
1009.538	1219.22
1009.706	1714.83
1009.874	1538.71
1010.042	1546.9
1010.209	1059.48
1010.377	1034.91
1010.545	1727.12
1010.713	1481.36
1010.88	1112.73
1011.048	1145.5
1011.216	1438.36
1011.383	1788.56
1011.551	1180.31
1011.718	1006.24
1011.886	1686.16
1012.054	1374.87
1012.221	1032.86
1012.389	1012.38
1012.556	1385.11
1012.724	1772.18
1012.891	1125.02
1013.058	909.98
1013.226	1571.47
1013.393	1510.04
1013.561	860.83
1013.728	936.6
1013.895	1491.6
1014.063	1553.04
1014.23	801.44
1014.397	887.45
1014.565	1464.98
1014.732	1235.61
1014.899	989.85
1015.066	934.56
1015.233	1350.29
1015.401	1397.4
1015.568	1026.72
1015.735	1053.34
1015.902	1264.28
1016.069	1370.77
1016.236	834.21
1016.403	740
1016.57	996
1016.737	1569.43
1016.904	903.84
1017.071	742.05
1017.238	1196.7
1017.405	1434.26
1017.572	836.25
1017.739	983.71
1017.906	1358.49
1018.073	1483.41
1018.24	797.34
1018.407	871.07
1018.573	1612.43
1018.74	1188.5
1018.907	950.94
1019.074	643.74
1019.241	1403.54
1019.407	1196.7
1019.574	850.59
1019.741	699.04
1019.907	1198.74
1020.074	1241.75
1020.241	596.64
1020.407	703.14
1020.574	1262.23
1020.74	1219.22
1020.907	762.53
1021.073	688.8
1021.24	1548.95
1021.406	1329.81
1021.573	565.92
1021.739	838.3
1021.906	1272.47
1022.072	1079.96
1022.239	803.49
1022.405	707.23
1022.571	1125.02
1022.738	869.02
1022.904	684.7
1023.07	682.66
1023.237	1170.07
1023.403	1385.11
1023.569	707.23
1023.735	758.43
1023.902	985.76
1024.068	1094.3
1024.234	606.88
1024.4	682.66
1024.566	981.66
1024.732	1215.13
1024.898	653.98
1025.065	391.84
1025.231	1215.13
1025.397	963.23
1025.563	643.74
1025.729	508.58
1025.895	574.11
1026.061	715.42
1026.227	375.46
1026.392	641.7
1026.558	1235.61
1026.724	918.17
1026.89	514.72
1027.056	596.64
1027.222	1075.87
1027.388	971.42
1027.553	520.87
1027.719	467.62
1027.885	1403.54
1028.051	1018.52
1028.216	268.97
1028.382	610.98
1028.548	1100.44
1028.713	815.77
1028.879	516.77
1029.045	668.32
1029.21	1284.76
1029.376	1116.83
1029.541	676.51
1029.707	580.26
1029.873	1032.86
1030.038	1051.29
1030.204	545.44
1030.369	524.96
1030.534	1141.4
1030.7	803.49
1030.865	590.5
1031.031	441
1031.196	852.64
1031.361	912.03
1031.527	510.63
1031.692	443.04
1031.857	547.49
1032.023	903.84
1032.188	490.15
1032.353	477.86
1032.518	1161.88
1032.684	903.84
1032.849	277.16
1033.014	498.34
1033.179	967.32
1033.344	979.61
1033.509	455.33
1033.674	391.84
1033.839	932.51
1034.004	969.37
1034.17	397.99
1034.335	326.31
1034.5	801.44
1034.664	619.17
1034.829	375.46
1034.994	436.9
1035.159	832.16
1035.324	846.49
1035.489	486.05
1035.654	385.7
1035.819	983.71
1035.984	850.59
1036.148	420.52
1036.313	309.93
1036.478	1090.2
1036.643	770.72
1036.807	408.23
1036.972	354.98
1037.137	1100.44
1037.301	717.47
1037.466	258.73
1037.631	498.34
1037.795	1022.62
1037.96	817.82
1038.124	557.73
1038.289	283.3
1038.454	907.93
1038.618	932.51
1038.783	381.6
1038.947	469.67
1039.111	770.72
1039.276	696.99
1039.44	301.73
1039.605	756.38
1039.769	570.02
1039.933	694.94
1040.098	412.32
1040.262	598.69
1040.426	905.88
1040.591	752.29
1040.755	314.02
1040.919	314.02
1041.083	721.57
1041.248	588.45
1041.412	148.14
1041.576	309.93
1041.74	678.56
1041.904	842.4
1042.068	252.58
1042.232	342.69
1042.397	952.99
1042.561	750.24
1042.725	76.46
1042.889	359.08
1043.053	897.69
1043.217	768.67
1043.381	412.32
1043.544	191.14
1043.708	860.83
1043.872	320.17
1044.036	96.94
1044.2	228.01
1044.364	905.88
1044.528	961.18
1044.691	3601.01
1044.855	137.9
1045.019	959.13
1045.183	817.82
1045.346	213.67
1045.51	252.58
1045.674	682.66
1045.837	807.58
1046.001	287.4
1046.165	223.91
1046.328	1219.22
1046.492	789.15
1046.655	357.03
1046.819	326.31
1046.983	549.54
1047.146	772.77
1047.31	344.74
1047.473	86.7
1047.636	567.97
1047.8	309.93
1047.963	295.59
1048.127	160.42
1048.29	402.08
