Data from Hydrogel_Ink_Intensity_Test_1_USB4F045381__20__00020.txt Node

Date: Mon Jul 31 10:39:10 EDT 2023
User: mmckonesweet
Spectrometer: USB4F04538
Trigger mode: 4
Integration Time (sec): 9.000000E-1
Scans to average: 1
Electric dark correction enabled: true
Nonlinearity correction enabled: false
Boxcar width: 0
XAxis mode: Wavelengths
Number of Pixels in Spectrum: 3648
>>>>>Begin Spectral Data<<<<<
345.52	-1013.23
345.736	-1013.23
345.952	-1013.23
346.168	-966.13
346.384	-949.75
346.6	-48.64
346.816	-265.72
347.032	-259.58
347.248	403.96
347.464	-167.42
347.68	-62.98
347.896	4.61
348.112	346.62
348.328	-11.78
348.544	-103.93
348.76	-58.88
348.975	223.74
349.191	-245.24
349.407	-60.93
349.623	111.1
349.839	47.62
350.055	-24.06
350.27	135.68
350.486	193.02
350.702	403.96
350.918	246.27
351.133	-146.94
351.349	174.59
351.565	346.62
351.781	-95.74
351.996	-24.06
352.212	356.86
352.428	-15.87
352.644	-110.08
352.859	-130.56
353.075	373.24
353.291	55.81
353.506	-101.89
353.722	-275.96
353.938	-26.11
354.153	498.17
354.369	162.3
354.584	-24.06
354.8	246.27
355.016	-257.53
355.231	-151.04
355.447	-9.73
355.662	96.77
355.878	934.39
356.093	-239.1
356.309	29.18
356.524	-114.17
356.74	217.6
356.955	-73.21
357.171	27.14
357.386	236.03
357.602	-122.37
357.817	23.04
358.033	-159.23
358.248	520.7
358.464	246.27
358.679	-38.4
358.895	-185.85
359.11	43.52
359.325	365.05
359.541	256.51
359.756	107.01
359.972	-241.15
360.187	221.69
360.402	-110.08
360.618	-103.93
360.833	1018.35
361.048	223.74
361.264	-81.41
361.479	29.18
361.694	94.72
361.909	295.42
362.125	-142.85
362.34	-1.54
362.555	287.23
362.77	193.02
362.986	-73.21
363.201	-69.12
363.416	287.23
363.631	68.09
363.847	-62.98
364.062	-105.98
364.277	266.75
364.492	182.78
364.707	59.9
364.922	-148.99
365.138	276.99
365.353	336.38
365.568	-34.3
365.783	27.14
365.998	133.63
366.213	694.77
366.428	-52.74
366.643	201.21
366.858	340.47
367.073	340.47
367.288	4.61
367.503	-110.08
367.718	190.97
367.933	336.38
368.148	-116.22
368.363	64
368.578	98.81
368.793	526.84
369.008	-75.26
369.223	-118.27
369.438	363
369.653	455.16
369.868	-153.09
370.083	-75.26
370.298	158.21
370.513	457.21
370.728	213.5
370.943	-71.17
371.157	-32.26
371.372	604.66
371.587	-112.13
371.802	-97.79
372.017	178.69
372.232	549.37
372.446	82.43
372.661	-155.13
372.876	465.4
373.091	244.22
373.306	4.61
373.52	-52.74
373.735	-81.41
373.95	569.85
374.165	107.01
374.379	12.8
374.594	57.86
374.809	225.79
375.023	107.01
375.238	-99.84
375.453	340.47
375.667	-56.83
375.882	49.66
376.097	37.38
376.311	160.25
376.526	180.73
376.741	-69.12
376.955	311.8
377.17	743.92
377.384	676.34
377.599	57.86
377.813	-44.54
378.028	707.06
378.242	295.42
378.457	209.4
378.672	-163.33
378.886	309.76
379.101	225.79
379.315	-99.84
379.53	100.86
379.744	350.71
379.958	320
380.173	31.23
380.387	2.56
380.602	330.23
380.816	29.18
381.031	109.05
381.245	113.15
381.459	311.8
381.674	2695.64
381.888	35.33
382.103	385.53
382.317	53.76
382.531	684.53
382.746	199.16
382.96	61.95
383.174	172.54
383.388	614.9
383.603	317.95
383.817	-44.54
384.031	408.06
384.246	657.91
384.46	203.26
384.674	563.7
384.888	330.23
385.103	299.52
385.317	-81.41
385.531	233.98
385.745	582.14
385.959	614.9
386.174	78.33
386.388	82.43
386.602	242.17
386.816	131.58
387.03	121.34
387.244	193.02
387.458	297.47
387.672	686.58
387.887	16.9
388.101	-34.3
388.315	717.3
388.529	399.87
388.743	172.54
388.957	16.9
389.171	600.57
389.385	117.25
389.599	205.31
389.813	348.67
390.027	395.77
390.241	905.71
390.455	172.54
390.669	244.22
390.883	190.97
391.097	827.89
391.311	344.57
391.525	158.21
391.738	461.3
391.952	446.97
392.166	307.71
392.38	121.34
392.594	711.16
392.808	619
393.022	215.55
393.236	309.76
393.449	504.31
393.663	489.98
393.877	96.77
394.091	270.84
394.305	256.51
394.518	133.63
394.732	125.44
394.946	346.62
395.16	770.55
395.373	422.39
395.587	143.87
395.801	205.31
396.015	670.2
396.228	500.22
396.442	135.68
396.656	152.06
396.869	698.87
397.083	831.99
397.297	311.8
397.51	332.28
397.724	795.12
397.938	580.09
398.151	145.92
398.365	231.93
398.578	619
398.792	778.74
399.005	430.59
399.219	274.94
399.433	592.37
399.646	625.14
399.86	528.89
400.073	506.36
400.287	754.16
400.5	406.01
400.714	477.69
400.927	430.59
401.141	672.25
401.354	1518.06
401.567	651.77
401.781	164.35
401.994	803.32
402.208	1155.57
402.421	391.67
402.635	449.02
402.848	606.71
403.061	866.8
403.275	614.9
403.488	272.89
403.701	975.35
403.915	809.46
404.128	606.71
404.341	469.5
404.555	752.12
404.768	483.83
404.981	573.94
405.195	365.05
405.408	1090.03
405.621	834.04
405.834	612.85
406.048	363
406.261	1020.4
406.474	1034.74
406.687	440.83
406.9	631.29
407.114	571.9
407.327	713.21
407.54	307.71
407.753	297.47
407.966	514.55
408.179	872.95
408.392	440.83
408.605	322.04
408.819	817.65
409.032	766.45
409.245	528.89
409.458	616.95
409.671	868.85
409.884	1022.45
410.097	449.02
410.31	700.92
410.523	852.47
410.736	635.38
410.949	670.2
411.162	516.6
411.375	1135.09
411.588	1085.94
411.801	768.5
412.014	549.37
412.227	827.89
412.44	668.15
412.653	580.09
412.865	760.31
413.078	1001.97
413.291	948.72
413.504	645.62
413.717	596.47
413.93	1018.35
414.143	651.77
414.356	653.81
414.568	522.74
414.781	1077.74
414.994	907.76
415.207	772.6
415.42	764.4
415.632	1135.09
415.845	1384.94
416.058	553.46
416.271	600.57
416.483	954.87
416.696	1268.2
416.909	807.41
417.121	692.73
417.334	1151.47
417.547	1409.51
417.759	770.55
417.972	737.78
418.185	889.33
418.397	1120.75
418.61	735.73
418.823	760.31
419.035	1352.17
419.248	963.06
419.46	874.99
419.673	854.51
419.885	1135.09
420.098	1020.4
420.311	936.43
420.523	647.67
420.736	1229.29
420.948	1063.41
421.161	805.36
421.373	692.73
421.586	1096.18
421.798	924.15
422.01	696.82
422.223	1020.4
422.435	1087.98
422.648	1262.06
422.86	934.39
423.073	903.67
423.285	1384.94
423.497	782.84
423.71	840.18
423.922	911.86
424.134	1268.2
424.347	1493.48
424.559	1159.66
424.771	1245.68
424.984	1071.6
425.196	1309.16
425.408	748.02
425.621	858.61
425.833	1575.4
426.045	1501.67
426.257	973.3
426.47	1026.54
426.682	1346.03
426.894	1337.84
427.106	1006.06
427.318	1069.55
427.531	1155.57
427.743	1565.16
427.955	1090.03
428.167	1614.31
428.379	1395.18
428.591	1378.79
428.804	1356.27
429.016	1081.84
429.228	1278.44
429.44	1442.28
429.652	1307.12
429.864	1116.65
430.076	1356.27
430.288	1407.47
430.5	1298.92
430.712	1323.5
430.924	1688.04
431.136	1384.94
431.348	1161.71
431.56	1335.79
431.772	1464.81
431.984	1434.09
432.196	1278.44
432.408	1364.46
432.62	1458.67
432.832	1587.69
433.044	1597.93
433.256	1597.93
433.468	1737.19
433.679	1303.02
433.891	1290.73
434.103	1685.99
434.315	1997.28
434.527	1810.92
434.739	1608.17
434.95	1604.07
435.162	1851.88
435.374	1536.49
435.586	1487.34
435.798	1518.06
436.009	1616.36
436.221	1759.72
436.433	1532.39
436.645	1692.13
436.856	1606.12
437.068	2157.02
437.28	1567.21
437.491	1874.4
437.703	1995.23
437.915	1917.41
438.126	1661.41
438.338	1982.95
438.55	1757.67
438.761	2046.43
438.973	1661.41
439.184	1657.32
439.396	1907.17
439.608	2038.24
439.819	1589.74
440.031	1819.11
440.242	2173.41
440.454	2025.95
440.665	1872.36
440.877	1987.04
441.088	2075.1
441.3	1831.4
441.511	1620.46
441.723	1765.86
441.934	2007.52
442.146	2058.72
442.357	2021.86
442.569	2042.34
442.78	2054.62
442.991	2525.66
443.203	2128.35
443.414	1851.88
443.626	2404.83
443.837	1917.41
444.048	1821.16
444.26	1753.57
444.471	2077.15
444.682	2376.16
444.894	1798.63
445.105	1790.44
445.316	2494.94
445.528	2376.16
445.739	2101.73
445.95	2105.82
446.161	2374.11
446.373	2523.61
446.584	2154.98
446.795	1968.61
447.006	2382.3
447.217	2669.02
447.429	2064.86
447.64	1913.31
447.851	2601.43
448.062	2437.59
448.273	1987.04
448.484	2040.29
448.695	2480.6
448.907	2200.03
449.118	2265.57
449.329	2296.28
449.54	2234.85
449.751	2159.07
449.962	2171.36
450.173	2206.17
450.384	2816.47
450.595	2697.69
450.806	2314.72
451.017	2273.76
451.228	2640.34
451.439	2724.31
451.65	2380.25
451.861	2130.4
452.072	2374.11
452.283	2562.52
452.494	2546.14
452.705	2406.88
452.915	3049.94
453.126	2795.99
453.337	2382.3
453.548	2329.05
453.759	2927.06
453.97	3111.38
454.181	2802.13
454.391	2552.28
454.602	2853.33
454.813	2886.1
455.024	2746.84
455.235	2656.73
455.445	2945.49
455.656	3039.7
455.867	2798.04
456.078	2646.49
456.288	2884.05
456.499	2994.64
456.71	2617.82
456.921	2968.02
457.131	3160.53
457.342	2939.35
457.553	2841.04
457.763	2664.92
457.974	3305.93
458.184	3426.76
458.395	2904.53
458.606	2824.66
458.816	3461.58
459.027	3682.76
459.237	3195.34
459.448	2965.97
459.659	3516.87
459.869	3838.41
460.08	2857.43
460.29	3125.71
460.501	3985.86
460.711	3492.3
460.922	3168.72
461.132	3334.61
461.343	4198.85
461.553	3275.21
461.764	3416.52
461.974	3346.89
462.184	3649.99
462.395	3584.46
462.605	3439.05
462.816	3410.38
463.026	3801.54
463.236	3949
463.447	3465.68
463.657	3439.05
463.867	4110.79
464.078	3813.83
464.288	3809.73
464.498	3758.53
464.709	3865.03
464.919	3955.14
465.129	3932.61
465.339	3891.65
465.55	4354.49
465.76	4372.93
465.97	3881.41
466.18	3905.99
466.391	4512.19
466.601	4397.5
466.811	4170.18
467.021	4106.69
467.231	4438.46
467.441	4557.24
467.651	4350.4
467.862	4153.79
468.072	4694.46
468.282	5046.71
468.492	4399.55
468.702	4680.12
468.912	4825.53
469.122	5468.59
469.332	5048.75
469.542	4710.84
469.752	5138.87
469.962	5003.7
470.172	4833.72
470.382	4880.82
470.592	5462.44
470.802	5437.87
471.012	5106.1
471.222	5231.02
471.432	5683.63
471.642	5722.54
471.852	5454.25
472.062	5249.46
472.272	5501.36
472.482	5564.84
472.691	5464.49
472.901	5501.36
473.111	5849.51
473.321	6588.83
473.531	5751.21
473.741	5798.31
473.95	6310.3
474.16	6263.2
474.37	6097.31
474.58	5976.48
474.79	6818.2
474.999	6719.9
475.209	6171.04
475.419	6396.32
475.628	6558.11
475.838	6865.3
476.048	6730.14
476.258	6584.73
476.467	7256.47
476.677	6975.89
476.886	7090.58
477.096	7205.27
477.306	7037.33
477.515	7625.1
477.725	7354.77
477.935	7227.79
478.144	7776.65
478.354	7201.17
478.563	7473.55
478.773	7342.48
478.982	8124.8
479.192	8065.41
479.401	7571.85
479.611	7823.75
479.82	7924.1
480.03	8065.41
480.239	7874.95
480.449	8118.66
480.658	8622.46
480.868	8311.17
481.077	8444.29
481.287	8372.61
481.496	8708.48
481.705	9199.99
481.915	8847.74
482.124	8685.95
482.333	9034.1
482.543	9505.13
482.752	9007.48
482.961	8968.57
483.171	9421.17
483.38	9220.47
483.589	9255.28
483.799	9245.04
484.008	9507.18
484.217	9800.04
484.426	9697.64
484.636	9318.77
484.845	9867.63
485.054	9752.94
485.263	10076.52
485.472	9711.98
485.682	10459.49
485.891	10195.3
486.1	9642.35
486.309	10215.78
486.518	10506.59
486.727	10488.16
486.936	10236.26
487.146	10637.66
487.355	11045.21
487.564	10514.78
487.773	10627.42
487.982	10641.76
488.191	10682.72
488.4	10932.57
488.609	10795.36
488.818	10946.9
489.027	11938.12
489.236	11929.93
489.445	11297.11
489.654	11067.74
489.863	11845.96
490.072	11602.25
490.281	11860.3
490.49	11518.29
490.698	12362.05
490.907	12040.52
491.116	12034.38
491.325	11815.24
491.534	12386.63
491.743	12269.89
491.952	12099.91
492.16	12110.15
492.369	12214.6
492.578	12783.93
492.787	12425.54
492.996	12300.61
493.204	12646.72
493.413	13359.41
493.622	12409.15
493.831	12482.88
494.039	13375.8
494.248	12634.43
494.457	12540.22
494.665	12716.35
494.874	13414.71
495.083	13691.18
495.291	12976.44
495.5	13242.68
495.709	13623.6
495.917	13525.3
496.126	13250.87
496.335	13449.52
496.543	13553.97
496.752	13816.11
496.96	13875.5
497.169	13560.11
497.377	13961.51
497.586	14561.57
497.794	14025
498.003	13672.75
498.211	14321.96
498.42	14557.47
498.628	13918.51
498.837	14025
499.045	14614.82
499.254	14530.85
499.462	14342.44
499.671	14573.86
499.879	14969.12
500.087	14850.33
500.296	14498.08
500.504	14483.75
500.713	15198.49
500.921	15419.67
501.129	14647.58
501.338	14749.98
501.546	15407.38
501.754	15169.82
501.962	15249.69
502.171	15198.49
502.379	15587.6
502.587	16118.03
502.795	15542.55
503.004	15048.99
503.212	15411.48
503.42	15917.33
503.628	15741.2
503.837	15626.51
504.045	16111.88
504.253	16408.84
504.461	15696.14
504.669	15485.2
504.877	16183.56
505.085	16285.96
505.294	16009.48
505.502	16156.94
505.71	16277.77
505.918	16275.72
506.126	15974.67
506.334	15819.02
506.542	16427.27
506.75	16584.96
506.958	16681.22
507.166	16556.29
507.374	16576.77
507.582	17086.72
507.79	16701.7
507.998	16361.73
508.206	17076.48
508.414	17019.13
508.622	16707.84
508.83	16769.28
509.037	17395.96
509.245	16945.41
509.453	16900.35
509.661	16785.66
509.869	17471.73
510.077	17045.76
510.285	17166.59
510.492	16888.06
510.7	18163.95
510.908	17228.03
511.116	17178.87
511.324	17125.63
511.531	17586.42
511.739	17572.08
511.947	17467.64
512.155	17889.52
512.362	17905.9
512.57	17754.35
512.778	17479.93
512.985	17567.99
513.193	18094.32
513.401	18567.4
513.608	17807.6
513.816	18014.45
514.024	17932.53
514.231	18465
514.439	17813.74
514.646	18157.8
514.854	18827.49
515.061	18706.66
515.269	18198.76
515.477	17903.85
515.684	18213.1
515.892	18610.4
516.099	17981.68
516.307	18057.45
516.514	18866.4
516.722	19177.69
516.929	18499.81
517.136	18548.96
517.344	19067.1
517.551	18780.39
517.759	18643.17
517.966	18737.38
518.173	18700.51
518.381	19198.17
518.588	19017.95
518.796	18946.27
519.003	19652.82
519.21	19480.79
519.418	19173.6
519.625	19384.54
519.832	19560.66
520.039	19558.61
520.247	19255.51
520.454	19273.95
520.661	20060.37
520.868	19806.42
521.076	19562.71
521.283	19501.27
521.49	20117.71
521.697	20052.17
521.904	19761.36
522.112	19865.81
522.319	20111.57
522.526	20031.69
522.733	19830.99
522.94	19955.92
523.147	20400.33
523.354	20265.16
523.561	20013.26
523.768	20058.32
523.975	20957.38
524.183	20607.17
524.39	20394.18
524.597	20484.3
524.804	20613.32
525.011	20359.37
525.218	20515.01
525.425	20818.11
525.632	21313.72
525.838	21168.32
526.045	20512.97
526.252	20777.15
526.459	22235.31
526.666	21907.63
526.873	20961.47
527.08	20969.66
527.287	21795
527.494	21270.72
527.701	21438.65
527.907	20777.15
528.114	21457.08
528.321	21463.22
528.528	21508.28
528.735	21590.2
528.941	21508.28
529.148	21100.73
529.355	21518.52
529.562	21076.16
529.768	22071.47
529.975	21184.7
530.182	21498.04
530.388	21354.68
530.595	22540.46
530.802	21680.31
531.008	21944.5
531.215	22317.23
531.422	22880.42
531.628	23107.74
531.835	22114.48
532.042	22370.47
532.248	22374.57
532.455	22798.5
532.661	22190.25
532.868	21954.74
533.074	22874.27
533.281	22847.65
533.487	22405.29
533.694	22481.06
533.9	22720.68
534.107	23120.03
534.313	22679.72
534.52	22995.11
534.726	23623.83
534.933	23517.34
535.139	22999.2
535.345	23083.17
535.552	23257.25
535.758	23470.23
535.965	23416.99
536.171	23023.78
536.377	23724.18
536.584	23908.5
536.79	23257.25
536.996	23677.08
537.203	23599.26
537.409	23955.6
537.615	23343.26
537.821	23576.73
538.028	24211.6
538.234	24072.34
538.44	23916.69
538.646	24008.85
538.853	24410.25
539.059	23910.55
539.265	24565.9
539.471	23883.92
539.677	24381.58
539.883	24625.29
540.09	24043.67
540.296	24793.22
540.502	24619.14
540.708	24569.99
540.914	24662.15
541.12	24391.82
541.326	24940.68
541.532	25192.58
541.738	24866.95
541.944	24729.73
542.15	25260.16
542.356	24858.76
542.562	25043.07
542.768	24686.73
542.974	25645.18
543.18	25481.34
543.386	25229.44
543.592	25170.05
543.798	25682.04
544.004	25790.58
544.21	25565.31
544.415	25393.28
544.621	26013.81
544.827	25675.9
545.033	25446.52
545.239	25727.1
545.445	25651.32
545.651	26011.76
545.856	25641.08
546.062	26163.31
546.268	26073.2
546.474	26085.49
546.679	25780.34
546.885	25835.64
547.091	26163.31
547.297	26787.94
547.502	26034.29
547.708	25632.89
547.914	25976.95
548.119	26460.27
548.325	25618.55
548.531	25688.18
548.736	26511.47
548.942	25991.28
549.147	26013.81
549.353	26687.59
549.559	26759.27
549.764	26603.63
549.97	26396.78
550.175	26493.04
550.381	26830.95
550.586	26329.2
550.792	26398.83
550.997	26677.35
551.203	26839.14
551.408	27209.82
551.614	26398.83
551.819	26792.04
552.025	27568.22
552.23	27977.81
552.435	27041.89
552.641	27711.58
552.846	27474.01
553.052	28035.16
553.257	27596.89
553.462	27406.43
553.668	27306.08
553.873	27816.02
554.078	27613.27
554.283	27709.53
554.489	27908.18
554.694	28020.82
554.899	27574.36
555.105	28039.25
555.31	27983.96
555.515	28477.52
555.72	28377.17
555.925	27736.15
556.131	28573.77
556.336	28198.99
556.541	28239.95
556.746	28174.42
556.951	28459.09
557.156	28483.66
557.361	28395.6
557.567	28545.1
557.772	28911.69
557.977	28774.47
558.182	28205.14
558.387	28403.79
558.592	28553.29
558.797	29081.67
559.002	28651.59
559.207	28876.87
559.412	28760.14
559.617	29298.75
559.822	28860.49
560.027	28254.29
560.232	28930.12
560.437	28733.51
560.642	28506.19
560.847	28872.78
561.051	29182.02
561.256	29044.8
561.461	28964.93
561.666	28973.13
561.871	29296.7
562.076	29423.68
562.281	29057.09
562.485	28459.09
562.69	29337.66
562.895	29427.77
563.1	28860.49
563.305	28880.97
563.509	29605.95
563.714	29962.29
563.919	29362.24
564.123	29349.95
564.328	29761.59
564.533	29847.61
564.737	29220.93
564.942	29542.46
565.147	30298.16
565.351	30310.45
565.556	29845.56
565.761	29589.56
565.965	29823.03
566.17	29573.18
566.374	29444.16
566.579	29800.51
566.784	29816.89
566.988	29841.46
567.193	29833.27
567.397	30171.19
567.602	29696.06
567.806	30060.6
568.011	29921.34
568.215	30144.56
568.42	30224.43
568.624	30629.93
568.828	29820.98
569.033	30378.03
569.237	30353.46
569.442	30638.12
569.646	30195.76
569.85	30425.14
570.055	30658.6
570.259	30414.9
570.463	30595.12
570.668	30402.61
570.872	30664.75
571.076	31096.87
571.281	30969.9
571.485	30613.55
571.689	30971.94
571.893	31377.44
572.098	31330.34
572.302	30930.98
572.506	31346.72
572.71	30947.37
572.914	30769.19
573.119	31203.36
573.323	31854.62
573.527	31328.29
573.731	30933.03
573.935	30980.14
574.139	31647.77
574.343	30996.52
574.547	31148.07
574.751	31690.78
574.955	32045.08
575.159	31971.35
575.364	30916.65
575.568	31379.49
575.772	31598.62
575.976	32157.72
576.18	31414.3
576.383	31811.61
576.587	32190.48
576.791	31989.78
576.995	31660.06
577.199	31580.19
577.403	32577.55
577.607	32563.22
577.811	31871
578.015	32069.65
578.219	32339.99
578.422	32182.29
578.626	32180.24
578.83	32493.58
579.034	32632.85
579.238	32497.68
579.442	31989.78
579.645	32407.57
579.849	32567.31
580.053	32612.37
580.257	32081.94
580.46	32735.24
580.664	32899.08
580.868	32628.75
581.071	32811.02
581.275	32694.29
581.479	32294.93
581.682	33028.1
581.886	32575.5
582.09	32851.98
582.293	33435.65
582.497	33107.97
582.7	33007.62
582.904	33243.14
583.107	33142.79
583.311	33214.47
583.515	33120.26
583.718	33265.67
583.922	33335.3
584.125	34099.19
584.329	33089.54
584.532	33429.51
584.735	33742.85
584.939	33220.61
585.142	33120.26
585.346	33073.16
585.549	33624.06
585.753	33505.28
585.956	34047.99
586.159	33816.57
586.363	34414.58
586.566	34244.6
586.769	33419.27
586.973	33687.55
587.176	34312.18
587.379	34578.42
587.582	33796.09
587.786	34088.95
587.989	34068.47
588.192	34865.13
588.395	34134.01
588.599	34547.7
588.802	34422.77
589.005	34439.15
589.208	34478.07
589.411	34293.75
589.615	34506.74
589.818	35215.33
590.021	34742.25
590.224	34672.62
590.427	34793.45
590.63	34754.54
590.833	34349.04
591.036	34891.76
591.239	34897.9
591.442	34838.51
591.645	34983.91
591.848	34770.93
592.051	35426.28
592.254	35129.32
592.457	34838.51
592.66	35198.95
592.863	35577.83
593.066	35758.05
593.269	35049.45
593.472	35301.35
593.675	35768.29
593.878	35721.18
594.081	35190.76
594.284	35194.85
594.486	36061.15
594.689	36007.9
594.892	35416.04
595.095	35301.35
595.298	36067.29
595.5	35975.13
595.703	36028.38
595.906	35971.04
596.109	36057.05
596.311	36483.03
596.514	35465.19
596.717	35977.18
596.92	36614.1
597.122	36259.8
597.325	35465.19
597.528	35991.51
597.73	36683.73
597.933	36460.5
598.136	36397.01
598.338	35549.15
598.541	36945.87
598.743	36984.78
598.946	36198.36
599.148	36005.85
599.351	36804.56
599.554	37003.21
599.756	36401.11
599.959	36814.8
600.161	36812.75
600.363	37103.56
600.566	36358.1
600.768	36591.57
600.971	37380.04
601.173	36802.51
601.376	36618.19
601.578	36710.35
601.78	37281.74
601.983	37361.61
602.185	36956.11
602.388	36759.5
602.59	37437.38
602.792	36974.54
602.995	37015.5
603.197	36718.54
603.399	37879.74
603.601	37208.01
603.804	36765.65
604.006	36929.48
604.208	37240.78
604.41	37230.54
604.613	37455.81
604.815	36837.33
605.017	38141.88
605.219	36866
605.421	37144.52
605.623	37371.85
605.826	38172.6
606.028	38019
606.23	37054.41
606.432	37326.79
606.634	38014.91
606.836	38268.86
607.038	37500.87
607.24	37388.23
607.442	37599.17
607.644	37980.09
607.846	37836.73
608.048	37273.54
608.25	37828.54
608.452	37722.05
608.654	37922.75
608.856	37136.33
609.058	37812.16
609.26	38068.16
609.462	37859.26
609.664	37814.21
609.866	37836.73
610.067	38256.57
610.269	37310.41
610.471	37550.02
610.673	38002.62
610.875	38338.49
611.077	37617.6
611.278	37543.88
611.48	38174.65
611.682	38438.84
611.884	38209.46
612.085	37461.96
612.287	37605.31
612.489	38315.96
612.69	37568.45
612.892	38031.29
613.094	38432.69
613.295	37795.78
613.497	37550.02
613.699	38098.87
613.9	38836.14
614.102	38522.8
614.304	37683.14
614.505	37756.86
614.707	38160.31
614.908	37930.94
615.11	37949.37
615.311	38340.53
615.513	38633.39
615.714	38377.4
615.916	37869.5
616.117	38006.72
616.319	38430.65
616.52	38320.06
616.722	38238.14
616.923	38401.97
617.124	38750.13
617.326	38473.65
617.527	38113.21
617.729	38299.58
617.93	38598.58
618.131	38361.01
618.333	38062.01
618.534	38647.73
618.735	38528.95
618.937	39110.57
619.138	37996.48
619.339	38086.59
619.54	38578.1
619.742	38399.93
619.943	38414.26
620.144	38387.64
620.345	38537.14
620.546	38809.52
620.748	38621.11
620.949	38086.59
621.15	38684.59
621.351	38848.43
621.552	38279.1
621.753	37994.43
621.954	38279.1
622.155	38756.27
622.356	38332.34
622.558	38637.49
622.759	38299.58
622.96	39014.32
623.161	38590.39
623.362	38291.38
623.563	38684.59
623.764	38453.17
623.965	38266.81
624.166	38660.02
624.366	38682.55
624.567	38967.21
624.768	38600.63
624.969	38649.78
625.17	38127.55
625.371	38858.67
625.572	38100.92
625.773	38436.79
625.973	39059.37
626.174	38903.73
626.375	38533.04
626.576	39053.23
626.777	38889.39
626.977	39208.87
627.178	38922.16
627.379	38809.52
627.58	39122.86
627.78	38918.06
627.981	38938.54
628.182	39020.46
628.382	39249.83
628.583	38602.67
628.784	38936.49
628.984	38903.73
629.185	39231.4
629.386	38985.65
629.586	39292.84
629.787	38832.05
629.987	39430.05
630.188	39622.56
630.388	39098.28
630.589	38948.78
630.79	39790.5
630.99	39155.63
631.191	39370.66
631.391	39270.31
631.591	39321.51
631.792	39837.6
631.992	39552.93
632.193	39782.3
632.393	39837.6
632.594	39086
632.794	39288.74
632.994	39514.02
633.195	39393.19
633.395	39421.86
633.595	39088.04
633.796	39636.9
633.996	39405.48
634.196	39491.49
634.397	39581.6
634.597	39432.1
634.797	39833.5
634.997	39892.9
635.198	39864.22
635.398	39485.35
635.598	39841.7
635.798	40171.42
635.998	39542.69
636.199	39145.39
636.399	39632.8
636.599	39284.65
636.799	39184.3
636.999	39880.61
637.199	40206.23
637.399	40316.82
637.599	39937.95
637.799	39776.16
637.999	40261.53
638.199	40548.25
638.399	39722.91
638.599	39749.54
638.799	40404.89
638.999	40822.67
639.199	40189.85
639.399	39952.29
639.599	40871.82
639.799	39882.66
639.999	40179.61
640.199	39853.98
640.399	40075.16
640.599	39587.75
640.799	40611.73
640.998	40619.92
641.198	40730.51
641.398	40103.84
641.598	40599.44
641.798	40419.22
641.997	40898.45
642.197	40247.19
642.397	40021.92
642.597	40212.38
642.796	40486.81
642.996	41082.77
643.196	40451.99
643.395	39995.29
643.595	40458.13
643.795	39956.38
643.994	40382.36
644.194	40048.54
644.394	40529.81
644.593	40458.13
644.793	40619.92
644.992	40681.36
645.192	40660.88
645.392	40361.88
645.591	40894.35
645.791	40714.13
645.99	40861.58
646.19	40794
646.389	40697.75
646.589	40722.32
646.788	40818.58
646.987	40910.74
647.187	40851.34
647.386	40703.89
647.586	41181.07
647.785	40867.73
647.984	40646.55
648.184	41248.65
648.383	40681.36
648.582	41271.18
648.782	40746.9
648.981	40671.12
649.18	40552.34
649.38	41506.69
649.579	41140.11
649.778	40796.05
649.977	41987.97
650.177	41297.8
650.376	40746.9
650.575	40726.42
650.774	41598.85
650.973	41076.62
651.173	40380.31
651.372	41068.43
651.571	41133.96
651.77	41422.73
651.969	41387.91
652.168	41217.93
652.367	41346.95
652.566	41357.19
652.765	40671.12
652.964	41258.89
653.163	41518.98
653.362	41076.62
653.561	41109.39
653.76	41197.45
653.959	41357.19
654.158	42039.17
654.357	41652.1
654.556	41152.4
654.755	41766.79
654.954	41856.9
655.153	41289.61
655.352	41594.76
655.551	42196.86
655.749	41545.61
655.948	41525.13
656.147	41357.19
656.346	42076.03
656.545	41052.05
656.743	41181.07
656.942	41568.13
657.141	41797.51
657.34	41570.18
657.538	41297.8
657.737	41363.34
657.936	41660.29
658.135	41559.94
658.333	41066.38
658.532	41926.53
658.731	42033.02
658.929	41883.52
659.128	41426.82
659.326	41772.93
659.525	42491.77
659.724	41721.73
659.922	41082.77
660.121	41406.34
660.319	41961.34
660.518	41766.79
660.716	41279.37
660.915	41426.82
661.113	42448.76
661.312	41541.51
661.51	41328.52
661.709	41789.31
661.907	42235.77
662.105	42145.66
662.304	41447.3
662.502	42237.82
662.701	42207.1
662.899	42219.39
663.097	42286.97
663.296	41328.52
663.494	42379.13
663.692	42276.73
663.891	41598.85
664.089	41678.72
664.287	41912.19
664.485	42076.03
664.684	41725.83
664.882	41906.05
665.08	41721.73
665.278	42260.35
665.476	41447.3
665.675	41584.52
665.873	41961.34
666.071	42012.54
666.269	42082.17
666.467	41795.46
666.665	42237.82
666.863	41369.48
667.061	42137.47
667.259	41553.8
667.457	42116.99
667.655	42045.31
667.853	41369.48
668.051	41437.06
668.249	41494.41
668.447	41746.31
668.645	41398.15
668.843	41979.78
669.041	41963.39
669.239	41756.55
669.437	41963.39
669.635	42012.54
669.833	41627.52
670.031	42237.82
670.229	41301.9
670.426	41924.48
670.624	41754.5
670.822	41418.63
671.02	41658.24
671.218	41836.42
671.415	41770.88
671.613	41762.69
671.811	41709.44
672.009	41533.32
672.206	42243.96
672.404	41686.92
672.602	41869.19
672.799	41779.07
672.997	41996.16
673.195	41981.82
673.392	41768.83
673.59	41404.3
673.788	41791.36
673.985	41260.94
674.183	41596.81
674.38	41953.15
674.578	42030.97
674.775	41398.15
674.973	41103.24
675.17	41543.56
675.368	41934.72
675.565	41607.05
675.763	41400.2
675.96	41164.68
676.158	42135.42
676.355	41488.26
676.553	41369.48
676.75	41619.33
676.947	41826.18
677.145	41305.99
677.342	41523.08
677.539	41127.82
677.737	41496.45
677.934	41801.6
678.131	41062.29
678.329	41219.98
678.526	41807.75
678.723	41748.35
678.92	41389.96
679.118	41389.96
679.315	41398.15
679.512	41641.86
679.709	41396.1
679.906	41166.73
680.104	41498.5
680.301	41244.55
680.498	40642.45
680.695	41017.23
680.892	41043.85
681.089	41076.62
681.286	41107.34
681.483	40548.25
681.68	41369.48
681.877	41578.37
682.075	40800.15
682.272	40570.77
682.469	41093
682.665	40816.53
682.862	40527.77
683.059	40716.18
683.256	41029.52
683.453	40916.88
683.65	40882.06
683.847	41043.85
684.044	40550.29
684.241	40415.13
684.438	41244.55
684.635	40398.74
684.831	41127.82
685.028	41508.74
685.225	40421.27
685.422	40421.27
685.619	40808.34
685.815	40925.07
686.012	40621.97
686.209	40433.56
686.405	40247.19
686.602	40947.6
686.799	39847.84
686.996	40847.25
687.192	40212.38
687.389	40955.79
687.586	39868.32
687.782	40212.38
687.979	40728.47
688.175	40591.25
688.372	40353.69
688.568	40333.21
688.765	40382.36
688.962	40693.65
689.158	40066.97
689.355	39995.29
689.551	40234.91
689.748	40191.9
689.944	39856.03
690.14	39651.23
690.337	40177.56
690.533	40114.08
690.73	39741.35
690.926	40619.92
691.123	39989.15
691.319	40069.02
691.515	40181.66
691.712	39827.36
691.908	40300.44
692.104	40298.39
692.301	40118.17
692.497	39618.47
692.693	40222.62
692.889	40148.89
693.086	39950.24
693.282	39759.78
693.478	40306.58
693.674	40017.82
693.87	39675.81
694.067	39937.95
694.263	40159.13
694.459	39808.93
694.655	40021.92
694.851	40015.77
695.047	39571.36
695.243	39825.31
695.439	39632.8
695.635	39452.58
695.831	39794.59
696.027	39436.2
696.224	39428.01
696.42	39944.09
696.615	40257.43
696.811	39849.89
697.007	39323.56
697.203	39374.76
697.399	39546.79
697.595	39591.84
697.791	39233.45
697.987	39258.02
698.183	39096.24
698.379	39063.47
698.575	39587.75
698.77	38983.6
698.966	39528.36
699.162	39610.28
699.358	38873.01
699.554	39073.71
699.749	39604.13
699.945	39423.91
700.141	38991.79
700.337	38995.88
700.532	39051.18
700.728	39057.32
700.924	38903.73
701.119	38789.04
701.315	38840.24
701.511	38428.6
701.706	39354.28
701.902	38543.28
702.097	38891.44
702.293	39061.42
702.489	38627.25
702.684	39126.95
702.88	39176.11
703.075	38383.54
703.271	38526.9
703.466	38633.39
703.662	38608.82
703.857	39366.57
704.053	38961.07
704.248	38469.56
704.443	39002.03
704.639	39094.19
704.834	39137.19
705.03	38756.27
705.225	38582.2
705.42	38502.32
705.616	38662.07
705.811	38461.37
706.006	38694.83
706.202	38766.51
706.397	37881.79
706.592	38350.77
706.787	38500.28
706.983	38561.72
707.178	38756.27
707.373	38125.5
707.568	38703.03
707.763	38897.58
707.959	38320.06
708.154	38047.68
708.349	38471.6
708.544	38727.6
708.739	38477.75
708.934	37844.93
709.129	38539.19
709.324	38641.59
709.519	38494.13
709.714	38092.73
709.909	38782.9
710.104	38231.99
710.299	38385.59
710.494	38141.88
710.689	38080.44
710.884	38193.08
711.079	38338.49
711.274	38254.52
711.469	38533.04
711.664	37943.23
711.859	37959.61
712.054	38473.65
712.249	38121.4
712.443	38229.94
712.638	37967.8
712.833	37654.47
713.028	38086.59
713.223	38170.55
713.417	38139.83
713.612	37633.99
713.807	38205.37
714.002	38524.85
714.196	37959.61
714.391	37693.38
714.586	38451.13
714.78	37511.11
714.975	37480.39
715.17	37060.55
715.364	37543.88
715.559	38100.92
715.754	37183.43
715.948	37324.74
716.143	37924.8
716.337	37375.94
716.532	37902.27
716.726	37720
716.921	37674.95
717.115	37992.38
717.31	37144.52
717.504	37615.55
717.699	37474.24
717.893	37578.69
718.088	37001.16
718.282	36954.06
718.476	37175.24
718.671	37525.44
718.865	37275.59
719.059	37072.84
719.254	37248.97
719.448	37367.75
719.642	38371.25
719.837	36304.85
720.031	37019.6
720.225	37359.56
720.419	36521.94
720.614	36607.95
720.808	37195.72
721.002	37015.5
721.196	36745.17
721.39	36466.64
721.585	37203.91
721.779	36872.14
721.973	36714.45
722.167	36417.49
722.361	36478.93
722.555	37232.58
722.749	36390.87
722.943	36882.38
723.137	35987.42
723.331	36818.89
723.525	36440.02
723.719	36077.53
723.913	36444.12
724.107	36679.63
724.301	36241.37
724.495	36147.16
724.689	36528.08
724.883	36773.84
725.077	36214.74
725.271	36446.16
725.465	36655.06
725.659	36470.74
725.853	36425.68
726.046	36296.66
726.24	35833.82
726.434	36407.25
726.628	35835.87
726.822	36237.27
727.015	37029.83
727.209	36382.68
727.403	35919.84
727.596	36255.7
727.79	36403.16
727.984	36483.03
728.177	36052.95
728.371	36141.02
728.565	36380.63
728.758	36386.77
728.952	36274.13
729.146	35923.93
729.339	36904.91
729.533	36698.06
729.726	36300.76
729.92	36562.9
730.113	36964.3
730.307	36583.38
730.5	36030.43
730.694	36239.32
730.887	35758.05
731.081	36460.5
731.274	36153.3
731.468	36313.05
731.661	36255.7
731.854	36454.36
732.048	36233.18
732.241	36495.32
732.435	36280.28
732.628	36284.37
732.821	36321.24
733.014	36079.58
733.208	35874.78
733.401	36550.61
733.594	35962.84
733.788	35807.2
733.981	36290.52
734.174	36067.29
734.367	35717.09
734.56	36104.15
734.754	36046.81
734.947	36167.64
735.14	36239.32
735.333	36380.63
735.526	36538.32
735.719	35803.1
735.912	36143.06
736.105	36122.58
736.298	36073.43
736.491	36026.33
736.684	35819.49
736.877	35518.43
737.07	35971.04
737.263	36311
737.456	35676.13
737.649	35831.77
737.842	35807.2
738.035	35934.17
738.228	35682.27
738.421	35586.02
738.614	36122.58
738.807	35946.46
739	34719.73
739.192	35336.16
739.385	35665.89
739.578	35827.68
739.771	35516.39
739.964	35485.67
740.156	35571.68
740.349	35559.39
740.542	35897.31
740.735	35084.26
740.927	35479.52
741.12	35391.46
741.313	35452.9
741.505	36063.19
741.698	35815.39
741.891	35588.06
742.083	35280.87
742.276	35438.56
742.468	35612.64
742.661	35430.37
742.854	35266.53
743.046	35344.36
743.239	35880.92
743.431	35784.67
743.624	35278.82
743.816	34934.76
744.009	35332.07
744.201	35534.82
744.393	35106.79
744.586	34521.07
744.778	35450.85
744.971	35117.03
745.163	34842.6
745.355	35209.19
745.548	35024.87
745.74	34844.65
745.932	35139.56
746.125	35463.14
746.317	35794.91
746.509	35176.42
746.702	35096.55
746.894	34932.71
747.086	35002.35
747.278	35366.88
747.471	35299.3
747.663	34938.86
747.855	35506.15
748.047	35573.73
748.239	35061.74
748.431	35010.54
748.623	34957.29
748.815	35416.04
749.008	34928.62
749.2	34732.01
749.392	35151.85
749.584	35188.71
749.776	34920.43
749.968	34600.94
750.16	35299.3
750.352	34910.19
750.544	34371.57
750.736	34347
750.928	35110.89
751.12	34885.61
751.311	34390
751.503	35051.5
751.695	34899.95
751.887	34297.84
752.079	34463.73
752.271	34473.97
752.463	35336.16
752.654	35047.4
752.846	34453.49
753.038	34332.66
753.23	34234.36
753.421	34902
753.613	34189.3
753.805	34750.45
753.997	34559.98
754.188	34379.76
754.38	33841.15
754.572	34166.77
754.763	34437.11
754.955	34420.72
755.146	34187.25
755.338	33951.74
755.53	34443.25
755.721	34254.84
755.913	33890.3
756.104	33726.46
756.296	34320.37
756.487	34039.8
756.679	33832.96
756.87	33675.26
757.062	33243.14
757.253	34260.98
757.445	33789.95
757.636	33757.18
757.827	33701.89
758.019	34615.28
758.21	33587.2
758.401	33558.53
758.593	34136.06
758.784	33902.59
758.975	33146.89
759.167	33298.44
759.358	33923.07
759.549	33882.11
759.74	33005.58
759.932	33452.03
760.123	33634.3
760.314	33370.11
760.505	32978.95
760.696	32647.18
760.888	33675.26
761.079	33120.26
761.27	32909.32
761.461	32901.13
761.652	33607.68
761.843	32806.92
762.034	32839.69
762.225	32845.83
762.416	32817.16
762.607	32763.92
762.798	32972.81
762.989	32528.4
763.18	33771.52
763.371	32772.11
763.562	32581.65
763.753	32563.22
763.944	33009.67
764.135	32786.44
764.326	32620.56
764.517	32227.35
764.708	32897.03
764.899	33095.69
765.089	32374.8
765.28	32411.67
765.471	32514.06
765.662	32270.36
765.853	32227.35
766.043	31600.67
766.234	32167.96
766.425	32272.4
766.615	32083.99
766.806	32016.41
766.997	32491.54
767.187	31784.99
767.378	31954.97
767.569	31533.09
767.759	32081.94
767.95	32442.38
768.141	32114.71
768.331	31846.43
768.522	31928.34
768.712	32049.17
768.903	31991.83
769.093	31633.44
769.284	31942.68
769.474	31643.68
769.665	30898.22
769.855	31072.29
770.046	31875.1
770.236	31320.1
770.426	31369.25
770.617	31381.54
770.807	31389.73
770.998	31610.91
771.188	31322.15
771.378	31201.32
771.569	31563.81
771.759	31623.2
771.949	30595.12
772.139	31203.36
772.33	31051.81
772.52	31338.53
772.71	30941.22
772.9	30619.69
773.09	31440.93
773.281	31414.3
773.471	30728.24
773.661	30838.83
773.851	31098.92
774.041	30967.85
774.231	30476.33
774.421	30400.56
774.611	30842.92
774.802	30509.1
774.992	30257.2
775.182	30263.35
775.372	30408.75
775.562	30949.42
775.752	30212.15
775.942	30099.51
776.131	30724.14
776.321	30079.03
776.511	30060.6
776.701	30054.45
776.891	30615.6
777.081	29757.5
777.271	29802.55
777.461	29874.23
777.651	30076.98
777.84	29919.29
778.03	29722.68
778.22	29863.99
778.41	30117.94
778.599	29419.58
778.789	29855.8
778.979	29610.04
779.169	29941.82
779.358	29837.37
779.548	29919.29
779.738	28999.75
779.927	29417.54
780.117	29493.31
780.307	29292.61
780.496	28926.02
780.686	29409.34
780.875	29734.97
781.065	29290.56
781.254	29102.15
781.444	29560.89
781.633	29311.04
781.823	28856.39
782.012	28803.14
782.202	28944.45
782.391	28977.22
782.581	28737.61
782.77	29081.67
782.96	29646.91
783.149	28381.26
783.338	28874.82
783.528	28481.61
783.717	29141.06
783.906	29360.19
784.096	28745.8
784.285	28444.75
784.474	28633.16
784.663	28178.51
784.853	28393.55
785.042	28401.74
785.231	28825.67
785.42	28958.79
785.61	28680.27
785.799	28391.5
785.988	28334.16
786.177	28504.14
786.366	28303.44
786.555	28573.77
786.744	28452.94
786.933	28137.55
787.122	28082.26
787.312	27787.35
787.501	28260.43
787.69	28196.95
787.879	27910.23
788.068	27822.17
788.257	27445.34
788.445	27537.5
788.634	28143.7
788.823	27803.74
789.012	28768.33
789.201	28147.79
789.39	27431.01
789.579	27181.15
789.768	27691.1
789.957	27871.32
790.145	27435.1
790.334	27301.98
790.523	27990.1
790.712	27654.23
790.9	27693.15
791.089	27224.16
791.278	28115.03
791.467	27656.28
791.655	27897.94
791.844	27924.57
792.033	27111.52
792.221	27390.05
792.41	27258.98
792.599	27082.85
792.787	27822.17
792.976	27576.41
793.164	26992.74
793.353	26955.88
793.541	27926.61
793.73	27639.9
793.918	27129.95
794.107	26591.34
794.295	27164.77
794.484	27373.66
794.672	26919.01
794.861	26687.59
795.049	27154.53
795.238	27254.88
795.426	26777.7
795.614	26560.62
795.803	27050.08
795.991	27048.04
796.179	26740.84
796.368	26515.56
796.556	26898.53
796.744	26501.23
796.932	26945.64
797.121	26466.41
797.309	26892.39
797.497	26814.57
797.685	26706.02
797.874	26310.77
798.062	26613.87
798.25	27117.67
798.438	26620.01
798.626	26376.3
798.814	26822.76
799.002	27441.25
799.19	26540.14
799.378	26425.45
799.566	26816.61
799.755	26728.55
799.943	26347.63
800.131	26617.96
800.318	26656.87
800.506	26890.34
800.694	26257.52
800.882	26372.21
801.07	26937.44
801.258	26714.22
801.446	26286.19
801.634	26239.09
801.822	26302.57
802.01	26771.56
802.197	26376.3
802.385	26830.95
802.573	26628.2
802.761	26370.16
802.949	26304.62
803.136	26505.32
803.324	26972.26
803.512	26630.25
803.699	26566.76
803.887	26159.22
804.075	27166.82
804.262	26370.16
804.45	26384.49
804.638	26464.36
804.825	26787.94
805.013	26591.34
805.201	26900.58
805.388	26462.32
805.576	26896.49
805.763	27633.75
805.951	26536.04
806.138	26941.54
806.326	27142.24
806.513	27226.21
806.701	27037.8
806.888	26726.5
807.075	27435.1
807.263	27275.36
807.45	26437.74
807.638	27072.61
807.825	27408.48
808.012	26787.94
808.2	26892.39
808.387	27111.52
808.574	27127.91
808.761	27555.93
808.949	26603.63
809.136	27361.37
809.323	26931.3
809.51	27011.17
809.698	27201.63
809.885	26957.92
810.072	27117.67
810.259	27676.76
810.446	26923.11
810.633	26624.11
810.82	27580.51
811.008	27514.97
811.195	27543.64
811.382	27281.5
811.569	27236.45
811.756	26783.85
811.943	27172.96
812.13	26876.01
812.317	27463.77
812.504	27392.09
812.691	27338.85
812.878	27082.85
813.064	27525.21
813.251	27459.68
813.438	26931.3
813.625	26812.52
813.812	26900.58
813.999	27101.28
814.186	27082.85
814.372	27363.42
814.559	27256.93
814.746	27123.81
814.933	26996.84
815.12	27287.65
815.306	27054.18
815.493	27000.93
815.68	27091.04
815.866	26998.88
816.053	27603.03
816.24	27453.53
816.426	26937.44
816.613	27013.22
816.799	27619.42
816.986	27344.99
817.173	26798.18
817.359	26708.07
817.546	26648.68
817.732	26814.57
817.919	26628.2
818.105	26779.75
818.292	27066.47
818.478	27146.34
818.665	26783.85
818.851	27088.99
819.037	27385.95
819.224	27097.19
819.41	26749.03
819.597	26429.55
819.783	27242.59
819.969	26943.59
820.156	26947.68
820.342	26660.97
820.528	27652.19
820.714	26640.49
820.901	26939.49
821.087	26833
821.273	27342.94
821.459	26423.4
821.646	26427.5
821.832	26394.73
822.018	26835.05
822.204	26648.68
822.39	26462.32
822.576	26343.53
822.762	26658.92
822.948	26366.06
823.134	26513.52
823.32	26056.82
823.507	26050.67
823.693	26437.74
823.879	26538.09
824.065	26251.38
824.25	26243.18
824.436	26376.3
824.622	26173.55
824.808	26361.97
824.994	26306.67
825.18	25675.9
825.366	25979
825.552	26005.62
825.738	26085.49
825.923	26345.58
826.109	26294.38
826.295	25745.53
826.481	26007.67
826.667	26028.15
826.852	25899.12
827.038	25679.99
827.224	26210.42
827.409	26073.2
827.595	25417.85
827.781	25688.18
827.966	25991.28
828.152	26062.96
828.338	25604.22
828.523	25450.62
828.709	25659.51
828.894	26048.63
829.08	25761.91
829.266	25489.53
829.451	25632.89
829.637	25950.32
829.822	25489.53
830.008	25471.1
830.193	25374.84
830.378	25643.13
830.564	25223.3
830.749	25133.18
830.935	25491.58
831.12	25573.5
831.305	25069.7
831.491	25067.65
831.676	25061.51
831.861	25493.63
832.047	25290.88
832.232	24922.24
832.417	25585.79
832.602	25045.12
832.788	24952.96
832.973	25100.42
833.158	25124.99
833.343	25010.31
833.528	24914.05
833.714	24862.85
833.899	25280.64
834.084	25170.05
834.269	24930.44
834.454	24737.93
834.639	24803.46
834.824	25090.18
835.009	24858.76
835.194	24690.82
835.379	25100.42
835.564	24981.63
835.749	24922.24
835.934	23834.77
836.119	25045.12
836.304	24592.52
836.489	24555.66
836.674	24252.56
836.859	24084.62
837.044	24674.44
837.228	24522.89
837.413	24443.02
837.598	24840.32
837.783	24469.64
837.968	24307.85
838.152	23810.2
838.337	24113.3
838.522	24891.52
838.707	24711.3
838.891	24166.54
839.076	24375.44
839.261	24766.6
839.445	24103.06
839.63	23859.35
839.815	24594.57
839.999	24000.66
840.184	23832.72
840.368	23752.85
840.553	24301.71
840.737	24326.28
840.922	23789.72
841.106	23627.93
841.291	23531.67
841.475	23986.32
841.66	23783.57
841.844	23367.84
842.029	24723.59
842.213	23439.51
842.397	23535.77
842.582	23546.01
842.766	24379.53
842.951	23926.93
843.135	23247.01
843.319	23302.3
843.504	23445.66
843.688	24258.7
843.872	23025.82
844.056	23292.06
844.241	23810.2
844.425	23335.07
844.609	23341.21
844.793	23201.95
844.977	23722.13
845.161	23183.52
845.346	22855.84
845.53	23101.6
845.714	23148.7
845.898	23601.3
846.082	22886.56
846.266	22968.48
846.45	22913.19
846.634	23333.02
846.818	22812.84
847.002	22925.47
847.186	23025.82
847.37	22880.42
847.554	22536.36
847.738	22999.2
847.922	23019.68
848.106	23142.56
848.29	22581.42
848.473	22859.94
848.657	22780.07
848.841	22995.11
849.025	22587.56
849.209	21989.55
849.392	22933.67
849.576	22710.44
849.76	22263.98
849.944	22446.25
850.127	22829.22
850.311	21938.35
850.495	22214.83
850.678	21921.97
850.862	22567.08
851.046	22714.53
851.229	22167.73
851.413	21743.8
851.596	22360.23
851.78	22507.69
851.964	22089.9
852.147	21856.43
852.331	22663.33
852.514	22339.76
852.698	21979.31
852.881	21526.71
853.065	22147.25
853.248	22042.8
853.431	22014.13
853.615	21670.07
853.798	22454.44
853.982	22046.9
854.165	21788.85
854.348	21545.14
854.532	21688.5
854.715	21751.99
854.898	21670.07
855.081	21514.42
855.265	22003.89
855.448	22073.52
855.631	21534.9
855.814	21549.24
855.997	21631.16
856.181	21571.77
856.364	21135.55
856.547	21196.99
856.73	21835.95
856.913	21409.98
857.096	21045.44
857.279	21262.52
857.462	21223.61
857.645	21696.69
857.828	21334.2
858.011	21217.47
858.194	21178.56
858.377	21446.84
858.56	20928.7
858.743	21061.82
858.926	20758.72
859.109	21162.17
859.292	20895.94
859.475	20746.44
859.658	21283
859.841	21229.76
860.023	20758.72
860.206	20576.45
860.389	20930.75
860.572	21086.4
860.755	20576.45
860.937	20582.6
861.12	20355.27
861.303	20721.86
861.486	20521.16
861.668	20463.82
861.851	20932.8
862.034	20955.33
862.216	20371.66
862.399	19966.16
862.581	20488.39
862.764	20742.34
862.947	20515.01
863.129	19970.26
863.312	19618
863.494	20816.07
863.677	20312.27
863.859	19939.54
864.042	20666.56
864.224	20752.58
864.406	20021.45
864.589	19550.42
864.771	20189.39
864.954	19726.55
865.136	19648.72
865.318	19384.54
865.501	19953.87
865.683	19415.26
865.865	19656.92
866.048	19585.24
866.23	19671.25
866.412	20037.84
866.594	19564.76
866.777	19779.79
866.959	19695.83
867.141	19345.62
867.323	19693.78
867.505	19538.13
867.687	19488.98
867.869	19704.02
868.052	19579.09
868.234	19169.5
868.416	19708.12
868.598	19761.36
868.78	19398.87
868.962	19630.29
869.144	19613.91
869.326	19841.23
869.508	19136.73
869.69	19228.89
869.872	19171.55
870.054	19646.68
870.236	18997.47
870.417	18976.99
870.599	19202.27
870.781	19755.22
870.963	19142.88
871.145	19151.07
871.327	18960.61
871.508	19312.86
871.69	19011.81
871.872	19386.58
872.054	19208.41
872.235	19347.67
872.417	19173.6
872.599	18639.08
872.78	20000.97
872.962	19456.22
873.144	18831.58
873.325	19376.34
873.507	19642.58
873.689	19126.49
873.87	19144.92
874.052	19232.99
874.233	19228.89
874.415	19607.76
874.596	18919.65
874.778	18741.47
874.959	19484.89
875.141	19398.87
875.322	18866.4
875.503	19101.92
875.685	19603.67
875.866	18753.76
876.048	18776.29
876.229	19085.53
876.41	18925.79
876.592	19355.86
876.773	19118.3
876.954	18628.84
877.136	19499.22
877.317	19146.97
877.498	18876.64
877.679	19079.39
877.86	19372.25
878.042	19286.23
878.223	18893.02
878.404	19443.93
878.585	19445.98
878.766	19720.4
878.947	19534.04
879.128	19423.45
879.309	19478.74
879.49	19579.09
879.672	18847.97
879.853	19099.87
880.034	19302.62
880.215	19898.58
880.396	19108.06
880.576	19351.77
880.757	19411.16
880.938	19708.12
881.119	19456.22
881.3	19505.37
881.481	19513.56
881.662	20498.63
881.843	19011.81
882.023	19357.91
882.204	19484.89
882.385	19630.29
882.566	19429.59
882.747	19468.5
882.927	19927.25
883.108	20144.33
883.289	19599.57
883.469	20187.34
883.65	19744.98
883.831	20154.57
884.011	20295.88
884.192	19890.38
884.373	20355.27
884.553	20424.9
884.734	20261.07
884.914	20099.28
885.095	20934.85
885.275	20676.8
885.456	20318.41
885.636	19876.05
885.817	20299.98
885.997	20254.92
886.178	20138.19
886.358	20099.28
886.538	20543.69
886.719	21182.65
886.899	20324.55
887.08	20330.7
887.26	20646.08
887.44	20351.18
887.621	20048.08
887.801	20299.98
887.981	20883.65
888.161	20611.27
888.342	20039.89
888.522	20189.39
888.702	20508.87
888.882	20701.38
889.062	20293.83
889.242	20101.33
889.423	20558.02
889.603	20703.43
889.783	20826.31
889.963	20299.98
890.143	20615.37
890.323	20857.03
890.503	20398.28
890.683	20447.43
890.863	20617.41
891.043	20650.18
891.223	20400.33
891.403	20773.06
891.583	20752.58
891.763	20730.05
891.943	20195.53
892.122	20369.61
892.302	20822.21
892.482	20785.35
892.662	20457.67
892.842	20320.46
893.022	20398.28
893.201	20426.95
893.381	20459.72
893.561	20189.39
893.741	20652.23
893.92	20766.92
894.1	20193.48
894.28	20250.83
894.459	20521.16
894.639	20523.21
894.819	20127.95
894.998	20211.92
895.178	20541.64
895.357	20547.78
895.537	20132.04
895.716	20003.02
895.896	20345.03
896.075	20371.66
896.255	20093.13
896.434	19890.38
896.614	20498.63
896.793	20555.97
896.973	20377.8
897.152	20066.51
897.331	20177.1
897.511	20553.93
897.69	19517.65
897.87	19984.59
898.049	20314.31
898.228	20140.24
898.407	19990.73
898.587	19867.86
898.766	19851.47
898.945	20158.67
899.124	19591.38
899.304	19857.62
899.483	19972.3
899.662	20369.61
899.841	19230.94
900.02	19706.07
900.199	19732.69
900.378	19505.37
900.557	19345.62
900.737	18743.52
900.916	19484.89
901.095	19357.91
901.274	19351.77
901.453	19048.67
901.632	18794.72
901.811	19007.71
901.989	18843.87
902.168	18542.82
902.347	19275.99
902.526	18602.21
902.705	18620.64
902.884	18673.89
903.063	19179.74
903.242	18882.78
903.42	17932.53
903.599	18540.77
903.778	18655.46
903.957	18755.81
904.135	18122.99
904.314	18039.02
904.493	18489.57
904.672	18465
904.85	17848.56
905.029	18129.13
905.207	18241.77
905.386	18747.62
905.565	17531.12
905.743	17484.02
905.922	17817.84
906.1	17914.09
906.279	17457.4
906.457	17172.73
906.636	17318.14
906.814	17113.34
906.993	17084.67
907.171	17178.87
907.35	17477.88
907.528	17332.47
907.707	17105.15
907.885	16730.37
908.063	17166.59
908.242	16576.77
908.42	16503.04
908.598	16259.34
908.777	16812.29
908.955	16668.93
909.133	16617.73
909.311	16343.3
909.49	16195.85
909.668	16888.06
909.846	16726.27
910.024	16443.65
910.202	16994.56
910.38	16900.35
910.559	16437.51
910.737	16443.65
910.915	17127.67
911.093	16914.69
911.271	16607.49
911.449	17195.26
911.627	17203.45
911.805	17826.03
911.983	16949.5
912.161	17029.37
912.339	17418.49
912.517	17465.59
912.695	17219.83
912.872	17015.04
913.05	17340.66
913.228	17330.42
913.406	17109.24
913.584	17135.87
913.762	17529.08
913.939	17074.43
914.117	17273.08
914.295	16849.15
914.473	17598.71
914.65	17543.41
914.828	16857.34
915.006	16990.46
915.184	17068.28
915.361	17311.99
915.539	17309.94
915.716	17283.32
915.894	17422.58
916.072	17588.47
916.249	17178.87
916.427	17162.49
916.604	16994.56
916.782	17111.29
916.959	16748.8
917.137	16904.45
917.314	17062.14
917.492	17240.31
917.669	16845.05
917.847	16924.93
918.024	17031.42
918.201	16865.53
918.379	16732.42
918.556	16722.18
918.733	17234.17
918.911	16849.15
919.088	16548.1
919.265	16607.49
919.442	16806.14
919.62	16478.47
919.797	16425.22
919.974	16337.16
920.151	16787.71
920.328	16849.15
920.506	16290.06
920.683	16666.88
920.86	16044.3
921.037	16302.34
921.214	16400.65
921.391	16337.16
921.568	16681.22
921.745	16197.9
921.922	16365.83
922.099	15925.52
922.276	16693.51
922.453	16611.59
922.63	15866.13
922.807	16464.13
922.984	15941.9
923.161	16083.21
923.338	16331.01
923.514	15763.73
923.691	16156.94
923.868	15946
924.045	15778.06
924.222	15517.97
924.399	15980.81
924.575	16380.17
924.752	15919.37
924.929	15757.58
925.105	15730.96
925.282	15675.66
925.459	15591.7
925.635	15753.49
925.812	15788.3
925.989	15614.23
926.165	15532.31
926.342	15161.62
926.518	15028.51
926.695	15345.94
926.871	15202.58
927.048	15216.92
927.224	15403.28
927.401	14981.4
927.577	15128.86
927.754	14934.3
927.93	15640.85
928.107	15264.02
928.283	14829.85
928.459	14995.74
928.636	15030.55
928.812	14975.26
928.988	14487.84
929.165	14496.03
929.341	14627.1
929.517	14682.4
929.693	14549.28
929.87	14014.76
930.046	14971.16
930.222	14223.65
930.398	14221.61
930.574	14061.87
930.751	14381.35
930.927	14176.55
931.103	14115.11
931.279	13803.82
931.455	14022.95
931.631	14041.39
931.807	13699.37
931.983	13912.36
932.159	13746.48
932.335	14141.74
932.511	13459.76
932.687	13652.27
932.863	13723.95
933.039	13418.8
933.215	13105.46
933.391	12783.93
933.566	13279.54
933.742	13111.61
933.918	12964.15
934.094	12704.06
934.27	12818.75
934.445	12634.43
934.621	12714.3
934.797	12333.38
934.973	12587.33
935.148	12323.14
935.324	11940.17
935.5	11655.5
935.675	12325.19
935.851	11878.73
936.027	11415.89
936.202	11467.09
936.378	11688.27
936.553	11462.99
936.729	11395.41
936.904	11018.58
937.08	10760.54
937.255	10504.54
937.431	10312.03
937.606	10148.2
937.782	10172.77
937.957	10367.33
938.133	9994.6
938.308	9597.29
938.483	9877.87
938.659	9445.74
938.834	9339.25
939.009	9372.02
939.185	9308.53
939.36	9097.59
939.535	8604.03
939.71	8812.92
939.886	9249.14
940.061	8997.24
940.236	8733.05
940.411	8649.08
940.586	8780.15
940.761	8556.93
940.937	8311.17
941.112	8153.48
941.287	8313.22
941.462	8262.02
941.637	7956.87
941.812	8137.09
941.987	8100.23
942.162	8085.89
942.337	7758.22
942.512	7799.18
942.687	8135.04
942.862	7893.38
943.037	7594.38
943.212	7192.98
943.386	7524.75
943.561	7641.48
943.736	7639.44
943.911	7661.96
944.086	7629.2
944.26	7790.99
944.435	7178.64
944.61	7510.41
944.785	7813.51
944.959	7971.21
945.134	7440.78
945.309	7170.45
945.483	7448.97
945.658	7825.8
945.833	6986.13
946.007	7127.44
946.182	7950.73
946.357	7432.59
946.531	7231.89
946.706	7274.9
946.88	7227.79
947.055	7627.15
947.229	7483.79
947.404	7553.42
947.578	7868.81
947.752	7510.41
947.927	7299.47
948.101	7375.25
948.276	7627.15
948.45	7936.39
948.624	7694.73
948.799	7616.91
948.973	7922.06
949.147	7786.89
949.321	7788.94
949.496	7561.61
949.67	8165.76
949.844	7797.13
950.018	7930.25
950.193	7516.56
950.367	8536.45
950.541	8178.05
950.715	7930.25
950.889	8114.56
951.063	7952.77
951.237	8286.59
951.411	7770.51
951.585	7987.59
951.759	8364.42
951.933	8034.69
952.107	8190.34
952.281	8237.44
952.455	8626.56
952.629	8386.94
952.803	8247.68
952.977	8003.97
953.151	8456.57
953.325	8345.98
953.499	8360.32
953.672	8081.8
953.846	8327.55
954.02	8456.57
954.194	8112.52
954.368	8268.16
954.541	8538.49
954.715	8597.88
954.889	8376.7
955.062	8118.66
955.236	8595.84
955.41	8327.55
955.583	8499.58
955.757	8063.36
955.93	8368.51
956.104	8339.84
956.278	8427.9
956.451	8448.38
956.625	8792.44
956.798	9236.85
956.972	8667.52
957.145	8200.58
957.319	8679.8
957.492	8628.6
957.665	8589.69
957.839	8432
958.012	9036.15
958.185	8681.85
958.359	8526.21
958.532	8620.41
958.705	8835.45
958.879	8810.87
959.052	8538.49
959.225	8376.7
959.398	8651.13
959.572	8718.71
959.745	8464.77
959.918	8688
960.091	8628.6
960.264	8888.7
960.438	8423.81
960.611	8388.99
960.784	8972.66
960.957	8440.19
961.13	8774.01
961.303	8544.64
961.476	8563.07
961.649	8878.46
961.822	8593.79
961.995	8601.98
962.168	8993.14
962.341	8724.86
962.514	8601.98
962.686	8440.19
962.859	8716.67
963.032	8663.42
963.205	8331.65
963.378	8188.29
963.551	8720.76
963.723	8681.85
963.896	8618.36
964.069	8530.3
964.242	8790.39
964.414	8817.02
964.587	8505.73
964.76	8536.45
964.932	8628.6
965.105	8718.71
965.278	8513.92
965.45	8567.17
965.623	8567.17
965.795	8776.06
965.968	8364.42
966.14	8384.9
966.313	8546.69
966.485	8513.92
966.658	8255.87
966.83	8163.72
967.003	8939.9
967.175	8778.11
967.348	8354.18
967.52	8352.13
967.692	8827.26
967.865	8567.17
968.037	8395.14
968.209	8382.85
968.382	8368.51
968.554	8567.17
968.726	8319.36
968.898	8235.39
969.071	8405.38
969.243	8511.87
969.415	8110.47
969.587	8186.24
969.759	8943.99
969.932	8657.28
970.104	8104.32
970.276	7854.47
970.448	8223.11
970.62	8176
970.792	8452.48
970.964	8165.76
971.136	8704.38
971.308	8339.84
971.48	7967.11
971.652	7958.92
971.824	8548.73
971.996	7727.5
972.168	7971.21
972.339	7803.27
972.511	8233.35
972.683	8001.93
972.855	8059.27
973.027	7817.61
973.199	7999.88
973.37	8188.29
973.542	7960.97
973.714	8006.02
973.886	8044.93
974.057	8110.47
974.229	7610.76
974.401	7758.22
974.572	7696.78
974.744	7369.1
974.915	7672.2
975.087	7604.62
975.259	8204.67
975.43	7795.08
975.602	7508.37
975.773	7430.54
975.945	7471.5
976.116	8014.21
976.288	7537.04
976.459	7735.69
976.63	7723.4
976.802	7709.07
976.973	7397.78
977.145	7647.63
977.316	8276.35
977.487	7612.81
977.659	7739.79
977.83	7289.23
978.001	7971.21
978.172	7655.82
978.344	7229.84
978.515	7524.75
978.686	7332.24
978.857	7793.03
979.028	7219.6
979.2	7104.92
979.371	7496.08
979.542	7569.8
979.713	7403.92
979.884	6834.58
980.055	7117.2
980.226	7192.98
980.397	7123.35
980.568	7012.76
980.739	7494.03
980.91	7156.11
981.081	7270.8
981.252	6881.69
981.423	7346.58
981.594	7414.16
981.765	6775.19
981.936	6881.69
982.106	7053.72
982.277	7297.42
982.448	6936.98
982.619	7111.06
982.79	6824.34
982.96	7377.3
983.131	6810.01
983.302	6613.4
983.472	6773.14
983.643	7119.25
983.814	6916.5
983.984	6676.89
984.155	6719.9
984.326	7135.64
984.496	6721.95
984.667	6584.73
984.837	6730.14
985.008	7041.43
985.178	6812.06
985.349	6717.85
985.519	6574.49
985.69	6381.98
985.86	6521.24
986.031	6363.55
986.201	6597.02
986.371	6762.9
986.542	6343.07
986.712	6128.03
986.882	6568.35
987.053	6607.26
987.223	6255.01
987.393	6244.77
987.563	6197.67
987.734	6590.88
987.904	6574.49
988.074	6201.76
988.244	6537.63
988.414	6308.26
988.585	5845.41
988.755	6160.8
988.925	6066.6
989.095	6599.07
989.265	5779.88
989.435	5865.89
989.605	6308.26
989.775	6334.88
989.945	6222.24
990.115	5738.92
990.285	6068.64
990.455	6224.29
990.625	5867.94
990.795	5820.84
990.965	6465.95
991.134	5898.66
991.304	5659.05
991.474	5738.92
991.644	6062.5
991.814	6381.98
991.984	5429.68
992.153	5530.03
992.323	5831.08
992.493	5761.45
992.662	5405.1
992.832	5716.39
993.002	5722.54
993.171	5634.47
993.341	5267.89
993.511	5743.02
993.68	5554.6
993.85	5683.63
994.019	5214.64
994.189	5401.01
994.358	5689.77
994.528	5300.66
994.697	5102
994.867	5286.32
995.036	5648.81
995.206	5501.36
995.375	5276.08
995.544	5251.5
995.714	5407.15
995.883	5267.89
996.052	5222.83
996.222	4899.25
996.391	5894.57
996.56	5398.96
996.73	4970.93
996.899	4944.31
997.068	5552.56
997.237	5237.17
997.406	5005.75
997.576	4923.83
997.745	5183.92
997.914	5302.7
998.083	4794.81
998.252	4776.38
998.421	5257.65
998.59	5001.65
998.759	4618.68
998.928	4678.07
999.097	5331.37
999.266	5253.55
999.435	4936.12
999.604	4735.42
999.773	5634.47
999.942	4768.18
1000.111	4567.48
1000.28	4559.29
1000.448	4739.51
1000.617	4745.66
1000.786	4753.85
1000.955	4463.04
1001.124	5020.08
1001.292	5464.49
1001.461	4522.43
1001.63	4491.71
1001.798	5185.97
1001.967	5018.04
1002.136	4319.68
1002.304	4489.66
1002.473	4723.13
1002.642	5024.18
1002.81	4256.19
1002.979	4364.73
1003.147	4684.22
1003.316	5134.77
1003.484	4288.96
1003.653	4143.55
1003.821	4692.41
1003.99	4448.7
1004.158	4198.85
1004.327	4262.33
1004.495	4420.03
1004.663	4194.75
1004.832	4190.66
1005	4030.91
1005.168	4372.93
1005.337	4262.33
1005.505	3834.31
1005.673	4342.21
1005.842	4514.24
1006.01	4372.93
1006.178	3815.88
1006.346	3936.71
1006.514	4370.88
1006.683	4387.26
1006.851	3824.07
1007.019	4012.48
1007.187	3848.65
1007.355	3742.15
1007.523	3588.55
1007.691	3672.52
1007.859	3684.81
1008.027	4352.45
1008.195	3805.64
1008.363	3658.18
1008.531	4215.23
1008.699	3723.72
1008.867	3623.37
1009.035	3533.26
1009.203	4057.54
1009.37	3889.6
1009.538	3568.07
1009.706	3924.42
1009.874	3848.65
1010.042	3746.25
1010.209	3330.51
1010.377	3387.85
1010.545	3842.5
1010.713	3686.86
1010.88	3379.66
1011.048	3389.9
1011.216	3674.57
1011.383	4026.82
1011.551	3357.13
1011.718	3211.73
1011.886	3944.9
1012.054	3592.65
1012.221	3172.82
1012.389	3408.33
1012.556	3500.49
1012.724	3987.91
1012.891	3324.37
1013.058	3006.93
1013.226	3615.18
1013.393	3647.94
1013.561	2998.74
1013.728	3178.96
1013.895	3547.59
1014.063	3514.83
1014.23	2986.45
1014.397	2951.63
1014.565	3500.49
1014.732	3236.3
1014.899	2996.69
1015.066	2863.57
1015.233	3240.4
1015.401	3400.14
1015.568	3006.93
1015.735	3068.37
1015.902	3328.46
1016.069	3402.19
1016.236	2705.88
1016.403	2669.02
1016.57	2955.73
1016.737	3264.97
1016.904	2828.76
1017.071	2695.64
1017.238	2961.87
1017.405	3441.1
1017.572	2679.26
1017.739	2920.92
1017.906	3103.18
1018.073	3205.58
1018.24	2576.86
1018.407	2683.35
1018.573	3307.98
1018.74	2922.96
1018.907	2701.78
1019.074	2468.31
1019.241	3162.58
1019.407	2857.43
1019.574	2486.75
1019.741	2357.72
1019.907	2894.29
1020.074	3035.6
1020.241	2259.42
1020.407	2349.53
1020.574	2785.75
1020.74	2853.33
1020.907	2515.42
1021.073	2396.64
1021.24	3170.77
1021.406	3023.31
1021.573	2456.03
1021.739	2265.57
1021.906	2898.39
1022.072	2703.83
1022.239	2396.64
1022.405	2423.26
1022.571	2638.3
1022.738	2546.14
1022.904	2271.71
1023.07	2300.38
1023.237	2677.21
1023.403	2900.44
1023.569	2263.52
1023.735	2236.89
1023.902	2580.95
1024.068	2466.27
1024.234	2105.82
1024.4	2281.95
1024.566	2572.76
1024.732	2515.42
1024.898	2097.63
1025.065	1948.13
1025.231	2720.21
1025.397	2345.44
1025.563	2189.79
1025.729	1927.65
1025.895	1968.61
1026.061	2116.06
1026.227	1913.31
1026.392	2204.13
1026.558	2736.6
1026.724	2435.55
1026.89	2021.86
1027.056	2003.43
1027.222	2486.75
1027.388	2263.52
1027.553	1941.99
1027.719	1851.88
1027.885	2531.8
1028.051	2347.48
1028.216	1671.65
1028.382	1831.4
1028.548	2329.05
1028.713	2087.39
1028.879	1962.47
1029.045	2116.06
1029.21	2470.36
1029.376	2343.39
1029.541	1817.06
1029.707	1823.2
1029.873	2306.52
1030.038	2408.92
1030.204	1907.17
1030.369	1827.3
1030.534	2300.38
1030.7	2003.43
1030.865	1837.54
1031.031	1714.66
1031.196	2177.5
1031.361	1931.75
1031.527	1692.13
1031.692	1546.73
1031.857	1620.46
1032.023	2122.21
1032.188	1741.29
1032.353	1847.78
1032.518	2460.12
1032.684	1984.99
1032.849	1495.53
1033.014	1675.75
1033.179	2320.86
1033.344	2228.7
1033.509	1720.81
1033.674	1645.03
1033.839	2081.25
1034.004	2193.89
1034.17	1589.74
1034.335	1391.08
1034.5	1847.78
1034.664	1763.81
1034.829	1499.63
1034.994	1698.28
1035.159	1929.7
1035.324	1794.53
1035.489	1552.87
1035.654	1550.82
1035.819	2171.36
1035.984	1776.1
1036.148	1522.15
1036.313	1524.2
1036.478	2066.91
1036.643	1673.7
1036.807	1403.37
1036.972	1370.6
1037.137	2105.82
1037.301	1733.09
1037.466	1362.41
1037.631	1477.1
1037.795	2079.2
1037.96	1831.4
1038.124	1569.26
1038.289	1243.63
1038.454	1808.87
1038.618	1835.49
1038.783	1419.75
1038.947	1384.94
1039.111	1714.66
1039.276	1624.55
1039.44	1241.58
1039.605	1745.38
1039.769	1626.6
1039.933	1610.22
1040.098	1374.7
1040.262	1503.72
1040.426	1839.59
1040.591	1796.58
1040.755	1159.66
1040.919	1300.97
1041.083	1661.41
1041.248	1540.58
1041.412	1057.26
1041.576	1151.47
1041.74	1495.53
1041.904	1696.23
1042.068	1104.37
1042.232	1221.1
1042.397	1696.23
1042.561	1706.47
1042.725	922.1
1042.889	1243.63
1043.053	1651.17
1043.217	1679.85
1043.381	1270.25
1043.544	985.58
1043.708	1638.89
1043.872	1255.92
1044.036	760.31
1044.2	909.81
1044.364	1610.22
1044.528	1833.44
1044.691	4241.86
1044.855	1032.69
1045.019	1655.27
1045.183	1559.02
1045.346	1139.18
1045.51	999.92
1045.674	1399.27
1045.837	1628.65
1046.001	1145.33
1046.165	1014.26
1046.328	1847.78
1046.492	1491.43
1046.655	1139.18
1046.819	1059.31
1046.983	1194.48
1047.146	1403.37
1047.31	1176.05
1047.473	848.37
1047.636	1331.69
1047.8	1182.19
1047.963	893.43
1048.127	893.43
1048.29	1008.11
