Data from Hydrogel_Ink_Intensity_Test_1_USB4F045381__73__00073.txt Node

Date: Mon Jul 31 10:55:28 EDT 2023
User: mmckonesweet
Spectrometer: USB4F04538
Trigger mode: 4
Integration Time (sec): 9.000000E-1
Scans to average: 1
Electric dark correction enabled: true
Nonlinearity correction enabled: false
Boxcar width: 0
XAxis mode: Wavelengths
Number of Pixels in Spectrum: 3648
>>>>>Begin Spectral Data<<<<<
345.52	-997.7
345.736	-997.7
345.952	-997.7
346.168	-954.69
346.384	-964.93
346.6	-168.27
346.816	-225.62
347.032	-205.14
347.248	245.41
347.464	-217.43
347.68	-84.31
347.896	122.54
348.112	396.96
348.328	-78.16
348.544	-47.44
348.76	63.15
348.975	198.31
349.191	-174.42
349.407	-166.23
349.623	46.76
349.839	-35.16
350.055	-135.51
350.27	100.01
350.486	167.59
350.702	356.01
350.918	226.98
351.133	-219.47
351.349	181.93
351.565	382.63
351.781	-190.8
351.996	79.53
352.212	345.77
352.428	-153.94
352.644	-182.61
352.859	-244.05
353.075	313
353.291	-4.44
353.506	-151.89
353.722	-235.86
353.938	-88.4
354.153	468.64
354.369	116.39
354.584	-164.18
354.8	243.37
355.016	-325.97
355.231	-198.99
355.447	-145.75
355.662	173.74
355.878	861.85
356.093	-401.74
356.309	5.8
356.524	-268.63
356.74	118.44
356.955	-201.04
357.171	-35.16
357.386	177.83
357.602	-192.85
357.817	-67.92
358.033	-129.36
358.248	337.57
358.464	155.3
358.679	-176.47
358.895	-317.78
359.11	-43.35
359.325	360.1
359.541	233.13
359.756	5.8
359.972	-325.97
360.187	181.93
360.402	-182.61
360.618	-244.05
360.833	1011.36
361.048	165.54
361.264	-172.37
361.479	-20.82
361.694	7.85
361.909	239.27
362.125	-297.3
362.34	-125.27
362.555	241.32
362.77	73.39
362.986	-194.9
363.201	-170.32
363.416	321.19
363.631	77.48
363.847	-149.84
364.062	-155.99
364.277	216.74
364.492	132.78
364.707	-147.8
364.922	-391.5
365.138	356.01
365.353	384.68
365.568	-235.86
365.783	-168.27
365.998	108.2
366.213	607.91
366.428	-198.99
366.643	91.82
366.858	333.48
367.073	253.61
367.288	-137.56
367.503	-166.23
367.718	91.82
367.933	370.34
368.148	-256.34
368.363	-35.16
368.578	110.25
368.793	480.93
369.008	-80.21
369.223	-198.99
369.438	206.5
369.653	380.58
369.868	-252.24
370.083	-229.71
370.298	177.83
370.513	386.72
370.728	75.43
370.943	-192.85
371.157	-127.32
371.372	591.52
371.587	-297.3
371.802	-186.71
372.017	36.52
372.232	437.92
372.446	16.04
372.661	-205.14
372.876	206.5
373.091	181.93
373.306	-178.51
373.52	-166.23
373.735	-233.81
373.95	448.16
374.165	-65.88
374.379	-86.36
374.594	-112.98
374.809	102.06
375.023	36.52
375.238	-256.34
375.453	239.27
375.667	-301.39
375.882	-98.64
376.097	-233.81
376.311	165.54
376.526	54.95
376.741	-153.94
376.955	77.48
377.17	601.76
377.384	579.23
377.599	-53.59
377.813	-244.05
378.028	581.28
378.242	239.27
378.457	-51.54
378.672	-371.02
378.886	75.43
379.101	32.43
379.315	-227.67
379.53	-133.46
379.744	274.09
379.958	296.61
380.173	-115.03
380.387	-119.12
380.602	200.36
380.816	-88.4
381.031	-141.65
381.245	-131.41
381.459	190.12
381.674	2797.18
381.888	-129.36
382.103	157.35
382.317	-166.23
382.531	448.16
382.746	-10.58
382.96	-188.75
383.174	-76.12
383.388	528.03
383.603	122.54
383.817	-213.33
384.031	249.51
384.246	591.52
384.46	85.67
384.674	448.16
384.888	7.85
385.103	161.45
385.317	-203.09
385.531	9.9
385.745	388.77
385.959	337.57
386.174	-207.19
386.388	-256.34
386.602	71.34
386.816	-72.02
387.03	-72.02
387.244	-51.54
387.458	83.63
387.672	343.72
387.887	-289.1
388.101	-280.91
388.315	368.29
388.529	231.08
388.743	-186.71
388.957	-198.99
389.171	374.44
389.385	-100.69
389.599	-94.55
389.813	120.49
390.027	210.6
390.241	612
390.455	-129.36
390.669	-59.73
390.883	-121.17
391.097	556.71
391.311	89.77
391.525	-151.89
391.738	186.02
391.952	206.5
392.166	-6.49
392.38	-174.42
392.594	353.96
392.808	288.42
393.022	-43.35
393.236	-119.12
393.449	282.28
393.663	245.41
393.877	-270.67
394.091	9.9
394.305	-33.11
394.518	20.14
394.732	-192.85
394.946	-102.74
395.16	515.75
395.373	110.25
395.587	-94.55
395.801	-143.7
396.015	298.66
396.228	282.28
396.442	-211.28
396.656	-305.49
396.869	456.36
397.083	499.36
397.297	-76.12
397.51	-131.41
397.724	378.53
397.938	120.49
398.151	-319.82
398.365	-235.86
398.578	259.75
398.792	356.01
399.005	-6.49
399.219	-88.4
399.433	206.5
399.646	290.47
399.86	34.47
400.073	87.72
400.287	267.94
400.5	30.38
400.714	71.34
400.927	34.47
401.141	300.71
401.354	1134.23
401.567	194.22
401.781	-155.99
401.994	333.48
402.208	599.71
402.421	-67.92
402.635	-55.64
402.848	134.82
403.061	411.3
403.275	1.71
403.488	-201.04
403.701	536.23
403.915	321.19
404.128	126.63
404.341	-135.51
404.555	235.18
404.768	83.63
404.981	116.39
405.195	-4.44
405.408	601.76
405.621	272.04
405.834	143.02
406.048	-86.36
406.261	530.08
406.474	542.37
406.687	-112.98
406.9	67.24
407.114	183.98
407.327	347.81
407.54	-180.56
407.753	-176.47
407.966	-94.55
408.179	343.72
408.392	-69.97
408.605	-239.95
408.819	235.18
409.032	306.85
409.245	-166.23
409.458	118.44
409.671	259.75
409.884	476.84
410.097	-198.99
410.31	120.49
410.523	261.8
410.736	42.67
410.949	63.15
411.162	3.75
411.375	495.27
411.588	386.72
411.801	157.35
412.014	-67.92
412.227	181.93
412.44	75.43
412.653	-94.55
412.865	89.77
413.078	405.16
413.291	347.81
413.504	-12.63
413.717	-151.89
413.93	333.48
414.143	-0.34
414.356	-10.58
414.568	-219.47
414.781	394.92
414.994	194.22
415.207	34.47
415.42	18.09
415.632	386.72
415.845	687.78
416.058	-160.08
416.271	-164.18
416.483	198.31
416.696	632.48
416.909	-63.83
417.121	-14.68
417.334	308.9
417.547	665.25
417.759	-43.35
417.972	-131.41
418.185	102.06
418.397	482.98
418.61	-72.02
418.823	-24.92
419.035	585.38
419.248	200.36
419.46	93.87
419.673	38.57
419.885	341.67
420.098	157.35
420.311	30.38
420.523	-254.29
420.736	482.98
420.948	134.82
421.161	-37.2
421.373	-282.96
421.586	351.91
421.798	26.28
422.01	-151.89
422.223	165.54
422.435	63.15
422.648	419.49
422.86	30.38
423.073	-39.25
423.285	427.68
423.497	-127.32
423.71	34.47
423.922	-84.31
424.134	415.4
424.347	525.99
424.559	216.74
424.771	308.9
424.984	112.3
425.196	394.92
425.408	-184.66
425.621	-100.69
425.833	470.69
426.045	618.15
426.257	-72.02
426.47	26.28
426.682	401.06
426.894	405.16
427.106	-51.54
427.318	38.57
427.531	1.71
427.743	468.64
427.955	-4.44
428.167	444.07
428.379	411.3
428.591	77.48
428.804	30.38
429.016	-69.97
429.228	81.58
429.44	315.05
429.652	112.3
429.864	-125.27
430.076	200.36
430.288	257.7
430.5	106.15
430.712	143.02
430.924	515.75
431.136	343.72
431.348	-164.18
431.56	-55.64
431.772	249.51
431.984	79.53
432.196	-112.98
432.408	91.82
432.62	149.16
432.832	386.72
433.044	288.42
433.256	143.02
433.468	448.16
433.679	-100.69
433.891	-137.56
434.103	263.85
434.315	657.06
434.527	444.07
434.739	120.49
434.95	165.54
435.162	487.08
435.374	140.97
435.586	26.28
435.798	112.3
436.009	32.43
436.221	218.79
436.433	81.58
436.645	138.92
436.856	267.94
437.068	661.15
437.28	-24.92
437.491	300.71
437.703	460.45
437.915	390.82
438.126	118.44
438.338	390.82
438.55	241.32
438.761	394.92
438.973	93.87
439.184	165.54
439.396	145.06
439.608	579.23
439.819	-31.06
440.031	210.6
440.242	489.12
440.454	521.89
440.665	151.21
440.877	198.31
441.088	523.94
441.3	251.56
441.511	-49.49
441.723	42.67
441.934	315.05
442.146	372.39
442.357	343.72
442.569	388.77
442.78	349.86
442.991	761.5
443.203	427.68
443.414	79.53
443.626	710.3
443.837	306.85
444.048	42.67
444.26	40.62
444.471	431.78
444.682	560.8
444.894	-2.39
445.105	-84.31
445.316	644.77
445.528	435.88
445.739	247.46
445.95	153.26
446.161	405.16
446.373	591.52
446.584	104.11
446.795	181.93
447.006	546.47
447.217	835.23
447.429	-29.01
447.64	-22.87
447.851	642.72
448.062	419.49
448.273	-63.83
448.484	175.78
448.695	515.75
448.907	360.1
449.118	353.96
449.329	345.77
449.54	382.63
449.751	255.65
449.962	165.54
450.173	81.58
450.384	669.34
450.595	722.59
450.806	190.12
451.017	235.18
451.228	763.55
451.439	503.46
451.65	224.94
451.861	-61.78
452.072	149.16
452.283	431.78
452.494	401.06
452.705	83.63
452.915	757.41
453.126	601.76
453.337	265.89
453.548	83.63
453.759	616.1
453.97	908.96
454.181	478.88
454.391	247.46
454.602	480.93
454.813	566.95
455.024	212.65
455.235	116.39
455.445	485.03
455.656	485.03
455.867	476.84
456.078	212.65
456.288	405.16
456.499	661.15
456.71	196.26
456.921	466.6
457.131	573.09
457.342	450.21
457.553	294.57
457.763	286.37
457.974	628.39
458.184	716.45
458.395	153.26
458.606	149.16
458.816	824.99
459.027	1035.93
459.237	530.08
459.448	171.69
459.659	865.95
459.869	974.49
460.08	110.25
460.29	411.3
460.501	990.88
460.711	403.11
460.922	118.44
461.132	229.03
461.343	1187.48
461.553	198.31
461.764	278.18
461.974	306.85
462.184	741.02
462.395	605.86
462.605	452.26
462.816	231.08
463.026	616.1
463.236	896.67
463.447	353.96
463.657	304.81
463.867	911
464.078	464.55
464.288	378.53
464.498	421.54
464.709	546.47
464.919	577.19
465.129	439.97
465.339	349.86
465.55	794.27
465.76	820.89
465.97	423.59
466.18	384.68
466.391	878.24
466.601	804.51
466.811	423.59
467.021	198.31
467.231	730.78
467.441	1042.07
467.651	497.32
467.862	196.26
468.072	790.17
468.282	980.64
468.492	474.79
468.702	554.66
468.912	706.21
469.122	1476.24
469.332	786.08
469.542	437.92
469.752	1029.79
469.962	911
470.172	491.17
470.382	485.03
470.592	1035.93
470.802	1027.74
471.012	655.01
471.222	478.88
471.432	1003.16
471.642	1070.75
471.852	806.56
472.062	575.14
472.272	902.81
472.482	603.81
472.691	595.62
472.901	540.32
473.111	964.25
473.321	1500.82
473.531	634.53
473.741	857.76
473.95	1056.41
474.16	1103.51
474.37	841.37
474.58	595.62
474.79	1502.87
474.999	1224.34
475.209	655.01
475.419	751.26
475.628	978.59
475.838	1412.76
476.048	876.19
476.258	716.45
476.467	1328.79
476.677	933.53
476.886	1064.6
477.096	902.81
477.306	913.05
477.515	1406.61
477.725	931.48
477.935	927.39
478.144	1527.44
478.354	1054.36
478.563	1009.31
478.773	931.48
478.982	1382.04
479.192	1539.73
479.401	1123.99
479.611	923.29
479.82	1048.22
480.03	1312.41
480.239	982.68
480.449	878.24
480.658	1750.67
480.868	1191.58
481.077	1191.58
481.287	1099.42
481.496	1556.11
481.705	1760.91
481.915	1412.76
482.124	1388.18
482.333	1515.16
482.543	1734.29
482.752	1300.12
482.961	1136.28
483.171	1609.36
483.38	1502.87
483.589	1361.56
483.799	1150.62
484.008	1463.96
484.217	1722
484.426	1341.08
484.636	1093.27
484.845	1564.31
485.054	1142.43
485.263	1625.75
485.472	1193.62
485.682	1992.33
485.891	1683.09
486.1	1134.23
486.309	1345.17
486.518	1779.34
486.727	1967.76
486.936	1300.12
487.146	1484.44
487.355	2059.92
487.564	1427.09
487.773	1408.66
487.982	1402.52
488.191	1586.83
488.4	1711.76
488.609	1377.94
488.818	1408.66
489.027	2295.43
489.236	2006.67
489.445	1599.12
489.654	1506.96
489.863	2094.73
490.072	1797.78
490.281	1914.51
490.49	1541.78
490.698	2315.91
490.907	2127.5
491.116	1642.13
491.325	1607.31
491.534	2090.63
491.743	2033.29
491.952	1707.66
492.16	1638.03
492.369	2111.11
492.578	2186.89
492.787	1717.9
492.996	1549.97
493.204	1885.84
493.413	2492.04
493.622	1556.11
493.831	1566.35
494.039	2428.55
494.248	1715.86
494.457	1705.62
494.665	1562.26
494.874	2283.14
495.083	2561.67
495.291	1902.22
495.5	1822.35
495.709	2346.63
495.917	2127.5
496.126	1943.18
496.335	1795.73
496.543	2147.98
496.752	2150.03
496.96	2051.72
497.169	1787.54
497.377	2125.45
497.586	2442.89
497.794	1982.09
498.003	1785.49
498.211	2221.7
498.42	2623.11
498.628	2111.11
498.837	1787.54
499.045	2320.01
499.254	2217.61
499.462	1851.02
499.671	1902.22
499.879	2705.03
500.087	2633.35
500.296	1914.51
500.504	2006.67
500.713	2502.28
500.921	2819.71
501.129	1975.95
501.338	1902.22
501.546	2377.35
501.754	2252.42
501.962	2115.21
502.171	2076.3
502.379	2354.82
502.587	2795.14
502.795	2250.38
503.004	2107.02
503.212	2299.53
503.42	2606.72
503.628	2115.21
503.837	2172.55
504.045	2696.83
504.253	2954.88
504.461	2131.59
504.669	2061.96
504.877	2680.45
505.085	2946.69
505.294	2092.68
505.502	2508.42
505.71	2559.62
505.918	2729.6
506.126	2141.83
506.334	2238.09
506.542	2504.32
506.75	2647.68
506.958	2463.37
507.166	2393.73
507.374	2485.89
507.582	3090.04
507.79	2451.08
507.998	2233.99
508.206	2739.84
508.414	2766.46
508.622	2350.73
508.83	2414.21
509.037	2860.67
509.245	2444.93
509.453	2340.49
509.661	2403.97
509.869	2698.88
510.077	2741.89
510.285	2420.36
510.492	2115.21
510.7	3268.22
510.908	2516.61
511.116	2385.54
511.324	2426.5
511.531	2500.23
511.739	2705.03
511.947	2578.05
512.155	2852.48
512.362	2932.35
512.57	2508.42
512.778	2496.13
512.985	2293.38
513.193	3077.76
513.401	3245.69
513.608	2573.96
513.816	2424.45
514.024	3001.98
514.231	3053.18
514.439	2565.76
514.646	2612.87
514.854	3053.18
515.061	3004.03
515.269	2485.89
515.477	2526.85
515.684	2715.27
515.892	3208.83
516.099	2403.97
516.307	2377.35
516.514	3067.52
516.722	3274.36
516.929	2530.95
517.136	2612.87
517.344	3137.15
517.551	3032.7
517.759	2651.78
517.966	2776.7
518.173	2832
518.381	2963.07
518.588	2862.72
518.796	2657.92
519.003	3260.02
519.21	2940.54
519.418	2686.59
519.625	2993.79
519.832	2950.78
520.039	3028.6
520.247	2590.34
520.454	2795.14
520.661	3247.74
520.868	3184.25
521.076	2758.27
521.283	2821.76
521.49	3776.11
521.697	3161.72
521.904	2918.01
522.112	2928.25
522.319	3305.08
522.526	3122.81
522.733	2807.42
522.94	2797.18
523.147	3049.08
523.354	3335.8
523.561	2811.52
523.768	2989.69
523.975	3487.35
524.183	3212.92
524.39	3047.04
524.597	2958.97
524.804	3174.01
525.011	3020.41
525.218	2864.77
525.425	2913.92
525.632	3585.65
525.838	2967.17
526.045	2881.15
526.252	2946.69
526.459	4492.9
526.666	4197.99
526.873	3067.52
527.08	2967.17
527.287	3679.86
527.494	3399.29
527.701	2897.53
527.907	2997.88
528.114	3477.11
528.321	3430.01
528.528	3053.18
528.735	3090.04
528.941	3214.97
529.148	3157.63
529.355	3088
529.562	3061.37
529.768	3833.46
529.975	3286.65
530.182	3155.58
530.388	3120.76
530.595	3579.51
530.802	3249.79
531.008	3438.2
531.215	3155.58
531.422	4093.55
531.628	4159.08
531.835	3276.41
532.042	3270.26
532.248	3343.99
532.455	3583.6
532.661	3143.29
532.868	3110.52
533.074	3683.95
533.281	3718.77
533.487	3262.07
533.694	3106.43
533.9	3448.44
534.107	3686
534.313	3239.55
534.52	3221.11
534.726	3778.16
534.933	3978.86
535.139	3257.98
535.345	3204.73
535.552	3675.76
535.758	3704.43
535.965	3425.91
536.171	3245.69
536.377	3872.37
536.584	3853.94
536.79	3176.06
536.996	3343.99
537.203	3761.78
537.409	3827.31
537.615	3509.88
537.821	3679.86
538.028	3888.75
538.234	3884.66
538.44	3436.15
538.646	3479.16
538.853	3911.28
539.059	3794.54
539.265	3786.35
539.471	3327.61
539.677	3886.7
539.883	3739.25
540.09	3532.4
540.296	4028.01
540.502	3708.53
540.708	3716.72
540.914	3769.97
541.12	3626.61
541.326	3974.77
541.532	3735.15
541.738	3812.98
541.944	3599.99
542.15	4241
542.356	3858.03
542.562	3491.45
542.768	3704.43
542.974	4404.84
543.18	4492.9
543.386	3602.04
543.592	3470.97
543.798	4304.49
544.004	4294.25
544.21	3767.92
544.415	3755.63
544.621	4132.46
544.827	4169.32
545.033	3702.39
545.239	3841.65
545.445	3716.72
545.651	4245.1
545.856	3653.23
546.062	3626.61
546.268	4023.92
546.474	4130.41
546.679	3774.07
546.885	3905.14
547.091	3907.18
547.297	4535.91
547.502	3942
547.708	3567.22
547.914	3993.2
548.119	4228.71
548.325	3792.5
548.531	3778.16
548.736	4527.72
548.942	3786.35
549.147	3786.35
549.353	4044.4
549.559	4406.89
549.764	4193.9
549.97	3845.74
550.175	3921.52
550.381	4269.67
550.586	3853.94
550.792	4007.53
550.997	3849.84
551.203	4277.87
551.408	4365.93
551.614	3931.76
551.819	3827.31
552.025	4591.2
552.23	4871.78
552.435	3769.97
552.641	4191.85
552.846	4140.65
553.052	4419.18
553.257	4040.3
553.462	4152.94
553.668	4220.52
553.873	4503.14
554.078	3956.33
554.283	3970.67
554.489	4433.51
554.694	4335.21
554.899	3929.71
555.105	4300.39
555.31	4607.59
555.515	4525.67
555.72	4183.66
555.925	4068.97
556.131	4664.93
556.336	4492.9
556.541	4042.35
556.746	4105.84
556.951	4716.13
557.156	4888.16
557.361	4216.43
557.567	4277.87
557.772	5097.05
557.977	4722.27
558.182	4138.6
558.387	4161.13
558.592	4306.54
558.797	4658.79
559.002	4259.43
559.207	4171.37
559.412	4570.72
559.617	4830.82
559.822	4085.36
560.027	4171.37
560.232	4564.58
560.437	4572.77
560.642	4021.87
560.847	4216.43
561.051	4609.64
561.256	4759.14
561.461	4410.98
561.666	4126.32
561.871	4746.85
562.076	4757.09
562.281	4376.17
562.485	4312.68
562.69	4900.45
562.895	4857.44
563.1	4359.78
563.305	4185.71
563.509	4931.17
563.714	5052
563.919	4304.49
564.123	4259.43
564.328	4699.75
564.533	4947.55
564.737	4630.12
564.942	4406.89
565.147	4992.61
565.351	5166.68
565.556	4376.17
565.761	4433.51
565.965	4740.71
566.17	4482.66
566.374	4327.02
566.579	4345.45
566.784	4908.64
566.988	4474.47
567.193	4331.11
567.397	4486.76
567.602	4449.89
567.806	4658.79
568.011	4380.26
568.215	4607.59
568.42	4724.32
568.624	4666.98
568.828	4372.07
569.033	4634.21
569.237	4922.98
569.442	5056.09
569.646	4167.28
569.85	4519.53
570.055	4783.71
570.259	4748.9
570.463	4666.98
570.668	4544.1
570.872	4767.33
571.076	4648.55
571.281	4671.08
571.485	4632.16
571.689	4746.85
571.893	5078.62
572.098	4720.23
572.302	4671.08
572.506	4931.17
572.71	4925.02
572.914	4552.29
573.119	4687.46
573.323	5314.14
573.527	5293.66
573.731	4466.28
573.935	4509.29
574.139	5056.09
574.343	4634.21
574.547	4650.6
574.751	4697.7
574.955	5115.48
575.159	5310.04
575.364	4607.59
575.568	4556.39
575.772	5125.72
575.976	5207.64
576.18	4656.74
576.383	4560.49
576.587	5400.15
576.791	5215.84
576.995	4490.85
577.199	4542.05
577.403	5125.72
577.607	5432.92
577.811	4683.36
578.015	4918.88
578.219	5088.86
578.422	5412.44
578.626	4798.05
578.83	5154.4
579.034	5264.99
579.238	5090.91
579.442	4931.17
579.645	5191.26
579.849	5037.66
580.053	5185.12
580.257	4781.67
580.46	4832.86
580.664	5236.31
580.868	5097.05
581.071	4976.22
581.275	5033.57
581.479	4746.85
581.682	5400.15
581.886	4826.72
582.09	4867.68
582.293	5275.23
582.497	5484.12
582.7	5275.23
582.904	4877.92
583.107	5119.58
583.311	5072.48
583.515	5011.04
583.718	4836.96
583.922	5471.83
584.125	5752.4
584.329	4922.98
584.532	5125.72
584.735	5629.52
584.939	5312.09
585.142	4937.31
585.346	4937.31
585.549	5482.07
585.753	5262.94
585.956	5125.72
586.159	5154.4
586.363	5776.98
586.566	5412.44
586.769	4929.12
586.973	4857.44
587.176	5480.02
587.379	5666.39
587.582	5406.3
587.786	5170.78
587.989	5426.78
588.192	5973.58
588.395	5150.3
588.599	5498.45
588.802	5508.69
589.005	5576.28
589.208	5193.31
589.411	5135.96
589.615	5811.79
589.818	5723.73
590.021	5416.54
590.224	5209.69
590.427	5654.1
590.63	5645.91
590.833	5150.3
591.036	5228.12
591.239	5486.17
591.442	5310.04
591.645	5422.68
591.848	5142.11
592.051	5596.76
592.254	5650
592.457	5244.51
592.66	5244.51
592.863	5555.8
593.066	5762.64
593.269	5211.74
593.472	5377.62
593.675	5260.89
593.878	5930.58
594.081	5385.82
594.284	5217.88
594.486	5865.04
594.689	5580.37
594.892	5449.3
595.095	5305.95
595.298	5709.4
595.5	5342.81
595.703	5459.54
595.906	5498.45
596.109	6020.69
596.311	5828.18
596.514	5105.24
596.717	5451.35
596.92	6035.02
597.122	5793.36
597.325	5228.12
597.528	5465.69
597.73	6024.78
597.933	5707.35
598.136	5592.66
598.338	5332.57
598.541	5848.66
598.743	6055.5
598.946	5463.64
599.148	5514.84
599.351	6164.04
599.554	6106.7
599.756	5525.08
599.959	5705.3
600.161	5987.92
600.363	6362.7
600.566	5809.75
600.768	5539.41
600.971	6166.09
601.173	6020.69
601.376	5475.93
601.578	5619.28
601.78	5942.86
601.983	6346.31
602.185	5400.15
602.388	5901.9
602.59	6057.55
602.792	5760.59
602.995	5756.5
603.197	5391.96
603.399	6098.51
603.601	5830.23
603.804	5656.15
604.006	5551.7
604.208	5963.34
604.41	5469.78
604.613	5779.03
604.815	5547.61
605.017	6612.55
605.219	5707.35
605.421	5901.9
605.623	5623.38
605.826	6327.88
606.028	6250.06
606.23	5516.89
606.432	5756.5
606.634	6475.34
606.836	6288.97
607.038	5615.19
607.24	5801.55
607.442	6073.93
607.644	5977.68
607.846	5719.64
608.048	5697.11
608.25	6295.11
608.452	5647.96
608.654	5670.48
608.856	5506.65
609.058	5787.22
609.26	6137.42
609.462	5858.9
609.664	5756.5
609.866	6583.88
610.067	6248.01
610.269	5951.06
610.471	5752.4
610.673	5822.03
610.875	6243.92
611.077	5744.21
611.278	5895.76
611.48	6194.76
611.682	6379.08
611.884	6030.93
612.085	5709.4
612.287	5807.7
612.489	5987.92
612.69	5725.78
612.892	5934.67
613.094	6323.79
613.295	6297.16
613.497	5678.68
613.699	5858.9
613.9	6530.63
614.102	6475.34
614.304	5920.34
614.505	5654.1
614.707	6106.7
614.908	6026.83
615.11	5668.44
615.311	5680.72
615.513	6241.87
615.714	6536.77
615.916	5660.24
616.117	5844.56
616.319	6221.39
616.52	6053.45
616.722	5729.88
616.923	5840.47
617.124	6223.44
617.326	6157.9
617.527	5967.44
617.729	6172.24
617.93	6198.86
618.131	6381.13
618.333	5889.62
618.534	5946.96
618.735	6045.26
618.937	6549.06
619.138	5727.83
619.339	5762.64
619.54	6145.61
619.742	5928.53
619.943	6080.08
620.144	5858.9
620.345	6559.3
620.546	6293.07
620.748	5867.09
620.949	5869.14
621.15	6313.55
621.351	6239.82
621.552	5906
621.753	5600.85
621.954	5801.55
622.155	6641.22
622.356	5727.83
622.558	6084.17
622.759	6446.66
622.96	6671.94
623.161	5881.42
623.362	5776.98
623.563	6276.68
623.764	6297.16
623.965	6123.09
624.166	6051.41
624.366	6264.4
624.567	6147.66
624.768	5678.68
624.969	5856.85
625.17	6090.32
625.371	6473.29
625.572	5977.68
625.773	5789.27
625.973	6430.28
626.174	6358.6
626.375	6075.98
626.576	6084.17
626.777	6592.07
626.977	6739.52
627.178	5738.07
627.379	6102.61
627.58	6313.55
627.78	6194.76
627.981	6092.37
628.182	6071.89
628.382	6678.08
628.583	5916.24
628.784	5912.14
628.984	6039.12
629.185	6446.66
629.386	6467.14
629.586	6125.13
629.787	6104.65
629.987	6360.65
630.188	6684.23
630.388	6032.97
630.589	5998.16
630.79	6897.22
630.99	6188.62
631.191	6190.67
631.391	6227.53
631.591	6524.49
631.792	6725.19
631.992	6225.48
632.193	6231.63
632.393	6671.94
632.594	6344.27
632.794	6104.65
632.994	6030.93
633.195	6346.31
633.395	6424.14
633.595	5979.73
633.796	6385.23
633.996	6336.07
634.196	6690.37
634.397	6026.83
634.597	6288.97
634.797	6133.33
634.997	6676.04
635.198	6307.4
635.398	5889.62
635.598	6579.78
635.798	6534.73
635.998	6487.62
636.199	6098.51
636.399	6178.38
636.599	6252.11
636.799	6043.21
636.999	6299.21
637.199	6583.88
637.399	6628.93
637.599	6172.24
637.799	6272.59
637.999	6307.4
638.199	6655.56
638.399	6147.66
638.599	6037.07
638.799	6667.84
638.999	7024.19
639.199	6235.72
639.399	6432.33
639.599	6837.83
639.799	6125.13
639.999	6235.72
640.199	6014.54
640.399	6393.42
640.599	6534.73
640.799	6415.94
640.998	6422.09
641.198	6837.83
641.398	6571.59
641.598	6334.03
641.798	6430.28
641.997	7487.03
642.197	6374.99
642.397	6399.56
642.597	6252.11
642.796	6717
642.996	6839.87
643.196	6432.33
643.395	6288.97
643.595	6571.59
643.795	5932.62
643.994	6381.13
644.194	6336.07
644.394	6819.39
644.593	6811.2
644.793	6139.47
644.992	6319.69
645.192	6833.73
645.392	6123.09
645.591	6499.91
645.791	6540.87
645.99	6852.16
646.19	6454.86
646.389	6311.5
646.589	6272.59
646.788	6725.19
646.987	6663.75
647.187	6590.02
647.386	6477.38
647.586	6669.89
647.785	6862.4
647.984	6454.86
648.184	6424.14
648.383	6594.12
648.582	6680.13
648.782	6313.55
648.981	6604.36
649.18	6481.48
649.38	6843.97
649.579	6393.42
649.778	6241.87
649.977	6575.69
650.177	6850.11
650.376	6280.78
650.575	6133.33
650.774	7233.08
650.973	6596.17
651.173	6276.68
651.372	6499.91
651.571	6684.23
651.77	6950.46
651.969	6399.56
652.168	6567.49
652.367	6456.9
652.566	6686.28
652.765	6397.51
652.964	6673.99
653.163	6917.7
653.362	6622.79
653.561	6424.14
653.76	6387.27
653.959	6461
654.158	6825.54
654.357	6512.2
654.556	6436.42
654.755	6772.29
654.954	6747.72
655.153	6530.63
655.352	6557.25
655.551	7155.26
655.749	6602.31
655.948	6514.25
656.147	6661.7
656.346	6995.52
656.545	6669.89
656.743	6616.65
656.942	6432.33
657.141	6776.39
657.34	6575.69
657.538	6434.38
657.737	6581.83
657.936	6577.73
658.135	7061.05
658.333	6516.3
658.532	6710.85
658.731	7089.73
658.929	7038.53
659.128	6805.06
659.326	6624.84
659.525	7108.16
659.724	6755.91
659.922	6274.63
660.121	6309.45
660.319	6741.57
660.518	6497.86
660.716	6321.74
660.915	6704.71
661.113	7212.6
661.312	6473.29
661.51	6571.59
661.709	6481.48
661.907	6944.32
662.105	7179.84
662.304	6407.75
662.502	6743.62
662.701	7151.17
662.899	6690.37
663.097	6934.08
663.296	6522.44
663.494	7165.5
663.692	7388.73
663.891	6403.66
664.089	6549.06
664.287	6987.33
664.485	7077.44
664.684	6612.55
664.882	6491.72
665.08	6755.91
665.278	6915.65
665.476	6432.33
665.675	6800.96
665.873	7235.13
666.071	7212.6
666.269	6477.38
666.467	6719.04
666.665	6903.36
666.863	6653.51
667.061	6690.37
667.259	6635.08
667.457	6760
667.655	6884.93
667.853	6499.91
668.051	6649.41
668.249	6708.8
668.447	7116.35
668.645	6508.1
668.843	6862.4
669.041	6952.51
669.239	6673.99
669.437	6663.75
669.635	6700.61
669.833	6604.36
670.031	6952.51
670.229	6714.95
670.426	6809.15
670.624	6735.43
670.822	6465.1
671.02	6483.53
671.218	6493.77
671.415	6479.43
671.613	6866.5
671.811	6651.46
672.009	6561.35
672.206	6934.08
672.404	6884.93
672.602	6659.65
672.799	6702.66
672.997	6917.7
673.195	6952.51
673.392	6639.17
673.59	6370.89
673.788	7032.38
673.985	6401.61
674.183	6688.32
674.38	6604.36
674.578	7018.05
674.775	6530.63
674.973	6452.81
675.17	6475.34
675.368	7130.69
675.565	6868.55
675.763	6547.01
675.96	6366.79
676.158	7007.81
676.355	6557.25
676.553	6686.28
676.75	6383.18
676.947	6774.34
677.145	6690.37
677.342	6538.82
677.539	6567.49
677.737	6821.44
677.934	7196.22
678.131	6643.27
678.329	6504.01
678.526	7163.45
678.723	6946.37
678.92	6645.32
679.118	6561.35
679.315	6489.67
679.512	7138.88
679.709	6596.17
679.906	6526.54
680.104	7061.05
680.301	6921.79
680.498	6309.45
680.695	6215.24
680.892	6620.74
681.089	6579.78
681.286	6499.91
681.483	6215.24
681.68	6839.87
681.877	6921.79
682.075	6483.53
682.272	6557.25
682.469	6630.98
682.665	6659.65
682.862	6374.99
683.059	6327.88
683.256	6770.24
683.453	6680.13
683.65	6458.95
683.847	6563.4
684.044	6596.17
684.241	6286.92
684.438	6600.26
684.635	6327.88
684.831	7190.08
685.028	7247.42
685.225	6440.52
685.422	6491.72
685.619	6514.25
685.815	6696.52
686.012	6899.27
686.209	6432.33
686.405	6518.34
686.602	6813.25
686.799	6430.28
686.996	6293.07
687.192	6202.96
687.389	7095.87
687.586	6395.47
687.782	6334.03
687.979	7026.24
688.175	6909.51
688.372	6448.71
688.568	6284.87
688.765	6403.66
688.962	7016
689.158	6411.85
689.355	6309.45
689.551	6850.11
689.748	6667.84
689.944	6551.11
690.14	6272.59
690.337	6753.86
690.533	6344.27
690.73	6471.24
690.926	6325.83
691.123	6456.9
691.319	6497.86
691.515	6245.96
691.712	6489.67
691.908	6913.6
692.104	6501.96
692.301	6559.3
692.497	6248.01
692.693	6717
692.889	6811.2
693.086	6372.94
693.282	6168.14
693.478	6538.82
693.674	6940.22
693.87	6291.02
694.067	5967.44
694.263	6618.69
694.459	6520.39
694.655	6465.1
694.851	6297.16
695.047	6626.89
695.243	6678.08
695.439	6331.98
695.635	6260.3
695.831	6684.23
696.027	6712.9
696.224	6286.92
696.42	6710.85
696.615	6870.59
696.811	6702.66
697.007	6227.53
697.203	6280.78
697.399	6567.49
697.595	6770.24
697.791	6274.63
697.987	6233.68
698.183	6209.1
698.379	6428.23
698.575	6493.77
698.77	6213.2
698.966	6579.78
699.162	6727.24
699.358	6270.54
699.554	6157.9
699.749	6590.02
699.945	6700.61
700.141	6237.77
700.337	6391.37
700.532	6331.98
700.728	6143.56
700.924	6051.41
701.119	6207.05
701.315	6645.32
701.511	6295.11
701.706	6221.39
701.902	5975.63
702.097	6303.31
702.293	6413.9
702.489	6307.4
702.684	6162
702.88	6417.99
703.075	6202.96
703.271	6374.99
703.466	6262.35
703.662	6592.07
703.857	6477.38
704.053	6157.9
704.248	6264.4
704.443	6444.62
704.639	6452.81
704.834	6215.24
705.03	6149.71
705.225	6590.02
705.42	6596.17
705.616	6141.52
705.811	5973.58
706.006	6252.11
706.202	6260.3
706.397	6149.71
706.592	5989.97
706.787	6456.9
706.983	6399.56
707.178	6436.42
707.373	6297.16
707.568	6551.11
707.763	6538.82
707.959	6116.94
708.154	6106.7
708.349	6374.99
708.544	6432.33
708.739	6352.46
708.934	5987.92
709.129	6463.05
709.324	6729.28
709.519	5994.06
709.714	5850.71
709.909	6807.11
710.104	6430.28
710.299	6016.59
710.494	6209.1
710.689	6319.69
710.884	6245.96
711.079	6073.93
711.274	6276.68
711.469	6442.57
711.664	6477.38
711.859	5920.34
712.054	6127.18
712.249	6422.09
712.443	6700.61
712.638	5850.71
712.833	5895.76
713.028	6196.81
713.223	6235.72
713.417	6385.23
713.612	6121.04
713.807	6342.22
714.002	7001.66
714.196	6403.66
714.391	5940.82
714.586	6475.34
714.78	6250.06
714.975	5901.9
715.17	5879.38
715.364	6256.2
715.559	6647.37
715.754	5873.23
715.948	5942.86
716.143	6567.49
716.337	6362.7
716.532	6184.52
716.726	5959.25
716.921	6399.56
717.115	6768.2
717.31	5873.23
717.504	6391.37
717.699	6159.95
717.893	6407.75
718.088	6037.07
718.282	5887.57
718.476	6284.87
718.671	6194.76
718.865	5848.66
719.059	5744.21
719.254	6192.72
719.448	6653.51
719.642	7206.46
719.837	5678.68
720.031	6321.74
720.225	6305.35
720.419	5844.56
720.614	5899.86
720.808	6264.4
721.002	6078.03
721.196	5834.32
721.39	5858.9
721.585	6282.83
721.779	6180.43
721.973	5893.71
722.167	5678.68
722.361	6106.7
722.555	6438.47
722.749	5822.03
722.943	5781.07
723.137	5846.61
723.331	6198.86
723.525	5963.34
723.719	5875.28
723.913	6340.17
724.107	6444.62
724.301	5807.7
724.495	5903.95
724.689	6604.36
724.883	6399.56
725.077	5656.15
725.271	5989.97
725.465	6288.97
725.659	6014.54
725.853	5908.05
726.046	5756.5
726.24	5813.84
726.434	6237.77
726.628	5729.88
726.822	5674.58
727.015	6256.2
727.209	6088.27
727.403	5742.16
727.596	5576.28
727.79	6168.14
727.984	6276.68
728.177	5776.98
728.371	5924.43
728.565	6399.56
728.758	5760.59
728.952	5660.24
729.146	5740.12
729.339	6200.91
729.533	6057.55
729.726	5764.69
729.92	5693.01
730.113	6362.7
730.307	6073.93
730.5	5895.76
730.694	5650
730.887	5940.82
731.081	6078.03
731.274	5797.46
731.468	5871.19
731.661	5949.01
731.854	5891.66
732.048	5875.28
732.241	5686.87
732.435	5860.95
732.628	6133.33
732.821	5817.94
733.014	5854.8
733.208	5639.76
733.401	6315.59
733.594	5711.44
733.788	5781.07
733.981	6278.73
734.174	6276.68
734.367	5738.07
734.56	5699.16
734.754	6141.52
734.947	5914.19
735.14	5588.57
735.333	5975.63
735.526	6262.35
735.719	5645.91
735.912	5793.36
736.105	5693.01
736.298	5903.95
736.491	5951.06
736.684	5584.47
736.877	5674.58
737.07	6035.02
737.263	6162
737.456	5592.66
737.649	5660.24
737.842	5856.85
738.035	6008.4
738.228	5758.55
738.421	5760.59
738.614	6360.65
738.807	6159.95
739	5467.74
739.192	5523.03
739.385	6067.79
739.578	6123.09
739.771	6098.51
739.964	5717.59
740.156	5959.25
740.349	5975.63
740.542	5744.21
740.735	5670.48
740.927	5572.18
741.12	5670.48
741.313	5506.65
741.505	5836.37
741.698	6006.35
741.891	5826.13
742.083	5729.88
742.276	5688.92
742.468	5955.15
742.661	5752.4
742.854	5785.17
743.046	5637.72
743.239	6291.02
743.431	5938.77
743.624	5432.92
743.816	5457.5
744.009	5867.09
744.201	6016.59
744.393	5645.91
744.586	5486.17
744.778	6061.65
744.971	5750.35
745.163	5684.82
745.355	5697.11
745.548	5811.79
745.74	5684.82
745.932	5793.36
746.125	5533.27
746.317	6301.26
746.509	5936.72
746.702	5619.28
746.894	5693.01
747.086	5951.06
747.278	6014.54
747.471	5785.17
747.663	5781.07
747.855	5705.3
748.047	6237.77
748.239	5516.89
748.431	5580.37
748.623	6266.44
748.815	6282.83
749.008	5361.24
749.2	5623.38
749.392	5918.29
749.584	5893.71
749.776	5742.16
749.968	5619.28
750.16	6223.44
750.352	5693.01
750.544	5596.76
750.736	5367.38
750.928	5926.48
751.12	5996.11
751.311	5373.53
751.503	5539.41
751.695	5817.94
751.887	5629.52
752.079	5351
752.271	5563.99
752.463	6495.82
752.654	6114.89
752.846	5746.26
753.038	5527.13
753.23	5625.43
753.421	5854.8
753.613	5518.93
753.805	5561.94
753.997	5959.25
754.188	5985.87
754.38	5351
754.572	5514.84
754.763	5574.23
754.955	5813.84
755.146	5455.45
755.338	5406.3
755.53	5869.14
755.721	5637.72
755.913	5328.47
756.104	5404.25
756.296	5602.9
756.487	5996.11
756.679	5277.27
756.87	5607
757.062	5531.22
757.253	5799.51
757.445	5461.59
757.636	5412.44
757.827	5592.66
758.019	6301.26
758.21	5187.16
758.401	5379.67
758.593	6182.48
758.784	6000.21
758.975	5252.7
759.167	5326.43
759.358	5539.41
759.549	5942.86
759.74	5242.46
759.932	5389.91
760.123	5789.27
760.314	5385.82
760.505	5514.84
760.696	5314.14
760.888	6131.28
761.079	5596.76
761.27	5316.19
761.461	5123.68
761.652	5738.07
761.843	5496.41
762.034	5457.5
762.225	5416.54
762.416	5449.3
762.607	5533.27
762.798	5344.86
762.989	5131.87
763.18	6340.17
763.371	5418.58
763.562	5080.67
763.753	5285.47
763.944	5520.98
764.135	5744.21
764.326	5437.02
764.517	5146.2
764.708	5547.61
764.899	5615.19
765.089	5000.8
765.28	4912.74
765.471	5512.79
765.662	5617.24
765.853	5275.23
766.043	4990.56
766.234	5760.59
766.425	5600.85
766.615	5031.52
766.806	5076.57
766.997	5635.67
767.187	5459.54
767.378	5113.44
767.569	4902.5
767.759	5391.96
767.95	5518.93
768.141	5133.92
768.331	4963.93
768.522	5285.47
768.712	5473.88
768.903	4953.7
769.093	4953.7
769.284	5492.31
769.474	5383.77
769.665	4763.23
769.855	4949.6
770.046	5312.09
770.236	5332.57
770.426	5252.7
770.617	4841.06
770.807	5131.87
770.998	5185.12
771.188	5211.74
771.378	4644.45
771.569	5398.1
771.759	5592.66
771.949	4802.15
772.139	4851.3
772.33	5144.16
772.52	5568.09
772.71	4886.11
772.9	4732.51
773.09	5641.81
773.281	5615.19
773.471	4871.78
773.661	4929.12
773.851	5396.06
774.041	5254.75
774.231	4800.1
774.421	5013.09
774.611	5439.06
774.802	5105.24
774.992	4947.55
775.182	4730.47
775.372	5121.63
775.562	5609.05
775.752	4783.71
775.942	4822.63
776.131	5437.02
776.321	5305.95
776.511	4759.14
776.701	4810.34
776.891	5195.36
777.081	4767.33
777.271	4816.48
777.461	4781.67
777.651	5213.79
777.84	5342.81
778.03	4982.37
778.22	4617.83
778.41	5338.71
778.599	4742.75
778.789	4773.47
778.979	4617.83
779.169	5072.48
779.358	5021.28
779.548	4984.41
779.738	4527.72
779.927	5041.76
780.117	4673.12
780.307	4583.01
780.496	4558.44
780.686	5103.2
780.875	5404.25
781.065	4650.6
781.254	4697.7
781.444	4746.85
781.633	5002.85
781.823	4535.91
782.012	4484.71
782.202	4752.99
782.391	4847.2
782.581	4574.82
782.77	4748.9
782.96	5023.33
783.149	4744.8
783.338	4507.24
783.528	4333.16
783.717	5115.48
783.906	5193.31
784.096	4703.84
784.285	4380.26
784.474	4814.43
784.663	4675.17
784.853	4597.35
785.042	4511.33
785.231	4740.71
785.42	5260.89
785.61	4658.79
785.799	4519.53
785.988	4607.59
786.177	4585.06
786.366	4507.24
786.555	4658.79
786.744	4884.06
786.933	4755.04
787.122	4515.43
787.312	4259.43
787.501	4525.67
787.69	4834.91
787.879	4535.91
788.068	4449.89
788.257	4324.97
788.445	4613.73
788.634	4583.01
788.823	4263.53
789.012	5379.67
789.201	5101.15
789.39	4427.37
789.579	4415.08
789.768	4732.51
789.957	4597.35
790.145	4361.83
790.334	4310.63
790.523	4593.25
790.712	4490.85
790.9	4478.57
791.089	4238.95
791.278	4843.1
791.467	4726.37
791.655	4703.84
791.844	4796
792.033	4494.95
792.221	4507.24
792.41	4634.21
792.599	4013.68
792.787	4734.56
792.976	4605.54
793.164	4118.12
793.353	4310.63
793.541	4773.47
793.73	4875.87
793.918	4306.54
794.107	4261.48
794.295	4591.2
794.484	4578.92
794.672	4359.78
794.861	4230.76
795.049	4859.49
795.238	5064.29
795.426	4159.08
795.614	4367.98
795.803	4650.6
795.991	4927.07
796.179	4284.01
796.368	4425.32
796.556	4748.9
796.744	4218.47
796.932	4134.51
797.121	4163.18
797.309	4535.91
797.497	4847.2
797.685	4191.85
797.874	4304.49
798.062	4427.37
798.25	4789.86
798.438	4120.17
798.626	4134.51
798.814	4507.24
799.002	5162.59
799.19	4419.18
799.378	4257.39
799.566	4763.23
799.755	4810.34
799.943	4253.29
800.131	4146.8
800.318	4503.14
800.506	4677.22
800.694	4109.93
800.882	4202.09
801.07	4822.63
801.258	4453.99
801.446	4273.77
801.634	4204.14
801.822	4431.46
802.01	4290.15
802.197	4322.92
802.385	4249.19
802.573	4617.83
802.761	4439.65
802.949	4286.06
803.136	4015.73
803.324	4757.09
803.512	4648.55
803.699	4173.42
803.887	4019.82
804.075	4818.53
804.262	4458.09
804.45	4032.11
804.638	4441.7
804.825	4433.51
805.013	4337.26
805.201	4173.42
805.388	4028.01
805.576	4583.01
805.763	4879.97
805.951	4228.71
806.138	4449.89
806.326	4986.46
806.513	4666.98
806.701	4271.72
806.888	4314.73
807.075	4660.84
807.263	5090.91
807.45	4093.55
807.638	4417.13
807.825	4875.87
808.012	4730.47
808.2	4318.82
808.387	4497
808.574	4709.99
808.761	4941.41
808.949	4370.02
809.136	4384.36
809.323	4458.09
809.51	4531.81
809.698	4456.04
809.885	4384.36
810.072	4640.36
810.259	4820.58
810.446	4456.04
810.633	4277.87
810.82	4775.52
811.008	5068.38
811.195	4458.09
811.382	4318.82
811.569	4589.16
811.756	4101.74
811.943	4339.3
812.13	4261.48
812.317	4322.92
812.504	4511.33
812.691	4306.54
812.878	4433.51
813.064	4875.87
813.251	4613.73
813.438	4200.04
813.625	4357.74
813.812	4617.83
813.999	4507.24
814.186	4394.6
814.372	4267.63
814.559	4650.6
814.746	4931.17
814.933	4245.1
815.12	4574.82
815.306	4445.8
815.493	4349.54
815.68	4216.43
815.866	4376.17
816.053	5006.94
816.24	5138.01
816.426	4429.42
816.613	4173.42
816.799	4757.09
816.986	4695.65
817.173	4218.47
817.359	4355.69
817.546	4619.88
817.732	4402.79
817.919	4095.6
818.105	4343.4
818.292	4474.47
818.478	4699.75
818.665	4353.64
818.851	4200.04
819.037	5049.95
819.224	4615.78
819.41	3933.81
819.597	4277.87
819.783	5011.04
819.969	4742.75
820.156	4271.72
820.342	4273.77
820.528	5342.81
820.714	4419.18
820.901	4542.05
821.087	4245.1
821.273	4843.1
821.459	4486.76
821.646	4232.81
821.832	4191.85
822.018	4570.72
822.204	4503.14
822.39	4292.2
822.576	4105.84
822.762	4556.39
822.948	4470.37
823.134	4486.76
823.32	4253.29
823.507	4204.14
823.693	4646.5
823.879	4722.27
824.065	4154.99
824.25	4640.36
824.436	4120.17
824.622	4154.99
824.808	4091.5
824.994	4320.87
825.18	4335.21
825.366	3964.53
825.552	4116.08
825.738	4437.61
825.923	4712.03
826.109	4503.14
826.295	4238.95
826.481	4214.38
826.667	4290.15
826.852	4302.44
827.038	4093.55
827.224	4568.68
827.409	4910.69
827.595	3882.61
827.781	4200.04
827.966	4533.86
828.152	4697.7
828.338	4339.3
828.523	3931.76
828.709	4173.42
828.894	4578.92
829.08	4068.97
829.266	4015.73
829.451	4122.22
829.637	4384.36
829.822	4204.14
830.008	3843.7
830.193	4445.8
830.378	4744.8
830.564	4177.51
830.749	3982.96
830.935	4464.23
831.12	4488.81
831.305	3982.96
831.491	4066.92
831.676	3995.25
831.861	4521.57
832.047	3991.15
832.232	3780.21
832.417	4515.43
832.602	4413.03
832.788	3974.77
832.973	4015.73
833.158	4197.99
833.343	4200.04
833.528	4132.46
833.714	3999.34
833.899	4404.84
834.084	4808.29
834.269	4107.88
834.454	3933.81
834.639	4533.86
834.824	4298.35
835.009	4089.45
835.194	4159.08
835.379	4435.56
835.564	4408.94
835.749	4064.88
835.934	3798.64
836.119	4361.83
836.304	4165.23
836.489	3942
836.674	4097.64
836.859	3901.04
837.044	4564.58
837.228	3991.15
837.413	3837.55
837.598	4361.83
837.783	4396.65
837.968	3974.77
838.152	3704.43
838.337	3821.17
838.522	4388.46
838.707	4351.59
838.891	4032.11
839.076	4304.49
839.261	4296.3
839.445	3931.76
839.63	4003.44
839.815	4527.72
839.999	4040.3
840.184	3931.76
840.368	3790.45
840.553	4247.15
840.737	4400.74
840.922	3743.35
841.106	3720.82
841.291	3864.18
841.475	4142.7
841.66	3749.49
841.844	3823.22
842.029	4761.19
842.213	3690.1
842.397	3812.98
842.582	3542.64
842.766	4396.65
842.951	4284.01
843.135	3718.77
843.319	3720.82
843.504	3991.15
843.688	4085.36
843.872	3434.1
844.056	3489.4
844.241	4081.26
844.425	4169.32
844.609	3876.46
844.793	3479.16
844.977	4195.95
845.161	4126.32
845.346	3624.56
845.53	3667.57
845.714	3954.29
845.898	4314.73
846.082	3454.58
846.266	3647.09
846.45	3976.81
846.634	3970.67
846.818	3640.95
847.002	3804.78
847.186	4032.11
847.37	3694.19
847.554	3483.25
847.738	3765.87
847.922	4001.39
848.106	4091.5
848.29	3524.21
848.473	3569.27
848.657	4122.22
848.841	3778.16
849.025	3679.86
849.209	3430.01
849.392	4044.4
849.576	3896.94
849.76	3335.8
849.944	3602.04
850.127	4097.64
850.311	3550.84
850.495	3415.67
850.678	3292.79
850.862	4154.99
851.046	4187.75
851.229	3774.07
851.413	3444.34
851.596	3954.29
851.78	3935.85
851.964	3634.8
852.147	3530.36
852.331	4630.12
852.514	4015.73
852.698	3622.52
852.881	3493.49
853.065	3958.38
853.248	3790.45
853.431	3745.39
853.615	3565.17
853.798	4370.02
853.982	3835.5
854.165	3636.85
854.348	3393.14
854.532	3546.74
854.715	3614.32
854.898	3636.85
855.081	3348.09
855.265	4109.93
855.448	4099.69
855.631	3339.9
855.814	3380.86
855.997	4089.45
856.181	3692.15
856.364	3475.06
856.547	3233.4
856.73	3804.78
856.913	3640.95
857.096	3245.69
857.279	3413.62
857.462	3608.18
857.645	3751.54
857.828	3380.86
858.011	3522.16
858.194	3417.72
858.377	3776.11
858.56	3288.7
858.743	3358.33
858.926	3491.45
859.109	3647.09
859.292	3313.27
859.475	3192.44
859.658	3964.53
859.841	3626.61
860.023	3413.62
860.206	3131
860.389	3729.01
860.572	3901.04
860.755	3176.06
860.937	3403.38
861.12	3530.36
861.303	3599.99
861.486	3300.98
861.668	3343.99
861.851	3616.37
862.034	3528.31
862.216	3387
862.399	3040.89
862.581	3661.43
862.764	3724.91
862.947	3270.26
863.129	3098.24
863.312	3237.5
863.494	3878.51
863.677	3397.24
863.859	2983.55
864.042	3688.05
864.224	3833.46
864.406	3208.83
864.589	3024.51
864.771	3503.73
864.954	3180.15
865.136	3067.52
865.318	2893.44
865.501	3520.12
865.683	2981.5
865.865	3104.38
866.048	2868.86
866.23	3618.42
866.412	3417.72
866.594	3004.03
866.777	3176.06
866.959	3583.6
867.141	3186.3
867.323	3456.63
867.505	3163.77
867.687	3477.11
867.869	3417.72
868.052	3204.73
868.234	2934.4
868.416	3354.23
868.598	3524.21
868.78	3182.2
868.962	2918.01
869.144	3589.75
869.326	3450.49
869.508	3073.66
869.69	3020.41
869.872	3262.07
870.054	3712.63
870.236	2885.25
870.417	3100.28
870.599	3131
870.781	3753.59
870.963	3257.98
871.145	3069.56
871.327	2918.01
871.508	3569.27
871.69	3090.04
871.872	3024.51
872.054	3225.21
872.235	3294.84
872.417	3090.04
872.599	2844.29
872.78	3712.63
872.962	3339.9
873.144	3001.98
873.325	3069.56
873.507	3640.95
873.689	3212.92
873.87	2958.97
874.052	3104.38
874.233	3257.98
874.415	3493.49
874.596	3067.52
874.778	2827.9
874.959	3352.18
875.141	3606.13
875.322	3122.81
875.503	2760.32
875.685	3468.92
875.866	2940.54
876.048	2987.65
876.229	2956.93
876.41	3214.97
876.592	3350.14
876.773	3049.08
876.954	2926.21
877.136	3665.52
877.317	3346.04
877.498	2799.23
877.679	3006.08
877.86	3335.8
878.042	3212.92
878.223	3001.98
878.404	3231.35
878.585	3475.06
878.766	3661.43
878.947	3335.8
879.128	3255.93
879.309	3462.77
879.49	3503.73
879.672	3077.76
879.853	3102.33
880.034	3049.08
880.215	3237.5
880.396	3065.47
880.576	3092.09
880.757	2991.74
880.938	3540.6
881.119	2958.97
881.3	3092.09
881.481	3280.5
881.662	4212.33
881.843	2913.92
882.023	2932.35
882.204	3468.92
882.385	3401.33
882.566	3141.24
882.747	3018.36
882.927	3442.29
883.108	3442.29
883.289	2989.69
883.469	3343.99
883.65	3294.84
883.831	3419.77
884.011	3196.54
884.192	2995.84
884.373	3761.78
884.553	3462.77
884.734	3184.25
884.914	3430.01
885.095	4021.87
885.275	3647.09
885.456	3477.11
885.636	3030.65
885.817	3446.39
885.997	3460.73
886.178	3014.27
886.358	3311.22
886.538	3772.02
886.719	4386.41
886.899	3116.67
887.08	3247.74
887.26	3839.6
887.44	3231.35
887.621	3233.4
887.801	3366.52
887.981	4054.64
888.161	3710.58
888.342	3305.08
888.522	3253.88
888.702	3866.22
888.882	3890.8
889.062	3524.21
889.242	2944.64
889.423	3942
889.603	3712.63
889.783	3321.46
889.963	3057.28
890.143	3688.05
890.323	3765.87
890.503	3122.81
890.683	3149.43
890.863	3407.48
891.043	3745.39
891.223	3352.18
891.403	3534.45
891.583	3540.6
891.763	3735.15
891.943	3296.89
892.122	3069.56
892.302	3401.33
892.482	3413.62
892.662	3262.07
892.842	3141.24
893.022	3524.21
893.201	3384.95
893.381	3430.01
893.561	3262.07
893.741	3577.46
893.92	3784.3
894.1	3225.21
894.28	3235.45
894.459	3731.06
894.639	3563.12
894.819	3303.03
894.998	3317.37
895.178	3444.34
895.357	3546.74
895.537	2981.5
895.716	3096.19
895.896	3444.34
896.075	3683.95
896.255	3186.3
896.434	2924.16
896.614	3780.21
896.793	3724.91
896.973	3468.92
897.152	3358.33
897.331	3491.45
897.511	3520.12
897.69	3040.89
897.87	3081.85
898.049	3548.79
898.228	3448.44
898.407	3450.49
898.587	3323.51
898.766	3077.76
898.945	3565.17
899.124	3321.46
899.304	3178.11
899.483	3395.19
899.662	3663.47
899.841	3128.95
900.02	3159.67
900.199	3559.03
900.378	3468.92
900.557	3020.41
900.737	2950.78
900.916	3366.52
901.095	3593.84
901.274	3360.38
901.453	3057.28
901.632	3055.23
901.811	3098.24
901.989	2995.84
902.168	2872.96
902.347	3577.46
902.526	3004.03
902.705	2932.35
902.884	3065.47
903.063	3526.26
903.242	3489.4
903.42	2926.21
903.599	3057.28
903.778	3413.62
903.957	3591.8
904.135	2950.78
904.314	2991.74
904.493	3257.98
904.672	3253.88
904.85	2893.44
905.029	2805.38
905.207	3149.43
905.386	3782.26
905.565	2760.32
905.743	2860.67
905.922	2973.31
906.1	3214.97
906.279	2729.6
906.457	2629.25
906.636	2948.73
906.814	2922.11
906.993	2762.37
907.171	2649.73
907.35	3260.02
907.528	3147.39
907.707	2950.78
907.885	2633.35
908.063	3368.57
908.242	2805.38
908.42	2659.97
908.598	2266.76
908.777	3069.56
908.955	2729.6
909.133	2729.6
909.311	2598.53
909.49	2868.86
909.668	2780.8
909.846	2588.29
910.024	2479.75
910.202	3057.28
910.38	3055.23
910.559	2518.66
910.737	2494.08
910.915	3012.22
911.093	3024.51
911.271	2694.79
911.449	2860.67
911.627	3110.52
911.805	3548.79
911.983	2801.28
912.161	2745.98
912.339	3008.12
912.517	3262.07
912.695	2909.82
912.872	2731.65
913.05	2879.1
913.228	3313.27
913.406	2793.09
913.584	2836.1
913.762	3202.68
913.939	2768.51
914.117	2698.88
914.295	2647.68
914.473	3116.67
914.65	3204.73
914.828	2729.6
915.006	2799.23
915.184	2723.46
915.361	2985.6
915.539	2858.62
915.716	2868.86
915.894	2967.17
916.072	3159.67
916.249	2954.88
916.427	2827.9
916.604	2805.38
916.782	3153.53
916.959	2602.63
917.137	2651.78
917.314	2983.55
917.492	3001.98
917.669	2725.51
917.847	2811.52
918.024	3036.8
918.201	2877.05
918.379	2711.17
918.556	2731.65
918.733	3204.73
918.911	2920.06
919.088	2930.3
919.265	2623.11
919.442	3049.08
919.62	2872.96
919.797	2690.69
919.974	2467.46
920.151	2891.39
920.328	2901.63
920.506	2668.16
920.683	2745.98
920.86	2639.49
921.037	2743.94
921.214	2766.46
921.391	2504.32
921.568	3083.9
921.745	2766.46
921.922	2590.34
922.099	2498.18
922.276	3059.32
922.453	2901.63
922.63	2518.66
922.807	2889.34
922.984	2809.47
923.161	2745.98
923.338	2442.89
923.514	2463.37
923.691	2989.69
923.868	2930.3
924.045	2504.32
924.222	2436.74
924.399	2897.53
924.575	3057.28
924.752	2655.87
924.929	2533
925.105	2860.67
925.282	2594.44
925.459	2502.28
925.635	2459.27
925.812	2758.27
925.989	2688.64
926.165	2537.09
926.342	2373.25
926.518	2631.3
926.695	2727.55
926.871	2494.08
927.048	2348.68
927.224	2848.38
927.401	2502.28
927.577	2303.62
927.754	2287.24
927.93	2868.86
928.107	2858.62
928.283	2301.58
928.459	2385.54
928.636	2817.66
928.812	2594.44
928.988	2315.91
929.165	2137.74
929.341	2588.29
929.517	2664.07
929.693	2723.46
929.87	2139.79
930.046	2596.48
930.222	2549.38
930.398	2207.37
930.574	2430.6
930.751	2543.24
930.927	2430.6
931.103	2340.49
931.279	2311.82
931.455	2344.58
931.631	2502.28
931.807	2021
931.983	2111.11
932.159	2150.03
932.335	2442.89
932.511	2279.05
932.687	2221.7
932.863	2461.32
933.039	2451.08
933.215	2012.81
933.391	1996.43
933.566	2338.44
933.742	2346.63
933.918	2172.55
934.094	1894.03
934.27	2227.85
934.445	2266.76
934.621	2150.03
934.797	1963.66
934.973	2410.12
935.148	2274.95
935.324	1758.86
935.5	1775.25
935.675	2469.51
935.851	2231.94
936.027	1928.85
936.202	1889.93
936.378	2207.37
936.553	2098.83
936.729	2176.65
936.904	1685.14
937.08	1709.71
937.255	1805.97
937.431	1599.12
937.606	1566.35
937.782	1722
937.957	1803.92
938.133	1689.23
938.308	1486.48
938.483	1873.55
938.659	1545.88
938.834	1611.41
939.009	1369.75
939.185	1676.95
939.36	1492.63
939.535	1068.7
939.71	1457.81
939.886	1863.31
940.061	1685.14
940.236	1513.11
940.411	1330.84
940.586	1748.62
940.761	1676.95
940.937	1312.41
941.112	1300.12
941.287	1517.2
941.462	1605.27
941.637	1062.55
941.812	1197.72
941.987	1603.22
942.162	1400.47
942.337	1361.56
942.512	1218.2
942.687	1631.89
942.862	1541.78
943.037	1089.18
943.212	861.85
943.386	1306.26
943.561	1504.92
943.736	1314.45
943.911	1574.55
944.086	1566.35
944.26	1504.92
944.435	1175.19
944.61	1214.1
944.785	1738.38
944.959	1785.49
945.134	1195.67
945.309	1142.43
945.483	1193.62
945.658	1582.74
945.833	845.47
946.007	956.06
946.182	1795.73
946.357	1095.32
946.531	1146.52
946.706	1046.17
946.88	964.25
947.055	1437.33
947.229	1193.62
947.404	994.97
947.578	1685.14
947.752	1427.09
947.927	1009.31
948.101	1031.83
948.276	1304.21
948.45	1459.86
948.624	1345.17
948.799	1089.18
948.973	1461.91
949.147	1207.96
949.321	1246.87
949.496	1234.58
949.67	1672.85
949.844	1392.28
950.018	1140.38
950.193	1236.63
950.367	1873.55
950.541	1277.59
950.715	1263.26
950.889	1476.24
951.063	1431.19
951.237	1701.52
951.411	1107.61
951.585	956.06
951.759	1537.68
951.933	1492.63
952.107	1250.97
952.281	1435.28
952.455	1760.91
952.629	1681.04
952.803	1179.29
952.977	1275.54
953.151	1697.42
953.325	1584.79
953.499	1461.91
953.672	1148.57
953.846	1353.37
954.02	1504.92
954.194	1167
954.368	1250.97
954.541	1566.35
954.715	1306.26
954.889	1357.46
955.062	1179.29
955.236	1459.86
955.41	1459.86
955.583	1437.33
955.757	1119.9
955.93	1371.8
956.104	1398.42
956.278	1271.45
956.451	1306.26
956.625	1619.6
956.798	2025.1
956.972	1605.27
957.145	1197.72
957.319	1558.16
957.492	1533.59
957.665	1451.67
957.839	1283.74
958.012	1734.29
958.185	1511.06
958.359	1379.99
958.532	1478.29
958.705	1726.1
958.879	1603.22
959.052	1496.72
959.225	1238.68
959.398	1537.68
959.572	1705.62
959.745	1312.41
959.918	1406.61
960.091	1515.16
960.264	1631.89
960.438	1238.68
960.611	1302.17
960.784	1681.04
960.957	1486.48
961.13	1754.77
961.303	1302.17
961.476	1570.45
961.649	1726.1
961.822	1169.05
961.995	1359.51
962.168	1640.08
962.341	1566.35
962.514	1238.68
962.686	1250.97
962.859	1623.7
963.032	1674.9
963.205	1285.78
963.378	1150.62
963.551	1611.41
963.723	1547.92
963.896	1549.97
964.069	1539.73
964.242	1568.4
964.414	1660.56
964.587	1328.79
964.76	1423
964.932	1642.13
965.105	1640.08
965.278	1228.44
965.45	1150.62
965.623	1531.54
965.795	1691.28
965.968	1355.41
966.14	1324.69
966.313	1423
966.485	1543.83
966.658	1248.92
966.83	1300.12
967.003	1791.63
967.175	1670.8
967.348	1220.25
967.52	1279.64
967.692	1814.16
967.865	1648.27
968.037	1265.3
968.209	1519.25
968.382	1463.96
968.554	1654.42
968.726	1347.22
968.898	1281.69
969.071	1683.09
969.243	1506.96
969.415	1296.02
969.587	1449.62
969.759	1930.89
969.932	1709.71
970.104	1390.23
970.276	868
970.448	1308.31
970.62	1384.09
970.792	1302.17
970.964	1271.45
971.136	2000.52
971.308	1681.04
971.48	1136.28
971.652	1232.54
971.824	1963.66
971.996	1453.72
972.168	1283.74
972.339	1322.65
972.511	1605.27
972.683	1363.61
972.855	1576.59
973.027	1197.72
973.199	1449.62
973.37	1541.78
973.542	1425.04
973.714	1322.65
973.886	1445.52
974.057	1738.38
974.229	1072.79
974.401	1193.62
974.572	1271.45
974.744	1070.75
974.915	1066.65
975.087	1171.1
975.259	1664.66
975.43	1334.93
975.602	1025.69
975.773	1021.6
975.945	1191.58
976.116	1539.73
976.288	980.64
976.459	1449.62
976.63	1302.17
976.802	1445.52
976.973	992.92
977.145	1285.78
977.316	1875.6
977.487	1664.66
977.659	1328.79
977.83	1083.03
978.001	1808.02
978.172	1509.01
978.344	1072.79
978.515	1103.51
978.686	1220.25
978.857	1746.58
979.028	1134.23
979.2	1091.23
979.371	1668.75
979.542	1414.81
979.713	1232.54
979.884	716.45
980.055	1023.64
980.226	1203.86
980.397	1070.75
980.568	1013.4
980.739	1607.31
980.91	1126.04
981.081	1279.64
981.252	1097.37
981.423	1472.15
981.594	1588.88
981.765	1007.26
981.936	1199.77
982.106	1324.69
982.277	1504.92
982.448	1027.74
982.619	1222.3
982.79	1134.23
982.96	1521.3
983.131	1074.84
983.302	878.24
983.472	1216.15
983.643	1230.49
983.814	1074.84
983.984	1033.88
984.155	1181.34
984.326	1429.14
984.496	1156.76
984.667	964.25
984.837	1058.46
985.008	1611.41
985.178	1273.5
985.349	1080.99
985.519	1259.16
985.69	1111.71
985.86	976.54
986.031	939.68
986.201	1222.3
986.371	1334.93
986.542	913.05
986.712	771.74
986.882	1228.44
987.053	1263.26
987.223	941.72
987.393	1078.94
987.563	1138.33
987.734	1431.19
987.904	1265.3
988.074	1015.45
988.244	1255.06
988.414	1033.88
988.585	888.48
988.755	1062.55
988.925	1152.67
989.095	1541.78
989.265	868
989.435	929.44
989.605	1277.59
989.775	1285.78
989.945	1173.14
990.115	716.45
990.285	1132.19
990.455	1207.96
990.625	937.63
990.795	732.83
990.965	1390.23
991.134	872.09
991.304	837.28
991.474	769.69
991.644	1250.97
991.814	1398.42
991.984	730.78
992.153	890.53
992.323	1095.32
992.493	1076.89
992.662	595.62
992.832	906.91
993.002	1019.55
993.171	1199.77
993.341	669.34
993.511	1001.12
993.68	816.8
993.85	1173.14
994.019	698.02
994.189	712.35
994.358	1119.9
994.528	911
994.697	478.88
994.867	657.06
995.036	1095.32
995.206	908.96
995.375	683.68
995.544	966.3
995.714	1070.75
995.883	951.96
996.052	845.47
996.222	544.42
996.391	1541.78
996.56	1060.51
996.73	622.24
996.899	501.41
997.068	1384.09
997.237	947.87
997.406	618.15
997.576	562.85
997.745	1011.36
997.914	1044.12
998.083	435.88
998.252	669.34
998.421	1037.98
998.59	851.61
998.759	593.57
998.928	468.64
999.097	1255.06
999.266	990.88
999.435	718.5
999.604	407.2
999.773	1402.52
999.942	884.38
1000.111	435.88
1000.28	405.16
1000.448	642.72
1000.617	683.68
1000.786	806.56
1000.955	413.35
1001.124	966.3
1001.292	1494.68
1001.461	599.71
1001.63	558.75
1001.798	1212.06
1001.967	1259.16
1002.136	489.12
1002.304	515.75
1002.473	894.62
1002.642	839.33
1002.81	618.15
1002.979	489.12
1003.147	972.44
1003.316	1355.41
1003.484	521.89
1003.653	487.08
1003.821	1111.71
1003.99	683.68
1004.158	661.15
1004.327	573.09
1004.495	913.05
1004.663	681.63
1004.832	618.15
1005	294.57
1005.168	964.25
1005.337	751.26
1005.505	429.73
1005.673	632.48
1005.842	894.62
1006.01	896.67
1006.178	329.38
1006.346	370.34
1006.514	988.83
1006.683	986.78
1006.851	394.92
1007.019	587.43
1007.187	618.15
1007.355	372.39
1007.523	237.22
1007.691	288.42
1007.859	474.79
1008.027	1113.75
1008.195	509.6
1008.363	327.33
1008.531	1027.74
1008.699	528.03
1008.867	265.89
1009.035	399.01
1009.203	1046.17
1009.37	677.54
1009.538	399.01
1009.706	716.45
1009.874	747.17
1010.042	620.19
1010.209	198.31
1010.377	310.95
1010.545	874.14
1010.713	837.28
1010.88	329.38
1011.048	396.96
1011.216	599.71
1011.383	968.35
1011.551	276.13
1011.718	272.04
1011.886	1072.79
1012.054	636.58
1012.221	177.83
1012.389	304.81
1012.556	566.95
1012.724	1134.23
1012.891	372.39
1013.058	79.53
1013.226	753.31
1013.393	853.66
1013.561	151.21
1013.728	153.26
1013.895	847.52
1014.063	808.61
1014.23	145.06
1014.397	259.75
1014.565	874.14
1014.732	556.71
1014.899	239.27
1015.066	222.89
1015.233	706.21
1015.401	847.52
1015.568	325.29
1015.735	466.6
1015.902	603.81
1016.069	732.83
1016.236	300.71
1016.403	145.06
1016.57	407.2
1016.737	894.62
1016.904	313
1017.071	138.92
1017.238	394.92
1017.405	855.71
1017.572	220.84
1017.739	454.31
1017.906	712.35
1018.073	790.17
1018.24	116.39
1018.407	253.61
1018.573	833.18
1018.74	575.14
1018.907	364.2
1019.074	71.34
1019.241	835.23
1019.407	601.76
1019.574	169.64
1019.741	50.86
1019.907	657.06
1020.074	636.58
1020.241	-129.36
1020.407	89.77
1020.574	618.15
1020.74	679.58
1020.907	167.59
1021.073	97.96
1021.24	1169.05
1021.406	917.15
1021.573	100.01
1021.739	161.45
1021.906	771.74
1022.072	501.41
1022.239	161.45
1022.405	190.12
1022.571	532.13
1022.738	237.22
1022.904	126.63
1023.07	226.98
1023.237	530.08
1023.403	781.98
1023.569	198.31
1023.735	132.78
1023.902	554.66
1024.068	577.19
1024.234	18.09
1024.4	100.01
1024.566	540.32
1024.732	724.64
1024.898	91.82
1025.065	-35.16
1025.231	704.16
1025.397	388.77
1025.563	100.01
1025.729	71.34
1025.895	50.86
1026.061	263.85
1026.227	-18.77
1026.392	120.49
1026.558	769.69
1026.724	554.66
1026.89	89.77
1027.056	155.3
1027.222	648.86
1027.388	321.19
1027.553	87.72
1027.719	104.11
1027.885	806.56
1028.051	593.57
1028.216	-143.7
1028.382	120.49
1028.548	743.07
1028.713	329.38
1028.879	54.95
1029.045	171.69
1029.21	827.04
1029.376	722.59
1029.541	149.16
1029.707	83.63
1029.873	673.44
1030.038	624.29
1030.204	9.9
1030.369	155.3
1030.534	677.54
1030.7	401.06
1030.865	69.29
1031.031	-6.49
1031.196	581.28
1031.361	478.88
1031.527	-51.54
1031.692	22.19
1031.857	100.01
1032.023	560.8
1032.188	20.14
1032.353	124.58
1032.518	767.65
1032.684	439.97
1032.849	22.19
1033.014	79.53
1033.179	595.62
1033.344	511.65
1033.509	83.63
1033.674	61.1
1033.839	501.41
1034.004	534.18
1034.17	32.43
1034.335	-45.4
1034.5	296.61
1034.664	235.18
1034.829	5.8
1034.994	9.9
1035.159	525.99
1035.324	362.15
1035.489	32.43
1035.654	-12.63
1035.819	773.79
1035.984	476.84
1036.148	126.63
1036.313	44.71
1036.478	669.34
1036.643	399.01
1036.807	-6.49
1036.972	-63.83
1037.137	724.64
1037.301	427.68
1037.466	-104.79
1037.631	91.82
1037.795	591.52
1037.96	409.25
1038.124	210.6
1038.289	-67.92
1038.454	593.57
1038.618	538.27
1038.783	167.59
1038.947	67.24
1039.111	439.97
1039.276	347.81
1039.44	-14.68
1039.605	493.22
1039.769	259.75
1039.933	337.57
1040.098	83.63
1040.262	181.93
1040.426	599.71
1040.591	460.45
1040.755	-35.16
1040.919	42.67
1041.083	505.51
1041.248	308.9
1041.412	-186.71
1041.576	-20.82
1041.74	302.76
1041.904	550.56
1042.068	42.67
1042.232	83.63
1042.397	634.53
1042.561	413.35
1042.725	-198.99
1042.889	198.31
1043.053	509.6
1043.217	470.69
1043.381	95.91
1043.544	-74.07
1043.708	550.56
1043.872	124.58
1044.036	-211.28
1044.2	-82.26
1044.364	587.43
1044.528	714.4
1044.691	2913.92
1044.855	-80.21
1045.019	546.47
1045.183	525.99
1045.346	42.67
1045.51	-61.78
1045.674	587.43
1045.837	507.55
1046.001	-43.35
1046.165	-47.44
1046.328	915.1
1046.492	525.99
1046.655	169.64
1046.819	63.15
1046.983	247.46
1047.146	534.18
1047.31	-8.53
1047.473	-258.39
1047.636	214.7
1047.8	198.31
1047.963	-47.44
1048.127	-135.51
1048.29	175.78
