Data from Hydrogel_Ink_Intensity_Test_1_USB4F045381__69__00069.txt Node

Date: Mon Jul 31 10:54:14 EDT 2023
User: mmckonesweet
Spectrometer: USB4F04538
Trigger mode: 4
Integration Time (sec): 9.000000E-1
Scans to average: 1
Electric dark correction enabled: true
Nonlinearity correction enabled: false
Boxcar width: 0
XAxis mode: Wavelengths
Number of Pixels in Spectrum: 3648
>>>>>Begin Spectral Data<<<<<
345.52	-970.91
345.736	-970.91
345.952	-970.91
346.168	-1069.21
346.384	-1011.87
346.6	-176.3
346.816	-207.02
347.032	-227.5
347.248	272.21
347.464	-270.5
347.68	-131.24
347.896	98.13
348.112	429.9
348.328	18.26
348.544	-106.67
348.76	69.46
348.975	231.25
349.191	-221.35
349.407	-172.2
349.623	116.56
349.839	-114.86
350.055	-112.81
350.27	44.88
350.486	221.01
350.702	261.97
350.918	235.35
351.133	-207.02
351.349	184.15
351.565	427.85
351.781	-229.54
351.996	8.02
352.212	384.85
352.428	-151.72
352.644	-219.3
352.859	-194.73
353.075	294.74
353.291	20.31
353.506	-135.34
353.722	-213.16
353.938	-4.27
354.153	474.96
354.369	51.03
354.584	-178.34
354.8	212.82
355.016	-327.85
355.231	-241.83
355.447	-110.76
355.662	192.34
355.878	735.05
356.093	-336.04
356.309	44.88
356.524	-225.45
356.74	259.92
356.955	-252.07
357.171	3.93
357.386	266.07
357.602	-225.45
357.817	-123.05
358.033	-196.78
358.248	356.18
358.464	173.91
358.679	-125.1
358.895	-360.61
359.11	59.22
359.325	218.96
359.541	171.86
359.756	-0.17
359.972	-293.03
360.187	159.57
360.402	-145.58
360.618	-114.86
360.833	1097.54
361.048	184.15
361.264	-151.72
361.479	-59.56
361.694	46.93
361.909	227.15
362.125	-256.17
362.34	-143.53
362.555	343.89
362.77	57.17
362.986	-282.79
363.201	-73.9
363.416	204.63
363.631	87.89
363.847	-168.1
364.062	-151.72
364.277	126.8
364.492	73.56
364.707	-194.73
364.922	-307.37
365.138	302.93
365.353	413.52
365.568	-297.13
365.783	-151.72
365.998	63.32
366.213	532.3
366.428	-211.11
366.643	18.26
366.858	272.21
367.073	235.35
367.288	-137.38
367.503	-164.01
367.718	122.71
367.933	300.88
368.148	-303.27
368.363	-155.82
368.578	16.21
368.793	468.81
369.008	-143.53
369.223	-174.25
369.438	278.35
369.653	554.83
369.868	-278.69
370.083	-168.1
370.298	151.38
370.513	444.24
370.728	32.6
370.943	-176.3
371.157	-133.29
371.372	579.4
371.587	-295.08
371.802	-313.51
372.017	91.99
372.232	464.72
372.446	-129.19
372.661	-231.59
372.876	190.29
373.091	180.05
373.306	-16.55
373.52	-254.12
373.735	-147.62
373.95	456.53
374.165	-116.9
374.379	-112.81
374.594	-57.51
374.809	108.37
375.023	61.27
375.238	-168.1
375.453	278.35
375.667	-219.3
375.882	-168.1
376.097	-245.93
376.311	94.04
376.526	-26.79
376.741	-225.45
376.955	122.71
377.17	528.21
377.384	511.82
377.599	5.97
377.813	-223.4
378.028	575.31
378.242	163.67
378.457	-77.99
378.672	-315.56
378.886	149.33
379.101	20.31
379.315	-344.23
379.53	-157.86
379.744	257.87
379.958	264.02
380.173	-151.72
380.387	-161.96
380.602	163.67
380.816	12.12
381.031	-176.3
381.245	-67.75
381.459	278.35
381.674	2785.07
381.888	-207.02
382.103	102.23
382.317	-159.91
382.531	479.05
382.746	-39.08
382.96	-215.21
383.174	-90.28
383.388	474.96
383.603	67.41
383.817	-260.26
384.031	149.33
384.246	517.97
384.46	10.07
384.674	423.76
384.888	20.31
385.103	135
385.317	-264.36
385.531	-30.89
385.745	360.27
385.959	329.55
386.174	-147.62
386.388	-204.97
386.602	91.99
386.816	-61.61
387.03	-112.81
387.244	-57.51
387.458	102.23
387.672	366.42
387.887	-241.83
388.101	-258.21
388.315	399.18
388.529	145.24
388.743	-161.96
388.957	-276.65
389.171	337.74
389.385	-198.82
389.599	-20.65
389.813	59.22
390.027	135
390.241	710.47
390.455	-73.9
390.669	-61.61
390.883	-45.23
391.097	544.59
391.311	30.55
391.525	-80.04
391.738	237.39
391.952	266.07
392.166	-80.04
392.38	-202.92
392.594	319.31
392.808	354.13
393.022	-82.09
393.236	-200.87
393.449	304.98
393.663	261.97
393.877	-200.87
394.091	-22.7
394.305	16.21
394.518	-90.28
394.732	-200.87
394.946	-61.61
395.16	466.77
395.373	149.33
395.587	-123.05
395.801	-133.29
396.015	386.9
396.228	280.4
396.442	-243.88
396.656	-245.93
396.869	354.13
397.083	499.53
397.297	-61.61
397.51	-98.47
397.724	397.14
397.938	241.49
398.151	-192.68
398.365	-221.35
398.578	372.56
398.792	419.66
399.005	-73.9
399.219	-73.9
399.433	184.15
399.646	159.57
399.86	42.84
400.073	32.6
400.287	300.88
400.5	26.45
400.714	59.22
400.927	10.07
401.141	257.87
401.354	1064.77
401.567	261.97
401.781	-237.74
401.994	380.75
402.208	655.18
402.421	1.88
402.635	-59.56
402.848	40.79
403.061	331.6
403.275	16.21
403.488	-166.06
403.701	505.68
403.915	362.32
404.128	44.88
404.341	-123.05
404.555	212.82
404.768	108.37
404.981	5.97
405.195	-98.47
405.408	546.64
405.621	350.03
405.834	69.46
406.048	-82.09
406.261	431.95
406.474	483.15
406.687	-129.19
406.9	108.37
407.114	124.76
407.327	208.72
407.54	-202.92
407.753	-194.73
407.966	-32.94
408.179	288.59
408.392	-37.03
408.605	-121
408.819	315.22
409.032	261.97
409.245	-94.38
409.458	57.17
409.671	286.54
409.884	534.35
410.097	-106.67
410.31	112.47
410.523	247.63
410.736	-4.27
410.949	-28.84
411.162	-80.04
411.375	542.54
411.588	442.19
411.801	132.95
412.014	-32.94
412.227	124.76
412.44	51.03
412.653	-80.04
412.865	8.02
413.078	419.66
413.291	304.98
413.504	8.02
413.717	-94.38
413.93	352.08
414.143	59.22
414.356	-6.31
414.568	-194.73
414.781	364.37
414.994	272.21
415.207	104.28
415.42	20.31
415.632	352.08
415.845	589.64
416.058	-182.44
416.271	-114.86
416.483	225.11
416.696	577.36
416.909	-94.38
417.121	-135.34
417.334	302.93
417.547	683.85
417.759	-84.14
417.972	-135.34
418.185	55.12
418.397	376.66
418.61	69.46
418.823	-12.46
419.035	511.82
419.248	155.47
419.46	-18.6
419.673	-12.46
419.885	354.13
420.098	157.52
420.311	8.02
420.523	-209.06
420.736	311.12
420.948	194.39
421.161	-57.51
421.373	-227.5
421.586	315.22
421.798	89.94
422.01	-137.38
422.223	116.56
422.435	91.99
422.648	366.42
422.86	22.36
423.073	-49.32
423.285	536.4
423.497	-77.99
423.71	-125.1
423.922	-118.95
424.134	409.42
424.347	540.49
424.559	261.97
424.771	300.88
424.984	3.93
425.196	438.09
425.408	-176.3
425.621	-145.58
425.833	538.45
426.045	591.69
426.257	-55.47
426.47	-41.13
426.682	337.74
426.894	405.33
427.106	20.31
427.318	83.8
427.531	118.61
427.743	446.29
427.955	-28.84
428.167	376.66
428.379	354.13
428.591	159.57
428.804	100.18
429.016	-110.76
429.228	108.37
429.44	335.7
429.652	198.48
429.864	-22.7
430.076	175.95
430.288	175.95
430.5	20.31
430.712	106.32
430.924	499.53
431.136	245.59
431.348	-114.86
431.56	-69.8
431.772	237.39
431.984	139.09
432.196	-26.79
432.408	48.98
432.62	130.9
432.832	311.12
433.044	245.59
433.256	198.48
433.468	409.42
433.679	-71.85
433.891	-90.28
434.103	173.91
434.315	581.45
434.527	493.39
434.739	167.76
434.95	135
435.162	434
435.374	137.04
435.586	71.51
435.798	77.65
436.009	102.23
436.221	216.91
436.433	14.17
436.645	69.46
436.856	184.15
437.068	481.1
437.28	-16.55
437.491	327.5
437.703	534.35
437.915	401.23
438.126	104.28
438.338	290.64
438.55	280.4
438.761	347.98
438.973	36.69
439.184	81.75
439.396	311.12
439.608	477.01
439.819	-80.04
440.031	243.54
440.242	460.62
440.454	429.9
440.665	122.71
440.877	169.81
441.088	384.85
441.3	331.6
441.511	-118.95
441.723	126.8
441.934	337.74
442.146	333.65
442.357	257.87
442.569	397.14
442.78	356.18
442.991	714.57
443.203	401.23
443.414	16.21
443.626	771.91
443.837	173.91
444.048	16.21
444.26	-20.65
444.471	347.98
444.682	548.68
444.894	-71.85
445.105	-30.89
445.316	630.6
445.528	528.21
445.739	196.43
445.95	157.52
446.161	347.98
446.373	489.29
446.584	124.76
446.795	106.32
447.006	479.05
447.217	780.11
447.429	-57.51
447.64	65.36
447.851	780.11
448.062	372.56
448.273	-22.7
448.484	28.5
448.695	499.53
448.907	368.46
449.118	225.11
449.329	317.26
449.54	188.24
449.751	186.19
449.962	130.9
450.173	59.22
450.384	716.62
450.595	765.77
450.806	114.52
451.017	139.09
451.228	649.04
451.439	608.08
451.65	110.42
451.861	-57.51
452.072	212.82
452.283	431.95
452.494	364.37
452.705	135
452.915	921.42
453.126	456.53
453.337	208.72
453.548	61.27
453.759	704.33
453.97	941.89
454.181	368.46
454.391	214.87
454.602	423.76
454.813	603.98
455.024	292.69
455.235	151.38
455.445	450.38
455.656	583.5
455.867	390.99
456.078	188.24
456.288	350.03
456.499	610.12
456.71	184.15
456.921	483.15
457.131	536.4
457.342	477.01
457.553	237.39
457.763	257.87
457.974	712.52
458.184	634.7
458.395	200.53
458.606	126.8
458.816	696.14
459.027	933.7
459.237	511.82
459.448	57.17
459.659	718.67
459.869	1017.67
460.08	147.28
460.29	374.61
460.501	956.23
460.711	311.12
460.922	89.94
461.132	302.93
461.343	1113.92
461.553	255.83
461.764	233.3
461.974	245.59
462.184	718.67
462.395	675.66
462.605	335.7
462.816	163.67
463.026	548.68
463.236	859.98
463.447	294.74
463.657	347.98
463.867	819.02
464.078	458.57
464.288	411.47
464.498	329.55
464.709	614.22
464.919	565.07
465.129	427.85
465.339	247.63
465.55	726.86
465.76	827.21
465.97	378.7
466.18	327.5
466.391	888.65
466.601	655.18
466.811	474.96
467.021	239.44
467.231	767.82
467.441	921.42
467.651	421.71
467.862	229.2
468.072	677.71
468.282	1044.29
468.492	454.48
468.702	534.35
468.912	710.47
469.122	1335.1
469.332	788.3
469.542	315.22
469.752	1019.72
469.962	839.5
470.172	372.56
470.382	442.19
470.592	1007.43
470.802	1034.05
471.012	663.37
471.222	507.73
471.432	1007.43
471.642	941.89
471.852	626.51
472.062	474.96
472.272	778.06
472.482	573.26
472.691	581.45
472.901	485.2
473.111	876.36
473.321	1490.75
473.531	573.26
473.741	671.56
473.95	1036.1
474.16	1068.87
474.37	755.53
474.58	495.44
474.79	1335.1
474.999	1187.65
475.209	606.03
475.419	769.87
475.628	905.03
475.838	1220.42
476.048	794.44
476.258	708.43
476.467	1322.82
476.677	925.51
476.886	884.55
477.096	853.83
477.306	872.26
477.515	1431.36
477.725	796.49
477.935	917.32
478.144	1539.9
478.354	984.9
478.563	819.02
478.773	892.74
478.982	1318.72
479.192	1367.87
479.401	1017.67
479.611	755.53
479.82	995.14
480.03	1146.69
480.239	900.94
480.449	892.74
480.658	1507.13
480.868	1146.69
481.077	1103.68
481.287	1068.87
481.496	1431.36
481.705	1632.06
481.915	1263.43
482.124	1271.62
482.333	1371.97
482.543	1640.25
482.752	1216.32
482.961	1060.68
483.171	1548.09
483.38	1275.71
483.589	1228.61
483.799	1027.91
484.008	1394.5
484.217	1683.26
484.426	1324.87
484.636	995.14
484.845	1595.2
485.054	1199.94
485.263	1525.57
485.472	1253.19
485.682	1822.52
485.891	1449.79
486.1	1046.34
486.309	1189.7
486.518	1609.53
486.727	1851.19
486.936	1288
487.146	1322.82
487.355	1959.74
487.564	1433.41
487.773	1290.05
487.982	1398.59
488.191	1480.51
488.4	1566.53
488.609	1335.1
488.818	1343.3
489.027	2209.59
489.236	2021.17
489.445	1423.17
489.654	1347.39
489.863	2015.03
490.072	1804.09
490.281	1789.75
490.49	1554.24
490.698	2103.09
490.907	2228.02
491.116	1492.8
491.325	1445.7
491.534	2025.27
491.743	1820.47
491.952	1638.2
492.16	1544
492.369	1867.58
492.578	2076.47
492.787	1679.16
492.996	1361.73
493.204	1654.59
493.413	2348.85
493.622	1396.54
493.831	1406.78
494.039	2301.75
494.248	1683.26
494.457	1619.77
494.665	1558.33
494.874	2090.81
495.083	2430.77
495.291	1744.7
495.5	1578.81
495.709	2201.4
495.917	2146.1
496.126	1867.58
496.335	1617.72
496.543	1875.77
496.752	2172.72
496.96	2043.7
497.169	1627.96
497.377	2072.37
497.586	2412.34
497.794	1910.58
498.003	1568.57
498.211	2066.23
498.42	2359.09
498.628	1949.5
498.837	1845.05
499.045	2252.59
499.254	2305.84
499.462	1826.62
499.671	1826.62
499.879	2727.72
500.087	2359.09
500.296	1906.49
500.504	1886.01
500.713	2291.51
500.921	2815.79
501.129	1945.4
501.338	1818.43
501.546	2338.61
501.754	2383.66
501.962	2017.08
502.171	1886.01
502.379	2416.43
502.587	2633.52
502.795	2103.09
503.004	2109.24
503.212	2256.69
503.42	2576.17
503.628	2008.89
503.837	2207.54
504.045	2457.39
504.253	2768.68
504.461	2088.76
504.669	1869.62
504.877	2572.08
505.085	2692.91
505.294	2137.91
505.502	2336.56
505.71	2508.59
505.918	2559.79
506.126	2025.27
506.334	2156.34
506.542	2432.82
506.75	2436.91
506.958	2352.95
507.166	2248.5
507.374	2381.62
507.582	2948.9
507.79	2213.68
507.998	2101.05
508.206	2565.93
508.414	2621.23
508.622	2330.42
508.83	2139.96
509.037	2936.62
509.245	2420.53
509.453	2293.55
509.661	2111.29
509.869	2760.49
510.077	2496.3
510.285	2404.14
510.492	1951.54
510.7	3219.24
510.908	2541.36
511.116	2217.78
511.324	2273.07
511.531	2565.93
511.739	2684.72
511.947	2527.02
512.155	2651.95
512.362	2688.81
512.57	2375.47
512.778	2236.21
512.985	2230.07
513.193	2940.71
513.401	3016.49
513.608	2481.97
513.816	2434.86
514.024	2836.27
514.231	3032.87
514.439	2352.95
514.646	2342.71
514.854	3002.15
515.061	2969.38
515.269	2410.29
515.477	2309.94
515.684	2715.44
515.892	2991.91
516.099	2309.94
516.307	2295.6
516.514	2895.66
516.722	3178.28
516.929	2707.24
517.136	2268.98
517.344	2993.96
517.551	2791.21
517.759	2613.04
517.966	2412.34
518.173	2703.15
518.381	2707.24
518.588	2527.02
518.796	2596.65
519.003	3061.54
519.21	2764.59
519.418	2389.81
519.625	2885.42
519.832	3010.34
520.039	2983.72
520.247	2432.82
520.454	2651.95
520.661	3008.3
520.868	3133.22
521.076	2692.91
521.283	2621.23
521.49	3477.28
521.697	3116.84
521.904	2746.16
522.112	2719.53
522.319	3233.57
522.526	3032.87
522.733	2727.72
522.94	2692.91
523.147	2985.77
523.354	3342.11
523.561	2475.82
523.768	2799.4
523.975	3264.29
524.183	2963.24
524.39	2854.7
524.597	2608.94
524.804	2973.48
525.011	2826.03
525.218	2608.94
525.425	2715.44
525.632	3434.27
525.838	3100.45
526.045	2856.75
526.252	2750.25
526.459	4337.43
526.666	3948.31
526.873	2834.22
527.08	2780.97
527.287	3487.52
527.494	3370.79
527.701	2672.43
527.907	2785.07
528.114	3331.87
528.321	3215.14
528.528	2871.08
528.735	2803.5
528.941	3120.93
529.148	3049.25
529.355	3000.1
529.562	2793.26
529.768	3669.79
529.975	3039.01
530.182	3051.3
530.388	2811.69
530.595	3526.43
530.802	2953
531.008	3147.56
531.215	2981.67
531.422	4118.29
531.628	4079.38
531.835	3034.92
532.042	3219.24
532.248	3217.19
532.455	3469.09
532.661	3084.07
532.868	3047.21
533.074	3415.84
533.281	3444.51
533.487	3186.47
533.694	2891.56
533.9	3352.35
534.107	3518.24
534.313	3088.17
534.52	3030.82
534.726	3624.73
534.933	3940.12
535.139	3030.82
535.345	3026.73
535.552	3634.97
535.758	3596.06
535.965	3200.8
536.171	3188.52
536.377	3542.82
536.584	3979.03
536.79	3219.24
536.996	3335.97
537.203	3536.67
537.409	3608.35
537.615	3252
537.821	3481.38
538.028	3835.67
538.234	3809.05
538.44	3307.3
538.646	3364.64
538.853	3677.98
539.059	3514.14
539.265	3755.8
539.471	2957.1
539.677	3776.28
539.883	3475.23
540.09	3301.15
540.296	3919.64
540.502	3680.03
540.708	3542.82
540.914	3598.11
541.12	3448.61
541.326	3854.11
541.532	3716.89
541.738	3508
541.944	3548.96
542.15	4040.47
542.356	3610.4
542.562	3385.12
542.768	3557.15
542.974	4269.84
543.18	4204.31
543.386	3499.81
543.592	3383.07
543.798	4101.91
544.004	4083.48
544.21	3514.14
544.415	3659.55
544.621	4013.85
544.827	3931.93
545.033	3458.85
545.239	3847.96
545.445	3628.83
545.651	4046.62
545.856	3532.58
546.062	3503.9
546.268	3632.93
546.474	3864.35
546.679	3536.67
546.885	3600.16
547.091	3655.45
547.297	4296.47
547.502	3467.04
547.708	3471.14
547.914	3854.11
548.119	4005.66
548.325	3464.99
548.531	3340.07
548.736	4439.83
548.942	3825.43
549.147	3604.25
549.353	4011.8
549.559	4351.76
549.764	3991.32
549.97	3575.58
550.175	3776.28
550.381	4120.34
550.586	3845.91
550.792	3680.03
550.997	3813.15
551.203	4165.4
551.408	4280.08
551.614	3727.13
551.819	3727.13
552.025	4396.82
552.23	4495.12
552.435	3690.27
552.641	3897.11
552.846	4103.96
553.052	4423.44
553.257	3890.97
553.462	3962.65
553.668	4091.67
553.873	4429.59
554.078	3833.63
554.283	3751.71
554.489	4386.58
554.694	4200.21
554.899	3843.87
555.105	4063
555.31	4275.99
555.515	4413.2
555.72	3981.08
555.925	3856.15
556.131	4511.5
556.336	3989.27
556.541	3749.66
556.746	3821.34
556.951	4595.47
557.156	4605.71
557.361	4124.44
557.567	4183.83
557.772	4722.45
557.977	4480.78
558.182	3905.31
558.387	3893.02
558.592	4124.44
558.797	4607.76
559.002	4185.88
559.207	4159.25
559.412	4275.99
559.617	4673.29
559.822	3981.08
560.027	3915.55
560.232	4368.15
560.437	4634.38
560.642	4036.38
560.847	3833.63
561.051	4353.81
561.256	4456.21
561.461	4183.83
561.666	3966.74
561.871	4534.03
562.076	4458.26
562.281	3997.46
562.485	3970.84
562.69	4685.58
562.895	4554.51
563.1	3944.22
563.305	3966.74
563.509	4802.32
563.714	4980.49
563.919	4144.92
564.123	4228.88
564.328	4333.33
564.533	4867.85
564.737	4181.78
564.942	4112.15
565.147	4869.9
565.351	5046.02
565.556	4255.51
565.761	4333.33
565.965	4521.74
566.17	4419.35
566.374	4189.97
566.579	4144.92
566.784	4527.89
566.988	4321.04
567.193	4097.81
567.397	4275.99
567.602	3964.7
567.806	4550.42
568.011	4247.32
568.215	4316.95
568.42	4390.67
568.624	4472.59
568.828	4226.84
569.033	4525.84
569.237	4579.09
569.442	4732.69
569.646	4179.73
569.85	4206.36
570.055	4667.15
570.259	4744.97
570.463	4480.78
570.668	4261.65
570.872	4593.42
571.076	4710.16
571.281	4488.98
571.485	4452.11
571.689	4603.66
571.893	4855.56
572.098	4480.78
572.302	4452.11
572.506	4865.8
572.71	4964.11
572.914	4275.99
573.119	4517.65
573.323	5195.53
573.527	5103.37
573.731	4415.25
573.935	4275.99
574.139	4853.52
574.343	4509.46
574.547	4495.12
574.751	4503.31
574.955	5084.94
575.159	5031.69
575.364	4392.72
575.568	4296.47
575.772	4767.5
575.976	5009.16
576.18	4290.32
576.383	4296.47
576.587	4976.39
576.791	4775.69
576.995	4321.04
577.199	4189.97
577.403	5046.02
577.607	5138.18
577.811	4560.66
578.015	4572.94
578.219	4906.76
578.422	5107.46
578.626	4521.74
578.83	4755.21
579.034	5199.62
579.238	4900.62
579.442	4495.12
579.645	5027.59
579.849	4843.28
580.053	4990.73
580.257	4736.78
580.46	4687.63
580.664	5125.9
580.868	4978.44
581.071	4849.42
581.275	4728.59
581.479	4661.01
581.682	5078.79
581.886	4652.81
582.09	4777.74
582.293	5060.36
582.497	5127.94
582.7	4880.14
582.904	4806.41
583.107	5064.46
583.311	5054.22
583.515	4800.27
583.718	4826.89
583.922	5148.42
584.125	5433.09
584.329	4697.87
584.532	4949.77
584.735	5578.5
584.939	5080.84
585.142	4697.87
585.346	4618
585.549	5244.68
585.753	4960.01
585.956	4843.28
586.159	5072.65
586.363	5506.82
586.566	5238.53
586.769	4785.93
586.973	4665.1
587.176	5203.72
587.379	5416.71
587.582	5175.05
587.786	5066.5
587.989	5123.85
588.192	5971.71
588.395	4951.82
588.599	5203.72
588.802	5324.55
589.005	5431.04
589.208	4953.87
589.411	4935.43
589.615	5377.8
589.818	5709.57
590.021	5308.16
590.224	5111.56
590.427	5414.66
590.63	5560.06
590.833	4865.8
591.036	5013.26
591.239	5388.04
591.442	5216.01
591.645	5242.63
591.848	4968.2
592.051	5388.04
592.254	5472
592.457	5138.18
592.66	5213.96
592.863	5207.81
593.066	5406.47
593.269	5066.5
593.472	5173
593.675	5216.01
593.878	5508.87
594.081	5267.2
594.284	5072.65
594.486	5439.23
594.689	5617.41
594.892	5144.33
595.095	5193.48
595.298	5555.97
595.5	5398.27
595.703	5426.95
595.906	5314.31
596.109	5953.27
596.311	5678.85
596.514	4849.42
596.717	5342.98
596.92	5842.68
597.122	5558.02
597.325	4988.68
597.528	5113.61
597.73	5918.46
597.933	5545.73
598.136	5316.36
598.338	5095.18
598.541	5666.56
598.743	5668.61
598.946	5267.2
599.148	5287.68
599.351	5932.79
599.554	5820.16
599.756	5371.65
599.959	5390.08
600.161	5857.02
600.363	6172.41
600.566	5615.36
600.768	5336.84
600.971	5957.37
601.173	5902.08
601.376	5553.92
601.578	5467.91
601.78	5695.23
601.983	6217.46
602.185	5367.56
602.388	5596.93
602.59	5631.74
602.792	5529.34
602.995	5414.66
603.197	5334.79
603.399	6014.71
603.601	5748.48
603.804	5531.39
604.006	5318.4
604.208	5601.02
604.41	5410.56
604.613	5445.38
604.815	5359.36
605.017	6225.65
605.219	5592.83
605.421	5768.96
605.623	5564.16
605.826	6029.05
606.028	5897.98
606.23	5334.79
606.432	5508.87
606.634	6160.12
606.836	5990.14
607.038	5492.48
607.24	5621.5
607.442	5680.89
607.644	5756.67
607.846	5678.85
608.048	5375.75
608.25	6029.05
608.452	5635.84
608.654	5451.52
608.856	5242.63
609.058	5506.82
609.26	5881.6
609.462	5613.31
609.664	5500.67
609.866	6303.48
610.067	6055.67
610.269	5621.5
610.471	5547.78
610.673	5633.79
610.875	6049.53
611.077	5283.59
611.278	5668.61
611.48	5771.01
611.682	6196.98
611.884	5682.94
612.085	5543.68
612.287	5586.69
612.489	5943.03
612.69	5490.43
612.892	5613.31
613.094	6014.71
613.295	5766.91
613.497	5422.85
613.699	5668.61
613.9	6133.5
614.102	6012.67
614.304	5687.04
614.505	5324.55
614.707	5869.31
614.908	5857.02
615.11	5324.55
615.311	5625.6
615.513	5885.69
615.714	6031.1
615.916	5469.95
616.117	5607.17
616.319	5758.72
616.52	5932.79
616.722	5523.2
616.923	5660.41
617.124	6246.13
617.326	6074.1
617.527	5768.96
617.729	5914.36
617.93	5994.23
618.131	6020.86
618.333	5555.97
618.534	5732.09
618.735	5824.25
618.937	6487.79
619.138	5455.62
619.339	5621.5
619.54	6110.97
619.742	5938.94
619.943	5766.91
620.144	5828.35
620.345	6037.24
620.546	6153.98
620.748	5586.69
620.949	5598.98
621.15	5908.22
621.351	6037.24
621.552	5590.78
621.753	5596.93
621.954	5607.17
622.155	6299.38
622.356	5531.39
622.558	5865.21
622.759	6102.78
622.96	6194.93
623.161	5615.36
623.362	5783.29
623.563	5940.99
623.764	5902.08
623.965	5635.84
624.166	6088.44
624.366	5887.74
624.567	5949.18
624.768	5406.47
624.969	5576.45
625.17	5871.36
625.371	6102.78
625.572	5787.39
625.773	5637.89
625.973	6201.08
626.174	6117.11
626.375	5697.28
626.576	5877.5
626.777	6147.83
626.977	6559.47
627.178	5666.56
627.379	5859.07
627.58	5922.55
627.78	6037.24
627.981	5752.57
628.182	5832.44
628.382	6260.47
628.583	5621.5
628.784	5570.3
628.984	5908.22
629.185	6180.6
629.386	6414.07
629.586	5973.75
629.787	5697.28
629.987	6246.13
630.188	6270.71
630.388	5828.35
630.589	5822.2
630.79	6674.16
630.99	5992.19
631.191	5799.68
631.391	5781.25
631.591	6131.45
631.792	6436.6
631.992	6022.91
632.193	5873.4
632.393	6471.41
632.594	6131.45
632.794	5725.95
632.994	5887.74
633.195	6235.89
633.395	6065.91
633.595	5742.33
633.796	5973.75
633.996	5738.24
634.196	6407.92
634.397	5715.71
634.597	6008.57
634.797	6053.62
634.997	6366.96
635.198	6133.5
635.398	5897.98
635.598	6106.87
635.798	6397.68
635.998	6274.81
636.199	5865.21
636.399	5979.9
636.599	5926.65
636.799	5832.44
636.999	6076.15
637.199	6192.89
637.399	6512.37
637.599	6004.47
637.799	6022.91
637.999	6018.81
638.199	6418.16
638.399	5877.5
638.599	5807.87
638.799	6244.09
638.999	6639.34
639.199	6246.13
639.399	6135.54
639.599	6639.34
639.799	5977.85
639.999	6010.62
640.199	5758.72
640.399	6278.9
640.599	6274.81
640.799	5983.99
640.998	6137.59
641.198	6432.5
641.398	6315.76
641.598	6162.17
641.798	6080.25
641.997	7282.41
642.197	6319.86
642.397	6147.83
642.597	5926.65
642.796	6407.92
642.996	6596.34
643.196	6102.78
643.395	5836.54
643.595	6393.59
643.795	5932.79
643.994	5893.88
644.194	6188.79
644.394	6651.63
644.593	6440.69
644.793	5977.85
644.992	6129.4
645.192	6524.66
645.392	5828.35
645.591	6225.65
645.791	5963.51
645.99	6436.6
646.19	6254.33
646.389	6215.41
646.589	6235.89
646.788	6532.85
646.987	6553.33
647.187	6575.86
647.386	6285.05
647.586	6379.25
647.785	6403.83
647.984	6061.82
648.184	6250.23
648.383	6356.72
648.582	6174.46
648.782	6049.53
648.981	6164.22
649.18	6172.41
649.38	6500.08
649.579	6332.15
649.778	6065.91
649.977	6479.6
650.177	6561.52
650.376	6104.82
650.575	6016.76
650.774	6754.03
650.973	6139.64
651.173	5799.68
651.372	6237.94
651.571	6366.96
651.77	6491.89
651.969	6190.84
652.168	6385.4
652.367	6264.57
652.566	6436.6
652.765	6225.65
652.964	6442.74
653.163	6950.64
653.362	6493.94
653.561	6151.93
653.76	6254.33
653.959	6371.06
654.158	6565.62
654.357	6498.03
654.556	6004.47
654.755	6598.38
654.954	6577.9
655.153	6266.61
655.352	6258.42
655.551	6674.16
655.749	6412.02
655.948	6237.94
656.147	6334.2
656.346	6690.54
656.545	6561.52
656.743	6328.05
656.942	6283
657.141	6534.9
657.34	6221.56
657.538	6231.8
657.737	6326
657.936	6573.81
658.135	6635.25
658.333	6405.88
658.532	6504.18
658.731	6954.73
658.929	6678.26
659.128	6577.9
659.326	6063.86
659.525	6766.32
659.724	6528.75
659.922	6002.43
660.121	6139.64
660.319	6622.96
660.518	6293.24
660.716	6086.39
660.915	6217.46
661.113	6831.85
661.312	6186.74
661.51	6502.13
661.709	6223.61
661.907	6594.29
662.105	6940.4
662.304	6223.61
662.502	6481.65
662.701	6815.47
662.899	6524.66
663.097	6545.14
663.296	6229.75
663.494	6874.86
663.692	6889.2
663.891	6313.72
664.089	6151.93
664.287	6561.52
664.485	6989.55
664.684	6158.07
664.882	6459.12
665.08	6561.52
665.278	6663.92
665.476	6153.98
665.675	6645.49
665.873	6973.16
666.071	6799.09
666.269	6356.72
666.467	6659.82
666.665	6577.9
666.863	6676.21
667.061	6498.03
667.259	6405.88
667.457	6409.97
667.655	6635.25
667.853	6246.13
668.051	6250.23
668.249	6252.28
668.447	6743.79
668.645	6203.13
668.843	6467.31
669.041	6612.72
669.239	6354.68
669.437	6491.89
669.635	6481.65
669.833	6491.89
670.031	6772.46
670.229	6440.69
670.426	6383.35
670.624	6344.44
670.822	6428.4
671.02	6338.29
671.218	6401.78
671.415	6239.99
671.613	6670.06
671.811	6450.93
672.009	6348.53
672.206	6708.97
672.404	6344.44
672.602	6522.61
672.799	6385.4
672.997	6588.14
673.195	6770.41
673.392	6524.66
673.59	6321.91
673.788	6547.19
673.985	6024.95
674.183	6526.71
674.38	6358.77
674.578	6778.61
674.775	6283
674.973	6233.85
675.17	6119.16
675.368	6917.87
675.565	6563.57
675.763	6235.89
675.96	6381.3
676.158	6815.47
676.355	6319.86
676.553	6297.33
676.75	6233.85
676.947	6565.62
677.145	6495.99
677.342	6287.09
677.539	6362.87
677.737	6440.69
677.934	6917.87
678.131	6379.25
678.329	6291.19
678.526	6854.38
678.723	6651.63
678.92	6289.14
679.118	6270.71
679.315	6127.35
679.512	6846.19
679.709	6233.85
679.906	6369.01
680.104	6874.86
680.301	6459.12
680.498	6203.13
680.695	6078.2
680.892	6317.81
681.089	6199.03
681.286	6301.43
681.483	6149.88
681.68	6627.06
681.877	6756.08
682.075	6379.25
682.272	6487.79
682.469	6307.57
682.665	6321.91
682.862	6170.36
683.059	5949.18
683.256	6538.99
683.453	6340.34
683.65	6252.28
683.847	6391.54
684.044	6465.27
684.241	6235.89
684.438	6139.64
684.635	6110.97
684.831	6801.13
685.028	6790.89
685.225	6135.54
685.422	6369.01
685.619	6364.92
685.815	6422.26
686.012	6131.45
686.209	6135.54
686.405	6024.95
686.602	6614.77
686.799	5934.84
686.996	6010.62
687.192	6078.2
687.389	6969.07
687.586	5928.7
687.782	6260.47
687.979	6708.97
688.175	6573.81
688.372	6065.91
688.568	6276.85
688.765	6225.65
688.962	6704.88
689.158	6258.42
689.355	5945.08
689.551	6520.56
689.748	6246.13
689.944	6201.08
690.14	5926.65
690.337	6651.63
690.533	6192.89
690.73	6270.71
690.926	6147.83
691.123	6311.67
691.319	6291.19
691.515	6129.4
691.712	6317.81
691.908	6412.02
692.104	6328.05
692.301	6412.02
692.497	6121.21
692.693	6606.58
692.889	6577.9
693.086	6336.24
693.282	5891.84
693.478	6307.57
693.674	6698.74
693.87	6022.91
694.067	6082.3
694.263	6358.77
694.459	6176.5
694.655	6239.99
694.851	6092.54
695.047	6414.07
695.243	6493.94
695.439	6356.72
695.635	5961.47
695.831	6504.18
696.027	6221.56
696.224	5721.85
696.42	6319.86
696.615	6635.25
696.811	6393.59
697.007	6041.34
697.203	6012.67
697.399	6287.09
697.595	6641.39
697.791	5924.6
697.987	6246.13
698.183	5791.48
698.379	6012.67
698.575	6016.76
698.77	6078.2
698.966	6326
699.162	6493.94
699.358	5934.84
699.554	6174.46
699.749	6317.81
699.945	6239.99
700.141	6213.37
700.337	6043.39
700.532	6061.82
700.728	6133.5
700.924	5809.92
701.119	5957.37
701.315	6379.25
701.511	5979.9
701.706	6076.15
701.902	5764.86
702.097	6168.31
702.293	6407.92
702.489	6080.25
702.684	6053.62
702.88	6123.26
703.075	6158.07
703.271	5973.75
703.466	5691.13
703.662	5992.19
703.857	6223.61
704.053	6047.48
704.248	6057.72
704.443	6366.96
704.639	6356.72
704.834	5945.08
705.03	5844.73
705.225	6350.58
705.42	6383.35
705.616	6074.1
705.811	5703.42
706.006	6018.81
706.202	6078.2
706.397	5996.28
706.592	5887.74
706.787	6192.89
706.983	5979.9
707.178	6174.46
707.373	6051.58
707.568	6199.03
707.763	6268.66
707.959	5830.4
708.154	5799.68
708.349	6223.61
708.544	6303.48
708.739	5959.42
708.934	5697.28
709.129	6332.15
709.324	6442.74
709.519	5938.94
709.714	5736.19
709.909	6455.03
710.104	6223.61
710.299	5775.1
710.494	5900.03
710.689	6393.59
710.884	6119.16
711.079	5967.61
711.274	6070.01
711.469	6260.47
711.664	6115.06
711.859	5881.6
712.054	5945.08
712.249	6180.6
712.443	6285.05
712.638	5594.88
712.833	5684.99
713.028	6014.71
713.223	6010.62
713.417	6168.31
713.612	5826.3
713.807	6190.84
714.002	6506.23
714.196	5992.19
714.391	5818.11
714.586	6080.25
714.78	5895.93
714.975	5879.55
715.17	5789.44
715.364	5943.03
715.559	6280.95
715.754	5361.41
715.948	5725.95
716.143	6524.66
716.337	6020.86
716.532	6074.1
716.726	5834.49
716.921	6252.28
717.115	6543.09
717.31	5420.8
717.504	6344.44
717.699	6127.35
717.893	6262.52
718.088	5670.65
718.282	5545.73
718.476	6051.58
718.671	5940.99
718.865	5543.68
719.059	5562.11
719.254	6012.67
719.448	6201.08
719.642	7098.09
719.837	5359.36
720.031	6047.48
720.225	6186.74
720.419	5768.96
720.614	5664.51
720.808	6016.76
721.002	5963.51
721.196	5609.22
721.39	5547.78
721.585	6201.08
721.779	5859.07
721.973	5549.82
722.167	5302.02
722.361	5838.59
722.555	6041.34
722.749	5594.88
722.943	5650.18
723.137	5752.57
723.331	6031.1
723.525	5775.1
723.719	5564.16
723.913	6139.64
724.107	6129.4
724.301	5531.39
724.495	5660.41
724.689	6250.23
724.883	6094.58
725.077	5543.68
725.271	5474.05
725.465	6127.35
725.659	5803.77
725.853	5742.33
726.046	5461.76
726.24	5717.76
726.434	5854.97
726.628	5392.13
726.822	5490.43
727.015	6115.06
727.209	6151.93
727.403	5603.07
727.596	5363.46
727.79	6059.77
727.984	5963.51
728.177	5551.87
728.371	5644.03
728.565	6053.62
728.758	5527.3
728.952	5453.57
729.146	5529.34
729.339	5936.89
729.533	5809.92
729.726	5553.92
729.92	5488.39
730.113	6110.97
730.307	5807.87
730.5	5498.63
730.694	5437.19
730.887	5738.24
731.081	5990.14
731.274	5439.23
731.468	5422.85
731.661	5750.53
731.854	5734.14
732.048	5404.42
732.241	5412.61
732.435	5598.98
732.628	5865.21
732.821	5697.28
733.014	5394.18
733.208	5418.75
733.401	5932.79
733.594	5590.78
733.788	5504.77
733.981	6082.3
734.174	5977.85
734.367	5586.69
734.56	5648.13
734.754	6004.47
734.947	5760.77
735.14	5449.47
735.333	5607.17
735.526	5951.23
735.719	5553.92
735.912	5445.38
736.105	5490.43
736.298	5963.51
736.491	5474.05
736.684	5455.62
736.877	5564.16
737.07	5805.82
737.263	6102.78
737.456	5484.29
737.649	5488.39
737.842	5697.28
738.035	5748.48
738.228	5553.92
738.421	5586.69
738.614	6131.45
738.807	5893.88
739	5381.89
739.192	5402.37
739.385	5684.99
739.578	5859.07
739.771	5861.12
739.964	5472
740.156	5609.22
740.349	5635.84
740.542	5549.82
740.735	5422.85
740.927	5324.55
741.12	5465.86
741.313	5422.85
741.505	5547.78
741.698	5744.38
741.891	5746.43
742.083	5613.31
742.276	5461.76
742.468	5578.5
742.661	5568.26
742.854	5402.37
743.046	5424.9
743.239	6033.15
743.431	5734.14
743.624	5512.96
743.816	5271.3
744.009	5541.63
744.201	5838.59
744.393	5644.03
744.586	5220.1
744.778	6078.2
744.971	5510.91
745.163	5512.96
745.355	5465.86
745.548	5668.61
745.74	5515.01
745.932	5488.39
746.125	5428.99
746.317	6094.58
746.509	5586.69
746.702	5312.26
746.894	5558.02
747.086	5795.58
747.278	6002.43
747.471	5537.54
747.663	5443.33
747.855	5697.28
748.047	5863.16
748.239	5336.84
748.431	5273.35
748.623	6184.69
748.815	5963.51
749.008	5275.4
749.2	5314.31
749.392	5859.07
749.584	5779.2
749.776	5342.98
749.968	5504.77
750.16	6139.64
750.352	5433.09
750.544	5465.86
750.736	5195.53
750.928	5830.4
751.12	5695.23
751.311	5228.29
751.503	5627.65
751.695	5635.84
751.887	5553.92
752.079	5154.57
752.271	5152.52
752.463	6360.82
752.654	5766.91
752.846	5394.18
753.038	5373.7
753.23	5512.96
753.421	5877.5
753.613	5287.68
753.805	5551.87
753.997	5748.48
754.188	5672.7
754.38	5211.91
754.572	5244.68
754.763	5537.54
754.955	5580.54
755.146	5351.17
755.338	5426.95
755.53	5592.83
755.721	5619.46
755.913	5115.66
756.104	5086.98
756.296	5392.13
756.487	5619.46
756.679	5146.37
756.87	5279.49
757.062	5318.4
757.253	5519.11
757.445	5017.35
757.636	5242.63
757.827	5512.96
758.019	6127.35
758.21	5162.76
758.401	5316.36
758.593	5820.16
758.784	5670.65
758.975	4882.19
759.167	5009.16
759.358	5586.69
759.549	5537.54
759.74	5078.79
759.932	4982.54
760.123	5668.61
760.314	5275.4
760.505	5236.49
760.696	4978.44
760.888	5795.58
761.079	5252.87
761.27	4943.63
761.461	4798.22
761.652	5566.21
761.843	5146.37
762.034	5324.55
762.225	5252.87
762.416	5295.88
762.607	5269.25
762.798	4968.2
762.989	5031.69
763.18	6121.21
763.371	5162.76
763.562	5027.59
763.753	4931.34
763.944	5519.11
764.135	5519.11
764.326	5189.38
764.517	4951.82
764.708	5267.2
764.899	5166.85
765.089	4843.28
765.28	4910.86
765.471	5287.68
765.662	5291.78
765.853	5074.7
766.043	4761.36
766.234	5308.16
766.425	5304.07
766.615	5080.84
766.806	4828.94
766.997	5617.41
767.187	5269.25
767.378	4919.05
767.569	4728.59
767.759	5185.29
767.95	5250.82
768.141	5187.33
768.331	4783.88
768.522	5140.23
768.712	5314.31
768.903	4759.31
769.093	4798.22
769.284	5494.53
769.474	5115.66
769.665	4587.28
769.855	4679.44
770.046	5279.49
770.236	5009.16
770.426	5046.02
770.617	4675.34
770.807	5220.1
770.998	5046.02
771.188	4980.49
771.378	4736.78
771.569	5287.68
771.759	5058.31
771.949	4640.53
772.139	4439.83
772.33	4998.92
772.52	5320.45
772.71	4699.92
772.9	4570.9
773.09	5385.99
773.281	5230.34
773.471	4701.97
773.661	4636.43
773.851	5250.82
774.041	4935.43
774.231	4589.33
774.421	4888.33
774.611	5218.05
774.802	4882.19
774.992	4867.85
775.182	4521.74
775.372	4890.38
775.562	5142.28
775.752	4624.14
775.942	4738.83
776.131	5328.64
776.321	5000.97
776.511	4722.45
776.701	4521.74
776.891	5181.19
777.081	4574.99
777.271	4669.2
777.461	4620.05
777.651	5105.42
777.84	5152.52
778.03	4708.11
778.22	4435.73
778.41	5037.83
778.599	4620.05
778.789	4804.36
778.979	4456.21
779.169	4996.87
779.358	4814.6
779.548	4845.32
779.738	4409.11
779.927	4826.89
780.117	4552.46
780.307	4579.09
780.496	4370.19
780.686	4939.53
780.875	5166.85
781.065	4480.78
781.254	4548.37
781.444	4873.99
781.633	4880.14
781.823	4570.9
782.012	4480.78
782.202	4689.68
782.391	4724.49
782.581	4388.63
782.77	4562.7
782.96	4953.87
783.149	4681.49
783.338	4458.26
783.528	4294.42
783.717	4833.04
783.906	5062.41
784.096	4491.02
784.285	4319
784.474	4751.12
784.663	4620.05
784.853	4394.77
785.042	4521.74
785.231	4544.27
785.42	4982.54
785.61	4398.87
785.799	4085.53
785.988	4456.21
786.177	4714.25
786.366	4343.57
786.555	4378.39
786.744	4824.84
786.933	4640.53
787.122	4374.29
787.312	4138.77
787.501	4505.36
787.69	4501.26
787.879	4378.39
788.068	4257.56
788.257	4308.76
788.445	4501.26
788.634	4386.58
788.823	4079.38
789.012	5156.61
789.201	4828.94
789.39	4237.08
789.579	4073.24
789.768	4378.39
789.957	4536.08
790.145	4179.73
790.334	3915.55
790.523	4392.72
790.712	4368.15
790.9	4259.6
791.089	4130.58
791.278	4697.87
791.467	4398.87
791.655	4517.65
791.844	4718.35
792.033	4329.24
792.221	4513.55
792.41	4106.01
792.599	4132.63
792.787	4677.39
792.976	4654.86
793.164	3993.37
793.353	4216.6
793.541	4538.13
793.73	4579.09
793.918	4073.24
794.107	4079.38
794.295	4366.1
794.484	4480.78
794.672	4146.97
794.861	4144.92
795.049	4568.85
795.238	4816.65
795.426	3958.55
795.614	4151.06
795.803	4521.74
795.991	4744.97
796.179	4065.05
796.368	4101.91
796.556	4802.32
796.744	4169.49
796.932	4075.29
797.121	4081.43
797.309	4362
797.497	4542.22
797.685	4122.39
797.874	3927.83
798.062	4257.56
798.25	4628.24
798.438	3866.39
798.626	4013.85
798.814	4417.3
799.002	4917
799.19	4300.56
799.378	4001.56
799.566	4628.24
799.755	4921.1
799.943	4243.22
800.131	3901.21
800.318	4263.7
800.506	4515.6
800.694	4069.14
800.882	4198.17
801.07	4570.9
801.258	4218.64
801.446	4065.05
801.634	4071.19
801.822	4394.77
802.01	4337.43
802.197	3979.03
802.385	4140.82
802.573	4431.63
802.761	4122.39
802.949	4146.97
803.136	3870.49
803.324	4560.66
803.512	4441.87
803.699	4054.81
803.887	4030.23
804.075	4628.24
804.262	4112.15
804.45	3944.22
804.638	4101.91
804.825	4112.15
805.013	4108.05
805.201	4079.38
805.388	4030.23
805.576	4380.43
805.763	4693.77
805.951	4126.49
806.138	4202.26
806.326	4939.53
806.513	4529.94
806.701	4015.9
806.888	4056.86
807.075	4380.43
807.263	4714.25
807.45	3845.91
807.638	4155.16
807.825	4867.85
808.012	4474.64
808.2	4263.7
808.387	4407.06
808.574	4499.22
808.761	4726.54
808.949	3888.92
809.136	4054.81
809.323	4331.28
809.51	4245.27
809.698	4302.61
809.885	4273.94
810.072	4562.7
810.259	4728.59
810.446	4230.93
810.633	4106.01
810.82	4628.24
811.008	4841.23
811.195	4394.77
811.382	4278.04
811.569	4570.9
811.756	4175.64
811.943	4300.56
812.13	4210.45
812.317	4284.18
812.504	4353.81
812.691	4161.3
812.878	4411.15
813.064	4740.88
813.251	4435.73
813.438	3991.32
813.625	4402.96
813.812	4161.3
813.999	4407.06
814.186	4263.7
814.372	4179.73
814.559	4327.19
814.746	4693.77
814.933	4081.43
815.12	4239.12
815.306	4339.48
815.493	4275.99
815.68	3985.18
815.866	4151.06
816.053	4556.56
816.24	4747.02
816.426	4271.89
816.613	3960.6
816.799	4632.33
816.986	4771.6
817.173	4155.16
817.359	4054.81
817.546	4523.79
817.732	4079.38
817.919	3974.94
818.105	4230.93
818.292	4339.48
818.478	4417.3
818.665	4169.49
818.851	4079.38
819.037	4826.89
819.224	4263.7
819.41	3962.65
819.597	4095.77
819.783	4787.98
819.969	4568.85
820.156	4228.88
820.342	3927.83
820.528	5099.27
820.714	4087.57
820.901	4488.98
821.087	4226.84
821.273	4814.6
821.459	4290.32
821.646	4038.42
821.832	3960.6
822.018	4294.42
822.204	4263.7
822.39	4280.08
822.576	3784.48
822.762	4564.75
822.948	4347.67
823.134	4306.71
823.32	4038.42
823.507	3919.64
823.693	4529.94
823.879	4392.72
824.065	3985.18
824.25	4435.73
824.436	4175.64
824.622	3936.03
824.808	3847.96
824.994	4202.26
825.18	4032.28
825.366	3890.97
825.552	3919.64
825.738	4103.96
825.923	4484.88
826.109	4294.42
826.295	3944.22
826.481	3997.46
826.667	4179.73
826.852	4153.11
827.038	4003.61
827.224	4425.49
827.409	4599.57
827.595	3878.68
827.781	4103.96
827.966	4443.92
828.152	4431.63
828.338	3974.94
828.523	3663.65
828.709	4063
828.894	4450.07
829.08	4101.91
829.266	3966.74
829.451	4169.49
829.637	4390.67
829.822	4126.49
830.008	3821.34
830.193	4345.62
830.378	4335.38
830.564	4007.7
830.749	3778.33
830.935	4337.43
831.12	4355.86
831.305	3747.61
831.491	3960.6
831.676	3933.98
831.861	4302.61
832.047	3886.87
832.232	3807
832.417	4392.72
832.602	4235.03
832.788	3839.77
832.973	3747.61
833.158	4142.87
833.343	4173.59
833.528	3884.83
833.714	3860.25
833.899	4284.18
834.084	4544.27
834.269	4058.9
834.454	3751.71
834.639	4230.93
834.824	4169.49
835.009	3983.13
835.194	3989.27
835.379	4122.39
835.564	4431.63
835.749	3911.45
835.934	3712.8
836.119	4364.05
836.304	4101.91
836.489	3768.09
836.674	4149.01
836.859	3743.52
837.044	4378.39
837.228	3882.78
837.413	3798.81
837.598	4216.6
837.783	4290.32
837.968	3929.88
838.152	3710.75
838.337	3702.56
838.522	4308.76
838.707	4327.19
838.891	3968.79
839.076	4128.53
839.261	4198.17
839.445	3899.16
839.63	3911.45
839.815	4302.61
839.999	3874.59
840.184	3694.36
840.368	3624.73
840.553	3940.12
840.737	4169.49
840.922	3450.66
841.106	3604.25
841.291	3628.83
841.475	4050.71
841.66	3645.21
841.844	3628.83
842.029	4648.72
842.213	3727.13
842.397	3755.8
842.582	3487.52
842.766	4161.3
842.951	4146.97
843.135	3618.59
843.319	3475.23
843.504	3921.69
843.688	4130.58
843.872	3493.66
844.056	3542.82
844.241	3966.74
844.425	3866.39
844.609	3567.39
844.793	3348.26
844.977	4050.71
845.161	3870.49
845.346	3389.22
845.53	3497.76
845.714	3809.05
845.898	4288.28
846.082	3354.4
846.266	3510.05
846.45	3888.92
846.634	3866.39
846.818	3458.85
847.002	3604.25
847.186	3950.36
847.37	3391.27
847.554	3231.52
847.738	3680.03
847.922	3819.29
848.106	3972.89
848.29	3333.92
848.473	3350.31
848.657	3897.11
848.841	3718.94
849.025	3508
849.209	3219.24
849.392	4001.56
849.576	3645.21
849.76	3217.19
849.944	3534.62
850.127	3995.42
850.311	3297.06
850.495	3284.77
850.678	3307.3
850.862	4046.62
851.046	3962.65
851.229	3665.69
851.413	3252
851.596	3796.76
851.78	3612.45
851.964	3512.1
852.147	3505.95
852.331	4499.22
852.514	3946.27
852.698	3581.73
852.881	3254.05
853.065	3913.5
853.248	3690.27
853.431	3462.94
853.615	3438.37
853.798	4220.69
853.982	3598.11
854.165	3587.87
854.348	3272.48
854.532	3444.51
854.715	3432.22
854.898	3352.35
855.081	3237.67
855.265	3911.45
855.448	4124.44
855.631	3301.15
855.814	3264.29
855.997	3796.76
856.181	3579.68
856.364	3362.59
856.547	3145.51
856.73	3522.34
856.913	3606.3
857.096	3172.13
857.279	3376.93
857.462	3419.94
857.645	3641.12
857.828	3335.97
858.011	3489.57
858.194	3415.84
858.377	3428.13
858.56	3059.49
858.743	3112.74
858.926	3276.58
859.109	3538.72
859.292	3235.62
859.475	3063.59
859.658	3696.41
859.841	3587.87
860.023	2998.06
860.206	3006.25
860.389	3510.05
860.572	3759.9
860.755	3432.22
860.937	3272.48
861.12	3448.61
861.303	3516.19
861.486	3239.72
861.668	3055.4
861.851	3555.1
862.034	3454.75
862.216	3264.29
862.399	2891.56
862.581	3348.26
862.764	3723.04
862.947	3200.8
863.129	2950.95
863.312	3120.93
863.494	3725.08
863.677	3381.03
863.859	2905.9
864.042	3614.49
864.224	3690.27
864.406	3215.14
864.589	2799.4
864.771	3364.64
864.954	3118.89
865.136	3002.15
865.318	2852.65
865.501	3252
865.683	2885.42
865.865	3159.85
866.048	3077.93
866.23	3288.87
866.412	3370.79
866.594	2887.47
866.777	3102.5
866.959	3530.53
867.141	3043.11
867.323	3211.04
867.505	3112.74
867.687	3319.59
867.869	3182.37
868.052	3018.54
868.234	2846.51
868.416	3256.1
868.598	3405.6
868.78	3028.78
868.962	2912.04
869.144	3450.66
869.326	3440.42
869.508	2860.84
869.69	2852.65
869.872	3096.36
870.054	3530.53
870.236	2778.92
870.417	2899.75
870.599	3149.61
870.781	3649.31
870.963	3120.93
871.145	2866.99
871.327	2961.19
871.508	3391.27
871.69	3073.83
871.872	2969.38
872.054	3147.56
872.235	3389.22
872.417	2942.76
872.599	2885.42
872.78	3557.15
872.962	3247.91
873.144	2860.84
873.325	2924.33
873.507	3413.79
873.689	3178.28
873.87	2744.11
874.052	3049.25
874.233	3241.76
874.415	3497.76
874.596	2828.07
874.778	2830.12
874.959	3133.22
875.141	3485.47
875.322	2907.94
875.503	2731.82
875.685	3286.82
875.866	2721.58
876.048	2809.64
876.229	2760.49
876.41	3215.14
876.592	3274.53
876.773	2922.28
876.954	2649.9
877.136	3485.47
877.317	3186.47
877.498	2778.92
877.679	2893.61
877.86	3204.9
878.042	3073.83
878.223	2926.38
878.404	3168.04
878.585	3241.76
878.766	3669.79
878.947	3127.08
879.128	3067.69
879.309	3440.42
879.49	3497.76
879.672	3022.63
879.853	3122.98
880.034	3039.01
880.215	3209
880.396	2893.61
880.576	2924.33
880.757	3102.5
880.938	3508
881.119	2944.81
881.3	3045.16
881.481	3135.27
881.662	4071.19
881.843	2862.89
882.023	2840.36
882.204	3325.73
882.385	3137.32
882.566	2998.06
882.747	2821.93
882.927	3155.75
883.108	3340.07
883.289	2785.07
883.469	3215.14
883.65	3100.45
883.831	3370.79
884.011	3100.45
884.192	2944.81
884.373	3553.06
884.553	3358.5
884.734	3133.22
884.914	3491.62
885.095	3987.22
885.275	3720.99
885.456	3419.94
885.636	2975.53
885.817	3174.18
885.997	3262.24
886.178	3051.3
886.358	3163.94
886.538	3338.02
886.719	4523.79
886.899	3165.99
887.08	3362.59
887.26	3546.91
887.44	3088.17
887.621	2969.38
887.801	3174.18
887.981	3991.32
888.161	3649.31
888.342	3096.36
888.522	3137.32
888.702	3682.08
888.882	3639.07
889.062	3182.37
889.242	3049.25
889.423	3919.64
889.603	3397.41
889.783	3159.85
889.963	3067.69
890.143	3587.87
890.323	3594.01
890.503	3069.73
890.683	3145.51
890.863	3456.8
891.043	3467.04
891.223	3258.15
891.403	3256.1
891.583	3381.03
891.763	3305.25
891.943	3028.78
892.122	3047.21
892.302	3399.46
892.482	3378.98
892.662	3104.55
892.842	3186.47
893.022	3583.77
893.201	3313.44
893.381	3303.2
893.561	3114.79
893.741	3571.49
893.92	3483.42
894.1	3219.24
894.28	3125.03
894.459	3432.22
894.639	3415.84
894.819	3096.36
894.998	3276.58
895.178	3487.52
895.357	3364.64
895.537	3014.44
895.716	3020.58
895.896	3333.92
896.075	3725.08
896.255	3151.65
896.434	2926.38
896.614	3569.44
896.793	3690.27
896.973	3194.66
897.152	3161.89
897.331	3415.84
897.511	3634.97
897.69	2905.9
897.87	3092.26
898.049	3464.99
898.228	3245.86
898.407	3127.08
898.587	3196.71
898.766	3096.36
898.945	3350.31
899.124	3137.32
899.304	2996.01
899.483	3501.86
899.662	3729.18
899.841	2920.23
900.02	2979.62
900.199	3501.86
900.378	3303.2
900.557	2916.14
900.737	2821.93
900.916	3284.77
901.095	3434.27
901.274	3143.46
901.453	2918.18
901.632	3014.44
901.811	3077.93
901.989	2848.55
902.168	2774.83
902.347	3378.98
902.526	2989.86
902.705	2920.23
902.884	2866.99
903.063	3444.51
903.242	3348.26
903.42	2651.95
903.599	2981.67
903.778	3231.52
903.957	3421.99
904.135	2891.56
904.314	2823.98
904.493	3145.51
904.672	3112.74
904.85	2772.78
905.029	2770.73
905.207	3022.63
905.386	3684.13
905.565	2545.45
905.743	2613.04
905.922	2879.27
906.1	3106.6
906.279	2613.04
906.457	2471.73
906.636	2709.29
906.814	2834.22
906.993	2479.92
907.171	2514.73
907.35	2891.56
907.528	3034.92
907.707	2813.74
907.885	2477.87
908.063	3221.28
908.242	2703.15
908.42	2531.12
908.598	2344.75
908.777	2916.14
908.955	2647.85
909.133	2641.71
909.311	2408.24
909.49	2660.14
909.668	2719.53
909.846	2651.95
910.024	2279.22
910.202	2746.16
910.38	2891.56
910.559	2537.26
910.737	2492.21
910.915	2934.57
911.093	2809.64
911.271	2615.09
911.449	2807.59
911.627	3057.45
911.805	3413.79
911.983	2733.87
912.161	2524.97
912.339	3000.1
912.517	3221.28
912.695	2735.92
912.872	2649.9
913.05	2610.99
913.228	3026.73
913.406	2645.8
913.584	2547.5
913.762	3174.18
913.939	2588.46
914.117	2608.94
914.295	2549.55
914.473	2916.14
914.65	2987.82
914.828	2641.71
915.006	2580.27
915.184	2705.2
915.361	3063.59
915.539	2840.36
915.716	2887.47
915.894	2942.76
916.072	3045.16
916.249	2846.51
916.427	2662.19
916.604	2572.08
916.782	2805.55
916.959	2463.54
917.137	2584.37
917.314	3010.34
917.492	3063.59
917.669	2647.85
917.847	2539.31
918.024	3028.78
918.201	2811.69
918.379	2625.33
918.556	2627.37
918.733	2965.29
918.911	2703.15
919.088	2690.86
919.265	2516.78
919.442	2866.99
919.62	2754.35
919.797	2567.98
919.974	2385.71
920.151	2883.37
920.328	2823.98
920.506	2465.58
920.683	2735.92
920.86	2459.44
921.037	2596.65
921.214	2531.12
921.391	2363.19
921.568	2940.71
921.745	2479.92
921.922	2479.92
922.099	2508.59
922.276	2998.06
922.453	2887.47
922.63	2629.42
922.807	2744.11
922.984	2727.72
923.161	2660.14
923.338	2527.02
923.514	2416.43
923.691	2801.45
923.868	2883.37
924.045	2385.71
924.222	2451.25
924.399	2727.72
924.575	2963.24
924.752	2572.08
924.929	2498.35
925.105	2780.97
925.282	2498.35
925.459	2400.05
925.635	2500.4
925.812	2613.04
925.989	2502.45
926.165	2563.89
926.342	2197.3
926.518	2400.05
926.695	2619.18
926.871	2334.51
927.048	2275.12
927.224	2821.93
927.401	2484.02
927.577	2465.58
927.754	2174.77
927.93	2866.99
928.107	2703.15
928.283	2150.2
928.459	2565.93
928.636	2699.05
928.812	2385.71
928.988	2289.46
929.165	2158.39
929.341	2518.83
929.517	2557.74
929.693	2615.09
929.87	1982.26
930.046	2621.23
930.222	2412.34
930.398	2172.72
930.574	2326.32
930.751	2453.3
930.927	2305.84
931.103	2248.5
931.279	2240.31
931.455	2205.49
931.631	2502.45
931.807	1908.54
931.983	2000.69
932.159	2037.56
932.335	2441.01
932.511	2099
932.687	2160.44
932.863	2408.24
933.039	2326.32
933.215	2000.69
933.391	1963.83
933.566	2191.16
933.742	2277.17
933.918	2096.95
934.094	1808.19
934.27	2137.91
934.445	2223.92
934.621	2121.52
934.797	1781.56
934.973	2344.75
935.148	2137.91
935.324	1802.04
935.5	1605.44
935.675	2404.14
935.851	2137.91
936.027	1824.57
936.202	1746.75
936.378	2148.15
936.553	2051.89
936.729	2107.19
936.904	1619.77
937.08	1699.64
937.255	1804.09
937.431	1691.45
937.606	1455.94
937.782	1699.64
937.957	1845.05
938.133	1607.48
938.308	1402.69
938.483	1640.25
938.659	1527.61
938.834	1548.09
939.009	1249.09
939.185	1601.34
939.36	1464.13
939.535	1087.3
939.71	1425.22
939.886	1797.95
940.061	1697.6
940.236	1470.27
940.411	1275.71
940.586	1759.03
940.761	1689.4
940.937	1328.96
941.112	1187.65
941.287	1556.29
941.462	1492.8
941.637	1132.36
941.812	1277.76
941.987	1482.56
942.162	1396.54
942.337	1306.43
942.512	1161.03
942.687	1662.78
942.862	1541.95
943.037	1007.43
943.212	794.44
943.386	1392.45
943.561	1451.84
943.736	1249.09
943.911	1490.75
944.086	1441.6
944.26	1396.54
944.435	1210.18
944.61	1185.6
944.785	1703.74
944.959	1847.1
945.134	1132.36
945.309	1093.44
945.483	1281.86
945.658	1570.62
945.833	896.84
946.007	995.14
946.182	1642.3
946.357	1146.69
946.531	935.75
946.706	1038.15
946.88	958.28
947.055	1376.06
947.229	1046.34
947.404	1070.92
947.578	1576.77
947.752	1226.56
947.927	1068.87
948.101	1023.81
948.276	1380.16
948.45	1367.87
948.624	1451.84
948.799	1050.44
948.973	1408.83
949.147	1179.46
949.321	1169.22
949.496	1072.96
949.67	1687.36
949.844	1388.35
950.018	1156.93
950.193	1167.17
950.367	1867.58
950.541	1144.64
950.715	1222.47
950.889	1371.97
951.063	1230.66
951.237	1589.05
951.411	1036.1
951.585	1056.58
951.759	1427.26
951.933	1429.31
952.107	1163.08
952.281	1288
952.455	1865.53
952.629	1591.1
952.803	1197.89
952.977	1158.98
953.151	1593.15
953.325	1576.77
953.499	1367.87
953.672	1103.68
953.846	1226.56
954.02	1394.5
954.194	1120.07
954.368	1120.07
954.541	1587.01
954.715	1310.53
954.889	1361.73
955.062	1134.4
955.236	1408.83
955.41	1519.42
955.583	1376.06
955.757	1154.88
955.93	1283.91
956.104	1189.7
956.278	1220.42
956.451	1244.99
956.625	1476.41
956.798	1871.67
956.972	1349.44
957.145	1075.01
957.319	1617.72
957.492	1490.75
957.665	1351.49
957.839	1298.24
958.012	1660.73
958.185	1359.68
958.359	1195.84
958.532	1505.09
958.705	1640.25
958.879	1589.05
959.052	1369.92
959.225	1111.88
959.398	1593.15
959.572	1558.33
959.745	1126.21
959.918	1247.04
960.091	1419.07
960.264	1632.06
960.438	1175.36
960.611	1214.27
960.784	1695.55
960.957	1304.39
961.13	1572.67
961.303	1181.51
961.476	1490.75
961.649	1720.12
961.822	1107.78
961.995	1371.97
962.168	1511.23
962.341	1634.11
962.514	1271.62
962.686	1302.34
962.859	1509.18
963.032	1640.25
963.205	1367.87
963.378	1060.68
963.551	1550.14
963.723	1525.57
963.896	1312.58
964.069	1408.83
964.242	1421.12
964.414	1824.57
964.587	1339.2
964.76	1359.68
964.932	1550.14
965.105	1453.89
965.278	1214.27
965.45	1199.94
965.623	1541.95
965.795	1726.27
965.968	1283.91
966.14	1312.58
966.313	1453.89
966.485	1701.69
966.658	1363.78
966.83	1179.46
967.003	1795.9
967.175	1613.63
967.348	1267.52
967.52	1218.37
967.692	1894.2
967.865	1615.68
968.037	1304.39
968.209	1480.51
968.382	1431.36
968.554	1691.45
968.726	1263.43
968.898	1101.64
969.071	1519.42
969.243	1492.8
969.415	1218.37
969.587	1369.92
969.759	1992.5
969.932	1587.01
970.104	1253.19
970.276	980.81
970.448	1341.25
970.62	1406.78
970.792	1339.2
970.964	1255.23
971.136	1883.96
971.308	1480.51
971.48	1072.96
971.652	1126.21
971.824	1724.22
971.996	1298.24
972.168	1204.03
972.339	1257.28
972.511	1730.36
972.683	1314.63
972.855	1433.41
973.027	1191.75
973.199	1380.16
973.37	1572.67
973.542	1167.17
973.714	1304.39
973.886	1378.11
974.057	1601.34
974.229	1054.53
974.401	1197.89
974.572	1122.12
974.744	943.94
974.915	974.66
975.087	1077.06
975.259	1756.99
975.43	1232.71
975.602	1150.79
975.773	1040.2
975.945	1279.81
976.116	1552.19
976.288	966.47
976.459	1339.2
976.63	1361.73
976.802	1457.98
976.973	1089.35
977.145	1290.05
977.316	1771.32
977.487	1632.06
977.659	1247.04
977.83	1136.45
978.001	1767.23
978.172	1371.97
978.344	931.66
978.515	1105.73
978.686	1154.88
978.857	1679.16
979.028	1075.01
979.2	1044.29
979.371	1601.34
979.542	1337.15
979.713	1195.84
979.884	636.75
980.055	1072.96
980.226	1214.27
980.397	1066.82
980.568	827.21
980.739	1511.23
980.91	1279.81
981.081	1081.16
981.252	954.18
981.423	1290.05
981.594	1558.33
981.765	958.28
981.936	1079.11
982.106	1261.38
982.277	1544
982.448	886.6
982.619	1032.01
982.79	1124.16
982.96	1574.72
983.131	1011.53
983.302	804.68
983.472	1150.79
983.643	1316.67
983.814	1138.5
983.984	995.14
984.155	1171.27
984.326	1437.5
984.496	1015.62
984.667	925.51
984.837	1046.34
985.008	1515.33
985.178	1183.56
985.349	921.42
985.519	1111.88
985.69	958.28
985.86	1025.86
986.031	855.88
986.201	1216.32
986.371	1328.96
986.542	796.49
986.712	792.39
986.882	1175.36
987.053	1167.17
987.223	741.19
987.393	997.19
987.563	1040.2
987.734	1290.05
987.904	1296.19
988.074	876.36
988.244	1144.64
988.414	999.24
988.585	845.64
988.755	1021.77
988.925	1154.88
989.095	1552.19
989.265	741.19
989.435	829.26
989.605	1277.76
989.775	1310.53
989.945	1208.13
990.115	823.11
990.285	1048.39
990.455	1017.67
990.625	909.13
990.795	943.94
990.965	1527.61
991.134	808.78
991.304	786.25
991.474	884.55
991.644	1242.95
991.814	1455.94
991.984	749.39
992.153	579.4
992.323	1011.53
992.493	1062.73
992.662	528.21
992.832	974.66
993.002	1040.2
993.171	1150.79
993.341	603.98
993.511	890.7
993.68	943.94
993.85	1154.88
994.019	589.64
994.189	646.99
994.358	1021.77
994.528	804.68
994.697	454.48
994.867	659.28
995.036	1126.21
995.206	870.22
995.375	698.19
995.544	905.03
995.714	1083.2
995.883	894.79
996.052	837.45
996.222	544.59
996.391	1388.35
996.56	1079.11
996.73	696.14
996.899	462.67
997.068	1216.32
997.237	859.98
997.406	587.6
997.576	507.73
997.745	980.81
997.914	964.42
998.083	382.8
998.252	603.98
998.421	792.39
998.59	667.47
998.759	503.63
998.928	489.29
999.097	1220.42
999.266	1056.58
999.435	714.57
999.604	413.52
999.773	1371.97
999.942	937.8
1000.111	472.91
1000.28	362.32
1000.448	616.27
1000.617	728.91
1000.786	786.25
1000.955	372.56
1001.124	1025.86
1001.292	1572.67
1001.461	556.88
1001.63	409.42
1001.798	1199.94
1001.967	1185.6
1002.136	380.75
1002.304	468.81
1002.473	945.99
1002.642	845.64
1002.81	569.16
1002.979	599.88
1003.147	1007.43
1003.316	1304.39
1003.484	513.87
1003.653	444.24
1003.821	1070.92
1003.99	696.14
1004.158	689.99
1004.327	511.82
1004.495	878.41
1004.663	599.88
1004.832	558.92
1005	278.35
1005.168	900.94
1005.337	839.5
1005.505	413.52
1005.673	583.5
1005.842	933.7
1006.01	933.7
1006.178	401.23
1006.346	321.36
1006.514	839.5
1006.683	1032.01
1006.851	470.86
1007.019	520.01
1007.187	620.36
1007.355	290.64
1007.523	221.01
1007.691	261.97
1007.859	368.46
1008.027	974.66
1008.195	380.75
1008.363	319.31
1008.531	837.45
1008.699	597.84
1008.867	237.39
1009.035	444.24
1009.203	1075.01
1009.37	700.23
1009.538	421.71
1009.706	720.71
1009.874	689.99
1010.042	620.36
1010.209	223.06
1010.377	280.4
1010.545	859.98
1010.713	651.08
1010.88	339.79
1011.048	329.55
1011.216	573.26
1011.383	972.61
1011.551	296.78
1011.718	171.86
1011.886	927.56
1012.054	712.52
1012.221	231.25
1012.389	255.83
1012.556	585.55
1012.724	1111.88
1012.891	425.81
1013.058	145.24
1013.226	696.14
1013.393	933.7
1013.561	147.28
1013.728	264.02
1013.895	776.01
1014.063	776.01
1014.23	10.07
1014.397	233.3
1014.565	741.19
1014.732	479.05
1014.899	245.59
1015.066	96.08
1015.233	614.22
1015.401	788.3
1015.568	296.78
1015.735	311.12
1015.902	638.8
1016.069	681.8
1016.236	339.79
1016.403	180.05
1016.57	384.85
1016.737	823.11
1016.904	294.74
1017.071	122.71
1017.238	474.96
1017.405	763.72
1017.572	235.35
1017.739	368.46
1017.906	618.32
1018.073	739.15
1018.24	126.8
1018.407	266.07
1018.573	933.7
1018.74	450.38
1018.907	194.39
1019.074	36.69
1019.241	827.21
1019.407	536.4
1019.574	155.47
1019.741	79.7
1019.907	683.85
1020.074	599.88
1020.241	-88.23
1020.407	112.47
1020.574	542.54
1020.74	661.32
1020.907	192.34
1021.073	94.04
1021.24	1052.49
1021.406	794.44
1021.573	59.22
1021.739	87.89
1021.906	819.02
1022.072	456.53
1022.239	180.05
1022.405	200.53
1022.571	612.17
1022.738	335.7
1022.904	139.09
1023.07	239.44
1023.237	583.5
1023.403	667.47
1023.569	126.8
1023.735	194.39
1023.902	571.21
1024.068	552.78
1024.234	75.6
1024.4	83.8
1024.566	642.89
1024.732	675.66
1024.898	73.56
1025.065	-4.27
1025.231	655.18
1025.397	384.85
1025.563	46.93
1025.729	-47.27
1025.895	81.75
1026.061	257.87
1026.227	-28.84
1026.392	143.19
1026.558	651.08
1026.724	577.36
1026.89	57.17
1027.056	149.33
1027.222	591.69
1027.388	337.74
1027.553	108.37
1027.719	51.03
1027.885	796.49
1028.051	552.78
1028.216	-86.19
1028.382	18.26
1028.548	685.9
1028.713	372.56
1028.879	-37.03
1029.045	200.53
1029.21	651.08
1029.376	761.67
1029.541	151.38
1029.707	153.43
1029.873	577.36
1030.038	579.4
1030.204	63.32
1030.369	59.22
1030.534	675.66
1030.7	452.43
1030.865	53.08
1031.031	1.88
1031.196	540.49
1031.361	497.49
1031.527	20.31
1031.692	61.27
1031.857	63.32
1032.023	470.86
1032.188	5.97
1032.353	16.21
1032.518	776.01
1032.684	540.49
1032.849	-84.14
1033.014	128.85
1033.179	524.11
1033.344	474.96
1033.509	110.42
1033.674	61.27
1033.839	579.4
1034.004	472.91
1034.17	-8.36
1034.335	-96.43
1034.5	304.98
1034.664	290.64
1034.829	-69.8
1034.994	61.27
1035.159	421.71
1035.324	552.78
1035.489	42.84
1035.654	-14.51
1035.819	708.43
1035.984	434
1036.148	108.37
1036.313	-0.17
1036.478	675.66
1036.643	401.23
1036.807	34.64
1036.972	-92.33
1037.137	724.81
1037.301	405.33
1037.466	-180.39
1037.631	118.61
1037.795	761.67
1037.96	421.71
1038.124	169.81
1038.289	-170.15
1038.454	556.88
1038.618	462.67
1038.783	57.17
1038.947	59.22
1039.111	487.25
1039.276	384.85
1039.44	18.26
1039.605	354.13
1039.769	372.56
1039.933	397.14
1040.098	89.94
1040.262	223.06
1040.426	608.08
1040.591	618.32
1040.755	-59.56
1040.919	-4.27
1041.083	429.9
1041.248	345.94
1041.412	-159.91
1041.576	-43.18
1041.74	266.07
1041.904	618.32
1042.068	-133.29
1042.232	46.93
1042.397	556.88
1042.561	442.19
1042.725	-243.88
1042.889	112.47
1043.053	667.47
1043.217	477.01
1043.381	67.41
1043.544	-84.14
1043.708	630.6
1043.872	196.43
1044.036	-272.55
1044.2	-94.38
1044.364	640.84
1044.528	728.91
1044.691	2930.47
1044.855	-92.33
1045.019	704.33
1045.183	460.62
1045.346	42.84
1045.51	-32.94
1045.674	462.67
1045.837	446.29
1046.001	3.93
1046.165	-39.08
1046.328	937.8
1046.492	419.66
1046.655	165.71
1046.819	40.79
1046.983	116.56
1047.146	438.09
1047.31	77.65
1047.473	-204.97
1047.636	341.84
1047.8	159.57
1047.963	-0.17
1048.127	-114.86
1048.29	122.71
