Data from Hydrogel_Ink_Intensity_Test_1_USB4F045381__36__00036.txt Node

Date: Mon Jul 31 10:45:38 EDT 2023
User: mmckonesweet
Spectrometer: USB4F04538
Trigger mode: 4
Integration Time (sec): 9.000000E-1
Scans to average: 1
Electric dark correction enabled: true
Nonlinearity correction enabled: false
Boxcar width: 0
XAxis mode: Wavelengths
Number of Pixels in Spectrum: 3648
>>>>>Begin Spectral Data<<<<<
345.52	-1025.86
345.736	-1025.86
345.952	-1025.86
346.168	-970.57
346.384	-972.61
346.6	-157.52
346.816	-192.34
347.032	-231.25
347.248	301.22
347.464	-159.57
347.68	-91.99
347.896	86.19
348.112	348.33
348.328	-71.51
348.544	-67.41
348.76	51.37
348.975	184.49
349.191	-227.15
349.407	-122.71
349.623	12.46
349.839	-61.27
350.055	-106.32
350.27	82.09
350.486	139.43
350.702	387.24
350.918	211.11
351.133	-102.23
351.349	211.11
351.565	387.24
351.781	-202.58
351.996	67.75
352.212	266.41
352.428	-108.37
352.644	-184.15
352.859	-110.42
353.075	266.41
353.291	16.55
353.506	-36.69
353.722	-231.25
353.938	12.46
354.153	401.57
354.369	151.72
354.584	-198.48
354.8	227.5
355.016	-249.68
355.231	-214.87
355.447	-34.64
355.662	188.58
355.878	733.34
356.093	-296.78
356.309	22.7
356.524	-196.43
356.74	356.52
356.955	-184.15
357.171	53.42
357.386	155.82
357.602	-274.26
357.817	-40.79
358.033	-139.09
358.248	364.71
358.464	172.2
358.679	-28.5
358.895	-266.07
359.11	-20.31
359.325	319.65
359.541	336.04
359.756	14.51
359.972	-261.97
360.187	200.87
360.402	-137.04
360.618	-132.95
360.833	1011.87
361.048	194.73
361.264	-122.71
361.479	24.75
361.694	-8.02
361.909	270.5
362.125	-77.65
362.34	-124.76
362.555	342.18
362.77	14.51
362.986	-171.86
363.201	-122.71
363.416	186.54
363.631	61.61
363.847	-161.62
364.062	-81.75
364.277	231.59
364.492	77.99
364.707	-145.24
364.922	-356.18
365.138	346.28
365.353	438.44
365.568	-178
365.783	-38.74
365.998	86.19
366.213	684.19
366.428	-161.62
366.643	118.95
366.858	297.13
367.073	258.21
367.288	-94.04
367.503	-239.44
367.718	127.14
367.933	368.81
368.148	-221.01
368.363	-12.12
368.578	-51.03
368.793	446.63
369.008	-63.32
369.223	-171.86
369.438	209.06
369.653	444.58
369.868	-190.29
370.083	-192.34
370.298	147.62
370.513	422.05
370.728	213.16
370.943	-167.76
371.157	-71.51
371.372	604.32
371.587	-130.9
371.802	-147.28
372.017	114.86
372.232	614.56
372.446	104.62
372.661	-137.04
372.876	364.71
373.091	231.59
373.306	30.89
373.52	-130.9
373.735	-106.32
373.95	575.65
374.165	26.79
374.379	-77.65
374.594	-57.17
374.809	311.46
375.023	184.49
375.238	-165.71
375.453	313.51
375.667	-110.42
375.882	-42.84
376.097	-53.08
376.311	159.91
376.526	106.67
376.741	-34.64
376.955	213.16
377.17	635.04
377.384	577.7
377.599	-22.36
377.813	-196.43
378.028	682.14
378.242	309.41
378.457	28.84
378.672	-302.93
378.886	147.62
379.101	86.19
379.315	-218.96
379.53	-12.12
379.744	358.57
379.958	338.09
380.173	12.46
380.387	-104.28
380.602	227.5
380.816	41.13
381.031	-28.5
381.245	16.55
381.459	385.19
381.674	2687.11
381.888	-34.64
382.103	217.26
382.317	-34.64
382.531	585.89
382.746	53.42
382.96	-16.21
383.174	-1.88
383.388	557.22
383.603	254.12
383.817	-106.32
384.031	233.64
384.246	659.62
384.46	118.95
384.674	409.76
384.888	202.92
385.103	211.11
385.317	-98.13
385.531	106.67
385.745	469.16
385.959	581.79
386.174	43.18
386.388	-71.51
386.602	86.19
386.816	90.28
387.03	102.57
387.244	192.68
387.458	286.89
387.672	587.94
387.887	-63.32
388.101	-100.18
388.315	473.25
388.529	331.94
388.743	71.85
388.957	-5.97
389.171	573.6
389.385	12.46
389.599	92.33
389.813	276.65
390.027	387.24
390.241	882.85
390.455	108.71
390.669	159.91
390.883	125.1
391.097	663.71
391.311	272.55
391.525	104.62
391.738	381.09
391.952	458.92
392.166	145.58
392.38	22.7
392.594	575.65
392.808	651.42
393.022	186.54
393.236	215.21
393.449	465.06
393.663	383.14
393.877	-16.21
394.091	229.54
394.305	260.26
394.518	174.25
394.732	-48.98
394.946	151.72
395.16	692.38
395.373	309.41
395.587	110.76
395.801	77.99
396.015	524.45
396.228	495.78
396.442	75.95
396.656	-124.76
396.869	585.89
397.083	757.92
397.297	104.62
397.51	260.26
397.724	651.42
397.938	454.82
398.151	4.27
398.365	26.79
398.578	506.02
398.792	589.99
399.005	293.03
399.219	172.2
399.433	401.57
399.646	503.97
399.86	348.33
400.073	338.09
400.287	581.79
400.5	311.46
400.714	364.71
400.927	389.28
401.141	587.94
401.354	1314.97
401.567	624.8
401.781	108.71
401.994	678.05
402.208	962.72
402.421	286.89
402.635	293.03
402.848	368.81
403.061	710.82
403.275	360.61
403.488	198.82
403.701	794.78
403.915	561.31
404.128	438.44
404.341	225.45
404.555	647.33
404.768	399.52
404.981	407.72
405.195	217.26
405.408	884.89
405.621	596.13
405.834	506.02
406.048	110.76
406.261	852.13
406.474	915.61
406.687	229.54
406.9	381.09
407.114	483.49
407.327	643.23
407.54	18.6
407.753	190.63
407.966	372.9
408.179	704.67
408.392	217.26
408.605	180.39
408.819	573.6
409.032	618.66
409.245	352.42
409.458	540.83
409.671	696.48
409.884	903.32
410.097	194.73
410.31	514.21
410.523	665.76
410.736	508.07
410.949	360.61
411.162	454.82
411.375	932
411.588	802.97
411.801	485.54
412.014	356.52
412.227	477.35
412.44	520.35
412.653	350.37
412.865	553.12
413.078	794.78
413.291	790.69
413.504	434.34
413.717	319.65
413.93	878.75
414.143	438.44
414.356	393.38
414.568	239.78
414.781	870.56
414.994	690.34
415.207	557.22
415.42	491.68
415.632	932
415.845	1216.66
416.058	286.89
416.271	377
416.483	696.48
416.696	995.48
416.909	391.33
417.121	405.67
417.334	864.41
417.547	1138.84
417.759	465.06
417.972	465.06
418.185	663.71
418.397	927.9
418.61	442.53
418.823	501.92
419.035	1124.51
419.248	667.81
419.46	647.33
419.673	665.76
419.885	819.36
420.098	614.56
420.311	528.55
420.523	397.48
420.736	817.31
420.948	764.06
421.161	536.74
421.373	393.38
421.586	825.5
421.798	655.52
422.01	463.01
422.223	600.23
422.435	751.78
422.648	964.76
422.86	518.31
423.073	571.55
423.285	1110.17
423.497	536.74
423.71	542.88
423.922	581.79
424.134	1061.02
424.347	1214.62
424.559	848.03
424.771	1087.64
424.984	858.27
425.196	911.52
425.408	495.78
425.621	561.31
425.833	1161.37
426.045	1183.9
426.257	616.61
426.47	708.77
426.682	1022.11
426.894	1085.59
427.106	776.35
427.318	805.02
427.531	731.3
427.743	1095.83
427.955	651.42
428.167	1136.79
428.379	1087.64
428.591	979.1
428.804	903.32
429.016	704.67
429.228	913.56
429.44	1024.16
429.652	966.81
429.864	657.57
430.076	1007.77
430.288	977.05
430.5	962.72
430.712	950.43
430.924	1302.68
431.136	1120.41
431.348	663.71
431.56	741.54
431.772	1028.25
431.984	991.39
432.196	764.06
432.408	950.43
432.62	1030.3
432.832	1196.18
433.044	1208.47
433.256	1104.03
433.468	1368.21
433.679	882.85
433.891	827.55
434.103	1163.42
434.315	1575.06
434.527	1396.89
434.739	1048.73
434.95	1136.79
435.162	1446.04
435.374	1054.87
435.586	1079.45
435.798	1007.77
436.009	1048.73
436.221	1130.65
436.433	993.44
436.645	1087.64
436.856	1052.83
437.068	1470.61
437.28	1061.02
437.491	1448.08
437.703	1450.13
437.915	1302.68
438.126	1128.6
438.338	1450.13
438.55	1308.82
438.761	1532.05
438.973	1175.7
439.184	1212.57
439.396	1456.28
439.608	1663.12
439.819	1159.32
440.031	1214.62
440.242	1575.06
440.454	1530
440.665	1306.77
440.877	1390.74
441.088	1603.73
441.3	1417.37
441.511	1155.23
441.723	1245.34
441.934	1403.03
442.146	1474.71
442.357	1499.28
442.569	1446.04
442.78	1505.43
442.991	2035.85
443.203	1554.58
443.414	1179.8
443.626	1876.11
443.837	1462.42
444.048	1284.25
444.26	1124.51
444.471	1556.63
444.682	1757.33
444.894	1101.98
445.105	1202.33
445.316	1872.01
445.528	1722.51
445.739	1427.6
445.95	1439.89
446.161	1609.87
446.373	1798.29
446.584	1437.84
446.795	1376.41
447.006	1855.63
447.217	2027.66
447.429	1357.97
447.64	1372.31
447.851	2023.56
448.062	1769.62
448.273	1255.58
448.484	1532.05
448.695	1835.15
448.907	1634.45
449.118	1511.57
449.329	1665.17
449.54	1636.5
449.751	1581.2
449.962	1558.67
450.173	1476.76
450.384	2056.33
450.595	2107.53
450.806	1554.58
451.017	1679.51
451.228	2168.97
451.439	2125.96
451.65	1732.75
451.861	1368.21
452.072	1716.37
452.283	1786
452.494	1831.05
452.705	1751.18
452.915	2314.38
453.126	2044.04
453.337	1851.53
453.548	1652.88
453.759	2209.93
453.97	2525.32
454.181	2091.15
454.391	1835.15
454.602	2130.06
454.813	2201.74
455.024	2003.08
455.235	1806.48
455.445	2123.91
455.656	2189.45
455.867	1958.03
456.078	1937.55
456.288	1984.65
456.499	2228.36
456.71	1896.59
456.921	2199.69
457.131	2318.47
457.342	1996.94
457.553	2035.85
457.763	1982.6
457.974	2445.45
458.184	2478.21
458.395	1996.94
458.606	2037.9
458.816	2537.6
459.027	2752.64
459.237	2332.81
459.448	2037.9
459.659	2674.82
459.869	2932.86
460.08	1980.56
460.29	2506.88
460.501	2918.53
460.711	2447.49
460.922	2123.91
461.132	2341
461.343	3235.96
461.553	2343.05
461.764	2363.53
461.974	2363.53
462.184	2730.11
462.395	2779.26
462.605	2558.08
462.816	2312.33
463.026	2748.54
463.236	2969.73
463.447	2670.72
463.657	2461.83
463.867	3121.28
464.078	2699.39
464.288	2625.67
464.498	2613.38
464.709	3014.78
464.919	2906.24
465.129	2695.3
465.339	2586.76
465.55	3051.64
465.76	3199.1
465.97	2826.37
466.18	2830.46
466.391	3291.26
466.601	3199.1
466.811	2936.96
467.021	2871.42
467.231	3293.3
467.441	3631.22
467.651	3143.8
467.862	2826.37
468.072	3371.13
468.282	3807.34
468.492	3154.04
468.702	3342.46
468.912	3530.87
469.122	4151.4
469.332	3539.06
469.542	3199.1
469.752	3715.19
469.962	3577.97
470.172	3463.29
470.382	3514.49
470.592	4008.05
470.802	4104.3
471.012	3672.18
471.222	3711.09
471.432	4251.75
471.642	4110.44
471.852	3860.59
472.062	3666.03
472.272	4143.21
472.482	3854.45
472.691	3911.79
472.901	3784.82
473.111	4194.41
473.321	4919.39
473.531	3954.8
473.741	4214.89
473.95	4427.88
474.16	4714.59
474.37	4503.65
474.58	4386.92
474.79	5058.65
474.999	4935.78
475.209	4372.58
475.419	4565.09
475.628	4696.16
475.838	5193.82
476.048	4657.25
476.258	4634.72
476.467	5394.52
476.677	5091.42
476.886	5236.83
477.096	5130.33
477.306	5060.7
477.515	5566.55
477.725	5070.94
477.935	5238.87
478.144	5918.8
478.354	5435.48
478.563	5394.52
478.773	5202.01
478.982	5943.38
479.192	5976.14
479.401	5638.23
479.611	5439.58
479.82	5634.13
480.03	6035.53
480.239	5658.71
480.449	5736.53
480.658	6416.46
480.868	5951.57
481.077	6324.3
481.287	5816.4
481.496	6465.61
481.705	6758.47
481.915	6408.26
482.124	6340.68
482.333	6539.33
482.543	6938.69
482.752	6506.57
482.961	6432.84
483.171	6791.24
483.38	6733.89
483.589	6692.93
483.799	6647.88
484.008	7102.53
484.217	7221.31
484.426	6656.07
484.636	6840.39
484.845	7331.9
485.054	6770.76
485.263	7327.8
485.472	7004.22
485.682	7790.64
485.891	7587.89
486.1	6774.85
486.309	7190.59
486.518	7637.05
486.727	7786.55
486.936	7323.71
487.146	7426.11
487.355	7997.49
487.564	7555.13
487.773	7655.48
487.982	7706.68
488.191	8046.64
488.4	8167.47
488.609	7774.26
488.818	7862.32
489.027	8667.17
489.236	8843.3
489.445	8009.78
489.654	7997.49
489.863	8718.37
490.072	8466.47
490.281	8570.92
490.49	8445.99
490.698	8939.55
490.907	9105.44
491.116	8546.34
491.325	8425.51
491.534	9146.4
491.743	8886.31
491.952	8671.27
492.16	8708.13
492.369	9052.19
492.578	9502.75
492.787	8812.58
492.996	8982.56
493.204	9048.1
493.413	9828.37
493.622	8822.82
493.831	8818.72
494.039	9623.58
494.248	9238.56
494.457	9058.34
494.665	9130.02
494.874	9943.06
495.083	10145.81
495.291	9642.01
495.5	9601.05
495.709	9971.73
495.917	9855
496.126	9644.06
496.335	9752.6
496.543	9990.16
496.752	10059.79
496.96	10022.93
497.169	9795.61
497.377	10070.03
497.586	10508.3
497.794	10219.53
498.003	9850.9
498.211	10338.32
498.42	10846.21
498.628	10526.73
498.837	10139.66
499.045	10428.43
499.254	10592.27
499.462	10385.42
499.671	10420.24
499.879	10766.34
500.087	10831.88
500.296	10315.79
500.504	10514.44
500.713	10702.86
500.921	11331.58
501.129	10487.82
501.338	10618.89
501.546	11075.59
501.754	11132.93
501.962	10788.87
502.171	10639.37
502.379	11368.45
502.587	11583.48
502.795	11145.22
503.004	10977.28
503.212	11253.76
503.42	11612.15
503.628	11333.63
503.837	11556.86
504.045	11567.1
504.253	11952.12
504.461	10993.67
504.669	11388.92
504.877	11892.73
505.085	12111.86
505.294	11284.48
505.502	11569.15
505.71	11837.43
505.918	11915.25
506.126	11448.32
506.334	11585.53
506.542	11888.63
506.75	11980.79
506.958	11974.64
507.166	11753.46
507.374	11837.43
507.582	12496.88
507.79	12163.06
507.998	12005.36
508.206	12437.48
508.414	12531.69
508.622	12083.19
508.83	12152.82
509.037	12695.53
509.245	12369.9
509.453	12072.95
509.661	11982.84
509.869	12492.78
510.077	12597.23
510.285	12503.02
510.492	12261.36
510.7	13316.06
510.908	12441.58
511.116	12394.48
511.324	12619.75
511.531	12836.84
511.739	12992.48
511.947	12832.74
512.155	13076.45
512.362	13025.25
512.57	12818.41
512.778	12572.65
512.985	12562.41
513.193	13359.07
513.401	13496.28
513.608	13004.77
513.816	12914.66
514.024	13357.02
514.231	13481.95
514.439	13199.33
514.646	12832.74
514.854	13721.56
515.061	13445.09
515.269	13254.62
515.477	12906.47
515.684	13391.84
515.892	13719.51
516.099	13068.26
516.307	13230.05
516.514	13764.57
516.722	14155.73
516.929	13254.62
517.136	13430.75
517.344	14225.36
517.551	13756.38
517.759	13610.97
517.966	13574.11
518.173	13352.93
518.381	14141.39
518.588	13756.38
518.796	13516.76
519.003	14211.03
519.21	14090.2
519.418	13830.1
519.625	13940.69
519.832	14120.92
520.039	14505.93
520.247	13885.4
520.454	14305.23
520.661	14839.75
520.868	14305.23
521.076	14313.42
521.283	14141.39
521.49	14960.58
521.697	14477.26
521.904	14108.63
522.112	14084.05
522.319	14862.28
522.526	14518.22
522.733	14403.53
522.94	14294.99
523.147	14616.52
523.354	14905.29
523.561	14434.25
523.768	14514.13
523.975	15222.72
524.183	15093.7
524.39	14659.53
524.597	14600.14
524.804	15323.07
525.011	14983.11
525.218	14802.89
525.425	14897.1
525.632	15546.3
525.838	15171.52
526.045	14989.25
526.252	14958.53
526.459	16453.55
526.666	16160.69
526.873	15005.64
527.08	15456.19
527.287	15798.2
527.494	15744.95
527.701	15323.07
527.907	15257.54
528.114	16062.39
528.321	15593.4
528.528	15527.87
528.735	15423.42
528.941	15890.36
529.148	15476.67
529.355	15607.74
529.562	15742.91
529.768	16246.71
529.975	15587.26
530.182	15724.47
530.388	15482.81
530.595	16220.08
530.802	15486.91
531.008	16052.15
531.215	15849.4
531.422	16623.53
531.628	17239.97
531.835	16043.96
532.042	16283.57
532.248	16238.51
532.455	16355.25
532.661	16261.04
532.868	16117.68
533.074	16459.7
533.281	16951.21
533.487	16480.18
533.694	16314.29
533.9	16641.96
534.107	16674.73
534.313	16451.5
534.52	16240.56
534.726	17207.2
534.933	17403.81
535.139	16570.29
535.345	16484.27
535.552	17135.53
535.758	17102.76
535.965	16707.5
536.171	16666.54
536.377	17178.53
536.584	17334.18
536.79	16619.44
536.996	17014.7
537.203	17199.01
537.409	17323.94
537.615	17252.26
537.821	17100.71
538.028	17383.33
538.234	17547.17
538.44	16910.25
538.646	17254.31
538.853	17663.9
539.059	17612.7
539.265	17825.69
539.471	17268.64
539.677	17856.41
539.883	17551.26
540.09	17334.18
540.296	18245.52
540.502	17794.97
540.708	17807.26
540.914	17758.11
541.12	17883.03
541.326	18384.79
541.532	18081.69
541.738	18065.3
541.944	17973.14
542.15	18532.24
542.356	18210.71
542.562	18081.69
542.768	18362.26
542.974	19015.56
543.18	18829.2
543.386	18253.72
543.592	18268.05
543.798	18857.87
544.004	18761.61
544.21	18315.16
544.415	18319.25
544.621	18587.54
544.827	18970.51
545.033	18517.9
545.239	18718.61
545.445	19017.61
545.651	18917.26
545.856	18562.96
546.062	18806.67
546.268	19068.81
546.474	19029.9
546.679	18696.08
546.885	18853.77
547.091	18796.43
547.297	19431.3
547.502	18845.58
547.708	18636.69
547.914	18974.6
548.119	19330.95
548.325	18947.98
548.531	18446.23
548.736	19502.98
548.942	19191.69
549.147	18823.05
549.353	19138.44
549.559	19746.69
549.764	19423.11
549.97	18802.57
550.175	18990.98
550.381	19699.58
550.586	19160.97
550.792	19165.06
550.997	18956.17
551.203	19775.36
551.408	19795.84
551.614	19117.96
551.819	19167.11
552.025	20211.57
552.23	20463.47
552.435	19656.57
552.641	19957.63
552.846	20084.6
553.052	20496.24
553.257	19922.81
553.462	20002.68
553.668	20004.73
553.873	20356.98
554.078	19810.17
554.283	19771.26
554.489	20359.03
554.694	20533.11
554.899	19888
555.105	20385.65
555.31	20260.73
555.515	20381.56
555.72	20365.17
555.925	20072.31
556.131	20873.07
556.336	20420.47
556.541	20201.33
556.746	20330.36
556.951	20797.29
557.156	20911.98
557.361	20291.45
557.567	20848.49
557.772	21043.05
557.977	21008.23
558.182	20617.07
558.387	20631.41
558.592	20621.17
558.797	21186.41
559.002	20473.71
559.207	20625.26
559.412	20928.36
559.617	21221.22
559.822	20785.01
560.027	20678.51
560.232	21000.04
560.437	20979.56
560.642	20975.47
560.847	20950.89
561.051	21372.77
561.256	21309.29
561.461	21145.45
561.666	21145.45
561.871	21223.27
562.076	21370.72
562.281	21452.64
562.485	20957.03
562.69	21649.25
562.895	21509.99
563.1	21237.61
563.305	21204.84
563.509	21747.55
563.714	21960.54
563.919	21305.19
564.123	20950.89
564.328	21454.69
564.533	21899.1
564.737	20963.18
564.942	20938.6
565.147	21970.78
565.351	22255.45
565.556	21577.57
565.761	21524.32
565.965	21804.89
566.17	21645.15
566.374	21770.08
566.579	21475.17
566.784	21903.2
566.988	21667.68
567.193	21301.09
567.397	21823.33
567.602	21862.24
567.806	22030.17
568.011	21647.2
568.215	22175.58
568.42	21903.2
568.624	21888.86
568.828	21856.09
569.033	22097.75
569.237	22353.75
569.442	22544.21
569.646	21729.12
569.85	21870.43
570.055	22294.36
570.259	22302.55
570.463	22073.18
570.668	22230.87
570.872	22280.02
571.076	22411.09
571.281	22044.51
571.485	22497.11
571.689	22570.83
571.893	22816.59
572.098	22685.52
572.302	22433.62
572.506	22665.04
572.71	22474.58
572.914	22339.41
573.119	22482.77
573.323	23027.53
573.527	23158.6
573.731	22650.71
573.935	22755.15
574.139	23019.34
574.343	22466.39
574.547	22533.97
574.751	22775.63
574.955	22900.56
575.159	23254.86
575.364	22458.2
575.568	22861.65
575.772	23205.7
575.976	23564.1
576.18	22667.09
576.383	23146.31
576.587	23580.48
576.791	23215.94
576.995	22763.34
577.199	22724.43
577.403	23764.8
577.607	23818.05
577.811	23426.89
578.015	23295.82
578.219	23519.04
578.422	23936.83
578.626	23261
578.83	23539.52
579.034	23660.35
579.238	23465.8
579.442	23334.73
579.645	23682.88
579.849	23318.34
580.053	24026.94
580.257	23631.68
580.46	23631.68
580.664	24100.67
580.868	24024.89
581.071	23904.06
581.275	23842.62
581.479	23506.76
581.682	24119.1
581.886	23756.61
582.09	23668.55
582.293	24047.42
582.497	24414.01
582.7	24065.85
582.904	23732.03
583.107	23869.25
583.311	24045.37
583.515	23813.95
583.718	24125.24
583.922	24538.93
584.125	24457.01
584.329	23994.17
584.532	24203.07
584.735	24606.52
584.939	24551.22
585.142	23891.77
585.346	24325.94
585.549	24749.87
585.753	24389.43
585.956	24317.75
586.159	24497.97
586.363	25212.71
586.566	24889.13
586.769	24252.22
586.973	24250.17
587.176	24882.99
587.379	24887.09
587.582	24678.19
587.786	24774.45
587.989	25036.59
588.192	25540.39
588.395	24770.35
588.599	24719.15
588.802	25052.97
589.005	25270.06
589.208	25280.3
589.411	25329.45
589.615	25227.05
589.818	25712.42
590.021	24928.05
590.224	25079.6
590.427	25505.57
590.63	25229.1
590.833	24891.18
591.036	24944.43
591.239	25313.06
591.442	25251.63
591.645	25575.2
591.848	25263.91
592.051	25892.64
592.254	26081.05
592.457	25773.86
592.66	25614.12
592.863	25923.36
593.066	25665.32
593.269	25853.73
593.472	25767.71
593.675	25954.08
593.878	26074.91
594.081	25507.62
594.284	25857.82
594.486	25933.6
594.689	26181.4
594.892	25765.67
595.095	25911.07
595.298	26267.42
595.5	25851.68
595.703	25863.97
595.906	26087.2
596.109	26423.06
596.311	26756.88
596.514	25718.56
596.717	26156.83
596.92	26873.62
597.122	26709.78
597.325	25816.86
597.528	25911.07
597.73	27088.65
597.933	26674.96
598.136	26273.56
598.338	26130.2
598.541	26740.5
598.743	26918.67
598.946	26582.81
599.148	26603.28
599.351	26803.99
599.554	26840.85
599.756	26531.61
599.959	26685.2
600.161	27055.89
600.363	27565.83
600.566	26859.28
600.768	26281.75
600.971	27467.53
601.173	27318.03
601.376	26660.63
601.578	26771.22
601.78	27279.11
601.983	27799.3
602.185	26939.15
602.388	26906.38
602.59	27117.32
602.792	26814.23
602.995	26986.25
603.197	26578.71
603.399	27846.4
603.601	27236.11
603.804	26591
604.006	26840.85
604.208	26988.3
604.41	27010.83
604.613	27045.65
604.815	26638.1
605.017	27954.94
605.219	26978.06
605.421	27037.45
605.623	27059.98
605.826	27637.51
606.028	27531.01
606.23	27041.55
606.432	27051.79
606.634	28036.86
606.836	27776.77
607.038	26947.34
607.24	27262.73
607.442	27619.08
607.644	27485.96
607.846	27244.3
608.048	27229.96
608.25	27584.26
608.452	27358.99
608.654	27250.44
608.856	27236.11
609.058	27404.04
609.26	27797.25
609.462	27436.81
609.664	27625.22
609.866	28079.87
610.067	27950.85
610.269	27490.06
610.471	27516.68
610.673	27598.6
610.875	27680.52
611.077	26998.54
611.278	27328.27
611.48	27625.22
611.682	27952.9
611.884	27830.02
612.085	27418.38
612.287	27463.43
612.489	28020.48
612.69	27383.56
612.892	27547.4
613.094	27897.6
613.295	27490.06
613.497	27211.53
613.699	27590.41
613.9	28382.97
614.102	28387.07
614.304	27524.87
614.505	27455.24
614.707	27981.57
614.908	28045.05
615.11	27488.01
615.311	27719.43
615.513	27879.17
615.714	28176.12
615.916	27240.2
616.117	27578.12
616.319	28143.36
616.52	27918.08
616.722	27416.33
616.923	27774.72
617.124	28180.22
617.326	27877.12
617.527	28004.1
617.729	28198.65
617.93	28290.81
618.131	28274.43
618.333	27676.42
618.534	27938.56
618.735	28008.19
618.937	28360.44
619.138	27647.75
619.339	27455.24
619.54	28229.37
619.742	27852.55
619.943	27655.94
620.144	27801.35
620.345	28428.02
620.546	28397.31
620.748	28010.24
620.949	27701
621.15	27868.93
621.351	28124.93
621.552	27948.8
621.753	27684.61
621.954	27825.92
622.155	28315.39
622.356	27508.49
622.558	28092.16
622.759	28454.65
622.96	28681.97
623.161	28120.83
623.362	28016.38
623.563	28270.33
623.764	28116.73
623.965	27840.26
624.166	28294.91
624.366	28067.58
624.567	28358.39
624.768	27977.47
624.969	28034.81
625.17	28264.19
625.371	28704.5
625.572	27987.71
625.773	28231.42
625.973	28997.36
626.174	28630.77
626.375	28593.91
626.576	28468.98
626.777	28643.06
626.977	28899.06
627.178	28397.31
627.379	28434.17
627.58	28638.97
627.78	28792.56
627.981	28524.28
628.182	28468.98
628.382	28534.52
628.583	28004.1
628.784	28049.15
628.984	28210.94
629.185	29021.94
629.386	28573.43
629.586	28772.08
629.787	28161.79
629.987	29312.75
630.188	28849.91
630.388	28555
630.589	28438.26
630.79	29384.43
630.99	28628.73
631.191	28884.72
631.391	29019.89
631.591	29222.64
631.792	29468.39
631.992	29077.23
632.193	28511.99
632.393	29300.46
632.594	28454.65
632.794	28954.35
632.994	28790.52
633.195	28944.11
633.395	28731.12
633.595	28462.84
633.796	28999.41
633.996	29101.81
634.196	29474.54
634.397	28995.31
634.597	28741.36
634.797	29126.38
634.997	29066.99
635.198	28815.09
635.398	28088.06
635.598	29028.08
635.798	29206.25
635.998	29021.94
636.199	28710.64
636.399	29114.09
636.599	29153.01
636.799	29116.14
636.999	28843.76
637.199	29320.94
637.399	29372.14
637.599	29105.9
637.799	28970.74
637.999	29210.35
638.199	29748.96
638.399	28792.56
638.599	28741.36
638.799	29634.28
638.999	30043.87
639.199	29144.81
639.399	29581.03
639.599	30236.38
639.799	28870.39
639.999	29239.02
640.199	29171.44
640.399	29241.07
640.599	28753.65
640.799	29538.02
640.998	29728.49
641.198	29681.38
641.398	29521.64
641.598	29228.78
641.798	29206.25
641.997	30617.3
642.197	29669.09
642.397	29144.81
642.597	29101.81
642.796	29374.19
642.996	30000.86
643.196	29204.21
643.395	29052.66
643.595	30031.58
643.795	29619.94
643.994	29519.59
644.194	29347.56
644.394	30107.36
644.593	29820.64
644.793	29333.23
644.992	29589.22
645.192	30043.87
645.392	29331.18
645.591	29650.66
645.791	29658.85
645.99	29863.65
646.19	29988.58
646.389	29685.48
646.589	30136.03
646.788	29980.39
646.987	30062.3
647.187	30326.49
647.386	30166.75
647.586	30162.65
647.785	30267.1
647.984	29843.17
648.184	29931.23
648.383	30115.55
648.582	30023.39
648.782	29566.7
648.981	29900.51
649.18	29726.44
649.38	29959.91
649.579	30150.37
649.778	29767.4
649.977	30299.87
650.177	30535.38
650.376	29853.41
650.575	29535.98
650.774	30027.49
650.973	29660.9
651.173	29333.23
651.372	29695.72
651.571	29906.66
651.77	30349.02
651.969	29613.8
652.168	29980.39
652.367	29859.56
652.566	30074.59
652.765	30015.2
652.964	30428.89
653.163	30607.06
653.362	30039.78
653.561	29705.96
653.76	30183.13
653.959	30052.06
654.158	30559.96
654.357	30320.35
654.556	29712.1
654.755	30465.75
654.954	30617.3
655.153	30105.31
655.352	30631.64
655.551	30652.12
655.749	30215.9
655.948	30060.26
656.147	30719.7
656.346	30783.19
656.545	30281.44
656.743	30275.29
656.942	30602.97
657.141	30820.05
657.34	30406.36
657.538	30154.46
657.737	30471.9
657.936	30641.88
658.135	30428.89
658.333	30232.29
658.532	30803.67
658.731	31258.32
658.929	30803.67
659.128	30414.55
659.326	29949.67
659.525	30645.98
659.724	30406.36
659.922	29830.88
660.121	30539.48
660.319	30369.5
660.518	30570.2
660.716	30316.25
660.915	30342.88
661.113	31198.93
661.312	30482.14
661.51	30772.95
661.709	30498.52
661.907	30897.88
662.105	31215.31
662.304	30412.51
662.502	30394.07
662.701	31198.93
662.899	30404.31
663.097	30865.11
663.296	30170.85
663.494	31182.54
663.692	31450.83
663.891	30527.19
664.089	30400.22
664.287	30711.51
664.485	31012.56
664.684	30840.53
664.882	30623.45
665.08	30576.34
665.278	30832.34
665.476	30064.35
665.675	30879.44
665.873	31071.95
666.071	30899.92
666.269	30093.02
666.467	30480.09
666.665	30711.51
666.863	30275.29
667.061	30848.72
667.259	30445.27
667.457	30820.05
667.655	30510.81
667.853	30463.71
668.051	30150.37
668.249	30279.39
668.447	30977.75
668.645	30158.56
668.843	30297.82
669.041	31008.47
669.239	30330.59
669.437	30551.77
669.635	30809.81
669.833	30648.02
670.031	30721.75
670.229	30244.57
670.426	30514.91
670.624	30498.52
670.822	30457.56
671.02	30437.08
671.218	30670.55
671.415	30105.31
671.613	30861.01
671.811	30494.43
672.009	30373.6
672.206	30961.36
672.404	30404.31
672.602	30525.14
672.799	30246.62
672.997	30420.7
673.195	30875.35
673.392	30478.04
673.59	30181.09
673.788	30412.51
673.985	29708.01
674.183	30011.1
674.38	29968.1
674.578	30406.36
674.775	29867.75
674.973	29992.67
675.17	30234.33
675.368	30598.87
675.565	30705.37
675.763	30088.93
675.96	30451.42
676.158	30656.21
676.355	30117.6
676.553	30695.13
676.75	30109.41
676.947	30944.98
677.145	30346.97
677.342	30697.17
677.539	30250.72
677.737	30502.62
677.934	30650.07
678.131	30250.72
678.329	29947.62
678.526	30463.71
678.723	30283.48
678.92	29970.15
679.118	29695.72
679.315	29837.03
679.512	30594.78
679.709	30422.75
679.906	29949.67
680.104	30353.12
680.301	30195.42
680.498	30009.06
680.695	29990.63
680.892	30140.13
681.089	29916.9
681.286	30230.24
681.483	29628.13
681.68	30666.45
681.877	30398.17
682.075	30179.04
682.272	29814.5
682.469	30045.92
682.665	30158.56
682.862	29939.43
683.059	29935.33
683.256	30316.25
683.453	30103.26
683.65	29906.66
683.847	29697.77
684.044	29759.2
684.241	29900.51
684.438	29826.79
684.635	29630.18
684.831	30230.24
685.028	30377.69
685.225	29206.25
685.422	29660.9
685.619	29572.84
685.815	29748.96
686.012	29660.9
686.209	29417.19
686.405	29325.04
686.602	29687.53
686.799	29044.46
686.996	29304.56
687.192	29290.22
687.389	30207.71
687.586	29130.48
687.782	29169.39
687.979	29875.94
688.175	29710.05
688.372	28946.16
688.568	29431.53
688.765	29171.44
688.962	29845.22
689.158	29112.05
689.355	29435.63
689.551	29689.57
689.748	29230.83
689.944	28983.02
690.14	29130.48
690.337	29937.38
690.533	29236.97
690.73	29040.37
690.926	29329.13
691.123	29239.02
691.319	29337.32
691.515	29046.51
691.712	29284.08
691.908	29503.21
692.104	29540.07
692.301	29527.78
692.497	29122.29
692.693	29427.43
692.889	29617.89
693.086	29226.73
693.282	28872.43
693.478	29488.87
693.674	29511.4
693.87	28784.37
694.067	28552.95
694.263	29191.92
694.459	29093.61
694.655	29175.53
694.851	29089.52
695.047	29495.02
695.243	29220.59
695.439	29259.5
695.635	28790.52
695.831	28944.11
696.027	29159.15
696.224	28485.37
696.42	29241.07
696.615	29411.05
696.811	29445.87
697.007	29036.27
697.203	28786.42
697.399	29435.63
697.595	29396.71
697.791	28718.84
697.987	28835.57
698.183	28159.74
698.379	28444.41
698.575	28899.06
698.77	28944.11
698.966	28679.93
699.162	29189.87
699.358	28757.75
699.554	28673.78
699.749	28978.93
699.945	29042.42
700.141	28528.38
700.337	28413.69
700.532	28759.8
700.728	28620.53
700.924	28688.12
701.119	28282.62
701.315	28565.24
701.511	28428.02
701.706	28954.35
701.902	27981.57
702.097	28299
702.293	28331.77
702.489	28204.8
702.684	28276.48
702.88	28536.57
703.075	28348.15
703.271	28188.41
703.466	27963.14
703.662	28485.37
703.857	28530.42
704.053	28423.93
704.248	28309.24
704.443	28575.48
704.639	28573.43
704.834	28331.77
705.03	28327.67
705.225	28827.38
705.42	28716.79
705.616	28108.54
705.811	28040.96
706.006	28423.93
706.202	28139.26
706.397	28405.5
706.592	28079.87
706.787	28151.55
706.983	28133.12
707.178	28436.22
707.373	27918.08
707.568	28460.79
707.763	28225.28
707.959	27856.64
708.154	27801.35
708.349	28098.3
708.544	28315.39
708.739	27954.94
708.934	27606.79
709.129	28124.93
709.324	28466.94
709.519	28090.11
709.714	27670.28
709.909	28423.93
710.104	27971.33
710.299	27387.66
710.494	28108.54
710.689	28030.72
710.884	27741.96
711.079	28020.48
711.274	27954.94
711.469	28436.22
711.664	27815.68
711.859	27832.07
712.054	27758.34
712.249	28163.84
712.443	28094.21
712.638	27594.5
712.833	27512.58
713.028	28227.32
713.223	27627.27
713.417	27817.73
713.612	27731.72
713.807	27879.17
714.002	28501.75
714.196	27944.7
714.391	27426.57
714.586	27975.42
714.78	27588.36
714.975	27524.87
715.17	27186.96
715.364	27580.17
715.559	27934.46
715.754	26939.15
715.948	27096.85
716.143	27553.54
716.337	27285.26
716.532	27862.79
716.726	27295.5
716.921	27612.93
717.115	28112.64
717.31	27152.14
717.504	28094.21
717.699	27318.03
717.893	27793.15
718.088	26834.71
718.282	27186.96
718.476	27324.17
718.671	27166.48
718.865	27266.83
719.059	26918.67
719.254	27291.4
719.448	27715.33
719.642	28475.13
719.837	27076.37
720.031	27715.33
720.225	27086.61
720.419	26953.49
720.614	26777.36
720.808	27010.83
721.002	27293.45
721.196	26421.02
721.39	26685.2
721.585	27250.44
721.779	27070.22
721.973	26547.99
722.167	26455.83
722.361	26785.55
722.555	27080.46
722.749	26238.75
722.943	26429.21
723.137	26519.32
723.331	26830.61
723.525	26488.6
723.719	26457.88
723.913	26920.72
724.107	26672.92
724.301	26531.61
724.495	26572.57
724.689	26898.19
724.883	26830.61
725.077	26447.64
725.271	26773.27
725.465	26799.89
725.659	26531.61
725.853	26519.32
726.046	26238.75
726.24	26595.09
726.434	27105.04
726.628	26629.91
726.822	26554.13
727.015	26826.51
727.209	26638.1
727.403	26414.87
727.596	26189.6
727.79	26967.82
727.984	26781.46
728.177	26529.56
728.371	26679.06
728.565	27068.17
728.758	26535.7
728.952	26351.38
729.146	26251.03
729.339	27102.99
729.533	26713.88
729.726	26013.47
729.92	26187.55
730.113	26834.71
730.307	26588.95
730.5	26621.72
730.694	26068.76
730.887	26386.2
731.081	26937.1
731.274	26238.75
731.468	26574.61
731.661	26357.53
731.854	26674.96
732.048	26175.26
732.241	25937.69
732.435	26603.28
732.628	26402.58
732.821	26064.67
733.014	26285.85
733.208	25933.6
733.401	26494.74
733.594	26310.43
733.788	26353.43
733.981	26787.6
734.174	26672.92
734.367	26130.2
734.56	26361.62
734.754	26623.76
734.947	26779.41
735.14	26181.4
735.333	26285.85
735.526	26949.39
735.719	26175.26
735.912	26191.64
736.105	25939.74
736.298	26537.75
736.491	26433.3
736.684	25954.08
736.877	26224.41
737.07	26365.72
737.263	26720.02
737.456	26453.78
737.649	26097.44
737.842	26244.89
738.035	26552.09
738.228	25861.92
738.421	26009.37
738.614	26654.48
738.807	26533.65
739	25759.52
739.192	25669.41
739.385	26394.39
739.578	26736.4
739.771	26345.24
739.964	25874.21
740.156	26291.99
740.349	26111.77
740.542	26056.48
740.735	25526.05
740.927	25923.36
741.12	25929.5
741.313	25575.2
741.505	25829.15
741.698	25890.59
741.891	26183.45
742.083	25784.1
742.276	25954.08
742.468	26296.09
742.661	25949.98
742.854	25880.35
743.046	25546.53
743.239	26097.44
743.431	26146.59
743.624	25415.46
743.816	25462.57
744.009	25761.57
744.201	25751.33
744.393	25765.67
744.586	25552.68
744.778	25988.89
744.971	25687.84
745.163	25511.72
745.355	25761.57
745.548	25657.12
745.74	25495.33
745.932	25562.92
746.125	25618.21
746.317	26521.37
746.509	25919.26
746.702	25231.15
746.894	25229.1
747.086	25536.29
747.278	25501.48
747.471	25571.11
747.663	24928.05
747.855	25636.64
748.047	25812.77
748.239	25331.5
748.431	25272.11
748.623	26095.39
748.815	25915.17
749.008	25454.37
749.2	25304.87
749.392	25700.13
749.584	25452.33
749.776	25159.47
749.968	25464.61
750.16	25550.63
750.352	24958.77
750.544	25245.48
750.736	24811.31
750.928	25667.36
751.12	25065.26
751.311	25118.51
751.503	25263.91
751.695	25589.54
751.887	25143.08
752.079	25141.04
752.271	24762.16
752.463	26015.52
752.654	25497.38
752.846	25141.04
753.038	24848.18
753.23	25110.32
753.421	25399.08
753.613	25001.77
753.805	25171.75
753.997	24780.59
754.188	25134.89
754.38	24567.6
754.572	24823.6
754.763	25263.91
754.955	24987.44
755.146	24778.54
755.338	24829.74
755.53	24846.13
755.721	24586.04
755.913	24411.96
756.104	24262.46
756.296	25095.98
756.487	24815.41
756.679	24264.5
756.87	24295.22
757.062	24497.97
757.253	25487.14
757.445	24561.46
757.636	24561.46
757.827	24954.67
758.019	25689.89
758.21	24637.23
758.401	24753.97
758.593	25270.06
758.784	25335.59
758.975	24262.46
759.167	24463.16
759.358	24735.54
759.549	25036.59
759.74	24420.15
759.932	24586.04
760.123	24854.32
760.314	24825.65
760.505	24366.9
760.696	24217.4
760.888	24680.24
761.079	24334.14
761.27	23975.74
761.461	23934.78
761.652	24629.04
761.843	24432.44
762.034	24393.53
762.225	24344.38
762.416	24422.2
762.607	23971.64
762.798	23775.04
762.989	23492.42
763.18	24903.47
763.371	23924.54
763.562	23564.1
763.753	23531.33
763.944	24463.16
764.135	24031.04
764.326	23727.94
764.517	23525.19
764.708	23709.5
764.899	23699.27
765.089	23293.77
765.28	23308.1
765.471	23766.85
765.662	23590.72
765.853	23281.48
766.043	22927.18
766.234	23467.84
766.425	23818.05
766.615	23697.22
766.806	23252.81
766.997	23879.49
767.187	23482.18
767.378	23250.76
767.569	22945.61
767.759	23422.79
767.95	23199.56
768.141	23220.04
768.331	23238.47
768.522	22908.75
768.712	23633.73
768.903	22990.67
769.093	23002.96
769.284	23301.96
769.474	23189.32
769.665	22656.85
769.855	22656.85
770.046	23576.39
770.236	23060.3
770.426	23031.63
770.617	22720.34
770.807	23404.36
770.998	23127.88
771.188	22744.91
771.378	22509.4
771.569	22962
771.759	23045.96
771.949	22079.32
772.139	22357.85
772.33	22542.16
772.52	23027.53
772.71	22280.02
772.9	22005.59
773.09	22816.59
773.281	22488.92
773.471	22198.1
773.661	22155.1
773.851	22579.03
774.041	22359.89
774.231	22341.46
774.421	22312.79
774.611	22990.67
774.802	22292.31
774.992	21966.68
775.182	22183.77
775.372	22165.34
775.562	22484.82
775.752	21976.92
775.942	21995.36
776.131	22521.68
776.321	22196.06
776.511	22153.05
776.701	22007.64
776.891	22503.25
777.081	21989.21
777.271	21866.33
777.461	22036.31
777.651	22288.21
777.84	22275.93
778.03	21688.16
778.22	21370.72
778.41	21876.57
778.599	21727.07
778.789	21421.92
778.979	21426.02
779.169	21663.58
779.358	21565.28
779.548	21694.3
779.738	20959.08
779.927	21686.11
780.117	21165.93
780.307	21141.35
780.496	20723.57
780.686	21573.47
780.875	21729.12
781.065	21333.86
781.254	21202.79
781.444	21325.67
781.633	21634.91
781.823	21286.76
782.012	21344.1
782.202	21264.23
782.391	21479.27
782.581	21045.1
782.77	21641.06
782.96	21614.43
783.149	21327.72
783.338	21135.21
783.528	20815.73
783.717	21434.21
783.906	21364.58
784.096	20961.13
784.285	20864.88
784.474	20866.92
784.663	20864.88
784.853	20698.99
785.042	20795.25
785.231	20895.6
785.42	21251.94
785.61	20690.8
785.799	20582.26
785.988	20703.09
786.177	20721.52
786.366	20723.57
786.555	20830.06
786.744	21321.57
786.933	20862.83
787.122	20547.44
787.312	20486
787.501	20496.24
787.69	20688.75
787.879	20375.41
788.068	20402.04
788.257	19955.58
788.445	20496.24
788.634	20258.68
788.823	20168.57
789.012	20932.46
789.201	20698.99
789.39	20012.92
789.579	20189.05
789.768	20340.6
789.957	20219.77
790.145	20068.22
790.334	19804.03
790.523	20066.17
790.712	20402.04
790.9	20311.92
791.089	19906.43
791.278	20600.69
791.467	20168.57
791.655	20160.38
791.844	20557.68
792.033	19951.48
792.221	19609.47
792.41	19644.29
792.599	19275.65
792.787	20150.14
792.976	20076.41
793.164	19466.11
793.353	19535.74
793.541	20156.28
793.73	20334.45
793.918	19621.76
794.107	19652.48
794.295	19965.82
794.484	19890.04
794.672	19672.96
794.861	19601.28
795.049	19918.71
795.238	20031.35
795.426	19216.26
795.614	19531.65
795.803	19791.74
795.991	19847.04
796.179	19433.35
796.368	19357.57
796.556	19922.81
796.744	19281.8
796.932	19259.27
797.121	18935.69
797.309	19484.55
797.497	19521.41
797.685	19208.07
797.874	19142.53
798.062	19269.51
798.25	19662.72
798.438	18925.45
798.626	19177.35
798.814	19888
799.002	19896.19
799.19	19502.98
799.378	19435.39
799.566	19691.39
799.755	19582.85
799.943	19343.24
800.131	19449.73
800.318	19824.51
800.506	19695.49
800.694	19255.17
800.882	19234.69
801.07	19644.29
801.258	19185.54
801.446	19255.17
801.634	18685.84
801.822	19173.25
802.01	19320.71
802.197	19255.17
802.385	19126.15
802.573	19339.14
802.761	19283.84
802.949	19355.52
803.136	19120.01
803.324	19863.42
803.512	19636.1
803.699	19478.4
803.887	19068.81
804.075	20041.59
804.262	19388.29
804.45	19738.49
804.638	19595.14
804.825	19785.6
805.013	19578.75
805.201	19535.74
805.388	19220.36
805.576	19459.97
805.763	20002.68
805.951	19175.3
806.138	19505.03
806.326	20090.74
806.513	19763.07
806.701	19543.94
806.888	19218.31
807.075	19963.77
807.263	20086.65
807.45	19599.23
807.638	19865.47
807.825	20295.54
808.012	19687.29
808.2	19533.7
808.387	19691.39
808.574	20250.49
808.761	19947.39
808.949	19464.07
809.136	19627.9
809.323	19543.94
809.51	20205.43
809.698	19867.52
809.885	19834.75
810.072	19791.74
810.259	20109.18
810.446	19632
810.633	19623.81
810.82	20131.7
811.008	20303.73
811.195	19982.2
811.382	19810.17
811.569	19832.7
811.756	19369.86
811.943	19855.23
812.13	19451.78
812.317	19652.48
812.504	19824.51
812.691	20086.65
812.878	19838.84
813.064	20232.05
813.251	20047.74
813.438	19818.36
813.625	19621.76
813.812	19761.02
813.999	20039.54
814.186	19535.74
814.372	19814.27
814.559	19765.12
814.746	19935.1
814.933	19677.05
815.12	19593.09
815.306	19345.28
815.493	19441.54
815.68	19535.74
815.866	19453.83
816.053	19844.99
816.24	20111.22
816.426	19181.45
816.613	19609.47
816.799	19675.01
816.986	19793.79
817.173	19392.39
817.359	19316.61
817.546	19670.91
817.732	19378.05
817.919	19668.86
818.105	19730.3
818.292	19570.56
818.478	19851.13
818.665	19564.42
818.851	19365.76
819.037	20213.62
819.224	19490.69
819.41	19218.31
819.597	18972.55
819.783	19916.67
819.969	19634.05
820.156	19285.89
820.342	19384.19
820.528	20375.41
820.714	19787.64
820.901	19615.62
821.087	19255.17
821.273	20189.05
821.459	19277.7
821.646	19218.31
821.832	19148.68
822.018	19715.97
822.204	19429.25
822.39	19115.91
822.576	18804.62
822.762	19601.28
822.948	19328.9
823.134	19150.73
823.32	19013.51
823.507	19353.48
823.693	19308.42
823.879	19523.46
824.065	18681.74
824.25	19480.45
824.436	19009.42
824.622	18782.09
824.808	19007.37
824.994	18999.18
825.18	18796.43
825.366	18665.36
825.552	18919.31
825.738	18831.24
825.923	19083.14
826.109	18882.44
826.295	18433.94
826.481	18644.88
826.667	18839.44
826.852	18859.91
827.038	18706.32
827.224	19261.32
827.409	19480.45
827.595	18550.67
827.781	18696.08
827.966	19275.65
828.152	19191.69
828.338	18579.34
828.523	18067.35
828.709	18423.7
828.894	18698.13
829.08	18292.63
829.266	18407.31
829.451	18257.81
829.637	18503.57
829.822	18446.23
830.008	18313.11
830.193	18603.92
830.378	18837.39
830.564	18139.03
830.749	18124.69
830.935	18528.14
831.12	18509.71
831.305	18034.58
831.491	18345.87
831.676	18415.51
831.861	18556.82
832.047	18175.89
832.232	17883.03
832.417	18734.99
832.602	18489.23
832.788	18032.54
832.973	17776.54
833.158	18313.11
833.343	18280.34
833.528	18190.23
833.714	18141.08
833.899	18470.8
834.084	18538.38
834.269	18227.09
834.454	18186.13
834.639	18286.48
834.824	18311.06
835.009	18225.04
835.194	17999.77
835.379	18550.67
835.564	18581.39
835.749	17846.17
835.934	17680.28
836.119	18067.35
836.304	17928.09
836.489	18081.69
836.674	17997.72
836.859	17897.37
837.044	18386.83
837.228	17465.25
837.413	17592.22
837.598	18227.09
837.783	18014.1
837.968	17543.07
838.152	17432.48
838.337	17536.93
838.522	18370.45
838.707	18382.74
838.891	17938.33
839.076	18061.21
839.261	18282.39
839.445	17442.72
839.63	17524.64
839.815	18116.5
839.999	17590.17
840.184	17018.79
840.368	17072.04
840.553	17706.91
840.737	17518.5
840.922	17121.19
841.106	16994.22
841.291	17379.23
841.475	17405.86
841.66	16756.65
841.844	17082.28
842.029	17846.17
842.213	16973.74
842.397	16768.94
842.582	16932.78
842.766	17655.71
842.951	17442.72
843.135	17121.19
843.319	17033.13
843.504	17250.21
843.688	17364.9
843.872	16748.46
844.056	16977.83
844.241	17217.44
844.425	16828.33
844.609	16928.68
844.793	16662.44
844.977	17323.94
845.161	17215.4
845.346	16480.18
845.53	16680.88
845.714	16910.25
845.898	17145.77
846.082	16412.59
846.266	16781.23
846.45	16826.28
846.634	16947.11
846.818	16441.26
847.002	16693.16
847.186	16816.04
847.37	16437.17
847.554	16437.17
847.738	16433.07
847.922	16748.46
848.106	17176.48
848.29	16457.65
848.473	16478.13
848.657	16760.75
848.841	16658.35
849.025	16211.89
849.209	15941.56
849.392	16580.53
849.576	16555.95
849.76	15876.02
849.944	16271.28
850.127	16644.01
850.311	16166.84
850.495	16043.96
850.678	16164.79
850.862	16635.82
851.046	16684.97
851.229	15953.85
851.413	15726.52
851.596	16205.75
851.78	16277.43
851.964	16322.48
852.147	15796.15
852.331	16775.08
852.514	16553.9
852.698	16119.73
852.881	15720.38
853.065	16457.65
853.248	16000.95
853.431	15873.98
853.615	16017.33
853.798	16521.13
853.982	16072.63
854.165	15828.92
854.348	15765.43
854.532	15673.28
854.715	16060.34
854.898	15566.78
855.081	15493.05
855.265	15990.71
855.448	16158.64
855.631	15210.43
855.814	15474.62
855.997	15935.42
856.181	15607.74
856.364	15417.28
856.547	15409.09
856.73	15675.32
856.913	15605.69
857.096	15120.32
857.279	15462.33
857.462	15546.3
857.645	15605.69
857.828	15253.44
858.011	15513.53
858.194	15417.28
858.377	15712.19
858.56	15194.05
858.743	14966.73
858.926	15019.97
859.109	15519.68
859.292	15220.67
859.475	15267.78
859.658	15724.47
859.841	15396.8
860.023	15237.06
860.206	14800.84
860.389	15386.56
860.572	15146.95
860.755	14847.94
860.937	15103.94
861.12	15364.03
861.303	15312.83
861.486	14872.52
861.668	14800.84
861.851	15163.33
862.034	15183.81
862.216	14880.71
862.399	14594
862.581	14895.05
862.764	15134.66
862.947	14938.05
863.129	14651.34
863.312	14645.2
863.494	15407.04
863.677	14948.29
863.859	14489.55
864.042	14993.35
864.224	15144.9
864.406	14518.22
864.589	14100.44
864.771	14718.92
864.954	14383.06
865.136	14413.77
865.318	14184.4
865.501	14714.83
865.683	14106.58
865.865	14122.96
866.048	13985.75
866.23	14575.56
866.412	14499.79
866.594	14221.27
866.777	14292.94
866.959	14530.51
867.141	13971.41
867.323	14274.51
867.505	14229.46
867.687	14389.2
867.869	14325.71
868.052	14184.4
868.234	13971.41
868.416	14292.94
868.598	14428.11
868.78	14153.68
868.962	14034.9
869.144	14637
869.326	14632.91
869.508	13817.82
869.69	14002.13
869.872	14239.7
870.054	14198.74
870.236	13746.14
870.417	13959.13
870.599	14221.27
870.781	14491.6
870.963	13930.45
871.145	14055.38
871.327	14045.14
871.508	14374.86
871.69	13926.36
871.872	13807.58
872.054	13922.26
872.235	14284.75
872.417	13735.9
872.599	13541.34
872.78	14395.34
872.962	13678.55
873.144	13357.02
873.325	13660.12
873.507	14516.17
873.689	13658.07
873.87	13481.95
874.052	13938.65
874.233	14149.59
874.415	14288.85
874.596	13817.82
874.778	13760.47
874.959	14100.44
875.141	14217.17
875.322	13729.75
875.503	13500.38
875.685	13873.11
875.866	13553.63
876.048	13596.64
876.229	13664.22
876.41	13955.03
876.592	14149.59
876.773	13774.81
876.954	13580.25
877.136	14477.26
877.317	13899.73
877.498	13600.73
877.679	13725.66
877.86	14227.41
878.042	14122.96
878.223	13684.7
878.404	14006.23
878.585	14073.81
878.766	14385.1
878.947	14071.76
879.128	14145.49
879.309	14350.29
879.49	14282.7
879.672	13987.8
879.853	14069.72
880.034	14104.53
880.215	14245.84
880.396	14096.34
880.576	13686.75
880.757	14065.62
880.938	14438.35
881.119	13987.8
881.3	14059.48
881.481	14172.11
881.662	15187.91
881.843	14073.81
882.023	13869.02
882.204	14507.98
882.385	14577.61
882.566	14133.2
882.747	14219.22
882.927	14546.89
883.108	14526.41
883.289	14163.92
883.469	14376.91
883.65	14131.16
883.831	14458.83
884.011	14204.88
884.192	14428.11
884.373	14806.98
884.553	14639.05
884.734	14448.59
884.914	14663.63
885.095	15495.1
885.275	15163.33
885.456	14901.19
885.636	14338
885.817	14897.1
885.997	14811.08
886.178	14821.32
886.358	14602.19
886.538	14970.82
886.719	15941.56
886.899	14149.59
887.08	14481.36
887.26	14913.48
887.44	14518.22
887.621	14442.45
887.801	14667.72
887.981	15370.18
888.161	15058.88
888.342	14673.87
888.522	14589.9
888.702	14993.35
888.882	15028.17
889.062	14520.27
889.242	14397.39
889.423	15273.92
889.603	15146.95
889.783	14987.21
889.963	14489.55
890.143	15179.72
890.323	15423.42
890.503	14798.79
890.683	14923.72
890.863	15038.41
891.043	14938.05
891.223	14614.48
891.403	15044.55
891.583	14692.3
891.763	14782.41
891.943	14542.8
892.122	14413.77
892.302	14790.6
892.482	14919.62
892.662	14645.2
892.842	14852.04
893.022	14704.59
893.201	14704.59
893.381	14876.62
893.561	14567.37
893.741	14880.71
893.92	15001.54
894.1	14624.72
894.28	14481.36
894.459	14598.09
894.639	14790.6
894.819	14331.86
894.998	14557.13
895.178	15208.39
895.357	14954.44
895.537	14495.69
895.716	14299.09
895.896	14673.87
896.075	15116.23
896.255	14407.63
896.434	14188.5
896.614	15179.72
896.793	14555.08
896.973	14659.53
897.152	14475.21
897.331	14626.76
897.511	14968.77
897.69	14129.11
897.87	14247.89
898.049	14555.08
898.228	14589.9
898.407	14231.51
898.587	14348.24
898.766	14260.18
898.945	14598.09
899.124	14432.21
899.304	14215.12
899.483	14469.07
899.662	14600.14
899.841	13940.69
900.02	13844.44
900.199	14815.18
900.378	14190.55
900.557	13957.08
900.737	13565.92
900.916	14223.31
901.095	14188.5
901.274	13907.93
901.453	13420.51
901.632	13727.71
901.811	13690.84
901.989	13037.54
902.168	13197.28
902.347	13881.3
902.526	13463.52
902.705	13273.06
902.884	13289.44
903.063	13668.31
903.242	13832.15
903.42	12912.61
903.599	13211.62
903.778	13598.68
903.957	13645.79
904.135	13105.12
904.314	12797.93
904.493	13408.22
904.672	13129.7
904.85	12986.34
905.029	12869.61
905.207	13291.49
905.386	13969.37
905.565	12533.74
905.743	12441.58
905.922	12550.12
906.1	12996.58
906.279	12414.96
906.457	12105.71
906.636	12646.38
906.814	12437.48
906.993	12226.54
907.171	12156.91
907.35	12537.84
907.528	12791.78
907.707	12322.8
907.885	11872.25
908.063	12511.21
908.242	12128.24
908.42	11995.12
908.598	11780.09
908.777	12515.31
908.955	12134.39
909.133	12197.87
909.311	11687.93
909.49	11982.84
909.668	12165.11
909.846	11892.73
910.024	11743.22
910.202	12271.6
910.38	12351.47
910.559	11935.73
910.737	11853.81
910.915	12210.16
911.093	12363.76
911.271	11874.29
911.449	12513.26
911.627	12484.59
911.805	13156.32
911.983	12371.95
912.161	12341.23
912.339	12701.67
912.517	13004.77
912.695	12335.09
912.872	12083.19
913.05	12494.83
913.228	12607.47
913.406	12374
913.584	12460.01
913.762	12812.26
913.939	12849.13
914.117	12429.29
914.295	12382.19
914.473	12810.22
914.65	12861.41
914.828	12150.77
915.006	12312.56
915.184	12171.25
915.361	12423.15
915.539	12345.33
915.716	12339.18
915.894	12494.83
916.072	12615.66
916.249	12107.76
916.427	12251.12
916.604	12247.02
916.782	12361.71
916.959	11800.57
917.137	11997.17
917.314	12433.39
917.492	12529.64
917.669	12134.39
917.847	12285.94
918.024	12195.82
918.201	11974.64
918.379	11882.49
918.556	11907.06
918.733	12460.01
918.911	12072.95
919.088	12074.99
919.265	11978.74
919.442	12328.94
919.62	12128.24
919.797	11814.9
919.974	11524.09
920.151	12314.61
920.328	11960.31
920.506	11812.85
920.683	11976.69
920.86	11929.59
921.037	11898.87
921.214	11886.58
921.391	11634.68
921.568	12431.34
921.745	11806.71
921.922	12021.75
922.099	11757.56
922.276	12324.85
922.453	12156.91
922.63	11704.31
922.807	11753.46
922.984	11950.07
923.161	11591.67
923.338	11470.84
923.514	11448.32
923.691	11782.13
923.868	11819
924.045	11182.08
924.222	11448.32
924.399	11702.26
924.575	11737.08
924.752	11481.08
924.929	11356.16
925.105	11591.67
925.282	11063.3
925.459	10983.43
925.635	10926.08
925.812	11186.18
925.989	11089.92
926.165	10995.71
926.342	10909.7
926.518	11038.72
926.695	11231.23
926.871	10727.43
927.048	10743.81
927.224	11075.59
927.401	10889.22
927.577	10883.08
927.754	10493.96
927.93	11292.67
928.107	11038.72
928.283	10584.07
928.459	10754.05
928.636	11040.77
928.812	10743.81
928.988	10569.74
929.165	10491.91
929.341	10686.47
929.517	10625.03
929.693	10952.71
929.87	10235.92
930.046	10756.1
930.222	10371.08
930.398	10315.79
930.574	10352.65
930.751	10528.78
930.927	10547.21
931.103	10412.04
931.279	10244.11
931.455	10209.29
931.631	10268.69
931.807	9859.09
931.983	9758.74
932.159	9859.09
932.335	10110.99
932.511	9801.75
932.687	9742.36
932.863	10031.12
933.039	9674.78
933.215	9517.08
933.391	9324.57
933.566	9670.68
933.742	9777.17
933.918	9353.24
934.094	9021.47
934.27	9289.76
934.445	9246.75
934.621	9316.38
934.797	8992.8
934.973	9363.48
935.148	9146.4
935.324	8570.92
935.5	8376.36
935.675	8910.88
935.851	8740.9
936.027	8239.15
936.202	8339.5
936.378	8370.22
936.553	8409.13
936.729	8257.58
936.904	7702.58
937.08	7614.52
937.255	7419.96
937.431	7495.74
937.606	7153.73
937.782	7444.54
937.957	7399.48
938.133	7094.33
938.308	6885.44
938.483	7036.99
938.659	6844.48
938.834	6778.95
939.009	6496.33
939.185	6842.43
939.36	6500.42
939.535	6164.56
939.71	6389.83
939.886	6658.12
940.061	6611.01
940.236	6236.24
940.411	6213.71
940.586	6611.01
940.761	6357.07
940.937	6019.15
941.112	5623.89
941.287	6072.4
941.462	6047.82
941.637	5455.96
941.812	5640.28
941.987	6060.11
942.162	5681.24
942.337	5468.25
942.512	5572.69
942.687	5818.45
942.862	5947.47
943.037	5421.14
943.212	5232.73
943.386	5486.68
943.561	5732.44
943.736	5673.04
943.911	5820.5
944.086	5861.46
944.26	5740.63
944.435	5374.04
944.61	5572.69
944.785	5920.85
944.959	5967.95
945.134	5476.44
945.309	5419.1
945.483	5296.22
945.658	5787.73
945.833	5156.96
946.007	5238.87
946.182	6037.58
946.357	5326.94
946.531	5328.99
946.706	5320.79
946.88	5312.6
947.055	5533.78
947.229	5527.64
947.404	5316.7
947.578	5861.46
947.752	5482.58
947.927	5308.51
948.101	5296.22
948.276	5804.11
948.45	5673.04
948.624	5595.22
948.799	5382.23
948.973	5886.03
949.147	5613.65
949.321	5627.99
949.496	5507.16
949.67	5857.36
949.844	5652.56
950.018	5382.23
950.193	5574.74
950.367	6404.17
950.541	5910.61
950.715	5754.96
950.889	5967.95
951.063	5910.61
951.237	6148.17
951.411	5462.1
951.585	5494.87
951.759	5955.66
951.933	5851.22
952.107	5787.73
952.281	5929.04
952.455	6389.83
952.629	6344.78
952.803	5910.61
952.977	5627.99
953.151	6246.48
953.325	6076.49
953.499	6029.39
953.672	5818.45
953.846	5877.84
954.02	6213.71
954.194	5943.38
954.368	5970
954.541	6312.01
954.715	6066.25
954.889	6144.08
955.062	5910.61
955.236	6369.35
955.41	6144.08
955.583	6191.18
955.757	5810.26
955.93	6043.73
956.104	6197.32
956.278	5939.28
956.451	6127.69
956.625	6557.77
956.798	6762.56
956.972	6340.68
957.145	6123.6
957.319	6281.29
957.492	6428.74
957.665	6285.39
957.839	6314.06
958.012	6484.04
958.185	6213.71
958.359	6068.3
958.532	6287.43
958.705	6621.25
958.879	6404.17
959.052	6150.22
959.225	6033.49
959.398	6457.42
959.572	6486.09
959.745	6203.47
959.918	6248.52
960.091	6258.76
960.264	6570.05
960.438	5861.46
960.611	5949.52
960.784	6500.42
960.957	6207.56
961.13	6484.04
961.303	6058.06
961.476	6287.43
961.649	6686.79
961.822	6074.45
961.995	6094.93
962.168	6344.78
962.341	6271.05
962.514	6340.68
962.686	5941.33
962.859	6383.69
963.032	6582.34
963.205	6127.69
963.378	5967.95
963.551	6529.1
963.723	6338.63
963.896	6217.8
964.069	6201.42
964.242	6498.38
964.414	6529.1
964.587	6166.6
964.76	6164.56
964.932	6361.16
965.105	6203.47
965.278	6182.99
965.45	6238.28
965.623	6320.2
965.795	6367.31
965.968	6164.56
966.14	6029.39
966.313	6180.94
966.485	6385.74
966.658	6164.56
966.83	6041.68
967.003	6424.65
967.175	6414.41
967.348	5980.24
967.52	5894.22
967.692	6674.5
967.865	6377.55
968.037	5992.53
968.209	6174.8
968.382	6185.04
968.554	6385.74
968.726	6084.69
968.898	5828.69
969.071	6105.17
969.243	6185.04
969.415	5746.77
969.587	5871.7
969.759	6590.53
969.932	6178.89
970.104	5855.31
970.276	5484.63
970.448	5904.46
970.62	5818.45
970.792	5849.17
970.964	5734.48
971.136	6463.56
971.308	6205.52
971.48	5613.65
971.652	5642.32
971.824	6283.34
971.996	5693.52
972.168	5634.13
972.339	5750.87
972.511	6076.49
972.683	5816.4
972.855	5924.94
973.027	5587.03
973.199	5894.22
973.37	5990.48
973.542	5724.24
973.714	5711.96
973.886	5640.28
974.057	6115.41
974.229	5447.77
974.401	5505.11
974.572	5478.49
974.744	5251.16
974.915	5533.78
975.087	5570.65
975.259	6129.74
975.43	5572.69
975.602	5650.52
975.773	5431.38
975.945	5662.8
976.116	5855.31
976.288	5271.64
976.459	5656.66
976.63	5544.02
976.802	5636.18
976.973	5261.4
977.145	5451.86
977.316	5951.57
977.487	6168.65
977.659	5468.25
977.83	5410.9
978.001	6094.93
978.172	5701.72
978.344	5376.09
978.515	5224.54
978.686	5365.85
978.857	6021.2
979.028	5273.69
979.2	5288.03
979.371	5638.23
979.542	5607.51
979.713	5460.06
979.884	4786.27
980.055	5343.32
980.226	5470.3
980.397	5148.76
980.568	5042.27
980.739	5599.32
980.91	5341.27
981.081	5369.94
981.252	5222.49
981.423	5378.14
981.594	5554.26
981.765	5062.75
981.936	5124.19
982.106	5072.99
982.277	5425.24
982.448	4939.87
982.619	5146.72
982.79	5148.76
982.96	5441.62
983.131	5023.84
983.302	4612.2
983.472	4892.77
983.643	5195.87
983.814	4886.62
983.984	4851.81
984.155	4982.88
984.326	5165.15
984.496	4806.75
984.667	4780.13
984.837	4665.44
985.008	5183.58
985.178	4835.42
985.349	4694.12
985.519	4905.06
985.69	4630.63
985.86	4640.87
986.031	4472.93
986.201	4829.28
986.371	4956.26
986.542	4489.32
986.712	4411.5
986.882	4747.36
987.053	4841.57
987.223	4413.54
987.393	4604
987.563	4730.98
987.734	4798.56
987.904	4806.75
988.074	4374.63
988.244	4696.16
988.414	4495.46
988.585	4280.43
988.755	4253.8
988.925	4520.04
989.095	5146.72
989.265	4126.83
989.435	4376.68
989.605	4685.92
989.775	4702.31
989.945	4556.9
990.115	4077.68
990.285	4460.65
990.455	4542.57
990.625	4305
990.795	4112.49
990.965	4907.1
991.134	4173.93
991.304	4169.84
991.474	4073.58
991.644	4368.49
991.814	4802.66
991.984	3993.71
992.153	4001.9
992.323	4272.23
992.493	4257.9
992.662	3883.12
992.832	4165.74
993.002	4296.81
993.171	4276.33
993.341	3899.5
993.511	4006
993.68	4063.34
993.85	4243.56
994.019	3752.05
994.189	3743.86
994.358	4114.54
994.528	3805.3
994.697	3762.29
994.867	3752.05
995.036	4231.27
995.206	3803.25
995.375	3678.32
995.544	3893.36
995.714	4124.78
995.883	3881.07
996.052	3741.81
996.222	3451
996.391	4436.07
996.56	3948.65
996.73	3530.87
996.899	3451
997.068	4182.12
997.237	3858.54
997.406	3580.02
997.576	3371.13
997.745	3973.23
997.914	3850.35
998.083	3295.35
998.252	3346.55
998.421	3854.45
998.59	3424.37
998.759	3346.55
998.928	3321.98
999.097	4034.67
999.266	3760.24
999.435	3459.19
999.604	3072.12
999.773	4106.35
999.942	3594.36
1000.111	3108.99
1000.28	3070.08
1000.448	3383.42
1000.617	3256.44
1000.786	3555.44
1000.955	3006.59
1001.124	3537.01
1001.292	3987.57
1001.461	3133.56
1001.63	2986.11
1001.798	3991.66
1001.967	3836.02
1002.136	2924.67
1002.304	3037.31
1002.473	3539.06
1002.642	3266.68
1002.81	3119.23
1002.979	3010.68
1003.147	3522.68
1003.316	3879.02
1003.484	2959.49
1003.653	2814.08
1003.821	3674.23
1003.99	3203.19
1004.158	3133.56
1004.327	3063.93
1004.495	3401.85
1004.663	3125.37
1004.832	2988.16
1005	2658.43
1005.168	3272.82
1005.337	3162.23
1005.505	2607.23
1005.673	2910.33
1005.842	3158.14
1006.01	3135.61
1006.178	2830.46
1006.346	2723.97
1006.514	3113.08
1006.683	3297.4
1006.851	2670.72
1007.019	2775.17
1007.187	3012.73
1007.355	2683.01
1007.523	2500.74
1007.691	2685.06
1007.859	2728.07
1008.027	3321.98
1008.195	2646.15
1008.363	2433.16
1008.531	3164.28
1008.699	2711.68
1008.867	2443.4
1009.035	2398.34
1009.203	3027.07
1009.37	2670.72
1009.538	2486.4
1009.706	2920.57
1009.874	2891.9
1010.042	2633.86
1010.209	2371.72
1010.377	2420.87
1010.545	2936.96
1010.713	2805.89
1010.88	2310.28
1011.048	2633.86
1011.216	2685.06
1011.383	3104.89
1011.551	2236.55
1011.718	2218.12
1011.886	2898.05
1012.054	2726.02
1012.221	2326.66
1012.389	2267.27
1012.556	2633.86
1012.724	3027.07
1012.891	2386.05
1013.058	2066.57
1013.226	2740.35
1013.393	2709.63
1013.561	2201.74
1013.728	2089.1
1013.895	2762.88
1014.063	2633.86
1014.23	2013.32
1014.397	2125.96
1014.565	2726.02
1014.732	2369.67
1014.899	2076.81
1015.066	1949.84
1015.233	2482.31
1015.401	2597
1015.568	2056.33
1015.735	2158.73
1015.902	2263.18
1016.069	2302.09
1016.236	1939.6
1016.403	1921.17
1016.57	2029.71
1016.737	2453.64
1016.904	1925.26
1017.071	1781.9
1017.238	2168.97
1017.405	2400.39
1017.572	1900.69
1017.739	2185.35
1017.906	2306.18
1018.073	2390.15
1018.24	1724.56
1018.407	1892.49
1018.573	2461.83
1018.74	1996.94
1018.907	1976.46
1019.074	1613.97
1019.241	2488.45
1019.407	2318.47
1019.574	1679.51
1019.741	1699.98
1019.907	2195.59
1020.074	2152.59
1020.241	1540.24
1020.407	1564.82
1020.574	2158.73
1020.74	2130.06
1020.907	1626.26
1021.073	1587.35
1021.24	2564.23
1021.406	2398.34
1021.573	1538.2
1021.739	1618.07
1021.906	2240.65
1022.072	1857.68
1022.239	1609.87
1022.405	1673.36
1022.571	1904.78
1022.738	1699.98
1022.904	1501.33
1023.07	1609.87
1023.237	2019.47
1023.403	2189.45
1023.569	1616.02
1023.735	1583.25
1023.902	1978.51
1024.068	1980.56
1024.234	1374.36
1024.4	1417.37
1024.566	2105.48
1024.732	2130.06
1024.898	1511.57
1025.065	1364.12
1025.231	2027.66
1025.397	1753.23
1025.563	1560.72
1025.729	1321.11
1025.895	1290.39
1026.061	1540.24
1026.227	1243.29
1026.392	1403.03
1026.558	2017.42
1026.724	1896.59
1026.89	1335.45
1027.056	1405.08
1027.222	1855.63
1027.388	1548.44
1027.553	1302.68
1027.719	1280.15
1027.885	2070.67
1028.051	1677.46
1028.216	1118.36
1028.382	1247.38
1028.548	1851.53
1028.713	1429.65
1028.879	1237.14
1029.045	1357.97
1029.21	1994.89
1029.376	1808.53
1029.541	1325.21
1029.707	1325.21
1029.873	1802.38
1030.038	1699.98
1030.204	1222.81
1030.369	1257.62
1030.534	1757.33
1030.7	1511.57
1030.865	1159.32
1031.031	1118.36
1031.196	1536.15
1031.361	1591.44
1031.527	1079.45
1031.692	1110.17
1031.857	1114.27
1032.023	1661.07
1032.188	1056.92
1032.353	1136.79
1032.518	1802.38
1032.684	1435.8
1032.849	1052.83
1033.014	1247.38
1033.179	1605.78
1033.344	1611.92
1033.509	1206.42
1033.674	1194.14
1033.839	1671.31
1034.004	1493.14
1034.17	1024.16
1034.335	862.37
1034.5	1296.53
1034.664	1341.59
1034.829	972.96
1034.994	1052.83
1035.159	1415.32
1035.324	1454.23
1035.489	1065.11
1035.654	909.47
1035.819	1634.45
1035.984	1366.17
1036.148	1052.83
1036.313	997.53
1036.478	1570.96
1036.643	1411.22
1036.807	880.8
1036.972	837.79
1037.137	1724.56
1037.301	1335.45
1037.466	759.97
1037.631	995.48
1037.795	1609.87
1037.96	1339.54
1038.124	1093.79
1038.289	772.25
1038.454	1505.43
1038.618	1331.35
1038.783	950.43
1038.947	901.28
1039.111	1339.54
1039.276	1157.27
1039.44	878.75
1039.605	1265.82
1039.769	1110.17
1039.933	1269.91
1040.098	915.61
1040.262	1128.6
1040.426	1452.18
1040.591	1368.21
1040.755	802.97
1040.919	829.6
1041.083	1290.39
1041.248	1118.36
1041.412	657.57
1041.576	665.76
1041.74	1093.79
1041.904	1400.98
1042.068	710.82
1042.232	782.49
1042.397	1337.49
1042.561	1241.24
1042.725	538.79
1042.889	950.43
1043.053	1314.97
1043.217	1245.34
1043.381	837.79
1043.544	544.93
1043.708	1372.31
1043.872	932
1044.036	483.49
1044.2	604.32
1044.364	1374.36
1044.528	1388.69
1044.691	2074.76
1044.855	569.51
1045.019	1405.08
1045.183	1159.32
1045.346	680.1
1045.51	653.47
1045.674	1161.37
1045.837	1192.09
1046.001	643.23
1046.165	587.94
1046.328	1548.44
1046.492	1108.12
1046.655	737.44
1046.819	714.91
1046.983	897.18
1047.146	1140.89
1047.31	731.3
1047.473	475.3
1047.636	1034.39
1047.8	813.21
1047.963	719.01
1048.127	526.5
1048.29	733.34
