Data from Hydrogel_Ink_Intensity_Test_1_USB4F045381__11__00011.txt Node

Date: Mon Jul 31 10:37:02 EDT 2023
User: mmckonesweet
Spectrometer: USB4F04538
Trigger mode: 4
Integration Time (sec): 9.000000E-1
Scans to average: 1
Electric dark correction enabled: true
Nonlinearity correction enabled: false
Boxcar width: 0
XAxis mode: Wavelengths
Number of Pixels in Spectrum: 3648
>>>>>Begin Spectral Data<<<<<
345.52	-976.37
345.736	-976.37
345.952	-976.37
346.168	-914.93
346.384	-966.13
346.6	-142.85
346.816	-220.67
347.032	-232.96
347.248	336.38
347.464	-204.28
347.68	-77.31
347.896	121.34
348.112	391.67
348.328	-81.41
348.544	-134.65
348.76	2.56
348.975	242.17
349.191	-239.1
349.407	-40.45
349.623	100.86
349.839	-3.58
350.055	-130.56
350.27	209.4
350.486	303.61
350.702	444.92
350.918	313.85
351.133	-159.23
351.349	176.64
351.565	465.4
351.781	-91.65
351.996	111.1
352.212	403.96
352.428	-38.4
352.644	-124.41
352.859	-159.23
353.075	295.42
353.291	-5.63
353.506	-81.41
353.722	-118.27
353.938	18.94
354.153	483.83
354.369	150.01
354.584	-136.7
354.8	344.57
355.016	-230.91
355.231	-124.41
355.447	70.14
355.662	176.64
355.878	901.62
356.093	-275.96
356.309	64
356.524	-165.37
356.74	266.75
356.955	-56.83
357.171	35.33
357.386	168.45
357.602	-189.95
357.817	61.95
358.033	-11.78
358.248	426.49
358.464	203.26
358.679	0.51
358.895	-179.71
359.11	90.62
359.325	358.91
359.541	260.6
359.756	76.29
359.972	-245.24
360.187	276.99
360.402	-112.13
360.618	-81.41
360.833	1010.16
361.048	250.36
361.264	-67.07
361.479	92.67
361.694	68.09
361.909	283.13
362.125	-85.5
362.34	-79.36
362.555	350.71
362.77	217.6
362.986	-73.21
363.201	-52.74
363.416	225.79
363.631	135.68
363.847	-28.16
364.062	-44.54
364.277	238.08
364.492	197.12
364.707	-19.97
364.922	-222.72
365.138	383.48
365.353	498.17
365.568	-108.03
365.783	-17.92
365.998	129.53
366.213	713.21
366.428	-122.37
366.643	315.9
366.858	397.82
367.073	324.09
367.288	18.94
367.503	-46.59
367.718	154.11
367.933	377.34
368.148	-144.89
368.363	109.05
368.578	74.24
368.793	477.69
369.008	64
369.223	-60.93
369.438	317.95
369.653	604.66
369.868	-136.7
370.083	-50.69
370.298	131.58
370.513	516.6
370.728	217.6
370.943	-75.26
371.157	-17.92
371.372	608.76
371.587	-81.41
371.802	-110.08
372.017	197.12
372.232	492.02
372.446	96.77
372.661	-71.17
372.876	346.62
373.091	326.14
373.306	127.49
373.52	-30.21
373.735	-15.87
373.95	510.46
374.165	80.38
374.379	37.38
374.594	59.9
374.809	223.74
375.023	193.02
375.238	-138.75
375.453	432.63
375.667	-99.84
375.882	88.57
376.097	-9.73
376.311	262.65
376.526	76.29
376.741	2.56
376.955	379.39
377.17	762.36
377.384	688.63
377.599	76.29
377.813	-40.45
378.028	647.67
378.242	256.51
378.457	109.05
378.672	-77.31
378.886	238.08
379.101	207.36
379.315	-26.11
379.53	78.33
379.744	350.71
379.958	358.91
380.173	4.61
380.387	35.33
380.602	315.9
380.816	90.62
381.031	23.04
381.245	70.14
381.459	346.62
381.674	2640.34
381.888	86.53
382.103	324.09
382.317	68.09
382.531	659.96
382.746	180.73
382.96	123.39
383.174	111.1
383.388	690.68
383.603	248.32
383.817	16.9
384.031	463.35
384.246	596.47
384.46	262.65
384.674	539.13
384.888	227.84
385.103	309.76
385.317	37.38
385.531	328.19
385.745	580.09
385.959	506.36
386.174	131.58
386.388	51.71
386.602	186.88
386.816	203.26
387.03	217.6
387.244	199.16
387.458	363
387.672	610.81
387.887	76.29
388.101	25.09
388.315	733.68
388.529	485.88
388.743	211.45
388.957	129.53
389.171	635.38
389.385	123.39
389.599	217.6
389.813	485.88
390.027	379.39
390.241	952.82
390.455	242.17
390.669	299.52
390.883	303.61
391.097	813.56
391.311	385.53
391.525	186.88
391.738	453.11
391.952	514.55
392.166	289.28
392.38	227.84
392.594	631.29
392.808	637.43
393.022	352.76
393.236	334.33
393.449	532.98
393.663	537.08
393.877	143.87
394.091	424.44
394.305	291.32
394.518	371.19
394.732	92.67
394.946	266.75
395.16	844.28
395.373	446.97
395.587	303.61
395.801	283.13
396.015	686.58
396.228	569.85
396.442	186.88
396.656	184.83
396.869	772.6
397.083	780.79
397.297	338.43
397.51	260.6
397.724	834.04
397.938	571.9
398.151	160.25
398.365	205.31
398.578	657.91
398.792	819.7
399.005	481.78
399.219	414.2
399.433	610.81
399.646	602.61
399.86	498.17
400.073	477.69
400.287	688.63
400.5	457.21
400.714	510.46
400.927	399.87
401.141	829.94
401.354	1505.77
401.567	764.4
401.781	256.51
401.994	817.65
402.208	1077.74
402.421	436.73
402.635	582.14
402.848	653.81
403.061	936.43
403.275	555.51
403.488	358.91
403.701	1028.59
403.915	866.8
404.128	612.85
404.341	449.02
404.555	799.22
404.768	635.38
404.981	600.57
405.195	461.3
405.408	1143.28
405.621	954.87
405.834	629.24
406.048	451.07
406.261	997.87
406.474	1110.51
406.687	385.53
406.9	719.35
407.114	672.25
407.327	856.56
407.54	449.02
407.753	475.64
407.966	518.65
408.179	897.52
408.392	522.74
408.605	424.44
408.819	842.23
409.032	938.48
409.245	526.84
409.458	715.25
409.671	950.77
409.884	1102.32
410.097	522.74
410.31	784.88
410.523	1034.74
410.736	616.95
410.949	766.45
411.162	723.44
411.375	1180.14
411.588	1061.36
411.801	760.31
412.014	739.83
412.227	823.8
412.44	836.08
412.653	610.81
412.865	819.7
413.078	1122.8
413.291	961.01
413.504	840.18
413.717	737.78
413.93	1053.17
414.143	676.34
414.356	793.08
414.568	582.14
414.781	1130.99
414.994	1014.26
415.207	827.89
415.42	711.16
415.632	1038.83
415.845	1419.75
416.058	766.45
416.271	684.53
416.483	989.68
416.696	1409.51
416.909	889.33
417.121	754.16
417.334	1108.46
417.547	1526.25
417.759	788.98
417.972	788.98
418.185	940.53
418.397	1243.63
418.61	805.36
418.823	881.14
419.035	1550.82
419.248	1024.5
419.46	1038.83
419.673	1090.03
419.885	1159.66
420.098	1098.22
420.311	930.29
420.523	715.25
420.736	1202.67
420.948	1092.08
421.161	870.9
421.373	764.4
421.586	1235.44
421.798	1067.5
422.01	870.9
422.223	1014.26
422.435	1016.3
422.648	1452.52
422.86	999.92
423.073	956.91
423.285	1423.85
423.497	956.91
423.71	1047.02
423.922	1032.69
424.134	1481.19
424.347	1606.12
424.559	1200.62
424.771	1372.65
424.984	1153.52
425.196	1319.4
425.408	997.87
425.621	1030.64
425.833	1485.29
426.045	1575.4
426.257	1083.89
426.47	1120.75
426.682	1595.88
426.894	1485.29
427.106	1159.66
427.318	1296.88
427.531	1237.49
427.743	1612.26
427.955	1247.72
428.167	1630.7
428.379	1620.46
428.591	1425.9
428.804	1425.9
429.016	1145.33
429.228	1303.02
429.44	1614.31
429.652	1589.74
429.864	1098.22
430.076	1423.85
430.288	1501.67
430.5	1356.27
430.712	1448.43
430.924	1835.49
431.136	1647.08
431.348	1266.16
431.56	1303.02
431.772	1528.3
431.984	1507.82
432.196	1448.43
432.408	1505.77
432.62	1597.93
432.832	1753.57
433.044	1835.49
433.256	1661.41
433.468	1905.12
433.679	1452.52
433.891	1425.9
434.103	1780.2
434.315	2114.02
434.527	1894.88
434.739	1731.05
434.95	1759.72
435.162	2038.24
435.374	1563.11
435.586	1552.87
435.798	1671.65
436.009	1583.59
436.221	1866.21
436.433	1767.91
436.645	1677.8
436.856	1671.65
437.068	2122.21
437.28	1692.13
437.491	2126.3
437.703	2122.21
437.915	1964.51
438.126	1845.73
438.338	1933.79
438.55	2054.62
438.761	2089.44
438.973	1909.22
439.184	1880.55
439.396	2085.34
439.608	2286.05
439.819	1704.42
440.031	2001.38
440.242	2269.66
440.454	2150.88
440.665	1974.75
440.877	2083.3
441.088	2255.33
441.3	2095.58
441.511	1878.5
441.723	1968.61
441.934	2142.69
442.146	2230.75
442.357	2152.93
442.569	2243.04
442.78	2294.24
442.991	2587.1
443.203	2296.28
443.414	1876.45
443.626	2519.51
443.837	2208.22
444.048	2148.83
444.26	1962.47
444.471	2177.5
444.682	2548.19
444.894	1939.94
445.105	2062.82
445.316	2615.77
445.528	2433.5
445.739	2269.66
445.95	2132.45
446.161	2531.8
446.373	2816.47
446.584	2271.71
446.795	2308.57
447.006	2697.69
447.217	2759.13
447.429	2159.07
447.64	2124.26
447.851	2683.35
448.062	2572.76
448.273	2138.59
448.484	2341.34
448.695	2607.58
448.907	2531.8
449.118	2501.08
449.329	2494.94
449.54	2304.48
449.751	2398.68
449.962	2423.26
450.173	2353.63
450.384	2738.65
450.595	3086.8
450.806	2507.23
451.017	2517.47
451.228	3017.17
451.439	2783.7
451.65	2574.81
451.861	2339.29
452.072	2408.92
452.283	2626.01
452.494	2808.28
452.705	2623.96
452.915	3058.13
453.126	2865.62
453.337	2726.36
453.548	2638.3
453.759	3125.71
453.97	3492.3
454.181	2978.26
454.391	2738.65
454.602	3058.13
454.813	3131.86
455.024	3008.98
455.235	2824.66
455.445	3117.52
455.656	3344.84
455.867	2949.59
456.078	3027.41
456.288	2910.68
456.499	3246.54
456.71	2916.82
456.921	3242.45
457.131	3283.41
457.342	3240.4
457.553	3205.58
457.763	3031.51
457.974	3541.45
458.184	3471.82
458.395	3103.18
458.606	3150.29
458.816	3525.07
459.027	4035.01
459.237	3449.29
459.448	3156.43
459.659	3668.42
459.869	4118.98
460.08	3174.86
460.29	3566.03
460.501	4204.99
460.711	3566.03
460.922	3299.79
461.132	3707.34
461.343	4338.11
461.553	3574.22
461.764	3670.47
461.974	3572.17
462.184	4014.53
462.395	3768.77
462.605	3924.42
462.816	3561.93
463.026	3998.15
463.236	4262.33
463.447	3951.04
463.657	3932.61
463.867	4463.04
464.078	4024.77
464.288	3969.48
464.498	4112.83
464.709	4184.51
464.919	4112.83
465.129	4233.66
465.339	4141.5
465.55	4475.32
465.76	4651.45
465.97	4180.42
466.18	4145.6
466.391	4829.62
466.601	4735.42
466.811	4481.47
467.021	4526.52
467.231	4913.59
467.441	5052.85
467.651	4807.09
467.862	4614.59
468.072	5124.53
468.282	5271.98
468.492	4555.19
468.702	4952.5
468.912	5161.39
469.122	5613.99
469.332	5347.76
469.542	5026.23
469.752	5362.09
469.962	5702.06
470.172	5132.72
470.382	5243.31
470.592	5908.9
470.802	5878.18
471.012	5708.2
471.222	5544.36
471.432	5927.33
471.642	5974.44
471.852	5790.12
472.062	5638.57
472.272	5962.15
472.482	5929.38
472.691	5925.29
472.901	5808.55
473.111	6314.4
473.321	6961.56
473.531	6300.06
473.741	6365.6
473.95	6797.72
474.16	6678.94
474.37	6560.16
474.58	6402.46
474.79	7315.86
474.999	7186.83
475.209	6394.27
475.419	6939.03
475.628	7240.08
475.838	7563.66
476.048	7100.82
476.258	7070.1
476.467	7768.46
476.677	7653.77
476.886	7635.34
477.096	7739.79
477.306	7522.7
477.515	8003.97
477.725	7774.6
477.935	7772.55
478.144	8307.07
478.354	7870.86
478.563	8112.52
478.773	8112.52
478.982	8728.95
479.192	8624.51
479.401	8198.53
479.611	8325.5
479.82	8565.12
480.03	8810.87
480.239	8395.14
480.449	8591.74
480.658	9386.35
480.868	9134.45
481.077	9015.67
481.287	8913.27
481.496	9476.46
481.705	9920.87
481.915	9611.63
482.124	9476.46
482.333	9550.19
482.543	10074.47
482.752	9763.18
482.961	9625.97
483.171	10328.42
483.38	9939.3
483.589	10230.12
483.799	10029.41
484.008	10125.67
484.217	10410.34
484.426	10209.64
484.636	10166.63
484.845	10662.24
485.054	10236.26
485.263	10793.31
485.472	10529.12
485.682	11204.95
485.891	11116.89
486.1	10416.48
486.309	10996.06
486.518	11266.39
486.727	11653.45
486.936	11034.97
487.146	11276.63
487.355	11852.11
487.564	11481.42
487.773	11487.57
487.982	11528.53
488.191	11501.9
488.4	11882.83
488.609	11936.07
488.818	12011.85
489.027	12642.62
489.236	12878.14
489.445	11962.7
489.654	12124.49
489.863	12898.62
490.072	12577.09
490.281	12656.96
490.49	12491.07
490.698	13021.5
490.907	13193.53
491.116	12747.07
491.325	12568.9
491.534	13259.06
491.743	13117.75
491.952	12962.11
492.16	13117.75
492.369	13498.67
492.578	13539.63
492.787	13099.32
492.996	13211.96
493.204	13523.25
493.413	14346.53
493.622	13289.78
493.831	13519.15
494.039	14227.75
494.248	13635.89
494.457	13904.17
494.665	13842.73
494.874	14051.63
495.083	14719.26
495.291	14108.97
495.5	14158.12
495.709	14582.05
495.917	14569.76
496.126	14534.95
496.335	14330.15
496.543	14741.79
496.752	14788.89
496.96	14952.73
497.169	14805.28
497.377	15020.31
497.586	15288.6
497.794	15208.73
498.003	14678.3
498.211	15302.93
498.42	15294.74
498.628	15315.22
498.837	15067.42
499.045	15620.37
499.254	15786.26
499.462	15216.92
499.671	15309.08
499.879	16294.15
500.087	16013.58
500.296	15886.61
500.504	15874.32
500.713	16173.32
500.921	16378.12
501.129	15673.62
501.338	15839.5
501.546	16406.79
501.754	16294.15
501.962	16101.64
502.171	16054.54
502.379	16697.6
502.587	16935.17
502.795	16402.69
503.004	16216.33
503.212	16666.88
503.42	16914.69
503.628	16726.27
503.837	16791.81
504.045	17074.43
504.253	17436.92
504.461	16845.05
504.669	16541.96
504.877	17344.76
505.085	17721.59
505.294	16718.08
505.502	17187.07
505.71	17582.32
505.918	17664.24
506.126	17215.74
506.334	17285.37
506.542	17733.87
506.75	17553.65
506.958	17711.35
507.166	17813.74
507.374	17611
507.582	18389.22
507.79	17819.89
507.998	17932.53
508.206	18387.18
508.414	18041.07
508.622	17977.58
508.83	17905.9
509.037	18800.87
509.245	18202.86
509.453	18292.97
509.661	18290.92
509.869	18704.61
510.077	18239.72
510.285	18651.36
510.492	17983.73
510.7	19534.04
510.908	18487.53
511.116	18555.11
511.324	18526.44
511.531	18628.84
511.739	18786.53
511.947	19075.29
512.155	19269.85
512.362	19063.01
512.57	18915.55
512.778	19108.06
512.985	18749.67
513.193	19413.21
513.401	19720.4
513.608	19130.59
513.816	19189.98
514.024	19249.37
514.231	19552.47
514.439	19398.87
514.646	19499.22
514.854	19992.78
515.061	19583.19
515.269	19392.73
515.477	19495.13
515.684	19536.09
515.892	20306.12
516.099	19663.06
516.307	19603.67
516.514	20216.01
516.722	20299.98
516.929	19781.84
517.136	20138.19
517.344	20416.71
517.551	20007.12
517.759	19722.45
517.966	20498.63
518.173	20070.61
518.381	20433.1
518.588	20281.55
518.796	20336.84
519.003	20850.88
519.21	20691.14
519.418	20621.51
519.625	20390.09
519.832	20805.83
520.039	20740.29
520.247	20799.68
520.454	20838.59
520.661	21123.26
520.868	21330.11
521.076	21092.54
521.283	21067.97
521.49	21913.78
521.697	21551.29
521.904	21244.09
522.112	21217.47
522.319	21706.93
522.526	21450.94
522.733	21364.92
522.94	21643.45
523.147	21625.01
523.354	21856.43
523.561	21528.76
523.768	21641.4
523.975	22116.53
524.183	22087.85
524.39	21706.93
524.597	21637.3
524.804	22198.45
525.011	22247.6
525.218	21848.24
525.425	21952.69
525.632	22491.3
525.838	22069.42
526.045	22022.32
526.252	22272.17
526.459	23675.03
526.666	23396.51
526.873	22743.2
527.08	22681.77
527.287	23040.16
527.494	22591.66
527.701	22775.97
527.907	22204.59
528.114	23353.5
528.321	22872.23
528.528	22841.51
528.735	22952.1
528.941	23263.39
529.148	22806.69
529.355	22997.15
529.562	22888.61
529.768	23802
529.975	23312.54
530.182	23189.66
530.388	22988.96
530.595	23586.97
530.802	22902.95
531.008	23715.99
531.215	23466.14
531.422	24500.36
531.628	24762.5
531.835	23689.37
532.042	23775.38
532.248	23812.24
532.455	24400.01
532.661	23912.6
532.868	23922.83
533.074	24520.84
533.281	24666.25
533.487	24037.52
533.694	23935.12
533.9	24703.11
534.107	24440.97
534.313	24055.95
534.52	24324.24
534.726	24967.3
534.933	25012.35
535.139	24584.33
535.345	24565.9
535.552	24701.06
535.758	24987.78
535.965	25151.62
536.171	25012.35
536.377	25350.27
536.584	25591.93
536.79	24676.49
536.996	25444.48
537.203	25430.14
537.409	25254.01
537.615	25278.59
537.821	25659.51
538.028	25981.04
538.234	25606.27
538.44	25524.35
538.646	25473.15
538.853	25462.91
539.059	25964.66
539.265	25995.38
539.471	25577.59
539.677	26148.98
539.883	25946.23
540.09	25768.05
540.296	26427.5
540.502	26304.62
540.708	26404.97
540.914	26361.97
541.12	26294.38
541.326	26767.46
541.532	26888.29
541.738	26632.3
541.944	26706.02
542.15	26916.97
542.356	26755.18
542.562	26615.91
542.768	26488.94
542.974	27564.12
543.18	27306.08
543.386	26822.76
543.592	27023.46
543.798	27699.29
544.004	27592.79
544.21	27426.91
544.415	26931.3
544.621	27840.6
544.827	27711.58
545.033	27316.32
545.239	27773.02
545.445	27852.89
545.651	28168.27
545.856	27705.43
546.062	27631.71
546.268	27844.7
546.474	28192.85
546.679	27850.84
546.885	27758.68
547.091	27881.56
547.297	28264.53
547.502	27779.16
547.708	27940.95
547.914	27922.52
548.119	28457.04
548.325	27816.02
548.531	27277.41
548.736	28538.96
548.942	28209.23
549.147	28049.49
549.353	28348.5
549.559	28792.9
549.764	28332.11
549.97	27957.33
550.175	28307.54
550.381	29030.47
550.586	28092.5
550.792	28463.18
550.997	28586.06
551.203	28956.74
551.408	28545.1
551.614	28450.89
551.819	28782.66
552.025	29542.46
552.23	29802.55
552.435	28747.85
552.641	29741.11
552.846	29225.03
553.052	30240.82
553.257	29327.42
553.462	29579.32
553.668	29438.01
553.873	29904.95
554.078	29472.83
554.283	29544.51
554.489	29638.72
554.694	30079.03
554.899	29564.99
555.105	30228.53
555.31	30040.12
555.515	30578.73
555.72	29931.58
555.925	29685.82
556.131	30357.55
556.336	29974.58
556.541	30312.5
556.746	30054.45
556.951	30771.24
557.156	30777.39
557.361	30156.85
557.567	30576.69
557.772	30980.14
557.977	30550.06
558.182	30462
558.387	30683.18
558.592	30640.17
558.797	30740.52
559.002	30550.06
559.207	31025.19
559.412	30691.37
559.617	31615.01
559.822	30568.49
560.027	31023.14
560.232	31064.1
560.437	31324.19
560.642	30662.7
560.847	30828.59
561.051	31021.09
561.256	31064.1
561.461	31080.49
561.666	30758.95
561.871	31471.65
562.076	31301.67
562.281	31113.25
562.485	30615.6
562.69	31717.4
562.895	31623.2
563.1	31270.95
563.305	31346.72
563.509	31893.53
563.714	32376.85
563.919	31207.46
564.123	31344.67
564.328	31735.84
564.533	31961.11
564.737	30998.57
564.942	31672.35
565.147	32206.87
565.351	32378.9
565.556	31658.01
565.761	32047.13
565.965	32188.44
566.17	31883.29
566.374	31627.29
566.579	31588.38
566.784	32065.56
566.988	32051.22
567.193	31758.36
567.397	32006.17
567.602	31784.99
567.806	32018.46
568.011	31918.1
568.215	32376.85
568.42	32477.2
568.624	32403.47
568.828	32061.46
569.033	32458.77
569.237	32794.64
569.442	32671.76
569.646	32202.77
569.85	32462.86
570.055	33259.52
570.259	32784.4
570.463	32716.81
570.668	32567.31
570.872	32509.97
571.076	33155.08
571.281	32757.77
571.485	32888.84
571.689	33017.86
571.893	33110.02
572.098	32702.48
572.302	32927.75
572.506	33640.45
572.71	32958.47
572.914	33249.28
573.119	33060.87
573.323	33497.09
573.527	33765.37
573.731	33187.85
573.935	33062.92
574.139	33409.03
574.343	32894.99
574.547	33636.35
574.751	33343.49
574.955	34170.87
575.159	34129.91
575.364	33320.96
575.568	33589.25
575.772	33624.06
575.976	34357.24
576.18	33716.22
576.383	33626.11
576.587	34328.56
576.791	34174.97
576.995	34074.62
577.199	34023.42
577.403	34197.49
577.607	34832.36
577.811	34146.29
578.015	33802.24
578.219	34387.96
578.422	34660.34
578.626	34476.02
578.83	34404.34
579.034	34562.03
579.238	34510.83
579.442	34506.74
579.645	35014.63
579.849	34693.1
580.053	35104.74
580.257	34537.46
580.46	35004.39
580.664	35436.52
580.868	35043.31
581.071	35121.13
581.275	35059.69
581.479	34856.94
581.682	35401.7
581.886	34840.56
582.09	34693.1
582.293	35540.96
582.497	35274.73
582.7	35162.09
582.904	35071.98
583.107	35428.32
583.311	35575.78
583.515	35260.39
583.718	35432.42
583.922	35487.71
584.125	36288.47
584.329	35274.73
584.532	35512.29
584.735	36089.82
584.939	35864.54
585.142	35463.14
585.346	35463.14
585.549	36055
585.753	36169.69
585.956	36169.69
586.159	35899.36
586.363	36362.2
586.566	36659.15
586.769	35413.99
586.973	35903.45
587.176	36278.23
587.379	36779.98
587.582	36495.32
587.786	36579.28
587.989	36818.89
588.192	37158.86
588.395	36362.2
588.599	36962.25
588.802	36683.73
589.005	36368.34
589.208	36700.11
589.411	36653.01
589.615	37189.58
589.818	37496.77
590.021	36644.82
590.224	36870.09
590.427	37210.06
590.63	37334.98
590.833	36573.14
591.036	36923.34
591.239	37527.49
591.442	36618.19
591.645	37404.61
591.848	37347.27
592.051	37720
592.254	37662.66
592.457	37517.25
592.66	37232.58
592.863	37836.73
593.066	37918.65
593.269	37533.64
593.472	37590.98
593.675	38203.32
593.878	37879.74
594.081	37846.97
594.284	37642.18
594.486	38080.44
594.689	38096.83
594.892	37920.7
595.095	37810.11
595.298	38145.98
595.5	38186.94
595.703	38617.01
595.906	38111.16
596.109	38487.99
596.311	38791.09
596.514	37984.19
596.717	38502.32
596.92	39223.21
597.122	38809.52
597.325	38102.97
597.528	38168.51
597.73	38989.74
597.933	38731.7
598.136	38645.68
598.338	38346.68
598.541	39020.46
598.743	39276.46
598.946	38268.86
599.148	38809.52
599.351	39036.84
599.554	39851.94
599.756	39206.83
599.959	39110.57
600.161	39323.56
600.363	39724.96
600.566	39165.87
600.768	39200.68
600.971	39716.77
601.173	39350.18
601.376	39212.97
601.578	38928.3
601.78	39739.3
601.983	39917.47
602.185	39079.85
602.388	38746.03
602.59	39524.26
602.792	39258.02
602.995	39610.28
603.197	38963.12
603.399	39995.29
603.601	39413.67
603.804	39143.34
604.006	39790.5
604.208	39649.19
604.41	39348.14
604.613	39796.64
604.815	39325.61
605.017	41000.85
605.219	39716.77
605.421	39942.05
605.623	39933.85
605.826	40531.86
606.028	40509.33
606.23	39763.87
606.432	39671.71
606.634	40767.38
606.836	40288.15
607.038	40077.21
607.24	39864.22
607.442	40169.37
607.644	39983.01
607.846	40265.63
608.048	39851.94
608.25	39989.15
608.452	40148.89
608.654	40284.06
608.856	39464.87
609.058	40112.03
609.26	40710.03
609.462	40441.75
609.664	40101.79
609.866	40841.1
610.067	40382.36
610.269	40611.73
610.471	40413.08
610.673	40470.42
610.875	40198.04
611.077	40073.12
611.278	40198.04
611.48	40406.94
611.682	41117.58
611.884	40642.45
612.085	39759.78
612.287	40495
612.489	40675.22
612.69	40349.59
612.892	40544.15
613.094	40699.79
613.295	40269.72
613.497	40095.64
613.699	40638.36
613.9	41389.96
614.102	40726.42
614.304	40689.56
614.505	40181.66
614.707	40914.83
614.908	40931.22
615.11	40112.03
615.311	40769.43
615.513	41088.91
615.714	41365.38
615.916	40488.85
616.117	40345.5
616.319	40923.02
616.52	40634.26
616.722	40296.35
616.923	40732.56
617.124	41023.37
617.326	40730.51
617.527	40763.28
617.729	41064.33
617.93	41127.82
618.131	41279.37
618.333	40331.16
618.534	41265.03
618.735	40513.43
618.937	41115.53
619.138	40634.26
619.339	40695.7
619.54	40892.3
619.742	41330.57
619.943	40908.69
620.144	41121.68
620.345	41009.04
620.546	41447.3
620.748	41277.32
620.949	40923.02
621.15	41371.53
621.351	40810.39
621.552	40908.69
621.753	40810.39
621.954	41037.71
622.155	41240.46
622.356	41183.12
622.558	41330.57
622.759	41224.07
622.96	41758.59
623.161	40830.86
623.362	40988.56
623.563	41291.66
623.764	41230.22
623.965	41101.2
624.166	41891.71
624.366	41203.6
624.567	41512.84
624.768	41166.73
624.969	40927.12
625.17	40968.08
625.371	41727.88
625.572	40847.25
625.773	41002.89
625.973	41555.85
626.174	41893.76
626.375	41615.24
626.576	41344.91
626.777	41742.21
626.977	41633.67
627.178	41512.84
627.379	41457.54
627.58	41088.91
627.78	41838.47
627.981	41344.91
628.182	41594.76
628.382	41801.6
628.583	41703.3
628.784	41224.07
628.984	41158.54
629.185	41797.51
629.386	41568.13
629.586	41553.8
629.787	41664.39
629.987	41654.15
630.188	41830.27
630.388	41717.64
630.589	41367.43
630.79	42094.46
630.99	42284.92
631.191	42045.31
631.391	41994.11
631.591	42006.4
631.792	42375.03
631.992	41922.43
632.193	41893.76
632.393	42450.81
632.594	41987.97
632.794	41865.09
632.994	42348.41
633.195	42180.48
633.395	42069.89
633.595	41537.41
633.796	41854.85
633.996	42129.28
634.196	42542.97
634.397	41869.19
634.597	42258.3
634.797	42278.78
634.997	42659.7
635.198	42637.17
635.398	41781.12
635.598	42620.79
635.798	42772.34
635.998	42209.15
636.199	42190.72
636.399	42203
636.599	42014.59
636.799	42006.4
636.999	42344.31
637.199	42755.96
637.399	43102.06
637.599	42684.28
637.799	42264.44
637.999	42594.17
638.199	42940.27
638.399	42323.83
638.599	42067.84
638.799	43288.43
638.999	43831.14
639.199	42878.83
639.399	42868.59
639.599	43130.73
639.799	42571.64
639.999	42545.01
640.199	42729.33
640.399	42927.98
640.599	42106.75
640.799	43525.99
640.998	42798.96
641.198	43249.52
641.398	43247.47
641.598	42784.63
641.798	42755.96
641.997	43732.84
642.197	42942.32
642.397	43018.1
642.597	43028.34
642.796	42899.31
642.996	43085.68
643.196	42690.42
643.395	42381.18
643.595	43569
643.795	42766.2
643.994	43231.08
644.194	42981.23
644.394	43276.14
644.593	43282.28
644.793	43280.24
644.992	43265.9
645.192	43407.21
645.392	43417.45
645.591	43243.37
645.791	43288.43
645.99	43468.65
646.19	43640.68
646.389	43466.6
646.589	43407.21
646.788	43781.99
646.987	43974.5
647.187	43681.64
647.386	43669.35
647.586	43771.75
647.785	44093.28
647.984	43990.88
648.184	43765.6
648.383	43769.7
648.582	43554.66
648.782	43593.57
648.981	43513.7
649.18	43157.36
649.38	43816.8
649.579	43270
649.778	43421.55
649.977	43784.04
650.177	43765.6
650.376	43726.69
650.575	43069.29
650.774	44289.88
650.973	44093.28
651.173	43519.85
651.372	43532.14
651.571	43927.39
651.77	44377.95
651.969	43632.49
652.168	43980.64
652.367	43591.53
652.566	44324.7
652.765	43685.73
652.964	44306.27
653.163	44537.69
653.362	44203.87
653.561	43839.33
653.76	44349.28
653.959	43865.95
654.158	44771.16
654.357	44144.48
654.556	43736.93
654.755	44316.51
654.954	44289.88
655.153	44091.23
655.352	44005.22
655.551	44836.69
655.749	44412.76
655.948	44134.24
656.147	44027.74
656.346	44476.25
656.545	44451.67
656.743	44234.59
656.942	44064.61
657.141	44386.14
657.34	44371.8
657.538	43896.67
657.737	44336.99
657.936	44625.75
658.135	44488.54
658.333	43890.53
658.532	44212.06
658.731	44883.8
658.929	44846.93
659.128	44525.4
659.326	44259.16
659.525	44912.47
659.724	44818.26
659.922	44093.28
660.121	44302.17
660.319	44367.71
660.518	44203.87
660.716	44416.86
660.915	44199.77
661.113	45360.97
661.312	43906.91
661.51	44334.94
661.709	44513.11
661.907	44570.46
662.105	44812.12
662.304	45008.72
662.502	44521.3
662.701	45209.42
662.899	44586.84
663.097	45047.63
663.296	44574.55
663.494	45025.1
663.692	45021.01
663.891	44402.52
664.089	44296.03
664.287	44894.03
664.485	44732.25
664.684	44517.21
664.882	44506.97
665.08	44502.87
665.278	45039.44
665.476	44148.57
665.675	44760.92
665.873	45356.88
666.071	44934.99
666.269	44644.18
666.467	44306.27
666.665	45324.11
666.863	44394.33
667.061	44795.73
667.259	44468.06
667.457	45012.82
667.655	45008.72
667.853	44404.57
668.051	44388.19
668.249	44138.33
668.447	44543.83
668.645	44418.91
668.843	44789.59
669.041	45061.97
669.239	44582.74
669.437	44543.83
669.635	44599.13
669.833	44885.84
670.031	44494.68
670.229	44623.7
670.426	44427.1
670.624	44685.14
670.822	44482.39
671.02	44476.25
671.218	44711.77
671.415	44316.51
671.613	44773.2
671.811	44310.36
672.009	44273.5
672.206	44824.4
672.404	44607.32
672.602	44218.21
672.799	44578.65
672.997	44623.7
673.195	44793.68
673.392	44390.23
673.59	44248.92
673.788	44423
673.985	43927.39
674.183	44009.31
674.38	44074.85
674.578	44617.56
674.775	44128.09
674.973	43919.2
675.17	44283.74
675.368	44777.3
675.565	44533.59
675.763	44529.5
675.96	43900.77
676.158	44466.01
676.355	43630.44
676.553	44287.84
676.75	43601.77
676.947	44306.27
677.145	44042.08
677.342	43937.63
677.539	44658.52
677.737	44167.01
677.934	44214.11
678.131	44212.06
678.329	43554.66
678.526	44402.52
678.723	44361.56
678.92	44203.87
679.118	43415.4
679.315	43730.79
679.512	44738.39
679.709	43935.59
679.906	43700.07
680.104	44406.62
680.301	44214.11
680.498	43618.15
680.695	43544.42
680.892	43710.31
681.089	43964.26
681.286	43992.93
681.483	43124.59
681.68	43525.99
681.877	44085.09
682.075	43360.11
682.272	43427.69
682.469	43718.5
682.665	43145.07
682.862	43116.4
683.059	43087.73
683.256	43609.96
683.453	43577.19
683.65	43503.46
683.847	43444.07
684.044	43220.84
684.241	43360.11
684.438	43493.22
684.635	43122.54
684.831	44226.4
685.028	43911.01
685.225	42848.11
685.422	43155.31
685.619	43216.75
685.815	43337.58
686.012	43100.01
686.209	42569.59
686.405	42784.63
686.602	43138.93
686.799	42420.09
686.996	42952.56
687.192	42563.45
687.389	43525.99
687.586	42514.3
687.782	43167.6
687.979	43444.07
688.175	43501.42
688.372	42844.02
688.568	42891.12
688.765	42694.52
688.962	43569
689.158	42755.96
689.355	42536.82
689.551	42758
689.748	42471.29
689.944	43046.77
690.14	42401.66
690.337	42835.83
690.533	42833.78
690.73	42291.07
690.926	42973.04
691.123	42465.14
691.319	42624.89
691.515	42514.3
691.712	42039.17
691.908	42315.64
692.104	43022.19
692.301	42540.92
692.497	42106.75
692.693	42268.54
692.889	42362.75
693.086	42278.78
693.282	42196.86
693.478	42049.41
693.674	42764.15
693.87	42299.26
694.067	42090.37
694.263	42309.5
694.459	42223.48
694.655	42166.14
694.851	42264.44
695.047	42469.24
695.243	42553.21
695.439	42121.09
695.635	42098.56
695.831	42096.51
696.027	42114.94
696.224	41838.47
696.42	42209.15
696.615	42798.96
696.811	42188.67
697.007	41496.45
697.203	41777.03
697.399	41815.94
697.595	42137.47
697.791	41400.2
697.987	41858.95
698.183	41809.79
698.379	41711.49
698.575	41729.92
698.77	41291.66
698.966	41752.45
699.162	42129.28
699.358	41512.84
699.554	41107.34
699.749	41836.42
699.945	41848.71
700.141	41471.88
700.337	41424.78
700.532	41346.95
700.728	41303.95
700.924	41373.58
701.119	41256.84
701.315	41203.6
701.511	41387.91
701.706	42030.97
701.902	40884.11
702.097	41334.67
702.293	41928.58
702.489	41271.18
702.684	41555.85
702.88	41254.79
703.075	41469.83
703.271	40802.19
703.466	40898.45
703.662	41113.48
703.857	41332.62
704.053	41752.45
704.248	41088.91
704.443	41760.64
704.639	41860.99
704.834	41518.98
705.03	41353.1
705.225	41432.97
705.42	41473.93
705.616	41088.91
705.811	40490.9
706.006	41428.87
706.202	40810.39
706.397	40804.24
706.592	40689.56
706.787	40787.86
706.983	40877.97
707.178	41527.17
707.373	41191.31
707.568	40927.12
707.763	41181.07
707.959	40910.74
708.154	40863.63
708.349	40773.52
708.544	41361.29
708.739	40679.32
708.934	40658.84
709.129	40845.2
709.324	41029.52
709.519	40824.72
709.714	40615.83
709.909	41752.45
710.104	40744.85
710.299	40769.43
710.494	40822.67
710.689	40718.23
710.884	40710.03
711.079	40394.65
711.274	40333.21
711.469	40998.8
711.664	40464.28
711.859	40736.66
712.054	40660.88
712.249	40628.12
712.443	40646.55
712.638	40228.76
712.833	40308.63
713.028	40445.85
713.223	40314.78
713.417	40056.73
713.612	40087.45
713.807	40738.71
714.002	41203.6
714.196	40249.24
714.391	39702.43
714.586	40583.06
714.78	40058.78
714.975	39946.14
715.17	40073.12
715.364	40069.02
715.559	40667.03
715.754	39438.25
715.948	39911.33
716.143	40456.09
716.337	39602.08
716.532	40173.47
716.726	39880.61
716.921	40130.46
717.115	40863.63
717.31	39571.36
717.504	40286.11
717.699	40056.73
717.893	39874.46
718.088	39417.77
718.282	39522.21
718.476	39563.17
718.671	39798.69
718.865	39516.07
719.059	39645.09
719.254	39526.31
719.448	39614.37
719.642	40646.55
719.837	38901.68
720.031	39618.47
720.225	39724.96
720.419	39210.92
720.614	38614.96
720.808	39587.75
721.002	38795.18
721.196	38963.12
721.39	39290.79
721.585	39098.28
721.779	39516.07
721.973	38789.04
722.167	38510.52
722.361	39057.32
722.555	39327.66
722.749	38567.86
722.943	38711.22
723.137	38586.29
723.331	39268.26
723.525	38856.62
723.719	38832.05
723.913	39276.46
724.107	39108.52
724.301	38877.1
724.495	39102.38
724.689	39503.78
724.883	39053.23
725.077	38932.4
725.271	39012.27
725.465	38834.1
725.659	39204.78
725.853	38592.44
726.046	38610.87
726.24	38442.93
726.434	38774.7
726.628	38391.73
726.822	38594.48
727.015	39294.89
727.209	38766.51
727.403	38334.39
727.596	38578.1
727.79	39004.08
727.984	38932.4
728.177	38674.35
728.371	38512.56
728.565	38885.29
728.758	38410.17
728.952	38326.2
729.146	38207.42
729.339	39055.28
729.533	38784.94
729.726	38518.71
729.92	38256.57
730.113	39059.37
730.307	38973.36
730.5	38602.67
730.694	38447.03
730.887	38621.11
731.081	39045.04
731.274	38623.15
731.468	38363.06
731.661	38287.29
731.854	38238.14
732.048	38399.93
732.241	38447.03
732.435	38504.37
732.628	38635.44
732.821	37822.4
733.014	38164.41
733.208	38457.27
733.401	38614.96
733.594	38502.32
733.788	38281.14
733.981	38531
734.174	38870.96
734.367	38010.81
734.56	38651.83
734.754	38326.2
734.947	38580.15
735.14	38225.85
735.333	38199.23
735.526	38764.46
735.719	38295.48
735.912	38250.42
736.105	38279.1
736.298	38193.08
736.491	38168.51
736.684	38330.3
736.877	38184.89
737.07	38166.46
737.263	38680.5
737.456	38021.05
737.649	37568.45
737.842	38139.83
738.035	38424.5
738.228	37791.68
738.421	37869.5
738.614	38604.72
738.807	38336.44
739	37939.13
739.192	37304.26
739.385	38227.9
739.578	38033.34
739.771	38107.07
739.964	37595.07
740.156	37871.55
740.349	37666.75
740.542	37978.04
740.735	37246.92
740.927	37687.23
741.12	37881.79
741.313	37429.19
741.505	37846.97
741.698	37543.88
741.891	37818.3
742.083	37693.38
742.276	38037.44
742.468	37636.03
742.661	37629.89
742.854	37547.97
743.046	37367.75
743.239	37957.56
743.431	37709.76
743.624	37203.91
743.816	37203.91
744.009	37519.3
744.201	37889.98
744.393	37304.26
744.586	37031.88
744.778	38045.63
744.971	37466.05
745.163	37109.71
745.355	37607.36
745.548	36843.47
745.74	36980.68
745.932	37003.21
746.125	36911.05
746.317	38139.83
746.509	37339.08
746.702	37312.45
746.894	37537.73
747.086	37312.45
747.278	37578.69
747.471	37001.16
747.663	37562.31
747.855	37222.34
748.047	37685.18
748.239	37101.51
748.431	37076.94
748.623	37902.27
748.815	37386.18
749.008	36837.33
749.2	37138.38
749.392	37449.67
749.584	37089.23
749.776	37416.9
749.968	37013.45
750.16	37732.29
750.352	37197.77
750.544	37111.75
750.736	36542.42
750.928	37177.29
751.12	36745.17
751.311	36298.71
751.503	37095.37
751.695	37044.17
751.887	36655.06
752.079	36499.41
752.271	36505.55
752.463	37617.6
752.654	37339.08
752.846	36767.69
753.038	36577.23
753.23	36763.6
753.421	36833.23
753.613	36347.86
753.805	36558.8
753.997	36585.43
754.188	36923.34
754.38	35878.88
754.572	36513.75
754.763	36593.62
754.955	36444.12
755.146	36386.77
755.338	36085.72
755.53	36360.15
755.721	36179.93
755.913	35909.6
756.104	35768.29
756.296	36700.11
756.487	36442.07
756.679	36186.07
756.87	36112.34
757.062	35569.63
757.253	36276.18
757.445	35948.51
757.636	35925.98
757.827	36052.95
758.019	36931.53
758.21	35463.14
758.401	35893.21
758.593	36149.21
758.784	36177.88
758.975	35229.67
759.167	35231.72
759.358	36036.57
759.549	36032.47
759.74	34844.65
759.932	35190.76
760.123	35723.23
760.314	34908.14
760.505	35327.97
760.696	34924.52
760.888	35981.27
761.079	35237.86
761.27	35069.93
761.461	35014.63
761.652	35645.41
761.843	35125.22
762.034	35227.62
762.225	34762.73
762.416	35041.26
762.607	34822.12
762.798	34854.89
762.989	34539.5
763.18	35526.63
763.371	34738.16
763.562	34672.62
763.753	34385.91
763.944	34648.05
764.135	34990.06
764.326	34461.68
764.517	34492.4
764.708	34740.21
764.899	34437.11
765.089	34076.66
765.28	34013.18
765.471	34418.67
765.662	34473.97
765.853	34148.34
766.043	33808.38
766.234	34752.49
766.425	34490.35
766.615	34234.36
766.806	34349.04
766.997	34490.35
767.187	34056.18
767.378	33767.42
767.569	33642.49
767.759	33660.93
767.95	34347
768.141	33855.48
768.331	33527.81
768.522	33646.59
768.712	34111.48
768.903	33878.01
769.093	33368.07
769.284	33998.84
769.474	33656.83
769.665	32978.95
769.855	33196.04
770.046	33746.94
770.236	33439.75
770.426	33601.54
770.617	33251.33
770.807	33005.58
770.998	33470.47
771.188	33161.22
771.378	32806.92
771.569	33427.46
771.759	33386.5
771.949	32507.92
772.139	33171.46
772.33	32870.41
772.52	33349.64
772.71	33036.3
772.9	32534.54
773.09	33265.67
773.281	33224.71
773.471	32643.09
773.661	32552.98
773.851	32348.18
774.041	32505.87
774.231	32419.86
774.421	32167.96
774.611	33071.11
774.802	32348.18
774.992	32020.5
775.182	31952.92
775.372	32182.29
775.562	32434.19
775.752	32354.32
775.942	32104.47
776.131	32301.08
776.321	32127
776.511	31887.39
776.701	31764.51
776.891	32319.51
777.081	31723.55
777.271	31795.23
777.461	31787.03
777.651	32055.32
777.84	32307.22
778.03	31688.73
778.22	31490.08
778.41	32118.81
778.599	31508.51
778.789	31504.42
778.979	31512.61
779.169	31690.78
779.358	31713.31
779.548	31645.73
779.738	31279.14
779.927	31993.88
780.117	31164.45
780.307	31424.54
780.496	30935.08
780.686	31594.53
780.875	31555.61
781.065	31203.36
781.254	30705.71
781.444	31127.59
781.633	31397.92
781.823	30898.22
782.012	31004.71
782.202	31033.38
782.391	31088.68
782.581	30588.97
782.77	30556.21
782.96	31031.33
783.149	30572.59
783.338	30560.3
783.528	30445.62
783.717	30771.24
783.906	30763.05
784.096	30443.57
784.285	30505.01
784.474	30199.86
784.663	30664.75
784.853	30429.23
785.042	30036.02
785.231	30488.62
785.42	30558.25
785.61	30347.31
785.799	29923.38
785.988	30124.08
786.177	30107.7
786.366	30189.62
786.555	30263.35
786.744	30615.6
786.933	30148.66
787.122	29937.72
787.312	30058.55
787.501	29904.95
787.69	30363.7
787.879	29929.53
788.068	29499.45
788.257	29464.64
788.445	29419.58
788.634	29743.16
788.823	29579.32
789.012	30326.83
789.201	29849.66
789.39	29392.96
789.579	29386.82
789.768	29657.15
789.957	29728.83
790.145	29521.98
790.334	29175.87
790.523	29515.84
790.712	29296.7
790.9	29399.1
791.089	28948.55
791.278	29767.74
791.467	29620.28
791.655	29556.8
791.844	29429.82
792.033	28905.54
792.221	29136.96
792.41	28985.41
792.599	28682.31
792.787	29413.44
792.976	29229.12
793.164	28756.04
793.353	29063.24
793.541	29286.47
793.73	29206.59
793.918	29071.43
794.107	28258.38
794.295	29026.37
794.484	28684.36
794.672	28880.97
794.861	28719.18
795.049	28977.22
795.238	28477.52
795.426	28454.99
795.614	28196.95
795.803	28581.96
795.991	28917.83
796.179	28151.89
796.368	28250.19
796.556	29038.66
796.744	28090.45
796.932	28037.2
797.121	28049.49
797.309	28454.99
797.497	28901.45
797.685	28422.22
797.874	28227.67
798.062	28274.77
798.25	28559.44
798.438	28471.37
798.626	28213.33
798.814	28473.42
799.002	28926.02
799.19	28225.62
799.378	28293.2
799.566	28508.24
799.755	28586.06
799.943	28201.04
800.131	28125.27
800.318	28459.09
800.506	28465.23
800.694	28242
800.882	28258.38
801.07	28760.14
801.258	28117.07
801.446	27998.29
801.634	27846.74
801.822	27844.7
802.01	28285.01
802.197	28188.75
802.385	28133.46
802.573	28586.06
802.761	28022.87
802.949	28315.73
803.136	28022.87
803.324	28563.53
803.512	28616.78
803.699	27744.34
803.887	27893.85
804.075	29014.09
804.262	28334.16
804.45	28205.14
804.638	28315.73
804.825	28385.36
805.013	28188.75
805.201	28690.51
805.388	28098.64
805.576	28524.62
805.763	28702.79
805.951	28471.37
806.138	28622.92
806.326	29083.72
806.513	28776.52
806.701	28665.93
806.888	28282.96
807.075	28676.17
807.263	29149.25
807.45	28717.13
807.638	28205.14
807.825	29050.95
808.012	28678.22
808.2	28272.72
808.387	28923.97
808.574	28749.9
808.761	29184.07
808.949	28665.93
809.136	28606.54
809.323	28606.54
809.51	28655.69
809.698	28782.66
809.885	28444.75
810.072	29100.1
810.259	29085.76
810.446	28680.27
810.633	28555.34
810.82	29075.52
811.008	29188.16
811.195	28870.73
811.382	28553.29
811.569	29065.28
811.756	28477.52
811.943	28782.66
812.13	28751.95
812.317	28835.91
812.504	28684.36
812.691	28993.61
812.878	29087.81
813.064	29440.06
813.251	28964.93
813.438	28643.4
813.625	29118.53
813.812	28436.56
813.999	28864.58
814.186	28825.67
814.372	28909.64
814.559	28985.41
814.746	29347.9
814.933	28700.75
815.12	29028.42
815.306	28624.97
815.493	28713.03
815.68	28590.16
815.866	28397.65
816.053	29089.86
816.24	29218.88
816.426	28749.9
816.613	28586.06
816.799	28885.06
816.986	28930.12
817.173	28563.53
817.359	28270.67
817.546	28909.64
817.732	28469.33
817.919	28270.67
818.105	28553.29
818.292	28588.11
818.478	28915.78
818.665	28872.78
818.851	28799.05
819.037	29284.42
819.224	28702.79
819.41	28274.77
819.597	28393.55
819.783	28913.73
819.969	28706.89
820.156	28454.99
820.342	28270.67
820.528	29124.68
820.714	28319.82
820.901	28461.13
821.087	28291.15
821.273	29124.68
821.459	28710.99
821.646	28196.95
821.832	28239.95
822.018	28399.69
822.204	28375.12
822.39	28219.47
822.576	28307.54
822.762	28287.06
822.948	28166.23
823.134	28076.12
823.32	27838.55
823.507	27801.69
823.693	28557.39
823.879	28371.02
824.065	27899.99
824.25	28170.32
824.436	27514.97
824.622	28024.92
824.808	27650.14
824.994	27717.72
825.18	27656.28
825.366	27902.04
825.552	27619.42
825.738	27768.92
825.923	27838.55
826.109	27697.24
826.295	27326.56
826.481	27977.81
826.667	27785.3
826.852	27390.05
827.038	27379.81
827.224	27957.33
827.409	27977.81
827.595	27056.23
827.781	27549.79
827.966	27619.42
828.152	27947.09
828.338	27732.06
828.523	26798.18
828.709	27547.74
828.894	27736.15
829.08	27136.1
829.266	27215.97
829.451	27375.71
829.637	27496.54
829.822	27510.88
830.008	26835.05
830.193	27318.37
830.378	27568.22
830.564	26904.68
830.749	26677.35
830.935	26945.64
831.12	26892.39
831.305	26898.53
831.491	26984.55
831.676	26419.31
831.861	27000.93
832.047	26450.03
832.232	26712.17
832.417	27070.56
832.602	26810.47
832.788	26443.88
832.973	26364.01
833.158	26239.09
833.343	26583.15
833.528	26878.05
833.714	26525.8
833.899	26830.95
834.084	26583.15
834.269	26353.77
834.454	26368.11
834.639	26837.09
834.824	26728.55
835.009	26028.15
835.194	26628.2
835.379	26845.29
835.564	26566.76
835.749	26251.38
835.934	26351.73
836.119	26525.8
836.304	26581.1
836.489	26099.83
836.674	26206.32
836.859	25825.4
837.044	26511.47
837.228	26009.72
837.413	25868.41
837.598	26157.17
837.783	26060.91
837.968	25927.8
838.152	25841.78
838.337	25497.72
838.522	26157.17
838.707	26435.69
838.891	25970.8
839.076	26114.16
839.261	26218.61
839.445	25639.03
839.63	25645.18
839.815	25827.45
839.999	25679.99
840.184	25516.15
840.368	25426.04
840.553	25583.74
840.737	25987.19
840.922	25016.45
841.106	25178.24
841.291	25596.03
841.475	25809.01
841.66	25317.5
841.844	25315.45
842.029	26284.14
842.213	25315.45
842.397	24770.69
842.582	24619.14
842.766	25243.77
842.951	25473.15
843.135	24793.22
843.319	24596.62
843.504	25223.3
843.688	25606.27
843.872	24572.04
844.056	24819.85
844.241	25413.76
844.425	25182.34
844.609	24744.07
844.793	24608.9
844.977	24875.14
845.161	24592.52
845.346	24266.89
845.53	24475.79
845.714	24912
845.898	24692.87
846.082	24320.14
846.266	24248.46
846.45	24711.3
846.634	24522.89
846.818	23953.55
847.002	24623.24
847.186	24807.56
847.37	24158.35
847.554	24176.78
847.738	24322.19
847.922	24395.92
848.106	24809.61
848.29	23822.48
848.473	24490.12
848.657	24365.2
848.841	24103.06
849.025	24225.93
849.209	23779.48
849.392	24418.44
849.576	23828.63
849.76	23593.11
849.944	23845.01
850.127	24488.07
850.311	23550.1
850.495	23765.14
850.678	23560.34
850.862	24346.76
851.046	24258.7
851.229	23826.58
851.413	23273.63
851.596	23722.13
851.78	23791.76
851.964	23636.12
852.147	23398.55
852.331	23945.36
852.514	24234.13
852.698	23378.08
852.881	23007.39
853.065	23879.83
853.248	23251.1
853.431	23236.77
853.615	23281.82
853.798	23523.48
853.982	23234.72
854.165	23031.97
854.348	23183.52
854.532	23197.85
854.715	23120.03
854.898	23214.24
855.081	22970.53
855.265	22792.36
855.448	23519.39
855.631	22460.59
855.814	22415.53
855.997	23269.53
856.181	22735.01
856.364	23023.78
856.547	22509.74
856.73	22814.88
856.913	22550.7
857.096	22628.52
857.279	22798.5
857.462	22751.4
857.645	22753.44
857.828	22702.25
858.011	22460.59
858.194	22778.02
858.377	22960.29
858.56	22474.92
858.743	22438.06
858.926	22157.49
859.109	22986.91
859.292	22223.02
859.475	22180.01
859.658	23042.21
859.841	22597.8
860.023	22149.29
860.206	22085.81
860.389	22390.95
860.572	22325.42
860.755	21866.67
860.937	21921.97
861.12	22259.88
861.303	22272.17
861.486	21756.08
861.668	21872.82
861.851	21964.98
862.034	22022.32
862.216	21838
862.399	21242.04
862.581	21893.3
862.764	22137.01
862.947	21659.83
863.129	21389.5
863.312	21180.6
863.494	21754.04
863.677	21491.9
863.859	21186.75
864.042	21835.95
864.224	21575.86
864.406	21457.08
864.589	20635.85
864.771	21512.38
864.954	20895.94
865.136	21053.63
865.318	20814.02
865.501	20906.18
865.683	20670.66
865.865	20955.33
866.048	20926.66
866.23	21076.16
866.412	20932.8
866.594	20854.98
866.777	20998.34
866.959	21194.94
867.141	20656.32
867.323	20842.69
867.505	20721.86
867.687	21055.68
867.869	20900.03
868.052	20934.85
868.234	20437.19
868.416	20687.04
868.598	21256.38
868.78	20492.49
868.962	20603.08
869.144	21008.58
869.326	20844.74
869.508	20711.62
869.69	20521.16
869.872	20521.16
870.054	21096.64
870.236	20439.24
870.417	20369.61
870.599	20508.87
870.781	20992.19
870.963	20342.99
871.145	20347.08
871.327	20287.69
871.508	20760.77
871.69	20009.17
871.872	20510.92
872.054	20734.15
872.235	20529.35
872.417	20086.99
872.599	20293.83
872.78	20631.75
872.962	20740.29
873.144	20123.85
873.325	20512.97
873.507	20992.19
873.689	20414.66
873.87	20148.43
874.052	20486.34
874.233	20431.05
874.415	20496.58
874.596	20416.71
874.778	20177.1
874.959	20553.93
875.141	20826.31
875.322	20185.29
875.503	20222.16
875.685	20304.07
875.866	20101.33
876.048	20263.11
876.229	20170.96
876.41	19986.64
876.592	20658.37
876.773	20574.41
876.954	19704.02
877.136	20922.56
877.317	20426.95
877.498	19904.72
877.679	20232.4
877.86	20472.01
878.042	20615.37
878.223	20224.2
878.404	20871.36
878.585	20576.45
878.766	20809.92
878.947	20775.11
879.128	20699.33
879.309	20502.73
879.49	21035.2
879.672	20525.25
879.853	20375.75
880.034	20551.88
880.215	20836.55
880.396	20580.55
880.576	20492.49
880.757	20578.5
880.938	20912.32
881.119	20644.04
881.3	20533.45
881.481	20744.39
881.662	21733.56
881.843	20666.56
882.023	20498.63
882.204	21024.96
882.385	20803.78
882.566	20613.32
882.747	20795.59
882.927	21033.15
883.108	21184.7
883.289	21196.99
883.469	21213.37
883.65	21164.22
883.831	21278.91
884.011	21172.41
884.192	21299.39
884.373	21833.91
884.553	21475.51
884.734	21502.14
884.914	21539
885.095	22450.35
885.275	22091.95
885.456	22020.27
885.636	21280.96
885.817	21719.22
885.997	21797.04
886.178	21379.26
886.358	21489.85
886.538	21983.41
886.719	22692.01
886.899	21461.18
887.08	21569.72
887.26	22139.05
887.44	21414.07
887.621	21495.99
887.801	21825.71
887.981	22491.3
888.161	21803.19
888.342	21731.51
888.522	21586.1
888.702	22229.16
888.882	22139.05
889.062	21751.99
889.242	21670.07
889.423	21987.5
889.603	22026.42
889.783	22132.91
889.963	21633.21
890.143	22311.08
890.323	21913.78
890.503	21901.49
890.683	21778.61
890.863	21803.19
891.043	21774.52
891.223	21698.74
891.403	22128.81
891.583	22016.18
891.763	21719.22
891.943	21567.67
892.122	21545.14
892.302	22053.04
892.482	22335.66
892.662	21885.11
892.842	21776.56
893.022	22030.51
893.201	21942.45
893.381	21739.7
893.561	21645.49
893.741	22024.37
893.92	21928.11
894.1	21788.85
894.28	21584.05
894.459	21850.29
894.639	21860.53
894.819	21446.84
894.998	21625.01
895.178	21944.5
895.357	21905.59
895.537	21213.37
895.716	21106.88
895.896	21618.87
896.075	21889.2
896.255	21219.52
896.434	21203.13
896.614	21881.01
896.793	21735.6
896.973	21604.53
897.152	21416.12
897.331	21391.55
897.511	21493.94
897.69	20891.84
897.87	20781.25
898.049	21258.43
898.228	21266.62
898.407	21254.33
898.587	21160.13
898.766	21186.75
898.945	21246.14
899.124	20904.13
899.304	20975.81
899.483	21141.69
899.662	21467.32
899.841	20691.14
900.02	20603.08
900.199	21004.48
900.378	20981.95
900.557	20193.48
900.737	20228.3
900.916	20652.23
901.095	20787.39
901.274	20648.13
901.453	20394.18
901.632	20095.18
901.811	20142.28
901.989	20189.39
902.168	19941.58
902.347	20277.45
902.526	19796.18
902.705	19454.17
902.884	19566.81
903.063	20111.57
903.242	20166.86
903.42	19450.07
903.599	19667.16
903.778	20076.75
903.957	19744.98
904.135	19525.85
904.314	19423.45
904.493	19341.53
904.672	19654.87
904.85	19298.52
905.029	19185.88
905.207	19714.26
905.386	19849.43
905.565	18854.11
905.743	18919.65
905.922	18964.7
906.1	18854.11
906.279	18542.82
906.457	18356.46
906.636	18536.68
906.814	18260.2
906.993	18057.45
907.171	18055.4
907.35	18546.92
907.528	18342.12
907.707	18151.66
907.885	17789.17
908.063	18247.91
908.242	17860.85
908.42	17791.22
908.598	17445.11
908.777	17635.57
908.955	17799.41
909.133	17547.51
909.311	17287.42
909.49	17987.82
909.668	17826.03
909.846	17608.95
910.024	17473.78
910.202	17875.18
910.38	18204.91
910.559	17740.02
910.737	17731.83
910.915	18217.19
911.093	18321.64
911.271	18004.21
911.449	18546.92
911.627	18503.91
911.805	18682.08
911.983	18223.34
912.161	17789.17
912.339	18688.23
912.517	18745.57
912.695	18276.59
912.872	18401.51
913.05	18307.3
913.228	18776.29
913.406	18063.6
913.584	18389.22
913.762	18690.27
913.939	18823.39
914.117	18280.68
914.295	18125.04
914.473	18727.14
914.65	18692.32
914.828	17975.53
915.006	18223.34
915.184	18344.17
915.361	18579.68
915.539	18520.29
915.716	18409.7
915.894	18604.26
916.072	18510.05
916.249	18352.36
916.427	18395.37
916.604	18209
916.782	18376.94
916.959	18221.29
917.137	17998.06
917.314	18178.28
917.492	18395.37
917.669	18063.6
917.847	18034.92
918.024	18168.04
918.201	17793.26
918.379	17875.18
918.556	17879.28
918.733	18329.83
918.911	18079.98
919.088	17869.04
919.265	17654
919.442	18034.92
919.62	17639.67
919.797	17361.14
919.974	17201.4
920.151	17731.83
920.328	17641.71
920.506	17389.81
920.683	17846.51
920.86	17645.81
921.037	17508.6
921.214	17410.29
921.391	17459.45
921.568	17764.59
921.745	17176.83
921.922	17291.51
922.099	16904.45
922.276	17768.69
922.453	17502.45
922.63	17168.63
922.807	17412.34
922.984	17567.99
923.161	16918.78
923.338	17078.52
923.514	16908.54
923.691	17172.73
923.868	17117.43
924.045	16816.38
924.222	17010.94
924.399	17264.89
924.575	17127.67
924.752	16843.01
924.929	16929.02
925.105	16976.12
925.282	16486.66
925.459	16490.76
925.635	16617.73
925.812	16660.74
925.989	16382.21
926.165	16371.97
926.342	16269.58
926.518	16339.21
926.695	16777.47
926.871	16304.39
927.048	16275.72
927.224	16494.85
927.401	16333.06
927.577	16369.93
927.754	15931.66
927.93	16283.91
928.107	16075.02
928.283	15724.82
928.459	16095.5
928.636	15718.67
928.812	15937.8
928.988	15440.15
929.165	15462.68
929.341	15532.31
929.517	15542.55
929.693	15769.87
929.87	15059.23
930.046	15841.55
930.222	15118.62
930.398	14819.61
930.574	14944.54
930.751	15323.41
930.927	15005.98
931.103	15221.02
931.279	14766.37
931.455	14686.5
931.631	14965.02
931.807	14885.15
931.983	14686.5
932.159	14536.99
932.335	14805.28
932.511	14612.77
932.687	14438.69
932.863	14420.26
933.039	14647.58
933.215	14233.89
933.391	14145.83
933.566	14207.27
933.742	14113.06
933.918	13766.96
934.094	13773.1
934.27	13699.37
934.445	13787.44
934.621	13427
934.797	13209.91
934.973	13656.37
935.148	13562.16
935.324	12683.58
935.5	12519.74
935.675	13072.7
935.851	12902.72
936.027	12452.16
936.202	12200.26
936.378	12321.09
936.553	12243.27
936.729	12235.08
936.904	11659.6
937.08	11454.8
937.255	11389.27
937.431	11039.06
937.606	10826.07
937.782	10824.03
937.957	10961.24
938.133	10717.53
938.308	10357.09
938.483	10373.47
938.659	10201.44
938.834	10080.61
939.009	9939.3
939.185	10013.03
939.36	9709.93
939.535	9152.88
939.71	9636.2
939.886	9689.45
940.061	9548.14
940.236	9331.06
940.411	8995.19
940.586	9353.59
940.761	9159.03
940.937	8982.9
941.112	8706.43
941.287	9025.91
941.462	8757.63
941.637	8550.78
941.812	8313.22
941.987	8501.63
942.162	8589.69
942.337	8348.03
942.512	8104.32
942.687	8638.84
942.862	8595.84
943.037	8085.89
943.212	7893.38
943.386	8149.38
943.561	8444.29
943.736	8067.46
943.911	8499.58
944.086	8337.79
944.26	8116.61
944.435	7858.57
944.61	7862.66
944.785	8399.23
944.959	8456.57
945.134	7879.05
945.309	7913.86
945.483	7786.89
945.658	8337.79
945.833	7817.61
946.007	7657.87
946.182	8636.8
946.357	7768.46
946.531	7805.32
946.706	8081.8
946.88	7846.28
947.055	8165.76
947.229	7903.62
947.404	7948.68
947.578	8362.37
947.752	7915.91
947.927	7913.86
948.101	7897.48
948.276	8329.6
948.45	8292.74
948.624	8307.07
948.799	8186.24
948.973	8440.19
949.147	8044.93
949.321	8470.91
949.496	8210.82
949.67	8509.82
949.844	8583.55
950.018	8368.51
950.193	8464.77
950.367	9019.77
950.541	8425.86
950.715	8556.93
950.889	8722.81
951.063	8702.33
951.237	8651.13
951.411	8366.46
951.585	8411.52
951.759	8765.82
951.933	8765.82
952.107	8399.23
952.281	8728.95
952.455	9230.71
952.629	8907.13
952.803	8591.74
952.977	8589.69
953.151	9113.97
953.325	9036.15
953.499	8900.98
953.672	8661.37
953.846	8845.69
954.02	8997.24
954.194	8542.59
954.368	8536.45
954.541	9056.63
954.715	8950.14
954.889	8890.74
955.062	8649.08
955.236	9156.98
955.41	8999.29
955.583	9111.92
955.757	8722.81
955.93	8964.47
956.104	8925.56
956.278	8970.62
956.451	9042.29
956.625	9212.28
956.798	9691.5
956.972	9226.61
957.145	8819.07
957.319	9208.18
957.492	9107.83
957.665	9130.36
957.839	8874.36
958.012	9322.87
958.185	9159.03
958.359	9050.49
958.532	9046.39
958.705	9531.76
958.879	9365.87
959.052	9085.3
959.225	8978.81
959.398	9183.6
959.572	9316.72
959.745	9003.38
959.918	8974.71
960.091	9091.45
960.264	9455.98
960.438	8943.99
960.611	9070.97
960.784	9257.33
960.957	9185.65
961.13	9345.39
961.303	8937.85
961.476	9148.79
961.649	9408.88
961.822	9118.07
961.995	9152.88
962.168	9365.87
962.341	9310.58
962.514	9087.35
962.686	8890.74
962.859	9443.7
963.032	9302.39
963.205	8958.33
963.378	8909.18
963.551	9435.5
963.723	9202.04
963.896	8976.76
964.069	9140.6
964.242	9140.6
964.414	9275.76
964.587	9152.88
964.76	9013.62
964.932	9097.59
965.105	9154.93
965.278	8974.71
965.45	9036.15
965.623	9075.06
965.795	9566.57
965.968	8612.22
966.14	9013.62
966.313	9030.01
966.485	9154.93
966.658	8675.71
966.83	8726.91
967.003	9427.31
967.175	9290.1
967.348	8728.95
967.52	8692.09
967.692	9286
967.865	9046.39
968.037	8690.04
968.209	9089.4
968.382	8796.54
968.554	9054.58
968.726	8870.26
968.898	8845.69
969.071	8890.74
969.243	8980.85
969.415	8477.05
969.587	8683.9
969.759	9376.11
969.932	9175.41
970.104	8520.06
970.276	8241.54
970.448	8558.97
970.62	8714.62
970.792	8503.68
970.964	8714.62
971.136	9259.38
971.308	8790.39
971.48	8444.29
971.652	8249.73
971.824	8915.32
971.996	8411.52
972.168	8427.9
972.339	8391.04
972.511	8868.22
972.683	8372.61
972.855	8710.52
973.027	8472.96
973.199	8366.46
973.37	8554.88
973.542	8669.56
973.714	8315.27
973.886	8454.53
974.057	8661.37
974.229	8141.19
974.401	8272.26
974.572	8309.12
974.744	7901.58
974.915	8085.89
975.087	8216.96
975.259	8587.64
975.43	8008.07
975.602	8071.56
975.773	7860.62
975.945	8069.51
976.116	8401.28
976.288	8028.55
976.459	8085.89
976.63	8262.02
976.802	8124.8
976.973	7926.15
977.145	7981.45
977.316	8581.5
977.487	8116.61
977.659	7924.1
977.83	7807.37
978.001	8458.62
978.172	7860.62
978.344	7539.08
978.515	7866.76
978.686	8024.45
978.857	8233.35
979.028	7786.89
979.2	7578
979.371	8085.89
979.542	7872.9
979.713	7860.62
979.884	7123.35
980.055	7661.96
980.226	7805.32
980.397	7500.17
980.568	7557.52
980.739	7920.01
980.91	7606.67
981.081	7764.36
981.252	7479.69
981.423	7854.47
981.594	7848.33
981.765	7248.27
981.936	7350.67
982.106	7547.28
982.277	7731.59
982.448	7254.42
982.619	7305.62
982.79	7430.54
982.96	7651.72
983.131	7446.93
983.302	6842.78
983.472	7080.34
983.643	7590.28
983.814	7444.88
983.984	7031.19
984.155	7219.6
984.326	7457.17
984.496	7100.82
984.667	6893.97
984.837	7223.7
985.008	7592.33
985.178	7152.02
985.349	6898.07
985.519	6906.26
985.69	6934.93
985.86	6824.34
986.031	6748.57
986.201	7084.44
986.371	7033.24
986.542	6570.4
986.712	6322.59
986.882	6838.68
987.053	7109.01
987.223	6533.53
987.393	6740.38
987.563	6760.86
987.734	6891.93
987.904	6805.91
988.074	6592.92
988.244	6857.11
988.414	6543.77
988.585	6678.94
988.755	6646.17
988.925	6586.78
989.095	6916.5
989.265	6420.89
989.435	6322.59
989.605	6654.36
989.775	6685.08
989.945	6490.52
990.115	6076.84
990.285	6457.76
990.455	6564.25
990.625	6234.53
990.795	6121.89
990.965	6791.58
991.134	6175.14
991.304	6220.19
991.474	6136.23
991.644	6388.13
991.814	6656.41
991.984	6021.54
992.153	6150.56
992.323	6121.89
992.493	6177.19
992.662	5802.41
992.832	5972.39
993.002	6058.4
993.171	6275.49
993.341	5745.06
993.511	6039.97
993.68	5855.65
993.85	6191.52
994.019	5542.32
994.189	5597.61
994.358	6009.25
994.528	5761.45
994.697	5425.58
994.867	5743.02
995.036	6089.12
995.206	5566.89
995.375	5495.21
995.544	5609.9
995.714	5824.94
995.883	5837.22
996.052	5687.72
996.222	5300.66
996.391	6355.36
996.56	5603.75
996.73	5421.49
996.899	5415.34
997.068	5972.39
997.237	5601.71
997.406	5388.72
997.576	5269.94
997.745	5583.27
997.914	5671.34
998.083	5188.02
998.252	5261.74
998.421	5491.12
998.59	5134.77
998.759	5147.06
998.928	5212.59
999.097	5585.32
999.266	5314.99
999.435	5138.87
999.604	4848.05
999.773	5597.61
999.942	5319.09
1000.111	4911.54
1000.28	4733.37
1000.448	5046.71
1000.617	4960.69
1000.786	5097.91
1000.955	4655.54
1001.124	5161.39
1001.292	5796.26
1001.461	4708.79
1001.63	4860.34
1001.798	5429.68
1001.967	5421.49
1002.136	4741.56
1002.304	4727.22
1002.473	5065.14
1002.642	4952.5
1002.81	4708.79
1002.979	4479.42
1003.147	5052.85
1003.316	5427.63
1003.484	4530.62
1003.653	4499.9
1003.821	5034.42
1003.99	4637.11
1004.158	4766.14
1004.327	4528.57
1004.495	4989.36
1004.663	4458.94
1004.832	4501.95
1005	4147.65
1005.168	4784.57
1005.337	4585.91
1005.505	4010.43
1005.673	4456.89
1005.842	4655.54
1006.01	4657.59
1006.178	4118.98
1006.346	4172.22
1006.514	4477.37
1006.683	4813.24
1006.851	4112.83
1007.019	4166.08
1007.187	4397.5
1007.355	4028.87
1007.523	4028.87
1007.691	3822.02
1007.859	3924.42
1008.027	4673.98
1008.195	4118.98
1008.363	3848.65
1008.531	4614.59
1008.699	4159.94
1008.867	3813.83
1009.035	3854.79
1009.203	4438.46
1009.37	4188.61
1009.538	3862.98
1009.706	4221.38
1009.874	4145.6
1010.042	3961.28
1010.209	3672.52
1010.377	3641.8
1010.545	4135.36
1010.713	3981.76
1010.88	3643.85
1011.048	3736.01
1011.216	4082.11
1011.383	4178.37
1011.551	3578.31
1011.718	3557.83
1011.886	4139.46
1012.054	3910.08
1012.221	3529.16
1012.389	3563.98
1012.556	3830.21
1012.724	4219.33
1012.891	3684.81
1013.058	3350.99
1013.226	3828.17
1013.393	3881.41
1013.561	3346.89
1013.728	3248.59
1013.895	3697.1
1014.063	3723.72
1014.23	3207.63
1014.397	3170.77
1014.565	3666.38
1014.732	3342.8
1014.899	3150.29
1015.066	3158.48
1015.233	3490.25
1015.401	3649.99
1015.568	3035.6
1015.735	3181.01
1015.902	3367.37
1016.069	3361.23
1016.236	3039.7
1016.403	3144.14
1016.57	3019.22
1016.737	3420.62
1016.904	3076.56
1017.071	2978.26
1017.238	3209.68
1017.405	3344.84
1017.572	2873.81
1017.739	2998.74
1017.906	3406.28
1018.073	3396.04
1018.24	2804.18
1018.407	2937.3
1018.573	3414.48
1018.74	3027.41
1018.907	2836.95
1019.074	2634.2
1019.241	3443.15
1019.407	3115.47
1019.574	2580.95
1019.741	2560.47
1019.907	2998.74
1020.074	3064.27
1020.241	2437.59
1020.407	2374.11
1020.574	3119.57
1020.74	2978.26
1020.907	2644.44
1021.073	2619.86
1021.24	3316.17
1021.406	3246.54
1021.573	2513.37
1021.739	2638.3
1021.906	3008.98
1022.072	2789.85
1022.239	2456.03
1022.405	2599.38
1022.571	2759.13
1022.738	2593.24
1022.904	2496.99
1023.07	2527.71
1023.237	2701.78
1023.403	2912.72
1023.569	2513.37
1023.735	2437.59
1023.902	2585.05
1024.068	2783.7
1024.234	2189.79
1024.4	2310.62
1024.566	2736.6
1024.732	2763.22
1024.898	2345.44
1025.065	2154.98
1025.231	2722.26
1025.397	2394.59
1025.563	2243.04
1025.729	2255.33
1025.895	2118.11
1026.061	2222.56
1026.227	2025.95
1026.392	2165.21
1026.558	2820.56
1026.724	2554.33
1026.89	2109.92
1027.056	2140.64
1027.222	2603.48
1027.388	2447.83
1027.553	2195.93
1027.719	1923.55
1027.885	2740.69
1028.051	2378.2
1028.216	1896.93
1028.382	2009.57
1028.548	2542.04
1028.713	2355.68
1028.879	1931.75
1029.045	2249.18
1029.21	2752.98
1029.376	2558.42
1029.541	1944.03
1029.707	2005.47
1029.873	2443.74
1030.038	2339.29
1030.204	2017.76
1030.369	2083.3
1030.534	2355.68
1030.7	2163.17
1030.865	1898.98
1031.031	1950.18
1031.196	2337.24
1031.361	2281.95
1031.527	1872.36
1031.692	1931.75
1031.857	1903.07
1032.023	2333.15
1032.188	1794.53
1032.353	1917.41
1032.518	2679.26
1032.684	2107.87
1032.849	1581.54
1033.014	1890.79
1033.179	2136.54
1033.344	2265.57
1033.509	1810.92
1033.674	1751.53
1033.839	2255.33
1034.004	2253.28
1034.17	1776.1
1034.335	1528.3
1034.5	1874.4
1034.664	1815.01
1034.829	1681.89
1034.994	1774.05
1035.159	2210.27
1035.324	2013.67
1035.489	1604.07
1035.654	1661.41
1035.819	2189.79
1035.984	1972.71
1036.148	1708.52
1036.313	1597.93
1036.478	2081.25
1036.643	1792.48
1036.807	1571.3
1036.972	1509.86
1037.137	2249.18
1037.301	1939.94
1037.466	1448.43
1037.631	1614.31
1037.795	2068.96
1037.96	1923.55
1038.124	1671.65
1038.289	1350.12
1038.454	2034.14
1038.618	1878.5
1038.783	1513.96
1038.947	1530.34
1039.111	1827.3
1039.276	1657.32
1039.44	1432.04
1039.605	1757.67
1039.769	1651.17
1039.933	1718.76
1040.098	1509.86
1040.262	1487.34
1040.426	1907.17
1040.591	1841.64
1040.755	1315.31
1040.919	1475.05
1041.083	1759.72
1041.248	1561.06
1041.412	1221.1
1041.576	1231.34
1041.74	1470.95
1041.904	1946.08
1042.068	1165.81
1042.232	1386.99
1042.397	1794.53
1042.561	1751.53
1042.725	1149.42
1042.889	1335.79
1043.053	1755.62
1043.217	1769.96
1043.381	1354.22
1043.544	1053.17
1043.708	1952.23
1043.872	1352.17
1044.036	983.54
1044.2	1075.7
1044.364	1720.81
1044.528	1874.4
1044.691	4104.64
1044.855	1161.71
1045.019	1735.14
1045.183	1604.07
1045.346	1231.34
1045.51	987.63
1045.674	1395.18
1045.837	1685.99
1046.001	1221.1
1046.165	1186.29
1046.328	1958.37
1046.492	1434.09
1046.655	1251.82
1046.819	1126.89
1046.983	1348.08
1047.146	1622.5
1047.31	1100.27
1047.473	934.39
1047.636	1421.8
1047.8	1130.99
1047.963	1071.6
1048.127	950.77
1048.29	1159.66
