Data from Hydrogel_Ink_Intensity_Test_1_USB4F045381__84__00084.txt Node

Date: Mon Jul 31 10:58:28 EDT 2023
User: mmckonesweet
Spectrometer: USB4F04538
Trigger mode: 4
Integration Time (sec): 9.000000E-1
Scans to average: 1
Electric dark correction enabled: true
Nonlinearity correction enabled: false
Boxcar width: 0
XAxis mode: Wavelengths
Number of Pixels in Spectrum: 3648
>>>>>Begin Spectral Data<<<<<
345.52	-1046.17
345.736	-1046.17
345.952	-1046.17
346.168	-1054.36
346.384	-964.25
346.6	-124.58
346.816	-286.37
347.032	-239.27
347.248	256.34
347.464	-175.78
347.68	-147.11
347.896	131.41
348.112	403.79
348.328	-48.81
348.544	-30.38
348.76	43.35
348.975	217.43
349.191	-239.27
349.407	-218.79
349.623	39.25
349.839	20.82
350.055	-73.39
350.27	67.92
350.486	235.86
350.702	356.69
350.918	174.42
351.133	-226.98
351.349	149.84
351.565	461.13
351.781	-235.18
351.996	-18.09
352.212	309.58
352.428	-75.43
352.644	-151.21
352.859	-308.9
353.075	215.38
353.291	41.3
353.506	-50.86
353.722	-255.65
353.938	-83.63
354.153	411.98
354.369	53.59
354.584	-132.78
354.8	282.96
355.016	-353.96
355.231	-222.89
355.447	-59.05
355.662	184.66
355.878	928.07
356.093	-263.85
356.309	-5.8
356.524	-239.27
356.74	295.25
356.955	-233.13
357.171	-13.99
357.386	133.46
357.602	-138.92
357.817	-87.72
358.033	-149.16
358.248	414.03
358.464	223.57
358.679	-153.26
358.895	-323.24
359.11	14.68
359.325	233.81
359.541	260.43
359.756	67.92
359.972	-263.85
360.187	162.13
360.402	-149.16
360.618	-145.06
360.833	1046.85
361.048	80.21
361.264	-100.01
361.479	20.82
361.694	2.39
361.909	338.26
362.125	-157.35
362.34	-169.64
362.555	319.82
362.77	82.26
362.986	-349.86
363.201	-190.12
363.416	188.75
363.631	51.54
363.847	-157.35
364.062	-132.78
364.277	147.8
364.492	92.5
364.707	-163.5
364.922	-353.96
365.138	315.73
365.353	313.68
365.568	-239.27
365.783	-75.43
365.998	115.03
366.213	620.88
366.428	-249.51
366.643	117.08
366.858	348.5
367.073	272.72
367.288	-100.01
367.503	-280.23
367.718	92.5
367.933	403.79
368.148	-267.94
368.363	-22.19
368.578	-63.15
368.793	477.52
369.008	-175.78
369.223	-269.99
369.438	207.19
369.653	422.22
369.868	-274.09
370.083	-112.3
370.298	166.23
370.513	321.87
370.728	59.73
370.943	-116.39
371.157	-169.64
371.372	629.07
371.587	-325.29
371.802	-241.32
372.017	125.27
372.232	504.14
372.446	39.25
372.661	-224.94
372.876	207.19
373.091	133.46
373.306	-26.28
373.52	-188.07
373.735	-79.53
373.95	424.27
374.165	-1.71
374.379	-134.82
374.594	-147.11
374.809	170.32
375.023	63.83
375.238	-218.79
375.453	231.76
375.667	-200.36
375.882	-83.63
376.097	-200.36
376.311	96.6
376.526	65.88
376.741	-214.7
376.955	139.6
377.17	618.83
377.384	649.55
377.599	16.73
377.813	-278.18
378.028	600.4
378.242	192.85
378.457	37.2
378.672	-284.33
378.886	137.56
379.101	74.07
379.315	-360.1
379.53	-77.48
379.744	209.23
379.958	246.1
380.173	-163.5
380.387	-161.45
380.602	190.8
380.816	-38.57
381.031	-91.82
381.245	-36.52
381.459	260.43
381.674	2859.31
381.888	-200.36
382.103	104.79
382.317	-44.71
382.531	477.52
382.746	-93.87
382.96	-102.06
383.174	-50.86
383.388	520.53
383.603	119.12
383.817	-284.33
384.031	209.23
384.246	524.62
384.46	12.63
384.674	418.13
384.888	37.2
385.103	102.74
385.317	-261.8
385.531	6.49
385.745	485.71
385.959	366.93
386.174	-200.36
386.388	-208.55
386.602	92.5
386.816	-9.9
387.03	-26.28
387.244	-38.57
387.458	166.23
387.672	491.85
387.887	-329.38
388.101	-136.87
388.315	473.42
388.529	258.39
388.743	-87.72
388.957	-122.54
389.171	446.8
389.385	-120.49
389.599	-36.52
389.813	108.88
390.027	145.75
390.241	706.89
390.455	-112.3
390.669	2.39
390.883	2.39
391.097	647.5
391.311	59.73
391.525	-97.96
391.738	307.54
391.952	330.06
392.166	47.44
392.38	-136.87
392.594	354.64
392.808	436.56
393.022	-59.05
393.236	-93.87
393.449	266.58
393.663	289.1
393.877	-155.3
394.091	-3.75
394.305	-63.15
394.518	-52.91
394.732	-212.65
394.946	-16.04
395.16	526.67
395.373	100.69
395.587	-124.58
395.801	-151.21
396.015	401.74
396.228	354.64
396.442	-132.78
396.656	-202.41
396.869	442.7
397.083	563.53
397.297	39.25
397.51	-57
397.724	452.94
397.938	309.58
398.151	-214.7
398.365	-143.02
398.578	276.82
398.792	489.81
399.005	104.79
399.219	-38.57
399.433	268.63
399.646	330.06
399.86	225.62
400.073	127.32
400.287	321.87
400.5	55.64
400.714	174.42
400.927	-54.95
401.141	352.59
401.354	1270.08
401.567	321.87
401.781	-128.68
401.994	422.22
402.208	719.18
402.421	61.78
402.635	39.25
402.848	225.62
403.061	411.98
403.275	104.79
403.488	-118.44
403.701	713.03
403.915	422.22
404.128	198.99
404.341	14.68
404.555	440.65
404.768	151.89
404.981	184.66
405.195	96.6
405.408	610.64
405.621	381.26
405.834	209.23
406.048	-54.95
406.261	600.4
406.474	633.16
406.687	-36.52
406.9	135.51
407.114	248.15
407.327	534.86
407.54	-128.68
407.753	-116.39
407.966	-26.28
408.179	416.08
408.392	-5.8
408.605	-145.06
408.819	407.89
409.032	360.78
409.245	-1.71
409.458	180.56
409.671	385.36
409.884	541.01
410.097	-46.76
410.31	192.85
410.523	461.13
410.736	223.57
410.949	145.75
411.162	141.65
411.375	680.27
411.588	551.24
411.801	186.71
412.014	61.78
412.227	256.34
412.44	166.23
412.653	35.16
412.865	239.95
413.078	612.68
413.291	477.52
413.504	201.04
413.717	10.58
413.93	504.14
414.143	149.84
414.356	147.8
414.568	-136.87
414.781	483.66
414.994	383.31
415.207	149.84
415.42	215.38
415.632	545.1
415.845	794.95
416.058	-22.19
416.271	33.11
416.483	377.17
416.696	780.62
416.909	182.61
417.121	55.64
417.334	491.85
417.547	856.39
417.759	-5.8
417.972	39.25
418.185	239.95
418.397	463.18
418.61	84.31
418.823	170.32
419.035	758.09
419.248	420.17
419.46	182.61
419.673	229.71
419.885	444.75
420.098	305.49
420.311	51.54
420.523	-44.71
420.736	569.68
420.948	383.31
421.161	143.7
421.373	-36.52
421.586	430.41
421.798	231.76
422.01	-16.04
422.223	280.91
422.435	205.14
422.648	688.46
422.86	137.56
423.073	129.36
423.285	567.63
423.497	67.92
423.71	26.96
423.922	145.75
424.134	624.97
424.347	756.04
424.559	381.26
424.771	481.61
424.984	315.73
425.196	551.24
425.408	39.25
425.621	141.65
425.833	604.49
426.045	829.77
426.257	104.79
426.47	213.33
426.682	502.09
426.894	506.19
427.106	121.17
427.318	305.49
427.531	366.93
427.743	665.93
427.955	311.63
428.167	620.88
428.379	590.16
428.591	321.87
428.804	338.26
429.016	131.41
429.228	366.93
429.44	665.93
429.652	504.14
429.864	29.01
430.076	475.47
430.288	477.52
430.5	205.14
430.712	250.19
430.924	698.7
431.136	465.23
431.348	104.79
431.56	219.47
431.772	452.94
431.984	371.02
432.196	188.75
432.408	303.44
432.62	401.74
432.832	633.16
433.044	489.81
433.256	371.02
433.468	706.89
433.679	166.23
433.891	182.61
434.103	569.68
434.315	803.15
434.527	661.84
434.739	338.26
434.95	510.29
435.162	680.27
435.374	399.7
435.586	366.93
435.798	276.82
436.009	305.49
436.221	491.85
436.433	336.21
436.645	377.17
436.856	368.98
437.068	901.45
437.28	305.49
437.491	649.55
437.703	872.78
437.915	698.7
438.126	467.28
438.338	657.74
438.55	573.77
438.761	731.47
438.973	377.17
439.184	364.88
439.396	627.02
439.608	854.34
439.819	297.3
440.031	498
440.242	727.37
440.454	895.3
440.665	393.55
440.877	493.9
441.088	760.14
441.3	719.18
441.511	239.95
441.723	287.06
441.934	680.27
442.146	680.27
442.357	641.36
442.569	751.95
442.78	692.55
442.991	1055.05
443.203	778.57
443.414	307.54
443.626	1050.95
443.837	506.19
444.048	432.46
444.26	287.06
444.471	739.66
444.682	926.02
444.894	221.52
445.105	246.1
445.316	919.88
445.528	872.78
445.739	579.92
445.95	493.9
446.161	723.27
446.373	1044.81
446.584	506.19
446.795	401.74
447.006	887.11
447.217	1116.48
447.429	344.4
447.64	448.85
447.851	983.37
448.062	825.67
448.273	262.48
448.484	481.61
448.695	803.15
448.907	727.37
449.118	627.02
449.329	823.62
449.54	594.25
449.751	596.3
449.962	528.72
450.173	485.71
450.384	1036.61
450.595	1165.64
450.806	536.91
451.017	584.01
451.228	1079.62
451.439	1040.71
451.65	584.01
451.861	299.34
452.072	618.83
452.283	887.11
452.494	815.43
452.705	473.42
452.915	1218.88
453.126	944.45
453.337	608.59
453.548	608.59
453.759	1116.48
453.97	1341.76
454.181	870.73
454.391	799.05
454.602	1020.23
454.813	1065.29
455.024	700.75
455.235	690.51
455.445	1050.95
455.656	985.41
455.867	846.15
456.078	659.79
456.288	811.34
456.499	1157.44
456.71	567.63
456.921	915.78
457.131	1055.05
457.342	1065.29
457.553	809.29
457.763	719.18
457.974	1120.58
458.184	1214.79
458.395	680.27
458.606	624.97
458.816	1386.82
459.027	1503.55
459.237	995.65
459.448	530.77
459.659	1349.95
459.869	1603.9
460.08	676.17
460.29	940.36
460.501	1558.85
460.711	1046.85
460.922	782.67
461.132	764.23
461.343	1788.22
461.553	903.5
461.764	823.62
461.974	827.72
462.184	1425.73
462.395	1284.42
462.605	1057.09
462.816	786.76
463.026	1233.22
463.236	1470.78
463.447	903.5
463.657	921.93
463.867	1554.75
464.078	1241.41
464.288	1007.94
464.498	997.7
464.709	1204.55
464.919	1132.87
465.129	1050.95
465.339	952.65
465.55	1421.63
465.76	1583.42
465.97	1198.4
466.18	1067.33
466.391	1698.11
466.601	1386.82
466.811	1292.61
467.021	987.46
467.231	1435.97
467.441	1644.86
467.651	1263.94
467.862	848.2
468.072	1616.19
468.282	1765.69
468.492	1130.82
468.702	1315.14
468.912	1605.95
469.122	2173.24
469.332	1620.28
469.542	1270.08
469.752	1872.18
469.962	1655.1
470.172	1218.88
470.382	1388.86
470.592	1831.23
470.802	1839.42
471.012	1485.12
471.222	1472.83
471.432	1933.62
471.642	1960.25
471.852	1435.97
472.062	1374.53
472.272	1816.89
472.482	1556.8
472.691	1528.13
472.901	1380.67
473.111	1749.31
473.321	2476.34
473.531	1704.25
473.741	1571.13
473.95	2009.4
474.16	2167.09
474.37	1866.04
474.58	1653.05
474.79	2488.62
474.999	2175.28
475.209	1644.86
475.419	1775.93
475.628	1984.82
475.838	2472.24
476.048	1943.86
476.258	1741.11
476.467	2554.16
476.677	2097.46
476.886	2175.28
477.096	1937.72
477.306	1993.01
477.515	2625.84
477.725	2156.85
477.935	2273.59
478.144	2758.96
478.354	2304.31
478.563	2173.24
478.773	2017.59
478.982	2664.75
479.192	2742.57
479.401	2328.88
479.611	2165.04
479.82	2300.21
480.03	2642.22
480.239	2185.52
480.449	2330.93
480.658	2959.66
480.868	2541.87
481.077	2468.14
481.287	2412.85
481.496	2783.53
481.705	2986.28
481.915	2849.07
482.124	2781.48
482.333	2787.63
482.543	3100.97
482.752	2896.17
482.961	2349.36
483.171	3184.93
483.38	2818.35
483.589	2986.28
483.799	2574.64
484.008	2937.13
484.217	3139.88
484.426	2799.91
484.636	2705.71
484.845	3236.13
485.054	2654.51
485.263	3060.01
485.472	2855.21
485.682	3502.37
485.891	3361.06
486.1	2828.59
486.309	2973.99
486.518	3516.7
486.727	3494.18
486.936	2887.98
487.146	3129.64
487.355	3668.25
487.564	3184.93
487.773	3133.73
487.982	3111.21
488.191	3430.69
488.4	3270.95
488.609	3313.95
488.818	3313.95
489.027	3989.78
489.236	3897.63
489.445	3440.93
489.654	3258.66
489.863	3911.96
490.072	3623.2
490.281	3836.19
490.49	3387.68
490.698	4055.32
490.907	4112.66
491.116	3492.13
491.325	3434.78
491.534	4151.57
491.743	3787.04
491.952	3723.55
492.16	3625.25
492.369	4065.56
492.578	4335.89
492.787	3684.64
492.996	3508.51
493.204	3909.91
493.413	4391.19
493.622	3565.85
493.831	3639.58
494.039	4335.89
494.248	3797.28
494.457	3723.55
494.665	3672.35
494.874	4249.88
495.083	4536.59
495.291	3946.78
495.5	3991.83
495.709	4346.13
495.917	4256.02
496.126	4063.51
496.335	3883.29
496.543	4233.49
496.752	4354.32
496.96	4325.65
497.169	3983.64
497.377	4358.42
497.586	4720.91
497.794	4114.71
498.003	3948.83
498.211	4374.8
498.42	4858.12
498.628	4243.73
498.837	4122.9
499.045	4618.51
499.254	4458.77
499.462	4335.89
499.671	4323.6
499.879	5040.39
500.087	4845.84
500.296	4188.44
500.504	4317.46
500.713	4772.11
500.921	5116.17
501.129	4243.73
501.338	4540.69
501.546	5026.06
501.754	4712.72
501.962	4380.95
502.171	4389.14
502.379	4985.1
502.587	5300.48
502.795	4620.56
503.004	4483.34
503.212	4763.92
503.42	5171.46
503.628	4950.28
503.837	4688.14
504.045	5214.47
504.253	5353.73
504.461	4638.99
504.669	4499.73
504.877	5441.79
505.085	5576.96
505.294	4735.25
505.502	4888.84
505.71	5185.8
505.918	5267.72
506.126	4776.2
506.334	4747.53
506.542	5222.66
506.75	5177.61
506.958	4974.86
507.166	5067.02
507.374	5200.13
507.582	5646.59
507.79	5128.46
507.998	4739.34
508.206	5349.64
508.414	5280
508.622	5026.06
508.83	4876.55
509.037	5677.31
509.245	5296.39
509.453	5237
509.661	5073.16
509.869	5626.11
510.077	5384.45
510.285	5284.1
510.492	4878.6
510.7	6107.38
510.908	5265.67
511.116	5277.96
511.324	5191.94
511.531	5400.83
511.739	5521.67
511.947	5284.1
512.155	5515.52
512.362	5503.23
512.57	5220.61
512.778	5028.1
512.985	5153.03
513.193	5902.59
513.401	5849.34
513.608	5263.62
513.816	5343.49
514.024	5886.2
514.231	6111.48
514.439	5413.12
514.646	5454.08
514.854	5886.2
515.061	5921.02
515.269	5482.75
515.477	5386.5
515.684	5593.34
515.892	6088.95
516.099	5290.24
516.307	5310.72
516.514	6101.24
516.722	6213.88
516.929	5642.5
517.136	5449.99
517.344	6023.42
517.551	6066.42
517.759	5570.82
517.966	5581.06
518.173	5832.96
518.381	5949.69
518.588	5652.74
518.796	5572.86
519.003	6056.18
519.21	6039.8
519.418	5875.96
519.625	6129.91
519.832	5978.36
520.039	6347
520.247	5632.26
520.454	5763.33
520.661	6238.45
520.868	6211.83
521.076	5957.88
521.283	5841.15
521.49	6912.24
521.697	6373.62
521.904	6084.86
522.112	6023.42
522.319	6523.12
522.526	6484.21
522.733	5867.77
522.94	5873.92
523.147	6336.76
523.354	6545.65
523.561	6181.11
523.768	6109.43
523.975	6766.83
524.183	6381.81
524.39	6289.65
524.597	5939.45
524.804	6678.77
525.011	6316.28
525.218	5968.12
525.425	6310.13
525.632	6656.24
525.838	6506.74
526.045	6322.42
526.252	6164.73
526.459	7848.16
526.666	7416.04
526.873	6396.15
527.08	6312.18
527.287	7071.98
527.494	6815.98
527.701	6279.41
527.907	6224.12
528.114	6811.89
528.321	6858.99
528.528	6557.94
528.735	6467.83
528.941	6678.77
529.148	6555.89
529.355	6484.21
529.562	6619.38
529.768	7293.16
529.975	6576.37
530.182	6523.12
530.388	6387.96
530.595	7147.75
530.802	6689.01
531.008	6854.89
531.215	6570.23
531.422	7706.85
531.628	7624.93
531.835	6695.15
532.042	6789.36
532.248	6949.1
532.455	7125.22
532.661	6715.63
532.868	6711.53
533.074	7114.98
533.281	7547.11
533.487	7031.02
533.694	6791.41
533.9	7047.4
534.107	7219.43
534.313	6918.38
534.52	6795.5
534.726	7672.03
534.933	7799.01
535.139	6969.58
535.345	6838.51
535.552	7428.32
535.758	7262.44
535.965	7049.45
536.171	6824.17
536.377	7631.07
536.584	7655.65
536.79	6895.85
536.996	7137.51
537.203	7444.71
537.409	7571.68
537.615	7110.89
537.821	7336.17
538.028	7710.94
538.234	7614.69
538.44	7325.93
538.646	7067.88
538.853	7669.98
539.059	7571.68
539.265	7725.28
539.471	7041.26
539.677	7739.62
539.883	7753.95
540.09	7276.77
540.296	7925.98
540.502	7719.14
540.708	7620.83
540.914	7575.78
541.12	7440.61
541.326	7774.43
541.532	7715.04
541.738	7606.5
541.944	7440.61
542.15	8095.96
542.356	7702.75
542.562	7590.11
542.768	7678.18
542.974	8341.72
543.18	8302.81
543.386	7583.97
543.592	7635.17
543.798	8405.21
544.004	8341.72
544.21	7626.98
544.415	7842.01
544.621	8143.07
544.827	8173.78
545.033	7678.18
545.239	7981.28
545.445	7850.21
545.651	8341.72
545.856	7921.88
546.062	8069.34
546.268	8165.59
546.474	8114.39
546.679	7911.64
546.885	7975.13
547.091	7956.7
547.297	8683.73
547.502	8071.39
547.708	7710.94
547.914	7940.32
548.119	8343.77
548.325	7715.04
548.531	7823.58
548.736	8786.13
548.942	8214.74
549.147	7928.03
549.353	8421.59
549.559	8894.67
549.764	8407.25
549.97	7917.79
550.175	7868.64
550.381	8624.34
550.586	8204.5
550.792	8134.87
550.997	7870.69
551.203	8558.8
551.408	8646.87
551.614	7958.75
551.819	8024.28
552.025	9048.27
552.23	9007.31
552.435	8194.26
552.641	8511.7
552.846	8362.2
553.052	8982.73
553.257	8489.17
553.462	8294.61
553.668	8610
553.873	8947.92
554.078	8335.57
554.283	8364.25
554.489	8747.22
554.694	8915.15
554.899	8362.2
555.105	8620.24
555.31	8880.33
555.515	9048.27
555.72	8704.21
555.925	8456.4
556.131	9095.37
556.336	8718.54
556.541	8636.63
556.746	8513.75
556.951	9165
557.156	9349.32
557.361	8806.61
557.567	8761.55
557.772	9558.21
557.977	9023.69
558.182	8675.54
558.387	8675.54
558.592	9054.41
558.797	9470.15
559.002	8577.23
559.207	8849.61
559.412	8876.24
559.617	9390.28
559.822	8646.87
560.027	8687.82
560.232	9132.23
560.437	9435.33
560.642	8507.6
560.847	8843.47
561.051	9156.81
561.256	9154.76
561.461	8784.08
561.666	8786.13
561.871	9363.65
562.076	9410.76
562.281	8962.25
562.485	8745.17
562.69	9601.22
562.895	9451.72
563.1	9040.08
563.305	8906.96
563.509	9519.3
563.714	9916.61
563.919	9021.64
564.123	8923.34
564.328	9349.32
564.533	9689.28
564.737	8931.53
564.942	9011.4
565.147	9818.3
565.351	9767.1
565.556	9056.46
565.761	9255.11
565.965	9398.47
566.17	9140.43
566.374	8882.38
566.579	8956.11
566.784	9373.89
566.988	9353.41
567.193	8915.15
567.397	9144.52
567.602	9242.82
567.806	9408.71
568.011	9144.52
568.215	9246.92
568.42	9291.98
568.624	9418.95
568.828	9091.27
569.033	9179.34
569.237	9765.06
569.442	9803.97
569.646	9081.03
569.85	9427.14
570.055	9631.94
570.259	9691.33
570.463	9609.41
570.668	9388.23
570.872	9515.2
571.076	9451.72
571.281	9441.48
571.485	9263.3
571.689	9717.95
571.893	9832.64
572.098	9472.2
572.302	9474.24
572.506	9873.6
572.71	9816.26
572.914	9547.97
573.119	9382.09
573.323	10078.4
573.527	10168.51
573.731	9767.1
573.935	9486.53
574.139	10135.74
574.343	9545.92
574.547	9736.38
574.751	9537.73
574.955	10000.57
575.159	10272.95
575.364	9765.06
575.568	9529.54
575.772	9846.98
575.976	10158.27
576.18	9750.72
576.383	9537.73
576.587	10141.88
576.791	10172.6
576.995	9705.67
577.199	9586.88
577.403	10029.24
577.607	10555.57
577.811	9515.2
578.015	9955.52
578.219	10283.19
578.422	10420.41
578.626	9853.12
578.83	10148.03
579.034	10543.28
579.238	10361.02
579.442	9633.99
579.645	10170.55
579.849	10186.94
580.053	10268.86
580.257	9914.56
580.46	10199.23
580.664	10453.17
580.868	10307.77
581.071	10184.89
581.275	10045.63
581.479	10068.16
581.682	10332.34
581.886	9793.73
582.09	10223.8
582.293	10555.57
582.497	10639.54
582.7	10195.13
582.904	9943.23
583.107	10393.78
583.311	10436.79
583.515	10270.9
583.718	10254.52
583.922	10610.87
584.125	11133.1
584.329	10111.16
584.532	10270.9
584.735	10897.58
584.939	10574
585.142	10170.55
585.346	10334.39
585.549	10703.03
585.753	10399.93
585.956	10326.2
586.159	10340.54
586.363	11126.96
586.566	10743.99
586.769	10320.06
586.973	10428.6
587.176	10891.44
587.379	11110.57
587.582	10700.98
587.786	10619.06
587.989	10762.42
588.192	11360.42
588.395	10420.41
588.599	10731.7
588.802	10830
589.005	10891.44
589.208	10682.55
589.411	10506.42
589.615	10864.82
589.818	11129
590.021	11045.04
590.224	10606.77
590.427	11079.85
590.63	11212.97
590.833	10393.78
591.036	10565.81
591.239	10848.43
591.442	11040.94
591.645	10981.55
591.848	10754.23
592.051	10948.78
592.254	11307.18
592.457	10778.8
592.66	10823.86
592.863	11030.7
593.066	11292.84
593.269	10926.25
593.472	10991.79
593.675	11059.37
593.878	11315.37
594.081	10881.2
594.284	10655.92
594.486	11362.47
594.689	11118.76
594.892	10631.35
595.095	11172.01
595.298	11182.25
595.5	11243.69
595.703	11198.63
595.906	11081.9
596.109	11501.73
596.311	11458.73
596.514	10694.83
596.717	11270.31
596.92	11712.67
597.122	11483.3
597.325	10868.91
597.528	10913.97
597.73	11853.98
597.933	11468.97
598.136	11036.84
598.338	11088.04
598.541	11649.19
598.743	11985.05
598.946	10911.92
599.148	11278.51
599.351	11618.47
599.554	11735.2
599.756	11172.01
599.959	11419.82
600.161	11833.5
600.363	12214.43
600.566	11425.96
600.768	11360.42
600.971	11978.91
601.173	11665.57
601.376	11436.2
601.578	11358.38
601.78	12001.44
601.983	12343.45
602.185	11348.14
602.388	11733.15
602.59	11810.98
602.792	11458.73
602.995	11479.21
603.197	11276.46
603.399	12128.41
603.601	11872.42
603.804	11724.96
604.006	11366.57
604.208	11518.12
604.41	11255.98
604.613	11636.9
604.815	11419.82
605.017	12312.73
605.219	11536.55
605.421	11794.59
605.623	11550.89
605.826	12376.22
606.028	11944.1
606.23	11712.67
606.432	11419.82
606.634	12435.61
606.836	12062.88
607.038	11380.9
607.24	11782.31
607.442	11866.27
607.644	11841.7
607.846	11505.83
608.048	11501.73
608.25	11962.53
608.452	11817.12
608.654	11817.12
608.856	11298.98
609.058	11720.87
609.26	12081.31
609.462	11823.26
609.664	11579.56
609.866	12370.07
610.067	12445.85
610.269	11540.65
610.471	11495.59
610.673	11843.74
610.875	12279.96
611.077	11468.97
611.278	11587.75
611.48	11991.2
611.682	12384.41
611.884	11815.07
612.085	11573.41
612.287	11993.25
612.489	12060.83
612.69	11587.75
612.892	11901.09
613.094	12314.78
613.295	12087.45
613.497	11856.03
613.699	11675.81
613.9	12515.48
614.102	12181.66
614.304	11636.9
614.505	11491.49
614.707	11851.94
614.908	12005.53
615.11	11358.38
615.311	11692.19
615.513	12245.15
615.714	12284.06
615.916	11749.54
616.117	11950.24
616.319	12128.41
616.52	12286.11
616.722	11741.35
616.923	11688.1
617.124	12282.01
617.326	12073.12
617.527	12017.82
617.729	12073.12
617.93	12204.19
618.131	12380.31
618.333	11841.7
618.534	11905.18
618.735	11868.32
618.937	12525.72
619.138	11466.92
619.339	11618.47
619.54	12302.49
619.742	12152.99
619.943	11962.53
620.144	11989.15
620.345	12482.71
620.546	12341.4
620.748	12003.49
620.949	11821.22
621.15	12173.47
621.351	12316.83
621.552	11790.5
621.753	11798.69
621.954	11647.14
622.155	12603.54
622.356	11690.15
622.558	12116.12
622.759	12097.69
622.96	12384.41
623.161	11970.72
623.362	12042.4
623.563	12253.34
623.764	12222.62
623.965	12171.42
624.166	12275.87
624.366	12134.56
624.567	12202.14
624.768	11751.59
624.969	11956.38
625.17	12064.93
625.371	12357.78
625.572	11964.57
625.773	11665.57
625.973	12593.3
626.174	12550.29
626.375	12144.8
626.576	11909.28
626.777	12374.17
626.977	12734.61
627.178	12220.57
627.379	12331.16
627.58	12214.43
627.78	12288.15
627.981	12036.25
628.182	12011.68
628.382	12241.05
628.583	11954.33
628.784	12218.52
628.984	12236.95
629.185	12755.09
629.386	12568.73
629.586	12212.38
629.787	12013.73
629.987	12646.55
630.188	12566.68
630.388	11978.91
630.589	12286.11
630.79	12794
630.99	12384.41
631.191	12193.95
631.391	12501.14
631.591	12636.31
631.792	12716.18
631.992	12173.47
632.193	12279.96
632.393	12914.83
632.594	12384.41
632.794	12109.98
632.994	12421.27
633.195	12654.74
633.395	12480.66
633.595	12183.71
633.796	12445.85
633.996	12572.82
634.196	12691.6
634.397	12216.47
634.597	12445.85
634.797	12368.02
634.997	13080.72
635.198	12585.11
635.398	12122.27
635.598	12621.97
635.798	13017.23
635.998	12576.92
636.199	12212.38
636.399	12304.54
636.599	12298.39
636.799	12206.24
636.999	12687.51
637.199	12576.92
637.399	12853.39
637.599	12464.28
637.799	12294.3
637.999	12411.03
638.199	12775.57
638.399	12290.2
638.599	12480.66
638.799	12707.99
638.999	13113.49
639.199	12662.93
639.399	12384.41
639.599	13226.12
639.799	12636.31
639.999	12224.67
640.199	12234.91
640.399	12894.35
640.599	12552.34
640.799	12550.29
640.998	12726.42
641.198	13064.33
641.398	12841.11
641.598	12638.36
641.798	12779.67
641.997	13750.4
642.197	12728.47
642.397	12515.48
642.597	12404.89
642.796	12988.56
642.996	12920.98
643.196	12495
643.395	12292.25
643.595	12800.15
643.795	12363.93
643.994	12413.08
644.194	12632.21
644.394	13340.81
644.593	12916.88
644.793	12343.45
644.992	12634.26
645.192	13117.58
645.392	12456.09
645.591	12855.44
645.791	12642.45
645.99	13058.19
646.19	12822.67
646.389	12781.71
646.589	12634.26
646.788	13062.29
646.987	13209.74
647.187	12949.65
647.386	12935.31
647.586	12904.59
647.785	13265.03
647.984	13121.68
648.184	12992.66
648.383	12812.43
648.582	12877.97
648.782	12949.65
648.981	13064.33
649.18	12900.5
649.38	13031.57
649.579	12742.8
649.778	12865.68
649.977	13322.38
650.177	13119.63
650.376	12675.22
650.575	12638.36
650.774	13387.91
650.973	12888.21
651.173	12308.63
651.372	12890.26
651.571	13107.34
651.77	13127.82
651.969	12867.73
652.168	13023.37
652.367	12830.87
652.566	13207.69
652.765	12998.8
652.964	13183.12
653.163	13416.58
653.362	13031.57
653.561	12802.19
653.76	12935.31
653.959	12963.98
654.158	13457.54
654.357	13160.59
654.556	12767.38
654.755	13367.43
654.954	13371.53
655.153	12867.73
655.352	13101.2
655.551	13486.22
655.749	12896.4
655.948	12789.91
656.147	13062.29
656.346	13232.27
656.545	13314.19
656.743	13314.19
656.942	12880.02
657.141	13301.9
657.34	13262.99
657.538	12734.61
657.737	13060.24
657.936	13236.36
658.135	13291.66
658.333	12974.22
658.532	13031.57
658.731	13652.1
658.929	13715.59
659.128	13334.67
659.326	12923.02
659.525	13807.75
659.724	13252.75
659.922	12818.58
660.121	13138.06
660.319	13381.77
660.518	12990.61
660.716	13281.42
660.915	13228.17
661.113	13908.1
661.312	13150.35
661.51	13045.9
661.709	12681.36
661.907	13494.41
662.105	13826.18
662.304	13222.03
662.502	13334.67
662.701	13721.73
662.899	13234.32
663.097	13291.66
663.296	12734.61
663.494	13635.72
663.692	13820.03
663.891	13080.72
664.089	12880.02
664.287	13531.27
664.485	13496.46
664.684	13117.58
664.882	13240.46
665.08	13289.61
665.278	13254.8
665.476	12900.5
665.675	13426.82
665.873	13869.19
666.071	13435.02
666.269	12974.22
666.467	13062.29
666.665	13154.44
666.863	13136.01
667.061	13021.33
667.259	13140.11
667.457	13514.89
667.655	13394.06
667.853	12849.3
668.051	13138.06
668.249	13189.26
668.447	13555.85
668.645	12978.32
668.843	13207.69
669.041	13500.55
669.239	13101.2
669.437	13121.68
669.635	13293.71
669.833	12998.8
670.031	13258.89
670.229	13054.09
670.426	13291.66
670.624	13422.73
670.822	13158.54
671.02	12908.69
671.218	13023.37
671.415	12980.37
671.613	13330.57
671.811	13179.02
672.009	13172.88
672.206	13363.34
672.404	13432.97
672.602	13240.46
672.799	13213.84
672.997	13463.69
673.195	13781.12
673.392	13369.48
673.59	12818.58
673.788	13439.11
673.985	12621.97
674.183	13312.14
674.38	13037.71
674.578	13461.64
674.775	12880.02
674.973	12918.93
675.17	12847.25
675.368	13392.01
675.565	13158.54
675.763	12865.68
675.96	12763.28
676.158	13359.24
676.355	12908.69
676.553	12968.08
676.75	12937.36
676.947	13146.25
677.145	12925.07
677.342	13058.19
677.539	13086.86
677.737	13400.2
677.934	13719.68
678.131	13203.6
678.329	12834.96
678.526	13609.09
678.723	13467.78
678.92	13256.84
679.118	12929.17
679.315	13093.01
679.512	13586.57
679.709	12853.39
679.906	12912.78
680.104	13197.45
680.301	12900.5
680.498	12822.67
680.695	12789.91
680.892	12707.99
681.089	13099.15
681.286	13002.89
681.483	12396.7
681.68	13076.62
681.877	13242.51
682.075	12916.88
682.272	13045.9
682.469	13050
682.665	13125.77
682.862	12644.5
683.059	12431.51
683.256	12789.91
683.453	13011.09
683.65	12763.28
683.847	12802.19
684.044	12763.28
684.241	12552.34
684.438	13013.13
684.635	12495
684.831	13219.98
685.028	13475.98
685.225	12916.88
685.422	12779.67
685.619	12912.78
685.815	13222.03
686.012	12980.37
686.209	12601.49
686.405	12722.32
686.602	13232.27
686.799	12533.91
686.996	12595.35
687.192	12783.76
687.389	13518.98
687.586	12613.78
687.782	12675.22
687.979	13324.43
688.175	13043.85
688.372	12855.44
688.568	12722.32
688.765	12937.36
688.962	13160.59
689.158	12658.84
689.355	12535.96
689.551	12970.13
689.748	12634.26
689.944	12638.36
690.14	12578.97
690.337	12888.21
690.533	12783.76
690.73	12472.47
690.926	12531.86
691.123	12910.74
691.319	12740.75
691.515	12396.7
691.712	12613.78
691.908	12808.34
692.104	12798.1
692.301	12456.09
692.497	12466.33
692.693	12877.97
692.889	12998.8
693.086	12607.64
693.282	12341.4
693.478	12855.44
693.674	12933.26
693.87	12501.14
694.067	12525.72
694.263	12791.95
694.459	12660.88
694.655	12689.56
694.851	12628.12
695.047	12750.99
695.243	12705.94
695.439	12652.69
695.635	12417.18
695.831	12857.49
696.027	12474.52
696.224	12062.88
696.42	12851.35
696.615	12732.56
696.811	12744.85
697.007	12277.91
697.203	12386.46
697.399	12572.82
697.595	12896.4
697.791	12179.61
697.987	12374.17
698.183	12404.89
698.379	12351.64
698.575	12439.7
698.77	12415.13
698.966	12679.32
699.162	12861.59
699.358	12232.86
699.554	12345.5
699.749	12660.88
699.945	12501.14
700.141	12236.95
700.337	12228.76
700.532	12374.17
700.728	12357.78
700.924	12023.97
701.119	11987.1
701.315	12470.42
701.511	12200.09
701.706	12300.44
701.902	11954.33
702.097	12327.07
702.293	12796.05
702.489	12181.66
702.684	12339.35
702.88	12302.49
703.075	12480.66
703.271	12064.93
703.466	11972.77
703.662	12290.2
703.857	12771.47
704.053	11868.32
704.248	12308.63
704.443	12583.06
704.639	12521.62
704.834	12054.69
705.03	11997.34
705.225	12576.92
705.42	12564.63
705.616	12142.75
705.811	12077.21
706.006	12286.11
706.202	12210.33
706.397	12064.93
706.592	12046.49
706.787	12185.76
706.983	12408.98
707.178	12091.55
707.373	12023.97
707.568	12519.57
707.763	12406.94
707.959	11997.34
708.154	12122.27
708.349	12048.54
708.544	12415.13
708.739	12058.78
708.934	11987.1
709.129	12529.81
709.324	12492.95
709.519	11749.54
709.714	12032.16
709.909	12437.66
710.104	12312.73
710.299	12255.39
710.494	12093.6
710.689	12273.82
710.884	12490.9
711.079	12202.14
711.274	12216.47
711.469	12335.26
711.664	12198.04
711.859	11987.1
712.054	12181.66
712.249	12064.93
712.443	12269.72
712.638	11808.93
712.833	11759.78
713.028	12152.99
713.223	12077.21
713.417	12126.36
713.612	11827.36
713.807	12456.09
714.002	12683.41
714.196	12091.55
714.391	11688.1
714.586	12318.87
714.78	11743.39
714.975	11806.88
715.17	11698.34
715.364	11948.19
715.559	12488.85
715.754	11655.33
715.948	11589.8
716.143	12134.56
716.337	12069.02
716.532	12116.12
716.726	11716.77
716.921	12220.57
717.115	12343.45
717.31	11616.42
717.504	12210.33
717.699	12212.38
717.893	12271.77
718.088	11624.61
718.282	11610.28
718.476	12050.59
718.671	11851.94
718.865	11495.59
719.059	11647.14
719.254	11696.29
719.448	12128.41
719.642	12953.74
719.837	11309.22
720.031	11972.77
720.225	11964.57
720.419	11647.14
720.614	11430.05
720.808	11956.38
721.002	11800.74
721.196	11292.84
721.39	11718.82
721.585	12126.36
721.779	11837.6
721.973	11589.8
722.167	11298.98
722.361	11968.67
722.555	12083.36
722.749	11495.59
722.943	11172.01
723.137	11393.19
723.331	11634.85
723.525	11358.38
723.719	11417.77
723.913	11944.1
724.107	12320.92
724.301	11442.34
724.495	11546.79
724.689	12183.71
724.883	11892.9
725.077	11329.7
725.271	11350.18
725.465	11743.39
725.659	11534.5
725.853	11368.62
726.046	11290.79
726.24	11497.64
726.434	11825.31
726.628	11327.66
726.822	11161.77
727.015	12042.4
727.209	11737.25
727.403	11194.54
727.596	11069.61
727.79	11827.36
727.984	11792.55
728.177	11438.25
728.371	11575.46
728.565	11524.26
728.758	11372.71
728.952	11374.76
729.146	11409.58
729.339	11888.8
729.533	11550.89
729.726	11434.15
729.92	11102.38
730.113	12126.36
730.307	11737.25
730.5	11266.22
730.694	11301.03
730.887	11448.49
731.081	11763.87
731.274	11438.25
731.468	11376.81
731.661	11430.05
731.854	11460.77
732.048	11557.03
732.241	11403.43
732.435	11399.34
732.628	11712.67
732.821	11618.47
733.014	11327.66
733.208	11339.94
733.401	11782.31
733.594	11430.05
733.788	11425.96
733.981	11823.26
734.174	11907.23
734.367	11245.74
734.56	11382.95
734.754	11569.32
734.947	11413.67
735.14	11278.51
735.333	11382.95
735.526	11774.11
735.719	11215.02
735.912	10979.5
736.105	11153.58
736.298	11561.12
736.491	11428.01
736.684	11331.75
736.877	10979.5
737.07	11393.19
737.263	11870.37
737.456	11311.27
737.649	11120.81
737.842	11403.43
738.035	11354.28
738.228	11067.56
738.421	11376.81
738.614	11856.03
738.807	11716.77
739	11219.11
739.192	11178.15
739.385	11460.77
739.578	11690.15
739.771	11385
739.964	11186.35
740.156	11583.65
740.349	11307.18
740.542	11518.12
740.735	10999.98
740.927	11063.47
741.12	11290.79
741.313	11045.04
741.505	11493.54
741.698	11550.89
741.891	11557.03
742.083	11247.79
742.276	11153.58
742.468	11387.05
742.661	11360.42
742.854	11020.46
743.046	10926.25
743.239	11786.4
743.431	11114.67
743.624	10879.15
743.816	10778.8
744.009	11335.85
744.201	11372.71
744.393	11294.89
744.586	11036.84
744.778	11747.49
744.971	11129
745.163	11208.87
745.355	11036.84
745.548	11221.16
745.74	11137.2
745.932	11112.62
746.125	11028.65
746.317	11944.1
746.509	11176.11
746.702	10987.69
746.894	11028.65
747.086	11425.96
747.278	11552.93
747.471	11167.91
747.663	10903.73
747.855	11215.02
748.047	11509.93
748.239	10971.31
748.431	10766.51
748.623	11593.89
748.815	11382.95
749.008	10799.28
749.2	10813.62
749.392	11364.52
749.584	11301.03
749.776	10932.4
749.968	11163.82
750.16	11700.39
750.352	11247.79
750.544	11024.56
750.736	10975.41
750.928	11499.69
751.12	11096.24
751.311	10770.61
751.503	10956.97
751.695	11047.08
751.887	11061.42
752.079	10807.47
752.271	10993.84
752.463	11968.67
752.654	11106.48
752.846	11051.18
753.038	10836.14
753.23	10997.93
753.421	11266.22
753.613	10977.45
753.805	11045.04
753.997	11282.6
754.188	11335.85
754.38	10651.83
754.572	10528.95
754.763	11071.66
754.955	10981.55
755.146	10612.92
755.338	10858.67
755.53	11069.61
755.721	10858.67
755.913	10412.21
756.104	10545.33
756.296	10868.91
756.487	11053.23
756.679	10578.1
756.87	10455.22
757.062	10791.09
757.253	11049.13
757.445	10711.22
757.636	10715.31
757.827	10735.79
758.019	11479.21
758.21	10465.46
758.401	10369.21
758.593	11356.33
758.784	11055.28
758.975	10258.62
759.167	10299.58
759.358	10709.17
759.549	11057.32
759.74	10361.02
759.932	10186.94
760.123	11036.84
760.314	10496.18
760.505	10594.48
760.696	10430.65
760.888	11042.99
761.079	10561.72
761.27	10145.98
761.461	10131.64
761.652	11065.52
761.843	10520.76
762.034	10260.66
762.225	10471.61
762.416	10610.87
762.607	10457.27
762.798	10238.14
762.989	10211.51
763.18	11405.48
763.371	10387.64
763.562	10170.55
763.753	10170.55
763.944	10766.51
764.135	10725.55
764.326	10322.1
764.517	10246.33
764.708	10559.67
764.899	10414.26
765.089	9955.52
765.28	10006.72
765.471	10367.16
765.662	10432.69
765.853	10031.29
766.043	9877.69
766.234	10604.72
766.425	10580.15
766.615	10121.4
766.806	10053.82
766.997	10692.79
767.187	10401.97
767.378	9859.26
767.569	9906.37
767.759	10377.4
767.95	10442.93
768.141	10025.15
768.331	9873.6
768.522	10201.27
768.712	10379.45
768.903	9963.71
769.093	9746.62
769.284	10635.44
769.474	10086.59
769.665	9439.43
769.855	9646.27
770.046	10418.36
770.236	9922.75
770.426	9906.37
770.617	9586.88
770.807	10023.1
770.998	10105.02
771.188	9865.41
771.378	9543.88
771.569	10090.68
771.759	10074.3
771.949	9232.58
772.139	9531.59
772.33	9775.3
772.52	10348.73
772.71	9564.36
772.9	9543.88
773.09	10193.08
773.281	10211.51
773.471	9537.73
773.661	9638.08
773.851	9844.93
774.041	9603.27
774.231	9472.2
774.421	9564.36
774.611	10033.34
774.802	9650.37
774.992	9502.92
775.182	9396.42
775.372	9603.27
775.562	10086.59
775.752	9365.7
775.942	9343.17
776.131	10080.44
776.321	9978.05
776.511	9468.1
776.701	9402.57
776.891	9849.02
777.081	9476.29
777.271	9242.82
777.461	9251.02
777.651	9855.17
777.84	9941.18
778.03	9593.03
778.22	9214.15
778.41	9932.99
778.599	9533.64
778.789	9261.26
778.979	9304.26
779.169	9801.92
779.358	9619.65
779.548	9550.02
779.738	9162.95
779.927	9795.78
780.117	9181.39
780.307	9148.62
780.496	8810.7
780.686	9541.83
780.875	9976
781.065	9056.46
781.254	9054.41
781.444	9132.23
781.633	9332.93
781.823	9015.5
782.012	9033.93
782.202	9009.36
782.391	9310.41
782.581	8872.14
782.77	9048.27
782.96	9523.4
783.149	9218.25
783.338	8739.02
783.528	8966.35
783.717	9566.4
783.906	9517.25
784.096	9025.74
784.285	8962.25
784.474	9003.21
784.663	9007.31
784.853	8763.6
785.042	8741.07
785.231	9169.1
785.42	9537.73
785.61	9050.32
785.799	8798.42
785.988	8876.24
786.177	8972.49
786.366	8956.11
786.555	9013.45
786.744	9355.46
786.933	9195.72
787.122	8986.83
787.312	8800.46
787.501	8906.96
787.69	9185.48
787.879	8808.65
788.068	8759.5
788.257	8677.58
788.445	8718.54
788.634	8841.42
788.823	8704.21
789.012	9570.5
789.201	9339.08
789.39	8816.85
789.579	8530.13
789.768	8886.48
789.957	8861.9
790.145	8501.46
790.334	8327.38
790.523	8759.5
790.712	8603.86
790.9	8704.21
791.089	8220.89
791.278	8937.68
791.467	9001.16
791.655	8566.99
791.844	8904.91
792.033	8517.84
792.221	8800.46
792.41	8470.74
792.599	8177.88
792.787	8952.01
792.976	9281.74
793.164	8253.66
793.353	8593.62
793.541	9015.5
793.73	8880.33
793.918	8499.41
794.107	8564.95
794.295	8628.43
794.484	8751.31
794.672	8366.29
794.861	8194.26
795.049	8771.79
795.238	9099.47
795.426	8231.13
795.614	8335.57
795.803	8710.35
795.991	8997.07
796.179	8347.86
796.368	8274.14
796.556	8763.6
796.744	8448.21
796.932	8255.7
797.121	8087.77
797.309	8587.47
797.497	8788.18
797.685	8489.17
797.874	8259.8
798.062	8317.14
798.25	8958.16
798.438	8222.94
798.626	8143.07
798.814	8759.5
799.002	9210.06
799.19	8450.26
799.378	8280.28
799.566	8810.7
799.755	8693.97
799.943	8337.62
800.131	8251.61
800.318	8505.56
800.506	8657.11
800.694	8130.78
800.882	8304.85
801.07	8700.11
801.258	8605.91
801.446	8224.98
801.634	8302.81
801.822	8413.4
802.01	8507.6
802.197	8253.66
802.385	8151.26
802.573	8415.44
802.761	8364.25
802.949	8509.65
803.136	8179.93
803.324	8755.41
803.512	8657.11
803.699	8263.9
803.887	7966.94
804.075	8923.34
804.262	8366.29
804.45	8374.49
804.638	8431.83
804.825	8341.72
805.013	8362.2
805.201	8308.95
805.388	8104.15
805.576	8634.58
805.763	8915.15
805.951	8362.2
806.138	8276.18
806.326	9005.26
806.513	8569.04
806.701	8243.42
806.888	8323.29
807.075	8659.15
807.263	9003.21
807.45	8317.14
807.638	8614.1
807.825	9078.99
808.012	8866
808.2	8474.84
808.387	8646.87
808.574	8718.54
808.761	8974.54
808.949	8370.39
809.136	8458.45
809.323	8689.87
809.51	8444.12
809.698	8599.76
809.885	8491.22
810.072	8921.29
810.259	9083.08
810.446	8534.23
810.633	8288.47
810.82	9021.64
811.008	8937.68
811.195	8642.77
811.382	8601.81
811.569	8773.84
811.756	8241.37
811.943	8507.6
812.13	8480.98
812.317	8659.15
812.504	8624.34
812.691	8638.67
812.878	8458.45
813.064	9136.33
813.251	8689.87
813.438	8237.27
813.625	8616.15
813.812	8792.27
813.999	8833.23
814.186	8636.63
814.372	8362.2
814.559	8878.29
814.746	9021.64
814.933	8286.42
815.12	8630.48
815.306	8409.3
815.493	8566.99
815.68	8485.08
815.866	8354.01
816.053	8786.13
816.24	9093.32
816.426	8681.68
816.613	8286.42
816.799	9046.22
816.986	9142.47
817.173	8190.17
817.359	8325.33
817.546	8607.95
817.732	8378.58
817.919	8261.85
818.105	8571.09
818.292	8550.61
818.478	8814.8
818.665	8554.71
818.851	8521.94
819.037	9031.88
819.224	8585.43
819.41	8188.12
819.597	8071.39
819.783	9121.99
819.969	8601.81
820.156	8349.91
820.342	8470.74
820.528	9552.07
820.714	8544.47
820.901	8628.43
821.087	8313.05
821.273	8939.72
821.459	8421.59
821.646	8306.9
821.832	8173.78
822.018	8548.56
822.204	8313.05
822.39	8267.99
822.576	8112.35
822.762	8726.74
822.948	8577.23
823.134	8331.48
823.32	8098.01
823.507	8093.91
823.693	8374.49
823.879	8534.23
824.065	8028.38
824.25	8485.08
824.436	8181.98
824.622	7837.92
824.808	8132.83
824.994	8364.25
825.18	8190.17
825.366	8093.91
825.552	8173.78
825.738	8440.02
825.923	8704.21
826.109	8212.7
826.295	8093.91
826.481	8155.35
826.667	8255.7
826.852	8339.67
827.038	7944.41
827.224	8571.09
827.409	8630.48
827.595	7729.38
827.781	8343.77
827.966	8485.08
828.152	8466.64
828.338	7907.55
828.523	7743.71
828.709	8012
828.894	8523.99
829.08	7891.16
829.266	7979.23
829.451	7975.13
829.637	8267.99
829.822	7932.12
830.008	7987.42
830.193	8480.98
830.378	8401.11
830.564	7817.44
830.749	7835.87
830.935	8413.4
831.12	8251.61
831.305	7940.32
831.491	7876.83
831.676	7803.1
831.861	8458.45
832.047	8075.48
832.232	7704.8
832.417	8366.29
832.602	8071.39
832.788	7653.6
832.973	7782.62
833.158	7960.8
833.343	8001.76
833.528	7932.12
833.714	7866.59
833.899	8173.78
834.084	8534.23
834.269	7833.82
834.454	7854.3
834.639	8141.02
834.824	7981.28
835.009	7878.88
835.194	7897.31
835.379	8255.7
835.564	8460.5
835.749	7852.25
835.934	7735.52
836.119	8143.07
836.304	7907.55
836.489	7712.99
836.674	7852.25
836.859	7831.77
837.044	8306.9
837.228	7672.03
837.413	7624.93
837.598	8063.19
837.783	8157.4
837.968	7667.94
838.152	7403.75
838.337	7303.4
838.522	7985.37
838.707	8120.54
838.891	7835.87
839.076	7600.35
839.261	7874.78
839.445	7532.77
839.63	7590.11
839.815	8282.33
839.999	7790.81
840.184	7356.65
840.368	7624.93
840.553	7792.86
840.737	7940.32
840.922	7287.01
841.106	7250.15
841.291	7440.61
841.475	7502.05
841.66	7366.88
841.844	7287.01
842.029	8247.51
842.213	7389.41
842.397	7327.97
842.582	7313.64
842.766	7958.75
842.951	7758.05
843.135	7250.15
843.319	7170.28
843.504	7526.63
843.688	7680.22
843.872	6983.91
844.056	7192.81
844.241	7823.58
844.425	7313.64
844.609	7461.09
844.793	6926.57
844.977	7645.41
845.161	7561.44
845.346	7106.79
845.53	7258.34
845.714	7512.29
845.898	7729.38
846.082	6928.62
846.266	7166.18
846.45	7485.67
846.634	7586.02
846.818	7352.55
847.002	7313.64
847.186	7641.31
847.37	7104.74
847.554	7047.4
847.738	7110.89
847.922	7340.26
848.106	7631.07
848.29	7010.54
848.473	7037.16
848.657	7497.95
848.841	7178.47
849.025	7016.68
849.209	6777.07
849.392	7420.13
849.576	7055.59
849.76	6738.16
849.944	7219.43
850.127	7473.38
850.311	7041.26
850.495	6885.61
850.678	6715.63
850.862	7385.32
851.046	7596.26
851.229	7338.21
851.413	6684.91
851.596	7176.42
851.78	7035.11
851.964	6869.23
852.147	6684.91
852.331	7991.52
852.514	7387.36
852.698	6973.67
852.881	6689.01
853.065	7270.63
853.248	7084.27
853.431	6983.91
853.615	6912.24
853.798	7583.97
853.982	7045.35
854.165	6906.09
854.348	6820.08
854.532	6842.6
854.715	6807.79
854.898	6760.69
855.081	6686.96
855.265	7327.97
855.448	7362.79
855.631	6609.14
855.814	6547.7
855.997	7350.5
856.181	6902
856.364	6602.99
856.547	6416.63
856.73	6904.04
856.913	6904.04
857.096	6555.89
857.279	6656.24
857.462	6738.16
857.645	6924.52
857.828	6801.65
858.011	6658.29
858.194	6605.04
858.377	6689.01
858.56	6465.78
858.743	6557.94
858.926	6637.81
859.109	6883.56
859.292	6308.09
859.475	6228.21
859.658	7125.22
859.841	6877.42
860.023	6279.41
860.206	6164.73
860.389	6709.49
860.572	7051.5
860.755	6289.65
860.937	6484.21
861.12	6783.21
861.303	6691.06
861.486	6318.32
861.668	6553.84
861.851	6768.88
862.034	6660.34
862.216	6482.16
862.399	6127.86
862.581	6740.21
862.764	6965.48
862.947	6363.38
863.129	6357.24
863.312	6224.12
863.494	6906.09
863.677	6555.89
863.859	5998.84
864.042	6500.59
864.224	6877.42
864.406	6220.02
864.589	5972.22
864.771	6539.51
864.954	6021.37
865.136	6095.1
865.318	5996.79
865.501	6459.63
865.683	6115.58
865.865	6142.2
866.048	6072.57
866.23	6387.96
866.412	6473.97
866.594	6138.1
866.777	6303.99
866.959	6715.63
867.141	6215.93
867.323	6306.04
867.505	6318.32
867.687	6371.57
867.869	6342.9
868.052	6197.49
868.234	6050.04
868.416	6392.05
868.598	6551.79
868.78	6043.9
868.962	6004.99
869.144	6582.51
869.326	6486.26
869.508	5892.35
869.69	5818.62
869.872	5880.06
870.054	6504.69
870.236	5771.52
870.417	6002.94
870.599	6146.3
870.781	6359.28
870.963	6113.53
871.145	5923.07
871.327	5984.51
871.508	6197.49
871.69	5996.79
871.872	5998.84
872.054	6271.22
872.235	6471.92
872.417	5986.55
872.599	5681.41
872.78	6693.1
872.962	6123.77
873.144	5878.01
873.325	5970.17
873.507	6670.58
873.689	6039.8
873.87	5718.27
874.052	5892.35
874.233	6017.27
874.415	6490.35
874.596	6019.32
874.778	5849.34
874.959	6078.71
875.141	6484.21
875.322	5622.02
875.503	5781.76
875.685	6312.18
875.866	5798.14
876.048	5753.09
876.229	5681.41
876.41	5998.84
876.592	6234.36
876.773	5863.68
876.954	5845.24
877.136	6408.44
877.317	6107.38
877.498	5785.85
877.679	5806.33
877.86	6295.8
878.042	5859.58
878.223	5875.96
878.404	6244.6
878.585	6293.75
878.766	6490.35
878.947	6066.42
879.128	5957.88
879.309	6308.09
879.49	6621.42
879.672	6017.27
879.853	6002.94
880.034	6021.37
880.215	5959.93
880.396	6002.94
880.576	5804.28
880.757	6000.89
880.938	6607.09
881.119	5884.16
881.3	6056.18
881.481	6105.34
881.662	7157.99
881.843	5974.27
882.023	5843.2
882.204	6228.21
882.385	6340.85
882.566	5935.35
882.747	5703.93
882.927	6217.97
883.108	6396.15
883.289	5810.43
883.469	6220.02
883.65	6189.3
883.831	6375.67
884.011	6166.78
884.192	6177.02
884.373	6592.75
884.553	6510.83
884.734	6420.72
884.914	6424.82
885.095	7284.97
885.275	6852.84
885.456	6568.18
885.636	6015.23
885.817	6492.4
885.997	6490.35
886.178	6107.38
886.358	6189.3
886.538	6373.62
886.719	7409.89
886.899	6183.16
887.08	6267.13
887.26	6744.3
887.44	6363.38
887.621	6201.59
887.801	6164.73
887.981	7186.66
888.161	6666.48
888.342	6523.12
888.522	6310.13
888.702	6760.69
888.882	6760.69
889.062	6326.52
889.242	5875.96
889.423	6945
889.603	6723.82
889.783	6500.59
889.963	6342.9
890.143	6592.75
890.323	6578.42
890.503	6240.5
890.683	6260.98
890.863	6656.24
891.043	6658.29
891.223	6490.35
891.403	6607.09
891.583	6580.46
891.763	6623.47
891.943	6363.38
892.122	6433.01
892.302	6617.33
892.482	6455.54
892.662	6490.35
892.842	6308.09
893.022	6752.49
893.201	6396.15
893.381	6486.26
893.561	6152.44
893.741	6736.11
893.92	6607.09
894.1	6289.65
894.28	6338.8
894.459	6838.51
894.639	6777.07
894.819	6414.58
894.998	6506.74
895.178	6584.56
895.357	6772.97
895.537	6273.27
895.716	6267.13
895.896	6701.3
896.075	6936.81
896.255	6445.3
896.434	6031.61
896.614	6678.77
896.793	6646
896.973	6443.25
897.152	6260.98
897.331	6533.36
897.511	6543.6
897.69	5957.88
897.87	6207.73
898.049	6760.69
898.228	6365.43
898.407	6271.22
898.587	6457.59
898.766	6129.91
898.945	6361.33
899.124	6224.12
899.304	6142.2
899.483	6551.79
899.662	6740.21
899.841	5957.88
900.02	6021.37
900.199	6543.6
900.378	6236.41
900.557	5865.72
900.737	5820.67
900.916	6365.43
901.095	6416.63
901.274	6179.06
901.453	5910.78
901.632	5861.63
901.811	6047.99
901.989	5916.92
902.168	5769.47
902.347	6373.62
902.526	6029.56
902.705	5824.76
902.884	5748.99
903.063	6512.88
903.242	6265.08
903.42	5548.29
903.599	5861.63
903.778	6134.01
903.957	6482.16
904.135	5955.83
904.314	5581.06
904.493	5896.44
904.672	5923.07
904.85	5718.27
905.029	5581.06
905.207	5933.31
905.386	6424.82
905.565	5503.23
905.743	5474.56
905.922	5626.11
906.1	6047.99
906.279	5234.95
906.457	5290.24
906.636	5611.78
906.814	5454.08
906.993	5310.72
907.171	5153.03
907.35	5617.92
907.528	5595.39
907.707	5320.96
907.885	5118.22
908.063	5722.37
908.242	5325.06
908.42	5140.74
908.598	4909.32
908.777	5519.62
908.955	5237
909.133	5148.93
909.311	4704.53
909.49	5261.57
909.668	5331.2
909.846	5116.17
910.024	4884.75
910.202	5314.82
910.38	5527.81
910.559	4925.71
910.737	5105.93
910.915	5517.57
911.093	5591.3
911.271	5138.69
911.449	5415.17
911.627	5540.1
911.805	6082.81
911.983	5370.12
912.161	5208.33
912.339	5679.36
912.517	5974.27
912.695	5527.81
912.872	5343.49
913.05	5392.64
913.228	5718.27
913.406	5267.72
913.584	5163.27
913.762	5839.1
913.939	5591.3
914.117	5267.72
914.295	5150.98
914.473	5845.24
914.65	5712.13
914.828	5433.6
915.006	5406.98
915.184	5417.22
915.361	5650.69
915.539	5454.08
915.716	5511.43
915.894	5658.88
916.072	5884.16
916.249	5540.1
916.427	5540.1
916.604	5415.17
916.782	5632.26
916.959	5253.38
917.137	5163.27
917.314	5402.88
917.492	5550.34
917.669	5273.86
917.847	5452.03
918.024	5574.91
918.201	5204.23
918.379	5206.28
918.556	5263.62
918.733	5550.34
918.911	5380.36
919.088	5423.36
919.265	5163.27
919.442	5548.29
919.62	5378.31
919.797	5071.11
919.974	4913.42
920.151	5628.16
920.328	5329.16
920.506	5122.31
920.683	5404.93
920.86	5216.52
921.037	5294.34
921.214	5071.11
921.391	5032.2
921.568	5406.98
921.745	5116.17
921.922	5196.04
922.099	4911.37
922.276	5402.88
922.453	5333.25
922.63	5024.01
922.807	5196.04
922.984	5232.9
923.161	5288.2
923.338	5128.46
923.514	4962.57
923.691	5200.13
923.868	5380.36
924.045	4958.47
924.222	4796.68
924.399	5144.84
924.575	5415.17
924.752	5050.63
924.929	4813.07
925.105	5245.19
925.282	4739.34
925.459	4725.01
925.635	4894.99
925.812	5038.34
925.989	4804.88
926.165	4860.17
926.342	4602.13
926.518	4704.53
926.695	5013.77
926.871	4649.23
927.048	4765.96
927.224	5169.41
927.401	4774.16
927.577	4702.48
927.754	4573.46
927.93	5259.53
928.107	5122.31
928.283	4514.06
928.459	4720.91
928.636	4954.38
928.812	4921.61
928.988	4417.81
929.165	4180.25
929.341	4751.63
929.517	4704.53
929.693	4878.6
929.87	4235.54
930.046	4817.16
930.222	4401.43
930.398	4329.75
930.574	4356.37
930.751	4557.07
930.927	4548.88
931.103	4432.15
931.279	4346.13
931.455	4327.7
931.631	4563.22
931.807	4106.52
931.983	4198.68
932.159	4247.83
932.335	4544.78
932.511	4329.75
932.687	4170.01
932.863	4452.63
933.039	4403.47
933.215	4034.84
933.391	3971.35
933.566	4485.39
933.742	4368.66
933.918	4147.48
934.094	3938.59
934.27	4178.2
934.445	4305.17
934.621	4118.81
934.797	3723.55
934.973	4288.79
935.148	4159.77
935.324	3748.12
935.5	3352.87
935.675	4120.85
935.851	3899.67
936.027	3557.66
936.202	3524.9
936.378	3844.38
936.553	3782.94
936.729	3776.8
936.904	3309.86
937.08	3281.19
937.255	3281.19
937.431	3111.21
937.606	3094.82
937.782	3186.98
937.957	3262.76
938.133	3123.49
938.308	2808.11
938.483	3201.32
938.659	2902.31
938.834	3008.81
939.009	2738.48
939.185	3127.59
939.36	2842.92
939.535	2566.45
939.71	2746.67
939.886	3053.86
940.061	3033.38
940.236	2758.96
940.411	2709.8
940.586	3074.34
940.761	2918.7
940.937	2574.64
941.112	2423.09
941.287	2779.43
941.462	2836.78
941.637	2332.98
941.812	2543.92
941.987	2799.91
942.162	2619.69
942.337	2535.73
942.512	2423.09
942.687	2873.64
942.862	2822.44
943.037	2189.62
943.212	1964.34
943.386	2472.24
943.561	2486.58
943.736	2371.89
943.911	2636.08
944.086	2564.4
944.26	2566.45
944.435	2353.46
944.61	2414.9
944.785	2818.35
944.959	2933.03
945.134	2279.73
945.309	1993.01
945.483	2410.8
945.658	2697.52
945.833	1988.92
946.007	2134.32
946.182	2902.31
946.357	2296.11
946.531	2298.16
946.706	2322.74
946.88	2158.9
947.055	2582.83
947.229	2289.97
947.404	2300.21
947.578	2752.81
947.752	2468.14
947.927	2285.87
948.101	2105.65
948.276	2525.49
948.45	2519.34
948.624	2371.89
948.799	2257.2
948.973	2636.08
949.147	2353.46
949.321	2347.31
949.496	2418.99
949.67	2910.5
949.844	2558.25
950.018	2449.71
950.193	2292.02
950.367	3139.88
950.541	2529.58
950.715	2496.82
950.889	2527.53
951.063	2718
951.237	2750.76
951.411	2179.38
951.585	2048.31
951.759	2742.57
951.933	2713.9
952.107	2355.51
952.281	2625.84
952.455	3250.47
952.629	2902.31
952.803	2560.3
952.977	2412.85
953.151	3045.67
953.325	2816.3
953.499	2750.76
953.672	2414.9
953.846	2519.34
954.02	2758.96
954.194	2353.46
954.368	2457.9
954.541	2996.52
954.715	2591.02
954.889	2724.14
955.062	2453.81
955.236	2763.05
955.41	2836.78
955.583	2611.5
955.757	2318.64
955.93	2804.01
956.104	2486.58
956.278	2515.25
956.451	2613.55
956.625	2998.57
956.798	3199.27
956.972	2943.27
957.145	2603.31
957.319	2879.79
957.492	2844.97
957.665	2910.5
957.839	2634.03
958.012	2849.07
958.185	2754.86
958.359	2591.02
958.532	2763.05
958.705	3033.38
958.879	2842.92
959.052	2640.17
959.225	2294.07
959.398	2715.95
959.572	2902.31
959.745	2474.29
959.918	2685.23
960.091	2718
960.264	3174.69
960.438	2578.73
960.611	2541.87
960.784	2990.38
960.957	2754.86
961.13	2918.7
961.303	2644.27
961.476	2863.4
961.649	2973.99
961.822	2470.19
961.995	2670.89
962.168	2984.23
962.341	2836.78
962.514	2656.56
962.686	2472.24
962.859	2914.6
963.032	3033.38
963.205	2502.96
963.378	2279.73
963.551	2887.98
963.723	2808.11
963.896	2666.8
964.069	2765.1
964.242	2681.13
964.414	3060.01
964.587	2564.4
964.76	2609.45
964.932	2926.89
965.105	2771.24
965.278	2447.66
965.45	2435.38
965.623	2820.39
965.795	3010.86
965.968	2480.43
966.14	2472.24
966.313	2744.62
966.485	2808.11
966.658	2572.59
966.83	2410.8
967.003	3072.29
967.175	2867.5
967.348	2529.58
967.52	2459.95
967.692	3057.96
967.865	2973.99
968.037	2574.64
968.209	2847.02
968.382	2750.76
968.554	2986.28
968.726	2459.95
968.898	2533.68
969.071	2808.11
969.243	2883.88
969.415	2470.19
969.587	2718
969.759	3199.27
969.932	2795.82
970.104	2474.29
970.276	2214.2
970.448	2584.88
970.62	2552.11
970.792	2703.66
970.964	2586.93
971.136	3164.45
971.308	2894.12
971.48	2421.04
971.652	2535.73
971.824	3035.43
971.996	2449.71
972.168	2435.38
972.339	2447.66
972.511	2767.15
972.683	2576.69
972.855	2662.7
973.027	2574.64
973.199	2537.77
973.37	2851.11
973.542	2701.61
973.714	2595.12
973.886	2562.35
974.057	2890.03
974.229	2300.21
974.401	2394.42
974.572	2443.57
974.744	2257.2
974.915	2197.81
975.087	2316.59
975.259	3033.38
975.43	2631.98
975.602	2470.19
975.773	2269.49
975.945	2316.59
976.116	2707.76
976.288	2197.81
976.459	2537.77
976.63	2441.52
976.802	2660.65
976.973	2177.33
977.145	2369.84
977.316	3129.64
977.487	2564.4
977.659	2369.84
977.83	2234.68
978.001	2926.89
978.172	2511.15
978.344	2132.28
978.515	2154.8
978.686	2394.42
978.857	2810.15
979.028	2238.77
979.2	2163
979.371	2595.12
979.542	2431.28
979.713	2324.79
979.884	1812.79
980.055	2197.81
980.226	2451.76
980.397	2238.77
980.568	2050.36
980.739	2615.6
980.91	2298.16
981.081	2179.38
981.252	2044.21
981.423	2455.86
981.594	2550.06
981.765	2058.55
981.936	2261.3
982.106	2498.86
982.277	2586.93
982.448	2107.7
982.619	2263.35
982.79	2289.97
982.96	2513.2
983.131	2244.92
983.302	1816.89
983.472	2206
983.643	2289.97
983.814	2101.56
983.984	2001.21
984.155	2158.9
984.326	2468.14
984.496	2169.14
984.667	2119.99
984.837	2058.55
985.008	2574.64
985.178	2210.1
985.349	2234.68
985.519	2154.8
985.69	2091.32
985.86	1993.01
986.031	1784.12
986.201	2201.91
986.371	2300.21
986.542	1816.89
986.712	1726.78
986.882	2261.3
987.053	2240.82
987.223	1773.88
987.393	2042.17
987.563	2029.88
987.734	2361.65
987.904	2355.51
988.074	1829.18
988.244	2169.14
988.414	2038.07
988.585	1818.94
988.755	1933.62
988.925	2007.35
989.095	2550.06
989.265	1771.83
989.435	1833.27
989.605	2289.97
989.775	2191.67
989.945	2097.46
990.115	1632.57
990.285	2140.47
990.455	2066.74
990.625	1884.47
990.795	1681.72
990.965	2404.66
991.134	1700.16
991.304	1722.68
991.474	1687.87
991.644	2119.99
991.814	2332.98
991.984	1515.84
992.153	1689.92
992.323	1921.34
992.493	1888.57
992.662	1431.87
992.832	1648.96
993.002	2054.45
993.171	1933.62
993.341	1362.24
993.511	1796.41
993.68	1796.41
993.85	1997.11
994.019	1425.73
994.189	1456.45
994.358	1894.71
994.528	1679.68
994.697	1245.51
994.867	1505.6
995.036	2085.17
995.206	1804.6
995.375	1495.36
995.544	1612.09
995.714	1997.11
995.883	1722.68
996.052	1730.87
996.222	1222.98
996.391	2158.9
996.56	1743.16
996.73	1364.29
996.899	1323.33
997.068	2144.56
997.237	1691.96
997.406	1411.39
997.576	1247.55
997.745	1730.87
997.914	1734.97
998.083	1218.88
998.252	1513.79
998.421	1694.01
998.59	1532.22
998.759	1259.84
998.928	1173.83
999.097	1814.84
999.266	1706.3
999.435	1526.08
999.604	1202.5
999.773	2167.09
999.942	1571.13
1000.111	1182.02
1000.28	1136.96
1000.448	1384.77
1000.617	1376.58
1000.786	1442.11
1000.955	1300.8
1001.124	1702.2
1001.292	2300.21
1001.461	1239.36
1001.63	1261.89
1001.798	1970.49
1001.967	1802.55
1002.136	1202.5
1002.304	1075.52
1002.473	1702.2
1002.642	1521.98
1002.81	1347.9
1002.979	1233.22
1003.147	1683.77
1003.316	2042.17
1003.484	1073.48
1003.653	1128.77
1003.821	1685.82
1003.99	1423.68
1004.158	1268.03
1004.327	1321.28
1004.495	1689.92
1004.663	1313.09
1004.832	1225.03
1005	891.21
1005.168	1599.8
1005.337	1409.34
1005.505	1009.99
1005.673	1278.27
1005.842	1468.73
1006.01	1583.42
1006.178	948.55
1006.346	969.03
1006.514	1554.75
1006.683	1605.95
1006.851	1067.33
1007.019	1100.1
1007.187	1190.21
1007.355	991.56
1007.523	866.63
1007.691	887.11
1007.859	1079.62
1008.027	1605.95
1008.195	1032.52
1008.363	872.78
1008.531	1448.26
1008.699	1214.79
1008.867	829.77
1009.035	960.84
1009.203	1491.26
1009.37	1290.56
1009.538	1106.24
1009.706	1442.11
1009.874	1325.38
1010.042	1249.6
1010.209	831.82
1010.377	674.12
1010.545	1464.64
1010.713	1270.08
1010.88	858.44
1011.048	889.16
1011.216	1009.99
1011.383	1599.8
1011.551	911.69
1011.718	723.27
1011.886	1390.91
1012.054	1243.46
1012.221	856.39
1012.389	739.66
1012.556	1102.15
1012.724	1575.23
1012.891	956.74
1013.058	624.97
1013.226	1345.86
1013.393	1349.95
1013.561	670.03
1013.728	608.59
1013.895	1448.26
1014.063	1208.64
1014.23	612.68
1014.397	782.67
1014.565	1311.04
1014.732	1038.66
1014.899	764.23
1015.066	618.83
1015.233	1087.81
1015.401	1184.07
1015.568	821.58
1015.735	954.69
1015.902	1050.95
1016.069	1120.58
1016.236	710.99
1016.403	653.64
1016.57	825.67
1016.737	1251.65
1016.904	633.16
1017.071	561.48
1017.238	846.15
1017.405	1212.74
1017.572	561.48
1017.739	852.3
1017.906	1165.64
1018.073	1251.65
1018.24	547.15
1018.407	690.51
1018.573	1333.57
1018.74	878.92
1018.907	692.55
1019.074	407.89
1019.241	1208.64
1019.407	919.88
1019.574	485.71
1019.741	567.63
1019.907	1020.23
1020.074	1214.79
1020.241	309.58
1020.407	530.77
1020.574	1085.76
1020.74	1018.18
1020.907	551.24
1021.073	477.52
1021.24	1503.55
1021.406	1249.6
1021.573	313.68
1021.739	487.76
1021.906	1143.11
1022.072	928.07
1022.239	602.44
1022.405	524.62
1022.571	989.51
1022.738	696.65
1022.904	545.1
1023.07	561.48
1023.237	797
1023.403	1089.86
1023.569	502.09
1023.735	606.54
1023.902	944.45
1024.068	1024.33
1024.234	358.74
1024.4	487.76
1024.566	862.54
1024.732	1050.95
1024.898	549.2
1025.065	323.92
1025.231	1073.48
1025.397	815.43
1025.563	465.23
1025.729	356.69
1025.895	420.17
1026.061	581.96
1026.227	291.15
1026.392	481.61
1026.558	1063.24
1026.724	966.98
1026.89	313.68
1027.056	534.86
1027.222	895.3
1027.388	721.23
1027.553	405.84
1027.719	344.4
1027.885	1206.59
1028.051	885.06
1028.216	217.43
1028.382	461.13
1028.548	1016.13
1028.713	688.46
1028.879	338.26
1029.045	567.63
1029.21	1104.2
1029.376	979.27
1029.541	383.31
1029.707	428.37
1029.873	858.44
1030.038	883.02
1030.204	319.82
1030.369	440.65
1030.534	969.03
1030.7	672.08
1030.865	409.94
1031.031	409.94
1031.196	764.23
1031.361	825.67
1031.527	350.54
1031.692	332.11
1031.857	405.84
1032.023	856.39
1032.188	305.49
1032.353	409.94
1032.518	1005.89
1032.684	776.52
1032.849	207.19
1033.014	313.68
1033.179	981.32
1033.344	874.82
1033.509	350.54
1033.674	256.34
1033.839	868.68
1034.004	799.05
1034.17	426.32
1034.335	198.99
1034.5	594.25
1034.664	581.96
1034.829	237.91
1034.994	379.22
1035.159	758.09
1035.324	866.63
1035.489	299.34
1035.654	305.49
1035.819	1073.48
1035.984	665.93
1036.148	321.87
1036.313	299.34
1036.478	897.35
1036.643	618.83
1036.807	227.67
1036.972	143.7
1037.137	975.17
1037.301	717.13
1037.466	141.65
1037.631	325.97
1037.795	960.84
1037.96	710.99
1038.124	430.41
1038.289	137.56
1038.454	731.47
1038.618	727.37
1038.783	280.91
1038.947	313.68
1039.111	723.27
1039.276	592.2
1039.44	117.08
1039.605	700.75
1039.769	516.43
1039.933	610.64
1040.098	280.91
1040.262	436.56
1040.426	862.54
1040.591	715.08
1040.755	147.8
1040.919	198.99
1041.083	678.22
1041.248	563.53
1041.412	6.49
1041.576	151.89
1041.74	551.24
1041.904	790.86
1042.068	102.74
1042.232	244.05
1042.397	821.58
1042.561	627.02
1042.725	-9.9
1042.889	409.94
1043.053	803.15
1043.217	700.75
1043.381	246.1
1043.544	88.4
1043.708	821.58
1043.872	330.06
1044.036	-95.91
1044.2	-13.99
1044.364	837.96
1044.528	934.22
1044.691	5191.94
1044.855	31.06
1045.019	717.13
1045.183	717.13
1045.346	184.66
1045.51	20.82
1045.674	610.64
1045.837	635.21
1046.001	221.52
1046.165	170.32
1046.328	1102.15
1046.492	657.74
1046.655	426.32
1046.819	276.82
1046.983	442.7
1047.146	645.45
1047.31	282.96
1047.473	6.49
1047.636	473.42
1047.8	389.46
1047.963	180.56
1048.127	-3.75
1048.29	293.2
