Data from Hydrogel_Ink_Intensity_Test_1_USB4F045381__40__00040.txt Node

Date: Mon Jul 31 10:46:13 EDT 2023
User: mmckonesweet
Spectrometer: USB4F04538
Trigger mode: 4
Integration Time (sec): 9.000000E-1
Scans to average: 1
Electric dark correction enabled: true
Nonlinearity correction enabled: false
Boxcar width: 0
XAxis mode: Wavelengths
Number of Pixels in Spectrum: 3648
>>>>>Begin Spectral Data<<<<<
345.52	-988.32
345.736	-988.32
345.952	-988.32
346.168	-988.32
346.384	-988.32
346.6	-130.22
346.816	-195.75
347.032	-265.38
347.248	283.47
347.464	-175.27
347.68	-136.36
347.896	99.16
348.112	344.91
348.328	-42.15
348.544	-72.87
348.76	58.2
348.975	232.27
349.191	-253.09
349.407	-177.32
349.623	19.29
349.839	-58.54
350.055	-138.41
350.27	2.9
350.486	144.21
350.702	349.01
350.918	293.71
351.133	-144.55
351.349	60.24
351.565	355.15
351.781	-191.66
351.996	-23.72
352.212	336.72
352.428	-60.59
352.644	-103.59
352.859	-296.1
353.075	275.28
353.291	-21.67
353.506	-124.07
353.722	-156.84
353.938	-46.25
354.153	467.79
354.369	74.58
354.584	-144.55
354.8	355.15
355.016	-337.06
355.231	-310.44
355.447	-38.06
355.662	158.55
355.878	820.04
356.093	-304.29
356.309	35.67
356.524	-124.07
356.74	301.9
356.955	-148.65
357.171	-29.87
357.386	154.45
357.602	-199.85
357.817	-42.15
358.033	-158.89
358.248	373.58
358.464	144.21
358.679	-91.31
358.895	-263.33
359.11	2.9
359.325	369.49
359.541	271.19
359.756	39.76
359.972	-271.53
360.187	119.64
360.402	-154.79
360.618	-109.74
360.833	965.45
361.048	148.31
361.264	-187.56
361.479	-128.17
361.694	82.77
361.909	203.6
362.125	-197.8
362.34	-111.78
362.555	293.71
362.77	50
362.986	-300.2
363.201	-79.02
363.416	238.42
363.631	97.11
363.847	-156.84
364.062	-197.8
364.277	273.23
364.492	95.06
364.707	-101.55
364.922	-390.31
365.138	197.46
365.353	289.62
365.568	-203.94
365.783	-91.31
365.998	101.2
366.213	512.85
366.428	-195.75
366.643	33.62
366.858	209.75
367.073	258.9
367.288	-99.5
367.503	-208.04
367.718	107.35
367.933	363.34
368.148	-302.25
368.363	-70.83
368.578	-33.96
368.793	504.65
369.008	-134.31
369.223	-142.5
369.438	217.94
369.653	365.39
369.868	-246.95
370.083	-265.38
370.298	86.87
370.513	387.92
370.728	162.64
370.943	-195.75
371.157	-218.28
371.372	588.62
371.587	-246.95
371.802	-152.74
372.017	113.49
372.232	418.64
372.446	-31.91
372.661	-165.03
372.876	306
373.091	164.69
373.306	17.24
373.52	-179.37
373.735	-117.93
373.95	422.73
374.165	-9.39
374.379	-95.4
374.594	-144.55
374.809	101.2
375.023	72.53
375.238	-169.13
375.453	142.16
375.667	-224.42
375.882	-99.5
376.097	-187.56
376.311	84.82
376.526	21.33
376.741	-185.51
376.955	168.79
377.17	627.53
377.384	656.2
377.599	-101.55
377.813	-167.08
378.028	549.71
378.242	111.44
378.457	31.57
378.672	-304.29
378.886	160.59
379.101	31.57
379.315	-251.05
379.53	-150.7
379.744	219.99
379.958	238.42
380.173	-9.39
380.387	-179.37
380.602	195.41
380.816	-87.21
381.031	-15.53
381.245	-99.5
381.459	299.86
381.674	2618.16
381.888	-132.26
382.103	140.12
382.317	-101.55
382.531	531.28
382.746	35.67
382.96	-101.55
383.174	-76.97
383.388	439.12
383.603	101.2
383.817	-165.03
384.031	273.23
384.246	523.09
384.46	101.2
384.674	387.92
384.888	129.88
385.103	109.4
385.317	-167.08
385.531	43.86
385.745	369.49
385.959	426.83
386.174	-50.35
386.388	-191.66
386.602	23.38
386.816	72.53
387.03	9.05
387.244	21.33
387.458	117.59
387.672	404.3
387.887	-208.04
388.101	-263.33
388.315	486.22
388.529	267.09
388.743	-76.97
388.957	-142.5
389.171	428.88
389.385	-89.26
389.599	35.67
389.813	187.22
390.027	285.52
390.241	822.09
390.455	23.38
390.669	-101.55
390.883	-50.35
391.097	545.61
391.311	176.98
391.525	-68.78
391.738	269.14
391.952	258.9
392.166	39.76
392.38	-85.16
392.594	359.25
392.808	351.06
393.022	11.09
393.236	-17.58
393.449	273.23
393.663	332.62
393.877	-185.51
394.091	-29.87
394.305	25.43
394.518	99.16
394.732	-177.32
394.946	-27.82
395.16	504.65
395.373	138.07
395.587	-87.21
395.801	-93.35
396.015	346.96
396.228	320.34
396.442	-203.94
396.656	-195.75
396.869	414.54
397.083	568.14
397.297	82.77
397.51	-15.53
397.724	508.75
397.938	353.1
398.151	-193.7
398.365	-171.18
398.578	320.34
398.792	537.42
399.005	76.63
399.219	-7.34
399.433	228.18
399.646	299.86
399.86	156.5
400.073	121.68
400.287	336.72
400.5	64.34
400.714	156.5
400.927	148.31
401.141	338.77
401.354	1205.06
401.567	377.68
401.781	-132.26
401.994	400.21
402.208	748.36
402.421	37.72
402.635	-31.91
402.848	125.78
403.061	432.97
403.275	101.2
403.488	-87.21
403.701	729.93
403.915	394.06
404.128	197.46
404.341	-38.06
404.555	314.19
404.768	172.88
404.981	138.07
405.195	-13.48
405.408	736.07
405.621	373.58
405.834	107.35
406.048	-72.87
406.261	598.86
406.474	582.48
406.687	-40.11
406.9	131.92
407.114	215.89
407.327	410.45
407.54	-48.3
407.753	-74.92
407.966	-13.48
408.179	437.07
408.392	0.85
408.605	-122.02
408.819	389.97
409.032	357.2
409.245	-62.63
409.458	232.27
409.671	449.36
409.884	586.57
410.097	-91.31
410.31	252.75
410.523	461.65
410.736	201.55
410.949	152.4
411.162	50
411.375	619.34
411.588	562
411.801	217.94
412.014	9.05
412.227	287.57
412.44	197.46
412.653	-29.87
412.865	232.27
413.078	500.56
413.291	355.15
413.504	90.96
413.717	68.44
413.93	521.04
414.143	68.44
414.356	138.07
414.568	-1.19
414.781	494.41
414.994	242.51
415.207	230.23
415.42	207.7
415.632	535.37
415.845	748.36
416.058	-70.83
416.271	-13.48
416.483	346.96
416.696	807.75
416.909	146.26
417.121	-70.83
417.334	527.18
417.547	801.61
417.759	68.44
417.972	-5.29
418.185	349.01
418.397	553.8
418.61	99.16
418.823	138.07
419.035	748.36
419.248	285.52
419.46	285.52
419.673	232.27
419.885	445.26
420.098	301.9
420.311	142.16
420.523	-87.21
420.736	553.8
420.948	306
421.161	150.36
421.373	-40.11
421.586	453.45
421.798	148.31
422.01	15.19
422.223	277.33
422.435	357.2
422.648	537.42
422.86	156.5
423.073	150.36
423.285	643.92
423.497	109.4
423.71	103.25
423.922	101.2
424.134	445.26
424.347	734.03
424.559	316.24
424.771	600.91
424.984	355.15
425.196	518.99
425.408	60.24
425.621	64.34
425.833	744.27
426.045	680.78
426.257	88.92
426.47	228.18
426.682	535.37
426.894	559.95
427.106	222.03
427.318	377.68
427.531	244.56
427.743	596.81
427.955	269.14
428.167	748.36
428.379	527.18
428.591	396.11
428.804	306
429.016	174.93
429.228	435.02
429.44	486.22
429.652	400.21
429.864	168.79
430.076	457.55
430.288	392.02
430.5	246.61
430.712	318.29
430.924	727.88
431.136	562
431.348	144.21
431.56	228.18
431.772	408.4
431.984	389.97
432.196	332.62
432.408	297.81
432.62	432.97
432.832	547.66
433.044	566.09
433.256	453.45
433.468	691.02
433.679	236.37
433.891	244.56
434.103	564.04
434.315	848.71
434.527	742.22
434.739	521.04
434.95	541.52
435.162	752.46
435.374	408.4
435.586	363.34
435.798	306
436.009	219.99
436.221	506.7
436.433	371.54
436.645	469.84
436.856	518.99
437.068	762.7
437.28	174.93
437.491	697.16
437.703	738.12
437.915	580.43
438.126	408.4
438.338	584.52
438.55	527.18
438.761	762.7
438.973	441.17
439.184	426.83
439.396	662.35
439.608	836.42
439.819	283.47
440.031	459.6
440.242	793.42
440.454	838.47
440.665	445.26
440.877	600.91
441.088	801.61
441.3	621.39
441.511	265.04
441.723	385.87
441.934	746.31
442.146	711.5
442.357	568.14
442.569	746.31
442.78	684.87
442.991	1080.13
443.203	746.31
443.414	367.44
443.626	1100.61
443.837	420.69
444.048	269.14
444.26	367.44
444.471	701.26
444.682	836.42
444.894	283.47
445.105	359.25
445.316	1057.61
445.528	885.58
445.739	641.87
445.95	545.61
446.161	856.9
446.373	1004.36
446.584	600.91
446.795	578.38
447.006	910.15
447.217	1133.38
447.429	303.95
447.64	441.17
447.851	1047.37
448.062	799.56
448.273	334.67
448.484	529.23
448.695	887.62
448.907	756.55
449.118	590.67
449.329	787.27
449.54	682.83
449.751	670.54
449.962	518.99
450.173	596.81
450.384	1008.45
450.595	1198.92
450.806	609.1
451.017	650.06
451.228	1170.24
451.439	1043.27
451.65	568.14
451.861	473.93
452.072	684.87
452.283	824.14
452.494	807.75
452.705	682.83
452.915	1319.75
453.126	936.78
453.337	648.01
453.548	545.61
453.759	1168.2
453.97	1442.62
454.181	926.54
454.391	619.34
454.602	1020.74
454.813	1045.32
455.024	779.08
455.235	668.49
455.445	994.12
455.656	1061.7
455.867	861
456.078	705.35
456.288	897.86
456.499	1172.29
456.71	631.63
456.921	967.49
457.131	1153.86
457.342	947.01
457.553	764.75
457.763	650.06
457.974	1121.09
458.184	1299.27
458.395	672.59
458.606	699.21
458.816	1315.65
459.027	1452.86
459.237	930.63
459.448	748.36
459.659	1299.27
459.869	1504.06
460.08	691.02
460.29	1059.65
460.501	1583.93
460.711	1049.41
460.922	774.99
461.132	877.38
461.343	1884.98
461.553	906.06
461.764	856.9
461.974	983.88
462.184	1325.89
462.395	1248.07
462.605	1069.89
462.816	877.38
463.026	1246.02
463.236	1530.69
463.447	940.87
463.657	979.78
463.867	1473.34
464.078	1172.29
464.288	1045.32
464.498	1059.65
464.709	1291.07
464.919	1254.21
465.129	1143.62
465.339	1065.8
465.55	1493.82
465.76	1448.77
465.97	1080.13
466.18	1100.61
466.391	1579.84
466.601	1489.73
466.811	1254.21
467.021	992.07
467.231	1633.08
467.441	1672
467.651	1327.94
467.862	1080.13
468.072	1522.49
468.282	1948.47
468.492	1207.11
468.702	1383.23
468.912	1491.77
469.122	2206.52
469.332	1635.13
469.542	1389.38
469.752	1880.89
469.962	1692.48
470.172	1450.82
470.382	1319.75
470.592	1977.14
470.802	1927.99
471.012	1526.59
471.222	1459.01
471.432	2001.72
471.642	2032.44
471.852	1692.48
472.062	1518.4
472.272	1731.39
472.482	1628.99
472.691	1667.9
472.901	1452.86
473.111	1981.24
473.321	2618.16
473.531	1702.72
473.741	1844.03
473.95	2200.37
474.16	2239.28
474.37	2005.81
474.58	1794.87
474.79	2540.33
474.999	2323.25
475.209	1786.68
475.419	1907.51
475.628	2208.56
475.838	2470.7
476.048	2138.93
476.258	1999.67
476.467	2505.52
476.677	2157.36
476.886	2337.59
477.096	2347.83
477.306	2229.04
477.515	2597.68
477.725	2300.72
477.935	2358.07
478.144	2792.23
478.354	2300.72
478.563	2343.73
478.773	2278.19
478.982	2804.52
479.192	2951.98
479.401	2495.28
479.611	2159.41
479.82	2468.66
480.03	2796.33
480.239	2255.67
480.449	2345.78
480.658	3148.58
480.868	2728.75
481.077	2755.37
481.287	2714.41
481.496	2966.31
481.705	3201.83
481.915	2845.48
482.124	2960.17
482.333	3062.57
482.543	3328.8
482.752	2970.41
482.961	2722.6
483.171	3181.35
483.38	3072.81
483.589	2865.96
483.799	2855.72
484.008	3091.24
484.217	3410.72
484.426	2945.83
484.636	2827.05
484.845	3267.36
485.054	2882.35
485.263	3289.89
485.472	3078.95
485.682	3533.6
485.891	3228.45
486.1	2980.65
486.309	3146.53
486.518	3570.46
486.727	3879.71
486.936	3353.38
487.146	3324.71
487.355	3922.71
487.564	3277.6
487.773	3388.19
487.982	3437.34
488.191	3560.22
488.4	3578.65
488.609	3486.5
488.818	3363.62
489.027	4182.81
489.236	4088.6
489.445	3535.65
489.654	3513.12
489.863	3988.25
490.072	3726.11
490.281	4033.3
490.49	3676.96
490.698	4244.24
490.907	4358.93
491.116	3846.94
491.325	3713.82
491.534	4336.4
491.743	4205.33
491.952	3922.71
492.16	3758.88
492.369	4137.75
492.578	4299.54
492.787	4094.74
492.996	3728.16
493.204	4008.73
493.413	4528.91
493.622	3728.16
493.831	3834.65
494.039	4647.69
494.248	3980.06
494.457	4121.37
494.665	3891.99
494.874	4467.47
495.083	4743.95
495.291	4356.88
495.5	4178.71
495.709	4594.45
495.917	4502.29
496.126	4336.4
496.335	4191
496.543	4459.28
496.752	4629.26
496.96	4473.62
497.169	4121.37
497.377	4707.09
497.586	4913.93
497.794	4451.09
498.003	4254.48
498.211	4627.21
498.42	5022.47
498.628	4518.67
498.837	4520.72
499.045	4795.15
499.254	4674.32
499.462	4455.19
499.671	4506.38
499.879	5221.13
500.087	5262.09
500.296	4453.14
500.504	4678.41
500.713	5118.73
500.921	5513.99
501.129	4541.2
501.338	4811.53
501.546	5065.48
501.754	5024.52
501.962	4836.11
502.171	4776.72
502.379	5045
502.587	5628.67
502.795	4852.49
503.004	4913.93
503.212	5155.59
503.42	5452.55
503.628	4983.56
503.837	4948.75
504.045	5356.29
504.253	5700.35
504.461	5018.38
504.669	4860.68
504.877	5425.92
505.085	5788.41
505.294	4827.92
505.502	5167.88
505.71	5468.93
505.918	5556.99
506.126	5016.33
506.334	5088.01
506.542	5481.22
506.75	5487.36
506.958	5274.37
507.166	5221.13
507.374	5350.15
507.582	5933.82
507.79	5405.44
507.998	5266.18
508.206	5909.24
508.414	5831.42
508.622	5229.32
508.83	5405.44
509.037	6003.45
509.245	5479.17
509.453	5411.59
509.661	5421.83
509.869	6085.37
510.077	5577.47
510.285	5608.19
510.492	5325.57
510.7	6623.98
510.908	5700.35
511.116	5436.16
511.324	5491.46
511.531	5851.9
511.739	5786.37
511.947	5808.89
512.155	5937.91
512.362	6007.55
512.57	5513.99
512.778	5675.77
512.985	5636.86
513.193	6177.53
513.401	6257.4
513.608	5583.62
513.816	5833.47
514.024	6206.2
514.231	6273.78
514.439	5600
514.646	5837.56
514.854	6288.12
515.061	6202.1
515.269	5872.38
515.477	5872.38
515.684	5843.71
515.892	6408.95
516.099	5788.41
516.307	5612.29
516.514	6417.14
516.722	6621.94
516.929	5919.48
517.136	6089.46
517.344	6499.06
517.551	6370.04
517.759	5993.21
517.966	6255.35
518.173	6339.32
518.381	6257.4
518.588	6169.34
518.796	6007.55
519.003	6589.17
519.21	6355.7
519.418	6247.16
519.625	6353.65
519.832	6527.73
520.039	6533.87
520.247	5956.35
520.454	6331.12
520.661	6796.01
520.868	6576.88
521.076	6392.56
521.283	6202.1
521.49	7170.79
521.697	6656.75
521.904	6339.32
522.112	6361.84
522.319	6785.77
522.526	6820.59
522.733	6359.8
522.94	6462.19
523.147	6759.15
523.354	6839.02
523.561	6316.79
523.768	6523.63
523.975	6994.67
524.183	6728.43
524.39	6634.22
524.597	6386.42
524.804	6841.07
525.011	6785.77
525.218	6675.18
525.425	6669.04
525.632	7140.07
525.838	6841.07
526.045	6638.32
526.252	6785.77
526.459	8293.08
526.666	7828.19
526.873	6916.84
527.08	6746.86
527.287	7408.36
527.494	7090.92
527.701	6662.9
527.907	6927.08
528.114	7396.07
528.321	7148.26
528.528	6812.4
528.735	6927.08
528.941	7049.96
529.148	7121.64
529.355	6941.42
529.562	6857.45
529.768	7615.2
529.975	7109.35
530.182	6900.46
530.388	7002.86
530.595	7723.74
530.802	6906.6
531.008	7353.06
531.215	7146.22
531.422	8172.25
531.628	8205.02
531.835	7138.02
532.042	7299.81
532.248	7330.53
532.455	7475.94
532.661	7176.94
532.868	7193.32
533.074	7776.99
533.281	7637.73
533.487	7477.99
533.694	7224.04
533.9	7465.7
534.107	7768.8
534.313	7355.11
534.52	7314.15
534.726	7867.1
534.933	8268.5
535.139	7348.97
535.345	7181.03
535.552	7873.25
535.758	7754.46
535.965	7690.98
536.171	7578.34
536.377	8053.47
536.584	7973.6
536.79	7613.15
536.996	7895.77
537.203	7854.81
537.409	8194.78
537.615	7826.14
537.821	7875.29
538.028	8166.1
538.234	8045.27
538.44	7918.3
538.646	7826.14
538.853	8141.53
539.059	7926.49
539.265	8198.87
539.471	7672.54
539.677	8407.77
539.883	7979.74
540.09	7627.49
540.296	8420.05
540.502	8274.65
540.708	8061.66
540.914	8129.24
541.12	8024.79
541.326	8395.48
541.532	8409.81
541.738	8049.37
541.944	8178.39
542.15	8680.14
542.356	8307.41
542.562	8071.9
542.768	8157.91
542.974	9294.54
543.18	8839.89
543.386	8243.93
543.592	8133.34
543.798	9048.78
544.004	8676.05
544.21	8276.7
544.415	8420.05
544.621	8559.31
544.827	8739.54
545.033	8299.22
545.239	8444.63
545.445	8643.28
545.651	8784.59
545.856	8465.11
546.062	8516.31
546.268	8606.42
546.474	8846.03
546.679	8587.99
546.885	8504.02
547.091	8598.23
547.297	9403.08
547.502	8536.79
547.708	8211.16
547.914	8553.17
548.119	9013.96
548.325	8440.53
548.531	8295.13
548.736	9183.95
548.942	8762.06
549.147	8581.84
549.353	8852.17
549.559	9108.17
549.764	9061.07
549.97	8516.31
550.175	8706.77
550.381	9124.55
550.586	8862.41
550.792	8901.33
550.997	8901.33
551.203	9061.07
551.408	9183.95
551.614	8809.17
551.819	8862.41
552.025	9587.4
552.23	9677.51
552.435	9112.27
552.641	9276.1
552.846	9304.78
553.052	9454.28
553.257	9200.33
553.462	9108.17
553.668	9009.87
553.873	9632.45
554.078	9020.11
554.283	8985.29
554.489	9532.1
554.694	9323.21
554.899	8962.76
555.105	9382.6
555.31	9507.52
555.515	9706.18
555.72	9218.76
555.925	9052.88
556.131	9622.21
556.336	9419.46
556.541	9177.8
556.746	9233.1
556.951	10040
557.156	9900.73
557.361	9394.89
557.567	9583.3
557.772	10033.85
557.977	9771.71
558.182	9249.48
558.387	9568.96
558.592	9419.46
558.797	9845.44
559.002	9593.54
559.207	9509.57
559.412	9573.06
559.617	10017.47
559.822	9499.33
560.027	9374.41
560.232	9581.25
560.437	9800.38
560.642	9175.75
560.847	9642.69
561.051	10033.85
561.256	9724.61
561.461	9659.07
561.666	9425.61
561.871	9888.45
562.076	9982.65
562.281	9640.64
562.485	9327.3
562.69	10242.75
562.895	10050.24
563.1	9482.95
563.305	9624.26
563.509	10158.78
563.714	10433.21
563.919	9493.19
564.123	9669.31
564.328	9960.13
564.533	10603.19
564.737	9775.81
564.942	9589.44
565.147	10537.65
565.351	10480.31
565.556	9804.48
565.761	9939.65
565.965	9949.89
566.17	9855.68
566.374	9749.18
566.579	9558.72
566.784	10191.55
566.988	10058.43
567.193	9697.99
567.397	9659.07
567.602	9710.27
567.806	9943.74
568.011	9927.36
568.215	10080.96
568.42	10248.89
568.624	10244.79
568.828	10017.47
569.033	10089.15
569.237	10582.71
569.442	10476.21
569.646	9876.16
569.85	10058.43
570.055	10328.76
570.259	10334.9
570.463	10414.77
570.668	10312.38
570.872	10267.32
571.076	10324.66
571.281	10341.05
571.485	10287.8
571.689	10525.36
571.893	10842.8
572.098	10414.77
572.302	10205.88
572.506	10566.32
572.71	10517.17
572.914	10259.13
573.119	10230.46
573.323	10877.62
573.527	10975.92
573.731	10263.22
573.935	10422.97
574.139	10701.49
574.343	10357.43
574.547	10582.71
574.751	10353.34
574.955	10787.5
575.159	10959.53
575.364	10488.5
575.568	10291.9
575.772	10752.69
575.976	10953.39
576.18	10451.64
576.383	10339
576.587	11141.8
576.791	10744.5
576.995	10461.88
577.199	10443.45
577.403	10881.71
577.607	11008.69
577.811	10721.97
578.015	10619.57
578.219	10934.96
578.422	11119.28
578.626	10885.81
578.83	10781.36
579.034	11147.95
579.238	11106.99
579.442	10640.05
579.645	11082.41
579.849	10912.43
580.053	10951.34
580.257	10822.32
580.46	10865.33
580.664	11180.71
580.868	11195.05
581.071	10871.47
581.275	10922.67
581.479	10762.93
581.682	11381.42
581.886	10756.79
582.09	11035.31
582.293	11356.84
582.497	11469.48
582.7	11033.26
582.904	10992.3
583.107	11203.24
583.311	11035.31
583.515	11111.08
583.718	11119.28
583.922	11313.83
584.125	11717.28
584.329	10865.33
584.532	11242.15
584.735	11758.24
584.939	11203.24
585.142	10840.75
585.346	11219.63
585.549	11778.72
585.753	11483.81
585.956	11262.63
586.159	11291.31
586.363	11985.57
586.566	11557.54
586.769	10996.4
586.973	11201.19
587.176	11768.48
587.379	11670.18
587.582	11700.9
587.786	11319.98
587.989	11561.64
588.192	12208.8
588.395	11317.93
588.599	11711.14
588.802	11821.73
589.005	11791.01
589.208	11471.53
589.411	11416.23
589.615	11911.84
589.818	12075.68
590.021	11682.47
590.224	11639.46
590.427	12161.69
590.63	11942.56
590.833	11303.59
591.036	11502.25
591.239	11475.62
591.442	11578.02
591.645	11672.23
591.848	11907.74
592.051	12081.82
592.254	12083.87
592.457	11582.12
592.66	11891.36
592.863	12026.53
593.066	12026.53
593.269	11731.62
593.472	11684.52
593.675	11993.76
593.878	12194.46
594.081	11885.22
594.284	11891.36
594.486	12343.96
594.689	12366.49
594.892	11883.17
595.095	11920.03
595.298	12259.99
595.5	12206.75
595.703	12135.07
595.906	12053.15
596.109	12567.19
596.311	12520.09
596.514	11707.04
596.717	12114.59
596.92	12640.92
597.122	12358.3
597.325	11788.96
597.528	11952.8
597.73	12788.37
597.933	12251.8
598.136	12161.69
598.338	11641.51
598.541	12702.36
598.743	12845.71
598.946	12110.49
599.148	12249.75
599.351	13058.7
599.554	12896.91
599.756	12352.15
599.959	12393.11
600.161	12864.15
600.363	12972.69
600.566	12661.4
600.768	12303
600.971	12788.37
601.173	12698.26
601.376	12133.02
601.578	12524.18
601.78	12618.39
601.983	13210.25
602.185	12245.66
602.388	12765.84
602.59	12561.05
602.792	12515.99
602.995	12632.72
603.197	12192.41
603.399	12937.87
603.601	12739.22
603.804	12497.56
604.006	12389.02
604.208	12614.29
604.41	12368.54
604.613	12688.02
604.815	12436.12
605.017	13109.9
605.219	12419.74
605.421	12894.86
605.623	12393.11
605.826	12970.64
606.028	12984.98
606.23	12597.91
606.432	12229.27
606.634	13171.34
606.836	12939.92
607.038	12421.78
607.24	12804.75
607.442	12972.69
607.644	12913.3
607.846	12593.81
608.048	12606.1
608.25	13068.94
608.452	12718.74
608.654	12673.68
608.856	12247.71
609.058	12806.8
609.26	13142.67
609.462	12941.97
609.664	12960.4
609.866	13490.82
610.067	13202.06
610.269	12870.29
610.471	12501.65
610.673	13027.98
610.875	13384.33
611.077	12679.83
611.278	12706.45
611.48	13021.84
611.682	13484.68
611.884	12944.02
612.085	12749.46
612.287	12825.23
612.489	13210.25
612.69	12520.09
612.892	13114
613.094	13507.21
613.295	13396.62
613.497	12597.91
613.699	12870.29
613.9	13566.6
614.102	13417.1
614.304	12675.73
614.505	12563.09
614.707	13132.43
614.908	13165.2
615.11	12667.54
615.311	12817.04
615.513	13322.89
615.714	13163.15
615.916	12614.29
616.117	12624.53
616.319	12776.08
616.52	13259.4
616.722	12839.57
616.923	12868.24
617.124	13460.1
617.326	13173.39
617.527	12946.06
617.729	13331.08
617.93	13202.06
618.131	13347.47
618.333	12737.17
618.534	13099.66
618.735	13171.34
618.937	13767.3
619.138	12759.7
619.339	12819.09
619.54	13116.05
619.742	13304.46
619.943	13021.84
620.144	13040.27
620.345	13546.12
620.546	13484.68
620.748	12841.62
620.949	12941.97
621.15	13269.64
621.351	13339.27
621.552	13070.99
621.753	13030.03
621.954	13091.47
622.155	13568.65
622.356	12948.11
622.558	13034.13
622.759	13275.79
622.96	13693.57
623.161	13001.36
623.362	13019.79
623.563	13269.64
623.764	13290.12
623.965	12872.34
624.166	13456.01
624.366	13290.12
624.567	13202.06
624.768	12741.27
624.969	13208.2
625.17	13183.63
625.371	13503.11
625.572	12993.17
625.773	12917.39
625.973	13562.5
626.174	13685.38
626.375	13173.39
626.576	13294.22
626.777	13638.28
626.977	13914.75
627.178	13163.15
627.379	13060.75
627.58	13484.68
627.78	13564.55
627.981	13052.56
628.182	13314.7
628.382	13761.16
628.583	12987.02
628.784	12968.59
628.984	13183.63
629.185	13546.12
629.386	13757.06
629.586	13329.03
629.787	13144.72
629.987	13607.56
630.188	13462.15
630.388	12972.69
630.589	13314.7
630.79	14271.1
630.99	13564.55
631.191	13400.71
631.391	13456.01
631.591	13707.91
631.792	13890.18
631.992	13394.57
632.193	13486.73
632.393	13857.41
632.594	13419.14
632.794	13134.48
632.994	13539.97
633.195	13847.17
633.395	13720.2
633.595	13060.75
633.796	13363.85
633.996	13607.56
634.196	13963.9
634.397	13458.06
634.597	13443.72
634.797	13585.03
634.997	13992.58
635.198	13765.25
635.398	13101.71
635.598	13589.13
635.798	14117.5
635.998	13847.17
636.199	13294.22
636.399	13269.64
636.599	13578.89
636.799	13640.33
636.999	13750.92
637.199	13822.59
637.399	13986.43
637.599	13564.55
637.799	13675.14
637.999	13617.8
638.199	14162.56
638.399	13470.34
638.599	13621.89
638.799	13978.24
638.999	14574.2
639.199	13726.34
639.399	13763.2
639.599	14314.11
639.799	13683.33
639.999	13609.61
640.199	13413
640.399	13970.05
640.599	13427.34
640.799	13718.15
640.998	13765.25
641.198	14322.3
641.398	14062.21
641.598	13855.36
641.798	13568.65
641.997	14834.29
642.197	13873.79
642.397	14152.32
642.597	13783.68
642.796	14125.69
642.996	14178.94
643.196	13775.49
643.395	13632.13
643.595	13953.66
643.795	13404.81
643.994	13593.22
644.194	13611.65
644.394	14033.54
644.593	13822.59
644.793	13468.3
644.992	14127.74
645.192	14156.41
645.392	13632.13
645.591	14121.6
645.791	14203.52
645.99	14404.22
646.19	13902.47
646.389	13734.53
646.589	14047.87
646.788	14140.03
646.987	14097.02
647.187	14092.93
647.386	14180.99
647.586	14144.13
647.785	14269.05
647.984	13769.35
648.184	13988.48
648.383	14144.13
648.582	14307.96
648.782	14125.69
648.981	14228.09
649.18	13632.13
649.38	14144.13
649.579	13834.88
649.778	13908.61
649.977	14502.52
650.177	14170.75
650.376	14047.87
650.575	13914.75
650.774	14684.79
650.973	14326.39
651.173	13931.14
651.372	14152.32
651.571	14211.71
651.77	14379.64
651.969	13908.61
652.168	14101.12
652.367	13752.96
652.566	14355.07
652.765	14088.83
652.964	14332.54
653.163	14692.98
653.362	14101.12
653.561	14285.44
653.76	14015.1
653.959	14146.17
654.158	14572.15
654.357	14285.44
654.556	14058.11
654.755	14531.19
654.954	14391.93
655.153	14152.32
655.352	14461.56
655.551	14566.01
655.749	14162.56
655.948	14375.55
656.147	14535.29
656.346	14604.92
656.545	14436.99
656.743	14197.37
656.942	14301.82
657.141	14572.15
657.34	14334.59
657.538	14193.28
657.737	14072.45
657.936	14434.94
658.135	14631.54
658.333	14107.26
658.532	14297.72
658.731	14889.59
658.929	14862.96
659.128	14574.2
659.326	14310.01
659.525	14860.91
659.724	14377.59
659.922	14129.79
660.121	14195.32
660.319	14750.32
660.518	14330.49
660.716	14125.69
660.915	14176.89
661.113	14582.39
661.312	14273.15
661.51	14719.6
661.709	14101.12
661.907	14498.42
662.105	15258.22
662.304	14490.23
662.502	14467.7
662.701	14867.06
662.899	14475.9
663.097	14574.2
663.296	14346.87
663.494	15131.25
663.692	14869.11
663.891	14168.7
664.089	14178.94
664.287	14920.31
664.485	14881.39
664.684	14221.95
664.882	14533.24
665.08	14576.25
665.278	14731.89
665.476	14256.76
665.675	14512.76
665.873	15094.38
666.071	14899.83
666.269	14084.73
666.467	14207.61
666.665	14713.46
666.863	14310.01
667.061	14588.53
667.259	14363.26
667.457	14514.81
667.655	14621.3
667.853	14191.23
668.051	14240.38
668.249	14541.43
668.447	14735.99
668.645	14058.11
668.843	14766.71
669.041	14842.48
669.239	14494.33
669.437	14320.25
669.635	14467.7
669.833	14459.51
670.031	14678.65
670.229	14236.28
670.426	14293.63
670.624	14398.07
670.822	14342.78
671.02	14318.2
671.218	14371.45
671.415	14219.9
671.613	14676.6
671.811	14408.31
672.009	14549.62
672.206	14686.84
672.404	14240.38
672.602	14465.66
672.799	14389.88
672.997	14623.35
673.195	14830.2
673.392	14326.39
673.59	14107.26
673.788	14748.28
673.985	13875.84
674.183	14066.3
674.38	14144.13
674.578	14539.38
674.775	14054.01
674.973	14295.68
675.17	14221.95
675.368	14875.25
675.565	14414.46
675.763	14203.52
675.96	14299.77
676.158	14604.92
676.355	14107.26
676.553	14234.24
676.75	14135.93
676.947	14533.24
677.145	14207.61
677.342	14412.41
677.539	14316.15
677.737	14293.63
677.934	14953.07
678.131	14264.96
678.329	14135.93
678.526	15106.67
678.723	14639.73
678.92	14244.48
679.118	14338.68
679.315	14183.04
679.512	14858.87
679.709	14025.34
679.906	14150.27
680.104	14537.34
680.301	14422.65
680.498	13978.24
680.695	14025.34
680.892	14303.87
681.089	14271.1
681.286	14342.78
681.483	13808.26
681.68	14414.46
681.877	14713.46
682.075	14113.41
682.272	14076.54
682.469	14404.22
682.665	14248.57
682.862	13857.41
683.059	13781.64
683.256	14357.11
683.453	14119.55
683.65	14142.08
683.847	14111.36
684.044	14039.68
684.241	14137.98
684.438	14299.77
684.635	13865.6
684.831	14631.54
685.028	14770.8
685.225	13888.13
685.422	14076.54
685.619	14078.59
685.815	14013.06
686.012	13961.86
686.209	14080.64
686.405	13881.99
686.602	14123.65
686.799	13787.78
686.996	13931.14
687.192	13798.02
687.389	14740.08
687.586	13681.28
687.782	14144.13
687.979	14318.2
688.175	14066.3
688.372	13963.9
688.568	14043.78
688.765	13865.6
688.962	14256.76
689.158	13800.07
689.355	13578.89
689.551	14170.75
689.748	13765.25
689.944	13654.66
690.14	13576.84
690.337	14125.69
690.533	13941.38
690.73	13857.41
690.926	13996.67
691.123	14011.01
691.319	13947.52
691.515	13392.52
691.712	13906.56
691.908	14051.97
692.104	14060.16
692.301	13841.03
692.497	13402.76
692.693	13861.51
692.889	14133.89
693.086	13892.23
693.282	13470.34
693.478	13982.34
693.674	14436.99
693.87	13945.47
694.067	13439.62
694.263	13984.38
694.459	13687.43
694.655	13922.94
694.851	13859.46
695.047	14146.17
695.243	13896.32
695.439	13976.19
695.635	13415.05
695.831	13646.47
696.027	13773.44
696.224	13546.12
696.42	13857.41
696.615	14193.28
696.811	13931.14
697.007	13496.97
697.203	13537.93
697.399	13920.9
697.595	14060.16
697.791	13513.35
697.987	13587.08
698.183	13286.03
698.379	13302.41
698.575	13331.08
698.77	13570.69
698.966	13828.74
699.162	13871.75
699.358	13623.94
699.554	13464.2
699.749	13691.52
699.945	13808.26
700.141	13701.76
700.337	13687.43
700.532	13593.22
700.728	13576.84
700.924	13568.65
701.119	13439.62
701.315	13894.27
701.511	13447.82
701.706	13904.51
701.902	13195.92
702.097	13812.35
702.293	13748.87
702.489	13292.17
702.684	13341.32
702.88	13376.14
703.075	13478.54
703.271	13421.19
703.466	13116.05
703.662	13785.73
703.857	13763.2
704.053	13257.36
704.248	13531.78
704.443	13628.04
704.639	13990.53
704.834	13423.24
705.03	13206.16
705.225	13789.83
705.42	14201.47
705.616	13447.82
705.811	13154.96
706.006	13683.33
706.202	13552.26
706.397	13531.78
706.592	13402.76
706.787	13517.45
706.983	13513.35
707.178	13789.83
707.373	13474.44
707.568	13750.92
707.763	13922.94
707.959	13216.4
708.154	13386.38
708.349	13507.21
708.544	13607.56
708.739	13390.47
708.934	12970.64
709.129	13462.15
709.324	13548.17
709.519	13429.38
709.714	13032.08
709.909	13640.33
710.104	13470.34
710.299	12917.39
710.494	13095.57
710.689	13525.64
710.884	13122.19
711.079	13044.37
711.274	13257.36
711.469	13535.88
711.664	13175.44
711.859	13177.48
712.054	13240.97
712.249	13347.47
712.443	13632.13
712.638	13003.41
712.833	13085.33
713.028	13144.72
713.223	13263.5
713.417	13269.64
713.612	12948.11
713.807	13609.61
714.002	13861.51
714.196	13474.44
714.391	13126.29
714.586	13636.23
714.78	13238.92
714.975	12898.96
715.17	12991.12
715.364	13154.96
715.559	13580.93
715.754	12563.09
715.948	12903.06
716.143	13634.18
716.337	13288.07
716.532	13310.6
716.726	12913.3
716.921	13230.73
717.115	13494.92
717.31	12825.23
717.504	13451.91
717.699	13220.49
717.893	13226.64
718.088	12884.62
718.282	12915.34
718.476	13099.66
718.671	12923.54
718.865	12610.2
719.059	12675.73
719.254	12855.95
719.448	13419.14
719.642	13093.52
719.837	12315.29
720.031	13019.79
720.225	13066.89
720.419	12812.95
720.614	12718.74
720.808	13202.06
721.002	13134.48
721.196	12757.65
721.39	12671.64
721.585	13230.73
721.779	12829.33
721.973	12685.97
722.167	12083.87
722.361	12937.87
722.555	13132.43
722.749	12645.01
722.943	12692.12
723.137	12683.92
723.331	13089.42
723.525	12769.94
723.719	12444.31
723.913	12735.12
724.107	13011.6
724.301	12606.1
724.495	12597.91
724.689	13437.58
724.883	13206.16
725.077	12667.54
725.271	12464.79
725.465	13120.14
725.659	12964.5
725.853	12659.35
726.046	12716.69
726.24	12444.31
726.434	12761.75
726.628	12698.26
726.822	12620.44
727.015	13208.2
727.209	13034.13
727.403	12493.46
727.596	12323.48
727.79	13130.38
727.984	13001.36
728.177	12477.08
728.371	12583.57
728.565	12962.45
728.758	12612.24
728.952	12429.98
729.146	12638.87
729.339	13070.99
729.533	12651.16
729.726	12559
729.92	12423.83
730.113	13232.78
730.307	12921.49
730.5	12509.85
730.694	12485.27
730.887	12583.57
731.081	13087.37
731.274	12147.36
731.468	12593.81
731.661	12753.55
731.854	12685.97
732.048	12618.39
732.241	12546.71
732.435	12692.12
732.628	12808.85
732.821	12513.94
733.014	12411.54
733.208	12599.96
733.401	12995.22
733.594	12671.64
733.788	12735.12
733.981	13267.59
734.174	12925.58
734.367	12481.17
734.56	12759.7
734.754	13013.65
734.947	12667.54
735.14	12524.18
735.333	12515.99
735.526	12855.95
735.719	12429.98
735.912	12489.37
736.105	12378.78
736.298	12696.21
736.491	12448.41
736.684	12530.33
736.877	12458.65
737.07	12708.5
737.263	12898.96
737.456	12440.22
737.649	12249.75
737.842	12513.94
738.035	12507.8
738.228	12352.15
738.421	12595.86
738.614	12946.06
738.807	12720.79
739	12065.44
739.192	12106.4
739.385	12677.78
739.578	12618.39
739.771	12604.05
739.964	12522.13
740.156	12884.62
740.349	12479.13
740.542	12548.76
740.735	12458.65
740.927	12321.43
741.12	12380.82
741.313	12157.6
741.505	12393.11
741.698	12454.55
741.891	12728.98
742.083	12372.63
742.276	12319.39
742.468	12534.42
742.661	12515.99
742.854	12133.02
743.046	12190.36
743.239	12878.48
743.431	12401.3
743.624	12421.78
743.816	12147.36
744.009	12462.74
744.201	12534.42
744.393	12303
744.586	12147.36
744.778	12733.08
744.971	12391.06
745.163	12290.71
745.355	12341.91
745.548	12585.62
745.74	12262.04
745.932	12270.23
746.125	12104.35
746.317	13159.05
746.509	12286.62
746.702	12202.65
746.894	12167.84
747.086	12233.37
747.278	12546.71
747.471	12225.18
747.663	12208.8
747.855	12106.4
748.047	12444.31
748.239	12157.6
748.431	12126.88
748.623	12767.89
748.815	12745.36
749.008	12036.77
749.2	12270.23
749.392	12698.26
749.584	12204.7
749.776	12534.42
749.968	12372.63
750.16	12790.42
750.352	12323.48
750.544	12139.16
750.736	11926.18
750.928	12466.84
751.12	12036.77
751.311	11930.27
751.503	12081.82
751.695	12366.49
751.887	12251.8
752.079	11702.95
752.271	11911.84
752.463	13101.71
752.654	12405.4
752.846	12126.88
753.038	11981.47
753.23	12008.09
753.421	12169.88
753.613	11836.06
753.805	12264.09
753.997	12382.87
754.188	12405.4
754.38	11920.03
754.572	11854.5
754.763	12126.88
754.955	12380.82
755.146	12075.68
755.338	11778.72
755.53	12124.83
755.721	12204.7
755.913	11745.95
756.104	11641.51
756.296	12051.1
756.487	12290.71
756.679	11840.16
756.87	11686.56
757.062	12008.09
757.253	12147.36
757.445	11612.84
757.636	11684.52
757.827	12104.35
758.019	12554.9
758.21	11594.4
758.401	11819.68
758.593	12481.17
758.784	12333.72
758.975	11405.99
759.167	11809.44
759.358	11821.73
759.549	12104.35
759.74	11387.56
759.932	11414.18
760.123	12284.57
760.314	11811.49
760.505	11399.85
760.696	11639.46
760.888	12087.96
761.079	11410.09
761.27	11324.07
761.461	11180.71
761.652	11995.81
761.843	11506.34
762.034	11385.51
762.225	11506.34
762.416	11322.02
762.607	11678.37
762.798	11440.81
762.989	11168.43
763.18	12472.98
763.371	11545.25
763.562	11193
763.753	11350.7
763.944	11676.32
764.135	11657.89
764.326	11299.5
764.517	11328.17
764.708	11606.69
764.899	11362.98
765.089	11297.45
765.28	10949.29
765.471	11510.44
765.662	11535.01
765.853	11348.65
766.043	11066.03
766.234	11694.75
766.425	11737.76
766.615	11129.52
766.806	11012.78
766.997	11559.59
767.187	11453.09
767.378	10980.01
767.569	10959.53
767.759	11279.02
767.95	11342.5
768.141	11348.65
768.331	10904.24
768.522	11274.92
768.712	11637.41
768.903	11123.37
769.093	11023.02
769.284	11639.46
769.474	11426.47
769.665	10721.97
769.855	10623.67
770.046	11264.68
770.236	11223.72
770.426	10881.71
770.617	11080.36
770.807	11297.45
770.998	11004.59
771.188	11066.03
771.378	10844.85
771.569	11166.38
771.759	11227.82
771.949	10580.66
772.139	10584.76
772.33	10959.53
772.52	11455.14
772.71	10582.71
772.9	10480.31
773.09	11197.1
773.281	11211.43
773.471	10590.9
773.661	10685.11
773.851	11135.66
774.041	10676.91
774.231	10521.27
774.421	10762.93
774.611	11074.22
774.802	10875.57
774.992	10517.17
775.182	10545.84
775.372	10775.22
775.562	11051.69
775.752	10607.28
775.942	10425.01
776.131	11084.46
776.321	10904.24
776.511	10465.97
776.701	10255.03
776.891	10709.68
777.081	10328.76
777.271	10402.49
777.461	10287.8
777.651	10738.35
777.84	10953.39
778.03	10287.8
778.22	10234.55
778.41	11008.69
778.599	10533.56
778.789	10486.45
778.979	9994.94
779.169	10607.28
779.358	10465.97
779.548	10611.38
779.738	10066.62
779.927	10584.76
780.117	10244.79
780.307	10273.46
780.496	9886.4
780.686	10543.8
780.875	10799.79
781.065	10107.58
781.254	10085.05
781.444	10386.1
781.633	10324.66
781.823	9919.17
782.012	9923.26
782.202	10291.9
782.391	10476.21
782.581	9784
782.77	10257.08
782.96	10363.58
783.149	10250.94
783.338	9900.73
783.528	9777.86
783.717	10248.89
783.906	10578.61
784.096	9982.65
784.285	9792.19
784.474	10312.38
784.663	9851.58
784.853	9812.67
785.042	10001.08
785.231	10117.82
785.42	10549.94
785.61	9999.04
785.799	9865.92
785.988	9853.63
786.177	9663.17
786.366	9956.03
786.555	10015.42
786.744	10199.74
786.933	9951.93
787.122	9700.03
787.312	9683.65
787.501	9767.62
787.69	10005.18
787.879	9845.44
788.068	9638.59
788.257	9734.85
788.445	9665.22
788.634	9835.2
788.823	9593.54
789.012	10592.95
789.201	10193.59
789.39	9521.86
789.579	9345.73
789.768	9820.86
789.957	10058.43
790.145	9603.78
790.334	9206.47
790.523	9865.92
790.712	9530.05
790.9	9540.29
791.089	9296.58
791.278	10076.86
791.467	9851.58
791.655	9804.48
791.844	10031.8
792.033	9509.57
792.221	9716.42
792.41	9523.91
792.599	9304.78
792.787	9994.94
792.976	9986.75
793.164	9360.07
793.353	9507.52
793.541	9689.79
793.73	9720.51
793.918	9495.24
794.107	9261.77
794.295	9540.29
794.484	9743.04
794.672	9355.97
794.861	9355.97
795.049	9761.47
795.238	9921.21
795.426	8981.2
795.614	9089.74
795.803	9630.4
795.991	9790.14
796.179	9136.84
796.368	9106.12
796.556	9517.76
796.744	8985.29
796.932	9059.02
797.121	8915.66
797.309	9306.82
797.497	9673.41
797.685	9247.43
797.874	9157.32
798.062	9489.09
798.25	9640.64
798.438	9155.27
798.626	9265.86
798.814	9472.71
799.002	10072.76
799.19	9388.74
799.378	9229
799.566	9556.68
799.755	9648.83
799.943	9292.49
800.131	9116.36
800.318	9370.31
800.506	9540.29
800.694	9243.34
800.882	9345.73
801.07	9745.09
801.258	9290.44
801.446	9050.83
801.634	9036.49
801.822	9521.86
802.01	9497.28
802.197	9067.21
802.385	9343.69
802.573	9548.48
802.761	9388.74
802.949	9304.78
803.136	9020.11
803.324	9683.65
803.512	9665.22
803.699	9290.44
803.887	9171.66
804.075	9798.34
804.262	9374.41
804.45	9274.06
804.638	9278.15
804.825	9353.93
805.013	9231.05
805.201	9226.95
805.388	9212.62
805.576	9292.49
805.763	9800.38
805.951	9157.32
806.138	9493.19
806.326	9816.77
806.513	9609.92
806.701	9329.35
806.888	9480.9
807.075	9827.01
807.263	10023.61
807.45	9157.32
807.638	9558.72
807.825	10017.47
808.012	9710.27
808.2	9415.37
808.387	9671.36
808.574	9691.84
808.761	9816.77
808.949	9296.58
809.136	9321.16
809.323	9374.41
809.51	9706.18
809.698	9544.39
809.885	9732.8
810.072	9687.75
810.259	9968.32
810.446	9224.9
810.633	9306.82
810.82	9870.01
811.008	10132.15
811.195	9630.4
811.382	9419.46
811.569	9607.87
811.756	9407.17
811.943	9474.76
812.13	9523.91
812.317	9544.39
812.504	9677.51
812.691	9468.61
812.878	9489.09
813.064	10017.47
813.251	9534.15
813.438	9337.54
813.625	9554.63
813.812	9765.57
813.999	9206.47
814.186	9421.51
814.372	9409.22
814.559	9571.01
814.746	9980.61
814.933	9378.5
815.12	9462.47
815.306	9333.45
815.493	9456.33
815.68	9511.62
815.866	9562.82
816.053	10154.68
816.24	10019.52
816.426	9562.82
816.613	9210.57
816.799	9902.78
816.986	9919.17
817.173	9368.26
817.359	9231.05
817.546	9450.18
817.732	9052.88
817.919	9204.42
818.105	9192.14
818.292	9450.18
818.478	9663.17
818.665	9579.2
818.851	9151.18
819.037	10066.62
819.224	9679.55
819.41	9171.66
819.597	9202.38
819.783	10027.71
819.969	9841.34
820.156	9378.5
820.342	9124.55
820.528	10140.35
820.714	9376.45
820.901	9693.89
821.087	9243.34
821.273	9976.51
821.459	9249.48
821.646	9044.68
821.832	9251.53
822.018	9593.54
822.204	9282.25
822.39	9323.21
822.576	9095.88
822.762	9595.59
822.948	9304.78
823.134	9280.2
823.32	9128.65
823.507	9120.46
823.693	9411.27
823.879	9411.27
824.065	8962.76
824.25	9499.33
824.436	8899.28
824.622	9065.16
824.808	8944.33
824.994	9272.01
825.18	9038.54
825.366	8878.8
825.552	8893.13
825.738	9315.02
825.923	9441.99
826.109	9274.06
826.295	9022.16
826.481	9280.2
826.667	9104.07
826.852	9034.44
827.038	9011.92
827.224	9415.37
827.409	9636.55
827.595	8825.55
827.781	9071.31
827.966	9525.96
828.152	9267.91
828.338	8993.48
828.523	8790.74
828.709	9022.16
828.894	9552.58
829.08	8864.46
829.266	8809.17
829.451	9085.64
829.637	9032.4
829.822	9034.44
830.008	8571.6
830.193	9171.66
830.378	9204.42
830.564	8893.13
830.749	8477.4
830.935	9272.01
831.12	9097.93
831.305	8794.83
831.491	8596.18
831.676	8587.99
831.861	9003.72
832.047	8927.95
832.232	8600.27
832.417	9237.19
832.602	9108.17
832.788	8676.05
832.973	8882.89
833.158	9050.83
833.343	8909.52
833.528	8870.61
833.714	8860.37
833.899	9024.2
834.084	9099.98
834.269	8835.79
834.454	8755.92
834.639	9005.77
834.824	8817.36
835.009	8868.56
835.194	8671.95
835.379	8917.71
835.564	9136.84
835.749	8594.13
835.934	8608.47
836.119	8981.2
836.304	8731.34
836.489	8456.92
836.674	8753.87
836.859	8467.16
837.044	9026.25
837.228	8311.51
837.413	8385.24
837.598	8788.69
837.783	8884.94
837.968	8354.52
838.152	8180.44
838.337	8215.26
838.522	8856.27
838.707	8907.47
838.891	8630.99
839.076	8643.28
839.261	8678.1
839.445	8241.88
839.63	8405.72
839.815	9083.59
839.999	8428.24
840.184	8469.2
840.368	8090.33
840.553	8702.67
840.737	8821.45
840.922	8102.62
841.106	8145.63
841.291	8340.18
841.475	8581.84
841.66	8280.79
841.844	8172.25
842.029	9323.21
842.213	8463.06
842.397	8211.16
842.582	8106.71
842.766	8747.73
842.951	8616.66
843.135	8237.78
843.319	8239.83
843.504	8553.17
843.688	8686.29
843.872	7957.21
844.056	7963.36
844.241	8563.41
844.425	8250.07
844.609	8245.98
844.793	7914.2
844.977	8485.59
845.161	8370.9
845.346	7697.12
845.53	8039.13
845.714	8327.89
845.898	8397.53
846.082	7836.38
846.266	7944.92
846.45	8125.15
846.634	8178.39
846.818	7865.05
847.002	8133.34
847.186	8303.32
847.37	7973.6
847.554	7863.01
847.738	8043.23
847.922	8360.66
848.106	8213.21
848.29	7596.77
848.473	7883.49
848.657	8200.92
848.841	8170.2
849.025	7789.28
849.209	7445.22
849.392	8098.52
849.576	8037.08
849.76	7336.68
849.944	7944.92
850.127	8432.34
850.311	7867.1
850.495	7434.98
850.678	7531.23
850.862	8000.22
851.046	8207.06
851.229	7967.45
851.413	7547.62
851.596	7928.54
851.78	7893.72
851.964	7680.74
852.147	7713.5
852.331	8669.91
852.514	8172.25
852.698	7650.02
852.881	7303.91
853.065	8063.71
853.248	7895.77
853.431	7625.44
853.615	7633.63
853.798	8366.81
853.982	7875.29
854.165	7650.02
854.348	7453.41
854.532	7451.36
854.715	7776.99
854.898	7506.66
855.081	7402.21
855.265	7903.96
855.448	8127.19
855.631	7375.59
855.814	7377.64
855.997	8016.6
856.181	7654.11
856.364	7428.84
856.547	7432.93
856.73	7621.35
856.913	7793.37
857.096	7305.96
857.279	7443.17
857.462	7551.71
857.645	8016.6
857.828	7572.19
858.011	7379.68
858.194	7424.74
858.377	7684.83
858.56	7191.27
858.743	7166.7
858.926	7142.12
859.109	7693.02
859.292	7273.19
859.475	7109.35
859.658	7969.5
859.841	7781.09
860.023	7095.02
860.206	7201.51
860.389	7584.48
860.572	7766.75
860.755	7320.29
860.937	7281.38
861.12	7482.08
861.303	7432.93
861.486	7170.79
861.668	6959.85
861.851	7547.62
862.034	7387.88
862.216	7482.08
862.399	6877.93
862.581	7465.7
862.764	7832.29
862.947	7076.59
863.129	6898.41
863.312	7080.68
863.494	7650.02
863.677	7377.64
863.859	6892.27
864.042	7498.47
864.224	7664.35
864.406	7133.93
864.589	6755.05
864.771	7244.52
864.954	6966
865.136	6712.05
865.318	6634.22
865.501	7389.92
865.683	6750.96
865.865	6822.64
866.048	6693.62
866.23	7234.28
866.412	7045.87
866.594	6447.86
866.777	6888.17
866.959	7160.55
867.141	6695.66
867.323	7260.9
867.505	6836.97
867.687	6957.8
867.869	7031.53
868.052	6652.66
868.234	6689.52
868.416	7037.67
868.598	7135.98
868.78	6937.32
868.962	6652.66
869.144	7391.97
869.326	7228.14
869.508	6646.51
869.69	6595.31
869.872	6716.14
870.054	7244.52
870.236	6464.24
870.417	6728.43
870.599	6748.91
870.781	7158.5
870.963	6812.4
871.145	6630.13
871.327	6447.86
871.508	7058.15
871.69	6974.19
871.872	6867.69
872.054	6994.67
872.235	7238.37
872.417	6734.57
872.599	6503.15
872.78	7457.51
872.962	6882.03
873.144	6384.37
873.325	6777.58
873.507	7383.78
873.689	7000.81
873.87	6591.22
874.052	6757.1
874.233	6724.33
874.415	7193.32
874.596	6742.77
874.778	6632.18
874.959	6822.64
875.141	7041.77
875.322	6550.26
875.503	6646.51
875.685	7242.47
875.866	6507.25
876.048	6560.5
876.229	6556.4
876.41	6738.67
876.592	6961.9
876.773	6546.16
876.954	6462.19
877.136	7199.46
877.317	6755.05
877.498	6574.83
877.679	6671.09
877.86	7002.86
878.042	6986.47
878.223	6507.25
878.404	6925.04
878.585	7076.59
878.766	7238.37
878.947	6976.23
879.128	6648.56
879.309	7068.39
879.49	7318.25
879.672	6871.79
879.853	6796.01
880.034	6867.69
880.215	7052.01
880.396	6877.93
880.576	6814.45
880.757	6748.91
880.938	7273.19
881.119	6755.05
881.3	6714.09
881.481	6836.97
881.662	7912.16
881.843	6558.45
882.023	6679.28
882.204	7121.64
882.385	7006.95
882.566	6836.97
882.747	6658.8
882.927	7037.67
883.108	6957.8
883.289	6712.05
883.469	6978.28
883.65	7074.54
883.831	7262.95
884.011	7006.95
884.192	6634.22
884.373	7369.44
884.553	7279.33
884.734	7232.23
884.914	7232.23
885.095	7764.7
885.275	7598.82
885.456	7172.84
885.636	6902.51
885.817	7224.04
885.997	7217.9
886.178	6961.9
886.358	7199.46
886.538	7369.44
886.719	8325.85
886.899	6980.33
887.08	7084.78
887.26	7703.26
887.44	7095.02
887.621	7031.53
887.801	7203.56
887.981	7719.65
888.161	7394.02
888.342	7064.3
888.522	7092.97
888.702	7445.22
888.882	7793.37
889.062	7217.9
889.242	6705.9
889.423	7498.47
889.603	7365.35
889.783	7291.62
889.963	7031.53
890.143	7559.91
890.323	7504.61
890.503	7252.71
890.683	7224.04
890.863	7303.91
891.043	7467.75
891.223	7353.06
891.403	7389.92
891.583	7482.08
891.763	7592.67
891.943	7281.38
892.122	7054.06
892.302	7449.32
892.482	7375.59
892.662	7117.54
892.842	7082.73
893.022	7353.06
893.201	7041.77
893.381	7254.76
893.561	6982.38
893.741	7369.44
893.92	7363.3
894.1	7185.13
894.28	7095.02
894.459	7414.5
894.639	7396.07
894.819	7021.29
894.998	7211.75
895.178	7211.75
895.357	7500.51
895.537	6992.62
895.716	6933.23
895.896	7062.25
896.075	7738.08
896.255	6939.37
896.434	6796.01
896.614	7572.19
896.793	7389.92
896.973	7070.44
897.152	7027.43
897.331	7193.32
897.511	7246.57
897.69	6820.59
897.87	6888.17
898.049	7226.09
898.228	7219.94
898.407	7039.72
898.587	6982.38
898.766	7004.91
898.945	7293.67
899.124	7156.46
899.304	6834.93
899.483	7140.07
899.662	7400.16
899.841	6671.09
900.02	6683.38
900.199	7262.95
900.378	6957.8
900.557	6576.88
900.737	6519.54
900.916	7154.41
901.095	7152.36
901.274	6793.97
901.453	6540.02
901.632	6529.78
901.811	6415.09
901.989	6542.07
902.168	6339.32
902.347	7088.87
902.526	6425.33
902.705	6492.91
902.884	6456.05
903.063	7047.91
903.242	6753.01
903.42	6294.26
903.599	6648.56
903.778	6877.93
903.957	7054.06
904.135	6433.52
904.314	6382.32
904.493	6658.8
904.672	6603.5
904.85	6249.21
905.029	6228.73
905.207	6540.02
905.386	7113.45
905.565	6118.14
905.743	6056.7
905.922	6279.93
906.1	6497.01
906.279	5909.24
906.457	5673.73
906.636	6277.88
906.814	6247.16
906.993	5810.94
907.171	5950.2
907.35	6408.95
907.528	6308.6
907.707	6136.57
907.885	5782.27
908.063	6441.72
908.242	6001.4
908.42	5778.17
908.598	5511.94
908.777	6236.92
908.955	5782.27
909.133	5815.04
909.311	5692.16
909.49	5892.86
909.668	5974.78
909.846	5712.64
910.024	5518.08
910.202	5966.59
910.38	6222.58
910.559	5643.01
910.737	5714.69
910.915	6159.1
911.093	6275.83
911.271	6060.79
911.449	6175.48
911.627	6241.01
911.805	6513.39
911.983	5870.33
912.161	5856
912.339	6552.31
912.517	6730.48
912.695	6222.58
912.872	6005.5
913.05	6023.93
913.228	6449.91
913.406	6198.01
913.584	5876.48
913.762	6490.87
913.939	6286.07
914.117	5972.73
914.295	5896.96
914.473	6411
914.65	6468.34
914.828	6066.94
915.006	5829.37
915.184	5839.61
915.361	6335.22
915.539	6087.42
915.716	6183.67
915.894	6392.56
916.072	6515.44
916.249	6198.01
916.427	6068.98
916.604	5960.44
916.782	6402.8
916.959	5999.35
917.137	5722.88
917.314	6189.81
917.492	6322.93
917.669	6060.79
917.847	6001.4
918.024	6255.35
918.201	6017.79
918.379	5894.91
918.556	5786.37
918.733	6179.58
918.911	5937.91
919.088	5882.62
919.265	5753.6
919.442	6236.92
919.62	5999.35
919.797	5630.72
919.974	5649.15
920.151	6116.09
920.328	5958.39
920.506	5823.23
920.683	5923.58
920.86	5856
921.037	5923.58
921.214	5739.26
921.391	5665.53
921.568	6023.93
921.745	5643.01
921.922	5817.08
922.099	5524.23
922.276	6126.33
922.453	6118.14
922.63	5634.82
922.807	5821.18
922.984	5743.36
923.161	5632.77
923.338	5643.01
923.514	5507.84
923.691	5757.69
923.868	5747.45
924.045	5497.6
924.222	5434.11
924.399	5745.41
924.575	6011.64
924.752	5497.6
924.929	5716.73
925.105	5927.67
925.282	5628.67
925.459	5411.59
925.635	5722.88
925.812	5585.66
925.989	5548.8
926.165	5561.09
926.342	5200.65
926.518	5407.49
926.695	5751.55
926.871	5122.82
927.048	5372.68
927.224	5735.17
927.401	5464.83
927.577	5278.47
927.754	5106.44
927.93	5763.84
928.107	5700.35
928.283	5194.5
928.459	5272.32
928.636	5581.57
928.812	5290.76
928.988	4967.18
929.165	5036.81
929.341	5397.25
929.517	5438.21
929.693	5430.02
929.87	4731.66
930.046	5395.2
930.222	5229.32
930.398	4821.77
930.574	5157.64
930.751	5235.46
930.927	5034.76
931.103	4940.55
931.279	4872.97
931.455	4891.4
931.631	5223.17
931.807	4762.38
931.983	4807.44
932.159	4639.5
932.335	5090.06
932.511	4748.04
932.687	4598.54
932.863	5032.71
933.039	4877.07
933.215	4487.95
933.391	4412.18
933.566	4819.72
933.742	4909.83
933.918	4657.93
934.094	4272.92
934.27	4825.87
934.445	4659.98
934.621	4659.98
934.797	4352.79
934.973	4758.28
935.148	4596.5
935.324	4000.54
935.5	3939.1
935.675	4492.05
935.851	4492.05
936.027	3971.86
936.202	4033.3
936.378	4252.44
936.553	3996.44
936.729	4256.53
936.904	3648.29
937.08	3709.72
937.255	3869.47
937.431	3676.96
937.606	3529.5
937.782	3703.58
937.957	3707.68
938.133	3552.03
938.308	3312.42
938.483	3554.08
938.659	3267.36
938.834	3423.01
939.009	3226.4
939.185	3406.63
939.36	3148.58
939.535	2812.71
939.71	3197.73
939.886	3605.28
940.061	3420.96
940.236	3382.05
940.411	3021.61
940.586	3253.03
940.761	3169.06
940.937	2939.69
941.112	2859.82
941.287	3072.81
941.462	3048.23
941.637	2710.32
941.812	2681.64
941.987	2911.02
942.162	2775.85
942.337	2806.57
942.512	2638.64
942.687	3050.28
942.862	3146.53
943.037	2556.72
943.212	2439.98
943.386	2745.13
943.561	2892.59
943.736	2767.66
943.911	2804.52
944.086	3099.43
944.26	2937.64
944.435	2620.21
944.61	2652.97
944.785	3107.62
944.959	3271.46
945.134	2620.21
945.309	2644.78
945.483	2521.9
945.658	3162.92
945.833	2255.67
946.007	2313.01
946.182	3099.43
946.357	2564.91
946.531	2472.75
946.706	2487.09
946.88	2462.51
947.055	2878.25
947.229	2415.41
947.404	2542.38
947.578	3058.47
947.752	2677.55
947.927	2407.22
948.101	2364.21
948.276	2992.94
948.45	2810.67
948.624	2714.41
948.799	2634.54
948.973	2839.34
949.147	2724.65
949.321	2792.23
949.496	2575.15
949.67	3060.52
949.844	2857.77
950.018	2700.08
950.193	2755.37
950.367	3398.43
950.541	2841.39
950.715	2962.22
950.889	2896.68
951.063	2786.09
951.237	3226.4
951.411	2452.27
951.585	2489.14
951.759	2892.59
951.933	2925.35
952.107	2685.74
952.281	2939.69
952.455	3357.47
952.629	3193.64
952.803	2788.14
952.977	2820.91
953.151	3134.25
953.325	3175.2
953.499	3074.85
953.672	2794.28
953.846	2872.11
954.02	2921.26
954.194	2825
954.368	2822.95
954.541	3287.84
954.715	2788.14
954.889	2937.64
955.062	2693.93
955.236	3066.66
955.41	2968.36
955.583	3115.81
955.757	2753.32
955.93	3124.01
956.104	2734.89
956.278	2863.91
956.451	2925.35
956.625	3201.83
956.798	3533.6
956.972	3271.46
957.145	2861.87
957.319	3164.97
957.492	3111.72
957.665	3158.82
957.839	2685.74
958.012	3283.75
958.185	2966.31
958.359	3009.32
958.532	3019.56
958.705	3427.11
958.879	3228.45
959.052	3050.28
959.225	2806.57
959.398	3150.63
959.572	3156.77
959.745	2986.79
959.918	2984.74
960.091	3124.01
960.264	3314.47
960.438	2775.85
960.611	2921.26
960.784	3336.99
960.957	3068.71
961.13	3253.03
961.303	2947.88
961.476	3191.59
961.649	3388.19
961.822	2898.73
961.995	3050.28
962.168	3336.99
962.341	3201.83
962.514	3029.8
962.686	2990.89
962.859	3242.79
963.032	3416.87
963.205	2951.98
963.378	2825
963.551	3210.02
963.723	3064.61
963.896	3076.9
964.069	3119.91
964.242	3189.54
964.414	3296.04
964.587	3040.04
964.76	2919.21
964.932	3144.49
965.105	3177.25
965.278	3007.27
965.45	2829.1
965.623	3119.91
965.795	3214.12
965.968	2900.78
966.14	2870.06
966.313	3009.32
966.485	3199.78
966.658	2913.06
966.83	2980.65
967.003	3382.05
967.175	3218.21
967.348	2845.48
967.52	2968.36
967.692	3437.34
967.865	3265.32
968.037	2874.15
968.209	2978.6
968.382	2978.6
968.554	3259.17
968.726	2872.11
968.898	2702.12
969.071	3083.05
969.243	3220.26
969.415	2761.52
969.587	2790.19
969.759	3513.12
969.932	3214.12
970.104	2927.4
970.276	2394.93
970.448	3019.56
970.62	2743.08
970.792	2874.15
970.964	2722.6
971.136	3380
971.308	3099.43
971.48	2673.45
971.652	2659.12
971.824	3336.99
971.996	2880.3
972.168	2730.8
972.339	2728.75
972.511	3146.53
972.683	2781.99
972.855	3033.9
973.027	2661.16
973.199	2890.54
973.37	3013.42
973.542	2857.77
973.714	2945.83
973.886	2859.82
974.057	3138.34
974.229	2517.81
974.401	2683.69
974.572	2710.32
974.744	2401.07
974.915	2755.37
975.087	2597.68
975.259	3214.12
975.43	2716.46
975.602	2581.29
975.773	2548.53
975.945	2714.41
976.116	2972.46
976.288	2603.82
976.459	2790.19
976.63	2759.47
976.802	2960.17
976.973	2513.71
977.145	2693.93
977.316	3302.18
977.487	3095.33
977.659	2745.13
977.83	2546.48
978.001	3287.84
978.172	2853.67
978.344	2616.11
978.515	2589.49
978.686	2612.01
978.857	3042.09
979.028	2603.82
979.2	2386.74
979.371	2849.58
979.542	2820.91
979.713	2624.3
979.884	2014.01
980.055	2569.01
980.226	2636.59
980.397	2499.38
980.568	2482.99
980.739	2968.36
980.91	2708.27
981.081	2521.9
981.252	2448.18
981.423	2749.23
981.594	2906.92
981.765	2212.66
981.936	2364.21
982.106	2624.3
982.277	2921.26
982.448	2173.75
982.619	2526
982.79	2405.17
982.96	2753.32
983.131	2550.57
983.302	2130.74
983.472	2472.75
983.643	2657.07
983.814	2427.7
983.984	2308.91
984.155	2439.98
984.326	2757.42
984.496	2394.93
984.667	2439.98
984.837	2415.41
985.008	2671.4
985.178	2476.85
985.349	2337.59
985.519	2382.64
985.69	2372.4
985.86	2304.82
986.031	2046.77
986.201	2382.64
986.371	2431.79
986.542	2022.2
986.712	2028.34
986.882	2482.99
987.053	2493.23
987.223	1907.51
987.393	2288.43
987.563	2278.19
987.734	2554.67
987.904	2452.27
988.074	1954.62
988.244	2362.16
988.414	2169.65
988.585	2067.25
988.755	2128.69
988.925	2224.95
989.095	2702.12
989.265	1973.05
989.435	2138.93
989.605	2313.01
989.775	2394.93
989.945	2362.16
990.115	1944.38
990.285	2276.15
990.455	2186.04
990.625	1999.67
990.795	1973.05
990.965	2501.42
991.134	2042.68
991.304	1907.51
991.474	1958.71
991.644	2210.61
991.814	2595.63
991.984	1833.79
992.153	1848.12
992.323	2155.32
992.493	2229.04
992.662	1735.48
992.832	2059.06
993.002	2212.66
993.171	2130.74
993.341	1729.34
993.511	1934.14
993.68	1948.47
993.85	2102.07
994.019	1651.52
994.189	1772.35
994.358	2040.63
994.528	1909.56
994.697	1518.4
994.867	1674.04
995.036	2173.75
995.206	2014.01
995.375	1719.1
995.544	1893.18
995.714	1936.18
995.883	1907.51
996.052	1858.36
996.222	1444.67
996.391	2407.22
996.56	2009.91
996.73	1694.52
996.899	1514.3
997.068	2394.93
997.237	1975.1
997.406	1551.17
997.576	1499.97
997.745	1923.9
997.914	2169.65
998.083	1395.52
998.252	1606.46
998.421	1860.41
998.59	1665.85
998.759	1616.7
998.928	1413.95
999.097	2126.64
999.266	1860.41
999.435	1729.34
999.604	1395.52
999.773	2251.57
999.942	1817.4
1000.111	1338.18
1000.28	1307.46
1000.448	1600.32
1000.617	1628.99
1000.786	1725.24
1000.955	1485.63
1001.124	1897.27
1001.292	2341.68
1001.461	1329.99
1001.63	1391.42
1001.798	2179.89
1001.967	2091.83
1002.136	1301.31
1002.304	1393.47
1002.473	1760.06
1002.642	1633.08
1002.81	1319.75
1002.979	1375.04
1003.147	1829.69
1003.316	2284.34
1003.484	1370.94
1003.653	1239.87
1003.821	1858.36
1003.99	1649.47
1004.158	1428.29
1004.327	1465.15
1004.495	1735.48
1004.663	1512.25
1004.832	1516.35
1005	1284.93
1005.168	1706.81
1005.337	1676.09
1005.505	1235.78
1005.673	1522.49
1005.842	1702.72
1006.01	1477.44
1006.178	1067.85
1006.346	1082.18
1006.514	1596.22
1006.683	1915.7
1006.851	1164.1
1007.019	1256.26
1007.187	1358.66
1007.355	1076.04
1007.523	1030.98
1007.691	1053.51
1007.859	1260.35
1008.027	1854.27
1008.195	1209.15
1008.363	957.25
1008.531	1588.03
1008.699	1186.63
1008.867	953.16
1009.035	1030.98
1009.203	1753.91
1009.37	1504.06
1009.538	1178.44
1009.706	1610.56
1009.874	1452.86
1010.042	1362.75
1010.209	985.93
1010.377	977.73
1010.545	1602.36
1010.713	1395.52
1010.88	1047.37
1011.048	1129.28
1011.216	1246.02
1011.383	1596.22
1011.551	916.3
1011.718	975.69
1011.886	1526.59
1012.054	1360.7
1012.221	930.63
1012.389	975.69
1012.556	1252.16
1012.724	1774.39
1012.891	1110.85
1013.058	830.28
1013.226	1469.25
1013.393	1491.77
1013.561	828.23
1013.728	774.99
1013.895	1520.45
1014.063	1358.66
1014.23	820.04
1014.397	863.05
1014.565	1495.87
1014.732	1133.38
1014.899	871.24
1015.066	621.39
1015.233	1221.44
1015.401	1350.46
1015.568	930.63
1015.735	914.25
1015.902	1203.01
1016.069	1194.82
1016.236	813.9
1016.403	809.8
1016.57	983.88
1016.737	1481.53
1016.904	817.99
1017.071	731.98
1017.238	1012.55
1017.405	1346.37
1017.572	764.75
1017.739	994.12
1017.906	1264.45
1018.073	1262.4
1018.24	666.44
1018.407	836.42
1018.573	1446.72
1018.74	1069.89
1018.907	811.85
1019.074	514.89
1019.241	1274.69
1019.407	1160
1019.574	580.43
1019.741	664.4
1019.907	1141.57
1020.074	1170.24
1020.241	578.38
1020.407	631.63
1020.574	1088.32
1020.74	1239.87
1020.907	686.92
1021.073	570.19
1021.24	1514.3
1021.406	1329.99
1021.573	568.14
1021.739	652.11
1021.906	1289.03
1022.072	944.97
1022.239	658.25
1022.405	613.2
1022.571	1002.31
1022.738	760.65
1022.904	592.72
1023.07	654.16
1023.237	965.45
1023.403	1227.59
1023.569	695.11
1023.735	666.44
1023.902	1008.45
1024.068	967.49
1024.234	412.5
1024.4	557.9
1024.566	1051.46
1024.732	1194.82
1024.898	623.44
1025.065	371.54
1025.231	1106.76
1025.397	858.95
1025.563	535.37
1025.729	437.07
1025.895	553.8
1026.061	617.29
1026.227	379.73
1026.392	551.76
1026.558	1108.8
1026.724	1004.36
1026.89	502.61
1027.056	600.91
1027.222	1022.79
1027.388	858.95
1027.553	443.21
1027.719	529.23
1027.885	1315.65
1028.051	969.54
1028.216	297.81
1028.382	570.19
1028.548	1059.65
1028.713	744.27
1028.879	424.78
1029.045	703.31
1029.21	1149.76
1029.376	1078.08
1029.541	492.37
1029.707	457.55
1029.873	973.64
1030.038	1076.04
1030.204	414.54
1030.369	537.42
1030.534	1037.13
1030.7	756.55
1030.865	453.45
1031.031	398.16
1031.196	965.45
1031.361	828.23
1031.527	475.98
1031.692	338.77
1031.857	406.35
1032.023	871.24
1032.188	326.48
1032.353	496.46
1032.518	1110.85
1032.684	869.19
1032.849	162.64
1033.014	394.06
1033.179	994.12
1033.344	850.76
1033.509	490.32
1033.674	435.02
1033.839	936.78
1034.004	1002.31
1034.17	389.97
1034.335	262.99
1034.5	660.3
1034.664	547.66
1034.829	406.35
1034.994	357.2
1035.159	772.94
1035.324	731.98
1035.489	412.5
1035.654	349.01
1035.819	1051.46
1035.984	746.31
1036.148	373.58
1036.313	344.91
1036.478	883.53
1036.643	766.79
1036.807	383.82
1036.972	258.9
1037.137	1014.6
1037.301	652.11
1037.466	117.59
1037.631	385.87
1037.795	979.78
1037.96	734.03
1038.124	490.32
1038.289	209.75
1038.454	777.03
1038.618	795.47
1038.783	322.38
1038.947	471.89
1039.111	797.51
1039.276	557.9
1039.44	285.52
1039.605	744.27
1039.769	566.09
1039.933	701.26
1040.098	344.91
1040.262	576.33
1040.426	926.54
1040.591	772.94
1040.755	185.17
1040.919	281.43
1041.083	721.74
1041.248	617.29
1041.412	97.11
1041.576	215.89
1041.74	553.8
1041.904	858.95
1042.068	158.55
1042.232	224.08
1042.397	795.47
1042.561	707.4
1042.725	4.95
1042.889	351.06
1043.053	897.86
1043.217	701.26
1043.381	338.77
1043.544	95.06
1043.708	940.87
1043.872	359.25
1044.036	76.63
1044.2	103.25
1044.364	865.1
1044.528	875.34
1044.691	1610.56
1044.855	125.78
1045.019	963.4
1045.183	719.69
1045.346	314.19
1045.51	199.51
1045.674	662.35
1045.837	715.59
1046.001	201.55
1046.165	213.84
1046.328	1080.13
1046.492	613.2
1046.655	320.34
1046.819	232.27
1046.983	338.77
1047.146	633.68
1047.31	185.17
1047.473	39.76
1047.636	506.7
1047.8	306
1047.963	176.98
1048.127	150.36
1048.29	349.01
