Data from Hydrogel_Ink_Intensity_Test_1_USB4F045381__4__00004.txt Node

Date: Mon Jul 31 10:35:32 EDT 2023
User: mmckonesweet
Spectrometer: USB4F04538
Trigger mode: 4
Integration Time (sec): 9.000000E-1
Scans to average: 1
Electric dark correction enabled: true
Nonlinearity correction enabled: false
Boxcar width: 0
XAxis mode: Wavelengths
Number of Pixels in Spectrum: 3648
>>>>>Begin Spectral Data<<<<<
345.52	-964.08
345.736	-964.08
345.952	-964.08
346.168	-861.68
346.384	-910.83
346.6	-151.04
346.816	-214.52
347.032	-249.34
347.248	268.8
347.464	-148.99
347.68	-52.74
347.896	102.91
348.112	358.91
348.328	-97.79
348.544	-97.79
348.76	57.86
348.975	223.74
349.191	-122.37
349.407	-99.84
349.623	53.76
349.839	-108.03
350.055	-3.58
350.27	178.69
350.486	203.26
350.702	383.48
350.918	291.32
351.133	-67.07
351.349	193.02
351.565	440.83
351.781	-138.75
351.996	68.09
352.212	446.97
352.428	-83.45
352.644	-103.93
352.859	-42.5
353.075	354.81
353.291	-30.21
353.506	-54.78
353.722	-189.95
353.938	-22.02
354.153	461.3
354.369	180.73
354.584	-155.13
354.8	332.28
355.016	-261.63
355.231	-99.84
355.447	31.23
355.662	219.64
355.878	965.11
356.093	-237.05
356.309	37.38
356.524	-230.91
356.74	184.83
356.955	-89.6
357.171	96.77
357.386	178.69
357.602	-48.64
357.817	72.19
358.033	-87.55
358.248	399.87
358.464	256.51
358.679	61.95
358.895	-175.61
359.11	57.86
359.325	457.21
359.541	375.29
359.756	107.01
359.972	-259.58
360.187	201.21
360.402	-60.93
360.618	-26.11
360.833	936.43
361.048	215.55
361.264	10.75
361.479	53.76
361.694	68.09
361.909	248.32
362.125	-52.74
362.34	-60.93
362.555	336.38
362.77	150.01
362.986	-181.76
363.201	-34.3
363.416	219.64
363.631	197.12
363.847	-114.17
364.062	-85.5
364.277	104.96
364.492	213.5
364.707	47.62
364.922	-302.59
365.138	303.61
365.353	418.3
365.568	-46.59
365.783	-36.35
365.998	201.21
366.213	573.94
366.428	-144.89
366.643	238.08
366.858	391.67
367.073	274.94
367.288	18.94
367.503	-105.98
367.718	190.97
367.933	317.95
368.148	-122.37
368.363	49.66
368.578	86.53
368.793	543.22
369.008	39.42
369.223	-73.21
369.438	297.47
369.653	479.74
369.868	-128.51
370.083	-38.4
370.298	133.63
370.513	481.78
370.728	82.43
370.943	-17.92
371.157	-42.5
371.372	698.87
371.587	-136.7
371.802	-120.32
372.017	135.68
372.232	602.61
372.446	125.44
372.661	-118.27
372.876	408.06
373.091	285.18
373.306	104.96
373.52	-77.31
373.735	133.63
373.95	510.46
374.165	82.43
374.379	115.2
374.594	125.44
374.809	238.08
375.023	186.88
375.238	-75.26
375.453	360.95
375.667	-132.61
375.882	51.71
376.097	-73.21
376.311	195.07
376.526	145.92
376.741	-101.89
376.955	283.13
377.17	764.4
377.384	637.43
377.599	193.02
377.813	-93.69
378.028	647.67
378.242	313.85
378.457	121.34
378.672	-89.6
378.886	223.74
379.101	94.72
379.315	-48.64
379.53	2.56
379.744	365.05
379.958	436.73
380.173	29.18
380.387	43.52
380.602	367.1
380.816	76.29
381.031	115.2
381.245	94.72
381.459	328.19
381.674	2732.5
381.888	68.09
382.103	358.91
382.317	23.04
382.531	735.73
382.746	131.58
382.96	96.77
383.174	-19.97
383.388	565.75
383.603	453.11
383.817	-40.45
384.031	365.05
384.246	700.92
384.46	225.79
384.674	504.31
384.888	301.56
385.103	262.65
385.317	35.33
385.531	266.75
385.745	623.09
385.959	545.27
386.174	107.01
386.388	49.66
386.602	203.26
386.816	139.77
387.03	217.6
387.244	227.84
387.458	303.61
387.672	590.33
387.887	-9.73
388.101	2.56
388.315	625.14
388.529	416.25
388.743	156.16
388.957	131.58
389.171	637.43
389.385	111.1
389.599	207.36
389.813	426.49
390.027	377.34
390.241	1006.06
390.455	215.55
390.669	217.6
390.883	217.6
391.097	793.08
391.311	350.71
391.525	205.31
391.738	543.22
391.952	522.74
392.166	320
392.38	158.21
392.594	637.43
392.808	639.48
393.022	381.43
393.236	328.19
393.449	508.41
393.663	446.97
393.877	197.12
394.091	338.43
394.305	242.17
394.518	295.42
394.732	164.35
394.946	344.57
395.16	782.84
395.373	426.49
395.587	195.07
395.801	176.64
396.015	633.33
396.228	596.47
396.442	166.4
396.656	135.68
396.869	731.64
397.083	825.84
397.297	317.95
397.51	252.41
397.724	791.03
397.938	590.33
398.151	135.68
398.365	182.78
398.578	602.61
398.792	795.12
399.005	510.46
399.219	365.05
399.433	471.54
399.646	629.24
399.86	483.83
400.073	485.88
400.287	707.06
400.5	449.02
400.714	434.68
400.927	379.39
401.141	627.19
401.354	1475.05
401.567	647.67
401.781	254.46
401.994	893.43
402.208	1135.09
402.421	453.11
402.635	575.99
402.848	596.47
403.061	786.93
403.275	602.61
403.488	342.52
403.701	991.73
403.915	731.64
404.128	553.46
404.341	412.15
404.555	692.73
404.768	559.61
404.981	592.37
405.195	416.25
405.408	1122.8
405.621	868.85
405.834	619
406.048	449.02
406.261	1022.45
406.474	1059.31
406.687	401.91
406.9	662.01
407.114	657.91
407.327	782.84
407.54	352.76
407.753	430.59
407.966	463.35
408.179	858.61
408.392	418.3
408.605	408.06
408.819	803.32
409.032	903.67
409.245	530.94
409.458	711.16
409.671	932.34
409.884	973.3
410.097	465.4
410.31	760.31
410.523	834.04
410.736	666.1
410.949	727.54
411.162	694.77
411.375	1155.57
411.588	1030.64
411.801	801.27
412.014	619
412.227	735.73
412.44	664.05
412.653	637.43
412.865	809.46
413.078	1022.45
413.291	985.58
413.504	766.45
413.717	635.38
413.93	1051.12
414.143	621.05
414.356	764.4
414.568	537.08
414.781	1090.03
414.994	948.72
415.207	715.25
415.42	856.56
415.632	1104.37
415.845	1278.44
416.058	551.42
416.271	588.28
416.483	1014.26
416.696	1296.88
416.909	717.3
417.121	625.14
417.334	1165.81
417.547	1378.79
417.759	823.8
417.972	680.44
418.185	938.48
418.397	1206.77
418.61	715.25
418.823	819.7
419.035	1311.21
419.248	963.06
419.46	932.34
419.673	823.8
419.885	1155.57
420.098	840.18
420.311	930.29
420.523	645.62
420.736	1210.86
420.948	991.73
421.161	899.57
421.373	752.12
421.586	1036.78
421.798	870.9
422.01	782.84
422.223	1004.02
422.435	958.96
422.648	1176.05
422.86	1038.83
423.073	840.18
423.285	1374.7
423.497	848.37
423.71	977.39
423.922	856.56
424.134	1272.3
424.347	1405.42
424.559	1225.2
424.771	1208.81
424.984	1092.08
425.196	1176.05
425.408	803.32
425.621	967.15
425.833	1429.99
426.045	1479.15
426.257	991.73
426.47	1042.93
426.682	1323.5
426.894	1419.75
427.106	989.68
427.318	1130.99
427.531	1042.93
427.743	1378.79
427.955	1008.11
428.167	1440.23
428.379	1432.04
428.591	1151.47
428.804	1229.29
429.016	1108.46
429.228	1171.95
429.44	1352.17
429.652	1384.94
429.864	879.09
430.076	1307.12
430.288	1366.51
430.5	1321.45
430.712	1384.94
430.924	1763.81
431.136	1473
431.348	1145.33
431.56	1268.2
431.772	1452.52
431.984	1358.32
432.196	1147.37
432.408	1382.89
432.62	1399.27
432.832	1702.37
433.044	1550.82
433.256	1395.18
433.468	1571.3
433.679	1280.49
433.891	1212.91
434.103	1530.34
434.315	1878.5
434.527	1833.44
434.739	1442.28
434.95	1694.18
435.162	1821.16
435.374	1520.1
435.586	1505.77
435.798	1475.05
436.009	1362.41
436.221	1620.46
436.433	1579.5
436.645	1624.55
436.856	1563.11
437.068	2030.05
437.28	1409.51
437.491	1708.52
437.703	1997.28
437.915	1763.81
438.126	1749.48
438.338	1870.31
438.55	1810.92
438.761	1911.27
438.973	1690.09
439.184	1792.48
439.396	1751.53
439.608	2021.86
439.819	1509.86
440.031	1714.66
440.242	1980.9
440.454	1980.9
440.665	1815.01
440.877	1843.68
441.088	2054.62
441.3	1827.3
441.511	1630.7
441.723	1688.04
441.934	1999.33
442.146	2036.19
442.357	1956.32
442.569	2075.1
442.78	1970.66
442.991	2263.52
443.203	2230.75
443.414	1763.81
443.626	2273.76
443.837	1882.6
444.048	1812.96
444.26	1747.43
444.471	2050.53
444.682	2271.71
444.894	1780.2
445.105	1735.14
445.316	2144.74
445.528	2269.66
445.739	2042.34
445.95	1993.19
446.161	2232.8
446.373	2351.58
446.584	1995.23
446.795	2048.48
447.006	2367.96
447.217	2437.59
447.429	1874.4
447.64	1950.18
447.851	2404.83
448.062	2263.52
448.273	1886.69
448.484	2058.72
448.695	2214.37
448.907	2150.88
449.118	2200.03
449.329	2273.76
449.54	2204.13
449.751	2044.38
449.962	2071.01
450.173	2036.19
450.384	2605.53
450.595	2599.38
450.806	2165.21
451.017	2245.09
451.228	2652.63
451.439	2662.87
451.65	2228.7
451.861	1997.28
452.072	2200.03
452.283	2492.89
452.494	2574.81
452.705	2247.13
452.915	2935.25
453.126	2656.73
453.337	2388.44
453.548	2396.64
453.759	2873.81
453.97	3060.18
454.181	2664.92
454.391	2634.2
454.602	2720.21
454.813	2769.37
455.024	2603.48
455.235	2552.28
455.445	2734.55
455.656	2939.35
455.867	2732.5
456.078	2595.29
456.288	2617.82
456.499	3000.79
456.71	2472.41
456.921	2865.62
457.131	3070.42
457.342	2861.52
457.553	2771.41
457.763	2599.38
457.974	3078.61
458.184	3082.7
458.395	2793.94
458.606	2732.5
458.816	3281.36
459.027	3559.88
459.237	3066.32
459.448	2867.67
459.659	3367.37
459.869	3697.1
460.08	2777.56
460.29	3242.45
460.501	3668.42
460.711	3140.05
460.922	2945.49
461.132	3199.44
461.343	3940.8
461.553	3078.61
461.764	3244.49
461.974	3291.6
462.184	3525.07
462.395	3664.33
462.605	3465.68
462.816	3297.74
463.026	3537.35
463.236	3824.07
463.447	3416.52
463.657	3387.85
463.867	3852.74
464.078	3525.07
464.288	3615.18
464.498	3463.63
464.709	3899.84
464.919	3785.16
465.129	3625.42
465.339	3649.99
465.55	4104.64
465.76	4110.79
465.97	3772.87
466.18	3748.29
466.391	4309.44
466.601	4090.31
466.811	3977.67
467.021	3924.42
467.231	4360.64
467.441	4288.96
467.651	4059.59
467.862	3967.43
468.072	4340.16
468.282	4870.58
468.492	4360.64
468.702	4448.7
468.912	4499.9
469.122	5089.71
469.332	4809.14
469.542	4401.6
469.752	4999.6
469.962	4862.39
470.172	4600.25
470.382	4557.24
470.592	5128.63
470.802	5153.2
471.012	4972.98
471.222	4923.83
471.432	5398.96
471.642	5468.59
471.852	5224.88
472.062	5056.95
472.272	5169.59
472.482	5091.76
472.691	5327.28
472.901	5153.2
473.111	5573.03
473.321	5994.92
473.531	5372.33
473.741	5562.8
473.95	5974.44
474.16	6023.59
474.37	5775.78
474.58	5630.38
474.79	6506.91
474.999	6343.07
475.209	5808.55
475.419	6023.59
475.628	6308.26
475.838	6594.97
476.048	6267.3
476.258	6185.38
476.467	6961.56
476.677	6455.71
476.886	6635.93
477.096	6748.57
477.306	6828.44
477.515	7084.44
477.725	6672.79
477.935	6873.5
478.144	7305.62
478.354	6936.98
478.563	7072.15
478.773	7168.4
478.982	7627.15
479.192	7668.11
479.401	7424.4
479.611	7399.82
479.82	7438.73
480.03	7721.35
480.239	7647.63
480.449	7582.09
480.658	8475.01
480.868	8081.8
481.077	8034.69
481.287	7778.7
481.496	8462.72
481.705	8575.36
481.915	8427.9
482.124	8518.01
482.333	8372.61
482.543	8788.35
482.752	8550.78
482.961	8384.9
483.171	8714.62
483.38	8827.26
483.589	9152.88
483.799	8579.45
484.008	9120.12
484.217	9228.66
484.426	8911.22
484.636	8888.7
484.845	9462.13
485.054	9073.01
485.263	9609.58
485.472	9195.89
485.682	9779.56
485.891	9562.48
486.1	9425.26
486.309	9369.97
486.518	9591.15
486.727	9972.07
486.936	9738.6
487.146	9732.46
487.355	10312.03
487.564	10041.7
487.773	10019.18
487.982	10010.98
488.191	10111.33
488.4	10209.64
488.609	10336.61
488.818	10537.31
489.027	11174.23
489.236	11217.24
489.445	10719.58
489.654	10541.41
489.863	11352.4
490.072	11055.45
490.281	11102.55
490.49	10729.82
490.698	11440.47
490.907	11522.38
491.116	11241.81
491.325	10897.75
491.534	11940.17
491.743	11620.69
491.952	11198.81
492.16	11575.63
492.369	11675.98
492.578	11870.54
492.787	11456.85
492.996	11213.14
493.204	11835.72
493.413	12337.48
493.622	11794.76
493.831	11549.01
494.039	12429.63
494.248	11888.97
494.457	12017.99
494.665	11882.83
494.874	12511.55
495.083	12626.24
495.291	12112.2
495.5	12339.52
495.709	12738.88
495.917	12667.2
496.126	12728.64
496.335	12642.62
496.543	12652.86
496.752	13144.38
496.96	13064.5
497.169	12753.21
497.377	13072.7
497.586	13404.47
497.794	13257.01
498.003	12835.13
498.211	13082.94
498.42	13779.25
498.628	13453.62
498.837	13162.81
499.045	13908.27
499.254	13687.09
499.462	13300.02
499.671	13650.22
499.879	14149.93
500.087	14194.98
500.296	13652.27
500.504	13500.72
500.713	13711.66
500.921	14735.65
501.129	13732.14
501.338	13648.18
501.546	14340.39
501.754	14182.7
501.962	14018.86
502.171	14080.3
502.379	14573.86
502.587	14891.29
502.795	14446.88
503.004	14229.8
503.212	14803.23
503.42	15059.23
503.628	14227.75
503.837	14866.72
504.045	14799.13
504.253	15388.95
504.461	14670.11
504.669	14539.04
504.877	15135
505.085	15450.39
505.294	14807.33
505.502	14827.81
505.71	15411.48
505.918	15368.47
506.126	15038.75
506.334	14698.78
506.542	15395.09
506.75	15446.29
506.958	15214.87
507.166	15130.91
507.374	15421.72
507.582	15913.23
507.79	15513.88
507.998	15382.81
508.206	15997.2
508.414	15808.78
508.622	15614.23
508.83	15454.48
509.037	16349.45
509.245	15581.46
509.453	15585.55
509.661	15859.98
509.869	16359.69
510.077	16015.63
510.285	15956.24
510.492	15616.27
510.7	16834.82
510.908	16038.16
511.116	16060.68
511.324	16111.88
511.531	16296.2
511.739	16386.31
511.947	16095.5
512.155	16734.46
512.362	16568.58
512.57	16077.07
512.778	16212.23
512.985	16324.87
513.193	16810.24
513.401	17207.55
513.608	16734.46
513.816	16677.12
514.024	16892.16
514.231	17039.61
514.439	16750.85
514.646	16695.55
514.854	17242.36
515.061	17119.48
515.269	16783.62
515.477	16974.08
515.684	16951.55
515.892	17240.31
516.099	16883.97
516.307	16916.73
516.514	17488.12
516.722	17785.07
516.929	16963.84
517.136	17178.87
517.344	17492.21
517.551	17598.71
517.759	17232.12
517.966	17275.13
518.173	17514.74
518.381	17740.02
518.588	17639.67
518.796	17584.37
519.003	18043.12
519.21	18049.26
519.418	17729.78
519.625	18000.11
519.832	17950.96
520.039	18153.71
520.247	17967.34
520.454	18098.41
520.661	18634.98
520.868	18327.78
521.076	18198.76
521.283	18245.87
521.49	18843.87
521.697	18399.46
521.904	18256.11
522.112	18368.74
522.319	18755.81
522.526	18460.9
522.733	18641.12
522.94	18397.42
523.147	18499.81
523.354	18858.21
523.561	18604.26
523.768	18708.71
523.975	19564.76
524.183	19353.82
524.39	18854.11
524.597	18970.85
524.804	19167.45
525.011	18878.69
525.218	19130.59
525.425	19257.56
525.632	19697.88
525.838	19372.25
526.045	19220.7
526.252	19165.4
526.459	20562.12
526.666	20539.59
526.873	19454.17
527.08	19484.89
527.287	20048.08
527.494	19736.79
527.701	19591.38
527.907	19644.63
528.114	19912.91
528.321	19785.94
528.528	19710.16
528.735	19679.44
528.941	19880.14
529.148	19812.56
529.355	20048.08
529.562	19538.13
529.768	20529.35
529.975	19837.14
530.182	20381.9
530.388	20000.97
530.595	20596.93
530.802	20181.2
531.008	20359.37
531.215	20238.54
531.422	21502.14
531.628	20930.75
531.835	20558.02
532.042	20445.38
532.248	20746.44
532.455	20981.95
532.661	20723.91
532.868	20625.61
533.074	20963.52
533.281	21244.09
533.487	21047.49
533.694	20582.6
533.9	21121.21
534.107	21209.28
534.313	21016.77
534.52	21035.2
534.726	21614.77
534.933	22050.99
535.139	21029.06
535.345	21491.9
535.552	21573.81
535.758	21530.81
535.965	21596.34
536.171	21323.96
536.377	21971.12
536.584	22198.45
536.79	21545.14
536.996	21780.66
537.203	22061.23
537.409	22128.81
537.615	21944.5
537.821	21737.65
538.028	22565.03
538.234	22456.49
538.44	22030.51
538.646	21711.03
538.853	22450.35
539.059	22214.83
539.265	22466.73
539.471	22014.13
539.677	22673.57
539.883	22540.46
540.09	22300.84
540.296	22864.04
540.502	22722.73
540.708	22646.95
540.914	22661.29
541.12	22630.57
541.326	23165.09
541.532	22948
541.738	23023.78
541.944	23171.23
542.15	23507.1
542.356	23322.78
542.562	22886.56
542.768	22980.77
542.974	23857.3
543.18	24098.96
543.386	23269.53
543.592	23451.8
543.798	23718.04
544.004	23814.29
544.21	23566.49
544.415	23285.92
544.621	23756.95
544.827	23697.56
545.033	23603.35
545.239	23791.76
545.445	24082.58
545.651	24111.25
545.856	23955.6
546.062	24123.54
546.268	24092.82
546.474	24150.16
546.679	23529.62
546.885	23982.23
547.091	24170.64
547.297	24469.64
547.502	23877.78
547.708	24037.52
547.914	24221.84
548.119	24281.23
548.325	23898.26
548.531	23543.96
548.736	24598.66
548.942	24199.31
549.147	23777.43
549.353	24189.07
549.559	24885.38
549.764	24848.52
549.97	24070.29
550.175	24486.03
550.381	24658.06
550.586	24463.5
550.792	24574.09
550.997	24881.28
551.203	24891.52
551.408	24920.2
551.614	24592.52
551.819	24592.52
552.025	25358.46
552.23	25704.57
552.435	25346.17
552.641	25831.54
552.846	25108.61
553.052	25890.93
553.257	25403.52
553.462	25057.41
553.668	25147.52
553.873	25954.42
554.078	25565.31
554.283	25340.03
554.489	25788.53
554.694	25456.76
554.899	25569.4
555.105	25806.97
555.31	26079.35
555.515	26134.64
555.72	25772.15
555.925	25706.62
556.131	26300.53
556.336	26196.08
556.541	25796.73
556.746	25745.53
556.951	26095.73
557.156	26183.79
557.361	26050.67
557.567	26253.42
557.772	26976.36
557.977	26312.81
558.182	25964.66
558.387	26124.4
558.592	26298.48
558.797	26691.69
559.002	26409.07
559.207	26634.35
559.412	26501.23
559.617	26638.44
559.822	26515.56
560.027	25946.23
560.232	26501.23
560.437	26730.6
560.642	26249.33
560.847	26370.16
561.051	26916.97
561.256	26886.25
561.461	26679.4
561.666	26769.51
561.871	26814.57
562.076	27019.36
562.281	26675.3
562.485	26615.91
562.69	27422.81
562.895	26822.76
563.1	26654.83
563.305	26873.96
563.509	27615.32
563.714	27676.76
563.919	26703.98
564.123	26841.19
564.328	27402.33
564.533	27764.82
564.737	26855.53
564.942	27127.91
565.147	27852.89
565.351	28074.07
565.556	27287.65
565.761	27498.59
565.965	27340.89
566.17	27379.81
566.374	27193.44
566.579	27388
566.784	27547.74
566.988	27414.62
567.193	27142.24
567.397	27588.7
567.602	27390.05
567.806	27770.97
568.011	27695.19
568.215	27803.74
568.42	27707.48
568.624	28084.31
568.828	27441.25
569.033	27703.39
569.237	28205.14
569.442	28178.51
569.646	27592.79
569.85	28053.59
570.055	27973.72
570.259	28180.56
570.463	28360.78
570.668	28100.69
570.872	28278.86
571.076	28282.96
571.281	28258.38
571.485	28524.62
571.689	28205.14
571.893	28448.85
572.098	28375.12
572.302	28313.68
572.506	28753.99
572.71	28678.22
572.914	28541
573.119	28713.03
573.323	28692.55
573.527	29016.13
573.731	28536.91
573.935	28891.21
574.139	28985.41
574.343	28502.09
574.547	28817.48
574.751	28956.74
574.955	29366.34
575.159	29450.3
575.364	28590.16
575.568	28952.65
575.772	28987.46
575.976	29513.79
576.18	28747.85
576.383	28852.3
576.587	30054.45
576.791	29780.03
576.995	29018.18
577.199	29046.85
577.403	29442.11
577.607	29898.81
577.811	29308.99
578.015	29708.35
578.219	29616.19
578.422	29874.23
578.626	29116.48
578.83	29560.89
579.034	29847.61
579.238	30216.24
579.442	29526.08
579.645	29886.52
579.849	29743.16
580.053	30193.72
580.257	29564.99
580.46	30074.93
580.664	30494.77
580.868	29972.53
581.071	30132.28
581.275	30083.12
581.479	29673.53
581.682	30060.6
581.886	29845.56
582.09	30079.03
582.293	30638.12
582.497	30437.42
582.7	30134.32
582.904	30400.56
583.107	30457.9
583.311	30738.47
583.515	30257.2
583.718	30271.54
583.922	30306.35
584.125	31000.61
584.329	30117.94
584.532	30537.77
584.735	31014.95
584.939	30541.87
585.142	30365.74
585.346	30150.71
585.549	30943.27
585.753	30271.54
585.956	30726.19
586.159	30928.94
586.363	31561.76
586.566	31017
586.769	30957.61
586.973	30558.25
587.176	31449.12
587.379	31395.87
587.582	31567.9
587.786	31309.86
587.989	31668.25
588.192	32006.17
588.395	31031.33
588.599	31402.02
588.802	31578.14
589.005	31479.84
589.208	31586.33
589.411	31473.7
589.615	31488.03
589.818	32170.01
590.021	31807.51
590.224	31707.16
590.427	32174.1
590.63	31881.24
590.833	31592.48
591.036	31694.88
591.239	31965.21
591.442	31926.3
591.645	31715.36
591.848	31848.47
592.051	32106.52
592.254	32139.29
592.457	31731.74
592.66	32045.08
592.863	32124.95
593.066	32526.35
593.269	32329.75
593.472	32206.87
593.675	32542.74
593.878	32524.3
594.081	32165.91
594.284	31985.69
594.486	32747.53
594.689	32401.43
594.892	32151.57
595.095	32753.68
595.298	33034.25
595.5	32763.92
595.703	32612.37
595.906	32641.04
596.109	33204.23
596.311	33193.99
596.514	32348.18
596.717	32682
596.92	33017.86
597.122	32843.79
597.325	32327.7
597.528	32968.71
597.73	33546.24
597.933	32899.08
598.136	32960.52
598.338	32489.49
598.541	33368.07
598.743	33878.01
598.946	32716.81
599.148	33402.88
599.351	33542.14
599.554	33691.65
599.756	33646.59
599.959	33472.51
600.161	33619.97
600.363	34238.45
600.566	33888.25
600.768	32995.34
600.971	34072.57
601.173	33712.13
601.376	33617.92
601.578	33763.32
601.78	34254.84
601.983	34469.87
602.185	33523.71
602.388	33830.91
602.59	33918.97
602.792	33904.63
602.995	34007.03
603.197	33531.9
603.399	34275.32
603.601	33892.35
603.804	33740.8
604.006	33863.68
604.208	33536
604.41	33832.96
604.613	34523.12
604.815	33748.99
605.017	34781.17
605.219	34076.66
605.421	33933.31
605.623	34109.43
605.826	34670.57
606.028	34684.91
606.23	33937.4
606.432	33976.31
606.634	34893.8
606.836	34406.39
607.038	33910.78
607.24	34463.73
607.442	33984.51
607.644	34426.87
607.846	33918.97
608.048	33955.83
608.25	34820.08
608.452	34465.78
608.654	34236.41
608.856	33841.15
609.058	34373.62
609.26	34736.11
609.462	34377.72
609.664	34363.38
609.866	34650.1
610.067	34686.96
610.269	34387.96
610.471	34179.06
610.673	34584.56
610.875	34953.19
611.077	34430.96
611.278	34772.97
611.48	34781.17
611.682	34879.47
611.884	34867.18
612.085	34308.08
612.287	34361.33
612.489	34557.94
612.69	34131.96
612.892	34658.29
613.094	34957.29
613.295	34783.21
613.497	34473.97
613.699	34758.64
613.9	35362.79
614.102	34885.61
614.304	34295.8
614.505	34412.53
614.707	35000.3
614.908	34539.5
615.11	34570.22
615.311	34699.25
615.513	34873.32
615.714	35211.24
615.916	34488.31
616.117	34549.74
616.319	34842.6
616.52	34631.66
616.722	34555.89
616.923	35043.31
617.124	35276.77
617.326	34770.93
617.527	34623.47
617.729	35235.81
617.93	35250.15
618.131	35354.6
618.333	34492.4
618.534	34772.97
618.735	34854.89
618.937	34744.3
619.138	34240.5
619.339	35053.55
619.54	35366.88
619.742	34998.25
619.943	34762.73
620.144	34633.71
620.345	35399.65
620.546	35051.5
620.748	35008.49
620.949	34998.25
621.15	35239.91
621.351	34811.88
621.552	35166.18
621.753	34557.94
621.954	34494.45
622.155	35631.07
622.356	34840.56
622.558	34985.96
622.759	35295.21
622.96	35571.68
623.161	34836.46
623.362	34930.67
623.563	35123.18
623.764	35293.16
623.965	34934.76
624.166	35665.89
624.366	35100.65
624.567	35071.98
624.768	34676.72
624.969	35063.78
625.17	35174.38
625.371	35792.86
625.572	35153.9
625.773	34848.75
625.973	35342.31
626.174	35641.31
626.375	35534.82
626.576	35909.6
626.777	36112.34
626.977	36126.68
627.178	35215.33
627.379	35139.56
627.58	35350.5
627.78	35377.12
627.981	35274.73
628.182	35549.15
628.382	35510.24
628.583	35751.9
628.784	35655.65
628.984	35440.61
629.185	35786.72
629.386	35629.02
629.586	35346.4
629.787	35428.32
629.987	35696.61
630.188	35932.12
630.388	35762.14
630.589	35309.54
630.79	36429.78
630.99	36116.44
631.191	35702.75
631.391	36118.49
631.591	36040.67
631.792	36212.7
631.992	36036.57
632.193	35837.92
632.393	36224.98
632.594	35799.01
632.794	35856.35
632.994	35817.44
633.195	36026.33
633.395	36161.5
633.595	35227.62
633.796	36038.62
633.996	35813.34
634.196	36351.96
634.397	36001.75
634.597	35876.83
634.797	36286.42
634.997	36562.9
635.198	36190.17
635.398	35571.68
635.598	36646.86
635.798	36517.84
635.998	36136.92
636.199	35874.78
636.399	36204.5
636.599	36130.78
636.799	36116.44
636.999	35987.42
637.199	36286.42
637.399	36747.22
637.599	36261.85
637.799	35803.1
637.999	36358.1
638.199	36706.26
638.399	35823.58
638.599	35985.37
638.799	36433.88
638.999	37253.06
639.199	36480.98
639.399	36257.75
639.599	36810.7
639.799	35942.36
639.999	36456.4
640.199	36259.8
640.399	36612.05
640.599	35760.09
640.799	36480.98
640.998	36761.55
641.198	36583.38
641.398	36343.77
641.598	36925.39
641.798	36487.12
641.997	37550.02
642.197	36468.69
642.397	36532.18
642.597	36661.2
642.796	36980.68
642.996	37150.67
643.196	36669.39
643.395	36468.69
643.595	37210.06
643.795	36376.53
643.994	36710.35
644.194	36175.83
644.394	36736.98
644.593	37294.02
644.793	36607.95
644.992	36921.29
645.192	37142.47
645.392	36677.58
645.591	36992.97
645.791	36493.27
645.99	36814.8
646.19	36902.86
646.389	36927.44
646.589	37017.55
646.788	37263.3
646.987	37199.82
647.187	37527.49
647.386	37386.18
647.586	37334.98
647.785	37351.37
647.984	37093.32
648.184	37210.06
648.383	37044.17
648.582	37062.6
648.782	37416.9
648.981	36954.06
649.18	36978.64
649.38	37652.42
649.579	37341.13
649.778	37285.83
649.977	37836.73
650.177	37474.24
650.376	37148.62
650.575	37103.56
650.774	37810.11
650.973	37304.26
651.173	36870.09
651.372	37230.54
651.571	37676.99
651.77	37623.75
651.969	37504.96
652.168	37343.17
652.367	36925.39
652.566	37603.27
652.765	37332.93
652.964	37623.75
653.163	37662.66
653.362	37263.3
653.561	37353.41
653.76	37511.11
653.959	37511.11
654.158	38059.96
654.357	37701.57
654.556	37144.52
654.755	37898.17
654.954	37633.99
655.153	37441.48
655.352	37607.36
655.551	37750.72
655.749	37912.51
655.948	37564.35
656.147	37869.5
656.346	37760.96
656.545	38201.27
656.743	37683.14
656.942	37619.65
657.141	37951.42
657.34	37418.95
657.538	37488.58
657.737	37621.7
657.936	37947.32
658.135	37470.15
658.333	37339.08
658.532	37666.75
658.731	38526.9
658.929	37676.99
659.128	37713.86
659.326	38084.54
659.525	38401.97
659.724	37801.92
659.922	37404.61
660.121	37611.46
660.319	37963.71
660.518	37853.12
660.716	37392.33
660.915	37838.78
661.113	38393.78
661.312	37535.68
661.51	37814.21
661.709	37498.82
661.907	37799.87
662.105	38096.83
662.304	37793.73
662.502	38305.72
662.701	37713.86
662.899	37480.39
663.097	37818.3
663.296	37617.6
663.494	38127.55
663.692	38582.2
663.891	37916.61
664.089	37814.21
664.287	37969.85
664.485	38252.47
664.684	37758.91
664.882	38066.11
665.08	37853.12
665.278	38307.77
665.476	37963.71
665.675	38135.74
665.873	38825.9
666.071	38627.25
666.269	37783.49
666.467	38270.9
666.665	38526.9
666.863	37476.29
667.061	37953.47
667.259	38029.24
667.457	38102.97
667.655	38064.06
667.853	37529.54
668.051	37750.72
668.249	37672.9
668.447	38049.72
668.645	37730.24
668.843	38330.3
669.041	38352.82
669.239	37771.2
669.437	38072.25
669.635	38252.47
669.833	37791.68
670.031	37883.84
670.229	37535.68
670.426	37889.98
670.624	37930.94
670.822	37674.95
671.02	37529.54
671.218	37699.52
671.415	37511.11
671.613	37978.04
671.811	37791.68
672.009	37756.86
672.206	37951.42
672.404	37767.1
672.602	37793.73
672.799	37894.08
672.997	37994.43
673.195	38367.16
673.392	38000.57
673.59	37595.07
673.788	37859.26
673.985	37003.21
674.183	37685.18
674.38	37332.93
674.578	37869.5
674.775	37257.16
674.973	37253.06
675.17	37451.72
675.368	37904.32
675.565	37801.92
675.763	37007.31
675.96	37531.59
676.158	37656.51
676.355	37205.96
676.553	37287.88
676.75	36982.73
676.947	37658.56
677.145	37275.59
677.342	36847.57
677.539	37064.65
677.737	37756.86
677.934	37851.07
678.131	37310.41
678.329	37273.54
678.526	37529.54
678.723	37552.07
678.92	37578.69
679.118	36886.48
679.315	37199.82
679.512	37912.51
679.709	37281.74
679.906	37377.99
680.104	38021.05
680.301	37230.54
680.498	37152.71
680.695	36601.81
680.892	36974.54
681.089	37167.05
681.286	37496.77
681.483	37111.75
681.68	37380.04
681.877	37455.81
682.075	37203.91
682.272	37015.5
682.469	37091.27
682.665	37081.03
682.862	36786.13
683.059	36489.17
683.256	36747.22
683.453	36804.56
683.65	37052.36
683.847	37109.71
684.044	36923.34
684.241	36542.42
684.438	37119.95
684.635	36251.61
684.831	36773.84
685.028	37017.55
685.225	36179.93
685.422	36382.68
685.619	36624.34
685.815	36820.94
686.012	36519.89
686.209	36294.61
686.405	36460.5
686.602	36710.35
686.799	36194.26
686.996	36435.92
687.192	36284.37
687.389	36411.35
687.586	35942.36
687.782	36106.2
687.979	37103.56
688.175	36954.06
688.372	36593.62
688.568	36784.08
688.765	36214.74
688.962	36530.13
689.158	36171.74
689.355	36216.79
689.551	36423.64
689.748	36024.28
689.944	36526.03
690.14	36534.23
690.337	36546.51
690.533	36218.84
690.73	36093.91
690.926	36390.87
691.123	36046.81
691.319	36130.78
691.515	35973.08
691.712	36464.6
691.908	36014.04
692.104	36083.67
692.301	36112.34
692.497	35813.34
692.693	36431.83
692.889	36435.92
693.086	35694.56
693.282	35563.49
693.478	36345.81
693.674	36237.27
693.87	35430.37
694.067	35756
694.263	36184.02
694.459	35903.45
694.655	35727.33
694.851	36112.34
695.047	35923.93
695.243	36130.78
695.439	35936.22
695.635	35344.36
695.831	35715.04
696.027	35575.78
696.224	35192.81
696.42	36052.95
696.615	36558.8
696.811	35839.97
697.007	35127.27
697.203	35139.56
697.399	35637.22
697.595	35680.22
697.791	35473.38
697.987	35661.79
698.183	35358.69
698.379	35348.45
698.575	35475.43
698.77	35268.58
698.966	35571.68
699.162	35786.72
699.358	35129.32
699.554	35170.28
699.749	35647.46
699.945	35489.76
700.141	35114.98
700.337	35428.32
700.532	35426.28
700.728	35106.79
700.924	35071.98
701.119	34680.81
701.315	34715.63
701.511	35049.45
701.706	35059.69
701.902	34605.04
702.097	35182.57
702.293	35491.81
702.489	34662.38
702.684	34723.82
702.88	34766.83
703.075	34891.76
703.271	34459.63
703.466	34850.8
703.662	34719.73
703.857	35424.23
704.053	34990.06
704.248	35239.91
704.443	35094.5
704.639	35334.12
704.834	34983.91
705.03	34547.7
705.225	34633.71
705.42	34904.04
705.616	34678.77
705.811	34179.06
706.006	34803.69
706.202	34772.97
706.397	34498.55
706.592	34396.15
706.787	34476.02
706.983	34508.79
707.178	35041.26
707.373	34465.78
707.568	34725.87
707.763	34711.53
707.959	34543.6
708.154	34539.5
708.349	34408.43
708.544	34732.01
708.739	34502.64
708.934	34031.61
709.129	34283.51
709.324	34394.1
709.519	34625.52
709.714	34457.59
709.909	35211.24
710.104	34525.17
710.299	34303.99
710.494	34625.52
710.689	34285.56
710.884	34574.32
711.079	34291.7
711.274	34510.83
711.469	35147.75
711.664	34318.32
711.859	34256.89
712.054	34269.17
712.249	34242.55
712.443	34557.94
712.638	34357.24
712.833	34113.53
713.028	34222.07
713.223	33904.63
713.417	34082.81
713.612	34025.46
713.807	34662.38
714.002	34998.25
714.196	34281.46
714.391	33863.68
714.586	34463.73
714.78	34072.57
714.975	33404.93
715.17	33576.96
715.364	33927.16
715.559	34398.2
715.754	33028.1
715.948	33146.89
716.143	33843.2
716.337	32954.38
716.532	34043.9
716.726	33597.44
716.921	33865.72
717.115	34148.34
717.31	33380.35
717.504	33916.92
717.699	33697.79
717.893	33466.37
718.088	33271.81
718.282	33558.53
718.476	33474.56
718.671	33746.94
718.865	33800.19
719.059	33208.33
719.254	33525.76
719.448	33810.43
719.642	34639.86
719.837	33064.97
720.031	33927.16
720.225	33669.12
720.419	33591.3
720.614	33161.22
720.808	33675.26
721.002	33208.33
721.196	32792.59
721.39	32942.09
721.585	33019.91
721.779	32892.94
721.973	32587.79
722.167	31938.58
722.361	32921.61
722.555	33198.09
722.749	32763.92
722.943	32915.47
723.137	32567.31
723.331	33343.49
723.525	32606.22
723.719	32804.88
723.913	33173.51
724.107	33095.69
724.301	32790.54
724.495	32843.79
724.689	33234.95
724.883	33105.93
725.077	32673.81
725.271	32690.19
725.465	32972.81
725.659	33007.62
725.853	32827.4
726.046	32278.55
726.24	32200.72
726.434	32878.6
726.628	32600.08
726.822	32563.22
727.015	33081.35
727.209	32763.92
727.403	32634.89
727.596	32426
727.79	33165.32
727.984	32763.92
728.177	32626.7
728.371	32684.05
728.565	32856.07
728.758	32706.57
728.952	32247.83
729.146	32630.8
729.339	32878.6
729.533	32792.59
729.726	32327.7
729.92	32477.2
730.113	33107.97
730.307	32991.24
730.5	32440.34
730.694	32466.96
730.887	32403.47
731.081	32956.43
731.274	32616.46
731.468	32593.93
731.661	32761.87
731.854	32847.88
732.048	32522.26
732.241	32239.64
732.435	32423.95
732.628	32770.06
732.821	32907.27
733.014	32395.28
733.208	32745.48
733.401	32937.99
733.594	32516.11
733.788	32231.44
733.981	32815.12
734.174	32647.18
734.367	32532.5
734.56	32772.11
734.754	32950.28
734.947	33024.01
735.14	32671.76
735.333	33038.34
735.526	32903.18
735.719	32311.31
735.912	32485.39
736.105	32684.05
736.298	32747.53
736.491	32552.98
736.684	32139.29
736.877	32600.08
737.07	32616.46
737.263	32426
737.456	32006.17
737.649	32247.83
737.842	32471.06
738.035	32202.77
738.228	32501.78
738.421	32286.74
738.614	32829.45
738.807	32970.76
739	32061.46
739.192	32194.58
739.385	32585.74
739.578	32456.72
739.771	32401.43
739.964	31854.62
740.156	32589.84
740.349	32356.37
740.542	32485.39
740.735	32213.01
740.927	32012.31
741.12	32180.24
741.313	32059.41
741.505	32481.3
741.698	32022.55
741.891	32253.97
742.083	32389.14
742.276	32194.58
742.468	32563.22
742.661	31879.19
742.854	32118.81
743.046	31914.01
743.239	32686.09
743.431	32411.67
743.624	31983.64
743.816	31332.39
744.009	32210.96
744.201	31627.29
744.393	31721.5
744.586	31741.98
744.778	32100.37
744.971	31854.62
745.163	31678.49
745.355	31707.16
745.548	31942.68
745.74	31948.82
745.932	31678.49
746.125	31834.14
746.317	32444.43
746.509	31481.89
746.702	31485.98
746.894	31318.05
747.086	31371.3
747.278	32051.22
747.471	31270.95
747.663	31543.33
747.855	31494.18
748.047	31684.64
748.239	31459.36
748.431	31115.3
748.623	31819.8
748.815	31801.37
749.008	31445.02
749.2	31547.42
749.392	31563.81
749.584	31148.07
749.776	31086.63
749.968	31418.4
750.16	31905.82
750.352	31406.11
750.544	31348.77
750.736	31090.73
750.928	31508.51
751.12	31043.62
751.311	30896.17
751.503	31455.26
751.695	31531.04
751.887	31129.64
752.079	30836.78
752.271	30619.69
752.463	31821.85
752.654	31186.98
752.846	31008.81
753.038	30787.63
753.23	30873.64
753.421	31299.62
753.613	30830.63
753.805	30670.89
753.997	30976.04
754.188	30984.23
754.38	30203.96
754.572	30554.16
754.763	30718
754.955	30511.15
755.146	30375.98
755.338	30185.52
755.53	30695.47
755.721	30697.52
755.913	30007.35
756.104	30505.01
756.296	30566.45
756.487	30625.84
756.679	30453.81
756.87	29988.92
757.062	30011.45
757.253	30586.93
757.445	30296.11
757.636	30543.92
757.827	30277.68
758.019	31035.43
758.21	29900.86
758.401	29927.48
758.593	30523.44
758.784	30756.91
758.975	29550.65
759.167	29818.94
759.358	30025.78
759.549	30502.96
759.74	30064.69
759.932	29732.92
760.123	30335.03
760.314	29724.73
760.505	29515.84
760.696	29091.91
760.888	30292.02
761.079	29208.64
761.27	29155.4
761.461	29091.91
761.652	29931.58
761.843	29358.14
762.034	29605.95
762.225	29306.94
762.416	29472.83
762.607	28829.77
762.798	29372.48
762.989	29073.48
763.18	29927.48
763.371	28889.16
763.562	29073.48
763.753	29061.19
763.944	29624.38
764.135	29446.21
764.326	29386.82
764.517	29061.19
764.708	29177.92
764.899	29130.82
765.089	28577.87
765.28	28770.38
765.471	29155.4
765.662	28766.28
765.853	28592.2
766.043	28190.8
766.234	28913.73
766.425	28848.2
766.615	28608.59
766.806	28356.69
766.997	28559.44
767.187	28545.1
767.378	28422.22
767.569	28260.43
767.759	28792.9
767.95	28993.61
768.141	28510.28
768.331	28524.62
768.522	28532.81
768.712	28819.53
768.903	28215.38
769.093	28057.68
769.284	28872.78
769.474	28305.49
769.665	27555.93
769.855	27961.43
770.046	28221.52
770.236	28282.96
770.426	28561.48
770.617	27922.52
770.807	28182.61
770.998	28221.52
771.188	27770.97
771.378	27693.15
771.569	28217.43
771.759	28170.32
771.949	27267.17
772.139	27680.86
772.33	27820.12
772.52	28557.39
772.71	27465.82
772.9	27336.8
773.09	27945.05
773.281	27873.37
773.471	26994.79
773.661	27455.58
773.851	27557.98
774.041	27340.89
774.231	27263.07
774.421	27451.49
774.611	27539.55
774.802	27277.41
774.992	27240.54
775.182	26929.25
775.372	27222.11
775.562	27293.79
775.752	26769.51
775.942	26794.09
776.131	27502.68
776.321	26970.21
776.511	26738.79
776.701	26644.59
776.891	26896.49
777.081	26570.86
777.271	26355.82
777.461	26546.28
777.651	26601.58
777.84	27017.32
778.03	26691.69
778.22	26468.46
778.41	27019.36
778.599	26628.2
778.789	26200.18
778.979	26593.39
779.169	26869.86
779.358	26525.8
779.548	26632.3
779.738	26062.96
779.927	26910.82
780.117	26671.21
780.307	26017.91
780.496	25989.24
780.686	26028.15
780.875	26665.07
781.065	26312.81
781.254	26046.58
781.444	26265.71
781.633	25952.37
781.823	26044.53
782.012	25880.69
782.202	25958.52
782.391	25979
782.581	25524.35
782.77	26114.16
782.96	26028.15
783.149	25370.75
783.338	25229.44
783.528	25180.29
783.717	25917.56
783.906	25757.81
784.096	25553.02
784.285	25286.78
784.474	25329.79
784.663	25274.49
784.853	25239.68
785.042	25241.73
785.231	25593.98
785.42	25491.58
785.61	25372.8
785.799	24854.66
785.988	25094.27
786.177	25393.28
786.366	25366.65
786.555	25122.94
786.744	25493.63
786.933	25202.82
787.122	24899.72
787.312	25127.04
787.501	24819.85
787.69	25360.51
787.879	25137.28
788.068	25124.99
788.257	24737.93
788.445	25049.22
788.634	24825.99
788.823	24840.32
789.012	25536.63
789.201	25118.85
789.39	24770.69
789.579	24502.41
789.768	24969.35
789.957	24768.65
790.145	24580.23
790.334	24559.75
790.523	24410.25
790.712	24823.94
790.9	24797.32
791.089	24285.33
791.278	25006.21
791.467	24676.49
791.655	24672.39
791.844	25022.59
792.033	24268.94
792.221	24166.54
792.41	23898.26
792.599	23650.46
792.787	24498.31
792.976	24529.03
793.164	23650.46
793.353	24033.43
793.541	24328.33
793.73	24637.58
793.918	24451.21
794.107	24133.78
794.295	24068.24
794.484	24455.31
794.672	24055.95
794.861	23830.68
795.049	23933.07
795.238	24371.34
795.426	23695.51
795.614	23634.07
795.803	23984.27
795.991	24445.07
796.179	23742.61
796.368	23611.54
796.556	24191.12
796.744	23124.13
796.932	23752.85
797.121	23210.14
797.309	23720.09
797.497	23742.61
797.685	23533.72
797.874	23851.16
798.062	23789.72
798.25	23896.21
798.438	23619.74
798.626	23543.96
798.814	23988.37
799.002	24305.81
799.19	23521.43
799.378	23287.96
799.566	23421.08
799.755	23799.96
799.943	23636.12
800.131	23552.15
800.318	23726.23
800.506	23812.24
800.694	23519.39
800.882	23601.3
801.07	23873.68
801.258	24019.09
801.446	23566.49
801.634	23343.26
801.822	23818.39
802.01	23578.78
802.197	23382.17
802.385	23666.84
802.573	23883.92
802.761	23709.85
802.949	23845.01
803.136	23689.37
803.324	24039.57
803.512	24301.71
803.699	23672.98
803.887	23924.88
804.075	24203.41
804.262	23914.64
804.45	23736.47
804.638	23797.91
804.825	24006.8
805.013	23867.54
805.201	24035.47
805.388	23599.26
805.576	23881.88
805.763	24195.21
805.951	23414.94
806.138	23759
806.326	24295.57
806.513	24307.85
806.701	23781.53
806.888	23881.88
807.075	23828.63
807.263	24664.2
807.45	23810.2
807.638	23883.92
807.825	24518.79
808.012	24152.21
808.2	23799.96
808.387	24357
808.574	24246.41
808.761	24371.34
808.949	23986.32
809.136	23992.47
809.323	24119.44
809.51	24080.53
809.698	24019.09
809.885	24070.29
810.072	24445.07
810.259	24455.31
810.446	23941.27
810.633	24158.35
810.82	24440.97
811.008	24524.94
811.195	24498.31
811.382	23957.65
811.569	24254.61
811.756	23707.8
811.943	24166.54
812.13	24037.52
812.317	23752.85
812.504	23920.79
812.691	24168.59
812.878	24129.68
813.064	24725.64
813.251	24170.64
813.438	24266.89
813.625	24043.67
813.812	24322.19
813.999	24369.29
814.186	24203.41
814.372	24526.99
814.559	24488.07
814.746	24256.65
814.933	23799.96
815.12	24219.79
815.306	23853.2
815.493	24146.06
815.68	24037.52
815.866	23752.85
816.053	24582.28
816.24	24400.01
816.426	24277.13
816.613	24051.86
816.799	24268.94
816.986	24592.52
817.173	24164.5
817.359	23906.45
817.546	24344.72
817.732	23885.97
817.919	23906.45
818.105	24031.38
818.292	23996.56
818.478	24608.9
818.665	24549.51
818.851	24244.37
819.037	24506.51
819.224	24207.5
819.41	23621.78
819.597	23802
819.783	24211.6
819.969	24227.98
820.156	23574.68
820.342	23591.06
820.528	24606.86
820.714	23877.78
820.901	24074.38
821.087	23744.66
821.273	24488.07
821.459	23754.9
821.646	23836.82
821.832	23574.68
822.018	23759
822.204	23486.62
822.39	23595.16
822.576	23394.46
822.762	23726.23
822.948	23433.37
823.134	23500.95
823.32	23216.29
823.507	23341.21
823.693	23570.58
823.879	24107.15
824.065	23435.42
824.25	23677.08
824.436	23271.58
824.622	23072.93
824.808	23521.43
824.994	23369.88
825.18	23197.85
825.366	23328.92
825.552	23015.58
825.738	23367.84
825.923	23406.75
826.109	23300.25
826.295	22833.32
826.481	22659.24
826.667	22671.53
826.852	22761.64
827.038	22663.33
827.224	23470.23
827.409	23439.51
827.595	22687.91
827.781	22868.13
827.966	23273.63
828.152	22823.08
828.338	22884.51
828.523	22300.84
828.709	22612.13
828.894	23120.03
829.08	23021.73
829.266	22546.6
829.451	22909.09
829.637	23142.56
829.822	22599.85
830.008	22634.66
830.193	22859.94
830.378	23099.55
830.564	22442.15
830.749	22216.88
830.935	22784.16
831.12	22671.53
831.305	22247.6
831.491	22378.67
831.676	22212.78
831.861	22495.4
832.047	22501.54
832.232	22026.42
832.417	22397.1
832.602	22237.36
832.788	21950.64
832.973	21983.41
833.158	22124.72
833.343	22343.85
833.528	21969.07
833.714	22130.86
833.899	22290.6
834.084	22657.19
834.269	22329.52
834.454	21881.01
834.639	22112.43
834.824	21768.37
835.009	22130.86
835.194	22202.54
835.379	22642.85
835.564	22620.33
835.749	22028.46
835.934	22110.38
836.119	22243.5
836.304	22091.95
836.489	21848.24
836.674	21903.54
836.859	21526.71
837.044	22325.42
837.228	21801.14
837.413	21672.12
837.598	22284.46
837.783	22100.14
837.968	21713.08
838.152	21252.28
838.337	21168.32
838.522	21795
838.707	21751.99
838.891	21356.73
839.076	21571.77
839.261	21532.86
839.445	21541.05
839.63	21414.07
839.815	21715.12
839.999	21500.09
840.184	21364.92
840.368	21059.77
840.553	21653.69
840.737	21805.24
840.922	21174.46
841.106	21014.72
841.291	21184.7
841.475	21203.13
841.66	21254.33
841.844	21229.76
842.029	22128.81
842.213	21196.99
842.397	20779.2
842.582	20799.68
842.766	21641.4
842.951	21520.57
843.135	21088.45
843.319	20953.28
843.504	21051.58
843.688	21442.74
843.872	20463.82
844.056	20762.82
844.241	20961.47
844.425	20885.7
844.609	20994.24
844.793	20877.51
844.977	20975.81
845.161	20662.47
845.346	20400.33
845.53	20318.41
845.714	20736.2
845.898	21110.97
846.082	20390.09
846.266	20261.07
846.45	20414.66
846.634	20531.4
846.818	20289.74
847.002	20449.48
847.186	20656.32
847.37	20037.84
847.554	20046.03
847.738	20041.93
847.922	20453.58
848.106	20930.75
848.29	19816.66
848.473	19646.68
848.657	20279.5
848.841	20345.03
849.025	20050.13
849.209	19663.06
849.392	20201.68
849.576	19912.91
849.76	19732.69
849.944	19937.49
850.127	20302.03
850.311	19865.81
850.495	19607.76
850.678	19329.24
850.862	20201.68
851.046	20416.71
851.229	20011.21
851.413	19386.58
851.596	19808.47
851.78	19925.2
851.964	19695.83
852.147	19630.29
852.331	20424.9
852.514	20431.05
852.698	19464.41
852.881	19222.75
853.065	20156.62
853.248	19787.99
853.431	19753.17
853.615	19257.56
853.798	20150.48
853.982	19661.01
854.165	19280.09
854.348	19116.25
854.532	19151.07
854.715	19259.61
854.898	19218.65
855.081	18868.45
855.265	19790.03
855.448	19554.52
855.631	19001.57
855.814	19110.11
855.997	19693.78
856.181	19167.45
856.364	19165.4
856.547	18739.43
856.73	19296.47
856.913	19163.36
857.096	18716.9
857.279	19009.76
857.462	18852.06
857.645	19429.59
857.828	19032.29
858.011	18979.04
858.194	18829.54
858.377	18933.98
858.56	18239.72
858.743	19079.39
858.926	18831.58
859.109	18948.32
859.292	18505.96
859.475	18530.53
859.658	19263.71
859.841	18706.66
860.023	18274.54
860.206	18151.66
860.389	18702.56
860.572	19005.66
860.755	18415.85
860.937	18260.2
861.12	18307.3
861.303	18716.9
861.486	18141.42
861.668	18223.34
861.851	18594.02
862.034	18333.93
862.216	18301.16
862.399	17926.38
862.581	18356.46
862.764	18761.95
862.947	18190.57
863.129	17737.97
863.312	17889.52
863.494	18446.57
863.677	17996.01
863.859	17674.48
864.042	18143.47
864.224	18643.17
864.406	17832.18
864.589	17572.08
864.771	18096.36
864.954	17643.76
865.136	17721.59
865.318	17420.53
865.501	17621.24
865.683	17225.98
865.865	17707.25
866.048	17688.82
866.23	17936.62
866.412	17682.67
866.594	17293.56
866.777	17834.22
866.959	17557.75
867.141	17641.71
867.323	17453.3
867.505	17795.31
867.687	17281.27
867.869	17408.25
868.052	17457.4
868.234	17352.95
868.416	17512.69
868.598	17697.01
868.78	17504.5
868.962	17084.67
869.144	17783.02
869.326	17492.21
869.508	17426.68
869.69	17127.67
869.872	17322.23
870.054	17772.78
870.236	17006.84
870.417	17060.09
870.599	17355
870.781	17363.19
870.963	17195.26
871.145	17213.69
871.327	17129.72
871.508	17522.93
871.69	16957.69
871.872	16916.73
872.054	17307.9
872.235	17228.03
872.417	16953.6
872.599	17021.18
872.78	17797.36
872.962	17236.22
873.144	16984.32
873.325	16976.12
873.507	17545.46
873.689	16855.29
873.87	16902.4
874.052	17322.23
874.233	17092.86
874.415	17606.9
874.596	17111.29
874.778	17012.99
874.959	17479.93
875.141	17692.91
875.322	17164.54
875.503	17012.99
875.685	17514.74
875.866	16875.77
876.048	17010.94
876.229	16711.94
876.41	16931.07
876.592	17293.56
876.773	17064.19
876.954	17004.8
877.136	17787.12
877.317	17123.58
877.498	17150.2
877.679	17142.01
877.86	17398.01
878.042	17555.7
878.223	17182.97
878.404	17455.35
878.585	17627.38
878.766	17850.61
878.947	17436.92
879.128	17377.53
879.309	17600.76
879.49	17658.1
879.672	17510.64
879.853	17510.64
880.034	17125.63
880.215	17361.14
880.396	17428.73
880.576	17768.69
880.757	17570.04
880.938	17975.53
881.119	17633.52
881.3	17641.71
881.481	17385.72
881.662	18770.15
881.843	17371.38
882.023	17053.95
882.204	17848.56
882.385	17617.14
882.566	17471.73
882.747	17504.5
882.927	18096.36
883.108	17883.38
883.289	17674.48
883.469	17981.68
883.65	17762.54
883.831	18135.28
884.011	17828.08
884.192	17762.54
884.373	18329.83
884.553	18157.8
884.734	17897.71
884.914	18149.61
885.095	18598.12
885.275	18690.27
885.456	18360.55
885.636	17633.52
885.817	18245.87
885.997	18059.5
886.178	17940.72
886.358	18026.73
886.538	18155.75
886.719	19171.55
886.899	18051.31
887.08	18086.12
887.26	18565.35
887.44	18118.89
887.621	18102.51
887.801	18311.4
887.981	19200.22
888.161	18931.94
888.342	18403.56
888.522	18174.19
888.702	18594.02
888.882	18817.25
889.062	18237.67
889.242	18299.11
889.423	19214.55
889.603	18770.15
889.783	18694.37
889.963	18229.48
890.143	18649.32
890.323	18761.95
890.503	18383.08
890.683	18284.78
890.863	18589.92
891.043	18479.33
891.223	18231.53
891.403	18272.49
891.583	18630.88
891.763	18479.33
891.943	18389.22
892.122	18764
892.302	18811.1
892.482	18796.77
892.662	18880.74
892.842	18747.62
893.022	19017.95
893.201	18561.25
893.381	18919.65
893.561	18491.62
893.741	18831.58
893.92	18985.18
894.1	18247.91
894.28	18573.54
894.459	18878.69
894.639	18714.85
894.819	18563.3
894.998	18548.96
895.178	18987.23
895.357	18985.18
895.537	18413.8
895.716	18639.08
895.896	19116.25
896.075	19503.32
896.255	18557.16
896.434	18364.65
896.614	19093.72
896.793	19110.11
896.973	18600.16
897.152	18305.26
897.331	18542.82
897.511	18979.04
897.69	18372.84
897.87	18735.33
898.049	19116.25
898.228	18774.24
898.407	18606.31
898.587	18526.44
898.766	18503.91
898.945	18708.71
899.124	18184.43
899.304	18268.39
899.483	18407.66
899.662	18794.72
899.841	17742.07
900.02	18020.59
900.199	18571.49
900.378	18385.13
900.557	18213.1
900.737	17838.32
900.916	18534.63
901.095	18690.27
901.274	18243.82
901.453	18155.75
901.632	17950.96
901.811	18131.18
901.989	18032.88
902.168	17879.28
902.347	18811.1
902.526	18186.47
902.705	17877.23
902.884	18112.75
903.063	18688.23
903.242	18489.57
903.42	17916.14
903.599	18075.88
903.778	18430.18
903.957	18368.74
904.135	18100.46
904.314	17873.14
904.493	18079.98
904.672	18096.36
904.85	17733.87
905.029	17590.52
905.207	17889.52
905.386	18565.35
905.565	17592.56
905.743	17404.15
905.922	17557.75
906.1	18102.51
906.279	17387.77
906.457	17455.35
906.636	17455.35
906.814	17527.03
906.993	17490.17
907.171	17463.54
907.35	17615.09
907.528	17740.02
907.707	17537.27
907.885	17381.62
908.063	17862.9
908.242	17299.7
908.42	17076.48
908.598	16892.16
908.777	17201.4
908.955	17115.39
909.133	16990.46
909.311	17023.23
909.49	16894.21
909.668	16972.03
909.846	17088.76
910.024	16730.37
910.202	17101.05
910.38	17094.91
910.559	16662.79
910.737	16640.26
910.915	17035.52
911.093	16976.12
911.271	16404.74
911.449	16834.82
911.627	16896.25
911.805	17527.03
911.983	16787.71
912.161	16288.01
912.339	16931.07
912.517	16886.01
912.695	16750.85
912.872	16597.25
913.05	16673.03
913.228	16888.06
913.406	16521.48
913.584	16578.82
913.762	16783.62
913.939	16392.45
914.117	16238.86
914.295	16118.03
914.473	16300.3
914.65	16568.58
914.828	15843.6
915.006	16005.39
915.184	16064.78
915.361	16097.55
915.539	16158.99
915.716	16003.34
915.894	16204.04
916.072	16378.12
916.249	16253.19
916.427	15739.15
916.604	15905.04
916.782	16029.96
916.959	15517.97
917.137	15632.66
917.314	15929.61
917.492	16122.12
917.669	15526.16
917.847	15481.11
918.024	15741.2
918.201	15501.59
918.379	15386.9
918.556	15497.49
918.733	15593.75
918.911	15440.15
919.088	15178.01
919.265	15370.52
919.442	15591.7
919.62	15198.49
919.797	15190.3
919.974	15159.58
920.151	15434
920.328	15423.76
920.506	15186.2
920.683	15431.96
920.86	14776.61
921.037	14815.52
921.214	14780.7
921.391	14981.4
921.568	15091.99
921.745	14569.76
921.922	14819.61
922.099	14194.98
922.276	15094.04
922.453	14813.47
922.63	14364.96
922.807	14444.84
922.984	14326.05
923.161	14502.18
923.338	14436.64
923.514	14178.6
923.691	14756.13
923.868	14674.21
924.045	14340.39
924.222	14217.51
924.399	14532.9
924.575	14770.46
924.752	14393.64
924.929	14250.28
925.105	14358.82
925.282	13902.12
925.459	13777.2
925.635	13771.05
925.812	13969.71
925.989	13648.18
926.165	13658.42
926.342	13510.96
926.518	13547.83
926.695	13803.82
926.871	13431.09
927.048	13252.92
927.224	13707.57
927.401	13472.05
927.577	13480.24
927.754	13138.23
927.93	13699.37
928.107	13551.92
928.283	13134.14
928.459	13478.19
928.636	13732.14
928.812	13334.84
928.988	13252.92
929.165	13003.07
929.341	13195.57
929.517	13484.34
929.693	13187.38
929.87	12411.2
930.046	13326.64
930.222	12781.88
930.398	12673.34
930.574	12509.51
930.751	12828.99
930.927	12501.31
931.103	12546.37
931.279	12331.33
931.455	12061
931.631	12204.36
931.807	12065.1
931.983	11977.03
932.159	11839.82
932.335	12380.48
932.511	12243.27
932.687	11987.27
932.863	12247.37
933.039	12204.36
933.215	11739.47
933.391	11712.85
933.566	11950.41
933.742	11807.05
933.918	11348.31
934.094	11008.34
934.27	11301.2
934.445	11278.68
934.621	11245.91
934.797	10772.83
934.973	11256.15
935.148	11157.85
935.324	10574.17
935.5	10240.36
935.675	11000.15
935.851	10750.3
936.027	10287.46
936.202	10121.57
936.378	10262.88
936.553	9931.11
936.729	10232.16
936.904	9410.93
937.08	9431.41
937.255	9144.69
937.431	9116.02
937.606	8892.79
937.782	9230.71
937.957	8905.08
938.133	8835.45
938.308	8481.15
938.483	8651.13
938.659	8372.61
938.834	8507.77
939.009	8176
939.185	8139.14
939.36	7997.83
939.535	7612.81
939.71	7965.06
939.886	8173.96
940.061	7852.42
940.236	7739.79
940.411	7651.72
940.586	7854.47
940.761	7901.58
940.937	7561.61
941.112	7176.59
941.287	7365.01
941.462	7324.05
941.637	7000.47
941.812	7039.38
941.987	7324.05
942.162	7178.64
942.337	6922.65
942.512	6777.24
942.687	7283.09
942.862	7055.76
943.037	6607.26
943.212	6631.83
943.386	6799.77
943.561	6818.2
943.736	6754.71
943.911	6971.8
944.086	6988.18
944.26	6893.97
944.435	6721.95
944.61	6764.95
944.785	7082.39
944.959	7166.35
945.134	6543.77
945.309	6441.37
945.483	6592.92
945.658	6775.19
945.833	6232.48
946.007	6584.73
946.182	7178.64
946.357	6515.1
946.531	6617.5
946.706	6701.47
946.88	6513.05
947.055	6781.34
947.229	6621.59
947.404	6629.79
947.578	7027.09
947.752	6777.24
947.927	6513.05
948.101	6537.63
948.276	7006.61
948.45	6924.69
948.624	6832.54
948.799	6924.69
948.973	6896.02
949.147	6578.59
949.321	6807.96
949.496	6906.26
949.67	7303.57
949.844	7106.96
950.018	6965.65
950.193	7010.71
950.367	7569.8
950.541	7094.68
950.715	7172.5
950.889	7305.62
951.063	7055.76
951.237	7430.54
951.411	7082.39
951.585	6990.23
951.759	7430.54
951.933	7393.68
952.107	7129.49
952.281	7309.71
952.455	7727.5
952.629	7491.98
952.803	7264.66
952.977	7158.16
953.151	7506.32
953.325	7678.35
953.499	7446.93
953.672	7043.48
953.846	7258.51
954.02	7438.73
954.194	7166.35
954.368	7192.98
954.541	7932.29
954.715	7317.9
954.889	7586.19
955.062	7143.83
955.236	7563.66
955.41	7557.52
955.583	7532.94
955.757	7250.32
955.93	7496.08
956.104	7346.58
956.278	7561.61
956.451	7612.81
956.625	7719.31
956.798	8139.14
956.972	8026.5
957.145	7487.89
957.319	7889.29
957.492	7510.41
957.665	7653.77
957.839	7526.8
958.012	7758.22
958.185	7745.93
958.359	7471.5
958.532	7885.19
958.705	7983.49
958.879	7883.14
959.052	7713.16
959.225	7297.42
959.398	7807.37
959.572	7711.11
959.745	7600.52
959.918	7631.24
960.091	7733.64
960.264	8094.08
960.438	7584.14
960.611	7631.24
960.784	7985.54
960.957	7719.31
961.13	8014.21
961.303	7610.76
961.476	7614.86
961.649	7868.81
961.822	7428.49
961.995	7633.29
962.168	8030.6
962.341	7991.69
962.514	7670.15
962.686	7541.13
962.859	7840.14
963.032	7823.75
963.205	7520.65
963.378	7377.3
963.551	7829.9
963.723	7829.9
963.896	7571.85
964.069	7631.24
964.242	7725.45
964.414	7713.16
964.587	7616.91
964.76	7483.79
964.932	7739.79
965.105	7553.42
965.278	7600.52
965.45	7389.58
965.623	7688.59
965.795	7659.92
965.968	7324.05
966.14	7260.56
966.313	7539.08
966.485	7487.89
966.658	7330.19
966.83	7207.31
967.003	8016.26
967.175	7848.33
967.348	7504.27
967.52	7313.81
967.692	7790.99
967.865	7651.72
968.037	7365.01
968.209	7479.69
968.382	7432.59
968.554	7610.76
968.726	7346.58
968.898	7223.7
969.071	7444.88
969.243	7477.65
969.415	7305.62
969.587	7426.45
969.759	7977.35
969.932	7534.99
970.104	7444.88
970.276	6824.34
970.448	7248.27
970.62	6953.37
970.792	7068.05
970.964	7125.4
971.136	7963.01
971.308	7414.16
971.48	6898.07
971.652	7004.57
971.824	7688.59
971.996	7119.25
972.168	7090.58
972.339	6936.98
972.511	7195.03
972.683	7119.25
972.855	7078.29
973.027	6982.04
973.199	6947.22
973.37	7076.24
973.542	6947.22
973.714	7012.76
973.886	6912.41
974.057	7096.72
974.229	6650.27
974.401	7004.57
974.572	6719.9
974.744	6476.19
974.915	6658.46
975.087	6633.88
975.259	7227.79
975.43	6822.3
975.602	6642.07
975.773	6640.03
975.945	6728.09
976.116	7176.59
976.288	6660.51
976.459	6889.88
976.63	6893.97
976.802	6836.63
976.973	6568.35
977.145	6846.87
977.316	7256.47
977.487	7180.69
977.659	6846.87
977.83	6566.3
978.001	7070.1
978.172	6707.61
978.344	6478.24
978.515	6582.68
978.686	6420.89
978.857	6844.82
979.028	6437.28
979.2	6406.56
979.371	6668.7
979.542	6605.21
979.713	6576.54
979.884	6044.07
980.055	6336.93
980.226	6498.72
980.397	6236.58
980.568	6019.49
980.739	6713.75
980.91	6453.66
981.081	6420.89
981.252	6171.04
981.423	6398.37
981.594	6730.14
981.765	6035.88
981.936	6216.1
982.106	6508.96
982.277	6404.51
982.448	5956.01
982.619	6226.34
982.79	6224.29
982.96	6363.55
983.131	5919.14
983.302	5677.48
983.472	5917.09
983.643	6312.35
983.814	6037.92
983.984	5726.63
984.155	6019.49
984.326	6351.26
984.496	5945.77
984.667	5751.21
984.837	5716.39
985.008	6046.12
985.178	5812.65
985.349	5790.12
985.519	5982.63
985.69	5843.37
985.86	5810.6
986.031	5669.29
986.201	6142.37
986.371	6068.64
986.542	5552.56
986.712	5591.47
986.882	6031.78
987.053	5900.71
987.223	5495.21
987.393	5769.64
987.563	5566.89
987.734	5732.78
987.904	5894.57
988.074	5491.12
988.244	5630.38
988.414	5679.53
988.585	5382.57
988.755	5396.91
988.925	5511.6
989.095	5976.48
989.265	5341.61
989.435	5456.3
989.605	5667.24
989.775	5519.79
989.945	5534.12
990.115	5097.91
990.285	5558.7
990.455	5521.84
990.625	5231.02
990.795	5169.59
990.965	5724.58
991.134	5222.83
991.304	5112.24
991.474	5056.95
991.644	5581.23
991.814	5679.53
991.984	5112.24
992.153	5126.58
992.323	5247.41
992.493	5382.57
992.662	4852.15
992.832	5159.35
993.002	5226.93
993.171	5132.72
993.341	4897.21
993.511	4983.22
993.68	5058.99
993.85	5237.17
994.019	4659.64
994.189	4671.93
994.358	5040.56
994.528	4872.63
994.697	4575.67
994.867	4618.68
995.036	5044.66
995.206	4880.82
995.375	4540.86
995.544	4835.77
995.714	4956.6
995.883	4757.94
996.052	4774.33
996.222	4471.23
996.391	5431.73
996.56	4704.7
996.73	4520.38
996.899	4594.11
997.068	5161.39
997.237	4880.82
997.406	4370.88
997.576	4377.02
997.745	4815.29
997.914	4835.77
998.083	4401.6
998.252	4356.54
998.421	4719.03
998.59	4354.49
998.759	4061.63
998.928	4211.14
999.097	4870.58
999.266	4643.26
999.435	4413.88
999.604	4174.27
999.773	4991.41
999.942	4428.22
1000.111	4061.63
1000.28	4096.45
1000.448	4198.85
1000.617	4176.32
1000.786	4219.33
1000.955	4086.21
1001.124	4383.17
1001.292	4993.46
1001.461	4063.68
1001.63	3914.18
1001.798	4657.59
1001.967	4452.8
1002.136	3826.12
1002.304	3785.16
1002.473	4270.53
1002.642	4331.97
1002.81	3996.1
1002.979	3875.27
1003.147	4192.7
1003.316	4686.26
1003.484	3932.61
1003.653	3645.9
1003.821	4374.97
1003.99	3928.52
1004.158	3908.04
1004.327	3914.18
1004.495	4108.74
1004.663	3758.53
1004.832	3760.58
1005	3604.94
1005.168	4141.5
1005.337	3881.41
1005.505	3494.35
1005.673	3875.27
1005.842	4096.45
1006.01	3932.61
1006.178	3535.31
1006.346	3541.45
1006.514	3979.72
1006.683	4157.89
1006.851	3426.76
1007.019	3387.85
1007.187	3570.12
1007.355	3267.02
1007.523	3224.01
1007.691	3168.72
1007.859	3310.03
1008.027	3983.81
1008.195	3387.85
1008.363	3279.31
1008.531	3862.98
1008.699	3492.3
1008.867	3279.31
1009.035	3154.38
1009.203	3848.65
1009.37	3492.3
1009.538	3373.52
1009.706	3619.27
1009.874	3580.36
1010.042	3449.29
1010.209	3103.18
1010.377	3099.09
1010.545	3688.9
1010.713	3592.65
1010.88	3330.51
1011.048	3426.76
1011.216	3494.35
1011.383	3443.15
1011.551	3101.14
1011.718	3043.79
1011.886	3570.12
1012.054	3406.28
1012.221	2931.16
1012.389	3019.22
1012.556	3262.93
1012.724	3791.3
1012.891	3027.41
1013.058	2746.84
1013.226	3320.27
1013.393	3283.41
1013.561	2875.86
1013.728	2824.66
1013.895	3297.74
1014.063	3234.25
1014.23	2746.84
1014.397	2666.97
1014.565	3154.38
1014.732	3031.51
1014.899	2746.84
1015.066	2593.24
1015.233	3027.41
1015.401	3197.39
1015.568	2718.17
1015.735	2771.41
1015.902	2906.58
1016.069	3099.09
1016.236	2644.44
1016.403	2513.37
1016.57	2716.12
1016.737	2978.26
1016.904	2748.89
1017.071	2492.89
1017.238	2783.7
1017.405	2949.59
1017.572	2507.23
1017.739	2718.17
1017.906	2922.96
1018.073	2884.05
1018.24	2472.41
1018.407	2634.2
1018.573	3060.18
1018.74	2685.4
1018.907	2558.42
1019.074	2193.89
1019.241	2900.44
1019.407	2685.4
1019.574	2374.11
1019.741	2320.86
1019.907	2685.4
1020.074	2771.41
1020.241	2130.4
1020.407	2263.52
1020.574	2748.89
1020.74	2798.04
1020.907	2433.5
1021.073	2208.22
1021.24	3054.03
1021.406	2920.92
1021.573	2208.22
1021.739	2103.78
1021.906	2709.97
1022.072	2425.31
1022.239	2238.94
1022.405	2150.88
1022.571	2470.36
1022.738	2345.44
1022.904	2157.02
1023.07	2130.4
1023.237	2343.39
1023.403	2566.62
1023.569	2042.34
1023.735	2101.73
1023.902	2365.92
1024.068	2386.4
1024.234	2034.14
1024.4	2089.44
1024.566	2441.69
1024.732	2507.23
1024.898	2081.25
1025.065	1855.97
1025.231	2478.55
1025.397	2091.49
1025.563	1927.65
1025.729	1866.21
1025.895	1872.36
1026.061	2050.53
1026.227	1749.48
1026.392	1931.75
1026.558	2437.59
1026.724	2314.72
1026.89	1858.02
1027.056	1925.6
1027.222	2343.39
1027.388	2101.73
1027.553	1759.72
1027.719	1749.48
1027.885	2324.96
1028.051	2122.21
1028.216	1591.78
1028.382	1864.16
1028.548	2261.47
1028.713	1937.89
1028.879	1575.4
1029.045	1810.92
1029.21	2271.71
1029.376	2122.21
1029.541	1714.66
1029.707	1614.31
1029.873	2171.36
1030.038	2120.16
1030.204	1608.17
1030.369	1655.27
1030.534	2105.82
1030.7	1878.5
1030.865	1634.79
1031.031	1565.16
1031.196	1939.94
1031.361	1896.93
1031.527	1561.06
1031.692	1534.44
1031.857	1415.66
1032.023	1927.65
1032.188	1442.28
1032.353	1638.89
1032.518	2226.65
1032.684	1862.12
1032.849	1280.49
1033.014	1567.21
1033.179	1939.94
1033.344	1978.85
1033.509	1616.36
1033.674	1501.67
1033.839	1980.9
1034.004	1878.5
1034.17	1327.6
1034.335	1249.77
1034.5	1632.74
1034.664	1505.77
1034.829	1374.7
1034.994	1403.37
1035.159	1806.82
1035.324	1657.32
1035.489	1524.2
1035.654	1204.72
1035.819	1933.79
1035.984	1706.47
1036.148	1442.28
1036.313	1264.11
1036.478	1839.59
1036.643	1493.48
1036.807	1223.15
1036.972	1227.25
1037.137	1987.04
1037.301	1497.58
1037.466	1219.05
1037.631	1233.39
1037.795	1831.4
1037.96	1630.7
1038.124	1372.65
1038.289	997.87
1038.454	1649.13
1038.618	1565.16
1038.783	1114.61
1038.947	1229.29
1039.111	1532.39
1039.276	1386.99
1039.44	1143.28
1039.605	1542.63
1039.769	1374.7
1039.933	1395.18
1040.098	1208.81
1040.262	1409.51
1040.426	1692.13
1040.591	1556.97
1040.755	1038.83
1040.919	1133.04
1041.083	1579.5
1041.248	1380.84
1041.412	961.01
1041.576	932.34
1041.74	1298.92
1041.904	1608.17
1042.068	1047.02
1042.232	1182.19
1042.397	1505.77
1042.561	1485.29
1042.725	848.37
1042.889	1229.29
1043.053	1499.63
1043.217	1487.34
1043.381	1083.89
1043.544	950.77
1043.708	1544.68
1043.872	1004.02
1044.036	657.91
1044.2	797.17
1044.364	1405.42
1044.528	1606.12
1044.691	5134.77
1044.855	811.51
1045.019	1501.67
1045.183	1341.93
1045.346	913.91
1045.51	864.75
1045.674	1280.49
1045.837	1407.47
1046.001	842.23
1046.165	825.84
1046.328	1772
1046.492	1386.99
1046.655	1065.46
1046.819	942.58
1046.983	1135.09
1047.146	1303.02
1047.31	971.25
1047.473	694.77
1047.636	1153.52
1047.8	918
1047.963	811.51
1048.127	805.36
1048.29	991.73
