Data from Hydrogel_Ink_Intensity_Test_1_USB4F045381__0__00000.txt Node

Date: Mon Jul 31 10:33:51 EDT 2023
User: mmckonesweet
Spectrometer: USB4F04538
Trigger mode: 4
Integration Time (sec): 9.000000E-1
Scans to average: 1
Electric dark correction enabled: true
Nonlinearity correction enabled: false
Boxcar width: 0
XAxis mode: Wavelengths
Number of Pixels in Spectrum: 3648
>>>>>Begin Spectral Data<<<<<
345.52	-903.5
345.736	-903.5
345.952	-903.5
346.168	-932.17
346.384	-971.08
346.6	-121.17
346.816	-211.28
347.032	-149.84
347.248	206.5
347.464	-139.6
347.68	-69.97
347.896	95.91
348.112	378.53
348.328	-78.16
348.544	-137.56
348.76	-14.68
348.975	241.32
349.191	-207.19
349.407	-26.96
349.623	48.81
349.839	-72.02
350.055	-43.35
350.27	194.22
350.486	222.89
350.702	431.78
350.918	370.34
351.133	-180.56
351.349	220.84
351.565	470.69
351.781	-108.88
351.996	149.16
352.212	409.25
352.428	-98.64
352.644	-41.3
352.859	-127.32
353.075	310.95
353.291	95.91
353.506	50.86
353.722	-145.75
353.938	-39.25
354.153	532.13
354.369	222.89
354.584	-53.59
354.8	317.09
355.016	-201.04
355.231	-31.06
355.447	85.67
355.662	165.54
355.878	1019.55
356.093	-205.14
356.309	89.77
356.524	-153.94
356.74	218.79
356.955	-63.83
357.171	106.15
357.386	245.41
357.602	-176.47
357.817	50.86
358.033	34.47
358.248	439.97
358.464	186.02
358.679	7.85
358.895	-205.14
359.11	36.52
359.325	523.94
359.541	298.66
359.756	145.06
359.972	-209.23
360.187	206.5
360.402	-24.92
360.618	24.23
360.833	958.11
361.048	249.51
361.264	-55.64
361.479	69.29
361.694	18.09
361.909	272.04
362.125	3.75
362.34	128.68
362.555	294.57
362.77	165.54
362.986	-129.36
363.201	44.71
363.416	374.44
363.631	132.78
363.847	1.71
364.062	-61.78
364.277	224.94
364.492	212.65
364.707	5.8
364.922	-229.71
365.138	419.49
365.353	505.51
365.568	-8.53
365.783	16.04
365.998	177.83
366.213	677.54
366.428	-18.77
366.643	167.59
366.858	411.3
367.073	331.43
367.288	48.81
367.503	-98.64
367.718	138.92
367.933	439.97
368.148	-67.92
368.363	112.3
368.578	126.63
368.793	511.65
369.008	-29.01
369.223	-29.01
369.438	382.63
369.653	634.53
369.868	-155.99
370.083	-29.01
370.298	198.31
370.513	622.24
370.728	267.94
370.943	20.14
371.157	-53.59
371.372	628.39
371.587	-78.16
371.802	-41.3
372.017	231.08
372.232	614.05
372.446	208.55
372.661	-22.87
372.876	386.72
373.091	286.37
373.306	202.41
373.52	48.81
373.735	-45.4
373.95	573.09
374.165	157.35
374.379	130.73
374.594	63.15
374.809	329.38
375.023	200.36
375.238	-57.68
375.453	505.51
375.667	-65.88
375.882	73.39
376.097	104.11
376.311	206.5
376.526	186.02
376.741	-45.4
376.955	292.52
377.17	743.07
377.384	743.07
377.599	104.11
377.813	11.95
378.028	650.91
378.242	353.96
378.457	206.5
378.672	-63.83
378.886	276.13
379.101	200.36
379.315	-31.06
379.53	91.82
379.744	433.83
379.958	386.72
380.173	161.45
380.387	54.95
380.602	399.01
380.816	134.82
381.031	138.92
381.245	143.02
381.459	448.16
381.674	1111.71
381.888	32.43
382.103	374.44
382.317	61.1
382.531	763.55
382.746	181.93
382.96	118.44
383.174	159.4
383.388	667.3
383.603	423.59
383.817	54.95
384.031	415.4
384.246	736.93
384.46	313
384.674	661.15
384.888	288.42
385.103	343.72
385.317	126.63
385.531	288.42
385.745	603.81
385.959	534.18
386.174	175.78
386.388	83.63
386.602	356.01
386.816	159.4
387.03	292.52
387.244	360.1
387.458	315.05
387.672	698.02
387.887	196.26
388.101	163.5
388.315	749.22
388.529	384.68
388.743	239.27
388.957	75.43
389.171	560.8
389.385	218.79
389.599	276.13
389.813	472.74
390.027	456.36
390.241	1058.46
390.455	325.29
390.669	327.33
390.883	386.72
391.097	732.83
391.311	464.55
391.525	308.9
391.738	614.05
391.952	542.37
392.166	392.87
392.38	235.18
392.594	601.76
392.808	665.25
393.022	302.76
393.236	356.01
393.449	640.67
393.663	603.81
393.877	204.46
394.091	368.29
394.305	405.16
394.518	337.57
394.732	323.24
394.946	421.54
395.16	874.14
395.373	487.08
395.587	272.04
395.801	368.29
396.015	642.72
396.228	675.49
396.442	300.71
396.656	157.35
396.869	822.94
397.083	861.85
397.297	437.92
397.51	358.05
397.724	831.13
397.938	605.86
398.151	272.04
398.365	272.04
398.578	677.54
398.792	902.81
399.005	560.8
399.219	427.68
399.433	655.01
399.646	648.86
399.86	558.75
400.073	575.14
400.287	927.39
400.5	595.62
400.714	614.05
400.927	575.14
401.141	747.17
401.354	1595.03
401.567	761.5
401.781	286.37
401.994	880.29
402.208	1146.52
402.421	620.19
402.635	681.63
402.848	597.67
403.061	878.24
403.275	603.81
403.488	439.97
403.701	1099.42
403.915	931.48
404.128	716.45
404.341	530.08
404.555	755.36
404.768	741.02
404.981	695.97
405.195	564.9
405.408	1164.95
405.621	894.62
405.834	751.26
406.048	655.01
406.261	1089.18
406.474	1214.1
406.687	546.47
406.9	773.79
407.114	767.65
407.327	818.85
407.54	622.24
407.753	550.56
407.966	650.91
408.179	964.25
408.392	644.77
408.605	491.17
408.819	1064.6
409.032	964.25
409.245	622.24
409.458	892.57
409.671	1097.37
409.884	1210.01
410.097	458.4
410.31	835.23
410.523	1011.36
410.736	839.33
410.949	738.98
411.162	800.41
411.375	1312.41
411.588	1234.58
411.801	941.72
412.014	677.54
412.227	968.35
412.44	896.67
412.653	775.84
412.865	888.48
413.078	1265.3
413.291	1103.51
413.504	956.06
413.717	749.22
413.93	1226.39
414.143	784.03
414.356	882.33
414.568	648.86
414.781	1220.25
414.994	1062.55
415.207	921.24
415.42	886.43
415.632	1244.82
415.845	1681.04
416.058	747.17
416.271	861.85
416.483	1066.65
416.696	1398.42
416.909	997.02
417.121	951.96
417.334	1298.07
417.547	1570.45
417.759	992.92
417.972	908.96
418.185	956.06
418.397	1310.36
418.61	908.96
418.823	964.25
419.035	1525.4
419.248	1281.69
419.46	1111.71
419.673	1175.19
419.885	1365.65
420.098	1167
420.311	1019.55
420.523	896.67
420.736	1377.94
420.948	1218.2
421.161	1035.93
421.373	880.29
421.586	1355.41
421.798	1033.88
422.01	933.53
422.223	1193.62
422.435	1173.14
422.648	1447.57
422.86	1140.38
423.073	1136.28
423.285	1580.69
423.497	1003.16
423.71	1152.67
423.922	1119.9
424.134	1455.76
424.347	1633.94
424.559	1400.47
424.771	1480.34
424.984	1169.05
425.196	1470.1
425.408	1062.55
425.621	992.92
425.833	1640.08
426.045	1734.29
426.257	1154.71
426.47	1156.76
426.682	1527.44
426.894	1592.98
427.106	1308.31
427.318	1439.38
427.531	1218.2
427.743	1775.25
427.955	1242.78
428.167	1742.48
428.379	1654.42
428.591	1439.38
428.804	1582.74
429.016	1322.65
429.228	1613.46
429.44	1676.95
429.652	1678.99
429.864	1330.84
430.076	1611.41
430.288	1691.28
430.5	1603.22
430.712	1523.35
430.924	1853.07
431.136	1713.81
431.348	1339.03
431.56	1494.68
431.772	1701.52
431.984	1666.71
432.196	1502.87
432.408	1683.09
432.62	1687.18
432.832	1980.04
433.044	1844.88
433.256	1736.34
433.468	2123.4
433.679	1582.74
433.891	1619.6
434.103	1947.28
434.315	2233.99
434.527	2109.07
434.739	1775.25
434.95	1928.85
435.162	2201.23
435.374	1848.97
435.586	1789.58
435.798	1789.58
436.009	1728.14
436.221	1924.75
436.433	1951.37
436.645	1873.55
436.856	1945.23
437.068	2248.33
437.28	1822.35
437.491	2193.03
437.703	2338.44
437.915	2104.97
438.126	1984.14
438.338	2199.18
438.55	2176.65
438.761	2213.51
438.973	2041.48
439.184	1902.22
439.396	2227.85
439.608	2420.36
439.819	2010.76
440.031	2107.02
440.242	2309.77
440.454	2455.17
440.665	2082.44
440.877	2277
441.088	2395.78
441.3	2172.55
441.511	1986.19
441.723	2064.01
441.934	2422.41
442.146	2297.48
442.357	2367.11
442.569	2399.88
442.78	2281.1
442.991	2678.4
443.203	2420.36
443.414	2115.21
443.626	2674.31
443.837	2285.19
444.048	2264.71
444.26	2133.64
444.471	2465.41
444.682	2713.22
444.894	2070.16
445.105	2219.66
445.316	2745.98
445.528	2645.63
445.739	2418.31
445.95	2526.85
446.161	2549.38
446.373	2887.29
446.584	2479.75
446.795	2537.09
447.006	2754.18
447.217	3018.36
447.429	2270.86
447.64	2338.44
447.851	2926.21
448.062	2670.21
448.273	2264.71
448.484	2506.37
448.695	2797.18
448.907	2723.46
449.118	2580.1
449.329	2764.42
449.54	2616.96
449.751	2606.72
449.962	2580.1
450.173	2639.49
450.384	3071.61
450.595	3143.29
450.806	2764.42
451.017	2698.88
451.228	3223.16
451.439	3208.83
451.65	2705.03
451.861	2561.67
452.072	2743.94
452.283	2948.73
452.494	3098.24
452.705	2840.19
452.915	3323.51
453.126	3176.06
453.337	2829.95
453.548	2940.54
453.759	3251.83
453.97	3616.37
454.181	3128.95
454.391	3047.04
454.602	3325.56
454.813	3319.42
455.024	3182.2
455.235	3116.67
455.445	3300.98
455.656	3452.53
455.867	3088
456.078	3214.97
456.288	3300.98
456.499	3614.32
456.71	3133.05
456.921	3395.19
457.131	3522.16
457.342	3626.61
457.553	3425.91
457.763	3186.3
457.974	3810.93
458.184	3778.16
458.395	3335.8
458.606	3307.13
458.816	3931.76
459.027	4232.81
459.237	3675.76
459.448	3475.06
459.659	3946.09
459.869	4251.24
460.08	3413.62
460.29	3751.54
460.501	4374.12
460.711	3964.53
460.922	3550.84
461.132	3849.84
461.343	4634.21
461.553	3753.59
461.764	3843.7
461.974	3985.01
462.184	4191.85
462.395	4376.17
462.605	4236.91
462.816	3767.92
463.026	4320.87
463.236	4494.95
463.447	4132.46
463.657	4038.25
463.867	4505.19
464.078	4486.76
464.288	4253.29
464.498	4308.58
464.709	4593.25
464.919	4568.68
465.129	4488.81
465.339	4607.59
465.55	4671.08
465.76	4884.06
465.97	4609.64
466.18	4648.55
466.391	5254.75
466.601	4904.54
466.811	4836.96
467.021	4775.52
467.231	5303.9
467.441	5138.01
467.651	5113.44
467.862	4914.78
468.072	5355.1
468.282	5844.56
468.492	5244.51
468.702	5394.01
468.912	5543.51
469.122	5998.16
469.332	5602.9
469.542	5588.57
469.752	5994.06
469.962	5877.33
470.172	5639.76
470.382	5697.11
470.592	6235.72
470.802	6385.23
471.012	6069.84
471.222	5889.62
471.432	6334.03
471.642	6526.54
471.852	6426.18
472.062	6127.18
472.272	6372.94
472.482	6364.75
472.691	6411.85
472.901	6164.04
473.111	6729.28
473.321	7382.59
473.531	6704.71
473.741	6782.53
473.95	7155.26
474.16	7067.2
474.37	7040.58
474.58	7024.19
474.79	8017.46
474.999	7396.92
475.209	7173.69
475.419	7378.49
475.628	7745.08
475.838	7947.83
476.048	7495.22
476.258	7437.88
476.467	8367.66
476.677	7919.15
476.886	8185.39
477.096	8185.39
477.306	8080.94
477.515	8549.93
477.725	8326.7
477.935	8269.36
478.144	8797.73
478.354	8644.13
478.563	8744.49
478.773	8754.73
478.982	9082.4
479.192	9311.77
479.401	8893.99
479.611	8961.57
479.82	8926.75
480.03	9371.16
480.239	9246.24
480.449	9217.57
480.658	10016.27
480.868	9598.49
481.077	9760.28
481.287	9604.63
481.496	10147.34
481.705	10216.97
481.915	10112.53
482.124	10098.19
482.333	10253.84
482.543	10614.28
482.752	10409.48
482.961	10395.15
483.171	10765.83
483.38	10632.71
483.589	10704.39
483.799	10929.67
484.008	11001.35
484.217	11439.61
484.426	10909.19
484.636	11027.97
484.845	11484.67
485.054	11046.4
485.263	11480.57
485.472	11263.49
485.682	12033.52
485.891	11863.54
486.1	11294.21
486.309	11859.45
486.518	12203.5
486.727	12217.84
486.936	11912.69
487.146	11976.18
487.355	12594.67
487.564	12131.83
487.773	12146.16
487.982	12203.5
488.191	12465.64
488.4	12547.56
488.609	12918.25
488.818	12850.66
489.027	13698.52
489.236	13268.45
489.445	13073.89
489.654	13110.75
489.863	13415.9
490.072	13288.93
490.281	13653.47
490.49	13235.68
490.698	13784.54
490.907	13983.19
491.116	13606.36
491.325	13471.2
491.534	14300.62
491.743	13815.26
491.952	13845.98
492.16	13968.85
492.369	14147.03
492.578	14466.51
492.787	13991.38
492.996	13870.55
493.204	14366.16
493.413	15166.92
493.622	14282.19
493.831	14237.14
494.039	15216.07
494.248	14552.52
494.457	14802.38
494.665	14720.46
494.874	15134.15
495.083	15812.03
495.291	15025.61
495.5	15181.25
495.709	15494.59
495.917	15648.19
496.126	15427.01
496.335	15513.02
496.543	15510.97
496.752	15895.99
496.96	15834.55
497.169	15414.72
497.377	16086.45
497.586	16266.67
497.794	16068.02
498.003	15900.09
498.211	16362.93
498.42	16573.87
498.628	16127.41
498.837	16258.48
499.045	16960.94
499.254	16514.48
499.462	16547.25
499.671	16657.84
499.879	16924.07
500.087	17233.32
500.296	16637.36
500.504	17046.95
500.713	17223.08
500.921	17663.39
501.129	16696.75
501.338	16919.98
501.546	17558.94
501.754	17452.45
501.962	17243.56
502.171	17266.08
502.379	18005.4
502.587	18017.69
502.795	17382.82
503.004	17706.4
503.212	18111.89
503.42	18390.42
503.628	17874.33
503.837	17993.11
504.045	18322.84
504.253	18576.78
504.461	18046.36
504.669	18298.26
504.877	18435.47
505.085	18779.53
505.294	18220.44
505.502	18193.81
505.71	18552.21
505.918	18638.22
506.126	18425.23
506.334	18406.8
506.542	18929.03
506.75	18773.39
506.958	18832.78
507.166	18654.61
507.374	18734.48
507.582	19645.82
507.79	19041.67
507.998	18783.63
508.206	19162.5
508.414	19383.68
508.622	19150.21
508.83	19207.56
509.037	20053.37
509.245	19348.87
509.453	19006.86
509.661	19486.08
509.869	20155.77
510.077	19375.49
510.285	19717.5
510.492	19596.67
510.7	20395.38
510.908	19875.2
511.116	19518.85
511.324	19817.85
511.531	19854.72
511.739	20534.64
511.947	20301.17
512.155	20051.32
512.362	20426.1
512.57	20297.08
512.778	20026.75
512.985	20196.73
513.193	20538.74
513.401	20749.68
513.608	20712.81
513.816	20303.22
514.024	20680.05
514.231	21333.35
514.439	20383.09
514.646	20462.96
514.854	21255.53
515.061	21140.84
515.269	20352.37
515.477	20610.42
515.684	20821.36
515.892	21509.47
516.099	20772.21
516.307	20962.67
516.514	21521.76
516.722	21486.95
516.929	21300.58
517.136	21024.11
517.344	21624.16
517.551	21605.73
517.759	21321.06
517.966	21470.56
518.173	21456.23
518.381	21982.56
518.588	21497.19
518.796	21603.68
519.003	22121.82
519.21	22019.42
519.418	22084.95
519.625	22203.74
519.832	22203.74
520.039	22195.54
520.247	22144.34
520.454	21988.7
520.661	22689.1
520.868	22330.71
521.076	22369.62
521.283	22383.96
521.49	22981.96
521.697	22601.04
521.904	22642
522.112	22531.41
522.319	23006.54
522.526	22789.45
522.733	22697.3
522.94	22922.57
523.147	23057.74
523.354	23496
523.561	22656.34
523.768	23027.02
523.975	23141.71
524.183	23487.81
524.39	23399.75
524.597	23213.38
524.804	23446.85
525.011	23725.38
525.218	23027.02
525.425	23711.04
525.632	24026.43
525.838	23831.87
526.045	23420.23
526.252	23399.75
526.459	25201.96
526.666	24616.24
526.873	23510.34
527.08	24196.41
527.287	24307
527.494	24220.99
527.701	23958.85
527.907	23954.75
528.114	24685.87
528.321	24102.2
528.528	24163.64
528.735	24626.48
528.941	24304.95
529.148	24448.31
529.355	24413.49
529.562	24347.96
529.768	25173.29
529.975	24214.84
530.182	24659.25
530.388	24255.8
530.595	25169.19
530.802	24857.9
531.008	25320.74
531.215	25019.69
531.422	25818.4
531.628	26199.32
531.835	25308.46
532.042	25314.6
532.248	25470.25
532.455	25373.99
532.661	25240.87
532.868	25404.71
533.074	26049.82
533.281	26006.81
533.487	25836.83
533.694	25378.09
533.9	25744.67
534.107	26266.91
534.313	25572.64
534.52	25423.14
534.726	26240.28
534.933	26774.8
535.139	25961.76
535.345	25976.09
535.552	26189.08
535.758	26410.26
535.965	26518.81
536.171	26436.89
536.377	26903.82
536.584	27012.37
536.79	26268.95
536.996	26737.94
537.203	26918.16
537.409	26821.91
537.615	26645.78
537.821	26942.74
538.028	27559.17
538.234	27315.47
538.44	26557.72
538.646	26723.6
538.853	27501.83
539.059	27059.47
539.265	27561.22
539.471	26944.78
539.677	27518.21
539.883	27122.96
540.09	27450.63
540.296	27884.8
540.502	27741.44
540.708	27538.69
540.914	27796.74
541.12	27739.4
541.326	27909.38
541.532	28091.65
541.738	28083.45
541.944	27942.14
542.15	28611.83
542.356	28251.39
542.562	28456.18
542.768	28085.5
542.974	29246.7
543.18	29154.54
543.386	28409.08
543.592	28480.76
543.798	28749.04
544.004	29138.16
544.21	28617.97
544.415	28966.13
544.621	29064.43
544.827	29230.32
545.033	29211.88
545.239	29310.19
545.445	29490.41
545.651	28675.32
545.856	29078.77
546.062	29273.32
546.268	29261.04
546.474	29347.05
546.679	28957.94
546.885	29156.59
547.091	29082.86
547.297	29678.82
547.502	29428.97
547.708	29119.73
547.914	28951.79
548.119	29744.36
548.325	29480.17
548.531	29689.06
548.736	30366.94
548.942	29494.5
549.147	29412.59
549.353	29816.04
549.559	30407.9
549.764	29662.44
549.97	28962.03
550.175	29465.83
550.381	30448.86
550.586	29478.12
550.792	30047.46
550.997	30082.27
551.203	30233.82
551.408	30733.53
551.614	29840.61
551.819	30469.34
552.025	30794.96
552.23	31192.27
552.435	30577.88
552.641	31397.07
552.846	30651.61
553.052	31282.38
553.257	31020.24
553.462	30997.71
553.668	30696.66
553.873	31620.3
554.078	30983.38
554.283	31059.15
554.489	31683.78
554.694	31595.72
554.899	31087.82
555.105	31646.92
555.31	31687.88
555.515	32005.31
555.72	31399.12
555.925	31261.9
556.131	32179.39
556.336	31403.21
556.541	31812.81
556.746	31380.68
556.951	32228.54
557.156	31999.17
557.361	31583.43
557.567	32398.52
557.772	32480.44
557.977	32322.75
558.182	31745.22
558.387	31999.17
558.592	31767.75
558.797	32357.56
559.002	32140.48
559.207	32183.49
559.412	32513.21
559.617	32662.71
559.822	32120
560.027	32410.81
560.232	32615.61
560.437	32619.7
560.642	32425.15
560.847	32564.41
561.051	32629.94
561.256	32806.07
561.461	32462.01
561.666	32390.33
561.871	33281.2
562.076	33234.1
562.281	32943.28
562.485	32404.67
562.69	33135.79
562.895	32822.45
563.1	33352.88
563.305	32605.37
563.509	33402.03
563.714	33739.94
563.919	32713.91
564.123	32887.99
564.328	33201.33
564.533	33600.68
564.737	32808.12
564.942	33086.64
565.147	34137.25
565.351	33995.94
565.556	33053.87
565.761	33438.89
565.965	33592.49
566.17	33717.42
566.374	33060.02
566.579	33615.02
566.784	33240.24
566.988	33891.49
567.193	33012.91
567.397	33563.82
567.602	33848.49
567.806	33729.7
568.011	33762.47
568.215	34028.71
568.42	33926.31
568.624	34092.19
568.828	33983.65
569.033	33977.51
569.237	34276.51
569.442	34231.46
569.646	33774.76
569.85	34282.66
570.055	34192.54
570.259	34415.77
570.463	34663.58
570.668	34227.36
570.872	34450.59
571.076	34274.46
571.281	34172.07
571.485	34905.24
571.689	34708.63
571.893	35112.08
572.098	35126.42
572.302	34643.1
572.506	35015.83
572.71	34647.19
572.914	34835.61
573.119	35185.81
573.323	35329.17
573.527	34952.34
573.731	35118.23
573.935	34839.7
574.139	35622.03
574.343	35234.96
574.547	34983.06
574.751	35495.05
574.955	35357.84
575.159	35658.89
575.364	35067.03
575.568	34931.86
575.772	35353.74
575.976	35261.58
576.18	35114.13
576.383	35472.53
576.587	35765.38
576.791	35978.37
576.995	35667.08
577.199	35675.27
577.403	36058.24
577.607	36527.23
577.811	35900.55
578.015	35914.89
578.219	36203.65
578.422	36129.92
578.626	36150.4
578.83	36086.92
579.034	35927.17
579.238	36199.55
579.442	35898.5
579.645	36222.08
579.849	36209.79
580.053	36603
580.257	36021.38
580.46	36174.98
580.664	36748.41
580.868	36519.04
581.071	36617.34
581.275	36625.53
581.479	36529.28
581.682	36979.83
581.886	36504.7
582.09	36914.3
582.293	37338.22
582.497	36846.71
582.7	37149.81
582.904	36916.34
583.107	36863.1
583.311	36832.38
583.515	36998.26
583.718	36707.45
583.922	37108.85
584.125	37626.99
584.329	36584.57
584.532	37190.77
584.735	37852.27
584.939	37006.45
585.142	36967.54
585.346	37194.87
585.549	37723.24
585.753	37479.53
585.956	37594.22
586.159	37479.53
586.363	38431.84
586.566	38108.26
586.769	37411.95
586.973	37250.16
587.176	37801.07
587.379	38161.51
587.582	38128.74
587.786	38046.82
587.989	38001.77
588.192	38446.18
588.395	37825.64
588.599	38284.39
588.802	38478.94
589.005	38116.45
589.208	38038.63
589.411	37977.19
589.615	38323.3
589.818	39107.67
590.021	38648.92
590.224	38558.81
590.427	38982.74
590.63	38863.96
590.833	38626.4
591.036	38403.17
591.239	38696.03
591.442	38759.52
591.645	39167.06
591.848	38966.36
592.051	39273.56
592.254	39455.82
592.457	39191.64
592.66	38837.34
592.863	39466.06
593.066	39498.83
593.269	39230.55
593.472	39097.43
593.675	39466.06
593.878	39791.69
594.081	39580.75
594.284	39363.67
594.486	40232
594.689	39859.27
594.892	39263.32
595.095	39973.96
595.298	39642.19
595.5	39822.41
595.703	39814.22
595.906	39846.99
596.109	40647.74
596.311	40283.2
596.514	39410.77
596.717	40145.99
596.92	40707.13
597.122	40475.71
597.325	39486.54
597.528	40178.76
597.73	40838.2
597.933	40518.72
598.136	40342.6
598.338	39961.67
598.541	40770.62
598.743	41067.58
598.946	40207.43
599.148	40508.48
599.351	40631.36
599.554	40805.44
599.756	40467.52
599.959	40711.23
600.161	40938.55
600.363	41634.86
600.566	40969.27
600.768	40756.28
600.971	41270.32
601.173	40875.07
601.376	40739.9
601.578	41038.9
601.78	41002.04
601.983	41491.51
602.185	40481.86
602.388	41024.57
602.59	41438.26
602.792	40946.75
602.995	41219.13
603.197	41204.79
603.399	41915.44
603.601	41337.91
603.804	41612.34
604.006	41370.68
604.208	40942.65
604.41	41061.43
604.613	41364.53
604.815	41186.36
605.017	42236.97
605.219	41292.85
605.421	41616.43
605.623	41024.57
605.826	42196.01
606.028	41802.8
606.23	41055.29
606.432	41542.7
606.634	41851.95
606.836	41876.52
607.038	41761.84
607.24	41630.77
607.442	41647.15
607.644	41837.61
607.846	41770.03
608.048	41690.16
608.25	42083.37
608.452	41444.4
608.654	41679.92
608.856	41354.29
609.058	41718.83
609.26	41714.73
609.462	41634.86
609.664	42007.59
609.866	42378.28
610.067	42163.24
610.269	41722.93
610.471	42101.8
610.673	42101.8
610.875	41966.63
611.077	41540.66
611.278	41497.65
611.48	41925.67
611.682	42245.16
611.884	41864.24
612.085	41565.23
612.287	41839.66
612.489	42286.12
612.69	41673.77
612.892	41946.15
613.094	42128.42
613.295	42204.2
613.497	41921.58
613.699	41778.22
613.9	42847.26
614.102	42572.83
614.304	42048.55
614.505	41708.59
614.707	42382.37
614.908	42026.03
615.11	41999.4
615.311	41929.77
615.513	41978.92
615.714	42533.92
615.916	42263.59
616.117	42374.18
616.319	42269.73
616.52	42435.62
616.722	42023.98
616.923	42599.46
617.124	42824.73
617.326	41806.89
617.527	42654.75
617.729	42662.94
617.93	42685.47
618.131	43056.15
618.333	42267.69
618.534	42587.17
618.735	42062.89
618.937	42726.43
619.138	41882.67
619.339	42204.2
619.54	42654.75
619.742	42804.25
619.943	42359.84
620.144	42269.73
620.345	42996.76
620.546	43007
620.748	42591.26
620.949	42556.45
621.15	42978.33
621.351	42634.27
621.552	41825.32
621.753	42673.18
621.954	42501.15
622.155	42705.95
622.356	42388.52
622.558	42875.93
622.759	42931.23
622.96	42941.47
623.161	42456.1
623.362	42263.59
623.563	42849.31
623.764	42593.31
623.965	42562.59
624.166	43176.98
624.366	42933.28
624.567	42871.84
624.768	42288.17
624.969	42423.33
625.17	42685.47
625.371	42832.93
625.572	42452
625.773	42427.43
625.973	43131.93
626.174	42853.4
626.375	43252.76
626.576	43281.43
626.777	43260.95
626.977	43734.03
627.178	43019.29
627.379	42667.04
627.58	42646.56
627.78	42802.21
627.981	42875.93
628.182	43291.67
628.382	43475.99
628.583	42654.75
628.784	42742.81
628.984	43000.86
629.185	43555.86
629.386	42890.27
629.586	42949.66
629.787	43242.52
629.987	43555.86
630.188	43797.52
630.388	43234.33
630.589	42806.3
630.79	43654.16
630.99	43389.97
631.191	43645.97
631.391	43605.01
631.591	43093.02
631.792	43514.9
631.992	43336.73
632.193	43682.83
632.393	43758.61
632.594	43971.6
632.794	43408.4
632.994	43824.14
633.195	43762.7
633.395	43703.31
633.595	43146.26
633.796	43813.9
633.996	43619.35
634.196	43762.7
634.397	43850.77
634.597	43486.23
634.797	43613.2
634.997	44555.27
635.198	43473.94
635.398	43416.6
635.598	44098.57
635.798	44155.91
635.998	43754.51
636.199	43498.51
636.399	43836.43
636.599	43551.76
636.799	43875.34
636.999	43865.1
637.199	43680.78
637.399	43942.92
637.599	43611.15
637.799	43846.67
637.999	43901.96
638.199	44039.18
638.399	43738.13
638.599	43826.19
638.799	44129.29
638.999	44917.76
639.199	44286.98
639.399	44266.5
639.599	44839.93
639.799	43916.3
639.999	44012.56
640.199	43965.45
640.399	44088.33
640.599	43019.29
640.799	44508.16
640.998	44256.26
641.198	44117
641.398	44311.56
641.598	44039.18
641.798	44545.03
641.997	44966.91
642.197	44430.34
642.397	44454.92
642.597	44383.24
642.796	44608.51
642.996	44798.98
643.196	44450.82
643.395	44147.72
643.595	44487.68
643.795	44176.39
643.994	44594.18
644.194	44704.77
644.394	45046.78
644.593	44692.48
644.793	44932.09
644.992	44551.17
645.192	44758.02
645.392	44463.11
645.591	45173.75
645.791	44792.83
645.99	44456.96
646.19	44489.73
646.389	44860.41
646.589	44735.49
646.788	44905.47
646.987	45032.44
647.187	45177.85
647.386	44669.95
647.586	44901.37
647.785	45161.47
647.984	44616.71
648.184	45075.45
648.383	44669.95
648.582	44655.62
648.782	44995.58
648.981	45011.96
649.18	44807.17
649.38	45263.86
649.579	44975.1
649.778	45286.39
649.977	45396.98
650.177	44966.91
650.376	45067.26
650.575	44571.65
650.774	45708.27
650.973	44837.89
651.173	44502.02
651.372	45339.64
651.571	45267.96
651.77	45542.39
651.969	45339.64
652.168	45095.93
652.367	44911.61
652.566	45519.86
652.765	45302.78
652.964	45681.65
653.163	46083.05
653.362	45480.95
653.561	44907.52
653.76	45564.92
653.959	45196.28
654.158	45992.94
654.357	45110.27
654.556	45390.84
654.755	45782
654.954	45642.74
655.153	44997.63
655.352	45364.21
655.551	46005.23
655.749	45446.13
655.948	45646.83
656.147	45775.86
656.346	45812.72
656.545	45276.15
656.743	45335.54
656.942	45818.86
657.141	45820.91
657.34	45839.34
657.538	45423.61
657.737	45433.85
657.936	46164.97
658.135	45960.17
658.333	45413.37
658.532	45859.82
658.731	46031.85
658.929	46089.2
659.128	45452.28
659.326	45638.64
659.525	46255.08
659.724	46103.53
659.922	45188.09
660.121	45310.97
660.319	45614.07
660.518	45331.45
660.716	45714.42
660.915	45546.48
661.113	46386.15
661.312	45605.87
661.51	45888.49
661.709	46109.68
661.907	46072.81
662.105	46017.52
662.304	45849.58
662.502	46015.47
662.701	45980.65
662.899	45405.17
663.097	46242.79
663.296	45335.54
663.494	46130.15
663.692	46177.26
663.891	46072.81
664.089	45566.96
664.287	46113.77
664.485	45878.25
664.684	45978.61
664.882	45661.17
665.08	45681.65
665.278	46400.49
665.476	45589.49
665.675	45816.82
665.873	46291.94
666.071	46291.94
666.269	46169.07
666.467	45632.5
666.665	45851.63
666.863	45491.19
667.061	45638.64
667.259	46187.5
667.457	46058.48
667.655	46318.57
667.853	45851.63
668.051	45487.09
668.249	45601.78
668.447	46087.15
668.645	45104.12
668.843	45947.89
669.041	46119.91
669.239	45892.59
669.437	45956.08
669.635	46240.75
669.833	46115.82
670.031	46115.82
670.229	45487.09
670.426	45845.49
670.624	45638.64
670.822	45382.65
671.02	45847.54
671.218	45685.75
671.415	45399.03
671.613	45857.77
671.811	45366.26
672.009	45722.61
672.206	46089.2
672.404	45822.96
672.602	45505.52
672.799	45609.97
672.997	45972.46
673.195	45861.87
673.392	45681.65
673.59	45239.29
673.788	45558.77
673.985	45138.94
674.183	45046.78
674.38	45544.44
674.578	45853.68
674.775	44913.66
674.973	45159.42
675.17	45255.67
675.368	45333.49
675.565	45632.5
675.763	45151.23
675.96	44841.98
676.158	45648.88
676.355	44846.08
676.553	45106.17
676.75	45038.59
676.947	45411.32
677.145	45419.51
677.342	45083.64
677.539	45061.12
677.737	45442.04
677.934	45323.26
678.131	45673.46
678.329	45407.22
678.526	45554.68
678.723	45575.16
678.92	45124.6
679.118	44717.06
679.315	45007.87
679.512	45558.77
679.709	44542.98
679.906	44432.39
680.104	45300.73
680.301	45163.51
680.498	44753.92
680.695	44721.15
680.892	44526.6
681.089	44909.57
681.286	44899.33
681.483	44041.23
681.68	44807.17
681.877	45378.55
682.075	44569.6
682.272	44837.89
682.469	44649.47
682.665	44766.21
682.862	44100.62
683.059	44524.55
683.256	44735.49
683.453	44452.87
683.65	44291.08
683.847	44956.67
684.044	44780.54
684.241	44350.47
684.438	44821.5
684.635	44567.55
684.831	45554.68
685.028	44948.48
685.225	44444.68
685.422	44000.27
685.619	44264.46
685.815	43926.54
686.012	44403.72
686.209	44211.21
686.405	44243.98
686.602	44514.31
686.799	43959.31
686.996	44225.54
687.192	44000.27
687.389	44459.01
687.586	43625.49
687.782	44112.91
687.979	44854.27
688.175	44051.47
688.372	44026.89
688.568	43979.79
688.765	43615.25
688.962	44553.22
689.158	43531.28
689.355	43605.01
689.551	43713.55
689.748	43543.57
689.944	43443.22
690.14	42996.76
690.337	43889.68
690.533	43619.35
690.73	44012.56
690.926	43875.34
691.123	43158.55
691.319	43637.78
691.515	43512.85
691.712	43219.99
691.908	43461.65
692.104	43742.22
692.301	43695.12
692.497	43541.52
692.693	44030.99
692.889	43951.12
693.086	43367.44
693.282	43271.19
693.478	43410.45
693.674	43848.72
693.87	43138.07
694.067	43154.46
694.263	43764.75
694.459	43074.59
694.655	43572.24
694.851	43342.87
695.047	43684.88
695.243	43498.51
695.439	43039.77
695.635	43232.28
695.831	43422.74
696.027	42890.27
696.224	42884.12
696.42	43494.42
696.615	43494.42
696.811	43381.78
697.007	42863.64
697.203	42806.3
697.399	43109.4
697.595	43203.61
697.791	42353.7
697.987	42349.6
698.183	42714.14
698.379	42650.66
698.575	43187.22
698.77	42560.55
698.966	43080.73
699.162	42763.29
699.358	42998.81
699.554	42286.12
699.749	42742.81
699.945	42810.4
700.141	42218.53
700.337	42720.29
700.532	42445.86
700.728	42576.93
700.924	42646.56
701.119	42409
701.315	42333.22
701.511	42488.87
701.706	43072.54
701.902	41968.68
702.097	42533.92
702.293	42990.62
702.489	42507.3
702.684	42517.54
702.88	42535.97
703.075	42208.29
703.271	41905.2
703.466	42071.08
703.662	42157.1
703.857	42742.81
704.053	42177.58
704.248	41980.97
704.443	42787.87
704.639	42421.28
704.834	42458.15
705.03	42095.66
705.225	42163.24
705.42	42347.56
705.616	41843.76
705.811	41901.1
706.006	41968.68
706.202	42273.83
706.397	41755.69
706.592	41702.45
706.787	42109.99
706.983	42275.88
707.178	41903.15
707.373	42077.22
707.568	42220.58
707.763	42042.41
707.959	41888.81
708.154	42064.94
708.349	41671.73
708.544	42347.56
708.739	41630.77
708.934	41243.7
709.129	42058.79
709.324	42329.12
709.519	42042.41
709.714	41720.88
709.909	42243.11
710.104	42073.13
710.299	41223.22
710.494	41962.54
710.689	41817.13
710.884	41692.21
711.079	42064.94
711.274	41860.14
711.469	42165.29
711.664	41608.24
711.859	41620.53
712.054	41638.96
712.249	41700.4
712.443	41591.86
712.638	41423.92
712.833	40870.97
713.028	41434.16
713.223	41188.41
713.417	41397.3
713.612	41102.39
713.807	41425.97
714.002	41901.1
714.196	41382.96
714.391	40940.6
714.586	40991.8
714.78	41124.92
714.975	40979.51
715.17	40647.74
715.364	41219.13
715.559	41528.37
715.754	40602.69
715.948	40959.03
716.143	41145.4
716.337	41358.39
716.532	40977.47
716.726	40684.61
716.921	40801.34
717.115	41245.75
717.31	40844.35
717.504	41126.97
717.699	40758.33
717.893	40283.2
718.088	40592.45
718.282	40653.89
718.476	40657.98
718.671	40764.48
718.865	40533.06
719.059	39816.27
719.254	40404.03
719.448	40756.28
719.642	41145.4
719.837	39828.55
720.031	40672.32
720.225	40660.03
720.419	40399.94
720.614	39771.21
720.808	40395.84
721.002	39969.86
721.196	39746.64
721.39	40135.75
721.585	40254.53
721.779	40367.17
721.973	39621.71
722.167	39439.44
722.361	39988.3
722.555	40459.33
722.749	39689.29
722.943	39642.19
723.137	39566.41
723.331	39881.8
723.525	39533.65
723.719	39437.39
723.913	40059.98
724.107	39808.08
724.301	39550.03
724.495	39263.32
724.689	40361.03
724.883	39822.41
725.077	39322.71
725.271	39738.44
725.465	39943.24
725.659	39816.27
725.853	39687.25
726.046	39691.34
726.24	39228.5
726.434	39623.76
726.628	39623.76
726.822	39246.93
727.015	40150.09
727.209	39597.13
727.403	39564.37
727.596	39324.75
727.79	39937.1
727.984	40086.6
728.177	39486.54
728.371	39500.88
728.565	39640.14
728.758	39373.91
728.952	39449.68
729.146	39668.81
729.339	40012.87
729.533	39464.02
729.726	39533.65
729.92	39242.84
730.113	39986.25
730.307	39767.12
730.5	39025.75
730.694	39666.77
730.887	39343.19
731.081	40076.36
731.274	39656.53
731.468	39015.51
731.661	39640.14
731.854	39826.51
732.048	39806.03
732.241	39085.14
732.435	39613.52
732.628	39742.54
732.821	39666.77
733.014	39388.24
733.208	39003.22
733.401	40385.6
733.594	39304.27
733.788	39136.34
733.981	39457.87
734.174	39449.68
734.367	39210.07
734.56	39560.27
734.754	39554.13
734.947	39480.4
735.14	39099.48
735.333	39525.46
735.526	39857.23
735.719	39222.36
735.912	39367.76
736.105	39222.36
736.298	39183.44
736.491	39410.77
736.684	39103.57
736.877	39427.15
737.07	39447.63
737.263	39584.85
737.456	39027.8
737.649	38827.1
737.842	39302.23
738.035	39404.63
738.228	38786.14
738.421	39500.88
738.614	39740.49
738.807	39971.91
739	38614.11
739.192	38650.97
739.385	39199.83
739.578	39410.77
739.771	39222.36
739.964	38872.15
740.156	39357.52
740.349	39406.67
740.542	39001.18
740.735	38689.88
740.927	38665.31
741.12	39005.27
741.313	38831.19
741.505	39044.18
741.698	39271.51
741.891	39298.13
742.083	39017.56
742.276	39003.22
742.468	38868.06
742.661	38675.55
742.854	38984.79
743.046	38630.49
743.239	39218.26
743.431	39197.78
743.624	38556.77
743.816	38650.97
744.009	39107.67
744.201	38779.99
744.393	38681.69
744.586	38186.08
744.778	38673.5
744.971	38931.54
745.163	38442.08
745.355	38567.01
745.548	38642.78
745.74	38554.72
745.932	38681.69
746.125	38444.13
746.317	39392.34
746.509	38296.67
746.702	38450.27
746.894	38607.97
747.086	38671.45
747.278	38917.21
747.471	38249.57
747.663	38401.12
747.855	38448.22
748.047	38591.58
748.239	38165.6
748.431	38118.5
748.623	39070.81
748.815	38483.04
749.008	38206.56
749.2	38362.21
749.392	38681.69
749.584	38171.75
749.776	38376.55
749.968	38202.47
750.16	39085.14
750.352	38425.7
750.544	37936.23
750.736	37821.55
750.928	38642.78
751.12	38030.44
751.311	37729.39
751.503	37993.57
751.695	37665.9
751.887	37792.87
752.079	37479.53
752.271	37219.44
752.463	38503.52
752.654	37438.58
752.846	37450.86
753.038	36945.01
753.23	37561.45
753.421	37598.32
753.613	37147.76
753.805	37686.38
753.997	37436.53
754.188	37649.52
754.38	37123.19
754.572	37307.51
754.763	37604.46
754.955	37239.92
755.146	37143.67
755.338	37074.04
755.53	37110.9
755.721	36957.3
755.913	36883.58
756.104	36480.13
756.296	37141.62
756.487	37186.68
756.679	36748.41
756.87	36482.17
757.062	36572.28
757.253	37250.16
757.445	36637.82
757.636	36584.57
757.827	36691.07
758.019	37563.5
758.21	36502.65
758.401	36217.99
758.593	36992.12
758.784	36799.61
758.975	36072.58
759.167	36140.16
759.358	36170.88
759.549	36494.46
759.74	35964.04
759.932	35765.38
760.123	36390.02
760.314	35916.93
760.505	35921.03
760.696	35744.91
760.888	36396.16
761.079	35839.11
761.27	35359.89
761.461	35548.3
761.652	36154.5
761.843	35724.43
762.034	35974.28
762.225	36058.24
762.416	35593.36
762.607	35732.62
762.798	35699.85
762.989	35294.35
763.18	36351.1
763.371	35284.11
763.562	35409.04
763.753	35357.84
763.944	36166.79
764.135	35497.1
764.326	35488.91
764.517	35056.79
764.708	35372.17
764.899	35394.7
765.089	34917.53
765.28	34827.42
765.471	35372.17
765.662	35224.72
765.853	35386.51
766.043	34393.25
766.234	35099.8
766.425	35267.73
766.615	35112.08
766.806	34542.75
766.997	34833.56
767.187	34749.59
767.378	34845.85
767.569	34038.95
767.759	34839.7
767.95	34872.47
768.141	34641.05
768.331	34258.08
768.522	34204.83
768.712	34727.06
768.903	34190.5
769.093	34335.9
769.284	34659.48
769.474	34325.66
769.665	33866.92
769.855	33885.35
770.046	34481.31
770.236	33698.98
770.426	33932.45
770.617	33963.17
770.807	33977.51
770.998	33795.24
771.188	33903.78
771.378	33463.47
771.569	33965.22
771.759	34016.42
771.949	33330.35
772.139	33694.89
772.33	33504.43
772.52	34204.83
772.71	33385.65
772.9	32955.57
773.09	33932.45
773.281	34020.52
773.471	33182.9
773.661	33332.4
773.851	33588.39
774.041	33287.34
774.231	32967.86
774.421	33178.8
774.611	33172.66
774.802	33248.43
774.992	32904.37
775.182	32646.33
775.372	32822.45
775.562	32828.6
775.752	32900.28
775.942	32775.35
776.131	33348.78
776.321	32677.05
776.511	32734.39
776.701	32218.3
776.891	32681.14
777.081	32160.96
777.271	32519.35
777.461	32859.32
777.651	32539.83
777.84	32791.73
778.03	32439.48
778.22	32226.49
778.41	32726.2
778.599	32412.86
778.789	32488.63
778.979	32017.6
779.169	32193.73
779.358	31655.11
779.548	32201.92
779.738	31589.58
779.927	31943.88
780.117	31849.67
780.307	31833.28
780.496	31495.37
780.686	32052.42
780.875	32197.82
781.065	31489.23
781.254	31423.69
781.444	31395.02
781.633	31640.78
781.823	31530.19
782.012	31188.17
782.202	31292.62
782.391	31362.25
782.581	31210.7
782.77	31548.62
782.96	31724.74
783.149	31038.67
783.338	31071.44
783.528	31294.67
783.717	31456.46
783.906	31632.58
784.096	31122.64
784.285	30739.67
784.474	30946.51
784.663	30762.2
784.853	30829.78
785.042	30989.52
785.231	30938.32
785.42	31288.53
785.61	30866.64
785.799	30670.04
785.988	30457.05
786.177	30670.04
786.366	30702.81
786.555	31122.64
786.744	31163.6
786.933	30973.14
787.122	30246.11
787.312	30311.64
787.501	30592.22
787.69	30684.37
787.879	30393.56
788.068	30272.73
788.257	30186.72
788.445	30303.45
788.634	30280.92
788.823	30268.64
789.012	31102.16
789.201	30610.65
789.39	30069.98
789.579	29900
789.768	30141.66
789.957	30420.19
790.145	30055.65
790.334	29840.61
790.523	29746.4
790.712	29959.39
790.9	30123.23
791.089	29693.16
791.278	30303.45
791.467	29670.63
791.655	29578.47
791.844	29994.21
792.033	29613.29
792.221	29385.96
792.41	29482.22
792.599	29066.48
792.787	30004.45
792.976	29902.05
793.164	29463.79
793.353	29545.7
793.541	29900
793.73	30008.54
793.918	29441.26
794.107	29302
794.295	29435.11
794.484	29363.43
794.672	28867.83
794.861	29265.13
795.049	29457.64
795.238	29316.33
795.426	28976.37
795.614	28613.88
795.803	29191.41
795.991	29146.35
796.179	28959.98
796.368	28822.77
796.556	29383.91
796.744	28552.44
796.932	28439.8
797.121	28712.18
797.309	28857.59
797.497	29160.69
797.685	28480.76
797.874	28179.71
798.062	28810.48
798.25	29144.3
798.438	28970.22
798.626	28673.27
798.814	29111.53
799.002	28951.79
799.19	28923.12
799.378	28908.79
799.566	29043.95
799.755	28898.55
799.943	28595.45
800.131	28488.95
800.318	29164.78
800.506	28898.55
800.694	28796.15
800.882	28445.94
801.07	29189.36
801.258	29148.4
801.446	28294.39
801.634	28216.57
801.822	28822.77
802.01	28548.34
802.197	28648.69
802.385	28632.31
802.573	28851.44
802.761	28638.45
802.949	28636.41
803.136	28239.1
803.324	28964.08
803.512	28951.79
803.699	28118.27
803.887	28820.72
804.075	29424.87
804.262	28927.22
804.45	28574.97
804.638	28898.55
804.825	28959.98
805.013	28763.38
805.201	28757.24
805.388	28812.53
805.576	29070.58
805.763	29291.76
805.951	29074.67
806.138	29306.09
806.326	29611.24
806.513	29031.66
806.701	28998.9
806.888	28843.25
807.075	29349.1
807.263	29744.36
807.45	29236.46
807.638	29095.15
807.825	29734.12
808.012	29529.32
808.2	29084.91
808.387	29727.97
808.574	29824.23
808.761	29416.68
808.949	29080.81
809.136	29277.42
809.323	29523.18
809.51	29359.34
809.698	29375.72
809.885	29416.68
810.072	29758.69
810.259	29920.48
810.446	28988.66
810.633	29449.45
810.82	29830.37
811.008	29656.29
811.195	29639.91
811.382	29152.49
811.569	29547.75
811.756	29304.04
811.943	29351.15
812.13	29648.1
812.317	29011.18
812.504	29338.86
812.691	29197.55
812.878	29416.68
813.064	29674.73
813.251	29478.12
813.438	29197.55
813.625	29369.58
813.812	29127.92
813.999	29748.45
814.186	29725.93
814.372	29158.64
814.559	29431.02
814.746	29740.26
814.933	29310.19
815.12	29578.47
815.306	29531.37
815.493	28990.7
815.68	29265.13
815.866	29035.76
816.053	29791.46
816.24	29777.12
816.426	29441.26
816.613	29256.94
816.799	29564.14
816.986	29474.02
817.173	29037.81
817.359	28984.56
817.546	29080.81
817.732	28892.4
817.919	28894.45
818.105	29267.18
818.292	28847.35
818.478	29115.63
818.665	29627.62
818.851	29254.89
819.037	29664.49
819.224	29121.77
819.41	28972.27
819.597	28699.89
819.783	29211.88
819.969	29572.33
820.156	28849.39
820.342	29027.57
820.528	29789.41
820.714	28849.39
820.901	29099.25
821.087	28716.28
821.273	29256.94
821.459	29027.57
821.646	28747
821.832	28925.17
822.018	29117.68
822.204	28785.91
822.39	28908.79
822.576	28278.01
822.762	28814.58
822.948	28855.54
823.134	28468.47
823.32	28267.77
823.507	28380.41
823.693	28654.84
823.879	28566.77
824.065	28112.13
824.25	28681.46
824.436	28292.35
824.622	28611.83
824.808	28071.17
824.994	28257.53
825.18	28062.97
825.366	28079.36
825.552	28134.65
825.738	28464.38
825.923	28400.89
826.109	28544.25
826.295	27780.35
826.481	28112.13
826.667	28028.16
826.852	28267.77
827.038	28128.51
827.224	28636.41
827.409	28278.01
827.595	27733.25
827.781	27905.28
827.966	28341.5
828.152	27835.65
828.338	27897.09
828.523	27329.8
828.709	27864.32
828.894	28099.84
829.08	27802.88
829.266	27391.24
829.451	27579.65
829.637	27602.18
829.822	27585.8
830.008	27309.32
830.193	27907.33
830.378	27817.22
830.564	27399.43
830.749	27512.07
830.935	27936
831.12	27315.47
831.305	27266.31
831.491	27346.19
831.676	27022.61
831.861	27563.27
832.047	27192.59
832.232	27100.43
832.417	27354.38
832.602	27145.48
832.788	27157.77
832.973	27061.52
833.158	27018.51
833.343	27145.48
833.528	27137.29
833.714	27090.19
833.899	27546.89
834.084	27528.45
834.269	27028.75
834.454	26914.06
834.639	27153.68
834.824	26979.6
835.009	26758.42
835.194	26909.97
835.379	27206.92
835.564	26782.99
835.749	26778.9
835.934	26617.11
836.119	26795.28
836.304	26504.47
836.489	26254.62
836.674	26768.66
836.859	26354.97
837.044	26940.69
837.228	26400.02
837.413	26158.36
837.598	26950.93
837.783	26492.18
837.968	26553.62
838.152	25863.46
838.337	26109.21
838.522	26795.28
838.707	26625.3
838.891	26447.13
839.076	26103.07
839.261	26451.22
839.445	26299.67
839.63	26092.83
839.815	26193.18
839.999	25861.41
840.184	25793.83
840.368	25883.94
840.553	26154.27
840.737	26166.56
840.922	25672.99
841.106	25597.22
841.291	25677.09
841.475	26225.95
841.66	25488.68
841.844	25613.6
842.029	26549.53
842.213	25756.96
842.397	25578.79
842.582	25367.85
842.766	26074.4
842.951	25943.33
843.135	25337.13
843.319	25169.19
843.504	25457.96
843.688	26197.27
843.872	25132.33
844.056	25242.92
844.241	25464.1
844.425	25070.89
844.609	25064.75
844.793	25027.88
844.977	25271.59
845.161	25400.62
845.346	24804.66
845.53	25077.04
845.714	25535.78
845.898	25324.84
846.082	24829.23
846.266	25003.31
846.45	24866.1
846.634	24964.4
846.818	24681.78
847.002	25074.99
847.186	25406.76
847.37	24636.72
847.554	24364.34
847.738	24888.62
847.922	25034.03
848.106	25077.04
848.29	24532.28
848.473	24569.14
848.657	24710.45
848.841	24773.94
849.025	24790.32
849.209	24440.12
849.392	24902.96
849.576	24624.43
849.76	23979.32
849.944	24470.84
850.127	24841.52
850.311	24282.42
850.495	24163.64
850.678	23905.6
850.862	24714.55
851.046	24329.53
851.229	24298.81
851.413	23760.19
851.596	24395.06
851.78	24374.58
851.964	24290.62
852.147	23790.91
852.331	24624.43
852.514	23975.23
852.698	24137.02
852.881	23551.3
853.065	24274.23
853.248	24270.14
853.431	23795.01
853.615	23512.39
853.798	24454.45
853.982	23711.04
854.165	23821.63
854.348	23350.6
854.532	23934.27
854.715	23438.66
854.898	23844.16
855.081	23512.39
855.265	23936.32
855.448	23756.1
855.631	23117.13
855.814	23438.66
855.997	23772.48
856.181	23715.14
856.364	23506.24
856.547	23051.59
856.73	23301.45
856.913	23244.1
857.096	23264.58
857.279	23522.63
857.462	23035.21
857.645	23491.91
857.828	22865.23
858.011	23137.61
858.194	23110.99
858.377	23487.81
858.56	22752.59
858.743	23072.07
858.926	22744.4
859.109	23342.41
859.292	22914.38
859.475	22680.91
859.658	23217.48
859.841	23156.04
860.023	22809.93
860.206	22472.02
860.389	23135.56
860.572	23035.21
860.755	22455.64
860.937	22574.42
861.12	22617.43
861.303	22453.59
861.486	22193.5
861.668	22625.62
861.851	22506.84
862.034	22603.09
862.216	22238.55
862.399	21744.99
862.581	22420.82
862.764	22297.94
862.947	22127.96
863.129	21814.62
863.312	21876.06
863.494	22193.5
863.677	21998.94
863.859	21579.11
864.042	22236.5
864.224	22256.98
864.406	21853.53
864.589	21241.19
864.771	21908.83
864.954	21462.37
865.136	21427.56
865.318	21235.05
865.501	21443.94
865.683	21007.72
865.865	21327.21
866.048	21200.23
866.23	21515.62
866.412	21151.08
866.594	21054.83
866.777	21235.05
866.959	21636.45
867.141	21312.87
867.323	21101.93
867.505	21325.16
867.687	21394.79
867.869	21411.17
868.052	21011.82
868.234	20960.62
868.416	21372.26
868.598	21519.71
868.78	21286.25
868.962	21028.2
869.144	21523.81
869.326	21718.37
869.508	20944.24
869.69	21144.94
869.872	21169.51
870.054	21464.42
870.236	20938.09
870.417	21101.93
870.599	20940.14
870.781	21552.48
870.963	21067.11
871.145	20839.79
871.327	21013.87
871.508	21390.69
871.69	21149.03
871.872	21003.63
872.054	21349.73
872.235	21118.31
872.417	20895.08
872.599	20696.43
872.78	21384.55
872.962	20972.91
873.144	20594.03
873.325	20925.8
873.507	21341.54
873.689	20872.56
873.87	20678
874.052	20962.67
874.233	20999.53
874.415	21427.56
874.596	21296.49
874.778	20671.86
874.959	21108.07
875.141	21142.89
875.322	20927.85
875.503	20890.99
875.685	21226.85
875.866	20628.85
876.048	20798.83
876.229	20909.42
876.41	21048.68
876.592	21300.58
876.773	20764.01
876.954	20667.76
877.136	21448.04
877.317	21216.61
877.498	20716.91
877.679	21063.02
877.86	21060.97
878.042	21161.32
878.223	20919.66
878.404	21142.89
878.585	21114.22
878.766	21546.34
878.947	21517.67
879.128	21112.17
879.309	21466.47
879.49	21228.9
879.672	21386.6
879.853	21128.55
880.034	21056.87
880.215	21259.62
880.396	21269.86
880.576	21280.1
880.757	21101.93
880.938	21812.57
881.119	21288.29
881.3	21165.42
881.481	21460.32
881.662	22570.32
881.843	21329.25
882.023	21491.04
882.204	21757.28
882.385	21843.29
882.566	21558.63
882.747	21327.21
882.927	21798.24
883.108	21816.67
883.289	21794.14
883.469	21949.79
883.65	21757.28
883.831	21781.85
884.011	21808.48
884.192	21992.8
884.373	22549.84
884.553	22345.05
884.734	22062.43
884.914	22130.01
885.095	22715.73
885.275	22504.79
885.456	22429.01
885.636	22093.15
885.817	22371.67
885.997	22492.5
886.178	22259.03
886.358	22205.78
886.538	22656.34
886.719	23434.57
886.899	22170.97
887.08	22623.57
887.26	22654.29
887.44	22164.82
887.621	22519.12
887.801	22308.18
887.981	23096.65
888.161	22816.08
888.342	22521.17
888.522	22488.4
888.702	22656.34
888.882	22998.35
889.062	22676.82
889.242	22148.44
889.423	22936.91
889.603	22474.07
889.783	22994.25
889.963	22330.71
890.143	23070.03
890.323	22967.63
890.503	22859.09
890.683	22291.8
890.863	22824.27
891.043	22539.6
891.223	22803.79
891.403	22887.76
891.583	22895.95
891.763	22453.59
891.943	22723.92
892.122	22740.3
892.302	22789.45
892.482	22777.17
892.662	22900.05
892.842	23027.02
893.022	23125.32
893.201	22805.84
893.381	22844.75
893.561	23088.46
893.741	23289.16
893.92	23098.7
894.1	23041.36
894.28	23123.27
894.459	23096.65
894.639	23272.78
894.819	22981.96
894.998	23049.55
895.178	23440.71
895.357	23199.05
895.537	22629.71
895.716	22738.26
895.896	23125.32
896.075	23227.72
896.255	22664.53
896.434	22639.95
896.614	23020.88
896.793	23156.04
896.973	23153.99
897.152	22570.32
897.331	23180.62
897.511	23582.02
897.69	22537.55
897.87	22953.29
898.049	23002.44
898.228	22822.22
898.407	22986.06
898.587	23117.13
898.766	23086.41
898.945	22889.81
899.124	22781.26
899.304	22955.34
899.483	22904.14
899.662	23614.79
899.841	22818.13
900.02	22783.31
900.199	23248.2
900.378	22912.33
900.557	22818.13
900.737	22449.49
900.916	23121.23
901.095	23151.95
901.274	22562.13
901.453	22560.08
901.632	22644.05
901.811	22756.69
901.989	22635.86
902.168	22234.46
902.347	22902.09
902.526	22287.7
902.705	22252.89
902.884	22412.63
903.063	23141.71
903.242	22797.65
903.42	22343
903.599	22109.53
903.778	22687.06
903.957	22721.87
904.135	22539.6
904.314	21980.51
904.493	22549.84
904.672	22598.99
904.85	21982.56
905.029	22183.26
905.207	22420.82
905.386	23070.03
905.565	21857.63
905.743	21962.08
905.922	22037.85
906.1	22111.58
906.279	21796.19
906.457	21618.02
906.636	22062.43
906.814	21886.3
906.993	21644.64
907.171	21966.17
907.35	22013.27
907.528	21978.46
907.707	21984.6
907.885	21450.08
908.063	22269.27
908.242	21353.83
908.42	21396.84
908.598	21056.87
908.777	21310.82
908.955	21450.08
909.133	21638.5
909.311	21288.29
909.49	21511.52
909.668	21499.23
909.846	21407.08
910.024	20966.76
910.202	21296.49
910.38	21554.53
910.559	20995.43
910.737	20837.74
910.915	21386.6
911.093	21282.15
911.271	21376.36
911.449	21151.08
911.627	21073.26
911.805	21691.74
911.983	20731.25
912.161	20792.69
912.339	20981.1
912.517	21230.95
912.695	20774.25
912.872	20602.22
913.05	20942.19
913.228	20723.05
913.406	20387.19
913.584	20624.75
913.762	21046.63
913.939	20434.29
914.117	20475.25
914.295	20297.08
914.473	20465.01
914.65	20835.69
914.828	20192.63
915.006	20045.18
915.184	20217.21
915.361	20381.04
915.539	20475.25
915.716	20383.09
915.894	20147.58
916.072	20469.11
916.249	20485.49
916.427	20028.79
916.604	19944.83
916.782	20047.22
916.959	19750.27
917.137	19897.72
917.314	20182.39
917.492	20182.39
917.669	19592.58
917.847	19580.29
918.024	19559.81
918.201	19592.58
918.379	19430.79
918.556	19584.38
918.733	20063.61
918.911	19457.41
919.088	19672.45
919.265	19129.73
919.442	19291.52
919.62	19013
919.797	18972.04
919.974	19215.75
920.151	18969.99
920.328	19109.26
920.506	18865.55
920.683	18896.27
920.86	18523.54
921.037	18816.4
921.214	18662.8
921.391	18328.98
921.568	18752.91
921.745	18402.71
921.922	18466.19
922.099	18320.79
922.276	18757
922.453	18458
922.63	18146.71
922.807	18421.14
922.984	18316.69
923.161	18195.86
923.338	18267.54
923.514	17997.21
923.691	18120.09
923.868	18279.83
924.045	17601.95
924.222	17855.9
924.399	17991.06
924.575	18083.22
924.752	17888.67
924.929	17782.17
925.105	17786.27
925.282	17284.51
925.459	17341.86
925.635	17302.95
925.812	17677.72
925.989	17202.6
926.165	17421.73
926.342	16698.8
926.518	17059.24
926.695	17212.84
926.871	17034.66
927.048	16766.38
927.224	17104.29
927.401	17098.15
927.577	16926.12
927.754	16539.05
927.93	17042.85
928.107	16913.83
928.283	16500.14
928.459	16569.77
928.636	16666.03
928.812	16469.42
928.988	15977.91
929.165	16043.45
929.341	16350.64
929.517	16555.44
929.693	16498.09
929.87	15957.43
930.046	16205.24
930.222	16018.87
930.398	15924.66
930.574	15998.39
930.751	15969.72
930.927	15979.96
931.103	15781.31
931.279	15443.39
931.455	15431.1
931.631	15392.19
931.807	15152.58
931.983	15373.76
932.159	15209.92
932.335	15287.75
932.511	15087.04
932.687	14867.91
932.863	15123.91
933.039	15017.41
933.215	14917.06
933.391	14509.52
933.566	14742.99
933.742	14566.86
933.918	14353.87
934.094	14040.53
934.27	14394.83
934.445	14155.22
934.621	14235.09
934.797	13657.56
934.973	13987.29
935.148	14042.58
935.324	13200.87
935.5	13086.18
935.675	13651.42
935.851	13231.58
936.027	12897.77
936.202	12746.22
936.378	12916.2
936.553	12619.24
936.729	12697.06
936.904	11967.99
937.08	11816.44
937.255	11603.45
937.431	11648.5
937.606	11345.41
937.782	11404.8
937.957	11234.82
938.133	11148.8
938.308	10571.27
938.483	11009.54
938.659	10497.55
938.834	10499.59
939.009	10331.66
939.185	10116.62
939.36	10141.2
939.535	9635.35
939.71	9872.92
939.886	10028.56
940.061	9850.39
940.236	9707.03
940.411	9506.33
940.586	9680.41
940.761	9612.82
940.937	9170.46
941.112	8924.71
941.287	8975.91
941.462	9078.3
941.637	8779.3
941.812	8605.22
941.987	8990.24
942.162	8904.23
942.337	8732.2
942.512	8451.63
942.687	8711.72
942.862	8629.8
943.037	8351.28
943.212	8074.8
943.386	8384.04
943.561	8443.43
943.736	8619.56
943.911	8621.61
944.086	8594.98
944.26	8398.38
944.435	8379.95
944.61	8474.15
944.785	8711.72
944.959	8867.36
945.134	8175.15
945.309	8136.24
945.483	8216.11
945.658	8551.98
945.833	7964.21
946.007	8029.74
946.182	8771.11
946.357	8261.16
946.531	8144.43
946.706	8226.35
946.88	8154.67
947.055	8586.79
947.229	8298.03
947.404	8257.07
947.578	8681
947.752	8500.78
947.927	8126
948.101	8277.55
948.276	8556.07
948.45	8687.14
948.624	8515.11
948.799	8318.51
948.973	8701.48
949.147	8398.38
949.321	8599.08
949.496	8564.26
949.67	8916.51
949.844	8801.83
950.018	8535.59
950.193	8709.67
950.367	9063.97
950.541	8762.92
950.715	8920.61
950.889	8887.84
951.063	8885.8
951.237	9072.16
951.411	8478.25
951.585	8533.54
951.759	9279.01
951.933	8932.9
952.107	8777.25
952.281	9166.37
952.455	9297.44
952.629	9205.28
952.803	8787.49
952.977	8693.29
953.151	9276.96
953.325	9006.63
953.499	9123.36
953.672	8793.64
953.846	9035.3
954.02	9303.58
954.194	8877.6
954.368	8744.49
954.541	9348.64
954.715	8920.61
954.889	9203.23
955.062	8920.61
955.236	9088.54
955.41	9143.84
955.583	9268.77
955.757	9270.81
955.93	9053.73
956.104	9168.41
956.278	9080.35
956.451	9340.44
956.625	9446.94
956.798	9825.81
956.972	9616.92
957.145	9158.17
957.319	9461.27
957.492	9201.18
957.665	9502.23
957.839	9045.54
958.012	9535
958.185	9330.2
958.359	9334.3
958.532	9573.91
958.705	9770.52
958.879	9717.27
959.052	9180.7
959.225	9129.5
959.398	9592.34
959.572	9313.82
959.745	9190.94
959.918	9260.57
960.091	9414.17
960.264	9707.03
960.438	9016.87
960.611	9135.65
960.784	9539.1
960.957	9121.31
961.13	9647.64
961.303	9131.55
961.476	9356.83
961.649	9598.49
961.822	9154.08
961.995	9352.73
962.168	9694.74
962.341	9350.68
962.514	9012.77
962.686	9111.07
962.859	9596.44
963.032	9506.33
963.205	9096.74
963.378	9090.59
963.551	9500.19
963.723	9213.47
963.896	9311.77
964.069	9119.26
964.242	9231.9
964.414	9532.95
964.587	9145.89
964.76	9170.46
964.932	9416.22
965.105	9276.96
965.278	9094.69
965.45	9283.1
965.623	9422.36
965.795	9328.16
965.968	9188.89
966.14	9102.88
966.313	9291.29
966.485	9172.51
966.658	8992.29
966.83	9061.92
967.003	9485.85
967.175	9328.16
967.348	9018.91
967.52	8986.15
967.692	9516.57
967.865	9348.64
968.037	9029.15
968.209	9156.13
968.382	9096.74
968.554	9453.08
968.726	8814.12
968.898	8797.73
969.071	9203.23
969.243	9201.18
969.415	8971.81
969.587	8951.33
969.759	9442.84
969.932	9133.6
970.104	8926.75
970.276	8476.2
970.448	8900.13
970.62	8709.67
970.792	8744.49
970.964	8533.54
971.136	9264.67
971.308	8986.15
971.48	8601.13
971.652	8513.06
971.824	9158.17
971.996	8513.06
972.168	8437.29
972.339	8861.22
972.511	8775.2
972.683	8463.91
972.855	8687.14
973.027	8611.37
973.199	8619.56
973.37	8769.06
973.542	8685.09
973.714	8498.73
973.886	8347.18
974.057	8840.74
974.229	8154.67
974.401	8289.84
974.572	8445.48
974.744	7908.91
974.915	8142.38
975.087	8097.33
975.259	8564.26
975.43	8322.6
975.602	8212.01
975.773	7982.64
975.945	8136.24
976.116	8574.5
976.288	8181.29
976.459	8310.32
976.63	8189.49
976.802	8275.5
976.973	8138.29
977.145	8250.92
977.316	8709.67
977.487	8175.15
977.659	8126
977.83	8013.36
978.001	8480.3
978.172	8158.77
978.344	7964.21
978.515	7935.54
978.686	7812.66
978.857	8394.28
979.028	8039.98
979.2	7857.71
979.371	7992.88
979.542	7970.35
979.713	8091.18
979.884	7325.24
980.055	7788.08
980.226	7591.48
980.397	7663.16
980.568	7683.64
980.739	7964.21
980.91	7517.75
981.081	7779.89
981.252	7597.62
981.423	7837.24
981.594	8074.8
981.765	7648.82
981.936	7556.66
982.106	7687.73
982.277	7999.02
982.448	7661.11
982.619	7476.79
982.79	7566.9
982.96	7865.91
983.131	7448.12
983.302	7124.54
983.472	7343.67
983.643	7534.14
983.814	7286.33
983.984	7114.3
984.155	7163.45
984.326	7667.25
984.496	7386.68
984.667	6878.79
984.837	7378.49
985.008	7554.62
985.178	7288.38
985.349	7073.34
985.519	7298.62
985.69	7145.02
985.86	7114.3
986.031	6903.36
986.201	6997.57
986.371	6991.42
986.542	6676.04
986.712	6635.08
986.882	7165.5
987.053	7011.9
987.223	6954.56
987.393	6805.06
987.563	6907.46
987.734	7052.86
987.904	7255.61
988.074	6651.46
988.244	7009.86
988.414	6854.21
988.585	6555.21
988.755	6708.8
988.925	6616.65
989.095	7237.18
989.265	6493.77
989.435	6794.82
989.605	6991.42
989.775	6870.59
989.945	6764.1
990.115	6334.03
990.285	6745.67
990.455	6755.91
990.625	6514.25
990.795	6364.75
990.965	6929.98
991.134	6442.57
991.304	6323.79
991.474	6286.92
991.644	6569.54
991.814	7050.82
991.984	6118.99
992.153	6147.66
992.323	6299.21
992.493	6258.25
992.662	5942.86
992.832	6331.98
993.002	6454.86
993.171	6356.55
993.341	5887.57
993.511	6295.11
993.68	6129.23
993.85	6374.99
994.019	5873.23
994.189	5975.63
994.358	6182.48
994.528	6037.07
994.697	5766.74
994.867	5791.31
995.036	6237.77
995.206	5895.76
995.375	5783.12
995.544	5961.3
995.714	5994.06
995.883	5703.25
996.052	5801.55
996.222	5383.77
996.391	6413.9
996.56	5908.05
996.73	5561.94
996.899	5381.72
997.068	6133.33
997.237	5584.47
997.406	5559.89
997.576	5400.15
997.745	5795.41
997.914	5826.13
998.083	5185.12
998.252	5441.11
998.421	5676.63
998.59	5346.91
998.759	5234.27
998.928	5205.6
999.097	5854.8
999.266	5643.86
999.435	5412.44
999.604	5281.37
999.773	6016.59
999.942	5561.94
1000.111	5183.07
1000.28	5033.57
1000.448	5264.99
1000.617	4996.7
1000.786	5228.12
1000.955	4929.12
1001.124	5516.89
1001.292	5846.61
1001.461	4902.5
1001.63	4920.93
1001.798	5633.62
1001.967	5289.56
1002.136	4734.56
1002.304	4896.35
1002.473	5224.03
1002.642	5068.38
1002.81	4855.39
1002.979	4867.68
1003.147	5054.05
1003.316	5584.47
1003.484	4879.97
1003.653	4777.57
1003.821	5262.94
1003.99	4965.98
1004.158	4916.83
1004.327	4847.2
1004.495	5152.35
1004.663	4740.71
1004.832	4599.4
1005	4497
1005.168	4843.1
1005.337	4886.11
1005.505	4398.7
1005.673	4740.71
1005.842	4953.7
1006.01	4959.84
1006.178	4517.48
1006.346	4396.65
1006.514	4904.54
1006.683	4892.26
1006.851	4337.26
1007.019	4441.7
1007.187	4580.96
1007.355	4157.04
1007.523	4013.68
1007.691	4212.33
1007.859	4294.25
1008.027	4793.95
1008.195	4197.99
1008.363	4146.8
1008.531	4767.33
1008.699	4355.69
1008.867	4019.82
1009.035	4079.21
1009.203	4587.11
1009.37	4380.26
1009.538	4122.22
1009.706	4394.6
1009.874	4492.9
1010.042	4122.22
1010.209	3886.7
1010.377	3888.75
1010.545	4433.51
1010.713	4343.4
1010.88	3976.81
1011.048	3714.67
1011.216	4089.45
1011.383	4439.65
1011.551	3749.49
1011.718	3784.3
1011.886	4304.49
1012.054	4075.12
1012.221	3821.17
1012.389	3812.98
1012.556	3989.1
1012.724	4322.92
1012.891	3733.11
1013.058	3544.69
1013.226	4238.95
1013.393	3974.77
1013.561	3452.53
1013.728	3477.11
1013.895	4154.99
1014.063	3837.55
1014.23	3419.77
1014.397	3567.22
1014.565	3958.38
1014.732	3726.96
1014.899	3556.98
1015.066	3405.43
1015.233	3690.1
1015.401	3786.35
1015.568	3583.6
1015.735	3563.12
1015.902	3577.46
1016.069	3769.97
1016.236	3309.18
1016.403	3454.58
1016.57	3397.24
1016.737	3778.16
1016.904	3440.25
1017.071	3112.57
1017.238	3409.53
1017.405	3706.48
1017.572	3397.24
1017.739	3462.77
1017.906	3450.49
1018.073	3632.76
1018.24	3014.27
1018.407	3329.66
1018.573	3765.87
1018.74	3401.33
1018.907	3116.67
1019.074	2903.68
1019.241	3636.85
1019.407	3374.71
1019.574	3034.75
1019.741	2795.14
1019.907	3317.37
1020.074	3329.66
1020.241	2864.77
1020.407	3010.17
1020.574	3411.57
1020.74	3219.07
1020.907	2864.77
1021.073	2748.03
1021.24	3604.08
1021.406	3421.81
1021.573	2805.38
1021.739	2772.61
1021.906	3247.74
1022.072	2934.4
1022.239	2772.61
1022.405	2719.36
1022.571	3153.53
1022.738	2922.11
1022.904	2715.27
1023.07	2655.87
1023.237	2981.5
1023.403	3042.94
1023.569	2821.76
1023.735	2590.34
1023.902	2971.26
1024.068	2850.43
1024.234	2598.53
1024.4	2535.04
1024.566	2944.64
1024.732	3020.41
1024.898	2508.42
1025.065	2367.11
1025.231	3061.37
1025.397	2727.55
1025.563	2571.91
1025.729	2545.28
1025.895	2526.85
1026.061	2594.44
1026.227	2277
1026.392	2455.17
1026.558	2930.3
1026.724	2709.12
1026.89	2471.56
1027.056	2420.36
1027.222	2737.79
1027.388	2432.65
1027.553	2412.17
1027.719	2264.71
1027.885	2872.96
1028.051	2582.15
1028.216	2057.87
1028.382	2258.57
1028.548	2700.93
1028.713	2473.6
1028.879	2188.94
1029.045	2283.14
1029.21	2870.91
1029.376	2788.99
1029.541	2283.14
1029.707	2213.51
1029.873	2494.08
1030.038	2537.09
1030.204	2154.12
1030.369	2244.23
1030.534	2551.43
1030.7	2324.1
1030.865	1988.24
1031.031	1957.52
1031.196	2418.31
1031.361	2483.84
1031.527	1971.85
1031.692	1990.28
1031.857	2000.52
1032.023	2375.3
1032.188	1951.37
1032.353	2004.62
1032.518	2539.14
1032.684	2295.43
1032.849	1842.83
1033.014	1945.23
1033.179	2332.3
1033.344	2358.92
1033.509	2033.29
1033.674	1883.79
1033.839	2393.73
1034.004	2340.49
1034.17	1902.22
1034.335	1697.42
1034.5	1998.48
1034.664	2070.16
1034.829	1752.72
1034.994	1767.06
1035.159	2240.14
1035.324	1928.85
1035.489	1734.29
1035.654	1689.23
1035.819	2266.76
1035.984	2059.92
1036.148	1767.06
1036.313	1646.23
1036.478	2291.34
1036.643	2025.1
1036.807	1621.65
1036.972	1699.47
1037.137	2268.81
1037.301	1953.42
1037.466	1306.26
1037.631	1767.06
1037.795	2139.79
1037.96	1941.13
1038.124	1619.6
1038.289	1566.35
1038.454	2125.45
1038.618	1889.93
1038.783	1554.07
1038.947	1605.27
1039.111	1980.04
1039.276	1633.94
1039.44	1545.88
1039.605	1937.04
1039.769	1777.3
1039.933	1889.93
1040.098	1666.71
1040.262	1681.04
1040.426	2002.57
1040.591	1945.23
1040.755	1408.66
1040.919	1418.9
1041.083	1891.98
1041.248	1672.85
1041.412	1308.31
1041.576	1306.26
1041.74	1601.17
1041.904	1865.36
1042.068	1285.78
1042.232	1427.09
1042.397	1883.79
1042.561	1818.25
1042.725	1140.38
1042.889	1474.2
1043.053	1756.82
1043.217	1836.69
1043.381	1367.7
1043.544	1175.19
1043.708	1953.42
1043.872	1296.02
1044.036	994.97
1044.2	1142.43
1044.364	1810.06
1044.528	1873.55
1044.691	4122.22
1044.855	1179.29
1045.019	1943.18
1045.183	1580.69
1045.346	1339.03
1045.51	1119.9
1045.674	1623.7
1045.837	1687.18
1046.001	1126.04
1046.165	1187.48
1046.328	2053.77
1046.492	1474.2
1046.655	1214.1
1046.819	1332.89
1046.983	1271.45
1047.146	1582.74
1047.31	1281.69
1047.473	1005.21
1047.636	1339.03
1047.8	1187.48
1047.963	1158.81
1048.127	1029.79
1048.29	1265.3
