Data from Hydrogel_Ink_Intensity_Test_1_USB4F045381__28__00028.txt Node

Date: Mon Jul 31 10:41:36 EDT 2023
User: mmckonesweet
Spectrometer: USB4F04538
Trigger mode: 4
Integration Time (sec): 9.000000E-1
Scans to average: 1
Electric dark correction enabled: true
Nonlinearity correction enabled: false
Boxcar width: 0
XAxis mode: Wavelengths
Number of Pixels in Spectrum: 3648
>>>>>Begin Spectral Data<<<<<
345.52	-1041.22
345.736	-1041.22
345.952	-1041.22
346.168	-1041.22
346.384	-990.02
346.6	-101.2
346.816	-207.7
347.032	-269.14
347.248	347.3
347.464	-226.13
347.68	-52.05
347.896	56.49
348.112	423.08
348.328	-82.77
348.544	-45.91
348.76	-29.52
348.975	187.56
349.191	-246.61
349.407	-140.12
349.623	60.59
349.839	38.06
350.055	-23.38
350.27	91.31
350.486	228.52
350.702	435.36
350.918	294.05
351.133	-164.69
351.349	136.36
351.565	406.69
351.781	-228.18
351.996	-9.05
352.212	382.12
352.428	-103.25
352.644	-88.92
352.859	-131.92
353.075	330.92
353.291	9.39
353.506	-131.92
353.722	-131.92
353.938	-21.33
354.153	457.89
354.369	119.98
354.584	-115.54
354.8	271.53
355.016	-295.76
355.231	-201.55
355.447	-99.16
355.662	216.23
355.878	928.92
356.093	-267.09
356.309	72.87
356.524	-160.59
356.74	253.09
356.955	-133.97
357.171	-41.81
357.386	228.52
357.602	-58.2
357.817	-13.14
358.033	-148.31
358.248	388.26
358.464	197.8
358.679	-72.53
358.895	-246.61
359.11	81.07
359.325	337.06
359.541	273.57
359.756	31.91
359.972	-170.83
360.187	228.52
360.402	-209.75
360.618	-125.78
360.833	910.49
361.048	249
361.264	-84.82
361.479	-21.33
361.694	103.59
361.909	300.2
362.125	-170.83
362.34	-33.62
362.555	269.48
362.77	183.46
362.986	-250.71
363.201	-144.21
363.416	214.18
363.631	23.72
363.847	-82.77
364.062	-121.68
364.277	257.19
364.492	169.13
364.707	-111.44
364.922	-240.47
365.138	351.4
365.353	429.22
365.568	-174.93
365.783	7.34
365.998	246.95
366.213	615.59
366.428	-252.75
366.643	171.18
366.858	320.68
367.073	292.01
367.288	-74.58
367.503	-25.43
367.718	201.9
367.933	335.01
368.148	-203.6
368.363	11.43
368.578	48.3
368.793	502.95
369.008	-45.91
369.223	-140.12
369.438	314.53
369.653	455.84
369.868	-209.75
370.083	-136.02
370.298	113.83
370.513	388.26
370.728	119.98
370.943	-45.91
371.157	-86.87
371.372	558.24
371.587	-215.89
371.802	-156.5
372.017	103.59
372.232	543.91
372.446	38.06
372.661	-168.79
372.876	306.34
373.091	355.49
373.306	66.73
373.52	-127.83
373.735	-97.11
373.95	476.32
374.165	23.72
374.379	5.29
374.594	-60.24
374.809	101.55
375.023	165.03
375.238	-152.4
375.453	396.45
375.667	-213.84
375.882	9.39
376.097	-113.49
376.311	189.61
376.526	58.54
376.741	-154.45
376.955	212.14
377.17	664.74
377.384	736.42
377.599	79.02
377.813	-121.68
378.028	623.78
378.242	285.86
378.457	91.31
378.672	-250.71
378.886	201.9
379.101	56.49
379.315	-146.26
379.53	-47.96
379.744	326.82
379.958	234.66
380.173	-17.24
380.387	-68.44
380.602	249
380.816	-95.06
381.031	56.49
381.245	25.77
381.459	292.01
381.674	2753.66
381.888	-80.72
382.103	277.67
382.317	3.24
382.531	654.5
382.746	162.98
382.96	23.72
383.174	36.01
383.388	625.83
383.603	277.67
383.817	-72.53
384.031	320.68
384.246	744.61
384.46	238.76
384.674	459.94
384.888	165.03
385.103	232.62
385.317	-168.79
385.531	185.51
385.745	552.1
385.959	435.36
386.174	-37.72
386.388	-13.14
386.602	279.72
386.816	48.3
387.03	95.4
387.244	160.94
387.458	357.54
387.672	584.87
387.887	9.39
388.101	-25.43
388.315	517.28
388.529	347.3
388.743	122.02
388.957	21.67
389.171	449.7
389.385	-2.9
389.599	130.22
389.813	306.34
390.027	404.64
390.241	867.49
390.455	222.38
390.669	146.6
390.883	185.51
391.097	728.22
391.311	261.29
391.525	126.12
391.738	390.31
391.952	345.25
392.166	240.81
392.38	81.07
392.594	566.43
392.808	523.43
393.022	183.46
393.236	195.75
393.449	498.85
393.663	437.41
393.877	15.53
394.091	242.85
394.305	119.98
394.518	144.55
394.732	-50
394.946	179.37
395.16	699.55
395.373	287.91
395.587	113.83
395.801	167.08
396.015	556.19
396.228	437.41
396.442	36.01
396.656	-37.72
396.869	617.63
397.083	756.9
397.297	292.01
397.51	199.85
397.724	728.22
397.938	468.13
398.151	70.83
398.365	68.78
398.578	658.59
398.792	720.03
399.005	345.25
399.219	281.77
399.433	480.42
399.646	443.56
399.86	453.8
400.073	404.64
400.287	597.15
400.5	328.87
400.714	249
400.927	324.77
401.141	523.43
401.354	1543.32
401.567	595.11
401.781	158.89
401.994	707.74
402.208	982.17
402.421	326.82
402.635	267.43
402.848	443.56
403.061	674.98
403.275	357.54
403.488	253.09
403.701	881.82
403.915	697.5
404.128	443.56
404.341	353.45
404.555	615.59
404.768	478.37
404.981	486.56
405.195	224.42
405.408	1025.18
405.621	591.01
405.834	488.61
406.048	240.81
406.261	855.2
406.474	926.88
406.687	187.56
406.9	421.03
407.114	580.77
407.327	705.7
407.54	261.29
407.753	232.62
407.966	371.88
408.179	752.8
408.392	361.64
408.605	167.08
408.819	693.41
409.032	715.94
409.245	289.96
409.458	609.44
409.671	730.27
409.884	937.12
410.097	222.38
410.31	531.62
410.523	730.27
410.736	468.13
410.949	433.32
411.162	486.56
411.375	1041.56
411.588	879.77
411.801	625.83
412.014	429.22
412.227	621.73
412.44	613.54
412.653	548
412.865	603.3
413.078	804
413.291	711.84
413.504	613.54
413.717	416.93
413.93	756.9
414.143	412.84
414.356	591.01
414.568	355.49
414.781	943.26
414.994	763.04
415.207	601.25
415.42	490.66
415.632	894.11
415.845	1082.52
416.058	459.94
416.271	316.58
416.483	736.42
416.696	1129.63
416.909	529.57
417.121	455.84
417.334	924.83
417.547	1229.98
417.759	537.76
417.972	443.56
418.185	625.83
418.397	867.49
418.61	550.05
418.823	668.83
419.035	1191.06
419.248	851.1
419.46	746.66
419.673	695.46
419.885	957.6
420.098	752.8
420.311	629.92
420.523	490.66
420.736	933.02
420.948	871.58
421.161	584.87
421.373	509.09
421.586	928.92
421.798	703.65
422.01	545.95
422.223	781.47
422.435	707.74
422.648	1014.94
422.86	656.54
423.073	724.13
423.285	1178.78
423.497	531.62
423.71	754.85
423.922	656.54
424.134	1066.14
424.347	1238.17
424.559	1014.94
424.771	1055.9
424.984	832.67
425.196	1010.84
425.408	654.5
425.621	720.03
425.833	1299.61
426.045	1297.56
426.257	586.91
426.47	787.61
426.682	1094.81
426.894	1105.05
427.106	820.38
427.318	836.77
427.531	812.19
427.743	1354.9
427.955	746.66
428.167	1348.76
428.379	1139.87
428.591	1016.99
428.804	1041.56
429.016	804
429.228	1000.6
429.44	1131.67
429.652	1182.87
429.864	797.85
430.076	1107.1
430.288	1111.19
430.5	1023.13
430.712	1068.19
430.924	1406.1
431.136	1176.73
431.348	773.28
431.56	951.45
431.772	1168.54
431.984	1152.15
432.196	920.73
432.408	1002.65
432.62	1158.3
432.832	1399.96
433.044	1410.2
433.256	1227.93
433.468	1332.37
433.679	969.88
433.891	967.84
434.103	1307.8
434.315	1698.96
434.527	1578.13
434.739	1244.31
434.95	1170.58
435.162	1608.85
435.374	1266.84
435.586	1193.11
435.798	1266.84
436.009	1133.72
436.221	1336.47
436.433	1217.69
436.645	1203.35
436.856	1275.03
437.068	1696.91
437.28	1035.42
437.491	1565.84
437.703	1637.52
437.915	1621.14
438.126	1375.38
438.338	1612.95
438.55	1559.7
438.761	1637.52
438.973	1383.57
439.184	1342.61
439.396	1516.69
439.608	1711.25
439.819	1215.64
440.031	1440.92
440.242	1721.49
440.454	1770.64
440.665	1381.53
440.877	1598.61
441.088	1723.54
441.3	1508.5
441.511	1336.47
441.723	1295.51
441.934	1578.13
442.146	1668.24
442.357	1662.1
442.569	1651.86
442.78	1784.98
442.991	2069.64
443.203	1875.09
443.414	1387.67
443.626	1969.29
443.837	1531.03
444.048	1438.87
444.26	1320.09
444.471	1705.1
444.682	1948.81
444.894	1295.51
445.105	1410.2
445.316	2034.83
445.528	1864.85
445.739	1739.92
445.95	1627.28
446.161	1711.25
446.373	1989.77
446.584	1610.9
446.795	1543.32
447.006	2022.54
447.217	2288.78
447.429	1365.14
447.64	1608.85
447.851	2141.32
448.062	1883.28
448.273	1344.66
448.484	1719.44
448.695	1993.87
448.907	1830.03
449.118	1721.49
449.329	1866.89
449.54	1731.73
449.751	1731.73
449.962	1690.77
450.173	1641.62
450.384	2174.09
450.595	2411.65
450.806	1801.36
451.017	1827.98
451.228	2344.07
451.439	2378.89
451.65	1827.98
451.861	1571.99
452.072	1907.85
452.283	1993.87
452.494	2172.04
452.705	1895.57
452.915	2608.26
453.126	2305.16
453.337	1911.95
453.548	1965.2
453.759	2362.5
453.97	2825.34
454.181	2194.57
454.391	2092.17
454.602	2268.3
454.813	2376.84
455.024	2157.71
455.235	2149.51
455.445	2245.77
455.656	2223.24
455.867	2223.24
456.078	2088.07
456.288	2237.58
456.499	2679.94
456.71	2102.41
456.921	2391.17
457.131	2555.01
457.342	2516.1
457.553	2274.44
457.763	2137.23
457.974	2612.35
458.184	2667.65
458.395	2219.14
458.606	2213
458.816	2974.85
459.027	3071.1
459.237	2483.33
459.448	2374.79
459.659	2919.55
459.869	3286.14
460.08	2368.65
460.29	2518.15
460.501	3218.55
460.711	2923.65
460.922	2438.28
461.132	2602.11
461.343	3376.25
461.553	2524.29
461.764	2495.62
461.974	2655.36
462.184	2995.32
462.395	3071.1
462.605	2892.93
462.816	2632.83
463.026	2995.32
463.236	3372.15
463.447	2784.38
463.657	2837.63
463.867	3447.93
464.078	3089.53
464.288	3001.47
464.498	3067
464.709	3017.85
464.919	3110.01
465.129	3079.29
465.339	3067
465.55	3474.55
465.76	3497.08
465.97	3136.63
466.18	3021.95
466.391	3722.35
466.601	3449.97
466.811	3382.39
467.021	3234.94
467.231	3759.22
467.441	3812.46
467.651	3519.6
467.862	3202.17
468.072	3757.17
468.282	4078.7
468.492	3501.17
468.702	3814.51
468.912	3818.61
469.122	4572.26
469.332	4086.89
469.542	3798.13
469.752	4213.87
469.962	4281.45
470.172	3939.44
470.382	4000.88
470.592	4164.72
470.802	4457.57
471.012	4121.71
471.222	4060.27
471.432	4641.89
471.642	4637.8
471.852	4293.74
472.062	4285.55
472.272	4617.32
472.482	4410.47
472.691	4351.08
472.901	4324.46
473.111	4818.02
473.321	5430.36
473.531	4652.13
473.741	4809.83
473.95	5043.29
474.16	4979.81
474.37	4930.66
474.58	4678.76
474.79	5608.53
474.999	5205.08
475.209	4785.25
475.419	5098.59
475.628	5352.54
475.838	5553.24
476.048	5346.39
476.258	5293.15
476.467	5968.98
476.677	5583.96
476.886	5878.86
477.096	5741.65
477.306	5729.36
477.515	6102.09
477.725	5823.57
477.935	5829.71
478.144	6278.22
478.354	6016.08
478.563	6028.37
478.773	5928.02
478.982	6343.75
479.192	6739.01
479.401	6227.02
479.611	6270.03
479.82	6413.38
480.03	6612.04
480.239	6425.67
480.449	6462.54
480.658	7341.11
480.868	6659.14
481.077	6921.28
481.287	6499.4
481.496	7187.52
481.705	7402.55
481.915	7158.85
482.124	7189.56
482.333	7162.94
482.543	7533.62
482.752	7187.52
482.961	7154.75
483.171	7539.77
483.38	7588.92
483.589	7525.43
483.799	7414.84
484.008	7945.27
484.217	7994.42
484.426	7644.21
484.636	7576.63
484.845	8207.41
485.054	7658.55
485.263	8076.34
485.472	8014.9
485.682	8432.68
485.891	8186.93
486.1	7691.32
486.309	7973.94
486.518	8619.05
486.727	8711.21
486.936	8297.52
487.146	8320.04
487.355	9026.59
487.564	8363.05
487.773	8561.7
487.982	8496.17
488.191	8664.1
488.4	9153.57
488.609	8827.94
488.818	8922.15
489.027	9810.96
489.236	9505.82
489.445	9004.07
489.654	9026.59
489.863	9745.43
490.072	9649.18
490.281	9690.13
490.49	9348.12
490.698	9985.04
490.907	10069.01
491.116	9509.91
491.325	9448.47
491.534	10013.71
491.743	10191.89
491.952	9722.9
492.16	9800.73
492.369	10028.05
492.578	10327.05
492.787	9905.17
492.996	9821.2
493.204	10001.43
493.413	10800.13
493.622	10009.62
493.831	9835.54
494.039	10974.21
494.248	10396.68
494.457	10275.85
494.665	10378.25
494.874	10755.08
495.083	10925.06
495.291	10656.78
495.5	10601.48
495.709	11068.42
495.917	11142.14
496.126	10949.64
496.335	10716.17
496.543	10998.79
496.752	11195.39
496.96	11150.34
497.169	10972.16
497.377	11285.5
497.586	11510.78
497.794	11320.32
498.003	10908.68
498.211	11609.08
498.42	11885.56
498.628	11498.49
498.837	11381.76
499.045	11611.13
499.254	11922.42
499.462	11543.55
499.671	11453.44
499.879	12059.63
500.087	12237.81
500.296	11635.71
500.504	11580.41
500.713	12239.86
500.921	12807.14
501.129	11797.49
501.338	11734.01
501.546	12411.89
501.754	12393.45
501.962	11944.95
502.171	12104.69
502.379	12426.22
502.587	12659.69
502.795	12184.56
503.004	12354.54
503.212	12579.82
503.42	12958.69
503.628	12694.5
503.837	12698.6
504.045	12876.77
504.253	13261.79
504.461	12835.81
504.669	12598.25
504.877	13259.74
505.085	13300.7
505.294	12608.49
505.502	13038.56
505.71	13315.04
505.918	13587.42
506.126	13052.9
506.334	12807.14
506.542	13394.91
506.75	13556.7
506.958	13405.15
507.166	13198.31
507.374	13386.72
507.582	13853.66
507.79	13296.61
507.998	13429.73
508.206	13747.16
508.414	13781.98
508.622	13505.5
508.83	13620.19
509.037	14517.2
509.245	13630.43
509.453	13683.67
509.661	13685.72
509.869	14113.75
510.077	13978.58
510.285	13896.66
510.492	13474.78
510.7	14885.83
510.908	13781.98
511.116	14119.89
511.324	13972.44
511.531	14083.03
511.739	14189.52
511.947	14111.7
512.155	14404.56
512.362	14793.67
512.57	14212.05
512.778	14078.93
512.985	13978.58
513.193	14664.65
513.401	14814.15
513.608	14244.82
513.816	14541.77
514.024	14838.73
514.231	15041.48
514.439	14601.16
514.646	14779.34
514.854	15127.49
515.061	15133.64
515.269	14658.51
515.477	14623.69
515.684	14928.84
515.892	15252.42
516.099	14738.38
516.307	14681.03
516.514	15563.71
516.722	15514.56
516.929	15027.14
517.136	14777.29
517.344	15723.45
517.551	15313.86
517.759	15145.92
517.966	15262.66
518.173	15504.32
518.381	15715.26
518.588	15440.83
518.796	15305.67
519.003	15788.99
519.21	15664.06
519.418	15381.44
519.625	15692.73
519.832	15893.43
520.039	16067.51
520.247	15588.28
520.454	15657.92
520.661	16333.75
520.868	16057.27
521.076	15801.27
521.283	15840.18
521.49	16896.94
521.697	16470.96
521.904	15772.6
522.112	15825.85
522.319	16567.21
522.526	16278.45
522.733	16251.83
522.94	16319.41
523.147	16552.88
523.354	16669.61
523.561	16161.72
523.768	16192.44
523.975	16956.33
524.183	16776.11
524.39	16470.96
524.597	16524.21
524.804	16927.66
525.011	16524.21
525.218	16706.48
525.425	16798.63
525.632	17345.44
525.838	17122.21
526.045	16581.55
526.252	16776.11
526.459	18484.11
526.666	17912.73
526.873	16917.42
527.08	16806.83
527.287	17773.47
527.494	17492.9
527.701	17189.8
527.907	17025.96
528.114	17718.17
528.321	17460.13
528.528	17165.22
528.735	17173.41
528.941	17255.33
529.148	17288.1
529.355	17327.01
529.562	17286.05
529.768	18252.69
529.975	17320.87
530.182	17570.72
530.388	17265.57
530.595	18467.73
530.802	17755.04
531.008	17947.54
531.215	17775.52
531.422	18946.95
531.628	18817.93
531.835	17722.27
532.042	18158.49
532.248	18228.12
532.455	18324.37
532.661	17853.34
532.868	17806.23
533.074	18697.1
533.281	18598.8
533.487	18252.69
533.694	18162.58
533.9	18437.01
534.107	18707.34
534.313	18181.01
534.52	18330.51
534.726	19153.8
534.933	19288.96
535.139	18672.53
535.345	18469.78
535.552	19039.11
535.758	18951.05
535.965	18633.61
536.171	19004.3
536.377	19489.67
536.584	19657.6
536.79	18946.95
536.996	19377.03
537.203	19358.6
537.409	19641.21
537.615	19022.73
537.821	19258.24
538.028	19880.83
538.234	19563.39
538.44	19104.65
538.646	19166.09
538.853	19899.26
539.059	19387.27
539.265	19680.13
539.471	19262.34
539.677	19925.88
539.883	19833.72
540.09	19372.93
540.296	20044.66
540.502	19884.92
540.708	19856.25
540.914	20038.52
541.12	19882.88
541.326	20257.65
541.532	20202.36
541.738	20261.75
541.944	20243.32
542.15	20487.03
542.356	20337.52
542.562	20126.58
542.768	20218.74
542.974	20876.14
543.18	21306.21
543.386	20450.16
543.592	20450.16
543.798	21121.9
544.004	21252.97
544.21	20497.27
544.415	20484.98
544.621	21144.42
544.827	21140.33
545.033	20910.96
545.239	21173.1
545.445	21117.8
545.651	21205.86
545.856	21003.11
546.062	20759.41
546.268	21101.42
546.474	21152.62
546.679	20659.06
546.885	21115.75
547.091	21197.67
547.297	21756.77
547.502	21068.65
547.708	20937.58
547.914	20960.11
548.119	21601.12
548.325	20874.09
548.531	20826.99
548.736	22027.1
548.942	21216.1
549.147	21240.68
549.353	21646.18
549.559	22152.02
549.764	21816.16
549.97	21152.62
550.175	21627.74
550.381	22100.83
550.586	21551.97
550.792	21900.12
550.997	21257.06
551.203	21988.19
551.408	22235.99
551.614	21711.71
551.819	21853.02
552.025	22399.83
552.23	22692.69
552.435	21951.32
552.641	22549.33
552.846	22164.31
553.052	22711.12
553.257	22276.95
553.462	22010.71
553.668	22403.92
553.873	22750.03
554.078	22111.07
554.283	22109.02
554.489	22770.51
554.694	22934.35
554.899	22463.32
555.105	22625.11
555.31	22801.23
555.515	23032.65
555.72	22854.48
555.925	22582.1
556.131	23374.66
556.336	22846.29
556.541	22678.35
556.746	22653.78
556.951	23520.07
557.156	23335.75
557.361	22940.49
557.567	23511.88
557.772	23831.36
557.977	23452.48
558.182	23112.52
558.387	23020.36
558.592	22954.83
558.797	23384.9
559.002	23190.34
559.207	23368.52
559.412	23720.77
559.617	23894.85
559.822	23221.06
560.027	23587.65
560.232	23401.29
560.437	23776.06
560.642	23014.22
560.847	23458.63
561.051	23466.82
561.256	23681.86
561.461	23382.85
561.666	23585.6
561.871	24001.34
562.076	24202.04
562.281	23704.38
562.485	23241.54
562.69	23769.92
562.895	24204.09
563.1	23659.33
563.305	23466.82
563.509	24183.61
563.714	24361.78
563.919	23655.23
564.123	23802.69
564.328	24204.09
564.533	24630.07
564.737	23821.12
564.942	23892.8
565.147	24474.42
565.351	24843.06
565.556	24017.72
565.761	24267.58
565.965	24464.18
566.17	24324.92
566.374	24355.64
566.579	24007.48
566.784	24488.76
566.988	24025.92
567.193	24165.18
567.397	24382.26
567.602	24199.99
567.806	24130.36
568.011	24193.85
568.215	24605.49
568.42	24632.11
568.624	24933.17
568.828	24570.68
569.033	24484.66
569.237	25201.45
569.442	25094.96
569.646	24245.05
569.85	24683.31
570.055	24898.35
570.259	24773.42
570.463	24890.16
570.668	24718.13
570.872	24947.5
571.076	24912.69
571.281	25135.92
571.485	25037.61
571.689	24947.5
571.893	25410.34
572.098	25113.39
572.302	24886.06
572.506	25277.22
572.71	25121.58
572.914	25217.83
573.119	25054
573.323	25486.12
573.527	25703.2
573.731	25385.77
573.935	25596.71
574.139	25975.58
574.343	25346.86
574.547	25219.88
574.751	25486.12
574.955	26164
575.159	26127.13
575.364	25713.44
575.568	25322.28
575.772	25664.29
575.976	26200.86
576.18	25574.18
576.383	25750.31
576.587	26491.67
576.791	26370.84
576.995	25695.01
577.199	25905.95
577.403	26434.33
577.607	26594.07
577.811	26024.73
578.015	26069.79
578.219	26295.07
578.422	26538.77
578.626	26123.04
578.83	26319.64
579.034	26522.39
579.238	26522.39
579.442	26542.87
579.645	26381.08
579.849	26528.53
580.053	26546.97
580.257	26256.15
580.46	26368.79
580.664	27155.21
580.868	26293.02
581.071	26606.36
581.275	26682.13
581.479	26346.26
581.682	27050.77
581.886	26446.62
582.09	26514.2
582.293	26884.88
582.497	27015.95
582.7	26901.26
582.904	26624.79
583.107	27026.19
583.311	26950.42
583.515	26606.36
583.718	26755.86
583.922	27312.91
584.125	27734.79
584.329	26811.15
584.532	27163.4
584.735	27781.89
584.939	27187.98
585.142	27042.57
585.346	27054.86
585.549	27841.28
585.753	27355.91
585.956	27302.67
586.159	27708.16
586.363	28205.82
586.566	27925.25
586.769	27509.51
586.973	27286.28
587.176	27728.64
587.379	28144.38
587.582	27777.79
587.786	27636.48
587.989	27943.68
588.192	28281.6
588.395	27263.75
588.599	27673.35
588.802	28195.58
589.005	28136.19
589.208	27865.86
589.411	28052.22
589.615	28457.72
589.818	28803.83
590.021	28021.5
590.224	27878.15
590.427	28596.98
590.63	28248.83
590.833	27978.5
591.036	28150.53
591.239	28375.8
591.442	27816.71
591.645	28363.51
591.848	28431.1
592.051	28715.76
592.254	29004.53
592.457	28711.67
592.66	28543.74
592.863	28799.73
593.066	29278.96
593.269	28877.55
593.472	28887.79
593.675	28975.86
593.878	29033.2
594.081	28799.73
594.284	28990.19
594.486	29328.11
594.689	29117.17
594.892	28941.04
595.095	29065.97
595.298	29057.78
595.5	29420.27
595.703	29205.23
595.906	29561.58
596.109	29164.27
596.311	29756.13
596.514	28793.59
596.717	29381.35
596.92	29860.58
597.122	29520.62
597.325	28803.83
597.528	29319.92
597.73	30161.63
597.933	29571.82
598.136	29491.94
598.338	29055.73
598.541	30028.51
598.743	30001.89
598.946	29434.6
599.148	29706.98
599.351	30010.08
599.554	30866.13
599.756	29928.16
599.959	29846.24
600.161	30104.29
600.363	30814.93
600.566	30104.29
600.768	29938.4
600.971	30196.45
601.173	29866.72
601.376	29846.24
601.578	29760.23
601.78	30472.92
601.983	30782.16
602.185	29895.39
602.388	30051.04
602.59	30429.91
602.792	30309.08
602.995	29885.15
603.197	30016.22
603.399	30804.69
603.601	30341.85
603.804	29883.11
604.006	30214.88
604.208	30165.73
604.41	30132.96
604.613	30495.45
604.815	30153.44
605.017	31097.55
605.219	30487.26
605.421	30536.41
605.623	30210.78
605.826	31494.86
606.028	31150.8
606.23	30470.87
606.432	30302.94
606.634	31584.97
606.836	31089.36
607.038	30485.21
607.24	30626.52
607.442	31255.25
607.644	30935.76
607.846	30956.24
608.048	30331.61
608.25	31089.36
608.452	30763.73
608.654	30632.66
608.856	30350.04
609.058	31007.44
609.26	30829.27
609.462	30903
609.664	30903
609.866	30962.39
610.067	31308.49
610.269	31179.47
610.471	31029.97
610.673	31015.63
610.875	31468.23
611.077	30360.28
611.278	30946
611.48	31304.4
611.682	31466.19
611.884	30931.67
612.085	30771.93
612.287	31075.02
612.489	31265.49
612.69	30728.92
612.892	31412.94
613.094	31546.06
613.295	31320.78
613.497	30982.87
613.699	31228.62
613.9	31494.86
614.102	31085.26
614.304	30876.37
614.505	30536.41
614.707	31204.05
614.908	30841.56
615.11	30296.8
615.311	31156.94
615.513	31214.29
615.714	31236.81
615.916	31013.59
616.117	31013.59
616.319	31179.47
616.52	31488.71
616.722	30788.31
616.923	31363.79
617.124	31726.28
617.326	31396.56
617.527	31113.94
617.729	31720.13
617.93	31388.36
618.131	31627.98
618.333	31292.11
618.534	31003.35
618.735	31754.95
618.937	31695.56
619.138	31097.55
619.339	31202
619.54	31640.26
619.742	31709.89
619.943	31402.7
620.144	31718.09
620.345	31990.47
620.546	31564.49
620.748	31478.47
620.949	31394.51
621.15	31718.09
621.351	31640.26
621.552	31124.18
621.753	31285.97
621.954	31402.7
622.155	31783.62
622.356	31396.56
622.558	31507.15
622.759	31554.25
622.96	32125.63
623.161	31507.15
623.362	31154.9
623.563	31748.81
623.764	31492.81
623.965	31509.19
624.166	31797.96
624.366	31396.56
624.567	31978.18
624.768	30931.67
624.969	31288.01
625.17	31304.4
625.371	32170.69
625.572	31513.29
625.773	31480.52
625.973	32117.44
626.174	31863.49
626.375	31525.58
626.576	31734.47
626.777	31863.49
626.977	32129.73
627.178	32105.15
627.379	31656.65
627.58	31681.22
627.78	31935.17
627.981	31748.81
628.182	32107.2
628.382	32512.7
628.583	31638.22
628.784	31978.18
628.984	31324.88
629.185	32221.89
629.386	32262.85
629.586	32094.91
629.787	31826.63
629.987	32574.14
630.188	32357.05
630.388	31773.38
630.589	31693.51
630.79	33079.99
630.99	32492.22
631.191	31988.42
631.391	32623.29
631.591	32289.47
631.792	32731.83
631.992	32164.54
632.193	32398.01
632.393	32594.62
632.594	32535.23
632.794	32103.1
632.994	32432.83
633.195	32144.06
633.395	32391.87
633.595	32037.57
633.796	32090.82
633.996	32410.3
634.196	32750.26
634.397	32248.51
634.597	32543.42
634.797	32746.17
634.997	32492.22
635.198	32367.29
635.398	32125.63
635.598	33002.16
635.798	33034.93
635.998	32508.6
636.199	32209.6
636.399	32662.2
636.599	32412.35
636.799	32649.91
636.999	32467.64
637.199	32524.99
637.399	33112.75
637.599	32510.65
637.799	31886.02
637.999	32615.1
638.199	33176.24
638.399	32285.37
638.599	32424.64
638.799	32950.96
638.999	33948.32
639.199	33127.09
639.399	33166
639.599	33299.12
639.799	32864.95
639.999	32697.02
640.199	32424.64
640.399	32934.58
640.599	32383.68
640.799	32809.65
640.998	33213.1
641.198	33237.68
641.398	33325.74
641.598	33041.07
641.798	33155.76
641.997	34140.83
642.197	33106.61
642.397	32942.77
642.597	32772.79
642.796	33127.09
642.996	33403.56
643.196	33084.08
643.395	32291.52
643.595	33426.09
643.795	32889.52
643.994	32864.95
644.194	33082.03
644.394	33344.17
644.593	33385.13
644.793	33020.59
644.992	33335.98
645.192	33585.83
645.392	33034.93
645.591	33303.21
645.791	33213.1
645.99	33333.93
646.19	33374.89
646.389	33632.94
646.589	33354.41
646.788	33772.2
646.987	33239.73
647.187	33749.67
647.386	33389.23
647.586	33667.75
647.785	34030.24
647.984	33536.68
648.184	33335.98
648.383	33870.5
648.582	33594.03
648.782	33399.47
648.981	33243.82
649.18	32932.53
649.38	33995.43
649.579	33563.31
649.778	33546.92
649.977	34056.87
650.177	33794.73
650.376	33237.68
650.575	33335.98
650.774	34052.77
650.973	33913.51
651.173	33104.56
651.372	33700.52
651.571	33606.31
651.77	34038.44
651.969	33624.75
652.168	33843.88
652.367	33309.36
652.566	33610.41
652.765	33956.52
652.964	34081.44
653.163	34843.29
653.362	33907.37
653.561	33503.92
653.76	33727.14
653.959	33979.04
654.158	34196.13
654.357	33874.6
654.556	33827.49
654.755	34335.39
654.954	34255.52
655.153	33575.59
655.352	34146.98
655.551	34151.07
655.749	33860.26
655.948	33960.61
656.147	33770.15
656.346	33940.13
656.545	33933.99
656.743	33524.4
656.942	33954.47
657.141	34122.4
657.34	34335.39
657.538	34298.53
657.737	34067.11
657.936	34292.38
658.135	34503.32
658.333	33651.37
658.532	34065.06
658.731	34554.52
658.929	34476.7
659.128	34079.39
659.326	34022.05
659.525	34355.87
659.724	34255.52
659.922	33862.31
660.121	33782.44
660.319	34224.8
660.518	34425.5
660.716	33829.54
660.915	33929.89
661.113	34931.35
661.312	34128.55
661.51	34319.01
661.709	34429.6
661.907	34630.3
662.105	34562.72
662.304	34329.25
662.502	34390.69
662.701	34511.52
662.899	34194.08
663.097	33940.13
663.296	33761.96
663.494	34740.89
663.692	34790.04
663.891	34210.46
664.089	33997.48
664.287	34321.05
664.485	34640.54
664.684	34392.73
664.882	34044.58
665.08	34316.96
665.278	34583.19
665.476	33997.48
665.675	34308.77
665.873	34740.89
666.071	34484.89
666.269	34196.13
666.467	34134.69
666.665	34300.58
666.863	34001.57
667.061	34067.11
667.259	34026.15
667.457	34542.24
667.655	34554.52
667.853	33870.5
668.051	34189.98
668.249	34237.09
668.447	34673.31
668.645	34351.77
668.843	34550.43
669.041	34704.03
669.239	34374.3
669.437	34304.67
669.635	34368.16
669.833	34310.82
670.031	34321.05
670.229	34034.34
670.426	34513.56
670.624	34339.49
670.822	34130.59
671.02	34394.78
671.218	34202.27
671.415	34232.99
671.613	34368.16
671.811	34267.81
672.009	34200.22
672.206	35021.46
672.404	34532
672.602	34294.43
672.799	34763.42
672.997	34773.66
673.195	35011.22
673.392	34421.41
673.59	34204.32
673.788	34224.8
673.985	33645.23
674.183	34243.23
674.38	33903.27
674.578	34347.68
674.775	33913.51
674.973	33692.33
675.17	33962.66
675.368	34302.62
675.565	34124.45
675.763	33813.16
675.96	33739.43
676.158	34110.11
676.355	33718.95
676.553	33827.49
676.75	33731.24
676.947	34128.55
677.145	33974.95
677.342	33778.34
677.539	34212.51
677.737	34386.59
677.934	34742.94
678.131	34294.43
678.329	33907.37
678.526	34470.56
678.723	34198.18
678.92	34198.18
679.118	33739.43
679.315	33430.19
679.512	34568.86
679.709	34235.04
679.906	33669.8
680.104	34257.57
680.301	33700.52
680.498	33671.85
680.695	33596.07
680.892	33944.23
681.089	33753.77
681.286	33585.83
681.483	33000.12
681.68	33573.55
681.877	33811.11
682.075	33569.45
682.272	33286.83
682.469	33645.23
682.665	33852.07
682.862	33530.54
683.059	33141.42
683.256	33757.86
683.453	33915.56
683.65	33694.38
683.847	33446.57
684.044	33020.59
684.241	33340.08
684.438	33661.61
684.635	33159.86
684.831	34001.57
685.028	34134.69
685.225	33422
685.422	33508.01
685.619	33129.14
685.815	33497.77
686.012	33184.43
686.209	33335.98
686.405	33176.24
686.602	33397.42
686.799	32944.82
686.996	32805.56
687.192	33079.99
687.389	33604.27
687.586	32676.54
687.782	32901.81
687.979	33573.55
688.175	33065.65
688.372	32750.26
688.568	32768.69
688.765	33014.45
688.962	33608.36
689.158	33295.02
689.355	33122.99
689.551	33176.24
689.748	32838.33
689.944	33086.13
690.14	32846.52
690.337	33292.97
690.533	33106.61
690.73	32635.58
690.926	32823.99
691.123	32979.64
691.319	33139.38
691.515	32516.79
691.712	32780.98
691.908	33102.51
692.104	32891.57
692.301	33032.88
692.497	32473.79
692.693	33239.73
692.889	33276.59
693.086	32631.48
693.282	32656.06
693.478	32688.82
693.674	33301.17
693.87	32750.26
694.067	32721.59
694.263	32631.48
694.459	32586.43
694.655	32633.53
694.851	32344.77
695.047	32735.93
695.243	32651.96
695.439	32475.84
695.635	32635.58
695.831	32647.86
696.027	32430.78
696.224	32361.15
696.42	32666.3
696.615	32733.88
696.811	33106.61
697.007	31965.89
697.203	32295.61
697.399	32588.47
697.595	32594.62
697.791	31918.79
697.987	32238.27
698.183	32228.03
698.379	31957.7
698.575	32645.82
698.77	32365.24
698.966	32299.71
699.162	32336.57
699.358	31949.51
699.554	31931.08
699.749	32699.06
699.945	32221.89
700.141	31654.6
700.337	31980.23
700.532	31797.96
700.728	32060.1
700.924	31976.13
701.119	31845.06
701.315	32115.39
701.511	32156.35
701.706	32545.47
701.902	31824.58
702.097	31818.44
702.293	32432.83
702.489	31777.48
702.684	32144.06
702.88	32099.01
703.075	31840.96
703.271	31689.42
703.466	31464.14
703.662	31408.84
703.857	32348.86
704.053	31888.07
704.248	31914.69
704.443	32377.53
704.639	31994.56
704.834	32041.67
705.03	31828.68
705.225	32043.71
705.42	31984.32
705.616	31429.32
705.811	31156.94
706.006	31863.49
706.202	31558.35
706.397	31642.31
706.592	31140.56
706.787	31568.58
706.983	31496.91
707.178	31914.69
707.373	31427.28
707.568	31812.29
707.763	31828.68
707.959	31447.75
708.154	31367.88
708.349	31734.47
708.544	31922.88
708.739	31402.7
708.934	31349.45
709.129	31484.62
709.324	31879.88
709.519	31638.22
709.714	31580.87
709.909	31879.88
710.104	31570.63
710.299	31056.59
710.494	31505.1
710.689	31795.91
710.884	31204.05
711.079	31109.84
711.274	31548.11
711.469	31267.53
711.664	31793.86
711.859	31007.44
712.054	31642.31
712.249	31720.13
712.443	31529.67
712.638	30843.6
712.833	30753.49
713.028	31394.51
713.223	30956.24
713.417	31085.26
713.612	31023.83
713.807	31556.3
714.002	31908.55
714.196	31087.31
714.391	30903
714.586	31302.35
714.78	31154.9
714.975	30720.73
715.17	30876.37
715.364	30986.96
715.559	31519.43
715.754	30444.25
715.948	30724.82
716.143	31644.36
716.337	30589.66
716.532	31191.76
716.726	30941.91
716.921	31578.82
717.115	31349.45
717.31	30644.95
717.504	31144.66
717.699	30640.86
717.893	30808.79
718.088	30454.49
718.282	30364.38
718.476	30655.19
718.671	30538.46
718.865	30110.43
719.059	30141.15
719.254	30501.59
719.448	30876.37
719.642	31630.02
719.837	29819.62
720.031	30737.11
720.225	30008.03
720.419	30089.95
720.614	29754.08
720.808	30552.79
721.002	30221.02
721.196	29864.67
721.39	29948.64
721.585	30309.08
721.779	30206.69
721.973	30094.05
722.167	29678.31
722.361	30272.22
722.555	30487.26
722.749	30028.51
722.943	30284.51
723.137	29930.21
723.331	30292.7
723.525	29731.56
723.719	29827.81
723.913	30206.69
724.107	30489.31
724.301	29936.35
724.495	30235.36
724.689	30454.49
724.883	29954.79
725.077	29399.79
725.271	30100.19
725.465	30221.02
725.659	30128.86
725.853	29569.77
726.046	29631.21
726.24	29713.13
726.434	29752.04
726.628	30005.98
726.822	29858.53
727.015	30802.64
727.209	30083.81
727.403	29512.42
727.596	29723.37
727.79	29864.67
727.984	30501.59
728.177	29948.64
728.371	29960.93
728.565	29915.87
728.758	30059.23
728.952	30171.87
729.146	29772.52
729.339	30405.34
729.533	29979.36
729.726	29534.95
729.92	29618.92
730.113	29960.93
730.307	29993.7
730.5	29276.91
730.694	29385.45
730.887	29321.96
731.081	29977.31
731.274	29924.07
731.468	29539.05
731.661	29571.82
731.854	29567.72
732.048	29698.79
732.241	29698.79
732.435	29694.69
732.628	29463.27
732.821	29692.65
733.014	29412.07
733.208	29197.04
733.401	29946.59
733.594	29221.61
733.788	29528.81
733.981	30182.11
734.174	29866.72
734.367	29149.93
734.56	29997.79
734.754	29983.46
734.947	29838.05
735.14	29190.89
735.333	29561.58
735.526	29407.98
735.719	29352.68
735.912	29836
736.105	29684.45
736.298	29801.19
736.491	29700.84
736.684	29295.34
736.877	29178.61
737.07	29379.31
737.263	29481.7
737.456	29340.39
737.649	28979.95
737.842	29272.81
738.035	29479.66
738.228	28963.57
738.421	29334.25
738.614	29647.59
738.807	30030.56
739	28791.54
739.192	28924.66
739.385	29289.2
739.578	29274.86
739.771	29020.91
739.964	28711.67
740.156	29428.46
740.349	29194.99
740.542	29068.02
740.735	28801.78
740.927	29225.71
741.12	28992.24
741.313	28941.04
741.505	29246.19
741.698	29278.96
741.891	29264.62
742.083	28924.66
742.276	29033.2
742.468	29422.31
742.661	29022.96
742.854	28924.66
743.046	29084.4
743.239	29475.56
743.431	29276.91
743.624	28984.05
743.816	28809.97
744.009	29274.86
744.201	28961.52
744.393	28904.18
744.586	28318.46
744.778	29301.48
744.971	29051.63
745.163	28957.42
745.355	28687.09
745.548	29065.97
745.74	28459.77
745.932	28713.72
746.125	28478.2
746.317	29551.34
746.509	28777.2
746.702	28359.42
746.894	28353.27
747.086	28949.23
747.278	29092.59
747.471	28783.35
747.663	28463.86
747.855	28807.92
748.047	28955.38
748.239	28437.24
748.431	28297.98
748.623	28781.3
748.815	28938.99
749.008	28687.09
749.2	28513.02
749.392	29004.53
749.584	28711.67
749.776	28234.49
749.968	28578.55
750.16	29250.28
750.352	28363.51
750.544	28619.51
750.736	28691.19
750.928	28930.8
751.12	28814.07
751.311	28261.12
751.503	28654.33
751.695	28748.53
751.887	28488.44
752.079	28146.43
752.271	28156.67
752.463	29575.91
752.654	28754.68
752.846	28408.57
753.038	28205.82
753.23	28494.58
753.421	28664.57
753.613	28191.48
753.805	28740.34
753.997	28769.01
754.188	28807.92
754.38	28113.66
754.572	28199.68
754.763	28367.61
754.955	28357.37
755.146	28107.52
755.338	28211.96
755.53	28064.51
755.721	28078.85
755.913	27446.02
756.104	27376.39
756.296	27861.76
756.487	28205.82
756.679	27888.39
756.87	27738.88
757.062	27577.09
757.253	28406.52
757.445	27953.92
757.636	27822.85
757.827	27933.44
758.019	28764.92
758.21	27882.24
758.401	27742.98
758.593	28222.2
758.784	28259.07
758.975	27466.5
759.167	27151.12
759.358	27581.19
759.549	27648.77
759.74	27218.7
759.932	26985.23
760.123	27833.09
760.314	26800.91
760.505	27259.66
760.696	27118.35
760.888	28154.62
761.079	27140.88
761.27	27331.34
761.461	27241.23
761.652	27720.45
761.843	27384.58
762.034	26999.57
762.225	27075.34
762.416	27101.97
762.607	27239.18
762.798	27132.68
762.989	26686.23
763.18	28044.03
763.371	26762
763.562	26737.43
763.753	26770.19
763.944	27222.8
764.135	27085.58
764.326	26987.28
764.517	26452.76
764.708	26970.9
764.899	26827.54
765.089	26141.47
765.28	26270.49
765.471	26542.87
765.662	26696.47
765.853	26669.84
766.043	25934.62
766.234	26671.89
766.425	26315.55
766.615	26149.66
766.806	26032.93
766.997	26815.25
767.187	26258.2
767.378	25756.45
767.569	25795.36
767.759	26233.63
767.95	26479.38
768.141	26280.73
768.331	25996.06
768.522	26501.91
768.712	26346.26
768.903	25766.69
769.093	25897.76
769.284	26250.01
769.474	25905.95
769.665	25451.3
769.855	25162.54
770.046	25965.34
770.236	25735.97
770.426	25629.48
770.617	25510.69
770.807	25838.37
770.998	25520.93
771.188	25951.01
771.378	25535.27
771.569	26082.08
771.759	26022.69
771.949	25412.39
772.139	25396.01
772.33	25406.25
772.52	26024.73
772.71	25451.3
772.9	25119.53
773.09	25955.1
773.281	25692.96
773.471	25180.97
773.661	25023.28
773.851	25547.56
774.041	25125.68
774.231	25019.18
774.421	25015.08
774.611	25735.97
774.802	25187.11
774.992	24877.87
775.182	24816.43
775.372	24914.73
775.562	25396.01
775.752	24881.97
775.942	24408.89
776.131	24935.21
776.321	25164.59
776.511	24945.45
776.701	24642.35
776.891	25041.71
777.081	24726.32
777.271	24535.86
777.461	24787.76
777.651	24798
777.84	25060.14
778.03	24228.66
778.22	24486.71
778.41	25092.91
778.599	24333.11
778.789	24587.06
778.979	24079.16
779.169	24662.83
779.358	24245.05
779.548	24488.76
779.738	23739.2
779.927	24269.62
780.117	24286.01
780.307	24085.31
780.496	23546.69
780.686	24154.94
780.875	24689.46
781.065	24097.59
781.254	23974.72
781.444	23878.46
781.633	24220.47
781.823	23747.39
782.012	23821.12
782.202	23913.28
782.391	24025.92
782.581	23565.12
782.77	23944
782.96	24261.43
783.149	23585.6
783.338	23370.57
783.528	23665.47
783.717	24109.88
783.906	23888.7
784.096	23558.98
784.285	23493.44
784.474	23731.01
784.663	24042.3
784.853	23444.29
785.042	23907.13
785.231	23731.01
785.42	24218.43
785.61	23833.41
785.799	23243.59
785.988	23888.7
786.177	23659.33
786.366	23497.54
786.555	23626.56
786.744	23747.39
786.933	23343.94
787.122	23022.41
787.312	23198.54
787.501	22915.92
787.69	23466.82
787.879	23245.64
788.068	22911.82
788.257	22879.05
788.445	22897.49
788.634	23237.45
788.823	22979.4
789.012	23829.31
789.201	23413.57
789.39	22797.13
789.579	22430.55
789.768	22905.68
789.957	22911.82
790.145	22643.54
790.334	22014.81
790.523	22541.14
790.712	22719.31
790.9	22944.59
791.089	22440.79
791.278	22897.49
791.467	22924.11
791.655	22797.13
791.844	22510.42
792.033	22158.17
792.221	21875.55
792.41	22231.9
792.599	21914.46
792.787	22567.76
792.976	22578
793.164	22018.91
793.353	22168.41
793.541	22702.93
793.73	22559.57
793.918	22313.81
794.107	22133.59
794.295	22264.66
794.484	22229.85
794.672	22199.13
794.861	22078.3
795.049	22489.94
795.238	22803.28
795.426	22274.9
795.614	22008.67
795.803	22590.29
795.991	22752.08
796.179	21863.26
796.368	22043.48
796.556	22117.21
796.744	21416.8
796.932	21646.18
797.121	21523.3
797.309	21711.71
797.497	22348.63
797.685	21551.97
797.874	22045.53
798.062	21975.9
798.25	22428.5
798.438	21668.7
798.626	21930.84
798.814	22567.76
799.002	22666.06
799.19	22164.31
799.378	21949.28
799.566	22240.09
799.755	22354.77
799.943	22072.15
800.131	21588.83
800.318	22027.1
800.506	22231.9
800.694	21721.95
800.882	21617.5
801.07	22338.39
801.258	21797.73
801.446	21566.31
801.634	21652.32
801.822	22043.48
802.01	22147.93
802.197	21560.16
802.385	21846.88
802.573	21891.93
802.761	21623.65
802.949	21646.18
803.136	21666.66
803.324	22188.89
803.512	22113.11
803.699	21549.92
803.887	21535.59
804.075	22588.24
804.262	21969.76
804.45	21431.14
804.638	21660.51
804.825	21883.74
805.013	21580.64
805.201	21928.8
805.388	21554.02
805.576	21982.04
805.763	22479.7
805.951	21822.3
806.138	21760.86
806.326	22475.6
806.513	21885.79
806.701	21685.09
806.888	21904.22
807.075	22250.33
807.263	22917.96
807.45	21826.4
807.638	22094.68
807.825	22614.87
808.012	22172.5
808.2	21644.13
808.387	22381.4
808.574	22229.85
808.761	22444.88
808.949	21924.7
809.136	21947.23
809.323	22025.05
809.51	22156.12
809.698	22174.55
809.885	21869.4
810.072	22205.27
810.259	22776.66
810.446	22076.25
810.633	21617.5
810.82	22674.26
811.008	22569.81
811.195	22129.5
811.382	22168.41
811.569	22215.51
811.756	21920.6
811.943	22131.54
812.13	22313.81
812.317	22365.01
812.504	22225.75
812.691	22551.38
812.878	22289.24
813.064	22659.92
813.251	22475.6
813.438	22010.71
813.625	22141.78
813.812	22145.88
813.999	22149.98
814.186	22168.41
814.372	21904.22
814.559	22182.74
814.746	22784.85
814.933	21629.79
815.12	22563.67
815.306	22006.62
815.493	21924.7
815.68	21857.12
815.866	22082.39
816.053	22225.75
816.24	22578
816.426	22086.49
816.613	22158.17
816.799	22534.99
816.986	22520.66
817.173	22154.07
817.359	21984.09
817.546	22037.34
817.732	21918.56
817.919	21728.1
818.105	22217.56
818.292	22180.7
818.478	22324.05
818.665	22082.39
818.851	22068.06
819.037	22989.64
819.224	22168.41
819.41	21527.39
819.597	21709.66
819.783	22186.84
819.969	22451.03
820.156	21900.12
820.342	22152.02
820.528	23173.96
820.714	22092.63
820.901	22045.53
821.087	21721.95
821.273	22438.74
821.459	21947.23
821.646	21877.6
821.832	21633.89
822.018	21963.61
822.204	21554.02
822.39	21715.81
822.576	21437.28
822.762	21971.8
822.948	21721.95
823.134	21693.28
823.32	21384.04
823.507	21482.34
823.693	21592.93
823.879	21662.56
824.065	21392.23
824.25	21879.64
824.436	21533.54
824.622	21199.72
824.808	21508.96
824.994	21484.39
825.18	21154.66
825.366	21506.91
825.552	21468
825.738	21465.96
825.923	21719.9
826.109	21576.55
826.295	20972.39
826.481	21291.88
826.667	21484.39
826.852	21246.82
827.038	21146.47
827.224	21664.61
827.409	21818.21
827.595	20980.59
827.781	21160.81
827.966	21715.81
828.152	21402.47
828.338	21179.24
828.523	20812.65
828.709	21367.65
828.894	21259.11
829.08	20779.89
829.266	20788.08
829.451	21082.98
829.637	20994.92
829.822	20527.99
830.008	20444.02
830.193	20892.52
830.378	21244.77
830.564	20872.04
830.749	20790.13
830.935	21037.93
831.12	21019.5
831.305	20206.45
831.491	20931.44
831.676	20568.94
831.861	20931.44
832.047	20476.79
832.232	20634.48
832.417	20904.81
832.602	20888.43
832.788	20315
832.973	20374.39
833.158	20734.83
833.343	20943.72
833.528	20542.32
833.714	20695.92
833.899	20896.62
834.084	21121.9
834.269	20480.88
834.454	20310.9
834.639	20749.17
834.824	20523.89
835.009	20413.3
835.194	20611.95
835.379	20511.6
835.564	20657.01
835.749	20185.97
835.934	20050.81
836.119	20577.14
836.304	20306.8
836.489	19987.32
836.674	20153.21
836.859	20108.15
837.044	20511.6
837.228	19868.54
837.413	19737.47
837.598	20347.76
837.783	20349.81
837.968	20118.39
838.152	19657.6
838.337	19721.09
838.522	20067.19
838.707	20351.86
838.891	19745.66
839.076	20030.33
839.261	20304.76
839.445	19962.75
839.63	19694.46
839.815	20075.38
839.999	19643.26
840.184	19446.66
840.368	19340.16
840.553	19825.53
840.737	19688.32
840.922	18961.29
841.106	19313.54
841.291	19633.02
841.475	19557.25
841.66	19301.25
841.844	19372.93
842.029	20265.85
842.213	19205
842.397	19051.4
842.582	18920.33
842.766	20054.9
842.951	19825.53
843.135	19422.08
843.319	19514.24
843.504	19307.4
843.688	19874.68
843.872	18897.8
844.056	19020.68
844.241	19510.14
844.425	19059.59
844.609	19319.68
844.793	18672.53
844.977	19217.29
845.161	19219.33
845.346	18717.58
845.53	18983.82
845.714	19127.17
845.898	19663.74
846.082	18776.97
846.266	18936.71
846.45	19286.92
846.634	18899.85
846.818	18658.19
847.002	19012.49
847.186	19377.03
847.37	18547.6
847.554	18480.02
847.738	18508.69
847.922	19020.68
848.106	19135.37
848.29	18174.87
848.473	18486.16
848.657	18830.22
848.841	18860.94
849.025	18361.23
849.209	18135.96
849.392	18690.96
849.576	18500.5
849.76	17904.54
849.944	18013.08
850.127	18723.72
850.311	17980.31
850.495	17935.26
850.678	17623.97
850.862	18508.69
851.046	18666.38
851.229	18109.33
851.413	17890.2
851.596	18138.01
851.78	18230.16
851.964	18013.08
852.147	17918.87
852.331	18865.03
852.514	18498.45
852.698	18008.98
852.881	17636.25
853.065	18221.97
853.248	18008.98
853.431	17939.35
853.615	17785.76
853.798	18547.6
853.982	18084.76
854.165	17861.53
854.348	17640.35
854.532	17542.05
854.715	17351.59
854.898	17365.92
855.081	17445.79
855.265	17984.41
855.448	17929.11
855.631	17468.32
855.814	17478.56
855.997	17705.88
856.181	17683.36
856.364	17566.62
856.547	17441.7
856.73	17767.32
856.913	17597.34
857.096	17296.29
857.279	17238.95
857.462	17281.95
857.645	17611.68
857.828	17484.7
858.011	17439.65
858.194	17181.6
858.377	17511.33
858.56	17136.55
858.743	17370.02
858.926	17011.62
859.109	17619.87
859.292	17056.68
859.475	16997.29
859.658	17492.9
859.841	17429.41
860.023	16874.41
860.206	16913.32
860.389	17202.08
860.572	17339.3
860.755	16694.19
860.937	16858.03
861.12	16860.07
861.303	16845.74
861.486	16810.92
861.668	16589.74
861.851	17056.68
862.034	17154.98
862.216	16528.3
862.399	16329.65
862.581	16913.32
862.764	17277.86
862.947	16772.01
863.129	16458.67
863.312	16612.27
863.494	17286.05
863.677	16948.14
863.859	16493.49
864.042	17001.38
864.224	17187.75
864.406	16425.9
864.589	16149.43
864.771	16694.19
864.954	16020.41
865.136	15905.72
865.318	15827.9
865.501	16196.53
865.683	15750.07
865.865	15670.2
866.048	15993.78
866.23	16100.28
866.412	16262.07
866.594	15717.31
866.777	16118.71
866.959	16317.36
867.141	15866.81
867.323	15850.42
867.505	16180.15
867.687	16217.01
867.869	16137.14
868.052	16092.09
868.234	15614.91
868.416	16073.65
868.598	16368.56
868.78	15655.87
868.962	15625.15
869.144	16149.43
869.326	16292.79
869.508	15612.86
869.69	15418.3
869.872	15795.13
870.054	16137.14
870.236	15438.78
870.417	15879.1
870.599	15971.25
870.781	16399.28
870.963	15745.98
871.145	15741.88
871.327	15657.92
871.508	15903.67
871.69	15760.31
871.872	15780.79
872.054	15735.74
872.235	15840.18
872.417	15383.49
872.599	15336.38
872.78	16153.52
872.962	15961.02
873.144	15494.08
873.325	15479.74
873.507	16178.1
873.689	15526.85
873.87	15279.04
874.052	15727.55
874.233	15811.51
874.415	15797.18
874.596	15625.15
874.778	15178.69
874.959	15831.99
875.141	15875
875.322	15344.58
875.503	15102.92
875.685	15817.66
875.866	15248.32
876.048	15588.28
876.229	15328.19
876.41	15467.45
876.592	15662.01
876.773	15303.62
876.954	15225.79
877.136	16102.32
877.317	15911.86
877.498	15494.08
877.679	15496.13
877.86	15500.22
878.042	15694.78
878.223	15604.67
878.404	15797.18
878.585	16135.09
878.766	16145.33
878.947	16223.16
879.128	15958.97
879.309	15752.12
879.49	16186.29
879.672	15741.88
879.853	16016.31
880.034	16004.02
880.215	16221.11
880.396	15977.4
880.576	15838.14
880.757	16325.55
880.938	16382.9
881.119	15954.87
881.3	15893.43
881.481	15989.69
881.662	16776.11
881.843	15846.33
882.023	15940.54
882.204	16305.07
882.385	16266.16
882.566	16044.98
882.747	15965.11
882.927	16262.07
883.108	16606.13
883.289	15977.4
883.469	16427.95
883.65	16323.51
883.831	16337.84
884.011	16501.68
884.192	16257.97
884.373	16534.45
884.553	16454.58
884.734	16460.72
884.914	16827.31
885.095	17472.42
885.275	16735.15
885.456	16692.14
885.636	16456.62
885.817	16698.28
885.997	16624.56
886.178	16331.7
886.358	16524.21
886.538	16626.6
886.719	17154.98
886.899	16120.76
887.08	16378.8
887.26	16708.52
887.44	16520.11
887.621	16395.18
887.801	16718.76
887.981	17337.25
888.161	17294.24
888.342	16810.92
888.522	16964.52
888.702	16862.12
888.882	17535.9
889.062	16710.57
889.242	16520.11
889.423	17355.68
889.603	16798.63
889.783	16853.93
889.963	16907.18
890.143	17273.76
890.323	17054.63
890.503	16855.98
890.683	16898.98
890.863	16866.22
891.043	16767.91
891.223	16708.52
891.403	17005.48
891.583	16884.65
891.763	16933.8
891.943	16671.66
892.122	16720.81
892.302	16929.7
892.482	16804.78
892.662	16567.21
892.842	16765.87
893.022	16982.95
893.201	16634.8
893.381	16714.67
893.561	16528.3
893.741	17304.48
893.92	16941.99
894.1	16657.32
894.28	16542.64
894.459	16860.07
894.639	17005.48
894.819	16653.23
894.998	16819.11
895.178	17265.57
895.357	16743.34
895.537	16305.07
895.716	16520.11
895.896	16577.45
896.075	16954.28
896.255	16313.27
896.434	16057.27
896.614	16997.29
896.793	16796.59
896.973	16225.2
897.152	16296.88
897.331	16436.14
897.511	16544.69
897.69	16106.42
897.87	16155.57
898.049	16640.94
898.228	16624.56
898.407	16214.96
898.587	16053.17
898.766	16047.03
898.945	16303.03
899.124	15918.01
899.304	15875
899.483	16391.09
899.662	16606.13
899.841	15764.41
900.02	15553.47
900.199	16135.09
900.378	15928.25
900.557	15547.33
900.737	15530.94
900.916	16343.99
901.095	16024.5
901.274	15719.35
901.453	15344.58
901.632	15586.24
901.811	15426.5
901.989	15397.82
902.168	15215.55
902.347	15901.62
902.526	15373.25
902.705	15305.67
902.884	15526.85
903.063	16206.77
903.242	15858.62
903.42	15025.09
903.599	15326.14
903.778	15705.02
903.957	15690.68
904.135	15104.96
904.314	14885.83
904.493	15457.21
904.672	15481.79
904.85	14775.24
905.029	14732.23
905.207	14873.54
905.386	15449.02
905.565	14257.11
905.743	14418.89
905.922	14199.76
906.1	14613.45
906.279	14005.2
906.457	14107.6
906.636	14210
906.814	14244.82
906.993	13968.34
907.171	13757.4
907.35	14220.24
907.528	14144.47
907.707	13865.94
907.885	13505.5
908.063	14322.64
908.242	13659.1
908.42	13517.79
908.598	13333.47
908.777	13982.68
908.955	13564.89
909.133	13681.63
909.311	13425.63
909.49	13902.81
909.668	13724.63
909.846	13650.91
910.024	13491.16
910.202	13736.92
910.38	14085.08
910.559	13442.01
910.737	13487.07
910.915	14093.27
911.093	14058.45
911.271	13829.08
911.449	14062.55
911.627	14197.71
911.805	14627.79
911.983	13784.02
912.161	14132.18
912.339	14377.94
912.517	14414.8
912.695	14015.44
912.872	13927.38
913.05	13908.95
913.228	13949.91
913.406	14199.76
913.584	14017.49
913.762	14271.44
913.939	14023.64
914.117	14005.2
914.295	13933.53
914.473	14384.08
914.65	14265.3
914.828	13831.13
915.006	13896.66
915.184	14148.56
915.361	14377.94
915.539	14238.67
915.716	14306.26
915.894	14373.84
916.072	14662.6
916.249	14228.43
916.427	14062.55
916.604	13958.1
916.782	14099.41
916.959	13921.24
917.137	13781.98
917.314	14158.8
917.492	14160.85
917.669	13710.3
917.847	13495.26
918.024	13929.43
918.201	13552.6
918.379	13786.07
918.556	13736.92
918.733	14111.7
918.911	13763.54
919.088	13951.96
919.265	13503.45
919.442	13704.15
919.62	13761.5
919.797	13427.68
919.974	13427.68
920.151	14091.22
920.328	13661.15
920.506	13503.45
920.683	13517.79
920.86	13382.62
921.037	13468.64
921.214	13394.91
921.391	13341.66
921.568	13601.76
921.745	13327.33
921.922	13194.21
922.099	13233.12
922.276	13771.74
922.453	13534.17
922.63	13087.71
922.807	13583.32
922.984	13329.38
923.161	13153.25
923.338	13140.96
923.514	12964.84
923.691	13423.58
923.868	13059.04
924.045	12717.03
924.222	12932.07
924.399	13159.39
924.575	13175.78
924.752	12854.25
924.929	12712.94
925.105	13007.84
925.282	12700.65
925.459	12747.75
925.635	12706.79
925.812	12760.04
925.989	12643.31
926.165	12667.88
926.342	12135.41
926.518	12295.15
926.695	12590.06
926.871	12274.67
927.048	12166.13
927.224	12913.64
927.401	12237.81
927.577	12082.16
927.754	12016.63
927.93	12714.98
928.107	12479.47
928.283	12252.14
928.459	12360.69
928.636	12282.86
928.812	12119.03
928.988	12041.2
929.165	11992.05
929.341	11944.95
929.517	12237.81
929.693	12139.51
929.87	11496.44
930.046	12155.89
930.222	11584.51
930.398	11467.77
930.574	11584.51
930.751	11551.74
930.927	11631.61
931.103	11508.73
931.279	11404.28
931.455	11398.14
931.631	11570.17
931.807	11117.57
931.983	11074.56
932.159	11133.95
932.335	11461.63
932.511	11344.89
932.687	11181.06
932.863	11422.72
933.039	11115.52
933.215	10990.59
933.391	10767.37
933.566	10910.72
933.742	11097.09
933.918	10667.02
934.094	10497.03
934.27	10599.43
934.445	10576.91
934.621	10284.05
934.797	9907.22
934.973	10290.19
935.148	10517.51
935.324	9831.44
935.5	9724.95
935.675	10402.83
935.851	9911.32
936.027	9649.18
936.202	9321.5
936.378	9661.46
936.553	9520.15
936.729	9509.91
936.904	8645.67
937.08	8981.54
937.255	8434.73
937.431	8414.25
937.606	8184.88
937.782	8440.87
937.957	8311.85
938.133	8225.84
938.308	7986.22
938.483	8117.29
938.659	7670.84
938.834	7709.75
939.009	7355.45
939.185	7752.76
939.36	7351.35
939.535	7035.97
939.71	7328.83
939.886	7533.62
940.061	7449.66
940.236	6857.79
940.411	6960.19
940.586	7183.42
940.761	7035.97
940.937	6587.46
941.112	6464.58
941.287	6939.71
941.462	6706.24
941.637	6472.78
941.812	6313.03
941.987	6523.98
942.162	6507.59
942.337	6282.31
942.512	6356.04
942.687	6691.91
942.862	6622.28
943.037	6085.71
943.212	5753.94
943.386	6212.68
943.561	6184.01
943.736	6263.88
943.911	6407.24
944.086	6411.34
944.26	6478.92
944.435	6145.1
944.61	6290.51
944.785	6575.17
944.959	6747.2
945.134	6138.96
945.309	6079.57
945.483	5989.46
945.658	6497.35
945.833	5837.91
946.007	5882.96
946.182	6739.01
946.357	6061.13
946.531	6087.76
946.706	5979.22
946.88	5842
947.055	6458.44
947.229	6163.53
947.404	6143.05
947.578	6714.44
947.752	6360.14
947.927	6087.76
948.101	6028.37
948.276	6491.21
948.45	6366.28
948.624	6622.28
948.799	6042.7
948.973	6626.37
949.147	6200.4
949.321	6302.79
949.496	6519.88
949.67	6978.62
949.844	6591.56
950.018	6456.39
950.193	6536.26
950.367	7318.59
950.541	6655.05
950.715	6722.63
950.889	6620.23
951.063	6503.5
951.237	6962.24
951.411	6120.53
951.585	6280.27
951.759	6992.96
951.933	6659.14
952.107	6603.85
952.281	6865.99
952.455	7384.12
952.629	7298.11
952.803	6716.48
952.977	6650.95
953.151	7054.4
953.325	7138.37
953.499	6902.85
953.672	6710.34
953.846	6638.66
954.02	6859.84
954.194	6595.65
954.368	6526.02
954.541	7228.48
954.715	7085.12
954.889	6724.68
955.062	6734.92
955.236	7068.73
955.41	6958.14
955.583	6976.58
955.757	6669.38
955.93	6945.86
956.104	6734.92
956.278	6849.6
956.451	6751.3
956.625	7132.22
956.798	7519.29
956.972	7054.4
957.145	6659.14
957.319	7259.2
957.492	7038.02
957.665	6984.77
957.839	6822.98
958.012	7068.73
958.185	7054.4
958.359	6906.95
958.532	7007.3
958.705	7271.48
958.879	7214.14
959.052	7124.03
959.225	6759.49
959.398	7154.75
959.572	7248.96
959.745	6929.47
959.918	7136.32
960.091	6927.42
960.264	7410.75
960.438	6870.08
960.611	6712.39
960.784	7466.04
960.957	7218.24
961.13	7382.07
961.303	7167.04
961.476	7218.24
961.649	7347.26
961.822	6976.58
961.995	7044.16
962.168	7461.94
962.341	7097.41
962.514	7013.44
962.686	6849.6
962.859	7296.06
963.032	7334.97
963.205	6990.91
963.378	6884.42
963.551	7494.71
963.723	7031.87
963.896	7119.93
964.069	7056.45
964.242	7201.85
964.414	7300.16
964.587	7087.17
964.76	6966.34
964.932	7375.93
965.105	6999.1
965.278	6749.25
965.45	6898.75
965.623	7187.52
965.795	7093.31
965.968	6970.43
966.14	6868.03
966.313	7337.02
966.485	7189.56
966.658	6988.86
966.83	6749.25
967.003	7343.16
967.175	7343.16
967.348	6812.74
967.52	6685.76
967.692	7547.96
967.865	7054.4
968.037	6859.84
968.209	6962.24
968.382	7027.78
968.554	7052.35
968.726	6808.64
968.898	6767.68
969.071	7007.3
969.243	7113.79
969.415	6779.97
969.587	6896.71
969.759	7228.48
969.932	7023.68
970.104	6741.06
970.276	6339.66
970.448	6511.69
970.62	6790.21
970.792	6575.17
970.964	6558.79
971.136	7054.4
971.308	6724.68
971.48	6366.28
971.652	6464.58
971.824	6890.56
971.996	6581.32
972.168	6452.3
972.339	6452.3
972.511	6906.95
972.683	6671.43
972.855	6634.57
973.027	6345.8
973.199	6593.61
973.37	6726.72
973.542	6581.32
973.714	6569.03
973.886	6409.29
974.057	6800.45
974.229	6409.29
974.401	6372.43
974.572	6329.42
974.744	6003.79
974.915	6186.06
975.087	6241.36
975.259	6997.06
975.43	6339.66
975.602	6304.84
975.773	6087.76
975.945	6251.6
976.116	6593.61
976.288	6202.44
976.459	6319.18
976.63	6202.44
976.802	6403.14
976.973	6063.18
977.145	6259.79
977.316	6745.16
977.487	6298.7
977.659	6104.14
977.83	6085.71
978.001	6759.49
978.172	6376.52
978.344	5917.78
978.515	5925.97
978.686	6098
978.857	6542.41
979.028	5848.15
979.2	5854.29
979.371	6163.53
979.542	6065.23
979.713	5901.39
979.884	5485.65
980.055	5854.29
980.226	5899.34
980.397	5778.51
980.568	5669.97
980.739	6278.22
980.91	5872.72
981.081	6091.85
981.252	5672.02
981.423	6220.88
981.594	6118.48
981.765	5637.2
981.936	5833.81
982.106	5735.51
982.277	6126.67
982.448	5604.44
982.619	5803.09
982.79	5610.58
982.96	6108.24
983.131	5766.23
983.302	5430.36
983.472	5733.46
983.643	5751.89
983.814	5717.08
983.984	5565.53
984.155	5598.29
984.326	5872.72
984.496	5536.85
984.667	5387.35
984.837	5551.19
985.008	5966.93
985.178	5747.79
985.349	5663.83
985.519	5647.44
985.69	5491.8
985.86	5352.54
986.031	5262.43
986.201	5532.76
986.371	5645.4
986.542	5094.49
986.712	5227.61
986.882	5571.67
987.053	5506.13
987.223	5022.81
987.393	5479.51
987.563	5252.19
987.734	5616.72
987.904	5512.28
988.074	5045.34
988.244	5426.26
988.414	5114.97
988.585	5041.25
988.755	5157.98
988.925	5098.59
989.095	5557.33
989.265	4908.13
989.435	4979.81
989.605	5291.1
989.775	5174.36
989.945	5092.44
990.115	4748.39
990.285	5198.94
990.455	5135.45
990.625	5014.62
990.795	4805.73
990.965	5264.47
991.134	4924.51
991.304	4674.66
991.474	4656.23
991.644	5092.44
991.814	5385.3
991.984	4519.01
992.153	4641.89
992.323	4674.66
992.493	4674.66
992.662	4168.81
992.832	4562.02
993.002	4760.67
993.171	4777.06
993.341	4357.22
993.511	4639.84
993.68	4594.79
993.85	4914.27
994.019	4277.35
994.189	4240.49
994.358	4619.36
994.528	4549.73
994.697	3996.78
994.867	4068.46
995.036	4484.2
995.206	4422.76
995.375	4215.91
995.544	4342.89
995.714	4480.1
995.883	4400.23
996.052	4279.4
996.222	3988.59
996.391	4865.12
996.56	4320.36
996.73	4064.36
996.899	3886.19
997.068	4719.71
997.237	4412.52
997.406	3988.59
997.576	3859.57
997.745	4336.74
997.914	4191.34
998.083	3724.4
998.252	3945.58
998.421	4295.79
998.59	3978.35
998.759	3904.62
998.928	3787.89
999.097	4394.09
999.266	4164.72
999.435	3957.87
999.604	3589.24
999.773	4510.82
999.942	4078.7
1000.111	3644.53
1000.28	3613.81
1000.448	3832.94
1000.617	3773.55
1000.786	4025.45
1000.955	3574.9
1001.124	4224.11
1001.292	4602.98
1001.461	3720.31
1001.63	3458.17
1001.798	4265.07
1001.967	4138.09
1002.136	3351.67
1002.304	3478.65
1002.473	3808.37
1002.642	3884.14
1002.81	3550.32
1002.979	3495.03
1003.147	4013.17
1003.316	4357.22
1003.484	3617.91
1003.653	3382.39
1003.821	3968.11
1003.99	3636.34
1004.158	3535.99
1004.327	3499.13
1004.495	3753.07
1004.663	3456.12
1004.832	3474.55
1005	3058.81
1005.168	3830.9
1005.337	3773.55
1005.505	3243.13
1005.673	3460.21
1005.842	3748.98
1006.01	3519.6
1006.178	3073.15
1006.346	3138.68
1006.514	3568.76
1006.683	3806.32
1006.851	3206.27
1007.019	3216.51
1007.187	3310.71
1007.355	2872.45
1007.523	2901.12
1007.691	2952.32
1007.859	2993.28
1008.027	3511.41
1008.195	3091.58
1008.363	2768
1008.531	3527.8
1008.699	3028.09
1008.867	2720.9
1009.035	2901.12
1009.203	3345.53
1009.37	3234.94
1009.538	2925.69
1009.706	3296.38
1009.874	3208.31
1010.042	2942.08
1010.209	2892.93
1010.377	2745.47
1010.545	3335.29
1010.713	2968.7
1010.88	2897.02
1011.048	2704.51
1011.216	2827.39
1011.383	3261.56
1011.551	2677.89
1011.718	2681.99
1011.886	3376.25
1012.054	2864.25
1012.221	2491.52
1012.389	2583.68
1012.556	2940.03
1012.724	3302.52
1012.891	2677.89
1013.058	2624.64
1013.226	3081.34
1013.393	2997.37
1013.561	2352.26
1013.728	2327.69
1013.895	3044.48
1014.063	2847.87
1014.23	2296.97
1014.397	2399.37
1014.565	2915.45
1014.732	2704.51
1014.899	2325.64
1015.066	2335.88
1015.233	2755.71
1015.401	2817.15
1015.568	2432.13
1015.735	2438.28
1015.902	2645.12
1016.069	2712.71
1016.236	2200.71
1016.403	2147.47
1016.57	2395.27
1016.737	2761.86
1016.904	2270.34
1017.071	2094.22
1017.238	2319.5
1017.405	2765.95
1017.572	2135.18
1017.739	2411.65
1017.906	2557.06
1018.073	2745.47
1018.24	2061.45
1018.407	2186.38
1018.573	2722.95
1018.74	2339.97
1018.907	2040.97
1019.074	1825.93
1019.241	2542.72
1019.407	2313.35
1019.574	1883.28
1019.741	1987.72
1019.907	2204.81
1020.074	2389.13
1020.241	1750.16
1020.407	1840.27
1020.574	2362.5
1020.74	2389.13
1020.907	1811.6
1021.073	1834.13
1021.24	2788.48
1021.406	2567.3
1021.573	1774.74
1021.739	1848.46
1021.906	2452.61
1022.072	2266.25
1022.239	1961.1
1022.405	1834.13
1022.571	2124.94
1022.738	1971.34
1022.904	1807.5
1023.07	1877.13
1023.237	2008.2
1023.403	2374.79
1023.569	1729.68
1023.735	1801.36
1023.902	2153.61
1024.068	2198.67
1024.234	1674.39
1024.4	1727.63
1024.566	2139.27
1024.732	2258.06
1024.898	1721.49
1025.065	1586.32
1025.231	2233.48
1025.397	1840.27
1025.563	1801.36
1025.729	1686.67
1025.895	1569.94
1026.061	1754.26
1026.227	1395.86
1026.392	1567.89
1026.558	2272.39
1026.724	1963.15
1026.89	1584.27
1027.056	1594.51
1027.222	1909.9
1027.388	1832.08
1027.553	1516.69
1027.719	1488.02
1027.885	2233.48
1028.051	2012.3
1028.216	1404.05
1028.382	1516.69
1028.548	1905.81
1028.713	1803.41
1028.879	1340.57
1029.045	1617.04
1029.21	2143.37
1029.376	1944.72
1029.541	1510.55
1029.707	1383.57
1029.873	1899.66
1030.038	2045.07
1030.204	1416.34
1030.369	1449.11
1030.534	1932.43
1030.7	1758.35
1030.865	1426.58
1031.031	1303.7
1031.196	1854.61
1031.361	1694.86
1031.527	1236.12
1031.692	1254.55
1031.857	1305.75
1032.023	1748.11
1032.188	1240.22
1032.353	1320.09
1032.518	2020.49
1032.684	1645.71
1032.849	1207.45
1033.014	1272.98
1033.179	1803.41
1033.344	1713.3
1033.509	1395.86
1033.674	1393.81
1033.839	1719.44
1034.004	1789.07
1034.17	1256.6
1034.335	1115.29
1034.5	1399.96
1034.664	1451.16
1034.829	1072.28
1034.994	1301.65
1035.159	1602.71
1035.324	1594.51
1035.489	1223.83
1035.654	1143.96
1035.819	1858.7
1035.984	1576.08
1036.148	1238.17
1036.313	1125.53
1036.478	1756.3
1036.643	1539.22
1036.807	1080.47
1036.972	1041.56
1037.137	1770.64
1037.301	1420.44
1037.466	967.84
1037.631	1170.58
1037.795	1793.17
1037.96	1602.71
1038.124	1342.61
1038.289	883.87
1038.454	1502.36
1038.618	1588.37
1038.783	1090.71
1038.947	1158.3
1039.111	1418.39
1039.276	1268.89
1039.44	1002.65
1039.605	1416.34
1039.769	1248.41
1039.933	1356.95
1040.098	1055.9
1040.262	1262.74
1040.426	1379.48
1040.591	1541.27
1040.755	961.69
1040.919	1031.32
1041.083	1320.09
1041.248	1363.09
1041.412	769.18
1041.576	928.92
1041.74	1309.85
1041.904	1473.68
1042.068	887.97
1042.232	973.98
1042.397	1610.9
1042.561	1342.61
1042.725	750.75
1042.889	965.79
1043.053	1350.81
1043.217	1313.94
1043.381	980.12
1043.544	679.07
1043.708	1457.3
1043.872	965.79
1044.036	668.83
1044.2	693.41
1044.364	1350.81
1044.528	1524.88
1044.691	2122.89
1044.855	656.54
1045.019	1402.01
1045.183	1291.41
1045.346	818.33
1045.51	769.18
1045.674	1254.55
1045.837	1344.66
1046.001	840.86
1046.165	724.13
1046.328	1621.14
1046.492	1281.18
1046.655	881.82
1046.819	771.23
1046.983	1016.99
1047.146	1203.35
1047.31	711.84
1047.473	548
1047.636	1096.86
1047.8	998.56
1047.963	769.18
1048.127	717.98
1048.29	986.27
