Data from Hydrogel_Ink_Intensity_Test_1_USB4F045381__60__00060.txt Node

Date: Mon Jul 31 10:52:19 EDT 2023
User: mmckonesweet
Spectrometer: USB4F04538
Trigger mode: 4
Integration Time (sec): 9.000000E-1
Scans to average: 1
Electric dark correction enabled: true
Nonlinearity correction enabled: false
Boxcar width: 0
XAxis mode: Wavelengths
Number of Pixels in Spectrum: 3648
>>>>>Begin Spectral Data<<<<<
345.52	-1048.9
345.736	-1048.9
345.952	-1048.9
346.168	-1030.47
346.384	-952.65
346.6	-78.16
346.816	-256.34
347.032	-254.29
347.248	233.13
347.464	-278.87
347.68	-149.84
347.896	169.64
348.112	423.59
348.328	-69.97
348.544	-76.12
348.76	59.05
348.975	278.18
349.191	-244.05
349.407	-194.9
349.623	-6.49
349.839	-55.64
350.055	-123.22
350.27	44.71
350.486	186.02
350.702	401.06
350.918	265.89
351.133	-147.8
351.349	208.55
351.565	425.64
351.781	-260.43
351.996	59.05
352.212	259.75
352.428	-121.17
352.644	-235.86
352.859	-272.72
353.075	243.37
353.291	-35.16
353.506	-76.12
353.722	-219.47
353.938	-22.87
354.153	546.47
354.369	38.57
354.584	-147.8
354.8	253.61
355.016	-289.1
355.231	-350.54
355.447	-49.49
355.662	77.48
355.878	822.94
356.093	-317.78
356.309	-51.54
356.524	-268.63
356.74	237.22
356.955	-182.61
357.171	-29.01
357.386	122.54
357.602	-207.19
357.817	18.09
358.033	-237.91
358.248	317.09
358.464	265.89
358.679	-153.94
358.895	-354.64
359.11	-18.77
359.325	304.81
359.541	368.29
359.756	-43.35
359.972	-342.35
360.187	175.78
360.402	-198.99
360.618	-100.69
360.833	925.34
361.048	171.69
361.264	-108.88
361.479	-59.73
361.694	-18.77
361.909	218.79
362.125	-153.94
362.34	-121.17
362.555	284.33
362.77	140.97
362.986	-256.34
363.201	-162.13
363.416	226.98
363.631	-20.82
363.847	-149.84
364.062	-196.95
364.277	192.17
364.492	114.34
364.707	-69.97
364.922	-354.64
365.138	243.37
365.353	372.39
365.568	-258.39
365.783	-141.65
365.998	38.57
366.213	513.7
366.428	-231.76
366.643	83.63
366.858	306.85
367.073	245.41
367.288	-18.77
367.503	-201.04
367.718	79.53
367.933	358.05
368.148	-184.66
368.363	-10.58
368.578	38.57
368.793	485.03
369.008	-94.55
369.223	-149.84
369.438	253.61
369.653	401.06
369.868	-231.76
370.083	-338.26
370.298	151.21
370.513	390.82
370.728	46.76
370.943	-174.42
371.157	-178.51
371.372	552.61
371.587	-293.2
371.802	-209.23
372.017	175.78
372.232	407.2
372.446	-39.25
372.661	-170.32
372.876	265.89
373.091	229.03
373.306	-65.88
373.52	-184.66
373.735	-190.8
373.95	454.31
374.165	-125.27
374.379	-149.84
374.594	-104.79
374.809	169.64
375.023	32.43
375.238	-233.81
375.453	315.05
375.667	-285.01
375.882	-158.03
376.097	-135.51
376.311	122.54
376.526	26.28
376.741	-153.94
376.955	124.58
377.17	587.43
377.384	538.27
377.599	-117.08
377.813	-254.29
378.028	601.76
378.242	229.03
378.457	-84.31
378.672	-323.92
378.886	108.2
379.101	22.19
379.315	-307.54
379.53	-106.84
379.744	315.05
379.958	243.37
380.173	-141.65
380.387	-155.99
380.602	253.61
380.816	-174.42
381.031	-94.55
381.245	-26.96
381.459	325.29
381.674	2858.62
381.888	-96.6
382.103	163.5
382.317	-133.46
382.531	589.47
382.746	-55.64
382.96	-137.56
383.174	26.28
383.388	513.7
383.603	83.63
383.817	-242
384.031	267.94
384.246	546.47
384.46	16.04
384.674	310.95
384.888	124.58
385.103	161.45
385.317	-237.91
385.531	-45.4
385.745	476.84
385.959	392.87
386.174	-174.42
386.388	-170.32
386.602	130.73
386.816	-86.36
387.03	-53.59
387.244	-10.58
387.458	136.87
387.672	425.64
387.887	-254.29
388.101	-239.95
388.315	427.68
388.529	278.18
388.743	-84.31
388.957	-117.08
389.171	421.54
389.385	-45.4
389.599	-65.88
389.813	161.45
390.027	192.17
390.241	689.82
390.455	3.75
390.669	1.71
390.883	26.28
391.097	591.52
391.311	136.87
391.525	-61.78
391.738	411.3
391.952	325.29
392.166	-24.92
392.38	-141.65
392.594	417.44
392.808	372.39
393.022	-35.16
393.236	-35.16
393.449	415.4
393.663	257.7
393.877	-164.18
394.091	71.34
394.305	69.29
394.518	38.57
394.732	-104.79
394.946	1.71
395.16	538.27
395.373	145.06
395.587	-92.5
395.801	-98.64
396.015	401.06
396.228	329.38
396.442	-139.6
396.656	-237.91
396.869	493.22
397.083	587.43
397.297	42.67
397.51	30.38
397.724	417.44
397.938	315.05
398.151	-194.9
398.365	-248.15
398.578	411.3
398.792	456.36
399.005	122.54
399.219	13.99
399.433	206.5
399.646	386.72
399.86	200.36
400.073	165.54
400.287	366.25
400.5	169.64
400.714	122.54
400.927	48.81
401.141	382.63
401.354	1349.27
401.567	347.81
401.781	-74.07
401.994	437.92
402.208	849.57
402.421	110.25
402.635	54.95
402.848	89.77
403.061	538.27
403.275	93.87
403.488	-47.44
403.701	714.4
403.915	448.16
404.128	259.75
404.341	1.71
404.555	409.25
404.768	157.35
404.981	194.22
405.195	-33.11
405.408	655.01
405.621	431.78
405.834	149.16
406.048	59.05
406.261	542.37
406.474	767.65
406.687	13.99
406.9	214.7
407.114	296.61
407.327	396.96
407.54	-151.89
407.753	-39.25
407.966	106.15
408.179	491.17
408.392	-4.44
408.605	-110.93
408.819	421.54
409.032	421.54
409.245	22.19
409.458	257.7
409.671	399.01
409.884	640.67
410.097	-125.27
410.31	200.36
410.523	446.12
410.736	175.78
410.949	120.49
411.162	100.01
411.375	708.26
411.588	525.99
411.801	280.23
412.014	63.15
412.227	216.74
412.44	155.3
412.653	91.82
412.865	218.79
413.078	554.66
413.291	409.25
413.504	251.56
413.717	22.19
413.93	458.4
414.143	87.72
414.356	149.16
414.568	5.8
414.781	499.36
414.994	399.01
415.207	222.89
415.42	140.97
415.632	525.99
415.845	781.98
416.058	-51.54
416.271	1.71
416.483	458.4
416.696	790.17
416.909	71.34
417.121	173.74
417.334	534.18
417.547	806.56
417.759	79.53
417.972	54.95
418.185	278.18
418.397	605.86
418.61	159.4
418.823	132.78
419.035	728.74
419.248	423.59
419.46	261.8
419.673	208.55
419.885	482.98
420.098	358.05
420.311	181.93
420.523	-33.11
420.736	511.65
420.948	417.44
421.161	286.37
421.373	9.9
421.586	470.69
421.798	237.22
422.01	32.43
422.223	370.34
422.435	286.37
422.648	683.68
422.86	196.26
423.073	216.74
423.285	691.87
423.497	140.97
423.71	214.7
423.922	204.46
424.134	632.48
424.347	761.5
424.559	470.69
424.771	601.76
424.984	394.92
425.196	628.39
425.408	69.29
425.621	136.87
425.833	788.13
426.045	759.46
426.257	16.04
426.47	206.5
426.682	525.99
426.894	581.28
427.106	247.46
427.318	292.52
427.531	278.18
427.743	669.34
427.955	364.2
428.167	718.5
428.379	685.73
428.591	448.16
428.804	480.93
429.016	206.5
429.228	378.53
429.44	620.19
429.652	435.88
429.864	63.15
430.076	442.02
430.288	476.84
430.5	423.59
430.712	448.16
430.924	759.46
431.136	593.57
431.348	231.08
431.56	257.7
431.772	546.47
431.984	392.87
432.196	245.41
432.408	358.05
432.62	534.18
432.832	718.5
433.044	595.62
433.256	480.93
433.468	693.92
433.679	245.41
433.891	245.41
434.103	663.2
434.315	972.44
434.527	800.41
434.739	489.12
434.95	532.13
435.162	829.09
435.374	515.75
435.586	413.35
435.798	347.81
436.009	358.05
436.221	663.2
436.433	489.12
436.645	435.88
436.856	462.5
437.068	951.96
437.28	331.43
437.491	777.89
437.703	968.35
437.915	808.61
438.126	396.96
438.338	669.34
438.55	644.77
438.761	861.85
438.973	462.5
439.184	427.68
439.396	788.13
439.608	884.38
439.819	405.16
440.031	644.77
440.242	937.63
440.454	833.18
440.665	558.75
440.877	546.47
441.088	794.27
441.3	693.92
441.511	317.09
441.723	489.12
441.934	640.67
442.146	796.32
442.357	687.78
442.569	771.74
442.78	671.39
442.991	1257.11
443.203	900.76
443.414	521.89
443.626	1136.28
443.837	566.95
444.048	472.74
444.26	425.64
444.471	861.85
444.682	1035.93
444.894	392.87
445.105	353.96
445.316	1109.66
445.528	951.96
445.739	671.39
445.95	589.47
446.161	845.47
446.373	1121.95
446.584	667.3
446.795	546.47
447.006	1123.99
447.217	1269.4
447.429	517.79
447.64	517.79
447.851	1222.3
448.062	990.88
448.273	399.01
448.484	521.89
448.695	999.07
448.907	769.69
449.118	841.37
449.329	865.95
449.54	784.03
449.751	663.2
449.962	587.43
450.173	691.87
450.384	1187.48
450.595	1189.53
450.806	751.26
451.017	663.2
451.228	1193.62
451.439	1130.14
451.65	777.89
451.861	603.81
452.072	712.35
452.283	908.96
452.494	984.73
452.705	644.77
452.915	1347.22
453.126	1013.4
453.337	872.09
453.548	743.07
453.759	1226.39
453.97	1535.64
454.181	966.3
454.391	884.38
454.602	1093.27
454.813	1283.74
455.024	837.28
455.235	851.61
455.445	1152.67
455.656	1212.06
455.867	980.64
456.078	798.37
456.288	997.02
456.499	1420.95
456.71	790.17
456.921	1072.79
457.131	1283.74
457.342	1113.75
457.553	1044.12
457.763	886.43
457.974	1316.5
458.184	1390.23
458.395	837.28
458.606	734.88
458.816	1480.34
459.027	1668.75
459.237	1054.36
459.448	882.33
459.659	1525.4
459.869	1726.1
460.08	827.04
460.29	1189.53
460.501	1779.34
460.711	1185.43
460.922	939.68
461.132	1027.74
461.343	1986.19
461.553	1029.79
461.764	941.72
461.974	1078.94
462.184	1531.54
462.395	1588.88
462.605	1214.1
462.816	1066.65
463.026	1336.98
463.236	1603.22
463.447	1072.79
463.657	1189.53
463.867	1678.99
464.078	1390.23
464.288	1293.97
464.498	1175.19
464.709	1506.96
464.919	1572.5
465.129	1302.17
465.339	1240.73
465.55	1676.95
465.76	1644.18
465.97	1263.26
466.18	1261.21
466.391	1795.73
466.601	1709.71
466.811	1406.61
467.021	1308.31
467.231	1836.69
467.441	1900.17
467.651	1519.25
467.862	1126.04
468.072	1707.66
468.282	2102.92
468.492	1484.44
468.702	1617.55
468.912	1836.69
469.122	2430.6
469.332	1986.19
469.542	1498.77
469.752	2193.03
469.962	1967.76
470.172	1509.01
470.382	1640.08
470.592	2174.6
470.802	2227.85
471.012	1816.21
471.222	1687.18
471.432	2186.89
471.642	2094.73
471.852	2000.52
472.062	1701.52
472.272	2029.2
472.482	1836.69
472.691	1894.03
472.901	1736.34
473.111	2193.03
473.321	2836.1
473.531	1932.94
473.741	2088.59
473.95	2358.92
474.16	2514.56
474.37	2107.02
474.58	1916.56
474.79	2944.64
474.999	2645.63
475.209	1957.52
475.419	2168.46
475.628	2496.13
475.838	2850.43
476.048	2340.49
476.258	2141.83
476.467	2889.34
476.677	2487.94
476.886	2438.79
477.096	2451.08
477.306	2596.48
477.515	2979.45
477.725	2635.39
477.935	2520.71
478.144	3028.6
478.354	2719.36
478.563	2600.58
478.773	2578.05
478.982	3057.28
479.192	3313.27
479.401	2729.6
479.611	2647.68
479.82	2893.44
480.03	3061.37
480.239	2780.8
480.449	2715.27
480.658	3475.06
480.868	3044.99
481.077	2930.3
481.287	2819.71
481.496	3341.94
481.705	3577.46
481.915	3382.9
482.124	3307.13
482.333	3407.48
482.543	3632.76
482.752	3317.37
482.961	3012.22
483.171	3563.12
483.38	3331.7
483.589	3280.5
483.799	2995.84
484.008	3487.35
484.217	3786.35
484.426	3393.14
484.636	3313.27
484.845	3638.9
485.054	3360.38
485.263	3729.01
485.472	3628.66
485.682	4195.95
485.891	3853.94
486.1	3356.28
486.309	3653.23
486.518	4132.46
486.727	4040.3
486.936	3655.28
487.146	3683.95
487.355	4228.71
487.564	3671.67
487.773	3753.59
487.982	3769.97
488.191	4028.01
488.4	4064.88
488.609	3868.27
488.818	3839.6
489.027	4873.82
489.236	4550.25
489.445	4015.73
489.654	3868.27
489.863	4685.41
490.072	4445.8
490.281	4523.62
490.49	4200.04
490.698	4752.99
490.907	4750.95
491.116	4245.1
491.325	4179.56
491.534	4865.63
491.743	4486.76
491.952	4206.19
492.16	4527.72
492.369	4759.14
492.578	4927.07
492.787	4580.96
492.996	4347.5
493.204	4421.22
493.413	5314.14
493.622	4318.82
493.831	4374.12
494.039	5205.6
494.248	4636.26
494.457	4642.4
494.665	4449.89
494.874	4953.7
495.083	5402.2
495.291	4748.9
495.5	4879.97
495.709	5090.91
495.917	5045.85
496.126	4789.86
496.335	4855.39
496.543	4916.83
496.752	5086.81
496.96	5037.66
497.169	4773.47
497.377	5189.21
497.586	5733.97
497.794	5113.44
498.003	4879.97
498.211	5277.27
498.42	5719.64
498.628	5076.57
498.837	5054.05
499.045	5430.87
499.254	5580.37
499.462	4970.08
499.671	5187.16
499.879	6030.93
500.087	5684.82
500.296	4970.08
500.504	5232.22
500.713	5609.05
500.921	6174.28
501.129	5314.14
501.338	5394.01
501.546	5785.17
501.754	5604.95
501.962	5463.64
502.171	5213.79
502.379	5957.2
502.587	6159.95
502.795	5422.68
503.004	5283.42
503.212	5670.48
503.42	5985.87
503.628	5695.06
503.837	5846.61
504.045	6131.28
504.253	6301.26
504.461	5684.82
504.669	5391.96
504.877	6225.48
505.085	6626.89
505.294	5426.78
505.502	6004.3
505.71	6166.09
505.918	6141.52
506.126	5840.47
506.334	5797.46
506.542	6106.7
506.75	6190.67
506.958	5967.44
507.166	5928.53
507.374	6047.31
507.582	6483.53
507.79	6252.11
507.998	5906
508.206	6501.96
508.414	6428.23
508.622	6190.67
508.83	6137.42
509.037	6704.71
509.245	6139.47
509.453	6084.17
509.661	5987.92
509.869	6549.06
510.077	6291.02
510.285	6358.6
510.492	5774.93
510.7	7165.5
510.908	6428.23
511.116	6178.38
511.324	6176.33
511.531	6596.17
511.739	6680.13
511.947	6350.41
512.155	6780.48
512.362	6696.52
512.57	6350.41
512.778	6211.15
512.985	6252.11
513.193	6852.16
513.401	7048.77
513.608	6661.7
513.816	6538.82
514.024	6825.54
514.231	6938.18
514.439	6319.69
514.646	6473.29
514.854	7042.62
515.061	6913.6
515.269	6772.29
515.477	6495.82
515.684	6659.65
515.892	7360.06
516.099	6516.3
516.307	6473.29
516.514	7161.41
516.722	7360.06
516.929	6882.88
517.136	6458.95
517.344	7378.49
517.551	7009.86
517.759	6772.29
517.966	6698.56
518.173	7085.63
518.381	7145.02
518.588	6858.31
518.796	6686.28
519.003	7476.79
519.21	7226.94
519.418	6979.14
519.625	7261.76
519.832	7374.39
520.039	7437.88
520.247	6778.44
520.454	6962.75
520.661	7550.52
520.868	7517.75
521.076	7181.89
521.283	7190.08
521.49	8154.67
521.697	7513.66
521.904	7190.08
522.112	7198.27
522.319	7740.98
522.526	7534.14
522.733	7095.87
522.94	7163.45
523.147	7398.97
523.354	7837.24
523.561	7081.53
523.768	7312.96
523.975	7792.18
524.183	7609.91
524.39	7355.96
524.597	7155.26
524.804	7761.46
525.011	7554.62
525.218	7351.87
525.425	7421.5
525.632	8150.57
525.838	7652.92
526.045	7517.75
526.252	7595.57
526.459	9100.83
526.666	8734.25
526.873	7568.95
527.08	7507.51
527.287	8300.08
527.494	7902.77
527.701	7589.43
527.907	7550.52
528.114	8132.14
528.321	8093.23
528.528	7800.37
528.735	7700.02
528.941	7941.68
529.148	7947.83
529.355	8021.55
529.562	7822.9
529.768	8373.8
529.975	8195.63
530.182	7853.62
530.388	7800.37
530.595	8525.35
530.802	8054.32
531.008	8093.23
531.215	8062.51
531.422	9205.28
531.628	9164.32
531.835	8232.49
532.042	8121.9
532.248	8486.44
532.455	8379.95
532.661	8250.92
532.868	8121.9
533.074	8482.35
533.281	8717.86
533.487	8408.62
533.694	8136.24
533.9	8408.62
534.107	8646.18
534.313	8193.58
534.52	7982.64
534.726	8650.28
534.933	9158.17
535.139	8183.34
535.345	8136.24
535.552	8750.63
535.758	8783.4
535.965	8666.66
536.171	8355.37
536.377	9049.63
536.584	9035.3
536.79	8498.73
536.996	8672.81
537.203	8875.56
537.409	8926.75
537.615	8537.64
537.821	8713.77
538.028	9254.43
538.234	9127.46
538.44	8818.21
538.646	8803.88
538.853	9287.2
539.059	8807.97
539.265	9262.62
539.471	8566.31
539.677	9371.16
539.883	8961.57
540.09	8939.04
540.296	9379.36
540.502	9264.67
540.708	9125.41
540.914	9014.82
541.12	8898.08
541.326	9438.75
541.532	9217.57
541.738	9123.36
541.944	9213.47
542.15	9571.86
542.356	9332.25
542.562	9012.77
542.768	9127.46
542.974	9952.79
543.18	10077.71
543.386	9348.64
543.592	9004.58
543.798	9948.69
544.004	9856.53
544.21	9192.99
544.415	9420.31
544.621	9696.79
544.827	10081.81
545.033	9319.96
545.239	9745.94
545.445	9535
545.651	9729.56
545.856	9502.23
546.062	9516.57
546.268	9719.32
546.474	9682.45
546.679	9491.99
546.885	9627.16
547.091	9571.86
547.297	10382.86
547.502	9614.87
547.708	9504.28
547.914	9688.6
548.119	10073.62
548.325	9371.16
548.531	9152.03
548.736	10302.99
548.942	9698.84
549.147	9397.79
549.353	10014.23
549.559	10186.26
549.764	10130.96
549.97	9565.72
550.175	9647.64
550.381	10110.48
550.586	9795.09
550.792	9709.08
550.997	9551.38
551.203	10122.77
551.408	10438.16
551.614	9651.74
551.819	9979.41
552.025	10583.56
552.23	10720.78
552.435	9823.76
552.641	10229.26
552.846	10147.34
553.052	10489.35
553.257	10112.53
553.462	10026.51
553.668	10151.44
553.873	10677.77
554.078	10003.99
554.283	10137.1
554.489	10380.81
554.694	10409.48
554.899	10194.45
555.105	10438.16
555.31	10511.88
555.515	10798.6
555.72	10288.65
555.925	10288.65
556.131	10712.58
556.336	10386.96
556.541	10042.9
556.746	10259.98
556.951	10970.63
557.156	10970.63
557.361	10493.45
557.567	10495.5
557.772	11216.38
557.977	10771.97
558.182	10280.46
558.387	10608.14
558.592	10614.28
558.797	10958.34
559.002	10411.53
559.207	10409.48
559.412	10884.61
559.617	11134.46
559.822	10630.66
560.027	10522.12
560.232	10909.19
560.437	11001.35
560.642	10372.62
560.847	10499.59
561.051	10788.36
561.256	10950.15
561.461	10817.03
561.666	10630.66
561.871	10851.85
562.076	11142.66
562.281	10577.42
562.485	10477.07
562.69	11003.39
562.895	11257.34
563.1	10671.62
563.305	10677.77
563.509	11263.49
563.714	11353.6
563.919	10724.87
564.123	11083.27
564.328	10976.77
564.533	11380.22
564.737	10821.13
564.942	10710.54
565.147	11585.02
565.351	11757.05
565.556	11101.7
565.761	11177.47
565.965	11367.93
566.17	11027.97
566.374	10952.2
566.579	11124.22
566.784	11443.71
566.988	11423.23
567.193	10767.88
567.397	10769.93
567.602	11048.45
567.806	11279.87
568.011	11077.12
568.215	11154.94
568.42	11439.61
568.624	11312.64
568.828	11073.03
569.033	11294.21
569.237	11666.94
569.442	11879.93
569.646	11068.93
569.85	11195.9
570.055	11513.34
570.259	11525.63
570.463	11517.43
570.668	11294.21
570.872	11519.48
571.076	11621.88
571.281	11529.72
571.485	11505.15
571.689	11628.03
571.893	11689.46
572.098	11380.22
572.302	11304.45
572.506	11967.99
572.71	11613.69
572.914	11429.37
573.119	11439.61
573.323	12080.63
573.527	12113.39
573.731	11468.28
573.935	11433.47
574.139	11998.71
574.343	11562.49
574.547	11488.76
574.751	11523.58
574.955	12092.91
575.159	12148.21
575.364	11779.57
575.568	11429.37
575.772	11707.9
575.976	12410.35
576.18	11666.94
576.383	11576.83
576.587	12322.29
576.791	12074.48
576.995	11734.52
577.199	11773.43
577.403	12051.95
577.607	12328.43
577.811	11675.13
578.015	11976.18
578.219	12332.53
578.422	12080.63
578.626	11867.64
578.83	11871.73
579.034	12232.18
579.238	12324.33
579.442	11959.8
579.645	12336.62
579.849	12426.73
580.053	12434.92
580.257	11859.45
580.46	11830.77
580.664	12774.89
580.868	12477.93
581.071	12289.52
581.275	12213.74
581.479	12223.98
581.682	12451.31
581.886	12045.81
582.09	12097.01
582.293	12592.62
582.497	12627.43
582.7	12406.25
582.904	12226.03
583.107	12617.19
583.311	12424.69
583.515	12465.64
583.718	12250.61
583.922	12482.03
584.125	12959.2
584.329	11916.79
584.532	12508.65
584.735	13071.84
584.939	12701.16
585.142	12187.12
585.346	12195.31
585.549	12609
585.753	12670.44
585.956	12064.24
586.159	12475.88
586.363	13340.13
586.566	12981.73
586.769	12340.72
586.973	12443.12
587.176	12985.83
587.379	13006.31
587.582	12977.64
587.786	12690.92
587.989	13004.26
588.192	13497.82
588.395	12287.47
588.599	13069.8
588.802	12969.44
589.005	13153.76
589.208	12652.01
589.411	12627.43
589.615	13200.87
589.818	13653.47
590.021	12975.59
590.224	13024.74
590.427	13204.96
590.63	13118.95
590.833	12752.36
591.036	12856.81
591.239	13225.44
591.442	13080.04
591.645	12975.59
591.848	12979.68
592.051	13366.75
592.254	13444.57
592.457	12977.64
592.66	13170.15
592.863	13366.75
593.066	13434.33
593.269	13020.64
593.472	13231.58
593.675	12989.92
593.878	13528.54
594.081	13510.11
594.284	13186.53
594.486	13680.09
594.689	13469.15
594.892	13229.54
595.095	13385.18
595.298	13698.52
595.5	13397.47
595.703	13522.4
595.906	13448.67
596.109	14063.06
596.311	13827.54
596.514	12629.48
596.717	13368.8
596.92	13903.32
597.122	13843.93
597.325	13032.93
597.528	13381.09
597.73	14323.15
597.933	13592.03
598.136	13104.61
598.338	13198.82
598.541	13948.37
598.743	14093.78
598.946	13614.55
599.148	13252.06
599.351	14024.15
599.554	13993.43
599.756	13493.72
599.959	13825.5
600.161	14239.19
600.363	14235.09
600.566	13897.17
600.768	13663.71
600.971	14247.38
601.173	14011.86
601.376	13452.77
601.578	13651.42
601.78	14183.89
601.983	14452.17
602.185	13610.46
602.388	13862.36
602.59	14278.1
602.792	13989.33
602.995	14026.2
603.197	13610.46
603.399	14413.26
603.601	14089.68
603.804	13739.48
604.006	13686.23
604.208	13983.19
604.41	13551.07
604.613	14042.58
604.815	13622.75
605.017	14691.79
605.219	14038.48
605.421	14032.34
605.623	13911.51
605.826	14573
606.028	14771.66
606.23	13903.32
606.432	13811.16
606.634	14554.57
606.836	14648.78
607.038	13942.23
607.24	14005.72
607.442	14392.78
607.644	14081.49
607.846	14101.97
608.048	14077.4
608.25	14413.26
608.452	14114.26
608.654	13977.05
608.856	13807.06
609.058	14458.32
609.26	14544.33
609.462	14101.97
609.664	14132.69
609.866	14796.23
610.067	14570.96
610.269	14427.6
610.471	13866.46
610.673	14235.09
610.875	14560.72
611.077	14058.96
611.278	14349.78
611.48	14347.73
611.682	14857.67
611.884	14382.54
612.085	14368.21
612.287	14179.79
612.489	14507.47
612.69	14112.21
612.892	14429.65
613.094	14843.34
613.295	14304.72
613.497	14024.15
613.699	14134.74
613.9	14915.02
614.102	14763.47
614.304	14310.86
614.505	13956.57
614.707	14443.98
614.908	14271.95
615.11	13862.36
615.311	14325.2
615.513	14575.05
615.714	14603.72
615.916	14335.44
616.117	14095.83
616.319	14573
616.52	14747.08
616.722	14235.09
616.923	14159.31
617.124	14818.76
617.326	14751.18
617.527	14390.74
617.729	14613.96
617.93	14597.58
618.131	14767.56
618.333	13911.51
618.534	14368.21
618.735	14581.2
618.937	14816.71
619.138	14206.42
619.339	14220.75
619.54	14755.27
619.742	14390.74
619.943	14235.09
620.144	14415.31
620.345	14960.07
620.546	14958.02
620.748	14269.9
620.949	14280.14
621.15	14710.22
621.351	14644.68
621.552	14206.42
621.753	14169.55
621.954	14296.53
622.155	15128
622.356	14310.86
622.558	14443.98
622.759	14763.47
622.96	14951.88
623.161	14349.78
623.362	14800.33
623.563	14630.35
623.764	14712.27
623.965	14419.41
624.166	14661.07
624.366	14274
624.567	14824.9
624.768	14054.87
624.969	14337.49
625.17	14577.1
625.371	15035.85
625.572	14284.24
625.773	14566.86
625.973	14976.45
626.174	14984.65
626.375	14736.84
626.576	14706.12
626.777	15168.96
626.977	15177.16
627.178	14736.84
627.379	14765.51
627.58	14824.9
627.78	14812.62
627.981	14753.23
628.182	14808.52
628.382	14970.31
628.583	14476.75
628.784	14187.99
628.984	14728.65
629.185	15039.94
629.386	15005.13
629.586	14794.18
629.787	14448.08
629.987	15365.57
630.188	15211.97
630.388	14736.84
630.589	14720.46
630.79	15482.3
630.99	14775.75
631.191	14890.44
631.391	14802.38
631.591	15064.52
631.792	15234.5
631.992	14865.86
632.193	14783.95
632.393	15291.84
632.594	15027.65
632.794	14773.71
632.994	14998.98
633.195	14968.26
633.395	15099.33
633.595	14652.88
633.796	14861.77
633.996	14927.3
634.196	15406.53
634.397	14767.56
634.597	14712.27
634.797	14935.49
634.997	15422.91
635.198	14880.2
635.398	14669.26
635.598	15097.28
635.798	15279.55
635.998	15195.59
636.199	14663.11
636.399	15050.18
636.599	15027.65
636.799	14912.97
636.999	15222.21
637.199	15300.03
637.399	15523.26
637.599	14783.95
637.799	15099.33
637.999	15171.01
638.199	15654.33
638.399	14730.7
638.599	14945.73
638.799	15416.77
638.999	15742.39
639.199	15343.04
639.399	15164.87
639.599	15599.04
639.799	14945.73
639.999	14904.78
640.199	14947.78
640.399	15156.68
640.599	15242.69
640.799	15082.95
640.998	15467.97
641.198	15535.55
641.398	15513.02
641.598	15095.24
641.798	15304.13
641.997	16438.7
642.197	15324.61
642.397	15107.52
642.597	14941.64
642.796	15390.14
642.996	15846.84
643.196	14945.73
643.395	14968.26
643.595	15418.82
643.795	14953.93
643.994	15128
644.194	15089.09
644.394	15652.28
644.593	15353.28
644.793	15085
644.992	15420.86
645.192	15789.5
645.392	14898.63
645.591	15496.64
645.791	15338.94
645.99	15633.85
646.19	15633.85
646.389	15519.17
646.589	15336.9
646.788	15762.87
646.987	15820.22
647.187	15441.34
647.386	15424.96
647.586	15752.63
647.785	15941.05
647.984	15451.58
648.184	15582.65
648.383	15541.69
648.582	15578.56
648.782	15373.76
648.981	15637.95
649.18	15543.74
649.38	15717.82
649.579	15513.02
649.778	15519.17
649.977	16274.87
650.177	15902.14
650.376	15263.17
650.575	15510.97
650.774	15951.29
650.973	15572.41
651.173	15371.71
651.372	15377.86
651.571	16020.92
651.77	15844.79
651.969	15541.69
652.168	15439.3
652.367	15480.25
652.566	15898.04
652.765	15523.26
652.964	15895.99
653.163	16137.65
653.362	15752.63
653.561	15367.62
653.76	15531.45
653.959	15967.67
654.158	15900.09
654.357	15875.51
654.556	15619.52
654.755	15807.93
654.954	15836.6
655.153	15361.47
655.352	15523.26
655.551	16186.8
655.749	15689.15
655.948	15619.52
656.147	15666.62
656.346	15992.25
656.545	16051.64
656.743	15504.83
656.942	15762.87
657.141	15668.67
657.34	15842.74
657.538	15566.27
657.737	15959.48
657.936	16190.9
658.135	15939
658.333	15656.38
658.532	15969.72
658.731	16291.25
658.929	16240.05
659.128	15994.29
659.326	15689.15
659.525	16338.35
659.724	15754.68
659.922	15439.3
660.121	15750.59
660.319	16094.65
660.518	15822.27
660.716	15584.7
660.915	15707.58
661.113	16375.22
661.312	15504.83
661.51	16207.28
661.709	15799.74
661.907	16182.71
662.105	16350.64
662.304	15726.01
662.502	16022.97
662.701	16446.9
662.899	15990.2
663.097	16022.97
663.296	15631.8
663.494	16324.02
663.692	16442.8
663.891	15652.28
664.089	15502.78
664.287	16004.53
664.485	16266.67
664.684	15685.05
664.882	15910.33
665.08	15879.61
665.278	16123.32
665.476	15603.13
665.675	16092.6
665.873	16512.43
666.071	16225.72
666.269	15826.36
666.467	15760.83
666.665	15799.74
666.863	15584.7
667.061	15848.89
667.259	15664.57
667.457	16059.83
667.655	16274.87
667.853	15365.57
668.051	15906.23
668.249	15914.42
668.447	16113.08
668.645	15734.2
668.843	16012.73
669.041	16217.52
669.239	15766.97
669.437	15709.63
669.635	15924.66
669.833	15803.83
670.031	16096.69
670.229	15562.17
670.426	15967.67
670.624	16074.17
670.822	15805.88
671.02	15762.87
671.218	15875.51
671.415	15805.88
671.613	16141.75
671.811	15883.7
672.009	15746.49
672.206	16213.43
672.404	15936.95
672.602	15961.53
672.799	15650.24
672.997	16092.6
673.195	16215.48
673.392	15709.63
673.59	15408.58
673.788	16108.98
673.985	15173.06
674.183	15777.21
674.38	15701.44
674.578	16168.37
674.775	15574.46
674.973	15285.7
675.17	15631.8
675.368	16188.85
675.565	16235.95
675.763	15664.57
675.96	15502.78
676.158	16184.76
676.355	15760.83
676.553	15769.02
676.75	15527.36
676.947	15904.18
677.145	15934.9
677.342	15750.59
677.539	15785.4
677.737	15812.03
677.934	16102.84
678.131	15775.16
678.329	15685.05
678.526	16068.02
678.723	15795.64
678.92	15697.34
679.118	15476.16
679.315	15769.02
679.512	16317.87
679.709	15799.74
679.906	15785.4
680.104	16119.22
680.301	15805.88
680.498	15392.19
680.695	15406.53
680.892	15470.01
681.089	15875.51
681.286	15775.16
681.483	15285.7
681.68	15820.22
681.877	16139.7
682.075	15644.09
682.272	15678.91
682.469	15619.52
682.665	15775.16
682.862	15332.8
683.059	14998.98
683.256	15683
683.453	15744.44
683.65	15424.96
683.847	15726.01
684.044	15619.52
684.241	15441.34
684.438	15386.05
684.635	15304.13
684.831	16258.48
685.028	15820.22
685.225	15187.39
685.422	15297.99
685.619	15510.97
685.815	15447.49
686.012	15164.87
686.209	15171.01
686.405	15195.59
686.602	15625.66
686.799	15095.24
686.996	15214.02
687.192	14859.72
687.389	15986.1
687.586	15238.59
687.782	15340.99
687.979	15801.79
688.175	15656.38
688.372	14980.55
688.568	15097.28
688.765	14988.74
688.962	15777.21
689.158	15457.73
689.355	14833.1
689.551	15549.89
689.748	15439.3
689.944	15171.01
690.14	15144.39
690.337	15619.52
690.533	15257.03
690.73	15345.09
690.926	15457.73
691.123	15240.64
691.319	15584.7
691.515	14818.76
691.712	15103.43
691.908	15302.08
692.104	15381.95
692.301	15267.27
692.497	14921.16
692.693	15707.58
692.889	15410.62
693.086	15062.47
693.282	14683.59
693.478	15375.81
693.674	15549.89
693.87	15160.77
694.067	14902.73
694.263	15508.93
694.459	15138.24
694.655	15300.03
694.851	15287.75
695.047	15394.24
695.243	15517.12
695.439	15013.32
695.635	14820.81
695.831	15304.13
696.027	14927.3
696.224	14673.35
696.42	15533.5
696.615	15652.28
696.811	15422.91
697.007	15007.17
697.203	15097.28
697.399	15263.17
697.595	15338.94
697.791	14814.66
697.987	14697.93
698.183	15060.42
698.379	14691.79
698.575	14540.24
698.77	14818.76
698.966	15205.83
699.162	15465.92
699.358	14824.9
699.554	14681.55
699.749	15257.03
699.945	15273.41
700.141	14591.44
700.337	14953.93
700.532	14962.12
700.728	14814.66
700.924	14798.28
701.119	14675.4
701.315	15029.7
701.511	14884.3
701.706	14929.35
701.902	14527.95
702.097	15324.61
702.293	15054.28
702.489	14769.61
702.684	15033.8
702.88	15031.75
703.075	14880.2
703.271	14415.31
703.466	14747.08
703.662	14945.73
703.857	14829
704.053	14824.9
704.248	14534.09
704.443	14966.21
704.639	14747.08
704.834	14587.34
705.03	14710.22
705.225	15066.56
705.42	15023.56
705.616	14491.09
705.811	14081.49
706.006	14865.86
706.202	14679.5
706.397	14841.29
706.592	14464.46
706.787	14800.33
706.983	14667.21
707.178	15048.13
707.373	14460.37
707.568	14902.73
707.763	15050.18
707.959	14593.48
708.154	14681.55
708.349	14927.3
708.544	14798.28
708.739	14636.49
708.934	14028.24
709.129	14816.71
709.324	14833.1
709.519	14198.23
709.714	14450.13
709.909	15089.09
710.104	14704.07
710.299	14661.07
710.494	14312.91
710.689	14925.25
710.884	14853.58
711.079	14648.78
711.274	14595.53
711.469	15183.3
711.664	14624.2
711.859	14507.47
712.054	14699.98
712.249	14570.96
712.443	14890.44
712.638	14278.1
712.833	14280.14
713.028	14693.83
713.223	14222.8
713.417	14482.89
713.612	14409.17
713.807	14843.34
714.002	15074.76
714.196	14583.24
714.391	14550.48
714.586	15035.85
714.78	14562.76
714.975	14364.11
715.17	13993.43
715.364	14482.89
715.559	15003.08
715.754	13782.49
715.948	14204.37
716.143	15015.37
716.337	14364.11
716.532	14519.76
716.726	14192.08
716.921	14480.85
717.115	15078.85
717.31	14101.97
717.504	14906.82
717.699	14271.95
717.893	14558.67
718.088	14046.68
718.282	13860.31
718.476	14274
718.671	14523.85
718.865	14222.8
719.059	14093.78
719.254	14317.01
719.448	14630.35
719.642	15283.65
719.837	13874.65
720.031	14521.81
720.225	14269.9
720.419	14138.83
720.614	13653.47
720.808	14230.99
721.002	14159.31
721.196	13786.58
721.39	13934.04
721.585	14382.54
721.779	13968.85
721.973	13759.96
722.167	13864.41
722.361	14128.6
722.555	14495.18
722.749	13921.75
722.943	14015.96
723.137	13903.32
723.331	14566.86
723.525	14042.58
723.719	13845.98
723.913	14302.67
724.107	14413.26
724.301	13913.56
724.495	13903.32
724.689	14583.24
724.883	14460.37
725.077	13862.36
725.271	13843.93
725.465	14593.48
725.659	13993.43
725.853	13774.3
726.046	13383.13
726.24	13762.01
726.434	13925.85
726.628	13776.34
726.822	13604.32
727.015	14173.65
727.209	14253.52
727.403	13436.38
727.596	13530.59
727.79	14239.19
727.984	14167.51
728.177	13954.52
728.371	13856.22
728.565	14370.26
728.758	13727.19
728.952	13747.67
729.146	13714.91
729.339	14517.71
729.533	13975
729.726	13866.46
729.92	13614.55
730.113	14208.47
730.307	13829.59
730.5	13661.66
730.694	13712.86
730.887	13954.52
731.081	13950.42
731.274	13669.85
731.468	13796.82
731.661	14015.96
731.854	13934.04
732.048	13735.39
732.241	13782.49
732.435	13739.48
732.628	14015.96
732.821	13747.67
733.014	13899.22
733.208	13757.91
733.401	14220.75
733.594	13837.78
733.788	13649.37
733.981	14228.95
734.174	13850.07
734.367	13759.96
734.56	13755.86
734.754	14026.2
734.947	13942.23
735.14	13630.94
735.333	13776.34
735.526	14292.43
735.719	13786.58
735.912	13540.83
736.105	13540.83
736.298	14013.91
736.491	13637.08
736.684	13577.69
736.877	13503.96
737.07	13960.66
737.263	14153.17
737.456	13604.32
737.649	13641.18
737.842	13592.03
738.035	13766.1
738.228	13557.21
738.421	13811.16
738.614	13958.61
738.807	14106.07
739	13270.5
739.192	13385.18
739.385	14030.29
739.578	13921.75
739.771	13764.06
739.964	13391.33
740.156	13936.09
740.349	13565.4
740.542	13671.9
740.735	13254.11
740.927	13397.47
741.12	13592.03
741.313	13350.37
741.505	13432.29
741.698	13958.61
741.891	14157.27
742.083	13678.04
742.276	13405.66
742.468	13714.91
742.661	13485.53
742.854	13405.66
743.046	13284.83
743.239	14075.35
743.431	13794.78
743.624	13264.35
743.816	13211.11
744.009	13673.95
744.201	13569.5
744.393	13424.09
744.586	13008.36
744.778	13913.56
744.971	13473.25
745.163	13237.73
745.355	13256.16
745.548	13753.82
745.74	13602.27
745.932	13594.08
746.125	13387.23
746.317	14106.07
746.509	13770.2
746.702	13293.02
746.894	13178.34
747.086	13606.36
747.278	13764.06
747.471	13403.61
747.663	13366.75
747.855	13735.39
748.047	13915.61
748.239	13219.3
748.431	13129.19
748.623	13852.12
748.815	13710.81
749.008	13045.22
749.2	13008.36
749.392	13641.18
749.584	13475.29
749.776	13317.6
749.968	13387.23
750.16	13911.51
750.352	13491.68
750.544	13231.58
750.736	13211.11
750.928	13604.32
751.12	13630.94
751.311	12961.25
751.503	13182.43
751.695	13612.51
751.887	13315.55
752.079	12897.77
752.271	13256.16
752.463	14190.03
752.654	13534.68
752.846	12936.68
753.038	13166.05
753.23	13116.9
753.421	13577.69
753.613	12854.76
753.805	13473.25
753.997	13682.14
754.188	13610.46
754.38	12989.92
754.572	12885.48
754.763	13266.4
754.955	13327.84
755.146	12996.07
755.338	13110.75
755.53	13168.1
755.721	13235.68
755.913	12875.24
756.104	12701.16
756.296	12846.57
756.487	13282.78
756.679	12893.67
756.87	12654.06
757.062	12885.48
757.253	13202.91
757.445	12778.98
757.636	13077.99
757.827	13020.64
758.019	13809.11
758.21	12686.83
758.401	12965.35
758.593	13530.59
758.784	13227.49
758.975	12598.76
759.167	12588.52
759.358	12953.06
759.549	13143.52
759.74	12365.29
759.932	12692.97
760.123	13256.16
760.314	12862.95
760.505	12578.28
760.696	12697.06
760.888	13417.95
761.079	12592.62
761.27	12690.92
761.461	12289.52
761.652	12942.82
761.843	12340.72
762.034	12479.98
762.225	12420.59
762.416	12525.04
762.607	12750.31
762.798	12432.88
762.989	12129.78
763.18	13366.75
763.371	12422.64
763.562	12258.8
763.753	12248.56
763.944	12717.54
764.135	12961.25
764.326	12357.1
764.517	12277.23
764.708	12496.36
764.899	12613.1
765.089	12199.41
765.28	11943.41
765.471	12447.21
765.662	12678.63
765.853	12516.84
766.043	11978.23
766.234	12938.73
766.425	12611.05
766.615	12117.49
766.806	11941.36
766.997	12645.87
767.187	12578.28
767.378	12176.88
767.569	11873.78
767.759	12416.49
767.95	12479.98
768.141	12295.66
768.331	12031.48
768.522	12242.42
768.712	12297.71
768.903	12113.39
769.093	12123.63
769.284	12459.5
769.474	12303.85
769.665	11828.73
769.855	11617.79
770.046	12301.81
770.236	11814.39
770.426	11949.56
770.617	11728.38
770.807	12293.62
770.998	12178.93
771.188	12013.04
771.378	11763.19
771.569	12060.15
771.759	11992.56
771.949	11695.61
772.139	11683.32
772.33	11916.79
772.52	12514.8
772.71	11691.51
772.9	11585.02
773.09	12275.18
773.281	12320.24
773.471	11574.78
773.661	11746.81
773.851	12082.67
774.041	11531.77
774.231	11517.43
774.421	11654.65
774.611	12047.86
774.802	11841.01
774.992	11367.93
775.182	11337.21
775.372	11830.77
775.562	12219.89
775.752	11273.73
775.942	11507.2
776.131	11994.61
776.321	11765.24
776.511	11562.49
776.701	11402.75
776.891	12035.57
777.081	11464.19
777.271	11492.86
777.461	11427.32
777.651	11644.41
777.84	11877.88
778.03	11310.59
778.22	11527.67
778.41	11929.08
778.599	11316.73
778.789	11337.21
778.979	11585.02
779.169	11738.62
779.358	11630.07
779.548	11650.55
779.738	10901
779.927	11306.49
780.117	11120.13
780.307	10966.53
780.496	10794.5
780.686	11456
780.875	11879.93
781.065	11087.36
781.254	11058.69
781.444	11329.02
781.633	11492.86
781.823	10954.24
782.012	10806.79
782.202	10935.81
782.391	11419.13
782.581	10614.28
782.77	11007.49
782.96	11427.32
783.149	11009.54
783.338	10919.43
783.528	10694.15
783.717	11412.99
783.906	11421.18
784.096	11093.51
784.285	10673.67
784.474	10903.04
784.663	10929.67
784.853	10927.62
785.042	10728.97
785.231	10857.99
785.42	11421.18
785.61	10847.75
785.799	10597.9
785.988	11066.88
786.177	10786.31
786.366	10583.56
786.555	10851.85
786.744	10925.57
786.933	10839.56
787.122	10671.62
787.312	10501.64
787.501	10829.32
787.69	11136.51
787.879	10823.17
788.068	10468.87
788.257	10466.83
788.445	10550.79
788.634	10769.93
788.823	10608.14
789.012	11351.55
789.201	11187.71
789.39	10661.38
789.579	10284.56
789.768	10749.45
789.957	10722.82
790.145	10599.94
790.334	10231.31
790.523	10587.66
790.712	10540.55
790.9	10442.25
791.089	10372.62
791.278	10935.81
791.467	10606.09
791.655	10642.95
791.844	11032.07
792.033	10393.1
792.221	10483.21
792.41	10401.29
792.599	10298.89
792.787	10829.32
792.976	10964.48
793.164	9989.65
793.353	10307.09
793.541	10718.73
793.73	10704.39
793.918	10176.02
794.107	10182.16
794.295	10466.83
794.484	10262.03
794.672	10075.66
794.861	10034.71
795.049	10499.59
795.238	10921.48
795.426	9983.51
795.614	10257.93
795.803	10536.46
795.991	10757.64
796.179	10245.65
796.368	10124.82
796.556	10444.3
796.744	10307.09
796.932	10206.73
797.121	9885.2
797.309	10360.33
797.497	10823.17
797.685	10169.87
797.874	10298.89
798.062	10458.64
798.25	10628.62
798.438	10059.28
798.626	9844.24
798.814	10425.87
799.002	10675.72
799.19	10176.02
799.378	10259.98
799.566	10688.01
799.755	10540.55
799.943	10292.75
800.131	9864.72
800.318	10477.07
800.506	10452.49
800.694	10083.86
800.882	10102.29
801.07	10520.07
801.258	10409.48
801.446	10098.19
801.634	9872.92
801.822	10090
802.01	10200.59
802.197	9946.64
802.385	10268.17
802.573	10411.53
802.761	10073.62
802.949	10040.85
803.136	9942.55
803.324	10575.37
803.512	10380.81
803.699	10034.71
803.887	9915.92
804.075	10700.3
804.262	10141.2
804.45	9772.57
804.638	9979.41
804.825	10216.97
805.013	10110.48
805.201	10288.65
805.388	10026.51
805.576	10200.59
805.763	10642.95
805.951	9889.3
806.138	9821.72
806.326	10728.97
806.513	10305.04
806.701	10360.33
806.888	10018.32
807.075	10364.43
807.263	10688.01
807.45	9829.91
807.638	10182.16
807.825	10675.72
808.012	10403.34
808.2	10155.54
808.387	10350.09
808.574	10448.4
808.761	10802.69
808.949	10128.91
809.136	10266.13
809.323	10569.23
809.51	10389
809.698	10601.99
809.885	10296.85
810.072	10522.12
810.259	10479.11
810.446	10221.07
810.633	10116.62
810.82	10743.3
811.008	10919.43
811.195	10468.87
811.382	10321.42
811.569	10434.06
811.756	10333.71
811.943	10421.77
812.13	10233.36
812.317	10401.29
812.504	10546.7
812.691	10475.02
812.878	10370.57
813.064	10786.31
813.251	10601.99
813.438	10278.41
813.625	10200.59
813.812	10507.79
813.999	10468.87
814.186	10542.6
814.372	10335.76
814.559	10522.12
814.746	10554.89
814.933	10128.91
815.12	10362.38
815.306	9985.55
815.493	10204.69
815.68	10278.41
815.866	9954.83
816.053	10647.05
816.24	10905.09
816.426	10360.33
816.613	10036.75
816.799	10724.87
816.986	10948.1
817.173	9934.36
817.359	10149.39
817.546	10468.87
817.732	10190.35
817.919	10010.13
818.105	10188.3
818.292	10335.76
818.478	10350.09
818.665	10139.15
818.851	10124.82
819.037	10751.49
819.224	10198.54
819.41	10128.91
819.597	10044.95
819.783	10698.25
819.969	10558.99
820.156	10196.5
820.342	10079.76
820.528	11003.39
820.714	10413.58
820.901	10358.28
821.087	10196.5
821.273	10831.37
821.459	10272.27
821.646	9999.89
821.832	9752.09
822.018	10343.95
822.204	10325.52
822.39	10008.08
822.576	9950.74
822.762	10493.45
822.948	10309.13
823.134	10114.58
823.32	10018.32
823.507	10112.53
823.693	10319.37
823.879	10487.31
824.065	9901.59
824.25	10348.04
824.436	10159.63
824.622	9836.05
824.808	9905.68
824.994	10198.54
825.18	9598.49
825.366	9883.16
825.552	9924.12
825.738	10049.04
825.923	10112.53
826.109	9983.51
826.295	9821.72
826.481	9983.51
826.667	10046.99
826.852	9668.12
827.038	9522.71
827.224	10294.8
827.409	10274.32
827.595	9412.12
827.781	9778.71
827.966	10384.91
828.152	10098.19
828.338	9584.15
828.523	9436.7
828.709	10003.99
828.894	10366.48
829.08	9532.95
829.266	9592.34
829.451	9563.67
829.637	10069.52
829.822	9645.59
830.008	9471.51
830.193	10169.87
830.378	10188.3
830.564	9754.13
830.749	9459.23
830.935	10073.62
831.12	9752.09
831.305	9571.86
831.491	9633.3
831.676	9475.61
831.861	10069.52
832.047	9422.36
832.232	9338.4
832.417	9928.21
832.602	9729.56
832.788	9190.94
832.973	9471.51
833.158	9666.07
833.343	9649.69
833.528	9573.91
833.714	9618.97
833.899	9825.81
834.084	10073.62
834.269	9422.36
834.454	9559.58
834.639	9909.78
834.824	9643.54
835.009	9631.26
835.194	9487.9
835.379	9922.07
835.564	9983.51
835.749	9293.34
835.934	9289.24
836.119	9690.65
836.304	9571.86
836.489	9229.85
836.674	9549.34
836.859	9106.98
837.044	9856.53
837.228	8934.95
837.413	9086.5
837.598	9553.43
837.783	9549.34
837.968	9172.51
838.152	9092.64
838.337	9051.68
838.522	9639.45
838.707	9293.34
838.891	9405.98
839.076	9512.47
839.261	9453.08
839.445	9068.06
839.63	9213.47
839.815	9616.92
839.999	9354.78
840.184	9023.01
840.368	9170.46
840.553	9453.08
840.737	9436.7
840.922	8777.25
841.106	8773.16
841.291	9139.74
841.475	9434.65
841.66	8984.1
841.844	8865.32
842.029	9956.88
842.213	8904.23
842.397	8881.7
842.582	8805.92
842.766	9606.68
842.951	9465.37
843.135	8812.07
843.319	8807.97
843.504	9090.59
843.688	9512.47
843.872	8570.41
844.056	8746.53
844.241	9149.98
844.425	9002.53
844.609	9184.8
844.793	8525.35
844.977	9352.73
845.161	9090.59
845.346	8597.03
845.53	8771.11
845.714	8799.78
845.898	9309.72
846.082	8652.33
846.266	8748.58
846.45	8910.37
846.634	9025.06
846.818	8656.42
847.002	8793.64
847.186	9041.44
847.37	8597.03
847.554	8560.17
847.738	8791.59
847.922	9018.91
848.106	8943.14
848.29	8232.49
848.473	8439.34
848.657	8658.47
848.841	8844.84
849.025	8629.8
849.209	8209.97
849.392	8668.71
849.576	8496.68
849.76	8140.33
849.944	8582.7
850.127	9111.07
850.311	8400.43
850.495	8291.88
850.678	8228.4
850.862	9008.67
851.046	9209.37
851.229	8336.94
851.413	8222.25
851.596	8619.56
851.78	8560.17
851.964	8537.64
852.147	8371.75
852.331	9264.67
852.514	8771.11
852.698	8191.53
852.881	7968.31
853.065	8730.15
853.248	8613.42
853.431	8355.37
853.615	8173.1
853.798	8918.56
853.982	8515.11
854.165	8320.56
854.348	7923.25
854.532	8363.56
854.715	8484.39
854.898	8212.01
855.081	8193.58
855.265	8648.23
855.448	8619.56
855.631	8152.62
855.814	8361.52
855.997	8511.02
856.181	8126
856.364	8033.84
856.547	7915.06
856.73	8406.57
856.913	8255.02
857.096	8017.46
857.279	8054.32
857.462	8201.77
857.645	8490.54
857.828	8019.5
858.011	7984.69
858.194	8029.74
858.377	8431.15
858.56	7743.03
858.743	7962.16
858.926	7857.71
859.109	8287.79
859.292	7839.28
859.475	7779.89
859.658	8504.87
859.841	8355.37
860.023	7722.55
860.206	7689.78
860.389	8338.99
860.572	8502.82
860.755	7800.37
860.937	7853.62
861.12	8097.33
861.303	8003.12
861.486	7986.74
861.668	7571
861.851	8255.02
862.034	8222.25
862.216	7847.47
862.399	7632.44
862.581	8037.94
862.764	8459.82
862.947	7747.12
863.129	7685.69
863.312	7558.71
863.494	8285.74
863.677	7800.37
863.859	7423.55
864.042	8115.76
864.224	8205.87
864.406	7743.03
864.589	7403.07
864.771	7870
864.954	7628.34
865.136	7437.88
865.318	7216.7
865.501	7851.57
865.683	7210.56
865.865	7329.34
866.048	7718.45
866.23	7568.95
866.412	7833.14
866.594	7312.96
866.777	7558.71
866.959	7945.78
867.141	7411.26
867.323	7654.97
867.505	7509.56
867.687	7491.13
867.869	7691.83
868.052	7413.31
868.234	7095.87
868.416	7691.83
868.598	7906.87
868.78	7310.91
868.962	7134.78
869.144	7783.99
869.326	7812.66
869.508	7208.51
869.69	7122.49
869.872	7276.09
870.054	7769.65
870.236	7087.68
870.417	7351.87
870.599	7460.41
870.781	8029.74
870.963	7446.07
871.145	7224.89
871.327	7013.95
871.508	7714.36
871.69	7233.08
871.872	7284.28
872.054	7499.32
872.235	7558.71
872.417	7222.84
872.599	7018.05
872.78	7628.34
872.962	7362.11
873.144	6936.13
873.325	7120.45
873.507	7788.08
873.689	7288.38
873.87	6919.75
874.052	7149.12
874.233	7523.9
874.415	7593.53
874.596	7110.21
874.778	6989.38
874.959	7439.93
875.141	7679.54
875.322	7077.44
875.503	7030.34
875.685	7550.52
875.866	6860.35
876.048	6919.75
876.229	7001.66
876.41	7353.91
876.592	7489.08
876.773	7130.69
876.954	6768.2
877.136	7687.73
877.317	7349.82
877.498	7099.97
877.679	7110.21
877.86	7446.07
878.042	7292.48
878.223	7093.82
878.404	7489.08
878.585	7439.93
878.766	7833.14
878.947	7562.81
879.128	7460.41
879.309	7519.8
879.49	7747.12
879.672	7407.16
879.853	6997.57
880.034	7409.21
880.215	7341.63
880.396	7284.28
880.576	7374.39
880.757	7452.22
880.938	7751.22
881.119	7202.36
881.3	7323.19
881.481	7347.77
881.662	8406.57
881.843	7108.16
882.023	7312.96
882.204	7845.43
882.385	7591.48
882.566	7263.8
882.747	7392.83
882.927	7788.08
883.108	7691.83
883.289	7214.65
883.469	7470.65
883.65	7654.97
883.831	7781.94
884.011	7607.86
884.192	7296.57
884.373	8003.12
884.553	7818.8
884.734	7851.57
884.914	7626.29
885.095	8529.45
885.275	8226.35
885.456	7892.53
885.636	7419.45
885.817	7769.65
885.997	7870
886.178	7419.45
886.358	7583.29
886.538	7800.37
886.719	8953.38
886.899	7595.57
887.08	7726.64
887.26	8029.74
887.44	7439.93
887.621	7609.91
887.801	7593.53
887.981	8357.42
888.161	8033.84
888.342	7667.25
888.522	7685.69
888.702	8162.86
888.882	8107.57
889.062	7913.01
889.242	7312.96
889.423	8281.64
889.603	8126
889.783	7779.89
889.963	7452.22
890.143	7992.88
890.323	8173.1
890.503	7571
890.683	7771.7
890.863	7974.45
891.043	7935.54
891.223	7644.73
891.403	7908.91
891.583	7964.21
891.763	8042.03
891.943	7652.92
892.122	7636.53
892.302	7960.11
892.482	7661.11
892.662	7679.54
892.842	7648.82
893.022	8042.03
893.201	7800.37
893.381	7804.47
893.561	7671.35
893.741	8257.07
893.92	7992.88
894.1	7743.03
894.28	7706.17
894.459	8082.99
894.639	7876.15
894.819	7478.84
894.998	7720.5
895.178	7870
895.357	7917.11
895.537	7507.51
895.716	7566.9
895.896	7876.15
896.075	8269.36
896.255	7548.47
896.434	7358.01
896.614	8341.04
896.793	8201.77
896.973	7677.49
897.152	7657.01
897.331	7773.75
897.511	8005.17
897.69	7448.12
897.87	7480.89
898.049	7988.78
898.228	7964.21
898.407	7642.68
898.587	7677.49
898.766	7484.98
898.945	7689.78
899.124	7394.87
899.304	7364.15
899.483	7743.03
899.662	7890.48
899.841	7411.26
900.02	7339.58
900.199	7675.45
900.378	7530.04
900.557	7142.97
900.737	7013.95
900.916	7597.62
901.095	7697.97
901.274	7527.99
901.453	7077.44
901.632	7085.63
901.811	7206.46
901.989	6940.22
902.168	7059.01
902.347	7499.32
902.526	7241.28
902.705	7016
902.884	7106.11
903.063	7501.37
903.242	7616.05
903.42	6559.3
903.599	6964.8
903.778	7339.58
903.957	7503.42
904.135	6911.55
904.314	6811.2
904.493	7042.62
904.672	6923.84
904.85	6671.94
905.029	6635.08
905.207	7022.14
905.386	7550.52
905.565	6551.11
905.743	6569.54
905.922	6723.14
906.1	6901.31
906.279	6389.32
906.457	6334.03
906.636	6729.28
906.814	6676.04
906.993	6454.86
907.171	6387.27
907.35	6723.14
907.528	6686.28
907.707	6489.67
907.885	6202.96
908.063	6860.35
908.242	6377.03
908.42	6256.2
908.598	5969.49
908.777	6592.07
908.955	6170.19
909.133	6407.75
909.311	6067.79
909.49	6184.52
909.668	6354.51
909.846	6379.08
910.024	6084.17
910.202	6389.32
910.38	6612.55
910.559	6129.23
910.737	6258.25
910.915	6551.11
911.093	6346.31
911.271	6243.92
911.449	6649.41
911.627	6725.19
911.805	7235.13
911.983	6374.99
912.161	6141.52
912.339	6604.36
912.517	7052.86
912.695	6624.84
912.872	6370.89
913.05	6555.21
913.228	6796.87
913.406	6510.15
913.584	6262.35
913.762	7040.58
913.939	6665.8
914.117	6368.84
914.295	6379.08
914.473	6972.99
914.65	6923.84
914.828	6491.72
915.006	6403.66
915.184	6395.47
915.361	6872.64
915.539	6364.75
915.716	6600.26
915.894	6669.89
916.072	6907.46
916.249	6575.69
916.427	6522.44
916.604	6659.65
916.782	7020.1
916.959	6325.83
917.137	6571.59
917.314	6839.87
917.492	6784.58
917.669	6469.19
917.847	6411.85
918.024	6719.04
918.201	6424.14
918.379	6485.58
918.556	6520.39
918.733	6936.13
918.911	6563.4
919.088	6522.44
919.265	6266.44
919.442	6569.54
919.62	6522.44
919.797	6268.49
919.974	6053.45
920.151	6555.21
920.328	6393.42
920.506	5854.8
920.683	6317.64
920.86	6317.64
921.037	6338.12
921.214	6209.1
921.391	6159.95
921.568	6635.08
921.745	6108.75
921.922	6151.76
922.099	6223.44
922.276	6596.17
922.453	6512.2
922.63	6112.85
922.807	6362.7
922.984	6301.26
923.161	6207.05
923.338	6162
923.514	6002.26
923.691	6207.05
923.868	6299.21
924.045	6073.93
924.222	5858.9
924.399	6321.74
924.575	6434.38
924.752	5940.82
924.929	5957.2
925.105	6225.48
925.282	5881.42
925.459	5848.66
925.635	5981.78
925.812	6180.43
925.989	6086.22
926.165	5955.15
926.342	5588.57
926.518	5901.9
926.695	6078.03
926.871	5791.31
927.048	5584.47
927.224	6059.6
927.401	5912.14
927.577	5674.58
927.754	5615.19
927.93	6149.71
928.107	5963.34
928.283	5510.74
928.459	5736.02
928.636	5953.1
928.812	5645.91
928.988	5426.78
929.165	5410.39
929.341	5690.96
929.517	5807.7
929.693	5797.46
929.87	5203.55
930.046	5719.64
930.222	5613.14
930.398	5295.71
930.574	5381.72
930.751	5408.34
930.927	5359.19
931.103	5207.64
931.279	5144.16
931.455	5316.19
931.631	5439.06
931.807	4912.74
931.983	5049.95
932.159	5174.88
932.335	5437.02
932.511	5006.94
932.687	5187.16
932.863	5275.23
933.039	5121.63
933.215	4947.55
933.391	4718.18
933.566	4978.27
933.742	5092.96
933.918	4822.63
934.094	4607.59
934.27	5074.53
934.445	4998.75
934.621	4834.91
934.797	4593.25
934.973	5095
935.148	4941.41
935.324	4355.69
935.5	4126.32
935.675	4750.95
935.851	4798.05
936.027	4290.15
936.202	4376.17
936.378	4511.33
936.553	4597.35
936.729	4482.66
936.904	4036.21
937.08	3917.42
937.255	4044.4
937.431	3913.33
937.606	3630.71
937.782	3839.6
937.957	4001.39
938.133	3741.3
938.308	3579.51
938.483	3796.59
938.659	3579.51
938.834	3622.52
939.009	3417.72
939.185	3616.37
939.36	3376.76
939.535	2928.25
939.71	3430.01
939.886	3765.87
940.061	3649.14
940.236	3382.9
940.411	3081.85
940.586	3575.41
940.761	3405.43
940.937	3171.96
941.112	3073.66
941.287	3475.06
941.462	3305.08
941.637	2950.78
941.812	3049.08
941.987	3358.33
942.162	3190.39
942.337	3159.67
942.512	2938.49
942.687	3219.07
942.862	3249.79
943.037	2705.03
943.212	2471.56
943.386	3012.22
943.561	3069.56
943.736	2907.77
943.911	3241.59
944.086	3169.91
944.26	3188.35
944.435	2854.53
944.61	2938.49
944.785	3294.84
944.959	3468.92
945.134	2860.67
945.309	2776.7
945.483	2858.62
945.658	3266.17
945.833	2487.94
946.007	2606.72
946.182	3315.32
946.357	2762.37
946.531	2756.22
946.706	2684.55
946.88	2610.82
947.055	2975.36
947.229	2768.51
947.404	2713.22
947.578	3161.72
947.752	2930.3
947.927	2584.2
948.101	2717.31
948.276	3006.08
948.45	2985.6
948.624	3040.89
948.799	2764.42
948.973	3088
949.147	2866.81
949.321	2961.02
949.496	2688.64
949.67	3427.96
949.844	3118.72
950.018	3081.85
950.193	2848.38
950.367	3653.23
950.541	3137.15
950.715	3034.75
950.889	3106.43
951.063	3067.52
951.237	3266.17
951.411	2707.07
951.585	2766.46
951.759	3262.07
951.933	3126.91
952.107	2879.1
952.281	3126.91
952.455	3640.95
952.629	3444.34
952.803	3088
952.977	2870.91
953.151	3409.53
953.325	3321.46
953.499	3200.63
953.672	3067.52
953.846	3065.47
954.02	3270.26
954.194	2938.49
954.368	3012.22
954.541	3470.97
954.715	3135.1
954.889	3184.25
955.062	3038.84
955.236	3165.82
955.41	3286.65
955.583	3219.07
955.757	2950.78
955.93	3409.53
956.104	3038.84
956.278	3122.81
956.451	3133.05
956.625	3425.91
956.798	3896.94
956.972	3257.98
957.145	3036.8
957.319	3417.72
957.492	3315.32
957.665	3370.62
957.839	3053.18
958.012	3530.36
958.185	3231.35
958.359	3208.83
958.532	3364.47
958.705	3550.84
958.879	3423.86
959.052	3317.37
959.225	2952.83
959.398	3442.29
959.572	3470.97
959.745	3323.51
959.918	3149.43
960.091	3405.43
960.264	3542.64
960.438	3116.67
960.611	3081.85
960.784	3763.83
960.957	3253.88
961.13	3577.46
961.303	3044.99
961.476	3466.87
961.649	3706.48
961.822	3241.59
961.995	3176.06
962.168	3501.69
962.341	3430.01
962.514	3126.91
962.686	3081.85
962.859	3513.97
963.032	3524.21
963.205	3133.05
963.378	3008.12
963.551	3495.54
963.723	3382.9
963.896	3192.44
964.069	3274.36
964.242	3280.5
964.414	3622.52
964.587	3143.29
964.76	3180.15
964.932	3348.09
965.105	3253.88
965.278	3192.44
965.45	3079.8
965.623	3464.82
965.795	3559.03
965.968	3118.72
966.14	3053.18
966.313	3298.94
966.485	3438.2
966.658	3131
966.83	3077.76
967.003	3645.04
967.175	3481.21
967.348	3053.18
967.52	3225.21
967.692	3655.28
967.865	3518.07
968.037	2979.45
968.209	3417.72
968.382	3151.48
968.554	3466.87
968.726	3047.04
968.898	3004.03
969.071	3278.46
969.243	3350.14
969.415	3065.47
969.587	3249.79
969.759	3649.14
969.932	3382.9
970.104	3053.18
970.276	2815.62
970.448	3098.24
970.62	3047.04
970.792	3180.15
970.964	3180.15
971.136	3624.56
971.308	3395.19
971.48	2887.29
971.652	2791.04
971.824	3583.6
971.996	3079.8
972.168	3030.65
972.339	3020.41
972.511	3343.99
972.683	3163.77
972.855	3233.4
973.027	2889.34
973.199	3094.14
973.37	3434.1
973.542	3141.24
973.714	3278.46
973.886	3245.69
974.057	3395.19
974.229	2782.85
974.401	2885.25
974.572	3047.04
974.744	2680.45
974.915	2811.52
975.087	2758.27
975.259	3464.82
975.43	3071.61
975.602	2852.48
975.773	2649.73
975.945	2887.29
976.116	3249.79
976.288	2668.16
976.459	2977.41
976.63	2872.96
976.802	3071.61
976.973	2592.39
977.145	3053.18
977.316	3563.12
977.487	2995.84
977.659	2807.42
977.83	2870.91
978.001	3376.76
978.172	3085.95
978.344	2715.27
978.515	2803.33
978.686	2979.45
978.857	3206.78
979.028	2766.46
979.2	2582.15
979.371	3229.31
979.542	2905.73
979.713	2729.6
979.884	2354.82
980.055	2670.21
980.226	2897.53
980.397	2700.93
980.568	2512.52
980.739	3192.44
980.91	2784.9
981.081	2807.42
981.252	2524.8
981.423	2936.45
981.594	3006.08
981.765	2461.32
981.936	2578.05
982.106	2819.71
982.277	3102.33
982.448	2506.37
982.619	2711.17
982.79	2647.68
982.96	3085.95
983.131	2553.48
983.302	2193.03
983.472	2586.24
983.643	2864.77
983.814	2717.31
983.984	2500.23
984.155	2682.5
984.326	2899.58
984.496	2442.89
984.667	2473.6
984.837	2561.67
985.008	2956.93
985.178	2573.96
985.349	2528.9
985.519	2631.3
985.69	2516.61
985.86	2526.85
986.031	2315.91
986.201	2786.94
986.371	2750.08
986.542	2203.27
986.712	2143.88
986.882	2578.05
987.053	2711.17
987.223	2268.81
987.393	2481.8
987.563	2410.12
987.734	2719.36
987.904	2541.19
988.074	2268.81
988.244	2510.47
988.414	2406.02
988.585	2119.31
988.755	2383.49
988.925	2440.84
989.095	2752.13
989.265	2145.93
989.435	2213.51
989.605	2627.2
989.775	2533
989.945	2422.41
990.115	2053.77
990.285	2397.83
990.455	2399.88
990.625	2104.97
990.795	2104.97
990.965	2877.05
991.134	2152.07
991.304	2070.16
991.474	2035.34
991.644	2483.84
991.814	2715.27
991.984	1949.32
992.153	2059.92
992.323	2225.8
992.493	2406.02
992.662	1953.42
992.832	2068.11
993.002	2295.43
993.171	2334.34
993.341	1730.19
993.511	2082.44
993.68	2209.42
993.85	2352.77
994.019	1810.06
994.189	1863.31
994.358	2205.32
994.528	2070.16
994.697	1560.21
994.867	1752.72
995.036	2387.59
995.206	2010.76
995.375	1842.83
995.544	2025.1
995.714	2307.72
995.883	1980.04
996.052	1965.71
996.222	1552.02
996.391	2528.9
996.56	2125.45
996.73	1760.91
996.899	1687.18
997.068	2424.45
997.237	2205.32
997.406	1754.77
997.576	1668.75
997.745	2043.53
997.914	2182.79
998.083	1480.34
998.252	1787.54
998.421	2000.52
998.59	1949.32
998.759	1648.27
998.928	1562.26
999.097	2334.34
999.266	2064.01
999.435	1826.45
999.604	1500.82
999.773	2428.55
999.942	1934.99
1000.111	1504.92
1000.28	1500.82
1000.448	1701.52
1000.617	1654.42
1000.786	1717.9
1000.955	1453.72
1001.124	1994.38
1001.292	2399.88
1001.461	1537.68
1001.63	1451.67
1001.798	2274.95
1001.967	2184.84
1002.136	1334.93
1002.304	1332.89
1002.473	1834.64
1002.642	1855.12
1002.81	1574.55
1002.979	1531.54
1003.147	1963.66
1003.316	2344.58
1003.484	1431.19
1003.653	1457.81
1003.821	2023.05
1003.99	1674.9
1004.158	1541.78
1004.327	1492.63
1004.495	1953.42
1004.663	1457.81
1004.832	1586.83
1005	1308.31
1005.168	1742.48
1005.337	1724.05
1005.505	1255.06
1005.673	1537.68
1005.842	1826.45
1006.01	1894.03
1006.178	1267.35
1006.346	1328.79
1006.514	1748.62
1006.683	1986.19
1006.851	1310.36
1007.019	1472.15
1007.187	1459.86
1007.355	1162.9
1007.523	1142.43
1007.691	1177.24
1007.859	1244.82
1008.027	1922.7
1008.195	1359.51
1008.363	1193.62
1008.531	1859.21
1008.699	1402.52
1008.867	1154.71
1009.035	1257.11
1009.203	1844.88
1009.37	1605.27
1009.538	1181.34
1009.706	1605.27
1009.874	1461.91
1010.042	1425.04
1010.209	1068.7
1010.377	1189.53
1010.545	1711.76
1010.713	1605.27
1010.88	1042.07
1011.048	1222.3
1011.216	1336.98
1011.383	1799.82
1011.551	994.97
1011.718	964.25
1011.886	1633.94
1012.054	1496.72
1012.221	1013.4
1012.389	1080.99
1012.556	1416.85
1012.724	1754.77
1012.891	1152.67
1013.058	841.37
1013.226	1447.57
1013.393	1455.76
1013.561	747.17
1013.728	798.37
1013.895	1582.74
1014.063	1474.2
1014.23	738.98
1014.397	1101.47
1014.565	1451.67
1014.732	1259.16
1014.899	990.88
1015.066	874.14
1015.233	1451.67
1015.401	1371.8
1015.568	986.78
1015.735	1064.6
1015.902	1218.2
1016.069	1418.9
1016.236	1009.31
1016.403	857.76
1016.57	1009.31
1016.737	1449.62
1016.904	915.1
1017.071	779.93
1017.238	1083.03
1017.405	1408.66
1017.572	1011.36
1017.739	1078.94
1017.906	1318.55
1018.073	1398.42
1018.24	847.52
1018.407	837.28
1018.573	1541.78
1018.74	1132.19
1018.907	872.09
1019.074	677.54
1019.241	1349.27
1019.407	1224.34
1019.574	757.41
1019.741	646.82
1019.907	1136.28
1020.074	1255.06
1020.241	626.34
1020.407	749.22
1020.574	1291.93
1020.74	1228.44
1020.907	798.37
1021.073	691.87
1021.24	1640.08
1021.406	1408.66
1021.573	612
1021.739	781.98
1021.906	1228.44
1022.072	849.57
1022.239	747.17
1022.405	638.62
1022.571	1064.6
1022.738	822.94
1022.904	747.17
1023.07	671.39
1023.237	1119.9
1023.403	1287.83
1023.569	796.32
1023.735	687.78
1023.902	1050.27
1024.068	1175.19
1024.234	591.52
1024.4	632.48
1024.566	1158.81
1024.732	1177.24
1024.898	657.06
1025.065	462.5
1025.231	1142.43
1025.397	919.2
1025.563	597.67
1025.729	519.84
1025.895	657.06
1026.061	736.93
1026.227	411.3
1026.392	593.57
1026.558	1250.97
1026.724	1040.03
1026.89	648.86
1027.056	657.06
1027.222	1074.84
1027.388	812.7
1027.553	562.85
1027.719	517.79
1027.885	1326.74
1028.051	1068.7
1028.216	384.68
1028.382	534.18
1028.548	1013.4
1028.713	878.24
1028.879	497.32
1029.045	612
1029.21	1216.15
1029.376	1257.11
1029.541	612
1029.707	581.28
1029.873	988.83
1030.038	1031.83
1030.204	468.64
1030.369	523.94
1030.534	1042.07
1030.7	771.74
1030.865	509.6
1031.031	427.68
1031.196	1035.93
1031.361	816.8
1031.527	415.4
1031.692	433.83
1031.857	472.74
1032.023	908.96
1032.188	343.72
1032.353	485.03
1032.518	1138.33
1032.684	851.61
1032.849	394.92
1033.014	497.32
1033.179	994.97
1033.344	931.48
1033.509	439.97
1033.674	485.03
1033.839	980.64
1034.004	933.53
1034.17	480.93
1034.335	298.66
1034.5	747.17
1034.664	734.88
1034.829	341.67
1034.994	456.36
1035.159	775.84
1035.324	784.03
1035.489	439.97
1035.654	263.85
1035.819	1037.98
1035.984	806.56
1036.148	550.56
1036.313	519.84
1036.478	947.87
1036.643	837.28
1036.807	294.57
1036.972	335.53
1037.137	1099.42
1037.301	763.55
1037.466	239.27
1037.631	437.92
1037.795	923.29
1037.96	865.95
1038.124	532.13
1038.289	292.52
1038.454	728.74
1038.618	880.29
1038.783	353.96
1038.947	419.49
1039.111	685.73
1039.276	657.06
1039.44	243.37
1039.605	792.22
1039.769	630.43
1039.933	657.06
1040.098	429.73
1040.262	568.99
1040.426	906.91
1040.591	771.74
1040.755	247.46
1040.919	376.48
1041.083	808.61
1041.248	534.18
1041.412	214.7
1041.576	171.69
1041.74	620.19
1041.904	898.72
1042.068	186.02
1042.232	394.92
1042.397	775.84
1042.561	722.59
1042.725	-12.63
1042.889	505.51
1043.053	804.51
1043.217	751.26
1043.381	382.63
1043.544	183.98
1043.708	859.81
1043.872	390.82
1044.036	-14.68
1044.2	163.5
1044.364	876.19
1044.528	1021.6
1044.691	3724.91
1044.855	122.54
1045.019	755.36
1045.183	747.17
1045.346	317.09
1045.51	143.02
1045.674	675.49
1045.837	749.22
1046.001	229.03
1046.165	173.74
1046.328	1037.98
1046.492	738.98
1046.655	411.3
1046.819	351.91
1046.983	538.27
1047.146	689.82
1047.31	237.22
1047.473	18.09
1047.636	595.62
1047.8	509.6
1047.963	261.8
1048.127	167.59
1048.29	482.98
