Data from Hydrogel_Ink_Intensity_Test_1_USB4F045381__83__00083.txt Node

Date: Mon Jul 31 10:57:16 EDT 2023
User: mmckonesweet
Spectrometer: USB4F04538
Trigger mode: 4
Integration Time (sec): 9.000000E-1
Scans to average: 1
Electric dark correction enabled: true
Nonlinearity correction enabled: false
Boxcar width: 0
XAxis mode: Wavelengths
Number of Pixels in Spectrum: 3648
>>>>>Begin Spectral Data<<<<<
345.52	-954.35
345.736	-954.35
345.952	-954.35
346.168	-1073.14
346.384	-1019.89
346.6	-194.56
346.816	-204.8
347.032	-184.32
347.248	284.67
347.464	-217.08
347.68	-167.93
347.896	118.78
348.112	389.11
348.328	-28.67
348.544	-118.78
348.76	63.49
348.975	260.09
349.191	-165.89
349.407	-233.47
349.623	88.06
349.839	-112.64
350.055	-73.73
350.27	45.06
350.486	221.18
350.702	374.78
350.918	274.43
351.133	-141.31
351.349	225.28
351.565	446.46
351.781	-221.18
351.996	-2.05
352.212	348.15
352.428	-133.12
352.644	-247.8
352.859	-135.17
353.075	303.1
353.291	-18.43
353.506	-92.16
353.722	-229.37
353.938	-69.63
354.153	466.94
354.369	184.32
354.584	-155.65
354.8	221.18
355.016	-303.1
355.231	-225.28
355.447	-124.93
355.662	161.79
355.878	860.15
356.093	-309.24
356.309	38.91
356.524	-139.26
356.74	256
356.955	-253.95
357.171	-59.39
357.386	219.13
357.602	-167.93
357.817	-36.86
358.033	-69.63
358.248	466.94
358.464	284.67
358.679	-182.27
358.895	-331.77
359.11	110.59
359.325	301.05
359.541	258.04
359.756	-43.01
359.972	-215.04
360.187	215.04
360.402	-86.01
360.618	-159.74
360.833	997.36
361.048	172.03
361.264	-106.49
361.479	-75.77
361.694	83.97
361.909	147.45
362.125	-192.51
362.34	-98.3
362.555	249.85
362.77	172.03
362.986	-202.75
363.201	-151.55
363.416	225.28
363.631	30.72
363.847	-251.9
364.062	-137.21
364.277	229.37
364.492	196.61
364.707	-90.11
364.922	-309.24
365.138	219.13
365.353	382.97
365.568	-237.56
365.783	-67.58
365.998	139.26
366.213	550.9
366.428	-200.7
366.643	124.93
366.858	315.39
367.073	176.13
367.288	-38.91
367.503	-172.03
367.718	221.18
367.933	458.74
368.148	-339.96
368.363	59.39
368.578	59.39
368.793	507.9
369.008	-141.31
369.223	-165.89
369.438	262.14
369.653	434.17
369.868	-282.62
370.083	-210.94
370.298	110.59
370.513	442.36
370.728	94.21
370.943	-10.24
371.157	-40.96
371.372	653.3
371.587	-210.94
371.802	-200.7
372.017	186.37
372.232	401.4
372.446	2.05
372.661	-180.22
372.876	274.43
373.091	178.17
373.306	-36.86
373.52	-208.89
373.735	-135.17
373.95	389.11
374.165	-83.97
374.379	-118.78
374.594	-83.97
374.809	229.37
375.023	165.89
375.238	-159.74
375.453	270.33
375.667	-176.13
375.882	-57.34
376.097	-106.49
376.311	129.02
376.526	16.38
376.741	-184.32
376.955	145.41
377.17	610.29
377.384	647.16
377.599	-126.97
377.813	-186.37
378.028	651.25
378.242	190.46
378.457	-36.86
378.672	-276.48
378.886	116.73
379.101	65.53
379.315	-307.2
379.53	-32.77
379.744	251.9
379.958	243.71
380.173	-137.21
380.387	-145.41
380.602	217.08
380.816	-36.86
381.031	-116.73
381.245	-92.16
381.459	206.84
381.674	2705.37
381.888	-184.32
382.103	172.03
382.317	-100.35
382.531	516.09
382.746	-45.06
382.96	-81.92
383.174	16.38
383.388	602.1
383.603	137.21
383.817	-233.47
384.031	206.84
384.246	589.82
384.46	165.89
384.674	405.5
384.888	104.45
385.103	129.02
385.317	-282.62
385.531	8.19
385.745	440.31
385.959	399.35
386.174	-135.17
386.388	-184.32
386.602	20.48
386.816	-43.01
387.03	-16.38
387.244	-12.29
387.458	178.17
387.672	436.22
387.887	-262.14
388.101	-200.7
388.315	444.41
388.529	194.56
388.743	-86.01
388.957	-167.93
389.171	411.64
389.385	-36.86
389.599	-28.67
389.813	167.93
390.027	227.32
390.241	763.89
390.455	-49.15
390.669	-59.39
390.883	86.01
391.097	628.73
391.311	96.25
391.525	-59.39
391.738	278.52
391.952	251.9
392.166	4.1
392.38	-182.27
392.594	413.69
392.808	473.08
393.022	32.77
393.236	14.34
393.449	274.43
393.663	245.76
393.877	-112.64
394.091	61.44
394.305	0
394.518	-26.62
394.732	-161.79
394.946	-65.53
395.16	530.42
395.373	108.54
395.587	-100.35
395.801	-75.77
396.015	423.93
396.228	301.05
396.442	-149.5
396.656	-206.84
396.869	454.65
397.083	595.96
397.297	24.58
397.51	-63.49
397.724	466.94
397.938	286.72
398.151	-215.04
398.365	-133.12
398.578	335.87
398.792	503.8
399.005	94.21
399.219	63.49
399.433	223.23
399.646	317.44
399.86	159.74
400.073	172.03
400.287	329.72
400.5	165.89
400.714	206.84
400.927	137.21
401.141	346.11
401.354	1228.78
401.567	339.96
401.781	-104.45
401.994	493.56
402.208	835.57
402.421	12.29
402.635	94.21
402.848	167.93
403.061	485.37
403.275	147.45
403.488	-8.19
403.701	577.53
403.915	432.12
404.128	139.26
404.341	-8.19
404.555	333.82
404.768	176.13
404.981	192.51
405.195	49.15
405.408	585.72
405.621	499.7
405.834	221.18
406.048	-16.38
406.261	598.01
406.474	641.01
406.687	86.01
406.9	229.37
407.114	180.22
407.327	389.11
407.54	-124.93
407.753	-180.22
407.966	71.68
408.179	372.73
408.392	53.25
408.605	-71.68
408.819	299
409.032	366.59
409.245	77.82
409.458	301.05
409.671	434.17
409.884	577.53
410.097	-100.35
410.31	151.55
410.523	378.87
410.736	204.8
410.949	118.78
411.162	88.06
411.375	630.77
411.588	616.44
411.801	196.61
412.014	63.49
412.227	223.23
412.44	165.89
412.653	6.14
412.865	153.6
413.078	557.05
413.291	454.65
413.504	96.25
413.717	53.25
413.93	440.31
414.143	65.53
414.356	137.21
414.568	-202.75
414.781	526.33
414.994	440.31
415.207	174.08
415.42	102.4
415.632	456.7
415.845	765.94
416.058	45.06
416.271	81.92
416.483	317.44
416.696	712.69
416.909	0
417.121	96.25
417.334	475.13
417.547	679.93
417.759	100.35
417.972	65.53
418.185	165.89
418.397	511.99
418.61	57.34
418.823	61.44
419.035	720.88
419.248	423.93
419.46	186.37
419.673	153.6
419.885	473.08
420.098	282.62
420.311	73.73
420.523	-86.01
420.736	477.18
420.948	227.32
421.161	92.16
421.373	20.48
421.586	436.22
421.798	299
422.01	-53.25
422.223	284.67
422.435	192.51
422.648	542.71
422.86	229.37
423.073	118.78
423.285	595.96
423.497	167.93
423.71	110.59
423.922	131.07
424.134	659.45
424.347	786.42
424.559	305.15
424.771	434.17
424.984	290.81
425.196	456.7
425.408	16.38
425.621	-30.72
425.833	663.54
426.045	755.7
426.257	79.87
426.47	124.93
426.682	487.42
426.894	497.66
427.106	118.78
427.318	243.71
427.531	315.39
427.743	585.72
427.955	172.03
428.167	628.73
428.379	538.62
428.591	366.59
428.804	288.76
429.016	188.41
429.228	335.87
429.44	628.73
429.652	440.31
429.864	110.59
430.076	391.16
430.288	503.8
430.5	274.43
430.712	323.58
430.924	739.32
431.136	540.66
431.348	145.41
431.56	241.66
431.772	438.27
431.984	378.87
432.196	208.89
432.408	190.46
432.62	356.35
432.832	653.3
433.044	493.56
433.256	423.93
433.468	659.45
433.679	194.56
433.891	239.61
434.103	456.7
434.315	833.52
434.527	716.79
434.739	382.97
434.95	428.03
435.162	757.75
435.374	350.2
435.586	348.15
435.798	290.81
436.009	290.81
436.221	520.18
436.433	323.58
436.645	333.82
436.856	475.13
437.068	825.33
437.28	233.47
437.491	528.38
437.703	747.51
437.915	593.91
438.126	286.72
438.338	661.49
438.55	577.53
438.761	720.88
438.973	348.15
439.184	413.69
439.396	561.14
439.608	823.28
439.819	288.76
440.031	393.21
440.242	770.04
440.454	716.79
440.665	432.12
440.877	366.59
441.088	798.71
441.3	567.29
441.511	112.64
441.723	331.77
441.934	610.29
442.146	632.82
442.357	565.24
442.569	716.79
442.78	643.06
442.991	1064.94
443.203	692.21
443.414	339.96
443.626	966.64
443.837	409.59
444.048	380.92
444.26	206.84
444.471	724.98
444.682	913.39
444.894	223.23
445.105	208.89
445.316	954.35
445.528	784.37
445.739	450.55
445.95	442.36
446.161	767.99
446.373	897.01
446.584	387.07
446.795	497.66
447.006	847.86
447.217	1069.04
447.429	233.47
447.64	299
447.851	1021.94
448.062	724.98
448.273	260.09
448.484	415.74
448.695	823.28
448.907	589.82
449.118	544.76
449.329	698.36
449.54	591.86
449.751	702.45
449.962	561.14
450.173	487.42
450.384	1021.94
450.595	1056.75
450.806	511.99
451.017	557.05
451.228	1079.28
451.439	1058.8
451.65	544.76
451.861	319.48
452.072	487.42
452.283	825.33
452.494	757.75
452.705	514.04
452.915	1130.48
453.126	950.26
453.337	569.34
453.548	495.61
453.759	1071.09
453.97	1312.75
454.181	872.43
454.391	585.72
454.602	829.43
454.813	1130.48
455.024	614.39
455.235	550.9
455.445	1048.56
455.656	913.39
455.867	806.9
456.078	643.06
456.288	604.15
456.499	1077.23
456.71	632.82
456.921	856.05
457.131	987.12
457.342	976.88
457.553	704.5
457.763	622.58
457.974	991.22
458.184	1085.42
458.395	548.86
458.606	634.87
458.816	1189.87
459.027	1429.48
459.237	884.72
459.448	573.43
459.659	1302.51
459.869	1576.94
460.08	624.63
460.29	991.22
460.501	1445.87
460.711	903.15
460.922	690.17
461.132	798.71
461.343	1583.08
461.553	821.24
461.764	808.95
461.974	743.41
462.184	1251.31
462.395	1232.88
462.605	831.48
462.816	776.18
463.026	1200.11
463.236	1363.95
463.447	788.47
463.657	913.39
463.867	1380.33
464.078	1159.15
464.288	952.31
464.498	907.25
464.709	1185.77
464.919	1284.08
465.129	890.87
465.339	888.82
465.55	1349.61
465.76	1339.37
465.97	1030.13
466.18	942.07
466.391	1480.68
466.601	1370.09
466.811	1159.15
467.021	956.4
467.231	1413.1
467.441	1523.69
467.651	1191.92
467.862	757.75
468.072	1415.15
468.282	1662.95
468.492	1171.44
468.702	1167.34
468.912	1394.67
469.122	2002.91
469.332	1429.48
469.542	1206.25
469.752	1697.77
469.962	1601.51
470.172	1179.63
470.382	1191.92
470.592	1724.39
470.802	1873.89
471.012	1470.44
471.222	1390.57
471.432	1925.09
471.642	1822.69
471.852	1470.44
472.062	1241.07
472.272	1650.66
472.482	1417.19
472.691	1435.63
472.901	1370.09
473.111	1699.81
473.321	2324.44
473.531	1427.43
473.741	1628.14
473.95	2027.49
474.16	2029.54
474.37	1658.85
474.58	1511.4
474.79	2346.97
474.999	2082.78
475.209	1550.31
475.419	1626.09
475.628	1964
475.838	2220
476.048	1820.64
476.258	1671.14
476.467	2437.08
476.677	1933.28
476.886	2191.33
477.096	1929.19
477.306	1990.63
477.515	2478.04
477.725	1994.72
477.935	1994.72
478.144	2650.07
478.354	2058.21
478.563	2070.5
478.773	2019.3
478.982	2367.45
479.192	2494.43
479.401	2150.37
479.611	2000.87
479.82	2205.66
480.03	2531.29
480.239	1984.48
480.449	2103.26
480.658	2795.48
480.868	2328.54
481.077	2379.74
481.287	2168.8
481.496	2688.98
481.705	2881.49
481.915	2625.5
482.124	2648.02
482.333	2619.35
482.543	3166.16
482.752	2504.67
482.961	2418.65
483.171	2975.7
483.38	2650.07
483.589	2652.12
483.799	2529.24
484.008	2772.95
484.217	3084.24
484.426	2580.44
484.636	2461.66
484.845	2977.75
485.054	2539.48
485.263	3020.75
485.472	2758.61
485.682	3370.96
485.891	3028.95
486.1	2611.16
486.309	2713.56
486.518	3160.02
486.727	3420.11
486.936	2711.51
487.146	3018.71
487.355	3512.27
487.564	2920.4
487.773	2883.54
487.982	2881.49
488.191	3088.34
488.4	3276.75
488.609	2918.36
488.818	3012.56
489.027	3821.51
489.236	3620.81
489.445	3129.3
489.654	2969.55
489.863	3694.54
490.072	3364.81
490.281	3557.32
490.49	3166.16
490.698	3815.37
490.907	3956.68
491.116	3254.22
491.325	3149.78
491.534	3885
491.743	3633.1
491.952	3334.09
492.16	3467.21
492.369	3751.88
492.578	3964.87
492.787	3555.27
492.996	3211.21
493.204	3463.12
493.413	4134.85
493.622	3102.67
493.831	3344.33
494.039	4052.93
494.248	3489.74
494.457	3633.1
494.665	3434.44
494.874	3975.11
495.083	4308.93
495.291	3624.9
495.5	3510.22
495.709	4239.3
495.917	4003.78
496.126	3829.7
496.335	3727.3
496.543	3903.43
496.752	4063.17
496.96	4163.52
497.169	3600.33
497.377	3835.85
497.586	4497.34
497.794	4011.97
498.003	3706.82
498.211	4110.27
498.42	4648.89
498.628	4118.47
498.837	3921.86
499.045	4315.07
499.254	4128.7
499.462	4007.87
499.671	4001.73
499.879	4827.06
500.087	4501.44
500.296	3803.08
500.504	4083.65
500.713	4456.38
500.921	4827.06
501.129	3997.63
501.338	4190.14
501.546	4644.79
501.754	4317.12
501.962	4149.18
502.171	4079.55
502.379	4734.9
502.587	4984.76
502.795	4372.41
503.004	4296.64
503.212	4575.16
503.42	4782.01
503.628	4341.69
503.837	4511.68
504.045	4847.54
504.253	5044.15
504.461	4419.52
504.669	4255.68
504.877	4739
505.085	5029.81
505.294	4323.26
505.502	4683.7
505.71	4966.32
505.918	4970.42
506.126	4509.63
506.334	4483
506.542	4870.07
506.75	4880.31
506.958	4739
507.166	4583.35
507.374	4734.9
507.582	5443.5
507.79	4747.19
507.998	4599.74
508.206	5113.78
508.414	4990.9
508.622	4542.39
508.83	4667.32
509.037	5302.19
509.245	4906.93
509.453	4640.7
509.661	4650.94
509.869	5388.21
510.077	4861.88
510.285	4820.92
510.492	4603.83
510.7	5812.14
510.908	5140.4
511.116	4784.06
511.324	4820.92
511.531	5038
511.739	5222.32
511.947	5052.34
512.155	5074.87
512.362	5115.83
512.57	4951.99
512.778	4888.5
512.985	4681.66
513.193	5517.23
513.401	5476.27
513.608	5009.33
513.816	4951.99
514.024	5402.54
514.231	5658.54
514.439	4966.32
514.646	5050.29
514.854	5517.23
515.061	5484.46
515.269	4896.69
515.477	5025.72
515.684	5306.29
515.892	5566.38
516.099	5011.38
516.307	5189.55
516.514	5640.11
516.722	6016.93
516.929	5238.7
517.136	5242.8
517.344	5724.07
517.551	5566.38
517.759	5210.03
517.966	5324.72
518.173	5441.45
518.381	5697.45
518.588	5371.82
518.796	5236.66
519.003	5894.05
519.21	5566.38
519.418	5273.52
519.625	5633.96
519.832	5681.07
520.039	5681.07
520.247	5197.74
520.454	5447.6
520.661	6082.47
520.868	5785.51
521.076	5500.84
521.283	5560.24
521.49	6322.08
521.697	5836.71
521.904	5539.76
522.112	5498.8
522.319	6150.05
522.526	6025.12
522.733	5365.68
522.94	5435.31
523.147	5975.97
523.354	6135.71
523.561	5506.99
523.768	5705.64
523.975	6363.04
524.183	6197.15
524.39	5713.83
524.597	5593
524.804	6035.36
525.011	5832.61
525.218	5715.88
525.425	5926.82
525.632	6356.89
525.838	5869.48
526.045	5693.35
526.252	5666.73
526.459	7260.05
526.666	7184.27
526.873	5855.14
527.08	5959.59
527.287	6520.73
527.494	6401.95
527.701	5898.15
527.907	5799.85
528.114	6451.1
528.321	6111.14
528.528	5898.15
528.735	6074.28
528.941	6354.85
529.148	5947.3
529.355	6016.93
529.562	5902.25
529.768	6688.67
529.975	6268.83
530.182	6127.52
530.388	6143.91
530.595	6698.91
530.802	6094.75
531.008	6539.16
531.215	6326.18
531.422	7075.73
531.628	7167.89
531.835	6270.88
532.042	6379.42
532.248	6555.55
532.455	6846.36
532.661	6522.78
532.868	6272.93
533.074	6725.53
533.281	6928.28
533.487	6438.81
533.694	6389.66
533.9	6606.75
534.107	6795.16
534.313	6313.89
534.52	6180.77
534.726	6997.91
534.933	7090.07
535.139	6317.98
535.345	6295.46
535.552	6954.9
535.758	6813.59
535.965	6635.42
536.171	6604.7
536.377	7280.53
536.584	7298.96
536.79	6545.31
536.996	6596.51
537.203	7143.31
537.409	7090.07
537.615	6721.43
537.821	6819.74
538.028	7186.32
538.234	7233.43
538.44	6746.01
538.646	6809.5
538.853	7311.25
539.059	6993.81
539.265	7337.87
539.471	6606.75
539.677	7258
539.883	6983.57
540.09	6795.16
540.296	7368.59
540.502	7296.91
540.708	7049.11
540.914	6983.57
541.12	7018.39
541.326	7487.37
541.532	7051.16
541.738	7034.77
541.944	7020.44
542.15	7468.94
542.356	7233.43
542.562	7192.47
542.768	7075.73
542.974	7917.45
543.18	7880.58
543.386	7118.74
543.592	6997.91
543.798	8009.61
544.004	7761.8
544.21	7139.22
544.415	7339.92
544.621	7806.86
544.827	7731.08
545.033	7102.36
545.239	7491.47
545.445	7200.66
545.651	7589.77
545.856	7255.95
546.062	7391.12
546.268	7460.75
546.474	7626.64
546.679	7307.15
546.885	7319.44
547.091	7434.13
547.297	8091.52
547.502	7352.21
547.708	7413.65
547.914	7495.57
548.119	8007.56
548.325	7311.25
548.531	7040.92
548.736	8148.87
548.942	7554.96
549.147	7452.56
549.353	7724.94
549.559	8060.8
549.764	7933.83
549.97	7600.01
550.175	7559.05
550.381	7993.22
550.586	7577.48
550.792	7485.33
550.997	7612.3
551.203	8015.75
551.408	7976.84
551.614	7407.5
551.819	7675.79
552.025	8480.64
552.23	8275.84
552.435	7669.64
552.641	8122.24
552.846	7843.72
553.052	8378.24
553.257	7942.02
553.462	7794.57
553.668	7706.51
553.873	8329.09
554.078	7733.13
554.283	7786.38
554.489	8324.99
554.694	8259.46
554.899	7851.91
555.105	8361.86
555.31	8486.78
555.515	8296.32
555.72	7892.87
555.925	7782.28
556.131	8501.12
556.336	8195.97
556.541	7942.02
556.746	7880.58
556.951	8552.32
557.156	8632.19
557.361	8105.86
557.567	8257.41
557.772	9015.16
557.977	8560.51
558.182	7933.83
558.387	8081.28
558.592	8210.31
558.797	8744.83
559.002	8101.76
559.207	8228.74
559.412	8433.54
559.617	8939.38
559.822	8120.2
560.027	8144.77
560.232	8447.87
560.437	8802.17
560.642	8247.17
560.847	8136.58
561.051	8593.28
561.256	8628.09
561.461	8482.69
561.666	8171.4
561.871	8787.83
562.076	8624
562.281	8337.28
562.485	8185.73
562.69	8859.51
562.895	9017.21
563.1	8304.51
563.305	8171.4
563.509	9031.54
563.714	9236.34
563.919	8368
564.123	8398.72
564.328	8787.83
564.533	9009.01
564.737	8316.8
564.942	8331.14
565.147	9267.06
565.351	9119.6
565.556	8503.17
565.761	8507.26
565.965	8953.72
566.17	8580.99
566.374	8505.21
566.579	8437.63
566.784	8998.77
566.988	8892.28
567.193	8380.29
567.397	8572.8
567.602	8443.78
567.806	8759.16
568.011	8775.55
568.215	8712.06
568.42	8879.99
568.624	9025.4
568.828	8679.29
569.033	8667
569.237	9086.84
569.442	9099.13
569.646	8564.61
569.85	8720.25
570.055	9037.69
570.259	9047.93
570.463	8892.28
570.668	8597.37
570.872	8865.66
571.076	9052.02
571.281	8607.61
571.485	9015.16
571.689	9131.89
571.893	9265.01
572.098	8882.04
572.302	8871.8
572.506	9174.9
572.71	9135.99
572.914	8728.44
573.119	8839.03
573.323	9662.32
573.527	9480.05
573.731	9049.97
573.935	8941.43
574.139	9254.77
574.343	8849.27
574.547	8920.95
574.751	9031.54
574.955	9467.76
575.159	9414.51
575.364	8937.34
575.568	8726.39
575.772	9359.22
575.976	9416.56
576.18	8980.34
576.383	8933.24
576.587	9611.12
576.791	9645.93
576.995	8877.94
577.199	8875.9
577.403	9670.51
577.607	9817.96
577.811	9027.45
578.015	9131.89
578.219	9725.8
578.422	9834.35
578.626	9140.08
578.83	9543.53
579.034	9768.81
579.238	9424.75
579.442	9039.73
579.645	9496.43
579.849	9598.83
580.053	9658.22
580.257	9410.42
580.46	9369.46
580.664	9752.43
580.868	9895.78
581.071	9490.29
581.275	9461.62
581.479	9500.53
581.682	9815.91
581.886	9445.23
582.09	9437.04
582.293	10100.58
582.497	9934.7
582.7	9564.01
582.904	9254.77
583.107	9727.85
583.311	9588.59
583.515	9695.08
583.718	9346.93
583.922	9893.74
584.125	10231.65
584.329	9389.94
584.532	9789.29
584.735	10127.21
584.939	9881.45
585.142	9389.94
585.346	9379.7
585.549	10047.33
585.753	9983.85
585.956	9633.64
586.159	9686.89
586.363	10223.46
586.566	10055.53
586.769	9727.85
586.973	9465.71
587.176	10207.08
587.379	10168.16
587.582	10248.04
587.786	9963.37
587.989	9852.78
588.192	10676.06
588.395	9967.46
588.599	10108.77
588.802	10231.65
589.005	10159.97
589.208	9899.88
589.411	9860.97
589.615	10403.68
589.818	10796.89
590.021	10266.47
590.224	10211.17
590.427	10620.77
590.63	10393.44
590.833	9725.8
591.036	9908.07
591.239	10112.87
591.442	10250.08
591.645	10014.57
591.848	10133.35
592.051	10217.32
592.254	10516.32
592.457	10131.3
592.66	10061.67
592.863	10368.87
593.066	10606.43
593.269	10037.09
593.472	10178.4
593.675	10252.13
593.878	10469.22
594.081	10235.75
594.284	10184.55
594.486	10600.29
594.689	10610.53
594.892	10276.71
595.095	10202.98
595.298	10719.07
595.5	10450.78
595.703	10436.45
595.906	10340.19
596.109	10714.97
596.311	10694.49
596.514	10262.37
596.717	10315.62
596.92	11005.78
597.122	10854.23
597.325	10104.68
597.528	10186.6
597.73	11157.33
597.933	10731.36
598.136	10555.23
598.338	10067.81
598.541	11099.99
598.743	11073.37
598.946	10264.42
599.148	10430.3
599.351	10962.78
599.554	11067.22
599.756	10751.84
599.959	10585.95
600.161	11095.89
600.363	11431.76
600.566	10749.79
600.768	10727.26
600.971	11358.03
601.173	11104.09
601.376	10401.63
601.578	10497.89
601.78	11124.57
601.983	11536.21
602.185	10594.14
602.388	10637.15
602.59	11001.69
602.792	10942.3
602.995	10860.38
603.197	10659.68
603.399	11138.9
603.601	11210.58
603.804	10573.66
604.006	10526.56
604.208	10915.67
604.41	10590.05
604.613	10997.59
604.815	10682.2
605.017	11583.31
605.219	10796.89
605.421	11075.41
605.623	10901.34
605.826	11513.68
606.028	11415.38
606.23	10690.4
606.432	11018.07
606.634	11337.55
606.836	11636.56
607.038	10641.25
607.24	10864.47
607.442	11173.72
607.644	11265.88
607.846	10870.62
608.048	10631.01
608.25	11390.8
608.452	10923.87
608.654	10950.49
608.856	10579.81
609.058	11118.42
609.26	11454.29
609.462	10911.58
609.664	11118.42
609.866	11845.45
610.067	11265.88
610.269	11229.01
610.471	11079.51
610.673	11212.63
610.875	11392.85
611.077	10815.32
611.278	11067.22
611.48	11376.47
611.682	11675.47
611.884	11145.05
612.085	10999.64
612.287	11071.32
612.489	11562.83
612.69	10825.56
612.892	11237.2
613.094	11595.6
613.295	11374.42
613.497	10893.15
613.699	11024.22
613.9	11716.43
614.102	11573.07
614.304	11022.17
614.505	10917.72
614.707	11188.05
614.908	11327.32
615.11	10841.95
615.311	11298.64
615.513	11222.87
615.714	11599.69
615.916	10874.71
616.117	11042.65
616.319	11312.98
616.52	11585.36
616.722	11059.03
616.923	11132.76
617.124	11765.58
617.326	11515.73
617.527	11267.92
617.729	11362.13
617.93	11552.59
618.131	11646.8
618.333	11274.07
618.534	11288.4
618.735	11188.05
618.937	11702.09
619.138	11032.41
619.339	11079.51
619.54	11444.05
619.742	11132.76
619.943	11339.6
620.144	11198.29
620.345	11495.25
620.546	11632.46
620.748	11153.24
620.949	11306.84
621.15	11634.51
621.351	11601.74
621.552	11140.95
621.753	11028.31
621.954	11198.29
622.155	11853.64
622.356	11308.88
622.558	11421.52
622.759	11499.34
622.96	11861.83
623.161	11312.98
623.362	11134.81
623.563	11564.88
623.764	11622.22
623.965	11317.08
624.166	11624.27
624.366	11444.05
624.567	11693.9
624.768	11202.39
624.969	11009.88
625.17	11566.93
625.371	11607.89
625.572	11364.18
625.773	10991.45
625.973	11693.9
626.174	11865.93
626.375	11398.99
626.576	11585.36
626.777	11882.31
626.977	12183.37
627.178	11345.75
627.379	11472.72
627.58	11622.22
627.78	11542.35
627.981	11378.51
628.182	11509.58
628.382	11855.69
628.583	11337.55
628.784	11253.59
628.984	11544.4
629.185	11788.11
629.386	11794.25
629.586	11472.72
629.787	11081.56
629.987	11939.66
630.188	11652.94
630.388	11577.17
630.589	11431.76
630.79	12250.95
630.99	11706.19
631.191	11464.53
631.391	11439.95
631.591	12029.77
631.792	11992.9
631.992	11489.1
632.193	11671.37
632.393	12205.89
632.594	11515.73
632.794	11292.5
632.994	11562.83
633.195	11423.57
633.395	11681.61
633.595	11321.17
633.796	11769.68
633.996	11749.2
634.196	12259.14
634.397	11366.23
634.597	11751.24
634.797	11517.78
634.997	12087.11
635.198	11741
635.398	11206.48
635.598	11919.18
635.798	12023.62
635.998	11939.66
636.199	11362.13
636.399	11689.81
636.599	11452.24
636.799	11624.27
636.999	11857.74
637.199	12095.3
637.399	12136.26
637.599	11478.86
637.799	11605.84
637.999	11896.65
638.199	12400.45
638.399	11566.93
638.599	11550.54
638.799	12244.81
638.999	12347.2
639.199	11888.46
639.399	11904.84
639.599	12390.21
639.799	11548.5
639.999	11353.94
640.199	11773.77
640.399	11702.09
640.599	11751.24
640.799	11802.44
640.998	11945.8
641.198	12253
641.398	12134.21
641.598	11661.13
641.798	11718.48
641.997	13080.38
642.197	12060.49
642.397	12144.45
642.597	11728.72
642.796	12422.98
642.996	12515.14
643.196	11892.55
643.395	11812.68
643.595	12054.34
643.795	11312.98
643.994	12001.1
644.194	11900.75
644.394	12328.77
644.593	11878.22
644.793	11845.45
644.992	11943.75
645.192	12455.75
645.392	11702.09
645.591	12126.02
645.791	11984.71
645.99	12320.58
646.19	12181.32
646.389	12058.44
646.589	11925.32
646.788	12402.5
646.987	12236.61
647.187	12390.21
647.386	12171.08
647.586	12080.97
647.785	12318.53
647.984	11997
648.184	12281.67
648.383	11947.85
648.582	11923.27
648.782	11648.85
648.981	11939.66
649.18	11880.27
649.38	12173.13
649.579	11947.85
649.778	11978.57
649.977	12490.56
650.177	12588.86
650.376	12044.1
650.575	11927.37
650.774	12836.67
650.973	12185.41
651.173	11767.63
651.372	12091.21
651.571	12250.95
651.77	12592.96
651.969	11943.75
652.168	12138.31
652.367	12003.14
652.566	12310.34
652.765	12121.93
652.964	12484.42
653.163	12785.47
653.362	12492.61
653.561	11849.55
653.76	12156.74
653.959	12324.68
654.158	12642.11
654.357	12291.91
654.556	12076.87
654.755	12683.07
654.954	12506.95
655.153	12089.16
655.352	12353.35
655.551	12554.05
655.749	12214.09
655.948	12246.85
656.147	12310.34
656.346	12459.84
656.545	12377.92
656.743	12265.28
656.942	12148.55
657.141	12463.94
657.34	12226.37
657.538	11962.19
657.737	12271.43
657.936	12490.56
658.135	12558.14
658.333	12119.88
658.532	12502.85
658.731	12738.37
658.929	12513.09
659.128	12496.71
659.326	12238.66
659.525	12906.3
659.724	12554.05
659.922	11904.84
660.121	11810.64
660.319	12455.75
660.518	12080.97
660.716	12132.17
660.915	12214.09
661.113	12824.38
661.312	12179.27
661.51	12291.91
661.709	12302.15
661.907	12742.46
662.105	12869.44
662.304	12517.18
662.502	12554.05
662.701	12924.73
662.899	12287.81
663.097	12738.37
663.296	12271.43
663.494	12910.39
663.692	12963.64
663.891	12171.08
664.089	12189.51
664.287	12404.55
664.485	12959.55
664.684	12230.47
664.882	12336.96
665.08	12427.07
665.278	12779.32
665.476	12343.11
665.675	12627.78
665.873	12668.73
666.071	12597.06
666.269	12193.61
666.467	12476.23
666.665	12304.2
666.863	12390.21
667.061	12453.7
667.259	12234.57
667.457	12554.05
667.655	12713.79
667.853	12132.17
668.051	12343.11
668.249	12289.86
668.447	12719.93
668.645	12187.46
668.843	12451.65
669.041	12689.21
669.239	12502.85
669.437	12291.91
669.635	12224.33
669.833	12402.5
670.031	12648.25
670.229	12445.51
670.426	12273.48
670.624	12390.21
670.822	12250.95
671.02	12062.54
671.218	12601.15
671.415	12267.33
671.613	12644.16
671.811	12664.64
672.009	12459.84
672.206	12781.37
672.404	12517.18
672.602	12609.34
672.799	12396.35
672.997	12619.58
673.195	12595.01
673.392	12177.22
673.59	11960.14
673.788	12232.52
673.985	11829.07
674.183	12312.39
674.38	12468.03
674.578	12705.6
674.775	12369.73
674.973	12072.78
675.17	11978.57
675.368	12562.24
675.565	12623.68
675.763	12177.22
675.96	12142.41
676.158	12678.97
676.355	12291.91
676.553	12291.91
676.75	12185.41
676.947	12724.03
677.145	12611.39
677.342	12203.85
677.539	12339.01
677.737	12734.27
677.934	12758.85
678.131	12285.76
678.329	12087.11
678.526	12779.32
678.723	12652.35
678.92	12373.83
679.118	12236.61
679.315	12189.51
679.512	12867.39
679.709	12195.65
679.906	12130.12
680.104	12539.71
680.301	12427.07
680.498	11687.76
680.695	12078.92
680.892	12330.82
681.089	11976.52
681.286	12277.57
681.483	11751.24
681.68	12287.81
681.877	12367.68
682.075	12005.19
682.272	11978.57
682.469	12281.67
682.665	12187.46
682.862	11833.16
683.059	11910.99
683.256	12205.89
683.453	12646.21
683.65	12087.11
683.847	12072.78
684.044	12269.38
684.241	11978.57
684.438	12351.3
684.635	11730.76
684.831	12617.54
685.028	12570.43
685.225	11806.54
685.422	12056.39
685.619	12029.77
685.815	12214.09
686.012	11638.61
686.209	12037.96
686.405	12214.09
686.602	12322.63
686.799	11931.47
686.996	12040.01
687.192	11781.96
687.389	12554.05
687.586	11976.52
687.782	11865.93
687.979	12392.26
688.175	12281.67
688.372	12009.29
688.568	11964.23
688.765	11910.99
688.962	12433.22
689.158	11896.65
689.355	11900.75
689.551	12429.12
689.748	12011.34
689.944	11962.19
690.14	11833.16
690.337	12375.88
690.533	12144.45
690.73	11738.96
690.926	11923.27
691.123	12173.13
691.319	11779.92
691.515	11650.89
691.712	11790.16
691.908	12023.62
692.104	11908.94
692.301	12054.34
692.497	11781.96
692.693	12463.94
692.889	12291.91
693.086	11923.27
693.282	11595.6
693.478	11964.23
693.674	12455.75
693.87	11650.89
694.067	11718.48
694.263	11968.33
694.459	12154.69
694.655	11997
694.851	11675.47
695.047	12019.53
695.243	12226.37
695.439	11841.36
695.635	11444.05
695.831	11861.83
696.027	11863.88
696.224	11593.55
696.42	12050.25
696.615	12359.49
696.811	12177.22
697.007	11550.54
697.203	11605.84
697.399	11867.98
697.595	12021.58
697.791	11487.06
697.987	11566.93
698.183	11638.61
698.379	11341.65
698.575	11583.31
698.77	11618.13
698.966	11980.62
699.162	11906.89
699.358	11419.47
699.554	11579.22
699.749	12181.32
699.945	11984.71
700.141	11562.83
700.337	11607.89
700.532	11771.72
700.728	11442
700.924	11456.34
701.119	11519.82
701.315	12001.1
701.511	11681.61
701.706	11568.98
701.902	11300.69
702.097	11587.41
702.293	12113.74
702.489	11599.69
702.684	11532.11
702.88	11763.53
703.075	11661.13
703.271	11390.8
703.466	11192.15
703.662	11786.06
703.857	11650.89
704.053	11345.75
704.248	11411.28
704.443	11941.71
704.639	12083.02
704.834	11515.73
705.03	11382.61
705.225	11913.03
705.42	11925.32
705.616	11509.58
705.811	11083.61
706.006	11528.02
706.202	11853.64
706.397	11353.94
706.592	11255.64
706.787	11771.72
706.983	11562.83
707.178	11689.81
707.373	11444.05
707.568	11902.79
707.763	11798.35
707.959	11360.08
708.154	11362.13
708.349	11718.48
708.544	11638.61
708.739	11583.31
708.934	11050.84
709.129	11820.88
709.324	11677.52
709.519	11186.01
709.714	11147.09
709.909	11906.89
710.104	11654.99
710.299	11415.38
710.494	11409.23
710.689	11583.31
710.884	11370.32
711.079	11482.96
711.274	11458.39
711.469	11808.59
711.664	11591.5
711.859	11220.82
712.054	11396.95
712.249	11362.13
712.443	11845.45
712.638	11048.79
712.833	11052.89
713.028	11546.45
713.223	11607.89
713.417	11427.67
713.612	11278.16
713.807	11616.08
714.002	11906.89
714.196	11501.39
714.391	10893.15
714.586	11597.65
714.78	11194.2
714.975	11132.76
715.17	10987.35
715.364	11239.25
715.559	11720.53
715.754	10655.58
715.948	10975.06
716.143	11896.65
716.337	11143
716.532	11448.15
716.726	11001.69
716.921	11503.44
717.115	11810.64
717.31	10932.06
717.504	11661.13
717.699	11247.44
717.893	11650.89
718.088	11040.6
718.282	10946.39
718.476	11204.44
718.671	11249.49
718.865	10911.58
719.059	10876.76
719.254	11018.07
719.448	11702.09
719.642	12455.75
719.837	10772.32
720.031	11325.27
720.225	11337.55
720.419	11063.13
720.614	10762.08
720.808	11280.21
721.002	10954.58
721.196	10727.26
721.39	10833.75
721.585	11538.26
721.779	11095.89
721.973	10698.59
722.167	10657.63
722.361	11132.76
722.555	11571.02
722.749	10499.94
722.943	10792.8
723.137	10727.26
723.331	11157.33
723.525	10833.75
723.719	10745.69
723.913	11290.45
724.107	11210.58
724.301	10504.03
724.495	10667.87
724.689	11708.24
724.883	11366.23
725.077	10624.86
725.271	10815.32
725.465	11233.11
725.659	10932.06
725.853	10792.8
726.046	10655.58
726.24	10698.59
726.434	11075.41
726.628	10739.55
726.822	10760.03
727.015	11376.47
727.209	10882.91
727.403	10770.27
727.596	10573.66
727.79	11161.43
727.984	11409.23
728.177	10688.35
728.371	10782.56
728.565	11001.69
728.758	10815.32
728.952	10450.78
729.146	10608.48
729.339	11163.48
729.533	10751.84
729.726	10719.07
729.92	10762.08
730.113	11175.77
730.307	11044.7
730.5	10788.7
730.694	10602.33
730.887	10889.05
731.081	11198.29
731.274	10755.93
731.468	10864.47
731.661	10983.26
731.854	10821.47
732.048	10839.9
732.241	10495.84
732.435	10538.85
732.628	11024.22
732.821	10649.44
733.014	10788.7
733.208	10747.74
733.401	11167.57
733.594	10694.49
733.788	10819.42
733.981	11282.26
734.174	11116.37
734.367	10639.2
734.56	10733.4
734.754	11233.11
734.947	11048.79
735.14	10485.6
735.333	10690.4
735.526	11136.85
735.719	10620.77
735.912	10622.81
736.105	10577.76
736.298	11024.22
736.491	10364.77
736.684	10653.53
736.877	10542.94
737.07	10784.6
737.263	11462.48
737.456	10514.27
737.649	10444.64
737.842	10712.92
738.035	10870.62
738.228	10551.13
738.421	10551.13
738.614	11200.34
738.807	11145.05
739	10215.27
739.192	10528.61
739.385	11007.83
739.578	10903.39
739.771	10688.35
739.964	10329.95
740.156	11157.33
740.349	10825.56
740.542	10956.63
740.735	10114.92
740.927	10704.73
741.12	10428.26
741.313	10418.02
741.505	10585.95
741.698	10825.56
741.891	10989.4
742.083	10581.85
742.276	10411.87
742.468	10661.73
742.661	10803.04
742.854	10291.04
743.046	10356.58
743.239	11087.7
743.431	10729.31
743.624	10301.28
743.816	9973.61
744.009	10825.56
744.201	10796.89
744.393	10583.9
744.586	10377.06
744.778	11022.17
744.971	10499.94
745.163	10338.15
745.355	10534.75
745.548	10678.11
745.74	10649.44
745.932	10164.07
746.125	10375.01
746.317	11134.81
746.509	10563.42
746.702	10317.67
746.894	10528.61
747.086	10774.36
747.278	11030.36
747.471	10622.81
747.663	10303.33
747.855	10624.86
748.047	10921.82
748.239	10227.56
748.431	10260.32
748.623	10940.25
748.815	10784.6
749.008	10245.99
749.2	10133.35
749.392	10661.73
749.584	10606.43
749.776	10465.12
749.968	10495.84
750.16	11091.8
750.352	10428.26
750.544	10350.43
750.736	10377.06
750.928	10663.77
751.12	10592.09
751.311	10200.93
751.503	10276.71
751.695	10557.28
751.887	10491.74
752.079	10235.75
752.271	10190.69
752.463	11239.25
752.654	10563.42
752.846	10092.39
753.038	10162.02
753.23	10092.39
753.421	10682.2
753.613	10219.36
753.805	10534.75
753.997	10526.56
754.188	10686.3
754.38	10131.3
754.572	10258.28
754.763	10137.45
754.955	10293.09
755.146	10172.26
755.338	10149.73
755.53	10440.54
755.721	10368.87
755.913	9688.94
756.104	10110.82
756.296	10131.3
756.487	10438.5
756.679	9985.9
756.87	9830.25
757.062	9903.98
757.253	10362.72
757.445	10008.42
757.636	9918.31
757.827	10235.75
758.019	10901.34
758.21	9881.45
758.401	9949.03
758.593	10624.86
758.784	10430.3
758.975	9760.62
759.167	9803.63
759.358	10393.44
759.549	10354.53
759.74	9748.33
759.932	9826.15
760.123	10352.48
760.314	10026.85
760.505	9822.06
760.696	9623.41
760.888	10487.65
761.079	9996.14
761.27	9578.35
761.461	9664.36
761.652	10258.28
761.843	9908.07
762.034	9711.47
762.225	10000.23
762.416	10151.78
762.607	9828.2
762.798	9690.99
762.989	9670.51
763.18	10741.6
763.371	9883.5
763.562	9500.53
763.753	9559.92
763.944	10002.28
764.135	10131.3
764.326	9731.95
764.517	9670.51
764.708	9981.8
764.899	10002.28
765.089	9437.04
765.28	9269.11
765.471	9955.18
765.662	10135.4
765.853	9625.45
766.043	9400.18
766.234	9979.75
766.425	9936.74
766.615	9561.97
766.806	9299.83
766.997	9985.9
767.187	9729.9
767.378	9469.81
767.569	9162.61
767.759	9940.84
767.95	9695.08
768.141	9664.36
768.331	9449.33
768.522	9543.53
768.712	10065.77
768.903	9199.48
769.093	9187.19
769.284	9916.26
769.474	9682.8
769.665	9023.35
769.855	9162.61
770.046	9695.08
770.236	9357.17
770.426	9324.4
770.617	9133.94
770.807	9482.1
770.998	9367.41
771.188	9318.26
771.378	9047.93
771.569	9783.15
771.759	9494.38
771.949	8875.9
772.139	8920.95
772.33	9467.76
772.52	9707.37
772.71	9283.44
772.9	9049.97
773.09	9918.31
773.281	9756.52
773.471	8984.44
773.661	9095.03
773.851	9469.81
774.041	9316.21
774.231	9072.5
774.421	9240.43
774.611	9613.17
774.802	9189.24
774.992	9023.35
775.182	8972.15
775.372	9187.19
775.562	9514.86
775.752	9148.28
775.942	8789.88
776.131	9453.42
776.321	9158.52
776.511	8974.2
776.701	8972.15
776.891	9312.11
777.081	8869.75
777.271	9056.12
777.461	8720.25
777.651	9246.58
777.84	9277.3
778.03	8849.27
778.22	8798.07
778.41	9332.59
778.599	8732.54
778.789	8767.35
778.979	8656.76
779.169	8853.37
779.358	8777.59
779.548	8896.38
779.738	8566.65
779.927	8822.65
780.117	8695.68
780.307	8597.37
780.496	8468.35
780.686	9125.75
780.875	9389.94
781.065	8744.83
781.254	8716.15
781.444	9043.83
781.633	8902.52
781.823	8329.09
782.012	8421.25
782.202	8892.28
782.391	8722.3
782.581	8292.23
782.77	8712.06
782.96	8974.2
783.149	8646.52
783.338	8490.88
783.528	8574.85
783.717	8968.06
783.906	9000.82
784.096	8667
784.285	8329.09
784.474	8580.99
784.663	8331.14
784.853	8515.45
785.042	8468.35
785.231	8638.33
785.42	8959.86
785.61	8376.19
785.799	8390.53
785.988	8359.81
786.177	8589.18
786.366	8445.82
786.555	8521.6
786.744	8818.55
786.933	8413.06
787.122	8413.06
787.312	8355.71
787.501	8501.12
787.69	8728.44
787.879	8388.48
788.068	7987.08
788.257	8077.19
788.445	8294.27
788.634	8351.62
788.823	7997.32
789.012	9097.08
789.201	8914.81
789.39	8343.42
789.579	8109.96
789.768	8370.05
789.957	8394.62
790.145	8126.34
790.334	7845.77
790.523	8359.81
790.712	8214.4
790.9	8234.88
791.089	7876.49
791.278	8390.53
791.467	8288.13
791.655	8433.54
791.844	8456.06
792.033	8359.81
792.221	8249.22
792.41	7999.37
792.599	7657.36
792.787	8609.66
792.976	8499.07
793.164	7759.75
793.353	8007.56
793.541	8413.06
793.73	8279.94
793.918	8011.65
794.107	7716.75
794.295	8198.02
794.484	8216.45
794.672	7858.06
794.861	7921.54
795.049	8271.75
795.238	8480.64
795.426	7673.74
795.614	8017.8
795.803	8097.67
795.991	8617.85
796.179	7997.32
796.368	7843.72
796.556	8472.45
796.744	7882.63
796.932	7761.8
797.121	7810.95
797.309	7823.24
797.497	8386.43
797.685	7862.15
797.874	7815.05
798.062	8048.52
798.25	8423.3
798.438	7843.72
798.626	7798.66
798.814	8044.42
799.002	8515.45
799.19	7948.17
799.378	7886.73
799.566	8089.48
799.755	8218.5
799.943	7911.3
800.131	7616.4
800.318	8130.44
800.506	8236.93
800.694	7813
800.882	7999.37
801.07	8476.54
801.258	8042.37
801.446	7978.89
801.634	7786.38
801.822	8017.8
802.01	7995.27
802.197	7704.46
802.385	7864.2
802.573	8173.44
802.761	8114.05
802.949	7952.26
803.136	7765.9
803.324	8232.83
803.512	8251.27
803.699	7868.3
803.887	7778.19
804.075	8576.89
804.262	7827.34
804.45	7591.82
804.638	7917.45
804.825	7870.34
805.013	7798.66
805.201	7808.9
805.388	7853.96
805.576	7987.08
805.763	8511.36
805.951	7716.75
806.138	8046.47
806.326	8519.55
806.513	8093.57
806.701	7782.28
806.888	7647.12
807.075	8181.64
807.263	8589.18
807.45	7425.93
807.638	7946.12
807.825	8617.85
808.012	8451.97
808.2	7888.78
808.387	8105.86
808.574	8245.12
808.761	8494.97
808.949	8015.75
809.136	7985.03
809.323	8122.24
809.51	8130.44
809.698	8128.39
809.885	8019.85
810.072	8339.33
810.259	8425.34
810.446	8169.35
810.633	7905.16
810.82	8566.65
811.008	8458.11
811.195	8132.48
811.382	8122.24
811.569	8294.27
811.756	7987.08
811.943	8095.62
812.13	7944.07
812.317	8069
812.504	8103.81
812.691	8136.58
812.878	8220.55
813.064	8519.55
813.251	8236.93
813.438	7835.53
813.625	8157.06
813.812	8269.7
813.999	8251.27
814.186	8007.56
814.372	8130.44
814.559	8228.74
814.746	8583.04
814.933	7982.98
815.12	8091.52
815.306	8001.41
815.493	8056.71
815.68	8062.85
815.866	7950.21
816.053	8632.19
816.24	8533.89
816.426	8011.65
816.613	7706.51
816.799	8365.95
816.986	8468.35
817.173	7845.77
817.359	7901.06
817.546	8136.58
817.732	7714.7
817.919	7589.77
818.105	7954.31
818.292	7931.78
818.478	8210.31
818.665	8040.33
818.851	7993.22
819.037	8624
819.224	8241.03
819.41	7835.53
819.597	7935.88
819.783	8638.33
819.969	8308.61
820.156	7774.09
820.342	7679.88
820.528	9013.11
820.714	7954.31
820.901	8069
821.087	7907.21
821.273	8427.39
821.459	8013.7
821.646	7679.88
821.832	7634.83
822.018	8195.97
822.204	8261.51
822.39	7796.62
822.576	7802.76
822.762	8212.35
822.948	8292.23
823.134	7925.64
823.32	7583.63
823.507	7823.24
823.693	8173.44
823.879	8339.33
824.065	7507.85
824.25	8128.39
824.436	7726.99
824.622	7622.54
824.808	7620.49
824.994	7759.75
825.18	7602.06
825.366	7530.38
825.552	7614.35
825.738	7819.14
825.923	8050.57
826.109	7913.35
826.295	7509.9
826.481	7798.66
826.667	7634.83
826.852	7655.31
827.038	7393.17
827.224	8032.13
827.409	8296.32
827.595	7548.81
827.781	7743.37
827.966	8107.91
828.152	8028.04
828.338	7690.12
828.523	7260.05
828.709	7647.12
828.894	8042.37
829.08	7716.75
829.266	7319.44
829.451	7675.79
829.637	7774.09
829.822	7663.5
830.008	7264.15
830.193	7985.03
830.378	8230.79
830.564	7481.23
830.749	7167.89
830.935	7933.83
831.12	7925.64
831.305	7286.67
831.491	7573.39
831.676	7171.99
831.861	7911.3
832.047	7497.61
832.232	7210.9
832.417	7935.88
832.602	7634.83
832.788	7307.15
832.973	7159.7
833.158	7677.83
833.343	7817.1
833.528	7434.13
833.714	7536.52
833.899	7657.36
834.084	8003.46
834.269	7602.06
834.454	7317.39
834.639	7858.06
834.824	7464.85
835.009	7462.8
835.194	7511.95
835.379	7708.55
835.564	7886.73
835.749	7378.83
835.934	7159.7
836.119	7794.57
836.304	7530.38
836.489	7169.94
836.674	7458.7
836.859	7128.98
837.044	7815.05
837.228	7290.77
837.413	7008.15
837.598	7604.11
837.783	7649.16
837.968	7251.86
838.152	6758.3
838.337	7028.63
838.522	7688.07
838.707	7462.8
838.891	7378.83
839.076	7442.32
839.261	7851.91
839.445	7204.75
839.63	7188.37
839.815	7645.07
839.999	7270.29
840.184	6956.95
840.368	7128.98
840.553	7530.38
840.737	7602.06
840.922	6950.81
841.106	6893.46
841.291	7126.93
841.475	7360.4
841.66	7053.2
841.844	6924.18
842.029	7923.59
842.213	7081.88
842.397	6903.7
842.582	6735.77
842.766	7548.81
842.951	7475.09
843.135	6846.36
843.319	6856.6
843.504	7315.34
843.688	7456.65
843.872	6610.84
844.056	6860.7
844.241	7280.53
844.425	7022.48
844.609	7118.74
844.793	6662.04
844.977	7260.05
845.161	7237.52
845.346	6739.87
845.53	6561.69
845.714	7030.68
845.898	7546.76
846.082	6586.27
846.266	6866.84
846.45	7331.73
846.634	7098.26
846.818	6731.67
847.002	6967.19
847.186	7329.68
847.37	6707.1
847.554	6649.75
847.738	6729.63
847.922	7171.99
848.106	7090.07
848.29	6528.92
848.473	6524.83
848.657	6977.43
848.841	6799.26
849.025	6655.9
849.209	6352.8
849.392	7018.39
849.576	6621.08
849.76	6162.34
849.944	6598.56
850.127	7507.85
850.311	6647.71
850.495	6330.27
850.678	6512.54
850.862	7169.94
851.046	7270.29
851.229	6922.13
851.413	6344.61
851.596	6870.94
851.78	6698.91
851.964	6635.42
852.147	6461.34
852.331	7442.32
852.514	7157.65
852.698	6494.11
852.881	6238.11
853.065	6909.85
853.248	6760.34
853.431	6610.84
853.615	6449.05
853.798	7303.06
853.982	6760.34
854.165	6533.02
854.348	6305.7
854.532	6414.24
854.715	6524.83
854.898	6229.92
855.081	6461.34
855.265	6780.82
855.448	6965.14
855.631	6170.53
855.814	6098.85
855.997	6903.7
856.181	6426.53
856.364	6256.54
856.547	6004.64
856.73	6559.64
856.913	6627.23
857.096	6092.71
857.279	6229.92
857.462	6414.24
857.645	6932.37
857.828	6385.57
858.011	6328.22
858.194	6533.02
858.377	6541.21
858.56	6070.18
858.743	6317.98
858.926	6201.25
859.109	6557.6
859.292	6139.81
859.475	6039.46
859.658	6637.47
859.841	6553.5
860.023	6029.22
860.206	5994.4
860.389	6518.68
860.572	6829.98
860.755	6080.42
860.937	6059.94
861.12	6197.15
861.303	6377.37
861.486	6129.57
861.668	6154.15
861.851	6518.68
862.034	6432.67
862.216	6229.92
862.399	5746.6
862.581	6428.57
862.764	6596.51
862.947	5926.82
863.129	5910.44
863.312	5859.24
863.494	6647.71
863.677	6010.79
863.859	5722.02
864.042	6299.55
864.224	6461.34
864.406	6002.6
864.589	5578.67
864.771	6098.85
864.954	6039.46
865.136	5633.96
865.318	5599.15
865.501	6307.74
865.683	5590.95
865.865	5719.98
866.048	5705.64
866.23	5990.31
866.412	6031.27
866.594	5607.34
866.777	5855.14
866.959	6045.6
867.141	5697.45
867.323	5947.3
867.505	5746.6
867.687	5871.53
867.869	6035.36
868.052	5879.72
868.234	5617.58
868.416	6025.12
868.598	6213.54
868.78	5691.31
868.962	5674.92
869.144	6197.15
869.326	6125.47
869.508	5560.24
869.69	5511.08
869.872	5820.33
870.054	6293.41
870.236	5468.08
870.417	5742.5
870.599	5846.95
870.781	6338.46
870.963	5765.03
871.145	5574.57
871.327	5748.65
871.508	5967.78
871.69	5498.8
871.872	5636.01
872.054	5851.05
872.235	5941.16
872.417	5588.91
872.599	5513.13
872.78	6258.59
872.962	6025.12
873.144	5367.73
873.325	5582.76
873.507	6139.81
873.689	5824.42
873.87	5519.28
874.052	5541.8
874.233	5793.7
874.415	5965.73
874.596	5713.83
874.778	5416.88
874.959	5791.66
875.141	5967.78
875.322	5668.78
875.503	5509.04
875.685	6002.6
875.866	5451.69
876.048	5541.8
876.229	5357.49
876.41	5668.78
876.592	6004.64
876.773	5724.07
876.954	5361.58
877.136	6227.87
877.317	5805.99
877.498	5363.63
877.679	5574.57
877.86	5955.49
878.042	5926.82
878.223	5666.73
878.404	5894.05
878.585	5951.4
878.766	6461.34
878.947	5791.66
879.128	5691.31
879.309	5894.05
879.49	6205.35
879.672	5562.28
879.853	5576.62
880.034	5828.52
880.215	5894.05
880.396	5668.78
880.576	5533.61
880.757	5795.75
880.938	6295.46
881.119	5533.61
881.3	5654.44
881.481	5846.95
881.662	6758.3
881.843	5562.28
882.023	5582.76
882.204	5904.29
882.385	5920.68
882.566	5674.92
882.747	5658.54
882.927	5875.62
883.108	6143.91
883.289	5674.92
883.469	5996.45
883.65	6066.08
883.831	6049.7
884.011	5816.23
884.192	5644.2
884.373	6121.38
884.553	6102.95
884.734	5918.63
884.914	6045.6
885.095	6789.02
885.275	6430.62
885.456	6158.24
885.636	5728.17
885.817	5914.53
885.997	6055.84
886.178	5672.87
886.358	6002.6
886.538	6338.46
886.719	7065.49
886.899	5773.22
887.08	5980.07
887.26	6590.36
887.44	5902.25
887.621	5844.9
887.801	6143.91
887.981	6649.75
888.161	6410.14
888.342	6043.56
888.522	5810.09
888.702	6287.26
888.882	6377.37
889.062	5889.96
889.242	5791.66
889.423	6623.13
889.603	6459.29
889.783	6043.56
889.963	5945.25
890.143	6444.96
890.323	6582.17
890.503	6150.05
890.683	6021.03
890.863	6191.01
891.043	6334.37
891.223	6158.24
891.403	6285.22
891.583	6104.99
891.763	6281.12
891.943	6043.56
892.122	5867.43
892.302	6465.44
892.482	6156.19
892.662	6158.24
892.842	6082.47
893.022	6371.23
893.201	6174.63
893.381	6143.91
893.561	6029.22
893.741	6455.2
893.92	6240.16
894.1	6148
894.28	6039.46
894.459	6600.6
894.639	6188.96
894.819	5896.1
894.998	6131.62
895.178	6373.28
895.357	6254.5
895.537	5885.86
895.716	5717.93
895.896	6072.23
896.075	6420.38
896.255	5881.77
896.434	5642.15
896.614	6467.49
896.793	6465.44
896.973	5994.4
897.152	5849
897.331	6102.95
897.511	6455.2
897.69	5672.87
897.87	5697.45
898.049	6225.82
898.228	6031.27
898.407	5830.57
898.587	5889.96
898.766	5828.52
898.945	6360.99
899.124	5814.18
899.304	5930.92
899.483	6029.22
899.662	6631.32
899.841	5697.45
900.02	5558.19
900.199	6258.59
900.378	6014.88
900.557	5636.01
900.737	5631.91
900.916	6160.29
901.095	6082.47
901.274	5988.26
901.453	5533.61
901.632	5724.07
901.811	5613.48
901.989	5371.82
902.168	5427.12
902.347	5971.88
902.526	5629.87
902.705	5406.64
902.884	5386.16
903.063	6109.09
903.242	6057.89
903.42	5074.87
903.599	5560.24
903.778	5865.38
903.957	6014.88
904.135	5337.01
904.314	5382.06
904.493	5730.22
904.672	5750.7
904.85	5296.05
905.029	5275.57
905.207	5597.1
905.386	6090.66
905.565	5083.06
905.743	5009.33
905.922	5457.84
906.1	5560.24
906.279	4896.69
906.457	4880.31
906.636	5263.28
906.814	5160.88
906.993	4937.65
907.171	4872.12
907.35	5337.01
907.528	5541.8
907.707	5205.94
907.885	4747.19
908.063	5527.47
908.242	4964.28
908.42	4800.44
908.598	4581.31
908.777	5220.27
908.955	4804.53
909.133	4908.98
909.311	4669.37
909.49	5156.79
909.668	4999.09
909.846	4872.12
910.024	4509.63
910.202	5107.63
910.38	5164.98
910.559	4843.45
910.737	4788.15
910.915	5132.21
911.093	5287.86
911.271	4982.71
911.449	5275.57
911.627	5390.25
911.805	5838.76
911.983	4792.25
912.161	4923.32
912.339	5406.64
912.517	5699.5
912.695	5255.09
912.872	5042.1
913.05	5099.44
913.228	5443.5
913.406	5027.76
913.584	5033.91
913.762	5484.46
913.939	5240.75
914.117	5238.7
914.295	4976.56
914.473	5218.22
914.65	5455.79
914.828	4831.16
915.006	4915.12
915.184	5091.25
915.361	5298.1
915.539	5158.83
915.716	5156.79
915.894	5470.12
916.072	5509.04
916.249	5124.02
916.427	5386.16
916.604	5224.37
916.782	5255.09
916.959	4890.55
917.137	4945.84
917.314	5283.76
917.492	5339.05
917.669	5248.94
917.847	4923.32
918.024	5291.95
918.201	4968.37
918.379	4913.08
918.556	5029.81
918.733	5285.81
918.911	5173.17
919.088	5087.15
919.265	4968.37
919.442	5289.9
919.62	4923.32
919.797	4724.66
919.974	4519.87
920.151	5175.22
920.328	5134.26
920.506	4820.92
920.683	4904.89
920.86	4665.27
921.037	4841.4
921.214	4839.35
921.391	4792.25
921.568	5377.97
921.745	4851.64
921.922	4880.31
922.099	4685.75
922.276	5154.74
922.453	5033.91
922.63	4591.55
922.807	4995
922.984	5101.49
923.161	4763.58
923.338	4798.39
923.514	4566.97
923.691	4939.7
923.868	5038
924.045	4677.56
924.222	4505.53
924.399	5027.76
924.575	5064.63
924.752	4759.48
924.929	4677.56
925.105	5050.29
925.282	4642.75
925.459	4517.82
925.635	4599.74
925.812	4943.8
925.989	4739
926.165	4679.61
926.342	4517.82
926.518	4550.59
926.695	4704.18
926.871	4468.67
927.048	4280.25
927.224	4863.93
927.401	4505.53
927.577	4472.76
927.754	4222.91
927.93	4972.47
928.107	4978.61
928.283	4394.94
928.459	4550.59
928.636	4767.67
928.812	4550.59
928.988	4188.1
929.165	4169.66
929.341	4440
929.517	4528.06
929.693	4677.56
929.87	3964.87
930.046	4646.84
930.222	4407.23
930.398	4157.38
930.574	4298.69
930.751	4423.61
930.927	4091.84
931.103	4167.62
931.279	4143.04
931.455	4177.86
931.631	4329.41
931.807	3979.2
931.983	3946.44
932.159	3993.54
932.335	4476.86
932.511	4112.32
932.687	4095.94
932.863	4270.01
933.039	4263.87
933.215	3874.76
933.391	3676.1
933.566	4018.11
933.742	4184
933.918	3919.81
934.094	3598.28
934.27	3968.96
934.445	3882.95
934.621	3815.37
934.797	3596.23
934.973	4087.75
935.148	4020.16
935.324	3596.23
935.5	3284.94
935.675	3858.37
935.851	3712.97
936.027	3280.85
936.202	3358.67
936.378	3616.71
936.553	3428.3
936.729	3676.1
936.904	3065.81
937.08	3090.38
937.255	3215.31
937.431	2893.78
937.606	2979.79
937.782	3188.69
937.957	3252.17
938.133	3008.47
938.308	2781.14
938.483	3063.76
938.659	2822.1
938.834	2865.11
939.009	2621.4
939.185	2895.83
939.36	2645.98
939.535	2371.55
939.71	2445.27
939.886	3133.39
940.061	2809.81
940.236	2707.41
940.411	2437.08
940.586	2891.73
940.761	2971.6
940.937	2340.83
941.112	2301.92
941.287	2727.89
941.462	2744.28
941.637	2142.18
941.812	2158.56
941.987	2572.25
942.162	2473.95
942.337	2191.33
942.512	2213.85
942.687	2666.46
942.862	2734.04
943.037	2060.26
943.212	1775.59
943.386	2420.7
943.561	2467.8
943.736	2365.4
943.911	2660.31
944.086	2547.67
944.26	2598.87
944.435	2215.9
944.61	2250.72
944.785	2680.79
944.959	2936.79
945.134	2254.81
945.309	2187.23
945.483	2207.71
945.658	2562.01
945.833	1918.95
946.007	1875.94
946.182	2797.53
946.357	2295.77
946.531	1990.63
946.706	2152.42
946.88	2007.01
947.055	2562.01
947.229	2160.61
947.404	2080.74
947.578	2836.44
947.752	2308.06
947.927	2070.5
948.101	1972.19
948.276	2314.2
948.45	2289.63
948.624	2392.03
948.799	2148.32
948.973	2537.43
949.147	2170.85
949.321	2277.34
949.496	2150.37
949.67	2756.57
949.844	2488.28
950.018	2154.46
950.193	2273.25
950.367	2971.6
950.541	2523.1
950.715	2478.04
950.889	2482.14
951.063	2387.93
951.237	2707.41
951.411	2023.39
951.585	2093.02
951.759	2609.11
951.933	2580.44
952.107	2340.83
952.281	2494.43
952.455	2838.48
952.629	2762.71
952.803	2351.07
952.977	2338.78
953.151	2893.78
953.325	2709.46
953.499	2326.49
953.672	2267.1
953.846	2469.85
954.02	2527.19
954.194	2306.01
954.368	2248.67
954.541	2840.53
954.715	2375.64
954.889	2422.75
955.062	2418.65
955.236	2527.19
955.41	2498.52
955.583	2568.15
955.757	2205.66
955.93	2588.63
956.104	2484.19
956.278	2547.67
956.451	2437.08
956.625	2772.95
956.798	3063.76
956.972	2731.99
957.145	2353.12
957.319	2756.57
957.492	2654.17
957.665	2654.17
957.839	2365.4
958.012	2772.95
958.185	2496.47
958.359	2437.08
958.532	2693.08
958.705	2840.53
958.879	2758.61
959.052	2490.33
959.225	2179.04
959.398	2693.08
959.572	2779.09
959.745	2441.18
959.918	2506.71
960.091	2609.11
960.264	2822.1
960.438	2316.25
960.611	2377.69
960.784	2916.31
960.957	2605.02
961.13	2756.57
961.303	2508.76
961.476	2723.8
961.649	2895.83
961.822	2244.57
961.995	2422.75
962.168	2775
962.341	2654.17
962.514	2488.28
962.686	2406.36
962.859	2904.02
963.032	2879.44
963.205	2281.44
963.378	2326.49
963.551	2754.52
963.723	2686.93
963.896	2543.58
964.069	2686.93
964.242	2680.79
964.414	2863.06
964.587	2543.58
964.76	2529.24
964.932	2838.48
965.105	2586.58
965.278	2404.32
965.45	2559.96
965.623	2535.39
965.795	2836.44
965.968	2400.22
966.14	2312.16
966.313	2592.73
966.485	2627.54
966.658	2408.41
966.83	2400.22
967.003	2858.96
967.175	2809.81
967.348	2355.16
967.52	2406.36
967.692	3004.37
967.865	2838.48
968.037	2478.04
968.209	2627.54
968.382	2637.78
968.554	2916.31
968.726	2293.72
968.898	2271.2
969.071	2656.22
969.243	2826.2
969.415	2248.67
969.587	2480.09
969.759	3155.92
969.932	2693.08
970.104	2369.5
970.276	2095.07
970.448	2435.03
970.62	2394.08
970.792	2353.12
970.964	2363.36
971.136	2996.18
971.308	2695.13
971.48	2273.25
971.652	2265.05
971.824	2840.53
971.996	2580.44
972.168	2252.77
972.339	2342.88
972.511	2766.81
972.683	2576.34
972.855	2537.43
973.027	2324.44
973.199	2383.84
973.37	2625.5
973.542	2521.05
973.714	2306.01
973.886	2521.05
974.057	2715.61
974.229	2260.96
974.401	2293.72
974.572	2244.57
974.744	2047.97
974.915	2150.37
975.087	2230.24
975.259	2973.65
975.43	2375.64
975.602	1966.05
975.773	2205.66
975.945	2361.31
976.116	2662.36
976.288	2097.12
976.459	2373.6
976.63	2349.02
976.802	2408.41
976.973	2097.12
977.145	2344.92
977.316	2777.05
977.487	2533.34
977.659	2295.77
977.83	2099.17
978.001	2846.68
978.172	2539.48
978.344	2066.4
978.515	2162.66
978.686	2193.37
978.857	2734.04
979.028	2185.18
979.2	2097.12
979.371	2568.15
979.542	2297.82
979.713	2271.2
979.884	1685.48
980.055	2103.26
980.226	2254.81
980.397	1939.43
980.568	1994.72
980.739	2543.58
980.91	2197.47
981.081	2133.98
981.252	1982.43
981.423	2404.32
981.594	2502.62
981.765	1834.98
981.936	2088.93
982.106	2295.77
982.277	2535.39
982.448	2023.39
982.619	2154.46
982.79	2234.33
982.96	2342.88
983.131	2119.65
983.302	1777.64
983.472	2009.06
983.643	2176.99
983.814	2060.26
983.984	1900.51
984.155	2234.33
984.326	2316.25
984.496	1945.57
984.667	1939.43
984.837	1839.08
985.008	2408.41
985.178	2150.37
985.349	1794.02
985.519	2121.7
985.69	1972.19
985.86	1998.82
986.031	1724.39
986.201	2269.15
986.371	2121.7
986.542	1806.31
986.712	1562.6
986.882	2193.37
987.053	2267.1
987.223	1744.87
987.393	1994.72
987.563	1949.67
987.734	2310.11
987.904	2144.22
988.074	1583.08
988.244	2033.63
988.414	1830.88
988.585	1753.06
988.755	1920.99
988.925	1900.51
989.095	2441.18
989.265	1722.34
989.435	1796.07
989.605	1957.86
989.775	2113.5
989.945	2019.3
990.115	1535.98
990.285	1902.56
990.455	1927.14
990.625	1757.16
990.795	1509.35
990.965	2291.68
991.134	1679.33
991.304	1617.9
991.474	1490.92
991.644	1953.76
991.814	2199.52
991.984	1499.11
992.153	1564.65
992.323	1845.22
992.493	1896.42
992.662	1425.39
992.832	1636.33
993.002	1929.19
993.171	1892.32
993.341	1411.05
993.511	1761.25
993.68	1642.47
993.85	1978.34
994.019	1347.56
994.189	1419.24
994.358	1779.68
994.528	1601.51
994.697	1196.01
994.867	1374.19
995.036	2009.06
995.206	1642.47
995.375	1374.19
995.544	1689.57
995.714	1806.31
995.883	1654.76
996.052	1533.93
996.222	1146.86
996.391	2213.85
996.56	1716.2
996.73	1239.02
996.899	1224.69
997.068	2035.68
997.237	1728.49
997.406	1316.84
997.576	1269.74
997.745	1720.29
997.914	1593.32
998.083	1243.12
998.252	1384.43
998.421	1630.18
998.59	1396.71
998.759	1236.97
998.928	1163.25
999.097	1839.08
999.266	1699.81
999.435	1452.01
999.604	1163.25
999.773	2246.62
999.942	1462.25
1000.111	1167.34
1000.28	1071.09
1000.448	1327.08
1000.617	1316.84
1000.786	1386.47
1000.955	960.5
1001.124	1667.05
1001.292	2162.66
1001.461	1251.31
1001.63	1142.77
1001.798	1904.61
1001.967	1841.12
1002.136	1097.71
1002.304	1023.98
1002.473	1511.4
1002.642	1525.74
1002.81	1189.87
1002.979	1142.77
1003.147	1761.25
1003.316	1986.53
1003.484	1159.15
1003.653	1064.94
1003.821	1683.43
1003.99	1366
1004.158	1243.12
1004.327	1212.4
1004.495	1476.59
1004.663	1271.79
1004.832	1138.67
1005	929.78
1005.168	1476.59
1005.337	1540.07
1005.505	966.64
1005.673	1224.69
1005.842	1413.1
1006.01	1443.82
1006.178	874.48
1006.346	948.21
1006.514	1322.99
1006.683	1617.9
1006.851	1038.32
1007.019	966.64
1007.187	1200.11
1007.355	843.76
1007.523	700.41
1007.691	858.1
1007.859	1007.6
1008.027	1503.21
1008.195	958.45
1008.363	849.91
1008.531	1507.3
1008.699	1044.46
1008.867	688.12
1009.035	927.73
1009.203	1519.59
1009.37	1257.45
1009.538	942.07
1009.706	1292.27
1009.874	1220.59
1010.042	1177.58
1010.209	774.13
1010.377	802.8
1010.545	1460.2
1010.713	1161.2
1010.88	765.94
1011.048	921.59
1011.216	1093.62
1011.383	1488.87
1011.551	868.34
1011.718	690.17
1011.886	1363.95
1012.054	1089.52
1012.221	811
1012.389	724.98
1012.556	1122.29
1012.724	1519.59
1012.891	839.67
1013.058	657.4
1013.226	1120.24
1013.393	1249.26
1013.561	555
1013.728	579.58
1013.895	1386.47
1014.063	1212.4
1014.23	489.46
1014.397	729.08
1014.565	1261.55
1014.732	1011.7
1014.899	665.59
1015.066	622.58
1015.233	1085.42
1015.401	1177.58
1015.568	749.56
1015.735	798.71
1015.902	956.4
1016.069	1093.62
1016.236	593.91
1016.403	540.66
1016.57	833.52
1016.737	1206.25
1016.904	643.06
1017.071	595.96
1017.238	854
1017.405	1208.3
1017.572	612.34
1017.739	833.52
1017.906	1200.11
1018.073	1228.78
1018.24	507.9
1018.407	585.72
1018.573	1236.97
1018.74	899.06
1018.907	565.24
1019.074	454.65
1019.241	1136.62
1019.407	937.97
1019.574	532.47
1019.741	378.87
1019.907	978.93
1020.074	1032.18
1020.241	342.01
1020.407	434.17
1020.574	978.93
1020.74	1216.49
1020.907	602.1
1021.073	507.9
1021.24	1452.01
1021.406	1259.5
1021.573	448.51
1021.739	499.7
1021.906	1077.23
1022.072	778.23
1022.239	501.75
1022.405	430.07
1022.571	860.15
1022.738	739.32
1022.904	483.32
1023.07	495.61
1023.237	921.59
1023.403	1161.2
1023.569	417.79
1023.735	466.94
1023.902	1017.84
1024.068	915.44
1024.234	366.59
1024.4	409.59
1024.566	907.25
1024.732	1044.46
1024.898	458.74
1025.065	327.68
1025.231	1026.03
1025.397	665.59
1025.563	503.8
1025.729	372.73
1025.895	425.98
1026.061	511.99
1026.227	237.56
1026.392	438.27
1026.558	1048.56
1026.724	888.82
1026.89	376.83
1027.056	446.46
1027.222	870.39
1027.388	745.46
1027.553	417.79
1027.719	333.82
1027.885	1200.11
1028.051	933.87
1028.216	233.47
1028.382	417.79
1028.548	978.93
1028.713	634.87
1028.879	215.04
1029.045	550.9
1029.21	1023.98
1029.376	1021.94
1029.541	364.54
1029.707	432.12
1029.873	860.15
1030.038	897.01
1030.204	286.72
1030.369	446.46
1030.534	905.2
1030.7	645.11
1030.865	374.78
1031.031	251.9
1031.196	804.85
1031.361	882.67
1031.527	299
1031.692	305.15
1031.857	294.91
1032.023	872.43
1032.188	278.52
1032.353	294.91
1032.518	1079.28
1032.684	774.13
1032.849	188.41
1033.014	321.53
1033.179	806.9
1033.344	827.38
1033.509	325.63
1033.674	215.04
1033.839	866.29
1034.004	827.38
1034.17	176.13
1034.335	217.08
1034.5	534.52
1034.664	520.18
1034.829	192.51
1034.994	294.91
1035.159	606.2
1035.324	780.28
1035.489	290.81
1035.654	217.08
1035.819	946.16
1035.984	724.98
1036.148	335.87
1036.313	245.76
1036.478	1030.13
1036.643	659.45
1036.807	253.95
1036.972	153.6
1037.137	946.16
1037.301	608.25
1037.466	83.97
1037.631	323.58
1037.795	780.28
1037.96	671.73
1038.124	450.55
1038.289	165.89
1038.454	712.69
1038.618	753.65
1038.783	323.58
1038.947	378.87
1039.111	647.16
1039.276	503.8
1039.44	131.07
1039.605	669.69
1039.769	536.57
1039.933	577.53
1040.098	229.37
1040.262	425.98
1040.426	823.28
1040.591	802.8
1040.755	81.92
1040.919	155.65
1041.083	675.83
1041.248	520.18
1041.412	43.01
1041.576	98.3
1041.74	552.95
1041.904	782.32
1042.068	153.6
1042.232	231.42
1042.397	815.09
1042.561	643.06
1042.725	-36.86
1042.889	376.83
1043.053	735.22
1043.217	638.97
1043.381	278.52
1043.544	40.96
1043.708	749.56
1043.872	399.35
1044.036	-18.43
1044.2	4.1
1044.364	770.04
1044.528	933.87
1044.691	5119.92
1044.855	81.92
1045.019	770.04
1045.183	649.21
1045.346	270.33
1045.51	157.69
1045.674	661.49
1045.837	577.53
1046.001	131.07
1046.165	81.92
1046.328	1052.66
1046.492	671.73
1046.655	286.72
1046.819	233.47
1046.983	354.3
1047.146	602.1
1047.31	212.99
1047.473	-40.96
1047.636	511.99
1047.8	288.76
1047.963	225.28
1048.127	61.44
1048.29	325.63
