Data from Hydrogel_Ink_Intensity_Test_1_USB4F045381__85__00085.txt Node

Date: Mon Jul 31 10:58:29 EDT 2023
User: mmckonesweet
Spectrometer: USB4F04538
Trigger mode: 4
Integration Time (sec): 9.000000E-1
Scans to average: 1
Electric dark correction enabled: true
Nonlinearity correction enabled: false
Boxcar width: 0
XAxis mode: Wavelengths
Number of Pixels in Spectrum: 3648
>>>>>Begin Spectral Data<<<<<
345.52	-1049.58
345.736	-1049.58
345.952	-1049.58
346.168	-1025.01
346.384	-1100.78
346.6	-250.88
346.816	-207.87
347.032	-187.39
347.248	271.36
347.464	-164.86
347.68	-150.53
347.896	29.7
348.112	367.61
348.328	-89.09
348.544	-27.65
348.76	97.28
348.975	312.32
349.191	-205.82
349.407	-156.67
349.623	21.5
349.839	-19.46
350.055	-201.72
350.27	50.18
350.486	121.85
350.702	295.93
350.918	230.4
351.133	-220.16
351.349	244.73
351.565	465.91
351.781	-234.49
351.996	13.31
352.212	343.03
352.428	-74.75
352.644	-125.95
352.859	-250.88
353.075	271.36
353.291	48.13
353.506	-103.42
353.722	-203.77
353.938	-29.7
354.153	490.49
354.369	97.28
354.584	-193.53
354.8	209.92
355.016	-363.51
355.231	-181.25
355.447	-68.61
355.662	220.16
355.878	867.31
356.093	-318.46
356.309	-48.13
356.524	-177.15
356.74	293.88
356.955	-142.33
357.171	1.02
357.386	121.85
357.602	-166.91
357.817	-121.85
358.033	-197.63
358.248	394.23
358.464	263.16
358.679	-146.43
358.895	-334.84
359.11	-35.84
359.325	328.7
359.541	338.94
359.756	-72.7
359.972	-302.08
360.187	230.4
360.402	-168.96
360.618	-166.91
360.833	1037.3
361.048	250.88
361.264	-136.19
361.479	-117.76
361.694	21.5
361.909	293.88
362.125	-211.96
362.34	-23.55
362.555	263.16
362.77	209.92
362.986	-240.64
363.201	-156.67
363.416	214.01
363.631	105.47
363.847	-187.39
364.062	-142.33
364.277	201.72
364.492	119.81
364.707	-62.46
364.922	-347.13
365.138	310.27
365.353	379.9
365.568	-293.88
365.783	-93.18
365.998	56.32
366.213	537.59
366.428	-226.3
366.643	144.38
366.858	214.01
367.073	197.63
367.288	-76.8
367.503	-363.51
367.718	107.52
367.933	408.57
368.148	-263.16
368.363	-72.7
368.578	62.46
368.793	416.76
369.008	-74.75
369.223	-105.47
369.438	177.15
369.653	427
369.868	-216.06
370.083	-265.21
370.298	111.61
370.513	451.58
370.728	82.94
370.943	-142.33
371.157	-181.25
371.372	508.92
371.587	-308.22
371.802	-216.06
372.017	64.51
372.232	431.1
372.446	-93.18
372.661	-254.97
372.876	238.59
373.091	175.1
373.306	9.22
373.52	-205.82
373.735	-111.61
373.95	383.99
374.165	-76.8
374.379	-175.1
374.594	-101.37
374.809	238.59
375.023	197.63
375.238	-146.43
375.453	304.12
375.667	-205.82
375.882	-60.42
376.097	-162.81
376.311	23.55
376.526	17.41
376.741	-179.2
376.955	164.86
377.17	607.22
377.384	637.94
377.599	-84.99
377.813	-271.36
378.028	617.46
378.242	259.07
378.457	-5.12
378.672	-336.89
378.886	82.94
379.101	89.09
379.315	-287.74
379.53	-119.81
379.744	246.78
379.958	285.69
380.173	-134.14
380.387	-175.1
380.602	209.92
380.816	-132.09
381.031	-109.57
381.245	-27.65
381.459	214.01
381.674	2839.51
381.888	-101.37
382.103	136.19
382.317	-107.52
382.531	553.98
382.746	-68.61
382.96	-156.67
383.174	-19.46
383.388	560.12
383.603	74.75
383.817	-246.78
384.031	257.02
384.246	541.69
384.46	37.89
384.674	324.6
384.888	105.47
385.103	140.29
385.317	-263.16
385.531	-17.41
385.745	463.86
385.959	427
386.174	-162.81
386.388	-222.2
386.602	105.47
386.816	-64.51
387.03	-11.26
387.244	78.85
387.458	246.78
387.672	482.3
387.887	-236.54
388.101	-236.54
388.315	435.19
388.529	228.35
388.743	-140.29
388.957	-107.52
389.171	369.66
389.385	-99.33
389.599	-146.43
389.813	80.89
390.027	187.39
390.241	807.92
390.455	-19.46
390.669	23.55
390.883	-39.94
391.097	463.86
391.311	164.86
391.525	-89.09
391.738	328.7
391.952	322.56
392.166	29.7
392.38	-175.1
392.594	392.19
392.808	408.57
393.022	-21.5
393.236	-23.55
393.449	275.45
393.663	297.98
393.877	-197.63
394.091	66.56
394.305	-31.74
394.518	109.57
394.732	-115.71
394.946	-74.75
395.16	607.22
395.373	144.38
395.587	-74.75
395.801	-158.72
396.015	447.48
396.228	308.22
396.442	-185.34
396.656	-179.2
396.869	478.2
397.083	646.13
397.297	-62.46
397.51	-89.09
397.724	523.26
397.938	218.11
398.151	-148.48
398.365	-166.91
398.578	390.14
398.792	547.83
399.005	101.37
399.219	-33.79
399.433	275.45
399.646	408.57
399.86	195.58
400.073	214.01
400.287	449.53
400.5	160.77
400.714	119.81
400.927	87.04
401.141	457.72
401.354	1215.47
401.567	361.47
401.781	-136.19
401.994	381.95
402.208	703.48
402.421	13.31
402.635	146.43
402.848	134.14
403.061	541.69
403.275	121.85
403.488	-44.03
403.701	672.76
403.915	357.37
404.128	160.77
404.341	-56.32
404.555	314.36
404.768	164.86
404.981	148.48
405.195	-84.99
405.408	603.13
405.621	363.51
405.834	203.77
406.048	-132.09
406.261	650.23
406.474	580.6
406.687	-3.07
406.9	72.7
407.114	173.05
407.327	367.61
407.54	-191.49
407.753	-80.89
407.966	5.12
408.179	439.29
408.392	33.79
408.605	-74.75
408.819	392.19
409.032	300.03
409.245	-35.84
409.458	297.98
409.671	470.01
409.884	578.55
410.097	-154.62
410.31	189.44
410.523	431.1
410.736	144.38
410.949	46.08
411.162	62.46
411.375	637.94
411.588	607.22
411.801	263.16
412.014	25.6
412.227	224.25
412.44	191.49
412.653	27.65
412.865	175.1
413.078	564.22
413.291	506.87
413.504	130.05
413.717	-9.22
413.93	519.16
414.143	80.89
414.356	195.58
414.568	-117.76
414.781	523.26
414.994	398.33
415.207	125.95
415.42	185.34
415.632	517.11
415.845	871.41
416.058	-52.22
416.271	-60.42
416.483	433.15
416.696	709.62
416.909	54.27
417.121	89.09
417.334	398.33
417.547	787.44
417.759	64.51
417.972	58.37
418.185	154.62
418.397	596.98
418.61	117.76
418.823	74.75
419.035	771.06
419.248	349.18
419.46	222.2
419.673	107.52
419.885	494.58
420.098	293.88
420.311	97.28
420.523	-27.65
420.736	535.54
420.948	281.6
421.161	97.28
421.373	-44.03
421.586	601.08
421.798	185.34
422.01	-105.47
422.223	289.79
422.435	300.03
422.648	562.17
422.86	132.09
423.073	175.1
423.285	676.85
423.497	82.94
423.71	152.57
423.922	185.34
424.134	576.5
424.347	793.59
424.559	470.01
424.771	472.06
424.984	246.78
425.196	494.58
425.408	39.94
425.621	27.65
425.833	701.43
426.045	670.71
426.257	80.89
426.47	171.01
426.682	517.11
426.894	549.88
427.106	111.61
427.318	291.84
427.531	246.78
427.743	574.46
427.955	181.25
428.167	607.22
428.379	621.56
428.591	340.99
428.804	320.51
429.016	156.67
429.228	410.62
429.44	584.7
429.652	375.8
429.864	23.55
430.076	447.48
430.288	470.01
430.5	334.84
430.712	308.22
430.924	697.33
431.136	490.49
431.348	152.57
431.56	185.34
431.772	447.48
431.984	476.15
432.196	140.29
432.408	295.93
432.62	408.57
432.832	586.74
433.044	537.59
433.256	439.29
433.468	660.47
433.679	218.11
433.891	209.92
434.103	523.26
434.315	996.34
434.527	709.62
434.739	414.71
434.95	424.95
435.162	750.58
435.374	437.24
435.586	414.71
435.798	302.08
436.009	271.36
436.221	490.49
436.433	308.22
436.645	330.75
436.856	431.1
437.068	812.02
437.28	269.31
437.491	668.66
437.703	754.68
437.915	676.85
438.126	308.22
438.338	637.94
438.55	590.84
438.761	762.87
438.973	371.71
439.184	381.95
439.396	537.59
439.608	760.82
439.819	283.64
440.031	449.53
440.242	883.7
440.454	654.33
440.665	500.73
440.877	519.16
441.088	836.6
441.3	584.7
441.511	226.3
441.723	308.22
441.934	742.39
442.146	656.37
442.357	568.31
442.569	660.47
442.78	680.95
442.991	1162.22
443.203	775.16
443.414	386.04
443.626	877.55
443.837	521.21
444.048	314.36
444.26	257.02
444.471	654.33
444.682	910.32
444.894	277.5
445.105	283.64
445.316	1008.62
445.528	793.59
445.739	617.46
445.95	545.78
446.161	719.86
446.373	945.14
446.584	553.98
446.795	515.06
447.006	945.14
447.217	1119.21
447.429	324.6
447.64	392.19
447.851	1045.49
448.062	750.58
448.273	361.47
448.484	467.96
448.695	840.69
448.907	758.77
449.118	601.08
449.329	781.3
449.54	717.81
449.751	576.5
449.962	515.06
450.173	506.87
450.384	1070.06
450.595	1137.65
450.806	547.83
451.017	637.94
451.228	1078.26
451.439	1082.35
451.65	592.89
451.861	277.5
452.072	646.13
452.283	791.54
452.494	914.42
452.705	457.72
452.915	1244.14
453.126	941.04
453.337	715.77
453.548	576.5
453.759	1072.11
453.97	1340.4
454.181	850.93
454.391	594.93
454.602	910.32
454.813	1014.77
455.024	769.01
455.235	664.57
455.445	928.75
455.656	1063.92
455.867	824.31
456.078	635.89
456.288	816.12
456.499	1240.05
456.71	590.84
456.921	857.07
457.131	1037.3
457.342	1016.82
457.553	746.48
457.763	701.43
457.974	1041.39
458.184	1151.98
458.395	594.93
458.606	623.61
458.816	1373.16
459.027	1498.09
459.237	842.74
459.448	715.77
459.659	1291.24
459.869	1627.11
460.08	695.29
460.29	1039.34
460.501	1522.66
460.711	934.9
460.922	621.56
461.132	740.34
461.343	1776.61
461.553	822.26
461.764	926.71
461.974	873.46
462.184	1270.76
462.395	1258.48
462.605	924.66
462.816	867.31
463.026	1197.04
463.236	1530.86
463.447	857.07
463.657	932.85
463.867	1489.9
464.078	1121.26
464.288	1117.17
464.498	998.38
464.709	1256.43
464.919	1160.17
465.129	955.38
465.339	998.38
465.55	1426.41
465.76	1539.05
465.97	1131.5
466.18	984.05
466.391	1434.6
466.601	1418.22
466.811	1123.31
467.021	1014.77
467.231	1629.16
467.441	1653.73
467.651	1147.89
467.862	869.36
468.072	1457.13
468.282	1780.71
468.492	1145.84
468.702	1209.33
468.912	1598.44
469.122	2108.38
469.332	1481.71
469.542	1176.56
469.752	1833.96
469.962	1580.01
470.172	1287.15
470.382	1385.45
470.592	1922.02
470.802	1864.68
471.012	1463.27
471.222	1393.64
471.432	1885.16
471.642	1903.59
471.852	1610.73
472.062	1362.92
472.272	1790.95
472.482	1549.29
472.691	1467.37
472.901	1526.76
473.111	1770.47
473.321	2393.05
473.531	1635.3
473.741	1655.78
473.95	2167.77
474.16	2147.3
474.37	1889.25
474.58	1541.1
474.79	2458.59
474.999	2292.7
475.209	1686.5
475.419	1788.9
475.628	2038.75
475.838	2327.52
476.048	1848.29
476.258	1670.12
476.467	2384.86
476.677	2085.86
476.886	2173.92
477.096	2200.54
477.306	2145.25
477.515	2657.24
477.725	2098.14
477.935	2038.75
478.144	2733.01
478.354	2335.71
478.563	2178.01
478.773	2081.76
478.982	2485.21
479.192	2667.48
479.401	2382.81
479.611	2173.92
479.82	2440.15
480.03	2634.71
480.239	2270.17
480.449	2264.03
480.658	3036.11
480.868	2585.56
481.077	2612.18
481.287	2456.54
481.496	2905.04
481.705	3150.8
481.915	2819.03
482.124	2778.07
482.333	2903
482.543	3175.38
482.752	2638.81
482.961	2642.9
483.171	3199.95
483.38	2835.41
483.589	2837.46
483.799	2642.9
484.008	3029.97
484.217	3103.7
484.426	2767.83
484.636	2544.6
484.845	3173.33
485.054	2753.49
485.263	3146.7
485.472	2851.8
485.682	3525.58
485.891	3404.75
486.1	2749.4
486.309	2874.32
486.518	3371.98
486.727	3570.63
486.936	2929.62
487.146	3079.12
487.355	3718.09
487.564	3058.64
487.773	3183.57
487.982	3173.33
488.191	3292.11
488.4	3552.2
488.609	3298.25
488.818	3136.46
489.027	4041.67
489.236	3994.56
489.445	3380.17
489.654	3216.33
489.863	4010.95
490.072	3853.25
490.281	3744.71
490.49	3347.4
490.698	4002.75
490.907	4049.86
491.116	3625.93
491.325	3374.03
491.534	4166.59
491.743	3838.92
491.952	3625.93
492.16	3529.67
492.369	3855.3
492.578	4127.68
492.787	3713.99
492.996	3544.01
493.204	3812.29
493.413	4545.47
493.622	3615.69
493.831	3533.77
494.039	4481.98
494.248	3912.64
494.457	3816.39
494.665	3652.55
494.874	4193.22
495.083	4656.06
495.291	4006.85
495.5	3908.55
495.709	4481.98
495.917	4318.14
496.126	4137.92
496.335	3947.46
496.543	4119.49
496.752	4340.67
496.96	4219.84
497.169	3879.88
497.377	4307.9
497.586	4606.91
497.794	4291.52
498.003	4164.54
498.211	4363.2
498.42	4864.95
498.628	4322.24
498.837	4125.63
499.045	4645.82
499.254	4592.57
499.462	4244.42
499.671	4207.55
499.879	5186.48
500.087	4817.85
500.296	4301.76
500.504	4389.82
500.713	4910.01
500.921	5102.51
501.129	4490.17
501.338	4373.44
501.546	4817.85
501.754	4844.47
501.962	4479.93
502.171	4314.05
502.379	4944.82
502.587	5151.67
502.795	4641.72
503.004	4578.23
503.212	5000.12
503.42	5131.19
503.628	4639.67
503.837	4709.3
504.045	5082.03
504.253	5409.71
504.461	4727.74
504.669	4502.46
504.877	5258.16
505.085	5342.13
505.294	4709.3
505.502	4905.91
505.71	5215.15
505.918	5227.44
506.126	4785.08
506.334	4574.14
506.542	5010.36
506.75	5292.98
506.958	4936.63
507.166	4899.77
507.374	5004.21
507.582	5655.47
507.79	4920.24
507.998	4987.83
508.206	5505.96
508.414	5344.17
508.622	4893.62
508.83	5077.94
509.037	5700.52
509.245	5217.2
509.453	4914.1
509.661	5049.27
509.869	5569.45
510.077	5229.49
510.285	5166
510.492	4840.37
510.7	6042.53
510.908	5237.68
511.116	5215.15
511.324	4991.92
511.531	5499.82
511.739	5426.09
511.947	5491.63
512.155	5512.11
512.362	5624.75
512.57	5489.58
512.778	5182.38
512.985	4940.72
513.193	5845.93
513.401	6005.67
513.608	5354.41
513.816	5307.31
514.024	5813.16
514.231	5800.87
514.439	5383.09
514.646	5553.07
514.854	6128.55
515.061	5880.74
515.269	5317.55
515.477	5354.41
515.684	5551.02
515.892	5960.61
516.099	5491.63
516.307	5362.61
516.514	6054.82
516.722	6171.55
516.929	5477.29
517.136	5526.44
517.344	6288.29
517.551	6050.72
517.759	5532.59
517.966	5749.67
518.173	5856.17
518.381	5893.03
518.588	5677.99
518.796	5616.55
519.003	6304.67
519.21	6022.05
519.418	5677.99
519.625	5893.03
519.832	6220.71
520.039	6224.8
520.247	5526.44
520.454	5667.75
520.661	6480.8
520.868	6292.38
521.076	5710.76
521.283	5854.12
521.49	6669.21
521.697	6421.41
521.904	5733.29
522.112	5897.13
522.319	6499.23
522.526	6435.74
522.733	5972.9
522.94	5845.93
523.147	6232.99
523.354	6429.6
523.561	5852.07
523.768	6232.99
523.975	6824.86
524.183	6292.38
524.39	6208.42
524.597	6034.34
524.804	6443.93
525.011	6292.38
525.218	6130.59
525.425	6001.57
525.632	6833.05
525.838	6325.15
526.045	6106.02
526.252	6204.32
526.459	7820.17
526.666	7238.55
526.873	6335.39
527.08	6169.51
527.287	6968.21
527.494	6695.83
527.701	6218.66
527.907	6255.52
528.114	6925.21
528.321	6701.98
528.528	6425.5
528.735	6454.17
528.941	6697.88
529.148	6509.47
529.355	6640.54
529.562	6398.88
529.768	7267.22
529.975	6677.4
530.182	6710.17
530.388	6411.17
530.595	7203.73
530.802	6560.67
531.008	6773.66
531.215	6587.29
531.422	7596.94
531.628	7658.38
531.835	6554.52
532.042	6837.14
532.248	7005.08
532.455	7121.81
532.661	6738.84
532.868	6671.26
533.074	7095.19
533.281	7404.43
533.487	6806.42
533.694	6822.81
533.9	7054.23
534.107	7433.1
534.313	7068.56
534.52	6718.36
534.726	7256.98
534.933	7617.42
535.139	6802.33
535.345	6841.24
535.552	7345.04
535.758	7271.31
535.965	7177.11
536.171	7068.56
536.377	7508.88
536.584	7725.96
536.79	6984.6
536.996	7127.96
537.203	7437.2
537.409	7568.27
537.615	7076.76
537.821	7379.86
538.028	7840.65
538.234	7740.3
538.44	7216.02
538.646	7226.26
538.853	7506.83
539.059	7416.72
539.265	7828.36
539.471	6945.69
539.677	7895.94
539.883	7562.12
540.09	7250.83
540.296	7828.36
540.502	7584.65
540.708	7445.39
540.914	7543.69
541.12	7390.1
541.326	7988.1
541.532	7783.31
541.738	7642
541.944	7627.66
542.15	8213.38
542.356	7955.33
542.562	7461.77
542.768	7465.87
542.974	8457.09
543.18	8534.91
543.386	7773.07
543.592	7586.7
543.798	8348.54
544.004	8160.13
544.21	7988.1
544.415	7725.96
544.621	8174.47
544.827	8383.36
545.033	7834.5
545.239	8149.89
545.445	7936.9
545.651	8340.35
545.856	7795.59
546.062	7828.36
546.268	7947.14
546.474	8250.24
546.679	7619.47
546.885	7971.72
547.091	7992.2
547.297	8565.63
547.502	8016.77
547.708	7756.68
547.914	8029.06
548.119	8526.72
548.325	7904.14
548.531	7820.17
548.736	8627.07
548.942	8160.13
549.147	8211.33
549.353	8168.32
549.559	8682.36
549.764	8344.45
549.97	7791.5
550.175	8127.36
550.381	8399.74
550.586	8065.92
550.792	8049.54
550.997	8139.65
551.203	8414.08
551.408	8604.54
551.614	8166.28
551.819	8016.77
552.025	8985.46
552.23	8723.32
552.435	8160.13
552.641	8452.99
552.846	8428.42
553.052	8930.17
553.257	8510.33
553.462	8487.81
553.668	8412.03
553.873	9026.42
554.078	8235.91
554.283	8313.73
554.489	8780.67
554.694	8756.09
554.899	8188.8
555.105	8616.83
555.31	8737.66
555.515	8870.78
555.72	8528.77
555.925	8285.06
556.131	9028.47
556.336	8635.26
556.541	8526.72
556.746	8502.14
556.951	9229.17
557.156	9071.48
557.361	8799.1
557.567	8704.89
557.772	9405.3
557.977	9069.43
558.182	8577.92
558.387	8534.91
558.592	8930.17
558.797	9323.38
559.002	8688.51
559.207	8876.92
559.412	8969.08
559.617	9511.79
559.822	8647.55
560.027	8745.85
560.232	9012.09
560.437	9161.59
560.642	8678.27
560.847	8590.2
561.051	9180.02
561.256	8958.84
561.461	8936.31
561.666	8735.61
561.871	9438.06
562.076	9413.49
562.281	9022.33
562.485	8801.15
562.69	9474.93
562.895	9214.84
563.1	8807.29
563.305	8885.11
563.509	9622.38
563.714	9581.42
563.919	9046.9
564.123	9026.42
564.328	9048.95
564.533	9399.15
564.737	9108.34
564.942	8876.92
565.147	9839.47
565.351	9929.58
565.556	9067.38
565.761	8999.8
565.965	9438.06
566.17	9237.36
566.374	9104.25
566.579	9077.62
566.784	9552.75
566.988	9341.81
567.193	8946.55
567.397	9042.81
567.602	9227.12
567.806	9456.5
568.011	9149.3
568.215	9438.06
568.42	9378.67
568.624	9515.89
568.828	9261.94
569.033	9137.01
569.237	9993.06
569.442	9644.91
569.646	9065.33
569.85	9411.44
570.055	9589.61
570.259	9696.11
570.463	9704.3
570.668	9270.13
570.872	9669.48
571.076	9630.57
571.281	9423.73
571.485	9487.22
571.689	9698.16
571.893	9927.53
572.098	9450.35
572.302	9294.71
572.506	9958.25
572.71	9712.49
572.914	9380.72
573.119	9360.24
573.323	10187.62
573.527	10167.14
573.731	9448.3
573.935	9671.53
574.139	9835.37
574.343	9558.89
574.547	9522.03
574.751	9636.72
574.955	10263.4
575.159	10171.24
575.364	9737.07
575.568	9431.92
575.772	10009.45
575.976	10077.03
576.18	9655.15
576.383	9603.95
576.587	10271.59
576.791	10007.4
576.995	9515.89
577.199	9603.95
577.403	10167.14
577.607	10474.34
577.811	9646.96
578.015	9874.28
578.219	10265.44
578.422	10281.83
578.626	9855.85
578.83	10087.27
579.034	10466.14
579.238	10074.98
579.442	9866.09
579.645	10060.65
579.849	10072.93
580.053	10156.9
580.257	10031.97
580.46	9956.2
580.664	10306.4
580.868	10255.2
581.071	10179.43
581.275	10208.1
581.479	10128.23
581.682	10433.38
581.886	10056.55
582.09	10447.71
582.293	10675.04
582.497	10730.33
582.7	10285.92
582.904	10290.02
583.107	10560.35
583.311	10460
583.515	10249.06
583.718	10079.08
583.922	10531.68
584.125	10965.85
584.329	9964.39
584.532	10343.27
584.735	10822.49
584.939	10670.94
585.142	10019.69
585.346	10130.28
585.549	10771.29
585.753	10337.12
585.956	10380.13
586.159	10580.83
586.363	11090.77
586.566	10818.39
586.769	10326.88
586.973	10388.32
587.176	10969.94
587.379	10896.22
587.582	10736.48
587.786	10498.91
587.989	10777.44
588.192	11469.65
588.395	10562.4
588.599	10615.65
588.802	10933.08
589.005	10875.74
589.208	10619.74
589.411	10474.34
589.615	10969.94
589.818	11479.89
590.021	10931.03
590.224	10816.35
590.427	11137.88
590.63	11166.55
590.833	10472.29
591.036	10619.74
591.239	11094.87
591.442	10816.35
591.645	10898.27
591.848	10797.92
592.051	11090.77
592.254	11174.74
592.457	10795.87
592.66	10832.73
592.863	11072.34
593.066	11230.04
593.269	10589.02
593.472	10984.28
593.675	11041.62
593.878	11242.32
594.081	10928.99
594.284	10859.35
594.486	11211.6
594.689	11340.63
594.892	10867.55
595.095	10914.65
595.298	11303.76
595.5	11303.76
595.703	11080.53
595.906	11086.68
596.109	11688.78
596.311	11739.98
596.514	10881.88
596.717	11154.26
596.92	11875.15
597.122	11250.52
597.325	10728.28
597.528	11051.86
597.73	11887.43
597.933	11420.5
598.136	11158.36
598.338	10718.04
598.541	11678.54
598.743	11666.25
598.946	11041.62
599.148	11217.75
599.351	11912.01
599.554	11975.5
599.756	11080.53
599.959	11303.76
600.161	11821.9
600.363	12063.56
600.566	11580.24
600.768	11230.04
600.971	12108.62
601.173	11809.61
601.376	11154.26
601.578	11215.7
601.78	11686.73
601.983	12096.33
602.185	11219.8
602.388	11574.1
602.59	11709.26
602.792	11739.98
602.995	11610.96
603.197	11406.16
603.399	11883.34
603.601	11967.31
603.804	11400.02
604.006	11533.14
604.208	11711.31
604.41	11320.15
604.613	11678.54
604.815	11443.03
605.017	12413.76
605.219	11522.9
605.421	11871.05
605.623	11289.43
605.826	12088.14
606.028	12219.21
606.23	11703.12
606.432	11531.09
606.634	12276.55
606.836	12024.65
607.038	11584.34
607.24	11776.84
607.442	11924.3
607.644	11901.77
607.846	11682.64
608.048	11567.95
608.25	12090.18
608.452	11658.06
608.654	11782.99
608.856	11375.44
609.058	11981.64
609.26	12049.22
609.462	11807.56
609.664	11828.04
609.866	12452.67
610.067	12094.28
610.269	11957.07
610.471	11516.75
610.673	11856.72
610.875	12161.86
611.077	11496.27
611.278	11694.93
611.48	11969.35
611.682	12450.63
611.884	11862.86
612.085	11656.01
612.287	11617.1
612.489	12030.79
612.69	11694.93
612.892	11903.82
613.094	12301.12
613.295	12294.98
613.497	11572.05
613.699	11797.32
613.9	12456.77
614.102	12168.01
614.304	11694.93
614.505	11543.38
614.707	12006.22
614.908	12038.98
615.11	11520.85
615.311	12137.29
615.513	12202.82
615.714	12147.53
615.916	11512.66
616.117	11801.42
616.319	12030.79
616.52	12231.49
616.722	11780.94
616.923	11885.39
617.124	12278.6
617.326	12067.66
617.527	11916.11
617.729	12018.5
617.93	12294.98
618.131	12424
618.333	11858.76
618.534	11912.01
618.735	12084.04
618.937	12522.3
619.138	11752.27
619.339	11725.65
619.54	12540.74
619.742	11983.69
619.943	12057.42
620.144	11871.05
620.345	12366.66
620.546	12350.28
620.748	11809.61
620.949	11930.44
621.15	12045.13
621.351	12000.07
621.552	11807.56
621.753	11561.81
621.954	12100.42
622.155	12632.9
622.356	11774.8
622.558	11965.26
622.759	12301.12
622.96	12585.79
623.161	11838.28
623.362	11830.09
623.563	12137.29
623.764	12079.94
623.965	11776.84
624.166	12051.27
624.366	12282.69
624.567	12251.97
624.768	11811.66
624.969	12088.14
625.17	12192.58
625.371	12596.03
625.572	12004.17
625.773	11807.56
625.973	12335.94
626.174	12536.64
626.375	12268.36
626.576	12241.73
626.777	12413.76
626.977	12737.34
627.178	12135.24
627.379	12229.45
627.58	12311.36
627.78	12419.91
627.981	12112.71
628.182	12315.46
628.382	12536.64
628.583	12286.79
628.784	12137.29
628.984	12346.18
629.185	12602.18
629.386	12348.23
629.586	12276.55
629.787	11973.45
629.987	12673.85
630.188	12432.19
630.388	12196.68
630.589	12127.05
630.79	12866.36
630.99	12473.15
631.191	12114.76
631.391	12426.05
631.591	12618.56
631.792	12753.73
631.992	12479.3
632.193	12051.27
632.393	12948.28
632.594	12630.85
632.794	12034.89
632.994	12567.36
633.195	12583.74
633.395	12743.49
633.595	12059.46
633.796	12581.7
633.996	12393.28
634.196	12815.16
634.397	12063.56
634.597	12510.02
634.797	12489.54
634.997	12958.52
635.198	12729.15
635.398	12118.86
635.598	12823.36
635.798	12913.47
635.998	12663.61
636.199	12307.27
636.399	12348.23
636.599	12211.01
636.799	12274.5
636.999	12563.26
637.199	12512.07
637.399	12714.81
637.599	12327.75
637.799	12426.05
637.999	12630.85
638.199	13189.94
638.399	12297.03
638.599	12233.54
638.799	12634.94
638.999	13253.43
639.199	12467.01
639.399	12602.18
639.599	12950.33
639.799	12352.32
639.999	12243.78
640.199	12307.27
640.399	12759.87
640.599	12426.05
640.799	12702.53
640.998	12507.97
641.198	13026.11
641.398	12737.34
641.598	12778.3
641.798	12440.39
641.997	13632.3
642.197	12763.97
642.397	12653.37
642.597	12438.34
642.796	12862.27
642.996	13210.42
643.196	12854.08
643.395	12561.22
643.595	13038.39
643.795	12548.93
643.994	12460.87
644.194	12538.69
644.394	13054.78
644.593	12792.64
644.793	12510.02
644.992	12866.36
645.192	12950.33
645.392	12434.24
645.591	12655.42
645.791	12538.69
645.99	13136.7
646.19	12868.41
646.389	12718.91
646.589	12725.05
646.788	13380.4
646.987	13196.09
647.187	12987.19
647.386	12694.33
647.586	13237.05
647.785	13177.65
647.984	12784.44
648.184	12847.93
648.383	13028.15
648.582	12620.61
648.782	12804.92
648.981	12895.04
649.18	12837.69
649.38	13214.52
649.579	12528.45
649.778	12663.61
649.977	13409.08
650.177	12827.45
650.376	12610.37
650.575	12786.49
650.774	13218.61
650.973	12940.09
651.173	12493.63
651.372	12935.99
651.571	12849.98
651.77	13339.44
651.969	12989.24
652.168	12907.32
652.367	12997.43
652.566	12917.56
652.765	12858.17
652.964	13054.78
653.163	13490.99
653.362	13157.18
653.561	12825.4
653.76	12796.73
653.959	12997.43
654.158	13392.69
654.357	12933.95
654.556	12833.6
654.755	13404.98
654.954	13251.38
655.153	12788.54
655.352	13206.33
655.551	13284.15
655.749	12811.07
655.948	12897.08
656.147	13011.77
656.346	13349.68
656.545	13069.11
656.743	12935.99
656.942	13075.26
657.141	13177.65
657.34	12872.51
657.538	12960.57
657.737	13165.37
657.936	13077.3
658.135	13529.91
658.333	12970.81
658.532	12966.71
658.731	13804.33
658.929	13544.24
659.128	13282.1
659.326	13095.74
659.525	13591.34
659.724	13337.4
659.922	12647.23
660.121	12682.05
660.319	13515.57
660.518	13050.68
660.716	13105.98
660.915	13030.2
661.113	13622.06
661.312	12899.13
661.51	13257.53
661.709	13091.64
661.907	13462.32
662.105	13656.88
662.304	13294.39
662.502	13419.32
662.701	13644.59
662.899	13067.06
663.097	13454.13
663.296	13091.64
663.494	13708.08
663.692	13781.81
663.891	12880.7
664.089	12923.71
664.287	13529.91
664.485	13583.15
664.684	13191.99
664.882	12892.99
665.08	12940.09
665.278	13390.64
665.476	12958.52
665.675	13366.07
665.873	13861.68
666.071	13548.34
666.269	13120.31
666.467	13220.66
666.665	13237.05
666.863	13374.26
667.061	13224.76
667.259	13009.72
667.457	13527.86
667.655	13439.79
667.853	12792.64
668.051	13235
668.249	13050.68
668.447	13382.45
668.645	12905.28
668.843	13286.2
669.041	13450.03
669.239	13286.2
669.437	12884.8
669.635	13241.14
669.833	13353.78
670.031	13335.35
670.229	13257.53
670.426	13091.64
670.624	13331.25
670.822	13038.39
671.02	12972.86
671.218	13364.02
671.415	13153.08
671.613	13282.1
671.811	13366.07
672.009	13138.74
672.206	13550.39
672.404	13493.04
672.602	13267.77
672.799	13155.13
672.997	13450.03
673.195	13505.33
673.392	13339.44
673.59	12766.01
673.788	13384.5
673.985	12907.32
674.183	12950.33
674.38	13073.21
674.578	13263.67
674.775	13212.47
674.973	12995.39
675.17	12673.85
675.368	13470.51
675.565	13312.82
675.763	12892.99
675.96	12751.68
676.158	13407.03
676.355	12950.33
676.553	12903.23
676.75	12864.32
676.947	13118.26
677.145	13052.73
677.342	12917.56
677.539	13093.69
677.737	13235
677.934	13640.5
678.131	13050.68
678.329	12804.92
678.526	13531.95
678.723	13200.18
678.92	13157.18
679.118	12968.76
679.315	12933.95
679.512	13681.46
679.709	12985.15
679.906	12909.37
680.104	13462.32
680.301	13529.91
680.498	12778.3
680.695	12890.94
680.892	13013.82
681.089	12843.84
681.286	12946.23
681.483	12507.97
681.68	13017.91
681.877	13259.57
682.075	12888.89
682.272	12983.1
682.469	13101.88
682.665	13099.83
682.862	12677.95
683.059	12653.37
683.256	13030.2
683.453	12944.19
683.65	13173.56
683.847	13017.91
684.044	12960.57
684.241	12710.72
684.438	13013.82
684.635	12677.95
684.831	13546.29
685.028	13345.59
685.225	12694.33
685.422	12714.81
685.619	13157.18
685.815	12886.84
686.012	12712.77
686.209	12892.99
686.405	12481.35
686.602	13089.59
686.799	12766.01
686.996	12483.39
687.192	12766.01
687.389	13452.08
687.586	12706.62
687.782	12725.05
687.979	13304.63
688.175	13259.57
688.372	12383.04
688.568	12784.44
688.765	12634.94
688.962	13386.55
689.158	12882.75
689.355	12618.56
689.551	13015.87
689.748	12735.29
689.944	12659.52
690.14	12661.57
690.337	12815.16
690.533	12585.79
690.73	12460.87
690.926	12657.47
691.123	12774.21
691.319	12862.27
691.515	12395.33
691.712	12829.5
691.908	12823.36
692.104	13140.79
692.301	12831.55
692.497	12542.78
692.693	12925.75
692.889	13019.96
693.086	12581.7
693.282	12235.59
693.478	12639.04
693.674	13148.98
693.87	12401.47
694.067	12458.82
694.263	12788.54
694.459	12727.1
694.655	12778.3
694.851	12438.34
695.047	12688.19
695.243	12995.39
695.439	12596.03
695.635	12428.1
695.831	12536.64
696.027	12495.68
696.224	12278.6
696.42	12831.55
696.615	12919.61
696.811	12698.43
697.007	12157.77
697.203	12227.4
697.399	12661.57
697.595	12872.51
697.791	12182.34
697.987	12276.55
698.183	12329.8
698.379	12491.59
698.575	12206.92
698.77	12292.93
698.966	12534.59
699.162	12735.29
699.358	12467.01
699.554	12204.87
699.749	12532.54
699.945	12424
700.141	12323.65
700.337	12370.76
700.532	12411.71
700.728	12245.83
700.924	12086.09
701.119	11959.11
701.315	12469.06
701.511	12424
701.706	12286.79
701.902	12036.94
702.097	12245.83
702.293	12481.35
702.489	12251.97
702.684	11957.07
702.88	12381
703.075	12260.16
703.271	12071.75
703.466	11871.05
703.662	12305.22
703.857	12587.84
704.053	12190.53
704.248	12038.98
704.443	12530.5
704.639	12491.59
704.834	12084.04
705.03	12129.09
705.225	12659.52
705.42	12534.59
705.616	12090.18
705.811	11916.11
706.006	12170.05
706.202	12202.82
706.397	12094.28
706.592	11627.34
706.787	12297.03
706.983	12133.19
707.178	12467.01
707.373	12010.31
707.568	12237.64
707.763	12581.7
707.959	11789.13
708.154	11944.78
708.349	12034.89
708.544	12413.76
708.739	12366.66
708.934	11762.51
709.129	12462.91
709.324	12276.55
709.519	11846.48
709.714	11768.65
709.909	12710.72
710.104	12395.33
710.299	12028.74
710.494	12055.37
710.689	12204.87
710.884	12348.23
711.079	12030.79
711.274	12084.04
711.469	12202.82
711.664	12331.84
711.859	12032.84
712.054	12020.55
712.249	12194.63
712.443	12354.37
712.638	12018.5
712.833	11707.21
713.028	12211.01
713.223	12170.05
713.417	12174.15
713.612	11895.63
713.807	12184.39
714.002	12604.22
714.196	12079.94
714.391	11705.17
714.586	12163.91
714.78	11588.43
714.975	11875.15
715.17	11807.56
715.364	12034.89
715.559	12467.01
715.754	11387.73
715.948	11610.96
716.143	12342.08
716.337	11952.97
716.532	12030.79
716.726	11866.95
716.921	12018.5
717.115	12383.04
717.31	11623.25
717.504	12520.26
717.699	11895.63
717.893	12372.8
718.088	11522.9
718.282	11559.76
718.476	11942.73
718.671	11963.21
718.865	11772.75
719.059	11436.88
719.254	11770.7
719.448	12133.19
719.642	12712.77
719.837	11377.49
720.031	12026.7
720.225	11973.45
720.419	11725.65
720.614	11400.02
720.808	12041.03
721.002	11713.36
721.196	11629.39
721.39	11682.64
721.585	12256.07
721.779	12073.8
721.973	11496.27
722.167	11328.34
722.361	11899.72
722.555	11916.11
722.749	11348.82
722.943	11436.88
723.137	11168.6
723.331	11752.27
723.525	11369.3
723.719	11535.18
723.913	11963.21
724.107	12075.85
724.301	11311.96
724.495	11639.63
724.689	11993.93
724.883	11957.07
725.077	11297.62
725.271	11285.33
725.465	11840.33
725.659	11610.96
725.853	11492.18
726.046	11010.9
726.24	11457.36
726.434	11637.58
726.628	11301.72
726.822	11424.59
727.015	12284.74
727.209	11793.23
727.403	11365.2
727.596	11293.52
727.79	11883.34
727.984	11858.76
728.177	11428.69
728.371	11334.48
728.565	11795.28
728.758	11289.43
728.952	11389.78
729.146	11273.04
729.339	11721.55
729.533	11440.98
729.726	11350.87
729.92	11146.07
730.113	11977.55
730.307	11715.41
730.5	11293.52
730.694	11395.92
730.887	11359.06
731.081	11860.81
731.274	11418.45
731.468	11397.97
731.661	11467.6
731.854	11377.49
732.048	11254.61
732.241	11187.03
732.435	11459.41
732.628	12006.22
732.821	11330.39
733.014	11252.56
733.208	11350.87
733.401	12014.41
733.594	11436.88
733.788	11455.31
733.981	11842.38
734.174	11670.35
734.367	11301.72
734.56	11522.9
734.754	11647.82
734.947	11440.98
735.14	11037.53
735.333	11504.46
735.526	11785.04
735.719	11197.27
735.912	11023.19
736.105	11101.01
736.298	11346.77
736.491	11334.48
736.684	11123.54
736.877	11314
737.07	11301.72
737.263	12045.13
737.456	11199.32
737.649	11146.07
737.842	11438.93
738.035	11658.06
738.228	11271
738.421	11334.48
738.614	11869
738.807	11758.41
739	11015
739.192	11137.88
739.385	11494.22
739.578	11653.97
739.771	11543.38
739.964	11232.08
740.156	11596.62
740.349	11479.89
740.542	11590.48
740.735	10881.88
740.927	11127.64
741.12	11158.36
741.313	11240.28
741.505	11271
741.698	11383.63
741.891	11561.81
742.083	11369.3
742.276	11141.97
742.468	11187.03
742.661	11078.49
742.854	11015
743.046	11260.76
743.239	11744.08
743.431	11436.88
743.624	11015
743.816	10783.58
744.009	11211.6
744.201	11311.96
744.393	11174.74
744.586	10969.94
744.778	11768.65
744.971	11264.85
745.163	11121.49
745.355	11127.64
745.548	11352.91
745.74	11123.54
745.932	10955.61
746.125	10969.94
746.317	11899.72
746.509	11273.04
746.702	10855.26
746.894	10828.63
747.086	11203.41
747.278	11328.34
747.471	11031.38
747.663	11062.1
747.855	11289.43
748.047	11449.17
748.239	11025.24
748.431	10949.46
748.623	11739.98
748.815	11545.42
749.008	10730.33
749.2	10793.82
749.392	11076.44
749.584	11281.24
749.776	10998.62
749.968	11227.99
750.16	11772.75
750.352	11295.57
750.544	11039.58
750.736	10834.78
750.928	11281.24
751.12	11051.86
751.311	10830.68
751.503	11004.76
751.695	11379.54
751.887	10933.08
752.079	10720.09
752.271	10836.83
752.463	11977.55
752.654	11236.18
752.846	10881.88
753.038	10828.63
753.23	11045.72
753.421	11113.3
753.613	10656.61
753.805	10881.88
753.997	11221.84
754.188	11201.37
754.38	10498.91
754.572	10453.86
754.763	11051.86
754.955	10971.99
755.146	10642.27
755.338	10736.48
755.53	11072.34
755.721	11064.15
755.913	10509.15
756.104	10306.4
756.296	10865.5
756.487	11068.25
756.679	10455.9
756.87	10539.87
757.062	10763.1
757.253	10910.55
757.445	10625.89
757.636	10650.46
757.827	10816.35
758.019	11379.54
758.21	10359.65
758.401	10460
758.593	11246.42
758.784	10980.18
758.975	10574.69
759.167	10240.87
759.358	10732.38
759.549	10840.92
759.74	10339.17
759.932	10386.27
760.123	10959.7
760.314	10576.73
760.505	10494.82
760.696	10273.64
760.888	11049.82
761.079	10427.23
761.27	10138.47
761.461	10212.2
761.652	10996.57
761.843	10457.95
762.034	10304.35
762.225	10595.17
762.416	10568.54
762.607	10488.67
762.798	10171.24
762.989	10462.05
763.18	11098.97
763.371	10251.11
763.562	10318.69
763.753	10343.27
763.944	10752.86
764.135	10703.71
764.326	10421.09
764.517	10089.32
764.708	10496.86
764.899	10523.49
765.089	9878.38
765.28	9745.26
765.471	10355.55
765.662	10662.75
765.853	10081.13
766.043	9917.29
766.234	10564.45
766.425	10449.76
766.615	10115.94
766.806	9814.89
766.997	10404.71
767.187	10273.64
767.378	10115.94
767.569	9571.18
767.759	10212.2
767.95	10226.53
768.141	10068.84
768.331	9950.06
768.522	10064.74
768.712	10449.76
768.903	9737.07
769.093	9956.2
769.284	10306.4
769.474	10177.38
769.665	9575.28
769.855	9591.66
770.046	10324.83
770.236	10128.23
770.426	9876.33
770.617	9683.82
770.807	10124.13
770.998	9761.64
771.188	9833.32
771.378	9663.34
771.569	10060.65
771.759	10046.31
771.949	9415.54
772.139	9644.91
772.33	9743.21
772.52	10404.71
772.71	9573.23
772.9	9501.55
773.09	10222.44
773.281	10408.8
773.471	9462.64
773.661	9649
773.851	9773.93
774.041	9741.16
774.231	9393.01
774.421	9655.15
774.611	10277.73
774.802	9655.15
774.992	9532.27
775.182	9345.91
775.372	9728.88
775.562	9929.58
775.752	9505.65
775.942	9515.89
776.131	10271.59
776.321	9964.39
776.511	9352.05
776.701	9321.33
776.891	9978.73
777.081	9433.97
777.271	9368.43
777.461	9319.28
777.651	9792.36
777.84	9931.62
778.03	9306.99
778.22	9329.52
778.41	10077.03
778.599	9249.65
778.789	9407.34
778.979	9061.24
779.169	9667.44
779.358	9388.91
779.548	9655.15
779.738	9026.42
779.927	9696.11
780.117	9411.44
780.307	8991.61
780.496	8876.92
780.686	9476.98
780.875	9853.8
781.065	9161.59
781.254	8954.74
781.444	9282.42
781.633	9397.1
781.823	8924.02
782.012	9003.89
782.202	9149.3
782.391	9311.09
782.581	8973.18
782.77	9112.44
782.96	9304.95
783.149	9018.23
783.338	9067.38
783.528	8651.64
783.717	9536.37
783.906	9542.51
784.096	9145.2
784.285	8946.55
784.474	9083.77
784.663	8952.7
784.853	8973.18
785.042	8782.71
785.231	9161.59
785.42	9282.42
785.61	8964.98
785.799	8842.11
785.988	9110.39
786.177	8997.75
786.366	8799.1
786.555	9065.33
786.744	9585.52
786.933	9171.83
787.122	8665.98
787.312	8827.77
787.501	9055.09
787.69	9372.53
787.879	8694.65
788.068	8833.91
788.257	8792.95
788.445	8907.64
788.634	8639.36
788.823	8393.6
789.012	9376.62
789.201	9263.99
789.39	8737.66
789.579	8403.84
789.768	8749.95
789.957	8909.69
790.145	8612.73
790.334	8524.67
790.523	8688.51
790.712	8758.14
790.9	8657.79
791.089	8485.76
791.278	9071.48
791.467	8823.67
791.655	8936.31
791.844	9012.09
792.033	8729.47
792.221	8582.01
792.41	8457.09
792.599	8240
792.787	9122.68
792.976	8936.31
793.164	8524.67
793.353	8557.44
793.541	9032.57
793.73	8926.07
793.918	8571.77
794.107	8326.02
794.295	8739.71
794.484	8641.4
794.672	8473.47
794.861	8250.24
795.049	8764.28
795.238	8801.15
795.426	8094.6
795.614	8405.89
795.803	8735.61
795.991	8905.59
796.179	8274.82
796.368	8397.7
796.556	8883.06
796.744	8348.54
796.932	8231.81
797.121	8240
797.309	8571.77
797.497	8889.21
797.685	8272.77
797.874	8356.74
798.062	8510.33
798.25	8778.62
798.438	8291.2
798.626	8180.61
798.814	8809.34
799.002	8917.88
799.19	8266.63
799.378	8233.86
799.566	8606.59
799.755	8819.58
799.943	8262.53
800.131	8323.97
800.318	8496
800.506	8672.12
800.694	8188.8
800.882	8395.65
801.07	9024.37
801.258	8553.34
801.446	8354.69
801.634	8240
801.822	8434.56
802.01	8305.54
802.197	8051.59
802.385	8352.64
802.573	8672.12
802.761	8412.03
802.949	8332.16
803.136	8149.89
803.324	8928.12
803.512	8799.1
803.699	8348.54
803.887	8115.08
804.075	8952.7
804.262	8297.35
804.45	8141.7
804.638	8430.46
804.825	8307.59
805.013	8299.39
805.201	8360.83
805.388	8125.32
805.576	8622.97
805.763	8874.87
805.951	8051.59
806.138	8434.56
806.326	9167.73
806.513	8682.36
806.701	8250.24
806.888	8293.25
807.075	8682.36
807.263	8952.7
807.45	8283.01
807.638	8446.85
807.825	8981.37
808.012	8827.77
808.2	8563.58
808.387	8799.1
808.574	8889.21
808.761	9016.18
808.949	8442.75
809.136	8477.57
809.323	8479.61
809.51	8678.27
809.698	8663.93
809.885	8600.44
810.072	8731.51
810.259	8940.41
810.446	8270.72
810.633	8452.99
810.82	9053.05
811.008	9048.95
811.195	8575.87
811.382	8371.07
811.569	8711.04
811.756	8309.63
811.943	8516.48
812.13	8297.35
812.317	8510.33
812.504	8532.86
812.691	8440.7
812.878	8547.2
813.064	9096.05
813.251	8768.38
813.438	8438.66
813.625	8686.46
813.812	8577.92
813.999	8754.04
814.186	8541.05
814.372	8493.95
814.559	8762.23
814.746	8889.21
814.933	8266.63
815.12	8534.91
815.306	8590.2
815.493	8446.85
815.68	8528.77
815.866	8381.31
816.053	8766.33
816.24	9026.42
816.426	8438.66
816.613	8270.72
816.799	9202.55
816.986	8872.82
817.173	8381.31
817.359	8194.95
817.546	8668.03
817.732	8307.59
817.919	8131.46
818.105	8467.33
818.292	8635.26
818.478	8872.82
818.665	8475.52
818.851	8323.97
819.037	9094.01
819.224	8518.53
819.41	8166.28
819.597	8168.32
819.783	9046.9
819.969	8801.15
820.156	8233.86
820.342	8131.46
820.528	9225.08
820.714	8543.1
820.901	8622.97
821.087	8131.46
821.273	9048.95
821.459	8387.46
821.646	8205.19
821.832	8090.5
822.018	8612.73
822.204	8504.19
822.39	8295.3
822.576	8231.81
822.762	8758.14
822.948	8729.47
823.134	8416.13
823.32	8076.16
823.507	8131.46
823.693	8379.26
823.879	8506.24
824.065	8164.23
824.25	8326.02
824.436	8362.88
824.622	8270.72
824.808	8123.27
824.994	8506.24
825.18	8319.87
825.366	7926.66
825.552	8018.82
825.738	8461.18
825.923	8502.14
826.109	8229.76
826.295	7875.46
826.481	8194.95
826.667	8321.92
826.852	8221.57
827.038	7971.72
827.224	8573.82
827.409	8784.76
827.595	7830.41
827.781	8082.31
827.966	8557.44
828.152	8500.09
828.338	8016.77
828.523	7558.03
828.709	8037.25
828.894	8545.15
829.08	7975.81
829.266	7795.59
829.451	8053.64
829.637	8354.69
829.822	8194.95
830.008	7869.32
830.193	8543.1
830.378	8516.48
830.564	8014.73
830.749	7689.1
830.935	8321.92
831.12	8328.06
831.305	7756.68
831.491	7887.75
831.676	7758.73
831.861	8369.02
832.047	7754.63
832.232	7697.29
832.417	8383.36
832.602	7967.62
832.788	7637.9
832.973	7797.64
833.158	8117.12
833.343	8012.68
833.528	7895.94
833.714	7969.67
833.899	8016.77
834.084	8369.02
834.269	7801.74
834.454	7721.87
834.639	8289.15
834.824	7963.53
835.009	7861.13
835.194	7715.72
835.379	8160.13
835.564	8315.78
835.749	7881.61
835.934	7672.71
836.119	8033.16
836.304	8045.45
836.489	7644.04
836.674	7793.55
836.859	7762.83
837.044	8186.76
837.228	7758.73
837.413	7709.58
837.598	7961.48
837.783	8233.86
837.968	7629.71
838.152	7457.68
838.337	7512.97
838.522	8110.98
838.707	8004.49
838.891	7863.18
839.076	7877.51
839.261	8160.13
839.445	7676.81
839.63	7680.91
839.815	8233.86
839.999	7822.22
840.184	7312.27
840.368	7558.03
840.553	7906.18
840.737	7897.99
840.922	7332.75
841.106	7144.34
841.291	7299.98
841.475	7734.15
841.66	7318.42
841.844	7205.78
842.029	8391.55
842.213	7279.5
842.397	7093.14
842.582	7156.63
842.766	8057.73
842.951	7746.44
843.135	7424.91
843.319	7332.75
843.504	7558.03
843.688	7910.28
843.872	6960.02
844.056	7115.67
844.241	7590.8
844.425	7469.97
844.609	7388.05
844.793	6943.64
844.977	7633.8
845.161	7504.78
845.346	6841.24
845.53	7060.37
845.714	7324.56
845.898	8049.54
846.082	7011.22
846.266	7074.71
846.45	7484.3
846.634	7672.71
846.818	7138.2
847.002	7439.25
847.186	7510.93
847.37	7295.89
847.554	7052.18
847.738	7316.37
847.922	7517.07
848.106	7537.55
848.29	6939.54
848.473	7123.86
848.657	7365.52
848.841	7392.14
849.025	7058.32
849.209	6765.46
849.392	7480.21
849.576	7252.88
849.76	6620.06
849.944	7068.56
850.127	7639.95
850.311	6943.64
850.495	6747.03
850.678	6724.51
850.862	7543.69
851.046	7752.59
851.229	7033.75
851.413	6816.66
851.596	7185.3
851.78	7218.07
851.964	7027.6
852.147	6994.84
852.331	7717.77
852.514	7383.95
852.698	6806.42
852.881	6658.97
853.065	7394.19
853.248	7078.8
853.431	6835.1
853.615	6810.52
853.798	7783.31
853.982	7099.28
854.165	7005.08
854.348	6726.55
854.532	6728.6
854.715	6714.27
854.898	6812.57
855.081	6689.69
855.265	7469.97
855.448	7445.39
855.631	6429.6
855.814	6736.79
855.997	7087
856.181	6757.27
856.364	6808.47
856.547	6437.79
856.73	6923.16
856.913	6962.07
857.096	6355.87
857.279	6624.15
857.462	6761.37
857.645	7078.8
857.828	6824.86
858.011	6742.94
858.194	6597.53
858.377	6943.64
858.56	6300.58
858.743	6575
858.926	6501.28
859.109	6716.31
859.292	6400.93
859.475	6396.83
859.658	7070.61
859.841	6957.97
860.023	6288.29
860.206	6202.27
860.389	6667.16
860.572	7041.94
860.755	6296.48
860.937	6304.67
861.12	6509.47
861.303	6652.83
861.486	6548.38
861.668	6271.9
861.851	6839.19
862.034	6871.96
862.216	6437.79
862.399	6189.99
862.581	6491.04
862.764	7003.03
862.947	6239.14
863.129	6345.63
863.312	6409.12
863.494	6857.62
863.677	6658.97
863.859	5944.23
864.042	6669.21
864.224	6646.68
864.406	6349.73
864.589	6128.55
864.771	6568.86
864.954	6159.27
865.136	6065.06
865.318	6132.64
865.501	6673.31
865.683	6050.72
865.865	6173.6
866.048	6138.79
866.23	6472.61
866.412	6595.48
866.594	6052.77
866.777	6382.49
866.959	6542.24
867.141	6280.1
867.323	6370.21
867.505	6282.14
867.687	6368.16
867.869	6306.72
868.052	6204.32
868.234	6073.25
868.416	6374.3
868.598	6468.51
868.78	6020
868.962	5946.28
869.144	6556.57
869.326	6511.52
869.508	6063.01
869.69	6024.1
869.872	6163.36
870.054	6497.18
870.236	5833.64
870.417	5905.32
870.599	6091.68
870.781	6693.79
870.963	6022.05
871.145	5995.43
871.327	6028.2
871.508	6464.41
871.69	5921.7
871.872	5831.59
872.054	6216.61
872.235	6286.24
872.417	5878.69
872.599	5698.47
872.78	6634.39
872.962	6321.06
873.144	5723.05
873.325	5989.28
873.507	6620.06
873.689	6136.74
873.87	5860.26
874.052	6075.3
874.233	5868.45
874.415	6319.01
874.596	5878.69
874.778	5774.25
874.959	6140.83
875.141	6390.69
875.322	5933.99
875.503	5653.42
875.685	6251.42
875.866	5698.47
876.048	5657.51
876.229	5682.09
876.41	6024.1
876.592	6126.5
876.773	5911.46
876.954	5618.6
877.136	6474.65
877.317	5952.42
877.498	5522.35
877.679	6079.4
877.86	6396.83
878.042	6099.87
878.223	5909.41
878.404	6302.62
878.585	6179.75
878.766	6374.3
878.947	6251.42
879.128	6230.94
879.309	6402.97
879.49	6337.44
879.672	5946.28
879.853	5981.09
880.034	6036.39
880.215	5962.66
880.396	5970.85
880.576	5940.13
880.757	5936.04
880.938	6450.08
881.119	5886.89
881.3	5919.65
881.481	6341.54
881.662	7050.13
881.843	5862.31
882.023	5837.73
882.204	6333.34
882.385	6333.34
882.566	5989.28
882.747	5993.38
882.927	6386.59
883.108	6517.66
883.289	5813.16
883.469	6257.57
883.65	6292.38
883.831	6304.67
884.011	6298.53
884.192	6173.6
884.373	6550.43
884.553	6493.08
884.734	6476.7
884.914	6411.17
885.095	7115.67
885.275	6814.62
885.456	6525.85
885.636	5870.5
885.817	6421.41
885.997	6591.39
886.178	6241.18
886.358	6175.65
886.538	6409.12
886.719	7551.88
886.899	6210.47
887.08	6486.94
887.26	6804.38
887.44	6149.03
887.621	6032.29
887.801	6386.59
887.981	7005.08
888.161	6603.68
888.342	6335.39
888.522	6460.32
888.702	6755.22
888.882	6779.8
889.062	6411.17
889.242	5933.99
889.423	7011.22
889.603	6661.02
889.783	6536.09
889.963	6155.17
890.143	6695.83
890.323	6749.08
890.503	6198.18
890.683	6189.99
890.863	6611.87
891.043	6632.35
891.223	6232.99
891.403	6462.37
891.583	6532
891.763	6888.34
891.943	6290.34
892.122	6097.83
892.302	6609.82
892.482	6583.2
892.662	6345.63
892.842	6579.1
893.022	6783.9
893.201	6427.55
893.381	6394.78
893.561	6323.1
893.741	6665.11
893.92	6738.84
894.1	6214.56
894.28	6329.25
894.459	6757.27
894.639	6732.7
894.819	6165.41
894.998	6562.72
895.178	6738.84
895.357	6624.15
895.537	6267.81
895.716	5989.28
895.896	6558.62
896.075	6790.04
896.255	6337.44
896.434	5993.38
896.614	6857.62
896.793	6865.82
896.973	6347.68
897.152	6265.76
897.331	6624.15
897.511	6708.12
897.69	6112.16
897.87	6099.87
898.049	6593.44
898.228	6435.74
898.407	6497.18
898.587	6216.61
898.766	6239.14
898.945	6435.74
899.124	6226.85
899.304	6079.4
899.483	6374.3
899.662	6646.68
899.841	5895.08
900.02	6093.73
900.199	6480.8
900.378	6241.18
900.557	5809.06
900.737	5792.68
900.916	6325.15
901.095	6468.51
901.274	6237.09
901.453	5555.12
901.632	6093.73
901.811	5972.9
901.989	5804.97
902.168	5493.68
902.347	6427.55
902.526	5866.41
902.705	5731.24
902.884	5888.93
903.063	6321.06
903.242	6280.1
903.42	5669.8
903.599	5833.64
903.778	6271.9
903.957	6226.85
904.135	5698.47
904.314	5567.4
904.493	6030.24
904.672	5921.7
904.85	5579.69
905.029	5520.3
905.207	5856.17
905.386	6380.45
905.565	5391.28
905.743	5491.63
905.922	5622.7
906.1	5927.85
906.279	5182.38
906.457	5194.67
906.636	5600.17
906.814	5661.61
906.993	5264.3
907.171	5184.43
907.35	5680.04
907.528	5790.63
907.707	5452.72
907.885	5063.6
908.063	5839.78
908.242	5307.31
908.42	5108.66
908.598	4883.38
908.777	5485.48
908.955	5231.54
909.133	5266.35
909.311	5034.93
909.49	5295.02
909.668	5372.85
909.846	5166
910.024	4772.79
910.202	5313.45
910.38	5563.31
910.559	5104.56
910.737	5026.74
910.915	5608.36
911.093	5610.41
911.271	5155.76
911.449	5489.58
911.627	5594.03
911.805	6085.54
911.983	5196.72
912.161	5110.71
912.339	5571.5
912.517	5817.26
912.695	5407.66
912.872	5374.89
913.05	5338.03
913.228	5727.14
913.406	5342.13
913.584	5321.65
913.762	5772.2
913.939	5278.64
914.117	5217.2
914.295	5262.26
914.473	5890.98
914.65	5839.78
914.828	5340.08
915.006	5307.31
915.184	5395.37
915.361	5596.07
915.539	5315.5
915.716	5477.29
915.894	5643.18
916.072	5925.8
916.249	5518.25
916.427	5319.6
916.604	5346.22
916.782	5723.05
916.959	5200.82
917.137	5186.48
917.314	5677.99
917.492	5755.82
917.669	5338.03
917.847	5174.19
918.024	5542.83
918.201	5239.73
918.379	5190.58
918.556	5331.89
918.733	5497.77
918.911	5448.62
919.088	5432.24
919.265	5118.9
919.442	5409.71
919.62	5395.37
919.797	5133.23
919.974	4998.07
920.151	5389.23
920.328	5333.93
920.506	5127.09
920.683	5219.25
920.86	5122.99
921.037	5043.12
921.214	5059.51
921.391	4920.24
921.568	5417.9
921.745	5010.36
921.922	4907.96
922.099	4998.07
922.276	5647.27
922.453	5493.68
922.63	4879.29
922.807	5260.21
922.984	5245.87
923.161	5157.81
923.338	4948.92
923.514	4903.86
923.691	5209.01
923.868	5200.82
924.045	4864.95
924.222	4789.17
924.399	5252.02
924.575	5233.58
924.752	5053.36
924.929	4869.05
925.105	5086.13
925.282	4979.64
925.459	4901.81
925.635	4871.09
925.812	5067.7
925.989	4797.37
926.165	4903.86
926.342	4600.76
926.518	4797.37
926.695	4838.33
926.871	4688.82
927.048	4457.4
927.224	5077.94
927.401	4770.74
927.577	4823.99
927.754	4398.01
927.93	5247.92
928.107	4977.59
928.283	4645.82
928.459	4615.1
928.636	4993.97
928.812	4740.02
928.988	4445.12
929.165	4381.63
929.341	4778.94
929.517	4823.99
929.693	4752.31
929.87	4119.49
930.046	4813.75
930.222	4465.6
930.398	4418.49
930.574	4604.86
930.751	4703.16
930.927	4524.99
931.103	4420.54
931.279	4297.66
931.455	4391.87
931.631	4588.47
931.807	4056
931.983	4084.67
932.159	4078.53
932.335	4449.21
932.511	4254.66
932.687	4090.82
932.863	4438.97
933.039	4359.1
933.215	3976.13
933.391	4064.19
933.566	4248.51
933.742	4436.92
933.918	3988.42
934.094	3847.11
934.27	4152.26
934.445	4117.44
934.621	3939.27
934.797	3806.15
934.973	4420.54
935.148	4115.39
935.324	3595.21
935.5	3509.19
935.675	4234.18
935.851	3924.93
936.027	3689.42
936.202	3597.26
936.378	3865.54
936.553	3679.18
936.729	3978.18
936.904	3154.9
937.08	3294.16
937.255	3449.8
937.431	3093.46
937.606	3097.55
937.782	3300.3
937.957	3394.51
938.133	3001.3
938.308	2808.79
938.483	3277.77
938.659	3011.54
938.834	2937.81
939.009	2896.85
939.185	3015.63
939.36	2843.6
939.535	2477.02
939.71	2761.69
939.886	3134.42
940.061	2999.25
940.236	2853.84
940.411	2653.14
940.586	2986.96
940.761	2984.91
940.937	2532.31
941.112	2329.56
941.287	2765.78
941.462	2642.9
941.637	2241.5
941.812	2513.88
941.987	2730.97
942.162	2667.48
942.337	2395.1
942.512	2495.45
942.687	2866.13
942.862	2741.21
943.037	2143.2
943.212	2016.23
943.386	2513.88
943.561	2560.98
943.736	2495.45
943.911	2544.6
944.086	2532.31
944.26	2491.35
944.435	2198.49
944.61	2405.34
944.785	2757.59
944.959	2954.19
945.134	2356.19
945.309	2243.55
945.483	2405.34
945.658	2741.21
945.833	2077.66
946.007	2063.33
946.182	2896.85
946.357	2319.32
946.531	2198.49
946.706	2233.31
946.88	2282.46
947.055	2614.23
947.229	2319.32
947.404	2073.57
947.578	2733.01
947.752	2593.75
947.927	2245.6
948.101	2104.29
948.276	2634.71
948.45	2472.92
948.624	2515.93
948.799	2391
948.973	2653.14
949.147	2339.8
949.321	2368.48
949.496	2409.44
949.67	2896.85
949.844	2524.12
950.018	2409.44
950.193	2317.28
950.367	3023.83
950.541	2675.67
950.715	2509.79
950.889	2638.81
951.063	2626.52
951.237	2759.64
951.411	2288.61
951.585	2298.84
951.759	2847.7
951.933	2708.44
952.107	2446.3
952.281	2581.46
952.455	3124.18
952.629	2921.43
952.803	2419.68
952.977	2403.29
953.151	2907.09
953.325	2821.08
953.499	2663.38
953.672	2382.81
953.846	2659.29
954.02	2634.71
954.194	2409.44
954.368	2511.83
954.541	2972.63
954.715	2618.33
954.889	2712.53
955.062	2442.2
955.236	2669.53
955.41	2741.21
955.583	2720.73
955.757	2335.71
955.93	2612.18
956.104	2479.07
956.278	2573.27
956.451	2649.05
956.625	2960.34
956.798	3292.11
956.972	2808.79
957.145	2550.75
957.319	2909.14
957.492	2900.95
957.665	2651.1
957.839	2569.18
958.012	2943.96
958.185	2708.44
958.359	2634.71
958.532	2769.88
958.705	2950.1
958.879	2784.21
959.052	2569.18
959.225	2470.87
959.398	2808.79
959.572	2790.36
959.745	2536.41
959.918	2665.43
960.091	2659.29
960.264	2980.82
960.438	2477.02
960.611	2556.89
960.784	3027.92
960.957	2530.27
961.13	2935.76
961.303	2628.57
961.476	2816.98
961.649	3068.88
961.822	2540.51
961.995	2696.15
962.168	3062.74
962.341	2919.38
962.514	2569.18
962.686	2569.18
962.859	2845.65
963.032	2993.11
963.205	2413.53
963.378	2360.28
963.551	2825.17
963.723	2743.25
963.896	2622.42
964.069	2632.66
964.242	2708.44
964.414	2989.01
964.587	2642.9
964.76	2567.13
964.932	2999.25
965.105	2790.36
965.278	2462.68
965.45	2429.91
965.623	2866.13
965.795	2786.26
965.968	2499.55
966.14	2548.7
966.313	2675.67
966.485	2802.65
966.658	2546.65
966.83	2544.6
967.003	3068.88
967.175	2960.34
967.348	2380.76
967.52	2409.44
967.692	3208.14
967.865	2982.87
968.037	2509.79
968.209	2812.89
968.382	2798.55
968.554	2958.29
968.726	2589.66
968.898	2407.39
969.071	2915.28
969.243	2872.28
969.415	2577.37
969.587	2577.37
969.759	3034.07
969.932	2827.22
970.104	2483.16
970.276	2272.22
970.448	2530.27
970.62	2452.44
970.792	2550.75
970.964	2530.27
971.136	3118.03
971.308	2835.41
971.48	2315.23
971.652	2354.14
971.824	2976.72
971.996	2536.41
972.168	2434.01
972.339	2364.38
972.511	2833.36
972.683	2493.4
972.855	2634.71
973.027	2425.82
973.199	2618.33
973.37	2833.36
973.542	2460.63
973.714	2413.53
973.886	2552.79
974.057	2859.99
974.229	2368.48
974.401	2280.41
974.572	2526.17
974.744	2345.95
974.915	2259.93
975.087	2464.73
975.259	3062.74
975.43	2579.42
975.602	2337.76
975.773	2218.97
975.945	2448.35
976.116	2718.68
976.288	2341.85
976.459	2610.14
976.63	2585.56
976.802	2726.87
976.973	2249.69
977.145	2448.35
977.316	3038.16
977.487	2593.75
977.659	2452.44
977.83	2235.36
978.001	2917.33
978.172	2442.2
978.344	2364.38
978.515	2294.75
978.686	2290.65
978.857	2755.54
979.028	2216.93
979.2	2218.97
979.371	2677.72
979.542	2431.96
979.713	2388.96
979.884	1864.68
980.055	2229.21
980.226	2388.96
980.397	2149.34
980.568	1987.55
980.739	2788.31
980.91	2354.14
981.081	2290.65
981.252	2059.23
981.423	2382.81
981.594	2669.53
981.765	1981.41
981.936	2341.85
982.106	2415.58
982.277	2560.98
982.448	2079.71
982.619	2202.59
982.79	2192.35
982.96	2632.66
983.131	2259.93
983.302	1864.68
983.472	2184.16
983.643	2280.41
983.814	2116.58
983.984	1958.88
984.155	2243.55
984.326	2520.03
984.496	1901.54
984.667	2048.99
984.837	2094.05
985.008	2659.29
985.178	2380.76
985.349	2040.8
985.519	2192.35
985.69	2130.91
985.86	1864.68
986.031	1874.92
986.201	2378.72
986.371	2313.18
986.542	1891.3
986.712	1721.32
986.882	2354.14
987.053	2212.83
987.223	1897.44
987.393	1995.75
987.563	2008.03
987.734	2143.2
987.904	2298.84
988.074	1901.54
988.244	2216.93
988.414	2161.63
988.585	1940.45
988.755	1999.84
988.925	2120.67
989.095	2507.74
989.265	1768.42
989.435	1885.16
989.605	2214.88
989.775	2212.83
989.945	2120.67
990.115	1776.61
990.285	2028.51
990.455	2114.53
990.625	2016.23
990.795	1704.93
990.965	2352.09
991.134	1649.64
991.304	1688.55
991.474	1602.54
991.644	1926.11
991.814	2356.19
991.984	1588.2
992.153	1756.13
992.323	1836
992.493	1897.44
992.662	1459.18
992.832	1733.61
993.002	1958.88
993.171	2061.28
993.341	1377.26
993.511	1762.28
993.68	1770.47
993.85	2048.99
994.019	1467.37
994.189	1530.86
994.358	2018.27
994.528	1684.45
994.697	1428.46
994.867	1479.66
995.036	2016.23
995.206	1569.77
995.375	1379.31
995.544	1727.46
995.714	1952.74
995.883	1631.21
996.052	1698.79
996.222	1258.48
996.391	2325.47
996.56	1809.38
996.73	1285.1
996.899	1254.38
997.068	2204.64
997.237	1659.88
997.406	1375.21
997.576	1283.05
997.745	1668.07
997.914	1686.5
998.083	1180.65
998.252	1303.53
998.421	1651.69
998.59	1508.33
998.759	1360.88
998.928	1012.72
999.097	1967.07
999.266	1731.56
999.435	1512.42
999.604	1145.84
999.773	2089.95
999.942	1549.29
1000.111	1192.94
1000.28	1217.52
1000.448	1346.54
1000.617	1295.34
1000.786	1426.41
1000.955	1262.57
1001.124	1717.22
1001.292	2259.93
1001.461	1258.48
1001.63	1160.17
1001.798	1909.73
1001.967	1833.96
1002.136	1184.75
1002.304	1059.82
1002.473	1602.54
1002.642	1522.66
1002.81	1283.05
1002.979	1309.68
1003.147	1764.33
1003.316	2094.05
1003.484	1168.37
1003.653	1154.03
1003.821	1850.34
1003.99	1524.71
1004.158	1295.34
1004.327	1156.08
1004.495	1602.54
1004.663	1270.76
1004.832	1348.59
1005	1025.01
1005.168	1602.54
1005.337	1520.62
1005.505	1012.72
1005.673	1184.75
1005.842	1635.3
1006.01	1549.29
1006.178	1025.01
1006.346	1053.68
1006.514	1520.62
1006.683	1672.17
1006.851	1088.5
1007.019	1131.5
1007.187	1129.45
1007.355	898.03
1007.523	824.31
1007.691	938.99
1007.859	1049.58
1008.027	1618.92
1008.195	996.34
1008.363	824.31
1008.531	1577.96
1008.699	1031.15
1008.867	889.84
1009.035	914.42
1009.203	1565.67
1009.37	1225.71
1009.538	959.47
1009.706	1350.64
1009.874	1254.38
1010.042	1326.06
1010.209	766.96
1010.377	879.6
1010.545	1483.75
1010.713	1254.38
1010.88	840.69
1011.048	869.36
1011.216	1158.13
1011.383	1569.77
1011.551	895.99
1011.718	758.77
1011.886	1442.79
1012.054	1151.98
1012.221	803.83
1012.389	799.73
1012.556	1176.56
1012.724	1530.86
1012.891	947.19
1013.058	637.94
1013.226	1358.83
1013.393	1293.29
1013.561	633.85
1013.728	605.17
1013.895	1352.68
1014.063	1311.72
1014.23	742.39
1014.397	799.73
1014.565	1356.78
1014.732	959.47
1014.899	607.22
1015.066	504.82
1015.233	1108.98
1015.401	1248.24
1015.568	777.2
1015.735	850.93
1015.902	1129.45
1016.069	1149.93
1016.236	750.58
1016.403	568.31
1016.57	936.95
1016.737	1311.72
1016.904	746.48
1017.071	654.33
1017.238	754.68
1017.405	1250.28
1017.572	828.4
1017.739	850.93
1017.906	1217.52
1018.073	1315.82
1018.24	553.98
1018.407	773.11
1018.573	1229.81
1018.74	988.14
1018.907	685.05
1019.074	527.35
1019.241	1211.37
1019.407	1008.62
1019.574	646.13
1019.741	459.77
1019.907	1022.96
1020.074	1094.64
1020.241	304.12
1020.407	463.86
1020.574	1180.65
1020.74	1061.87
1020.907	619.51
1021.073	535.54
1021.24	1524.71
1021.406	1285.1
1021.573	461.82
1021.739	576.5
1021.906	1108.98
1022.072	900.08
1022.239	566.26
1022.405	523.26
1022.571	910.32
1022.738	709.62
1022.904	531.45
1023.07	603.13
1023.237	938.99
1023.403	1072.11
1023.569	539.64
1023.735	574.46
1023.902	973.81
1024.068	902.13
1024.234	359.42
1024.4	529.4
1024.566	889.84
1024.732	1043.44
1024.898	461.82
1025.065	293.88
1025.231	988.14
1025.397	713.72
1025.563	443.39
1025.729	381.95
1025.895	398.33
1026.061	648.18
1026.227	283.64
1026.392	457.72
1026.558	1154.03
1026.724	982
1026.89	402.43
1027.056	490.49
1027.222	926.71
1027.388	678.9
1027.553	402.43
1027.719	345.08
1027.885	1233.9
1028.051	922.61
1028.216	320.51
1028.382	453.63
1028.548	910.32
1028.713	721.91
1028.879	205.82
1029.045	470.01
1029.21	1004.53
1029.376	1047.54
1029.541	431.1
1029.707	367.61
1029.873	992.24
1030.038	955.38
1030.204	371.71
1030.369	334.84
1030.534	869.36
1030.7	652.28
1030.865	383.99
1031.031	318.46
1031.196	912.37
1031.361	742.39
1031.527	353.27
1031.692	289.79
1031.857	353.27
1032.023	922.61
1032.188	289.79
1032.353	353.27
1032.518	1131.5
1032.684	676.85
1032.849	207.87
1033.014	365.56
1033.179	887.79
1033.344	859.12
1033.509	349.18
1033.674	330.75
1033.839	992.24
1034.004	922.61
1034.17	275.45
1034.335	193.53
1034.5	637.94
1034.664	596.98
1034.829	293.88
1034.994	418.81
1035.159	650.23
1035.324	787.44
1035.489	340.99
1035.654	310.27
1035.819	953.33
1035.984	734.2
1036.148	259.07
1036.313	281.6
1036.478	984.05
1036.643	771.06
1036.807	209.92
1036.972	164.86
1037.137	1008.62
1037.301	572.41
1037.466	185.34
1037.631	357.37
1037.795	900.08
1037.96	642.04
1038.124	431.1
1038.289	179.2
1038.454	844.79
1038.618	734.2
1038.783	242.68
1038.947	252.92
1039.111	637.94
1039.276	558.07
1039.44	166.91
1039.605	662.52
1039.769	414.71
1039.933	603.13
1040.098	310.27
1040.262	402.43
1040.426	795.64
1040.591	736.24
1040.755	156.67
1040.919	205.82
1041.083	730.1
1041.248	508.92
1041.412	62.46
1041.576	171.01
1041.74	549.88
1041.904	752.63
1042.068	128
1042.232	177.15
1042.397	846.84
1042.561	803.83
1042.725	39.94
1042.889	302.08
1043.053	754.68
1043.217	719.86
1043.381	308.22
1043.544	68.61
1043.708	801.78
1043.872	312.32
1044.036	-48.13
1044.2	33.79
1044.364	709.62
1044.528	900.08
1044.691	4991.92
1044.855	27.65
1045.019	865.27
1045.183	717.81
1045.346	267.26
1045.51	70.65
1045.674	574.46
1045.837	658.42
1046.001	160.77
1046.165	132.09
1046.328	1065.97
1046.492	574.46
1046.655	265.21
1046.819	103.42
1046.983	343.03
1047.146	627.7
1047.31	226.3
1047.473	-52.22
1047.636	611.32
1047.8	357.37
1047.963	154.62
1048.127	-9.22
1048.29	357.37
