Data from Hydrogel_Ink_Intensity_Test_1_USB4F045381__52__00052.txt Node

Date: Mon Jul 31 10:49:43 EDT 2023
User: mmckonesweet
Spectrometer: USB4F04538
Trigger mode: 4
Integration Time (sec): 9.000000E-1
Scans to average: 1
Electric dark correction enabled: true
Nonlinearity correction enabled: false
Boxcar width: 0
XAxis mode: Wavelengths
Number of Pixels in Spectrum: 3648
>>>>>Begin Spectral Data<<<<<
345.52	-981.66
345.736	-981.66
345.952	-981.66
346.168	-1016.48
346.384	-1036.95
346.6	-86.7
346.816	-225.96
347.032	-246.44
347.248	249.17
347.464	-180.9
347.68	-107.18
347.896	71
348.112	445.77
348.328	-156.33
348.544	-144.04
348.76	50.52
348.975	331.09
349.191	-178.86
349.407	-168.62
349.623	140.63
349.839	15.7
350.055	-70.31
350.27	54.61
350.486	179.54
350.702	363.86
350.918	263.51
351.133	-131.75
351.349	152.91
351.565	433.49
351.781	-197.29
351.996	36.18
352.212	326.99
352.428	-49.83
352.644	-164.52
352.859	-205.48
353.075	326.99
353.291	42.32
353.506	-137.9
353.722	-207.53
353.938	-21.16
354.153	425.29
354.369	161.11
354.584	-115.37
354.8	275.79
355.016	-322.21
355.231	-189.1
355.447	-17.07
355.662	220.5
355.878	779.59
356.093	-330.41
356.309	7.51
356.524	-228.01
356.74	222.55
356.955	-150.18
357.171	-45.74
357.386	177.49
357.602	-213.67
357.817	-129.7
358.033	-150.18
358.248	425.29
358.464	269.65
358.679	-113.32
358.895	-303.78
359.11	19.8
359.325	318.8
359.541	238.93
359.756	15.7
359.972	-283.3
360.187	281.94
360.402	-152.23
360.618	-53.93
360.833	953.67
361.048	163.15
361.264	-109.23
361.479	-41.64
361.694	-35.5
361.909	222.55
362.125	-154.28
362.34	-29.35
362.555	392.53
362.77	130.39
362.986	-195.24
363.201	-109.23
363.416	154.96
363.631	114
363.847	-127.66
364.062	-137.9
364.277	171.35
364.492	97.62
364.707	-176.81
364.922	-295.59
365.138	294.22
365.353	339.28
365.568	-199.34
365.783	-41.64
365.998	136.53
366.213	644.43
366.428	-254.63
366.643	136.53
366.858	306.51
367.073	247.12
367.288	-211.62
367.503	-137.9
367.718	46.42
367.933	367.95
368.148	-258.73
368.363	-64.17
368.578	75.09
368.793	472.4
369.008	-94.89
369.223	-127.66
369.438	240.98
369.653	433.49
369.868	-209.58
370.083	-213.67
370.298	89.43
370.513	419.15
370.728	32.08
370.943	-129.7
371.157	-82.6
371.372	638.28
371.587	-187.05
371.802	-256.68
372.017	152.91
372.232	544.08
372.446	5.46
372.661	-236.2
372.876	251.22
373.091	202.07
373.306	-74.41
373.52	-248.49
373.735	-84.65
373.95	388.43
374.165	-45.74
374.379	-107.18
374.594	-101.03
374.809	169.3
375.023	58.71
375.238	-213.67
375.453	271.7
375.667	-191.14
375.882	-119.46
376.097	-191.14
376.311	109.91
376.526	66.9
376.741	-148.14
376.955	154.96
377.17	671.05
377.384	599.37
377.599	-49.83
377.813	-180.9
378.028	601.42
378.242	290.13
378.457	-78.51
378.672	-221.86
378.886	181.59
379.101	62.8
379.315	-250.53
379.53	-60.07
379.744	257.36
379.958	175.44
380.173	-51.88
380.387	-60.07
380.602	200.02
380.816	9.56
381.031	-125.61
381.245	-80.55
381.459	234.83
381.674	2880.81
381.888	-103.08
382.103	130.39
382.317	15.7
382.531	601.42
382.746	23.89
382.96	-131.75
383.174	-70.31
383.388	425.29
383.603	122.2
383.817	-178.86
384.031	249.17
384.246	603.47
384.46	36.18
384.674	443.73
384.888	32.08
385.103	183.63
385.317	-209.58
385.531	-33.45
385.745	388.43
385.959	345.42
386.174	-72.36
386.388	-133.8
386.602	11.61
386.816	-12.97
387.03	21.84
387.244	-39.59
387.458	140.63
387.672	521.55
387.887	-230.06
388.101	-180.9
388.315	447.82
388.529	169.3
388.743	-53.93
388.957	-123.56
389.171	445.77
389.385	-39.59
389.599	-6.83
389.813	175.44
390.027	183.63
390.241	695.63
390.455	-53.93
390.669	7.51
390.883	-37.55
391.097	548.17
391.311	105.81
391.525	-103.08
391.738	283.98
391.952	363.86
392.166	-21.16
392.38	-96.94
392.594	372.05
392.808	499.02
393.022	-19.11
393.236	-12.97
393.449	290.13
393.663	218.45
393.877	-107.18
394.091	118.1
394.305	-10.92
394.518	93.52
394.732	-172.71
394.946	-55.98
395.16	558.41
395.373	124.24
395.587	-49.83
395.801	-94.89
396.015	370
396.228	308.56
396.442	-211.62
396.656	-180.9
396.869	496.97
397.083	650.57
397.297	32.08
397.51	40.28
397.724	496.97
397.938	294.22
398.151	-137.9
398.365	-189.1
398.578	351.57
398.792	531.79
399.005	191.83
399.219	34.13
399.433	200.02
399.646	417.1
399.86	226.64
400.073	224.59
400.287	431.44
400.5	148.82
400.714	191.83
400.927	118.1
401.141	365.9
401.354	1219.91
401.567	306.51
401.781	-66.22
401.994	449.87
402.208	779.59
402.421	56.66
402.635	163.15
402.848	187.73
403.061	474.45
403.275	212.31
403.488	-76.46
403.701	644.43
403.915	384.34
404.128	105.81
404.341	23.89
404.555	306.51
404.768	224.59
404.981	167.25
405.195	3.41
405.408	701.77
405.621	458.06
405.834	243.03
406.048	-72.36
406.261	621.9
406.474	630.09
406.687	-55.98
406.9	122.2
407.114	261.46
407.327	400.72
407.54	-105.13
407.753	-60.07
407.966	64.85
408.179	347.47
408.392	3.41
408.605	-45.74
408.819	372.05
409.032	359.76
409.245	36.18
409.458	230.74
409.671	517.45
409.884	638.28
410.097	-101.03
410.31	222.55
410.523	406.86
410.736	267.6
410.949	68.95
411.162	95.57
411.375	568.65
411.588	652.62
411.801	279.89
412.014	81.24
412.227	173.39
412.44	302.42
412.653	105.81
412.865	286.03
413.078	572.75
413.291	488.78
413.504	163.15
413.717	68.95
413.93	568.65
414.143	134.48
414.356	111.96
414.568	-88.75
414.781	533.84
414.994	410.96
415.207	216.4
415.42	197.97
415.632	517.45
415.845	771.4
416.058	-19.11
416.271	-15.02
416.483	304.46
416.696	724.3
416.909	118.1
417.121	89.43
417.334	492.88
417.547	855.37
417.759	58.71
417.972	23.89
418.185	210.26
418.397	589.13
418.61	179.54
418.823	142.68
419.035	757.07
419.248	408.91
419.46	181.59
419.673	269.65
419.885	486.73
420.098	220.5
420.311	142.68
420.523	-2.73
420.736	523.6
420.948	380.24
421.161	171.35
421.373	27.99
421.586	413.01
421.798	208.21
422.01	-21.16
422.223	304.46
422.435	290.13
422.648	576.84
422.86	259.41
423.073	183.63
423.285	621.9
423.497	114
423.71	89.43
423.922	200.02
424.134	630.09
424.347	752.97
424.559	449.87
424.771	388.43
424.984	292.18
425.196	550.22
425.408	11.61
425.621	44.37
425.833	679.24
426.045	820.55
426.257	138.58
426.47	165.2
426.682	605.52
426.894	499.02
427.106	208.21
427.318	257.36
427.531	372.05
427.743	728.39
427.955	275.79
428.167	693.58
428.379	617.8
428.591	415.05
428.804	449.87
429.016	161.11
429.228	429.39
429.44	656.72
429.652	458.06
429.864	181.59
430.076	462.16
430.288	445.77
430.5	363.86
430.712	376.14
430.924	685.39
431.136	589.13
431.348	138.58
431.56	236.88
431.772	523.6
431.984	470.35
432.196	288.08
432.408	320.85
432.62	429.39
432.832	660.81
433.044	558.41
433.256	478.54
433.468	683.34
433.679	222.55
433.891	175.44
434.103	599.37
434.315	888.14
434.527	709.96
434.739	451.92
434.95	546.12
435.162	793.93
435.374	474.45
435.586	388.43
435.798	427.34
436.009	324.94
436.221	523.6
436.433	433.49
436.645	394.58
436.856	513.36
437.068	814.41
437.28	306.51
437.491	707.91
437.703	855.37
437.915	757.07
438.126	447.82
438.338	662.86
438.55	677.19
438.761	730.44
438.973	490.83
439.184	490.83
439.396	623.95
439.608	861.51
439.819	281.94
440.031	546.12
440.242	929.1
440.454	793.93
440.665	433.49
440.877	589.13
441.088	806.22
441.3	601.42
441.511	275.79
441.723	365.9
441.934	681.29
442.146	808.26
442.357	656.72
442.569	679.24
442.78	750.92
442.991	1250.63
443.203	828.74
443.414	507.21
443.626	1189.19
443.837	566.6
444.048	447.82
444.26	423.25
444.471	722.25
444.682	959.81
444.894	431.44
445.105	333.14
445.316	963.91
445.528	900.42
445.739	669
445.95	607.56
446.161	800.07
446.373	935.24
446.584	605.52
446.795	632.14
447.006	1039.69
447.217	1162.56
447.429	458.06
447.64	357.71
447.851	1099.08
448.062	875.85
448.273	456.01
448.484	462.16
448.695	927.05
448.907	755.02
449.118	634.19
449.329	763.21
449.54	714.06
449.751	703.82
449.962	615.76
450.173	615.76
450.384	1129.8
450.595	1205.57
450.806	695.63
451.017	761.16
451.228	1189.19
451.439	1105.22
451.65	615.76
451.861	478.54
452.072	634.19
452.283	863.56
452.494	894.28
452.705	693.58
452.915	1305.92
453.126	1004.87
453.337	750.92
453.548	617.8
453.759	1256.77
453.97	1373.5
454.181	1019.21
454.391	820.55
454.602	1041.73
454.813	1152.32
455.024	806.22
455.235	744.78
455.445	1097.03
455.656	1006.92
455.867	894.28
456.078	828.74
456.288	912.71
456.499	1150.28
456.71	697.67
456.921	1097.03
457.131	1140.04
457.342	1172.8
457.553	845.13
457.763	802.12
457.974	1246.53
458.184	1285.44
458.395	791.88
458.606	789.83
458.816	1451.33
459.027	1523.01
459.237	1150.28
459.448	718.15
459.659	1410.37
459.869	1695.04
460.08	759.11
460.29	1058.12
460.501	1617.21
460.711	1047.88
460.922	773.45
461.132	920.9
461.343	1819.96
461.553	843.08
461.764	1074.5
461.974	959.81
462.184	1344.83
462.395	1396.03
462.605	1064.26
462.816	978.25
463.026	1316.16
463.236	1674.56
463.447	1088.84
463.657	1019.21
463.867	1697.08
464.078	1260.87
464.288	1221.95
464.498	1217.86
464.709	1422.66
464.919	1414.46
465.129	1162.56
465.339	1174.85
465.55	1510.72
465.76	1613.12
465.97	1219.91
466.18	1137.99
466.391	1709.37
466.601	1641.79
466.811	1342.78
467.021	1181
467.231	1656.12
467.441	1721.66
467.651	1312.07
467.862	1109.32
468.072	1631.55
468.282	1910.07
468.492	1195.33
468.702	1525.05
468.912	1596.73
469.122	2106.68
469.332	1756.47
469.542	1342.78
469.752	1895.74
469.962	1807.67
470.172	1484.09
470.382	1398.08
470.592	1989.94
470.802	2063.67
471.012	1787.19
471.222	1615.16
471.432	2141.49
471.642	1973.56
471.852	1779
472.062	1549.63
472.272	1897.78
472.482	1664.32
472.691	1719.61
472.901	1590.59
473.111	2047.29
473.321	2581.81
473.531	1735.99
473.741	1875.26
473.95	2174.26
474.16	2276.66
474.37	2035
474.58	1889.59
474.79	2600.24
474.999	2450.74
475.209	1758.52
475.419	2039.09
475.628	2313.52
475.838	2487.6
476.048	2063.67
476.258	1938.74
476.467	2649.39
476.677	2288.95
476.886	2374.96
477.096	2198.84
477.306	2305.33
477.515	2827.56
477.725	2413.87
477.935	2346.29
478.144	2927.91
478.354	2514.22
478.563	2352.43
478.773	2325.81
478.982	2759.98
479.192	3054.89
479.401	2442.54
479.611	2534.7
479.82	2417.97
480.03	2874.67
480.239	2401.58
480.449	2581.81
480.658	3126.57
480.868	2835.75
481.077	2868.52
481.287	2751.79
481.496	2985.26
481.705	3331.36
481.915	3091.75
482.124	3095.85
482.333	3018.02
482.543	3603.74
482.752	3083.56
482.961	2721.07
483.171	3276.07
483.38	3228.96
483.589	3058.98
483.799	2948.39
484.008	3104.04
484.217	3400.99
484.426	3151.14
484.636	2884.91
484.845	3444
485.054	3091.75
485.263	3394.85
485.472	3276.07
485.682	3906.84
485.891	3527.97
486.1	3067.17
486.309	3233.06
486.518	3824.92
486.727	3970.33
486.936	3353.89
487.146	3366.18
487.355	4009.24
487.564	3419.43
487.773	3521.82
487.982	3538.21
488.191	3818.78
488.4	3921.18
488.609	3570.97
488.818	3616.03
489.027	4365.59
489.236	4177.17
489.445	3642.65
489.654	3769.63
489.863	4304.15
490.072	3908.89
490.281	4168.98
490.49	3849.5
490.698	4250.9
490.907	4478.22
491.116	3894.55
491.325	3743
491.534	4302.1
491.743	4037.91
491.952	4027.67
492.16	3962.14
492.369	4353.3
492.578	4560.14
492.787	4046.1
492.996	3886.36
493.204	4181.27
493.413	4828.43
493.622	3716.38
493.831	3919.13
494.039	4734.22
494.248	4187.41
494.457	4168.98
494.665	3994.9
494.874	4689.17
495.083	5076.23
495.291	4257.04
495.5	4187.41
495.709	4605.2
495.917	4744.46
496.126	4545.81
496.335	4472.08
496.543	4590.86
496.752	4693.26
496.96	4623.63
497.169	4379.92
497.377	4789.52
497.586	5072.14
497.794	4629.77
498.003	4361.49
498.211	4717.84
498.42	5119.24
498.628	4764.94
498.837	4500.75
499.045	5178.63
499.254	5004.55
499.462	4586.77
499.671	4678.93
499.879	5508.35
500.087	5336.32
500.296	4676.88
500.504	4828.43
500.713	5162.25
500.921	5833.98
501.129	4799.76
501.338	4781.32
501.546	5254.41
501.754	5195.01
501.962	5004.55
502.171	4826.38
502.379	5311.75
502.587	5661.95
502.795	5188.87
503.004	5002.5
503.212	5528.83
503.42	5553.41
503.628	5115.14
503.837	5233.93
504.045	5737.73
504.253	5782.78
504.461	5162.25
504.669	4963.59
504.877	5709.05
505.085	6073.59
505.294	5010.7
505.502	5471.49
505.71	5698.81
505.918	5790.97
506.126	5104.9
506.334	5225.73
506.542	5725.44
506.75	5743.87
506.958	5371.14
507.166	5465.35
507.374	5500.16
507.582	6135.03
507.79	5530.88
507.998	5387.52
508.206	5827.84
508.414	6020.35
508.622	5422.34
508.83	5528.83
509.037	6401.27
509.245	5864.7
509.453	5506.31
509.661	5498.11
509.869	5893.37
510.077	5774.59
510.285	5872.89
510.492	5307.65
510.7	6446.32
510.908	5741.82
511.116	5868.8
511.324	5721.34
511.531	5844.22
511.739	6155.51
511.947	5881.08
512.155	6151.42
512.362	6182.14
512.57	5975.29
512.778	5790.97
512.985	5805.31
513.193	6286.58
513.401	6442.23
513.608	5919.99
513.816	5924.09
514.024	6272.25
514.231	6450.42
514.439	6008.06
514.646	5971.19
514.854	6620.4
515.061	6345.97
515.269	6061.3
515.477	5973.24
515.684	6300.92
515.892	6565.11
516.099	6016.25
516.307	5844.22
516.514	6667.5
516.722	6726.89
516.929	6466.8
517.136	6298.87
517.344	6892.78
517.551	6628.59
517.759	6219
517.966	6391.03
518.173	6440.18
518.381	6692.08
518.588	6354.16
518.796	6331.64
519.003	6835.44
519.21	6452.47
519.418	6399.22
519.625	6620.4
519.832	6700.27
520.039	6792.43
520.247	6452.47
520.454	6354.16
520.661	6941.93
520.868	6747.37
521.076	6458.61
521.283	6567.15
521.49	7365.86
521.697	7054.57
521.904	6489.33
522.112	6575.34
522.319	7181.54
522.526	7091.43
522.733	6591.73
522.94	6515.95
523.147	7011.56
523.354	7124.2
523.561	6616.3
523.768	6692.08
523.975	7412.96
524.183	7034.09
524.39	6749.42
524.597	6745.33
524.804	6962.41
525.011	6943.98
525.218	6790.38
525.425	6825.2
525.632	7529.7
525.838	7046.38
526.045	6995.18
526.252	6986.99
526.459	8391.89
526.666	7961.82
526.873	6982.89
527.08	6962.41
527.287	7650.53
527.494	7167.21
527.701	6948.08
527.907	6915.31
528.114	7533.79
528.321	7451.88
528.528	7011.56
528.735	7277.8
528.941	7365.86
529.148	7261.41
529.355	7183.59
529.562	7070.95
529.768	7933.15
529.975	7343.33
530.182	7343.33
530.388	7128.3
530.595	7994.59
530.802	7267.56
531.008	7431.4
531.215	7386.34
531.422	8197.34
531.628	8332.5
531.835	7226.6
532.042	7273.7
532.248	7697.63
532.455	7857.37
532.661	7705.82
532.868	7664.86
533.074	7810.27
533.281	8039.64
533.487	7769.31
533.694	7617.76
533.9	7826.65
534.107	7990.49
534.313	7498.98
534.52	7681.25
534.726	8307.93
534.933	8402.13
535.139	7722.21
535.345	7613.67
535.552	7931.1
535.758	8127.71
535.965	7812.32
536.171	7711.97
536.377	8432.85
536.584	8604.88
536.79	7668.96
536.996	7886.05
537.203	8174.81
537.409	8336.6
537.615	7875.81
537.821	7974.11
538.028	8406.23
538.234	8471.76
538.44	8185.05
538.646	8170.71
538.853	8457.43
539.059	8185.05
539.265	8539.35
539.471	7793.89
539.677	8625.36
539.883	8385.75
540.09	8103.13
540.296	8680.66
540.502	8389.85
540.708	8379.61
540.914	8439
541.12	8346.84
541.326	8727.76
541.532	8406.23
541.738	8434.9
541.944	8344.79
542.15	8873.17
542.356	8631.51
542.562	8230.1
542.768	8453.33
542.974	9276.62
543.18	9272.52
543.386	8627.41
543.592	8391.89
543.798	9188.55
544.004	9047.24
544.21	8430.8
544.415	8715.47
544.621	8971.47
544.827	9387.21
545.033	8674.51
545.239	8815.82
545.445	8713.42
545.651	9022.67
545.856	8733.9
546.062	8608.98
546.268	9034.96
546.474	9135.31
546.679	8535.25
546.885	8606.93
547.091	8944.84
547.297	9385.16
547.502	8895.69
547.708	8740.05
547.914	8821.97
548.119	9338.05
548.325	8725.71
548.531	8600.79
548.736	9452.74
548.942	9047.24
549.147	8783.06
549.353	9020.62
549.559	9587.91
549.764	9481.41
549.97	9039.05
550.175	9127.11
550.381	9366.73
550.586	8957.13
550.792	8885.45
550.997	8905.93
551.203	9587.91
551.408	9514.18
551.614	8979.66
551.819	8838.35
552.025	9915.58
552.23	10007.74
552.435	9071.82
552.641	9442.5
552.846	9479.36
553.052	9964.73
553.257	9252.04
553.462	9321.67
553.668	9389.25
553.873	9923.77
554.078	9368.77
554.283	9252.04
554.489	9770.18
554.694	9696.45
554.899	9395.4
555.105	9419.97
555.31	10026.17
555.515	9983.16
555.72	9473.22
555.925	9280.71
556.131	9915.58
556.336	9825.47
556.541	9444.55
556.746	9278.66
556.951	10228.92
557.156	10253.5
557.361	9653.44
557.567	9712.83
557.772	10284.22
557.977	9983.16
558.182	9452.74
558.387	9505.99
558.592	9815.23
558.797	10177.72
559.002	9559.24
559.207	9823.42
559.412	10017.98
559.617	10411.19
559.822	9669.83
560.027	9518.28
560.232	10126.52
560.437	10339.51
560.642	9479.36
560.847	9809.09
561.051	10036.41
561.256	10214.59
561.461	9899.2
561.666	9671.87
561.871	10276.02
562.076	10091.71
562.281	9829.57
562.485	9882.81
562.69	10407.09
562.895	10398.9
563.1	9829.57
563.305	9837.76
563.509	10298.55
563.714	10769.58
563.919	9780.42
564.123	10003.64
564.328	10110.14
564.533	10548.4
564.737	10026.17
564.942	9895.1
565.147	10871.98
565.351	11003.05
565.556	10230.97
565.761	10095.8
565.965	10396.85
566.17	10169.53
566.374	10198.2
566.579	10054.84
566.784	10392.76
566.988	10224.83
567.193	9985.21
567.397	10032.32
567.602	10247.35
567.806	10425.53
568.011	10343.61
568.215	10300.6
568.42	10452.15
568.624	10595.51
568.828	10095.8
569.033	10392.76
569.237	10691.76
569.442	10919.09
569.646	10054.84
569.85	10364.09
570.055	10751.15
570.259	10577.08
570.463	10820.78
570.668	10308.79
570.872	10603.7
571.076	10489.01
571.281	10484.92
571.485	10546.36
571.689	10720.43
571.893	11062.44
572.098	10884.27
572.302	10519.73
572.506	11013.29
572.71	10884.27
572.914	10738.87
573.119	10540.21
573.323	11017.39
573.527	11103.4
573.731	10511.54
573.935	10658.99
574.139	11039.92
574.343	10767.54
574.547	10548.4
574.751	10691.76
574.955	11050.16
575.159	11113.64
575.364	10673.33
575.568	10628.28
575.772	10992.81
575.976	11216.04
576.18	10630.32
576.383	10593.46
576.587	11445.41
576.791	11359.4
576.995	10656.95
577.199	10714.29
577.403	11107.5
577.607	11371.69
577.811	10755.25
578.015	10951.85
578.219	11263.15
578.422	11547.81
578.626	11095.21
578.83	11177.13
579.034	11422.89
579.238	11369.64
579.442	10898.61
579.645	11426.98
579.849	11279.53
580.053	11398.31
580.257	11058.35
580.46	11146.41
580.664	11750.56
580.868	11386.02
581.071	11297.96
581.275	11140.27
581.479	11142.32
581.682	11426.98
581.886	11091.12
582.09	11277.48
582.293	11664.55
582.497	11644.07
582.7	11388.07
582.904	10980.53
583.107	11588.77
583.311	11693.22
583.515	11218.09
583.718	11521.19
583.922	11709.6
584.125	11830.43
584.329	11361.45
584.532	11461.8
584.735	12094.62
584.939	11846.82
585.142	11224.23
585.346	11388.07
585.549	11789.47
585.753	11664.55
585.956	11584.68
586.159	11642.02
586.363	12192.92
586.566	11785.38
586.769	11521.19
586.973	11340.97
587.176	11996.32
587.379	12139.68
587.582	11920.54
587.786	11900.06
587.989	12035.23
588.192	12551.32
588.395	11578.53
588.599	11730.08
588.802	12168.35
589.005	12348.57
589.208	11801.76
589.411	11910.3
589.615	12293.27
589.818	12336.28
590.021	11961.5
590.224	11789.47
590.427	12553.37
590.63	12307.61
590.833	11664.55
591.036	11881.63
591.239	12235.93
591.442	12086.43
591.645	12106.91
591.848	11955.36
592.051	12326.04
592.254	12536.98
592.457	12045.47
592.66	12172.44
592.863	12156.06
593.066	12563.61
593.269	12086.43
593.472	12289.18
593.675	12311.71
593.878	12481.69
594.081	12350.62
594.284	12016.8
594.486	12647.57
594.689	12420.25
594.892	12383.38
595.095	12248.22
595.298	12721.3
595.5	12385.43
595.703	12381.34
595.906	12463.26
596.109	12913.81
596.311	12850.32
596.514	11938.98
596.717	12592.28
596.92	12776.59
597.122	12973.2
597.325	12264.6
597.528	12448.92
597.73	12821.65
597.933	12645.52
598.136	12518.55
598.338	12156.06
598.541	12860.56
598.743	13231.24
598.946	12242.07
599.148	12663.96
599.351	13042.83
599.554	13204.62
599.756	12614.8
599.959	12745.87
600.161	13139.08
600.363	13393.03
600.566	12653.72
600.768	12715.16
600.971	13477
601.173	13171.85
601.376	12784.79
601.578	12960.91
601.78	13028.49
601.983	13620.36
602.185	12416.15
602.388	13008.01
602.59	13098.13
602.792	13014.16
602.995	12754.07
603.197	12641.43
603.399	13192.33
603.601	13110.41
603.804	12752.02
604.006	12815.51
604.208	12897.42
604.41	12457.11
604.613	12790.93
604.815	12825.75
605.017	13554.82
605.219	12727.44
605.421	12856.47
605.623	12975.25
605.826	13587.59
606.028	13581.45
606.23	12930.19
606.432	13048.97
606.634	13716.61
606.836	13343.88
607.038	12954.77
607.24	13192.33
607.442	13130.89
607.644	13167.76
607.846	13069.45
608.048	12876.94
608.25	13397.13
608.452	13022.35
608.654	12946.58
608.856	12792.98
609.058	13184.14
609.26	13352.07
609.462	13116.56
609.664	13194.38
609.866	13710.47
610.067	13624.45
610.269	13309.07
610.471	12915.86
610.673	13534.34
610.875	13610.12
611.077	13046.93
611.278	13255.82
611.48	13214.86
611.682	13698.18
611.884	13196.43
612.085	13282.44
612.287	13053.07
612.489	13560.97
612.69	12975.25
612.892	13100.17
613.094	13640.84
613.295	13563.01
613.497	13145.23
613.699	13251.72
613.9	13677.7
614.102	13833.35
614.304	13165.71
614.505	12956.82
614.707	13345.93
614.908	13354.12
615.11	12848.27
615.311	13130.89
615.513	13565.06
615.714	13778.05
615.916	13165.71
616.117	13089.93
616.319	13495.43
616.52	13855.87
616.722	13028.49
616.923	13401.22
617.124	13859.97
617.326	13552.77
617.527	13335.69
617.729	13374.6
617.93	14064.77
618.131	13776
618.333	13100.17
618.534	13532.29
618.735	13573.25
618.937	14101.63
619.138	13319.31
619.339	13118.61
619.54	13493.38
619.742	13640.84
619.943	13675.65
620.144	13286.54
620.345	13585.54
620.546	13870.21
620.748	13466.76
620.949	13427.85
621.15	13943.94
621.351	13595.78
621.552	13190.28
621.753	13130.89
621.954	13347.98
622.155	14075.01
622.356	13374.6
622.558	13509.77
622.759	13788.29
622.96	13911.17
623.161	13433.99
623.362	13397.13
623.563	13681.8
623.764	13802.63
623.965	13485.19
624.166	13528.2
624.366	13513.86
624.567	13757.57
624.768	13161.61
624.969	13292.68
625.17	13767.81
625.371	13855.87
625.572	13618.31
625.773	13335.69
625.973	14003.33
626.174	13841.54
626.375	13638.79
626.576	13694.08
626.777	13880.45
626.977	14419.07
627.178	13847.68
627.379	13577.35
627.58	13876.35
627.78	13765.76
627.981	13479.05
628.182	13722.76
628.382	14197.88
628.583	13354.12
628.784	13415.56
628.984	13567.11
629.185	14251.13
629.386	13823.11
629.586	13646.98
629.787	13454.47
629.987	14089.34
630.188	13966.46
630.388	13825.15
630.589	13599.88
630.79	14455.93
630.99	13898.88
631.191	13634.69
631.391	13982.85
631.591	14054.53
631.792	14457.98
631.992	13761.67
632.193	13837.44
632.393	14290.04
632.594	13753.48
632.794	13497.48
632.994	13855.87
633.195	14128.25
633.395	14105.73
633.595	13722.76
633.796	14015.62
633.996	13882.5
634.196	14318.71
634.397	13749.38
634.597	13786.24
634.797	13794.43
634.997	14236.8
635.198	13909.12
635.398	13698.18
635.598	14066.81
635.798	14632.05
635.998	14265.47
636.199	13935.74
636.399	13972.61
636.599	13956.22
636.799	14019.71
636.999	14169.21
637.199	14234.75
637.399	14363.77
637.599	13788.29
637.799	13923.46
637.999	13819.01
638.199	14550.14
638.399	13743.24
638.599	13995.14
638.799	14533.75
638.999	14789.75
639.199	14165.12
639.399	14253.18
639.599	14560.38
639.799	14064.77
639.999	13984.9
640.199	13626.5
640.399	14224.51
640.599	14146.69
640.799	14212.22
640.998	14244.99
641.198	14537.85
641.398	14173.31
641.598	14132.35
641.798	14126.21
641.997	15379.56
642.197	14232.7
642.397	13970.56
642.597	13972.61
642.796	14390.39
642.996	14453.88
643.196	14070.91
643.395	13941.89
643.595	14494.84
643.795	13913.22
643.994	14158.97
644.194	14107.77
644.394	14611.57
644.593	14496.89
644.793	14083.2
644.992	14390.39
645.192	14474.36
645.392	14269.56
645.591	14478.46
645.791	14543.99
645.99	14740.6
646.19	14392.44
646.389	14472.31
646.589	14564.47
646.788	14523.51
646.987	14484.6
647.187	14486.65
647.386	14240.89
647.586	14417.02
647.785	14865.52
647.984	14347.39
648.184	14591.09
648.383	14570.61
648.582	14464.12
648.782	14562.42
648.981	14466.17
649.18	14394.49
649.38	14601.33
649.579	14281.85
649.778	14408.83
649.977	14744.69
650.177	14748.79
650.376	14396.54
650.575	14500.98
650.774	15031.41
650.973	14460.02
651.173	14238.84
651.372	14218.36
651.571	14703.73
651.77	15004.78
651.969	14539.9
652.168	14347.39
652.367	14183.55
652.566	14552.18
652.765	14402.68
652.964	14677.11
653.163	15053.94
653.362	14814.32
653.561	14582.9
653.76	14437.5
653.959	14695.54
654.158	14982.26
654.357	14623.86
654.556	14576.76
654.755	14875.76
654.954	14855.28
655.153	14339.19
655.352	14449.78
655.551	15420.52
655.749	14754.93
655.948	14613.62
656.147	14615.67
656.346	14980.21
656.545	14703.73
656.743	14587
656.942	14818.42
657.141	14761.08
657.34	14769.27
657.538	14515.32
657.737	14564.47
657.936	14834.8
658.135	14922.87
658.333	14423.16
658.532	14543.99
658.731	15477.87
658.929	15148.14
659.128	14926.96
659.326	14541.94
659.525	15307.88
659.724	14957.68
659.922	14505.08
660.121	14601.33
660.319	15135.85
660.518	14584.95
660.716	14464.12
660.915	14769.27
661.113	15365.23
661.312	14664.82
661.51	14742.64
661.709	14709.88
661.907	15174.77
662.105	15260.78
662.304	14576.76
662.502	14861.43
662.701	15158.38
662.899	14783.6
663.097	15088.75
663.296	14654.58
663.494	15268.97
663.692	15580.26
663.891	14666.87
664.089	14572.66
664.287	15146.09
664.485	15285.36
664.684	14650.49
664.882	14830.71
665.08	14910.58
665.278	15066.22
665.476	14548.09
665.675	15047.79
665.873	15520.87
666.071	15131.76
666.269	14511.22
666.467	15076.46
666.665	14945.39
666.863	14797.94
667.061	15035.5
667.259	14613.62
667.457	14949.49
667.655	15154.29
667.853	14437.5
668.051	14736.5
668.249	14623.86
668.447	15047.79
668.645	14654.58
668.843	14920.82
669.041	15236.2
669.239	14795.89
669.437	14804.08
669.635	14750.84
669.833	14986.35
670.031	14984.3
670.229	14722.16
670.426	14761.08
670.624	14460.02
670.822	14804.08
671.02	14933.11
671.218	14578.81
671.415	14580.85
671.613	14818.42
671.811	14566.52
672.009	14720.12
672.206	15168.62
672.404	14713.97
672.602	15004.78
672.799	14761.08
672.997	15180.91
673.195	15158.38
673.392	14926.96
673.59	14576.76
673.788	14998.64
673.985	14498.94
674.183	14570.61
674.38	14767.22
674.578	15262.83
674.775	14720.12
674.973	14566.52
675.17	14625.91
675.368	15144.05
675.565	14949.49
675.763	14572.66
675.96	14400.63
676.158	14998.64
676.355	14613.62
676.553	14478.46
676.75	14550.14
676.947	15076.46
677.145	14879.86
677.342	14539.9
677.539	14646.39
677.737	14886
677.934	15162.48
678.131	14773.36
678.329	14500.98
678.526	14986.35
678.723	15123.57
678.92	14666.87
679.118	14421.11
679.315	14677.11
679.512	15158.38
679.709	14414.97
679.906	14546.04
680.104	15076.46
680.301	14670.97
680.498	14390.39
680.695	14240.89
680.892	14351.48
681.089	14396.54
681.286	14558.33
681.483	14163.07
681.68	14797.94
681.877	14834.8
682.075	14314.62
682.272	14836.85
682.469	14593.14
682.665	14752.88
682.862	14224.51
683.059	14294.14
683.256	14720.12
683.453	14804.08
683.65	14685.3
683.847	14326.91
684.044	14505.08
684.241	14455.93
684.438	14693.49
684.635	14267.52
684.831	15043.7
685.028	14781.56
685.225	14187.64
685.422	14367.87
685.619	14310.52
685.815	14570.61
686.012	14417.02
686.209	14247.04
686.405	14519.42
686.602	14867.57
686.799	14142.59
686.996	14275.71
687.192	14072.96
687.389	14912.63
687.586	14175.36
687.782	14240.89
687.979	14847.09
688.175	14666.87
688.372	14302.33
688.568	14251.13
688.765	14492.79
688.962	14632.05
689.158	14273.66
689.355	13847.68
689.551	14630.01
689.748	14400.63
689.944	14298.24
690.14	14001.28
690.337	14509.18
690.533	14472.31
690.73	14230.65
690.926	14134.4
691.123	14550.14
691.319	14273.66
691.515	13890.69
691.712	14283.9
691.908	14525.56
692.104	14552.18
692.301	14165.12
692.497	13937.79
692.693	14464.12
692.889	14414.97
693.086	14126.21
693.282	13880.45
693.478	14421.11
693.674	14767.22
693.87	14101.63
694.067	14058.62
694.263	14417.02
694.459	14457.98
694.655	14300.28
694.851	14345.34
695.047	14337.15
695.243	14484.6
695.439	14005.38
695.635	13868.16
695.831	14179.45
696.027	14148.73
696.224	13880.45
696.42	14417.02
696.615	14716.02
696.811	14263.42
697.007	13841.54
697.203	13806.72
697.399	14328.95
697.595	14228.6
697.791	13810.82
697.987	13878.4
698.183	13855.87
698.379	13761.67
698.575	13896.83
698.77	14113.92
698.966	14478.46
699.162	14402.68
699.358	14042.24
699.554	13833.35
699.749	14384.25
699.945	14193.79
700.141	13853.83
700.337	13685.89
700.532	14081.15
700.728	14005.38
700.924	13669.51
701.119	13804.67
701.315	14101.63
701.511	14122.11
701.706	13771.91
701.902	13546.63
702.097	13909.12
702.293	14175.36
702.489	13823.11
702.684	13671.56
702.88	13937.79
703.075	13882.5
703.271	13726.85
703.466	13491.34
703.662	13843.59
703.857	14138.49
704.053	13687.94
704.248	13800.58
704.443	14351.48
704.639	14240.89
704.834	13726.85
705.03	13862.02
705.225	14044.29
705.42	14222.46
705.616	13819.01
705.811	13593.73
706.006	13769.86
706.202	13745.28
706.397	13640.84
706.592	13597.83
706.787	13982.85
706.983	13722.76
707.178	14261.37
707.373	13696.13
707.568	14150.78
707.763	14105.73
707.959	13632.65
708.154	13763.72
708.349	13868.16
708.544	13995.14
708.739	13833.35
708.934	13526.15
709.129	13941.89
709.324	13718.66
709.519	13548.68
709.714	13415.56
709.909	14095.49
710.104	13782.15
710.299	13532.29
710.494	13579.4
710.689	13890.69
710.884	13733
711.079	13524.1
711.274	13661.32
711.469	14087.29
711.664	13847.68
711.859	13450.38
712.054	13728.9
712.249	13804.67
712.443	14091.39
712.638	13239.44
712.833	13350.03
713.028	13884.55
713.223	13743.24
713.417	13622.41
713.612	13171.85
713.807	14001.28
714.002	14242.94
714.196	13827.2
714.391	13386.89
714.586	13857.92
714.78	13769.86
714.975	13487.24
715.17	13319.31
715.364	13499.53
715.559	14048.38
715.754	13104.27
715.948	13122.7
716.143	14042.24
716.337	13397.13
716.532	13776
716.726	13417.61
716.921	13536.39
717.115	14118.01
717.31	13087.89
717.504	13995.14
717.699	13343.88
717.893	13595.78
718.088	12911.76
718.282	12979.34
718.476	13495.43
718.671	13313.16
718.865	13237.39
719.059	13171.85
719.254	13405.32
719.448	13831.3
719.642	14302.33
719.837	12926.1
720.031	13495.43
720.225	13503.62
720.419	13077.65
720.614	13319.31
720.808	13370.51
721.002	13163.66
721.196	12967.06
721.39	12965.01
721.585	13481.1
721.779	13440.14
721.973	12975.25
722.167	12813.46
722.361	13372.55
722.555	13608.07
722.749	12989.58
722.943	12829.84
723.137	13081.74
723.331	13163.66
723.525	12930.19
723.719	13182.09
723.913	13327.5
724.107	13477
724.301	12772.5
724.495	12698.77
724.689	13489.29
724.883	13429.9
725.077	12915.86
725.271	12928.14
725.465	13524.1
725.659	13272.2
725.853	12995.73
726.046	12889.23
726.24	13094.03
726.434	13335.69
726.628	12670.1
726.822	12975.25
727.015	13628.55
727.209	13386.89
727.403	13008.01
727.596	12528.79
727.79	13253.77
727.984	13386.89
728.177	12948.62
728.371	12903.57
728.565	13196.43
728.758	12835.99
728.952	12833.94
729.146	12809.36
729.339	13456.52
729.533	13091.98
729.726	12934.29
729.92	12829.84
730.113	13520.01
730.307	13569.16
730.5	12917.9
730.694	12713.11
730.887	13171.85
731.081	13239.44
731.274	12672.15
731.468	12844.18
731.661	13229.2
731.854	13003.92
732.048	12713.11
732.241	12749.97
732.435	12797.07
732.628	12999.82
732.821	13106.32
733.014	13012.11
733.208	12975.25
733.401	13304.97
733.594	12770.45
733.788	12686.48
733.981	13296.78
734.174	13026.45
734.367	12733.59
734.56	12827.79
734.754	13124.75
734.947	12952.72
735.14	12729.49
735.333	12756.11
735.526	13083.79
735.719	12846.23
735.912	12692.63
736.105	12895.38
736.298	12930.19
736.491	12864.66
736.684	12623
736.877	12694.68
737.07	13085.84
737.263	13073.55
737.456	12874.9
737.649	12489.88
737.842	12803.22
738.035	12930.19
738.228	12688.53
738.421	12901.52
738.614	13032.59
738.807	13206.67
739	12369.05
739.192	12598.42
739.385	12983.44
739.578	13055.12
739.771	12975.25
739.964	12639.38
740.156	13153.42
740.349	12821.65
740.542	13034.64
740.735	12332.19
740.927	12852.37
741.12	12627.09
741.313	12608.66
741.505	12819.6
741.698	12956.82
741.891	12797.07
742.083	12850.32
742.276	12522.65
742.468	12819.6
742.661	12799.12
742.854	12594.33
743.046	12338.33
743.239	13087.89
743.431	12606.61
743.624	12508.31
743.816	12524.69
744.009	12688.53
744.201	12663.96
744.393	12721.3
744.586	12489.88
744.778	13091.98
744.971	12778.64
745.163	12532.89
745.355	12620.95
745.548	12903.57
745.74	12768.4
745.932	12555.41
746.125	12647.57
746.317	13354.12
746.509	12844.18
746.702	12575.89
746.894	12407.96
747.086	12803.22
747.278	12866.7
747.471	12623
747.663	12440.73
747.855	12694.68
748.047	13001.87
748.239	12385.43
748.431	12434.58
748.623	13046.93
748.815	13114.51
749.008	12420.25
749.2	12430.49
749.392	12846.23
749.584	12739.73
749.776	12590.23
749.968	12397.72
750.16	13173.9
750.352	12653.72
750.544	12545.17
750.736	12323.99
750.928	12733.59
751.12	12549.27
751.311	12057.76
751.503	12303.51
751.695	12821.65
751.887	12522.65
752.079	12317.85
752.271	12469.4
752.463	13384.84
752.654	12674.2
752.846	12205.21
753.038	12301.47
753.23	12309.66
753.421	12649.62
753.613	12180.64
753.805	12250.27
753.997	12604.56
754.188	12582.04
754.38	12086.43
754.572	12190.88
754.763	12317.85
754.955	12514.45
755.146	12379.29
755.338	12315.8
755.53	12426.39
755.721	12332.19
755.913	12190.88
756.104	12154.01
756.296	12305.56
756.487	12692.63
756.679	12115.1
756.87	11838.62
757.062	11787.43
757.253	12168.35
757.445	11959.45
757.636	12192.92
757.827	12141.72
758.019	12723.35
758.21	11916.45
758.401	11902.11
758.593	12692.63
758.784	12917.9
758.975	11797.67
759.167	11791.52
759.358	12039.33
759.549	12543.13
759.74	11699.36
759.932	11807.91
760.123	12262.55
760.314	11893.92
760.505	11904.16
760.696	11570.34
760.888	12539.03
761.079	11855.01
761.27	11713.7
761.461	11588.77
761.652	12377.24
761.843	11941.02
762.034	11775.14
762.225	11957.41
762.416	12162.2
762.607	11881.63
762.798	11719.84
762.989	11689.12
763.18	12893.33
763.371	11812
763.562	11504.81
763.753	11502.76
763.944	11963.55
764.135	12131.48
764.326	11719.84
764.517	11426.98
764.708	11885.73
764.899	11873.44
765.089	11328.68
765.28	11349.16
765.471	11713.7
765.662	11787.43
765.853	11596.96
766.043	11187.37
766.234	11879.58
766.425	11934.88
766.615	11394.22
766.806	11287.72
766.997	11820.19
767.187	11627.68
767.378	11461.8
767.569	11283.63
767.759	11930.78
767.95	11646.12
768.141	11326.63
768.331	11158.7
768.522	11803.81
768.712	11549.86
768.903	11211.95
769.093	11271.34
769.284	12012.7
769.474	11400.36
769.665	10955.95
769.855	11054.25
770.046	11648.16
770.236	11287.72
770.426	11349.16
770.617	11164.84
770.807	11535.53
770.998	11465.89
771.188	11318.44
771.378	11103.4
771.569	11553.96
771.759	11246.76
771.949	10958
772.139	10785.97
772.33	11349.16
772.52	11736.23
772.71	10878.13
772.9	10826.93
773.09	11531.43
773.281	11494.57
773.471	10900.65
773.661	10687.67
773.851	11496.61
774.041	11123.88
774.231	10833.07
774.421	10767.54
774.611	11435.17
774.802	11001.01
774.992	10755.25
775.182	10583.22
775.372	10947.76
775.562	11345.06
775.752	10704.05
775.942	10761.39
776.131	11494.57
776.321	10859.7
776.511	10931.37
776.701	10441.91
776.891	11201.71
777.081	10677.43
777.271	10857.65
777.461	10763.44
777.651	10943.66
777.84	11050.16
778.03	10513.59
778.22	10572.98
778.41	11261.1
778.599	10826.93
778.789	10732.72
778.979	10394.81
779.169	10982.57
779.358	10804.4
779.548	10839.22
779.738	10355.9
779.927	10970.29
780.117	10491.06
780.307	10529.97
780.496	10097.85
780.686	10792.11
780.875	11168.94
781.065	10466.49
781.254	10429.62
781.444	10583.22
781.633	10720.43
781.823	10151.1
782.012	10245.31
782.202	10628.28
782.391	10454.2
782.581	10192.06
782.77	10413.24
782.96	10611.89
783.149	10308.79
783.338	10312.89
783.528	10101.95
783.717	10587.32
783.906	10753.2
784.096	10476.73
784.285	10106.04
784.474	10347.7
784.663	10446.01
784.853	10147
785.042	10278.07
785.231	10222.78
785.42	10851.5
785.61	10247.35
785.799	10091.71
785.988	10374.33
786.177	10138.81
786.366	10167.48
786.555	10239.16
786.744	10407.09
786.933	10165.43
787.122	9698.5
787.312	9985.21
787.501	10024.12
787.69	10386.61
787.879	9772.22
788.068	9946.3
788.257	9925.82
788.445	10118.33
788.634	9979.07
788.823	9815.23
789.012	10820.78
789.201	10552.5
789.39	10013.88
789.579	9614.53
789.768	10159.29
789.957	10230.97
790.145	10028.22
790.334	9675.97
790.523	10028.22
790.712	9931.97
790.9	9985.21
791.089	9737.41
791.278	10259.64
791.467	10161.34
791.655	9913.53
791.844	10362.04
792.033	9909.44
792.221	9845.95
792.41	9827.52
792.599	9485.51
792.787	10011.84
792.976	10327.22
793.164	9460.93
793.353	9641.15
793.541	9966.78
793.73	10187.96
793.918	9538.76
794.107	9630.91
794.295	9884.86
794.484	10140.86
794.672	9639.11
794.861	9577.67
795.049	10024.12
795.238	10071.23
795.426	9452.74
795.614	9512.13
795.803	9993.4
795.991	10030.27
796.179	9440.45
796.368	9237.7
796.556	10149.05
796.744	9331.91
796.932	9592
797.121	9413.83
797.309	9729.22
797.497	10157.24
797.685	9467.08
797.874	9569.48
798.062	9669.83
798.25	10159.29
798.438	9395.4
798.626	9512.13
798.814	9866.43
799.002	10052.8
799.19	9678.02
799.378	9376.97
799.566	9995.45
799.755	9999.55
799.943	9612.48
800.131	9356.49
800.318	9723.07
800.506	9616.58
800.694	9338.05
800.882	9551.04
801.07	9974.97
801.258	9729.22
801.446	9364.68
801.634	9448.65
801.822	9739.46
802.01	9528.52
802.197	9327.82
802.385	9841.86
802.573	9546.95
802.761	9577.67
802.949	9649.35
803.136	9305.29
803.324	9948.35
803.512	9905.34
803.699	9555.14
803.887	9231.56
804.075	10099.9
804.262	9481.41
804.45	9157.83
804.638	9497.8
804.825	9567.43
805.013	9823.42
805.201	9505.99
805.388	9258.18
805.576	9753.79
805.763	10474.68
805.951	9589.95
806.138	9764.03
806.326	10200.25
806.513	9645.25
806.701	9663.68
806.888	9440.45
807.075	9888.96
807.263	10308.79
807.45	9409.73
807.638	9731.26
807.825	10321.08
808.012	9938.11
808.2	9530.56
808.387	9729.22
808.574	9829.57
808.761	10253.5
808.949	9493.7
809.136	9606.34
809.323	9747.65
809.51	9757.89
809.698	9944.25
809.885	9708.74
810.072	9862.33
810.259	10226.87
810.446	9356.49
810.633	9444.55
810.82	10243.26
811.008	10339.51
811.195	9727.17
811.382	9723.07
811.569	10060.99
811.756	9553.09
811.943	9833.66
812.13	9612.48
812.317	9735.36
812.504	9813.18
812.691	9774.27
812.878	9675.97
813.064	10278.07
813.251	9940.16
813.438	9641.15
813.625	9741.5
813.812	9864.38
813.999	9919.68
814.186	9680.07
814.372	9821.38
814.559	10167.48
814.746	10374.33
814.933	9536.71
815.12	9764.03
815.306	9704.64
815.493	9651.39
815.68	9454.79
815.866	9620.67
816.053	10302.65
816.24	10398.9
816.426	9862.33
816.613	9608.39
816.799	10226.87
816.986	10003.64
817.173	9577.67
817.359	9587.91
817.546	10015.93
817.732	9438.41
817.919	9409.73
818.105	9903.29
818.292	9780.42
818.478	10032.32
818.665	9958.59
818.851	9538.76
819.037	10185.91
819.224	9872.57
819.41	9239.75
819.597	9448.65
819.783	10097.85
819.969	10034.36
820.156	9458.89
820.342	9469.12
820.528	10562.74
820.714	9770.18
820.901	9915.58
821.087	9557.19
821.273	10134.71
821.459	9731.26
821.646	9565.38
821.832	9624.77
822.018	9678.02
822.204	9716.93
822.39	9643.2
822.576	9321.67
822.762	9774.27
822.948	9641.15
823.134	9458.89
823.32	9397.45
823.507	9411.78
823.693	9782.46
823.879	9741.5
824.065	9508.04
824.25	9716.93
824.436	9415.88
824.622	9141.45
824.808	9094.35
824.994	9376.97
825.18	9505.99
825.366	9383.11
825.552	9223.37
825.738	9540.8
825.923	9749.7
826.109	9639.11
826.295	9358.53
826.481	9524.42
826.667	9129.16
826.852	9340.1
827.038	9061.58
827.224	9891.01
827.409	9878.72
827.595	8953.04
827.781	9465.03
827.966	9614.53
828.152	9499.84
828.338	9067.72
828.523	9010.38
828.709	9278.66
828.894	9712.83
829.08	9012.43
829.266	8928.46
829.451	9403.59
829.637	9620.67
829.822	9100.49
830.008	8998.09
830.193	9649.35
830.378	9952.45
830.564	8961.23
830.749	8928.46
830.935	9356.49
831.12	9561.28
831.305	8903.89
831.491	8832.21
831.676	8932.56
831.861	9424.07
832.047	9030.86
832.232	9055.44
832.417	9600.19
832.602	9372.87
832.788	8776.91
832.973	8916.17
833.158	8969.42
833.343	9434.31
833.528	8953.04
833.714	8924.37
833.899	9311.43
834.084	9536.71
834.269	8979.66
834.454	8746.19
834.639	9342.15
834.824	8981.71
835.009	8959.18
835.194	8875.21
835.379	9108.68
835.564	9186.51
835.749	9039.05
835.934	8781.01
836.119	9108.68
836.304	9110.73
836.489	8688.85
836.674	9016.52
836.859	8600.79
837.044	9284.81
837.228	8860.88
837.413	8752.34
837.598	8996.04
837.783	9192.65
837.968	8682.7
838.152	8381.65
838.337	8508.63
838.522	9354.44
838.707	9282.76
838.891	8590.55
839.076	8916.17
839.261	9182.41
839.445	8758.48
839.63	8514.77
839.815	9301.19
839.999	8662.23
840.184	8545.49
840.368	8594.64
840.553	9071.82
840.737	8948.94
840.922	8578.26
841.106	8457.43
841.291	8477.91
841.475	8799.44
841.66	8486.1
841.844	8297.69
842.029	9553.09
842.213	8547.54
842.397	8383.7
842.582	8242.39
842.766	8940.75
842.951	8903.89
843.135	8377.56
843.319	8344.79
843.504	8703.18
843.688	8907.98
843.872	8183
844.056	8316.12
844.241	8944.84
844.425	8256.73
844.609	8611.03
844.793	8131.8
844.977	8801.49
845.161	8414.42
845.346	8436.95
845.53	8228.06
845.714	8381.65
845.898	8738
846.082	8035.55
846.266	8230.1
846.45	8596.69
846.634	8559.83
846.818	8144.09
847.002	8260.82
847.186	8451.28
847.37	8017.11
847.554	8076.51
847.738	8166.62
847.922	8391.89
848.106	8436.95
848.29	7935.2
848.473	8127.71
848.657	8551.63
848.841	8281.3
849.025	8092.89
849.209	7855.33
849.392	8561.87
849.576	8088.79
849.76	7668.96
849.944	8051.93
850.127	8461.52
850.311	7879.9
850.495	7724.26
850.678	7666.91
850.862	8508.63
851.046	8662.23
851.229	8072.41
851.413	7881.95
851.596	8096.99
851.78	8107.23
851.964	7980.25
852.147	7838.94
852.331	8674.51
852.514	8336.6
852.698	8037.59
852.881	7740.64
853.065	8162.52
853.248	8092.89
853.431	7992.54
853.615	7972.06
853.798	8627.41
853.982	8096.99
854.165	7970.01
854.348	7615.71
854.532	7912.67
854.715	7898.33
854.898	7851.23
855.081	7603.43
855.265	8119.51
855.448	8318.17
855.631	7730.4
855.814	7793.89
855.997	7996.64
856.181	7802.08
856.364	7750.88
856.547	7603.43
856.73	7775.45
856.913	7955.68
857.096	7396.58
857.279	7664.86
857.462	7736.54
857.645	8262.87
857.828	7593.19
858.011	7761.12
858.194	7752.93
858.377	7859.42
858.56	7306.47
858.743	7433.44
858.926	7677.15
859.109	7832.8
859.292	7597.28
859.475	7410.92
859.658	7998.68
859.841	7769.31
860.023	7310.57
860.206	7230.69
860.389	7697.63
860.572	7970.01
860.755	7455.97
860.937	7361.76
861.12	7642.34
861.303	7445.73
861.486	7431.4
861.668	7271.65
861.851	7791.84
862.034	7593.19
862.216	7519.46
862.399	7062.76
862.581	7556.32
862.764	7783.65
862.947	7292.13
863.129	7179.5
863.312	7189.74
863.494	7849.18
863.677	7433.44
863.859	7079.15
864.042	7445.73
864.224	7711.97
864.406	7204.07
864.589	6948.08
864.771	7539.94
864.954	7013.61
865.136	7060.71
865.318	6765.81
865.501	7326.95
865.683	6774
865.865	6960.36
866.048	7081.19
866.23	7294.18
866.412	7423.2
866.594	6782.19
866.777	7089.39
866.959	7447.78
867.141	7019.75
867.323	7277.8
867.505	7177.45
867.687	7105.77
867.869	7021.8
868.052	6827.25
868.234	6683.89
868.416	7306.47
868.598	7406.82
868.78	6980.84
868.962	6825.2
869.144	7410.92
869.326	7423.2
869.508	6892.78
869.69	6808.81
869.872	7138.54
870.054	7474.4
870.236	6655.22
870.417	6884.59
870.599	7154.92
870.781	7494.88
870.963	7038.19
871.145	6874.35
871.327	7032.04
871.508	7267.56
871.69	6806.77
871.872	6913.26
872.054	7159.02
872.235	7093.48
872.417	6798.57
872.599	6833.39
872.78	7544.03
872.962	7195.88
873.144	6591.73
873.325	6759.66
873.507	7458.02
873.689	6937.84
873.87	6989.03
874.052	6845.68
874.233	7322.85
874.415	7396.58
874.596	6835.44
874.778	6515.95
874.959	7179.5
875.141	7302.37
875.322	6925.55
875.503	6741.23
875.685	7222.5
875.866	6556.91
876.048	6640.88
876.229	6683.89
876.41	7054.57
876.592	7128.3
876.773	6843.63
876.954	6429.94
877.136	7353.57
877.317	6880.49
877.498	6733.04
877.679	6792.43
877.86	7238.89
878.042	6923.5
878.223	6647.02
878.404	7208.17
878.585	7146.73
878.766	7406.82
878.947	7052.52
879.128	7062.76
879.309	7281.89
879.49	7417.06
879.672	7011.56
879.853	6829.29
880.034	6876.4
880.215	7017.71
880.396	6778.09
880.576	6749.42
880.757	7003.37
880.938	7634.14
881.119	6747.37
881.3	7118.06
881.481	7023.85
881.662	8037.59
881.843	6825.2
882.023	6786.29
882.204	7245.03
882.385	7296.23
882.566	7101.67
882.747	7015.66
882.927	7337.19
883.108	7406.82
883.289	6974.7
883.469	7388.39
883.65	6978.79
883.831	7335.14
884.011	7234.79
884.192	7042.28
884.373	7761.12
884.553	7380.2
884.734	7214.31
884.914	7372
885.095	8041.69
885.275	7711.97
885.456	7349.48
885.636	7060.71
885.817	7146.73
885.997	7408.87
886.178	7138.54
886.358	7259.37
886.538	7453.92
886.719	8371.41
886.899	7165.16
887.08	7304.42
887.26	7560.42
887.44	7345.38
887.621	7107.82
887.801	7267.56
887.981	8074.46
888.161	7523.55
888.342	7191.78
888.522	7275.75
888.702	7757.02
888.882	7689.44
889.062	7488.74
889.242	7132.39
889.423	7652.58
889.603	7666.91
889.783	7376.1
889.963	7341.29
890.143	7765.21
890.323	7736.54
890.503	7380.2
890.683	7382.24
890.863	7429.35
891.043	7611.62
891.223	7451.88
891.403	7496.93
891.583	7476.45
891.763	7484.64
891.943	7339.24
892.122	7478.5
892.302	7517.41
892.482	7527.65
892.662	7367.91
892.842	7197.93
893.022	7513.31
893.201	7531.75
893.381	7392.48
893.561	7193.83
893.741	7658.72
893.92	7548.13
894.1	7605.47
894.28	7294.18
894.459	7632.1
894.639	7687.39
894.819	7177.45
894.998	7236.84
895.178	7685.34
895.357	7587.04
895.537	7083.24
895.716	6921.45
895.896	7388.39
896.075	7818.46
896.255	7240.93
896.434	6984.94
896.614	7742.69
896.793	7865.57
896.973	7267.56
897.152	7329
897.331	7507.17
897.511	7507.17
897.69	6890.73
897.87	7154.92
898.049	7560.42
898.228	7333.09
898.407	7361.76
898.587	7187.69
898.766	7089.39
898.945	7593.19
899.124	7130.34
899.304	7132.39
899.483	7302.37
899.662	7734.5
899.841	6851.82
900.02	6976.75
900.199	7564.51
900.378	7339.24
900.557	6636.78
900.737	6673.65
900.916	7224.55
901.095	7333.09
901.274	7083.24
901.453	6769.9
901.632	6872.3
901.811	6982.89
901.989	6751.47
902.168	6393.08
902.347	7054.57
902.526	6853.87
902.705	6679.79
902.884	6675.7
903.063	7326.95
903.242	7195.88
903.42	6499.57
903.599	6792.43
903.778	7083.24
903.957	7310.57
904.135	6503.67
904.314	6655.22
904.493	6903.02
904.672	6931.69
904.85	6450.42
905.029	6440.18
905.207	6800.62
905.386	7337.19
905.565	6241.53
905.743	6309.11
905.922	6270.2
906.1	6663.41
906.279	6266.1
906.457	6065.4
906.636	6409.46
906.814	6296.82
906.993	6108.41
907.171	5973.24
907.35	6507.76
907.528	6583.54
907.707	6323.44
907.885	5786.88
908.063	6524.15
908.242	6014.2
908.42	5793.02
908.598	5713.15
908.777	6180.09
908.955	6003.96
909.133	5942.52
909.311	5709.05
909.49	6143.22
909.668	6173.94
909.846	5919.99
910.024	5717.25
910.202	6071.54
910.38	6417.65
910.559	5813.5
910.737	5954.81
910.915	6241.53
911.093	6448.37
911.271	6339.83
911.449	6286.58
911.627	6446.32
911.805	6958.32
911.983	6016.25
912.161	6028.54
912.339	6550.77
912.517	6730.99
912.695	6403.32
912.872	6210.81
913.05	6352.12
913.228	6634.74
913.406	6112.5
913.584	6171.9
913.762	6690.03
913.939	6364.4
914.117	6038.78
914.295	6149.37
914.473	6499.57
914.65	6669.55
914.828	6003.96
915.006	5995.77
915.184	5907.71
915.361	6565.11
915.539	6276.34
915.716	6364.4
915.894	6407.41
916.072	6677.74
916.249	6225.14
916.427	6264.05
916.604	6200.57
916.782	6391.03
916.959	5981.43
917.137	6114.55
917.314	6364.4
917.492	6364.4
917.669	6110.46
917.847	6151.42
918.024	6184.18
918.201	6130.94
918.379	6198.52
918.556	6083.83
918.733	6446.32
918.911	5981.43
919.088	6257.91
919.265	6036.73
919.442	6262.01
919.62	6137.08
919.797	6094.07
919.974	5876.99
920.151	6192.37
920.328	6108.41
920.506	5917.95
920.683	5995.77
920.86	5852.41
921.037	6001.91
921.214	5770.49
921.391	5788.92
921.568	6200.57
921.745	5922.04
921.922	5944.57
922.099	5668.09
922.276	6311.16
922.453	6112.5
922.63	5616.9
922.807	6094.07
922.984	5975.29
923.161	5870.84
923.338	5938.43
923.514	5729.53
923.691	6016.25
923.868	6151.42
924.045	5750.01
924.222	5592.32
924.399	5983.48
924.575	6128.89
924.752	5745.92
924.929	5799.16
925.105	6022.39
925.282	5704.96
925.459	5727.49
925.635	5674.24
925.812	5797.12
925.989	5754.11
926.165	5577.98
926.342	5326.08
926.518	5451.01
926.695	5786.88
926.871	5481.73
927.048	5340.42
927.224	5807.36
927.401	5559.55
927.577	5465.35
927.754	5319.94
927.93	6053.11
928.107	5747.97
928.283	5410.05
928.459	5467.39
928.636	5879.04
928.812	5504.26
928.988	5215.49
929.165	5125.38
929.341	5334.28
929.517	5647.62
929.693	5627.14
929.87	4930.83
930.046	5526.78
930.222	5209.35
930.398	5012.74
930.574	5250.31
930.751	5319.94
930.927	5221.64
931.103	5162.25
931.279	5086.47
931.455	5002.5
931.631	5420.29
931.807	4766.99
931.983	4949.26
932.159	4936.97
932.335	5188.87
932.511	4826.38
932.687	4891.91
932.863	5274.88
933.039	5076.23
933.215	4697.36
933.391	4613.39
933.566	5059.85
933.742	4959.5
933.918	4844.81
934.094	4472.08
934.27	4912.39
934.445	4752.65
934.621	4826.38
934.797	4439.31
934.973	4846.86
935.148	4789.52
935.324	4214.04
935.5	4160.79
935.675	4773.13
935.851	4615.44
936.027	4308.24
936.202	4140.31
936.378	4408.59
936.553	4314.39
936.729	4377.87
936.904	3816.73
937.08	3769.63
937.255	3853.59
937.431	3661.09
937.606	3693.85
937.782	3804.44
937.957	3958.04
938.133	3718.43
938.308	3308.83
938.483	3521.82
938.659	3591.45
938.834	3544.35
939.009	3261.73
939.185	3398.95
939.36	3286.31
939.535	2882.86
939.71	3390.75
939.886	3704.09
940.061	3482.91
940.236	3177.76
940.411	2999.59
940.586	3423.52
940.761	3382.56
940.937	2995.5
941.112	2870.57
941.287	3216.68
941.462	3083.56
941.637	2768.17
941.812	2889
941.987	3169.57
942.162	3077.41
942.337	2811.18
942.512	2745.64
942.687	3173.67
942.862	3142.95
943.037	2641.2
943.212	2399.54
943.386	2868.52
943.561	2997.54
943.736	2829.61
943.911	2985.26
944.086	3003.69
944.26	2946.34
944.435	2671.92
944.61	2858.28
944.785	3208.48
944.959	3259.68
945.134	2831.66
945.309	2477.36
945.483	2678.06
945.658	3153.19
945.833	2385.2
946.007	2571.57
946.182	3317.03
946.357	2518.32
946.531	2503.98
946.706	2524.46
946.88	2428.21
947.055	2886.95
947.229	2635.05
947.404	2475.31
947.578	3271.97
947.752	2858.28
947.927	2428.21
948.101	2463.02
948.276	2862.38
948.45	3050.79
948.624	2843.95
948.799	2721.07
948.973	3104.04
949.147	2608.43
949.321	2809.13
949.496	2776.36
949.67	3257.64
949.844	2979.11
950.018	2825.51
950.193	2837.8
950.367	3487.01
950.541	2897.19
950.715	2856.23
950.889	2776.36
951.063	3022.12
951.237	3251.49
951.411	2622.77
951.585	2706.73
951.759	3034.41
951.933	3030.31
952.107	2817.32
952.281	3056.93
952.455	3407.14
952.629	3243.3
952.803	2917.67
952.977	2850.09
953.151	3181.86
953.325	3165.48
953.499	3013.93
953.672	2796.84
953.846	2878.76
954.02	3153.19
954.194	2809.13
954.368	2891.05
954.541	3394.85
954.715	3099.94
954.889	3112.23
955.062	2907.43
955.236	3200.29
955.41	3091.75
955.583	3245.35
955.757	2813.23
955.93	3204.39
956.104	2839.85
956.278	2995.5
956.451	2983.21
956.625	3362.08
956.798	3638.56
956.972	3360.03
957.145	2899.24
957.319	3308.83
957.492	3181.86
957.665	3241.25
957.839	2983.21
958.012	3337.51
958.185	3091.75
958.359	3058.98
958.532	3292.45
958.705	3419.43
958.879	3491.1
959.052	3095.85
959.225	2858.28
959.398	3243.3
959.572	3388.71
959.745	3009.83
959.918	2995.5
960.091	3171.62
960.264	3370.27
960.438	3030.31
960.611	3040.55
960.784	3388.71
960.957	3163.43
961.13	3319.07
961.303	2936.1
961.476	3292.45
961.649	3392.8
961.822	2884.91
961.995	3177.76
962.168	3392.8
962.341	3218.72
962.514	3120.42
962.686	3001.64
962.859	3271.97
963.032	3409.19
963.205	2975.02
963.378	2856.23
963.551	3319.07
963.723	3210.53
963.896	3206.44
964.069	3263.78
964.242	3228.96
964.414	3560.73
964.587	3063.08
964.76	3222.82
964.932	3333.41
965.105	3239.2
965.278	3046.69
965.45	2809.13
965.623	3382.56
965.795	3321.12
965.968	3058.98
966.14	2966.82
966.313	3151.14
966.485	3280.16
966.658	3001.64
966.83	2919.72
967.003	3530.02
967.175	3415.33
967.348	2915.62
967.52	3089.7
967.692	3456.29
967.865	3255.59
968.037	2866.47
968.209	3274.02
968.382	3267.88
968.554	3308.83
968.726	2948.39
968.898	2952.49
969.071	3224.87
969.243	3235.11
969.415	2866.47
969.587	3005.74
969.759	3546.4
969.932	3255.59
970.104	2891.05
970.276	2626.86
970.448	2975.02
970.62	3038.5
970.792	2944.3
970.964	2876.71
971.136	3499.3
971.308	3226.92
971.48	2714.92
971.652	2915.62
971.824	3444
971.996	2903.34
972.168	2925.86
972.339	2899.24
972.511	3257.64
972.683	2954.54
972.855	3061.03
973.027	2815.27
973.199	3061.03
973.37	3171.62
973.542	3079.46
973.714	2962.73
973.886	2975.02
974.057	3194.15
974.229	2684.2
974.401	2719.02
974.572	2776.36
974.744	2616.62
974.915	2641.2
975.087	2772.27
975.259	3235.11
975.43	2858.28
975.602	2702.64
975.773	2653.48
975.945	2817.32
976.116	3171.62
976.288	2700.59
976.459	2966.82
976.63	2835.75
976.802	2983.21
976.973	2592.05
977.145	2684.2
977.316	3284.26
977.487	3218.72
977.659	2895.15
977.83	2692.4
978.001	3280.16
978.172	2981.16
978.344	2510.13
978.515	2495.79
978.686	2784.55
978.857	3298.59
979.028	2633.01
979.2	2563.37
979.371	3005.74
979.542	2899.24
979.713	2702.64
979.884	2250.03
980.055	2633.01
980.226	2680.11
980.397	2503.98
980.568	2491.7
980.739	3042.6
980.91	2739.5
981.081	2712.88
981.252	2469.17
981.423	2772.27
981.594	2841.9
981.765	2530.61
981.936	2704.68
982.106	2805.03
982.277	2962.73
982.448	2366.77
982.619	2559.28
982.79	2651.44
982.96	3024.17
983.131	2428.21
983.302	2252.08
983.472	2483.5
983.643	2618.67
983.814	2454.83
983.984	2450.74
984.155	2370.87
984.326	2833.71
984.496	2491.7
984.667	2290.99
984.837	2407.73
985.008	2772.27
985.178	2483.5
985.349	2250.03
985.519	2567.47
985.69	2391.34
985.86	2161.97
986.031	2157.88
986.201	2581.81
986.371	2645.29
986.542	2227.51
986.712	2063.67
986.882	2581.81
987.053	2678.06
987.223	2104.63
987.393	2454.83
987.563	2409.78
987.734	2569.52
987.904	2538.8
988.074	2170.16
988.244	2469.17
988.414	2225.46
988.585	2139.44
988.755	2260.27
988.925	2290.99
989.095	2702.64
989.265	2108.73
989.435	2192.69
989.605	2573.61
989.775	2506.03
989.945	2481.46
990.115	1924.41
990.285	2323.76
990.455	2354.48
990.625	2059.57
990.795	1877.3
990.965	2727.21
991.134	2075.96
991.304	1934.65
991.474	1932.6
991.644	2420.02
991.814	2630.96
991.984	1865.02
992.153	1967.42
992.323	2252.08
992.493	2311.47
992.662	1727.8
992.832	2166.07
993.002	2223.41
993.171	2262.32
993.341	1819.96
993.511	2051.38
993.68	2090.29
993.85	2327.86
994.019	1768.76
994.189	1709.37
994.358	2225.46
994.528	2024.76
994.697	1551.68
994.867	1791.29
995.036	2282.8
995.206	1991.99
995.375	1754.43
995.544	1822.01
995.714	2164.02
995.883	2026.81
996.052	1973.56
996.222	1652.03
996.391	2546.99
996.56	2114.87
996.73	1744.19
996.899	1596.73
997.068	2489.65
997.237	2032.95
997.406	1690.94
997.576	1561.92
997.745	2002.23
997.914	1967.42
998.083	1336.64
998.252	1658.17
998.421	2008.37
998.59	1797.43
998.759	1645.88
998.928	1443.14
999.097	2198.84
999.266	1994.04
999.435	1625.4
999.604	1324.35
999.773	2481.46
999.942	1834.3
1000.111	1436.99
1000.28	1383.74
1000.448	1531.2
1000.617	1717.56
1000.786	1692.99
1000.955	1385.79
1001.124	1842.49
1001.292	2473.26
1001.461	1441.09
1001.63	1441.09
1001.798	2196.79
1001.967	2108.73
1002.136	1428.8
1002.304	1385.79
1002.473	1932.6
1002.642	1783.1
1002.81	1441.09
1002.979	1455.42
1003.147	1987.89
1003.316	2264.37
1003.484	1326.4
1003.653	1213.76
1003.821	2008.37
1003.99	1551.68
1004.158	1576.25
1004.327	1494.33
1004.495	1850.68
1004.663	1510.72
1004.832	1480
1005	1252.67
1005.168	1836.35
1005.337	1719.61
1005.505	1178.95
1005.673	1678.65
1005.842	1768.76
1006.01	1764.67
1006.178	1340.74
1006.346	1340.74
1006.514	1699.13
1006.683	1797.43
1006.851	1240.39
1007.019	1320.26
1007.187	1344.83
1007.355	1099.08
1007.523	986.44
1007.691	1105.22
1007.859	1209.67
1008.027	1817.91
1008.195	1189.19
1008.363	1058.12
1008.531	1768.76
1008.699	1418.56
1008.867	1008.97
1009.035	1269.06
1009.203	1813.82
1009.37	1445.18
1009.538	1166.66
1009.706	1654.08
1009.874	1449.28
1010.042	1434.94
1010.209	986.44
1010.377	963.91
1010.545	1654.08
1010.713	1463.61
1010.88	1041.73
1011.048	1068.36
1011.216	1293.63
1011.383	1695.04
1011.551	998.73
1011.718	951.62
1011.886	1496.38
1012.054	1424.7
1012.221	998.73
1012.389	1080.64
1012.556	1424.7
1012.724	1686.84
1012.891	1039.69
1013.058	777.55
1013.226	1477.95
1013.393	1500.48
1013.561	804.17
1013.728	787.79
1013.895	1465.66
1014.063	1402.18
1014.23	892.23
1014.397	945.48
1014.565	1523.01
1014.732	1203.52
1014.899	1037.64
1015.066	855.37
1015.233	1191.24
1015.401	1365.31
1015.568	1006.92
1015.735	988.49
1015.902	1258.82
1016.069	1305.92
1016.236	859.46
1016.403	822.6
1016.57	1037.64
1016.737	1400.13
1016.904	830.79
1017.071	789.83
1017.238	972.1
1017.405	1400.13
1017.572	894.28
1017.739	1004.87
1017.906	1248.58
1018.073	1320.26
1018.24	910.66
1018.407	806.22
1018.573	1367.36
1018.74	1097.03
1018.907	863.56
1019.074	638.28
1019.241	1295.68
1019.407	1232.19
1019.574	746.83
1019.741	537.93
1019.907	1174.85
1020.074	1158.47
1020.241	550.22
1020.407	671.05
1020.574	1289.54
1020.74	1131.84
1020.907	707.91
1021.073	683.34
1021.24	1434.94
1021.406	1359.17
1021.573	636.24
1021.739	685.39
1021.906	1281.35
1022.072	1129.8
1022.239	617.8
1022.405	683.34
1022.571	974.15
1022.738	904.52
1022.904	662.86
1023.07	609.61
1023.237	1056.07
1023.403	1287.49
1023.569	679.24
1023.735	623.95
1023.902	1088.84
1024.068	1103.17
1024.234	505.17
1024.4	617.8
1024.566	1101.12
1024.732	1170.76
1024.898	623.95
1025.065	410.96
1025.231	1178.95
1025.397	857.42
1025.563	601.42
1025.729	515.41
1025.895	519.5
1026.061	691.53
1026.227	499.02
1026.392	644.43
1026.558	1228.1
1026.724	1035.59
1026.89	527.69
1027.056	695.63
1027.222	1006.92
1027.388	814.41
1027.553	628.04
1027.719	501.07
1027.885	1217.86
1028.051	1111.36
1028.216	353.62
1028.382	613.71
1028.548	1002.82
1028.713	740.68
1028.879	400.72
1029.045	671.05
1029.21	1201.47
1029.376	1113.41
1029.541	484.69
1029.707	591.18
1029.873	1070.4
1030.038	1049.93
1030.204	490.83
1030.369	566.6
1030.534	1099.08
1030.7	787.79
1030.865	564.56
1031.031	441.68
1031.196	857.42
1031.361	886.09
1031.527	421.2
1031.692	396.62
1031.857	453.97
1032.023	935.24
1032.188	335.18
1032.353	513.36
1032.518	1203.52
1032.684	898.38
1032.849	462.16
1033.014	427.34
1033.179	1013.06
1033.344	965.96
1033.509	488.78
1033.674	425.29
1033.839	949.57
1034.004	1006.92
1034.17	386.38
1034.335	189.78
1034.5	810.31
1034.664	646.48
1034.829	406.86
1034.994	482.64
1035.159	865.61
1035.324	865.61
1035.489	427.34
1035.654	417.1
1035.819	1056.07
1035.984	775.5
1036.148	425.29
1036.313	386.38
1036.478	990.53
1036.643	767.31
1036.807	345.42
1036.972	263.51
1037.137	1000.77
1037.301	781.64
1037.466	134.48
1037.631	417.1
1037.795	1090.88
1037.96	773.45
1038.124	456.01
1038.289	169.3
1038.454	863.56
1038.618	771.4
1038.783	290.13
1038.947	449.87
1039.111	709.96
1039.276	617.8
1039.44	318.8
1039.605	818.5
1039.769	558.41
1039.933	591.18
1040.098	525.65
1040.262	591.18
1040.426	980.29
1040.591	767.31
1040.755	222.55
1040.919	230.74
1041.083	738.63
1041.248	562.51
1041.412	150.87
1041.576	154.96
1041.74	654.67
1041.904	875.85
1042.068	171.35
1042.232	335.18
1042.397	851.27
1042.561	783.69
1042.725	15.7
1042.889	478.54
1043.053	855.37
1043.217	769.35
1043.381	367.95
1043.544	105.81
1043.708	951.62
1043.872	331.09
1044.036	-8.87
1044.2	120.15
1044.364	873.8
1044.528	974.15
1044.691	4963.59
1044.855	107.86
1045.019	935.24
1045.183	820.55
1045.346	294.22
1045.51	249.17
1045.674	689.48
1045.837	812.36
1046.001	232.79
1046.165	271.7
1046.328	1164.61
1046.492	712.01
1046.655	433.49
1046.819	292.18
1046.983	456.01
1047.146	720.2
1047.31	310.61
1047.473	3.41
1047.636	628.04
1047.8	376.14
1047.963	216.4
1048.127	124.24
1048.29	433.49
