Data from Hydrogel_Ink_Intensity_Test_1_USB4F045381__81__00081.txt Node

Date: Mon Jul 31 10:57:15 EDT 2023
User: mmckonesweet
Spectrometer: USB4F04538
Trigger mode: 4
Integration Time (sec): 9.000000E-1
Scans to average: 1
Electric dark correction enabled: true
Nonlinearity correction enabled: false
Boxcar width: 0
XAxis mode: Wavelengths
Number of Pixels in Spectrum: 3648
>>>>>Begin Spectral Data<<<<<
345.52	-1033.71
345.736	-1033.71
345.952	-1033.71
346.168	-962.03
346.384	-980.47
346.6	-99.84
346.816	-306.68
347.032	-206.33
347.248	338.43
347.464	-286.2
347.68	-89.6
347.896	133.63
348.112	444.92
348.328	-30.21
348.544	-169.47
348.76	-30.21
348.975	301.56
349.191	-206.33
349.407	-124.41
349.623	84.48
349.839	27.14
350.055	-91.65
350.27	25.09
350.486	236.03
350.702	467.45
350.918	311.8
351.133	-89.6
351.349	145.92
351.565	422.39
351.781	-280.06
351.996	0.51
352.212	320
352.428	-75.26
352.644	-144.89
352.859	-196.09
353.075	256.51
353.291	-34.3
353.506	-142.85
353.722	-198.14
353.938	-83.45
354.153	492.02
354.369	170.49
354.584	-210.43
354.8	346.62
355.016	-259.58
355.231	-202.24
355.447	-19.97
355.662	154.11
355.878	858.61
356.093	-302.59
356.309	29.18
356.524	-153.09
356.74	248.32
356.955	-222.72
357.171	-17.92
357.386	205.31
357.602	-146.94
357.817	-52.74
358.033	-198.14
358.248	395.77
358.464	215.55
358.679	-175.61
358.895	-304.64
359.11	49.66
359.325	401.91
359.541	268.8
359.756	51.71
359.972	-214.52
360.187	221.69
360.402	-138.75
360.618	-128.51
360.833	1090.03
361.048	205.31
361.264	-112.13
361.479	-22.02
361.694	59.9
361.909	199.16
362.125	-138.75
362.34	-99.84
362.555	297.47
362.77	147.97
362.986	-202.24
363.201	-177.66
363.416	195.07
363.631	119.29
363.847	-153.09
364.062	-101.89
364.277	229.88
364.492	174.59
364.707	-144.89
364.922	-271.87
365.138	297.47
365.353	356.86
365.568	-187.9
365.783	-157.18
365.998	205.31
366.213	604.66
366.428	-194.05
366.643	82.43
366.858	336.38
367.073	342.52
367.288	-17.92
367.503	-155.13
367.718	170.49
367.933	453.11
368.148	-263.68
368.363	6.66
368.578	41.47
368.793	532.98
369.008	-75.26
369.223	-259.58
369.438	289.28
369.653	446.97
369.868	-161.28
370.083	-136.7
370.298	156.16
370.513	459.26
370.728	158.21
370.943	-163.33
371.157	-112.13
371.372	606.71
371.587	-214.52
371.802	-198.14
372.017	102.91
372.232	508.41
372.446	109.05
372.661	-185.85
372.876	219.64
373.091	264.7
373.306	-50.69
373.52	-114.17
373.735	-73.21
373.95	449.02
374.165	-73.21
374.379	-108.03
374.594	-56.83
374.809	190.97
375.023	96.77
375.238	-110.08
375.453	322.04
375.667	-210.43
375.882	-116.22
376.097	-95.74
376.311	80.38
376.526	70.14
376.741	-185.85
376.955	109.05
377.17	530.94
377.384	657.91
377.599	-17.92
377.813	-144.89
378.028	629.24
378.242	276.99
378.457	53.76
378.672	-218.62
378.886	96.77
379.101	201.21
379.315	-366.07
379.53	-142.85
379.744	303.61
379.958	297.47
380.173	-1.54
380.387	-110.08
380.602	227.84
380.816	-50.69
381.031	-105.98
381.245	-181.76
381.459	330.23
381.674	2882
381.888	-128.51
382.103	186.88
382.317	-99.84
382.531	502.26
382.746	16.9
382.96	-136.7
383.174	-58.88
383.388	545.27
383.603	129.53
383.817	-138.75
384.031	326.14
384.246	518.65
384.46	18.94
384.674	416.25
384.888	115.2
385.103	190.97
385.317	-165.37
385.531	53.76
385.745	516.6
385.959	444.92
386.174	-103.93
386.388	-144.89
386.602	162.3
386.816	68.09
387.03	12.8
387.244	72.19
387.458	193.02
387.672	469.5
387.887	-181.76
388.101	-151.04
388.315	373.24
388.529	252.41
388.743	-5.63
388.957	-81.41
389.171	502.26
389.385	-30.21
389.599	18.94
389.813	201.21
390.027	229.88
390.241	807.41
390.455	-17.92
390.669	76.29
390.883	96.77
391.097	578.04
391.311	43.52
391.525	2.56
391.738	389.63
391.952	389.63
392.166	64
392.38	-65.02
392.594	494.07
392.808	395.77
393.022	47.62
393.236	-28.16
393.449	328.19
393.663	317.95
393.877	-138.75
394.091	-7.68
394.305	14.85
394.518	29.18
394.732	-171.52
394.946	-17.92
395.16	578.04
395.373	274.94
395.587	-116.22
395.801	-67.07
396.015	354.81
396.228	385.53
396.442	-196.09
396.656	-204.28
396.869	432.63
397.083	649.72
397.297	23.04
397.51	-67.07
397.724	494.07
397.938	397.82
398.151	-210.43
398.365	-91.65
398.578	338.43
398.792	565.75
399.005	96.77
399.219	-32.26
399.433	309.76
399.646	338.43
399.86	203.26
400.073	190.97
400.287	410.11
400.5	133.63
400.714	174.59
400.927	0.51
401.141	408.06
401.354	1182.19
401.567	391.67
401.781	-136.7
401.994	506.36
402.208	848.37
402.421	0.51
402.635	109.05
402.848	188.93
403.061	449.02
403.275	150.01
403.488	-67.07
403.701	653.81
403.915	442.87
404.128	164.35
404.341	43.52
404.555	385.53
404.768	281.08
404.981	285.18
405.195	-42.5
405.408	659.96
405.621	489.98
405.834	145.92
406.048	-26.11
406.261	678.39
406.474	627.19
406.687	18.94
406.9	180.73
407.114	301.56
407.327	412.15
407.54	-118.27
407.753	-226.81
407.966	90.62
408.179	397.82
408.392	-36.35
408.605	-116.22
408.819	375.29
409.032	399.87
409.245	-9.73
409.458	244.22
409.671	461.3
409.884	481.78
410.097	-93.69
410.31	236.03
410.523	467.45
410.736	260.6
410.949	88.57
411.162	59.9
411.375	653.81
411.588	629.24
411.801	270.84
412.014	41.47
412.227	238.08
412.44	211.45
412.653	94.72
412.865	225.79
413.078	535.03
413.291	403.96
413.504	170.49
413.717	90.62
413.93	463.35
414.143	131.58
414.356	143.87
414.568	-56.83
414.781	498.17
414.994	383.48
415.207	244.22
415.42	203.26
415.632	483.83
415.845	764.4
416.058	-50.69
416.271	-67.07
416.483	338.43
416.696	848.37
416.909	92.67
417.121	180.73
417.334	514.55
417.547	731.64
417.759	113.15
417.972	82.43
418.185	186.88
418.397	643.57
418.61	76.29
418.823	96.77
419.035	739.83
419.248	365.05
419.46	229.88
419.673	180.73
419.885	461.3
420.098	322.04
420.311	143.87
420.523	-108.03
420.736	582.14
420.948	381.43
421.161	137.73
421.373	-26.11
421.586	475.64
421.798	162.3
422.01	-32.26
422.223	256.51
422.435	270.84
422.648	580.09
422.86	121.34
423.073	100.86
423.285	635.38
423.497	154.11
423.71	102.91
423.922	59.9
424.134	567.8
424.347	752.12
424.559	403.96
424.771	442.87
424.984	281.08
425.196	487.93
425.408	-32.26
425.621	92.67
425.833	784.88
426.045	776.69
426.257	72.19
426.47	238.08
426.682	483.83
426.894	582.14
427.106	190.97
427.318	279.04
427.531	334.33
427.743	623.09
427.955	186.88
428.167	612.85
428.379	590.33
428.591	397.82
428.804	297.47
429.016	145.92
429.228	350.71
429.44	629.24
429.652	426.49
429.864	74.24
430.076	408.06
430.288	432.63
430.5	358.91
430.712	338.43
430.924	758.26
431.136	567.8
431.348	43.52
431.56	158.21
431.772	477.69
431.984	453.11
432.196	182.78
432.408	238.08
432.62	375.29
432.832	508.41
433.044	475.64
433.256	340.47
433.468	639.48
433.679	162.3
433.891	152.06
434.103	518.65
434.315	850.42
434.527	745.97
434.739	563.7
434.95	442.87
435.162	657.91
435.374	379.39
435.586	434.68
435.798	283.13
436.009	330.23
436.221	440.83
436.433	309.76
436.645	354.81
436.856	489.98
437.068	862.71
437.28	274.94
437.491	649.72
437.703	760.31
437.915	670.2
438.126	358.91
438.338	596.47
438.55	621.05
438.761	672.25
438.973	444.92
439.184	395.77
439.396	565.75
439.608	735.73
439.819	303.61
440.031	537.08
440.242	750.07
440.454	803.32
440.665	352.76
440.877	565.75
441.088	780.79
441.3	530.94
441.511	203.26
441.723	377.34
441.934	668.15
442.146	641.53
442.357	549.37
442.569	707.06
442.78	762.36
442.991	1163.76
443.203	797.17
443.414	276.99
443.626	1001.97
443.837	514.55
444.048	367.1
444.26	301.56
444.471	711.16
444.682	874.99
444.894	188.93
445.105	268.8
445.316	1022.45
445.528	831.99
445.739	502.26
445.95	469.5
446.161	811.51
446.373	932.34
446.584	481.78
446.795	449.02
447.006	905.71
447.217	1141.23
447.429	350.71
447.64	373.24
447.851	1036.78
448.062	741.88
448.273	354.81
448.484	395.77
448.695	889.33
448.907	582.14
449.118	588.28
449.329	709.11
449.54	604.66
449.751	543.22
449.962	496.12
450.173	455.16
450.384	1024.5
450.595	1106.42
450.806	506.36
451.017	510.46
451.228	1079.79
451.439	1083.89
451.65	569.85
451.861	342.52
452.072	584.18
452.283	805.36
452.494	817.65
452.705	463.35
452.915	1182.19
453.126	967.15
453.337	653.81
453.548	559.61
453.759	1079.79
453.97	1317.36
454.181	862.71
454.391	694.77
454.602	883.19
454.813	1059.31
455.024	733.68
455.235	659.96
455.445	838.13
455.656	1022.45
455.867	834.04
456.078	616.95
456.288	764.4
456.499	1057.26
456.71	555.51
456.921	834.04
457.131	1044.98
457.342	948.72
457.553	727.54
457.763	782.84
457.974	1087.98
458.184	1206.77
458.395	616.95
458.606	573.94
458.816	1274.35
459.027	1473
459.237	936.43
459.448	588.28
459.659	1300.97
459.869	1616.36
460.08	561.66
460.29	872.95
460.501	1434.09
460.711	868.85
460.922	578.04
461.132	827.89
461.343	1841.64
461.553	743.92
461.764	797.17
461.974	846.32
462.184	1286.64
462.395	1155.57
462.605	961.01
462.816	739.83
463.026	1251.82
463.236	1466.86
463.447	936.43
463.657	846.32
463.867	1407.47
464.078	1223.15
464.288	999.92
464.498	893.43
464.709	1198.57
464.919	1202.67
465.129	977.39
465.339	940.53
465.55	1417.71
465.76	1386.99
465.97	963.06
466.18	973.3
466.391	1395.18
466.601	1425.9
466.811	1085.94
467.021	1022.45
467.231	1493.48
467.441	1530.34
467.651	1165.81
467.862	827.89
468.072	1386.99
468.282	1753.57
468.492	1147.37
468.702	1204.72
468.912	1516.01
469.122	1954.27
469.332	1475.05
469.542	1124.85
469.752	1718.76
469.962	1548.78
470.172	1206.77
470.382	1214.96
470.592	1786.34
470.802	1812.96
471.012	1507.82
471.222	1255.92
471.432	1788.39
471.642	1722.85
471.852	1597.93
472.062	1358.32
472.272	1561.06
472.482	1538.54
472.691	1368.56
472.901	1423.85
473.111	1718.76
473.321	2443.74
473.531	1477.1
473.741	1743.33
473.95	1944.03
474.16	2034.14
474.37	1616.36
474.58	1407.47
474.79	2318.81
474.999	2124.26
475.209	1554.92
475.419	1706.47
475.628	1948.13
475.838	2226.65
476.048	1878.5
476.258	1612.26
476.467	2394.59
476.677	2046.43
476.886	1993.19
477.096	1956.32
477.306	1886.69
477.515	2410.97
477.725	2032.1
477.935	1980.9
478.144	2460.12
478.354	2038.24
478.563	2071.01
478.773	1954.27
478.982	2636.25
479.192	2767.32
479.401	2206.17
479.611	2081.25
479.82	2234.85
480.03	2292.19
480.239	2148.83
480.449	2052.58
480.658	2972.11
480.868	2372.06
481.077	2349.53
481.287	2263.52
481.496	2664.92
481.705	2906.58
481.915	2472.41
482.124	2693.59
482.333	2709.97
482.543	3021.27
482.752	2513.37
482.961	2480.6
483.171	2968.02
483.38	2841.04
483.589	2531.8
483.799	2468.31
484.008	2769.37
484.217	3015.12
484.426	2560.47
484.636	2359.77
484.845	2888.15
485.054	2548.19
485.263	3033.55
485.472	2697.69
485.682	3340.75
485.891	3060.18
486.1	2589.14
486.309	2730.45
486.518	3115.47
486.727	3533.26
486.936	2673.11
487.146	2947.54
487.355	3586.51
487.564	2861.52
487.773	2947.54
487.982	2855.38
488.191	3236.3
488.4	3254.73
488.609	2939.35
488.818	2959.83
489.027	3914.18
489.236	3746.25
489.445	3062.23
489.654	3064.27
489.863	3770.82
490.072	3369.42
490.281	3520.97
490.49	3162.58
490.698	3908.04
490.907	4026.82
491.116	3316.17
491.325	3172.82
491.534	3940.8
491.743	3574.22
491.952	3400.14
492.16	3426.76
492.369	3764.68
492.578	3899.84
492.787	3518.92
492.996	3262.93
493.204	3557.83
493.413	4241.86
493.622	3285.45
493.831	3221.97
494.039	4227.52
494.248	3776.97
494.457	3578.31
494.665	3391.95
494.874	3975.62
495.083	4436.41
495.291	3705.29
495.5	3596.75
495.709	4170.18
495.917	4061.63
496.126	3899.84
496.335	3588.55
496.543	4016.58
496.752	4127.17
496.96	3934.66
497.169	3598.79
497.377	4127.17
497.586	4422.08
497.794	4004.29
498.003	3545.55
498.211	4125.12
498.42	4501.95
498.628	4012.48
498.837	3824.07
499.045	4391.36
499.254	4319.68
499.462	3871.17
499.671	4028.87
499.879	4749.75
500.087	4716.98
500.296	3942.85
500.504	4080.07
500.713	4381.12
500.921	5036.47
501.129	4061.63
501.338	4143.55
501.546	4692.41
501.754	4532.67
501.962	4174.27
502.171	3985.86
502.379	4467.13
502.587	4983.22
502.795	4334.01
503.004	4311.49
503.212	4563.39
503.42	4852.15
503.628	4399.55
503.837	4528.57
504.045	4882.87
504.253	5069.23
504.461	4391.36
504.669	4245.95
504.877	4923.83
505.085	5155.25
505.294	4319.68
505.502	4735.42
505.71	4901.3
505.918	4946.36
506.126	4327.87
506.334	4473.28
506.542	4698.55
506.75	4817.33
506.958	4544.95
507.166	4757.94
507.374	4929.97
507.582	5364.14
507.79	4762.04
507.998	4524.47
508.206	5044.66
508.414	4960.69
508.622	4719.03
508.83	4614.59
509.037	5292.46
509.245	4987.32
509.453	4653.5
509.661	4663.74
509.869	5165.49
510.077	5040.56
510.285	4843.96
510.492	4389.31
510.7	5618.09
510.908	5032.37
511.116	4872.63
511.324	4886.97
511.531	5040.56
511.739	5194.16
511.947	4989.36
512.155	5194.16
512.362	5259.7
512.57	4997.56
512.778	4770.23
512.985	4811.19
513.193	5560.75
513.401	5523.88
513.608	5058.99
513.816	4860.34
514.024	5353.9
514.231	5667.24
514.439	4960.69
514.646	5050.8
514.854	5724.58
515.061	5671.34
515.269	5085.62
515.477	5085.62
515.684	5161.39
515.892	5560.75
516.099	4970.93
516.307	5050.8
516.514	5564.84
516.722	5935.53
516.929	5030.32
517.136	5228.98
517.344	5835.17
517.551	5587.37
517.759	5331.37
517.966	5337.52
518.173	5439.92
518.381	5622.19
518.588	5423.53
518.796	5181.87
519.003	5886.37
519.21	5732.78
519.418	5200.3
519.625	5581.23
519.832	5747.11
520.039	5806.5
520.247	5183.92
520.454	5362.09
520.661	6142.37
520.868	5839.27
521.076	5427.63
521.283	5544.36
521.49	6572.44
521.697	5839.27
521.904	5556.65
522.112	5544.36
522.319	6158.75
522.526	5986.72
522.733	5431.73
522.94	5487.02
523.147	5743.02
523.354	6068.64
523.561	5454.25
523.768	5800.36
523.975	6195.62
524.183	5904.81
524.39	5867.94
524.597	5628.33
524.804	6107.55
525.011	5896.61
525.218	5798.31
525.425	5716.39
525.632	6324.64
525.838	5704.1
526.045	5740.97
526.252	5751.21
526.459	7231.89
526.666	7197.07
526.873	5826.98
527.08	5984.68
527.287	6625.69
527.494	6363.55
527.701	5822.89
527.907	5525.93
528.114	6324.64
528.321	6212
528.528	5843.37
528.735	5962.15
528.941	5939.62
529.148	6166.95
529.355	6119.84
529.562	5951.91
529.768	6660.51
529.975	6314.4
530.182	6314.4
530.388	6021.54
530.595	6896.02
530.802	6027.68
531.008	6394.27
531.215	6461.85
531.422	7272.85
531.628	7047.57
531.835	6302.11
532.042	6111.65
532.248	6472.09
532.455	6527.39
532.661	6228.38
532.868	6246.82
533.074	6764.95
533.281	6893.97
533.487	6306.21
533.694	6330.78
533.9	6603.16
534.107	6814.1
534.313	6592.92
534.52	6377.89
534.726	6975.89
534.933	7387.54
535.139	6500.76
535.345	6336.93
535.552	6871.45
535.758	6928.79
535.965	6539.68
536.171	6586.78
536.377	6943.13
536.584	7246.23
536.79	6513.05
536.996	6678.94
537.203	6975.89
537.409	7012.76
537.615	6572.44
537.821	6832.54
538.028	7256.47
538.234	7117.2
538.44	6703.51
538.646	6840.73
538.853	7199.12
539.059	7057.81
539.265	7342.48
539.471	6451.61
539.677	7348.62
539.883	7133.59
540.09	6648.22
540.296	7518.61
540.502	7084.44
540.708	6857.11
540.914	7174.55
541.12	6908.31
541.326	7395.73
541.532	7285.14
541.738	7074.2
541.944	6986.13
542.15	7563.66
542.356	7412.11
542.562	7012.76
542.768	6922.65
542.974	7821.7
543.18	7920.01
543.386	7178.64
543.592	6912.41
543.798	8014.21
544.004	7831.94
544.21	7010.71
544.415	7307.66
544.621	7688.59
544.827	7803.27
545.033	7109.01
545.239	7561.61
545.445	7428.49
545.651	7797.13
545.856	7299.47
546.062	7119.25
546.268	7479.69
546.474	7506.32
546.679	7311.76
546.885	7268.75
547.091	7469.45
547.297	8108.42
547.502	7389.58
547.708	7393.68
547.914	7496.08
548.119	7870.86
548.325	7260.56
548.531	7045.52
548.736	8153.48
548.942	7305.62
549.147	7405.97
549.353	7563.66
549.559	8169.86
549.764	7991.69
549.97	7465.36
550.175	7426.45
550.381	7999.88
550.586	7629.2
550.792	7586.19
550.997	7645.58
551.203	7965.06
551.408	8087.94
551.614	7442.83
551.819	7424.4
552.025	8276.35
552.23	8188.29
552.435	7567.76
552.641	7920.01
552.846	8028.55
553.052	8229.25
553.257	7954.82
553.462	7690.63
553.668	7905.67
553.873	8509.82
554.078	7858.57
554.283	7764.36
554.489	8100.23
554.694	8100.23
554.899	7592.33
555.105	8196.48
555.31	8362.37
555.515	8528.25
555.72	7891.34
555.925	7836.04
556.131	8434.05
556.336	8190.34
556.541	7868.81
556.746	7948.68
556.951	8548.73
557.156	8681.85
557.361	8202.63
557.567	8272.26
557.772	8812.92
557.977	8505.73
558.182	8069.51
558.387	8161.67
558.592	8247.68
558.797	8481.15
559.002	8130.95
559.207	8284.55
559.412	8587.64
559.617	8956.28
559.822	7969.16
560.027	8079.75
560.232	8487.29
560.437	8825.21
560.642	7954.82
560.847	8122.76
561.051	8591.74
561.256	8569.21
561.461	8380.8
561.666	8223.11
561.871	8573.31
562.076	8913.27
562.281	8368.51
562.485	8092.04
562.69	8874.36
562.895	8739.19
563.1	8173.96
563.305	8212.87
563.509	8980.85
563.714	9404.78
563.919	8337.79
564.123	8358.27
564.328	8544.64
564.533	9118.07
564.737	8386.94
564.942	8475.01
565.147	9216.37
565.351	9154.93
565.556	8386.94
565.761	8661.37
565.965	8882.55
566.17	8470.91
566.374	8448.38
566.579	8550.78
566.784	8878.46
566.988	8677.76
567.193	8362.37
567.397	8620.41
567.602	8548.73
567.806	8862.07
568.011	8565.12
568.215	8665.47
568.42	8882.55
568.624	8935.8
568.828	8612.22
569.033	8700.28
569.237	9228.66
569.442	9025.91
569.646	8601.98
569.85	8657.28
570.055	9066.87
570.259	9009.53
570.463	8913.27
570.668	8735.1
570.872	9025.91
571.076	8952.18
571.281	8855.93
571.485	9009.53
571.689	9222.52
571.893	9318.77
572.098	9009.53
572.302	8970.62
572.506	9314.67
572.71	9355.63
572.914	8804.73
573.119	8958.33
573.323	9677.16
573.527	9490.8
573.731	8878.46
573.935	8649.08
574.139	9511.28
574.343	9001.33
574.547	9068.92
574.751	8984.95
574.955	9683.31
575.159	9668.97
575.364	8962.42
575.568	8847.74
575.772	9101.69
575.976	9617.77
576.18	8890.74
576.383	8884.6
576.587	9918.82
576.791	9695.6
576.995	8784.25
577.199	8876.41
577.403	9607.53
577.607	9853.29
577.811	9091.45
578.015	9181.56
578.219	9460.08
578.422	9677.16
578.626	9224.56
578.83	9402.74
579.034	9677.16
579.238	9486.7
579.442	9165.17
579.645	9578.86
579.849	9578.86
580.053	9595.25
580.257	9226.61
580.46	9372.02
580.664	9730.41
580.868	9742.7
581.071	9478.51
581.275	9525.61
581.479	9288.05
581.682	9933.16
581.886	9427.31
582.09	9484.66
582.293	9881.96
582.497	10115.43
582.7	9486.7
582.904	9337.2
583.107	9738.6
583.311	9453.94
583.515	9388.4
583.718	9591.15
583.922	9931.11
584.125	10379.62
584.329	9517.42
584.532	9630.06
584.735	10264.93
584.939	9906.54
585.142	9460.08
585.346	9585.01
585.549	9980.26
585.753	9867.63
585.956	9560.43
586.159	9724.27
586.363	10398.05
586.566	10183.01
586.769	9580.91
586.973	9533.81
587.176	10328.42
587.379	10346.85
587.582	9888.11
587.786	10066.28
587.989	10000.74
588.192	10590.56
588.395	9888.11
588.599	10053.99
588.802	10363.23
589.005	10113.38
589.208	10010.98
589.411	10105.19
589.615	10363.23
589.818	10664.29
590.021	10140.01
590.224	10049.89
590.427	10545.5
590.63	10525.02
590.833	9654.64
591.036	9986.41
591.239	10215.78
591.442	10115.43
591.645	10058.09
591.848	9881.96
592.051	10322.27
592.254	10256.74
592.457	10119.53
592.66	10035.56
592.863	10602.85
593.066	10500.45
593.269	9929.06
593.472	10240.36
593.675	10283.36
593.878	10504.54
594.081	10201.44
594.284	9986.41
594.486	10565.98
594.689	10586.46
594.892	10137.96
595.095	10191.2
595.298	10594.65
595.5	10369.38
595.703	10629.47
595.906	10312.03
596.109	11120.98
596.311	10735.96
596.514	10119.53
596.717	10295.65
596.92	10893.66
597.122	10731.87
597.325	9974.12
597.528	10406.24
597.73	10895.71
597.933	10963.29
598.136	10422.62
598.338	10047.85
598.541	10807.64
598.743	11041.11
598.946	10668.38
599.148	10762.59
599.351	10881.37
599.554	11192.66
599.756	10299.75
599.959	10512.74
600.161	10957.14
600.363	11575.63
600.566	10899.8
600.768	10742.11
600.971	11426.13
601.173	10989.91
601.376	10477.92
601.578	10602.85
601.78	10991.96
601.983	11317.59
602.185	10432.86
602.388	10809.69
602.59	11100.5
602.792	10770.78
602.995	10860.89
603.197	10590.56
603.399	11163.99
603.601	11123.03
603.804	10686.81
604.006	10854.75
604.208	10783.07
604.41	10590.56
604.613	11084.12
604.815	10445.15
605.017	11469.14
605.219	10721.63
605.421	11024.73
605.623	10541.41
605.826	11413.84
606.028	11354.45
606.23	10713.44
606.432	10819.93
606.634	11684.17
606.836	11506
607.038	10541.41
607.24	10836.31
607.442	11061.59
607.644	11118.93
607.846	10910.04
608.048	10891.61
608.25	11522.38
608.452	11028.82
608.654	10879.32
608.856	10600.8
609.058	11108.69
609.26	11286.87
609.462	11123.03
609.664	10893.66
609.866	11483.47
610.067	11395.41
610.269	11159.89
610.471	10940.76
610.673	11069.78
610.875	11147.61
611.077	10592.61
611.278	10944.86
611.48	11237.72
611.682	11655.5
611.884	11131.22
612.085	11184.47
612.287	11172.18
612.489	11458.9
612.69	10850.65
612.892	11096.41
613.094	11718.99
613.295	11143.51
613.497	10842.46
613.699	11061.59
613.9	11663.69
614.102	11682.13
614.304	11082.07
614.505	10860.89
614.707	11235.67
614.908	11325.78
615.11	10830.17
615.311	11176.28
615.513	11522.38
615.714	11661.65
615.916	10930.52
616.117	11041.11
616.319	11264.34
616.52	11620.69
616.722	11082.07
616.923	11047.26
617.124	11852.11
617.326	11579.73
617.527	10981.72
617.729	11276.63
617.93	11456.85
618.131	11757.9
618.333	10961.24
618.534	11233.62
618.735	11282.77
618.937	11952.46
619.138	10723.68
619.339	10973.53
619.54	11639.12
619.742	11458.9
619.943	11125.08
620.144	11106.65
620.345	11696.46
620.546	11485.52
620.748	11333.97
620.949	11190.61
621.15	11465.04
621.351	11526.48
621.552	11168.09
621.753	11067.74
621.954	10989.91
622.155	11798.86
622.356	11139.41
622.558	11454.8
622.759	11440.47
622.96	11712.85
623.161	11350.35
623.362	11123.03
623.563	11409.75
623.764	11315.54
623.965	11430.23
624.166	11409.75
624.366	11360.59
624.567	11741.52
624.768	10852.7
624.969	11059.54
625.17	11354.45
625.371	11696.46
625.572	11188.57
625.773	11088.21
625.973	11684.17
626.174	11813.2
626.375	11266.39
626.576	11270.48
626.777	11706.7
626.977	12349.76
627.178	11323.73
627.379	11356.5
627.58	11368.79
627.78	11598.16
627.981	11327.83
628.182	11544.91
628.382	11815.24
628.583	11116.89
628.784	11350.35
628.984	11440.47
629.185	11618.64
629.386	11653.45
629.586	11503.95
629.787	11082.07
629.987	11829.58
630.188	11897.16
630.388	11499.86
630.589	11393.36
630.79	12226.89
630.99	11692.37
631.191	11538.77
631.391	11499.86
631.591	11706.7
631.792	12083.53
631.992	11659.6
632.193	11696.46
632.393	12425.54
632.594	11667.79
632.794	11399.51
632.994	11389.27
633.195	11606.35
633.395	11702.61
633.595	11583.82
633.796	11659.6
633.996	11618.64
634.196	12063.05
634.397	11356.5
634.597	11495.76
634.797	11329.88
634.997	12034.38
635.198	11817.29
635.398	11405.65
635.598	11866.44
635.798	12095.82
635.998	12011.85
636.199	11383.12
636.399	11684.17
636.599	11780.43
636.799	11645.26
636.999	11852.11
637.199	11946.31
637.399	12052.81
637.599	11503.95
637.799	11653.45
637.999	11866.44
638.199	12288.32
638.399	11553.1
638.599	11669.84
638.799	12058.95
638.999	12337.48
639.199	11727.18
639.399	11739.47
639.599	12233.03
639.799	11848.01
639.999	11575.63
640.199	11526.48
640.399	11866.44
640.599	11895.11
640.799	11759.95
640.998	11741.52
641.198	11845.96
641.398	12013.9
641.598	11778.38
641.798	11895.11
641.997	12816.7
642.197	11934.03
642.397	11837.77
642.597	11927.88
642.796	12362.05
642.996	12491.07
643.196	11811.15
643.395	11540.82
643.595	12118.34
643.795	11520.34
643.994	11807.05
644.194	11843.92
644.394	12353.86
644.593	11995.46
644.793	11612.49
644.992	11899.21
645.192	12302.66
645.392	11651.41
645.591	11989.32
645.791	11913.55
645.99	12069.19
646.19	12284.23
646.389	11909.45
646.589	11880.78
646.788	12456.26
646.987	12163.4
647.187	12017.99
647.386	11968.84
647.586	12300.61
647.785	12493.12
647.984	11944.27
648.184	12202.31
648.383	12050.76
648.582	12093.77
648.782	11915.59
648.981	12142.92
649.18	12071.24
649.38	12300.61
649.579	11753.8
649.778	12142.92
649.977	12548.42
650.177	12333.38
650.376	11981.13
650.575	11680.08
650.774	12751.17
650.973	11983.18
651.173	11868.49
651.372	11999.56
651.571	12409.15
651.77	12308.8
651.969	12116.3
652.168	11925.83
652.367	12114.25
652.566	12355.91
652.765	12104.01
652.964	12478.79
653.163	12712.25
653.362	12177.73
653.561	11837.77
653.76	12032.33
653.959	12411.2
654.158	12636.48
654.357	12220.74
654.556	12155.21
654.755	12552.51
654.954	12638.53
655.153	12124.49
655.352	12194.12
655.551	12628.29
655.749	12142.92
655.948	12228.93
656.147	12095.82
656.346	12495.17
656.545	12214.6
656.743	12247.37
656.942	12046.66
657.141	12308.8
657.34	12200.26
657.538	12441.92
657.737	12220.74
657.936	12421.44
658.135	12542.27
658.333	12032.33
658.532	12273.99
658.731	12853.56
658.929	12738.88
659.128	12720.45
659.326	12069.19
659.525	12872
659.724	12339.52
659.922	11700.56
660.121	12056.9
660.319	12503.36
660.518	12011.85
660.716	11888.97
660.915	12288.32
661.113	12859.71
661.312	12204.36
661.51	12396.87
661.709	12364.1
661.907	12403.01
662.105	12790.08
662.304	12144.97
662.502	12300.61
662.701	12577.09
662.899	12321.09
663.097	12509.51
663.296	12083.53
663.494	12773.69
663.692	12833.08
663.891	12179.78
664.089	12224.84
664.287	12507.46
664.485	12712.25
664.684	12237.13
664.882	12351.81
665.08	12519.74
665.278	12663.1
665.476	12290.37
665.675	12224.84
665.873	12976.44
666.071	12648.77
666.269	12243.27
666.467	12380.48
666.665	12671.29
666.863	12261.7
667.061	12511.55
667.259	12450.11
667.457	12269.89
667.655	12470.59
667.853	12190.02
668.051	12327.24
668.249	12314.95
668.447	12613.95
668.645	12224.84
668.843	12480.83
669.041	12781.88
669.239	12403.01
669.437	12233.03
669.635	12495.17
669.833	12415.3
670.031	12626.24
670.229	12378.44
670.426	12400.96
670.624	12476.74
670.822	12351.81
671.02	12376.39
671.218	12419.39
671.415	12280.13
671.613	12441.92
671.811	12403.01
672.009	12423.49
672.206	12540.22
672.404	12558.66
672.602	12548.42
672.799	12267.84
672.997	12656.96
673.195	12757.31
673.392	12509.51
673.59	12134.73
673.788	12392.77
673.985	12044.62
674.183	12384.58
674.38	12138.82
674.578	12501.31
674.775	12147.01
674.973	11813.2
675.17	12161.35
675.368	12763.45
675.565	12509.51
675.763	12079.43
675.96	12034.38
676.158	12712.25
676.355	12243.27
676.553	12474.69
676.75	12163.4
676.947	12572.99
677.145	12149.06
677.342	12063.05
677.539	12276.04
677.737	12443.97
677.934	12755.26
678.131	12302.66
678.329	12220.74
678.526	12769.6
678.723	12605.76
678.92	12308.8
679.118	12177.73
679.315	12128.58
679.512	12595.52
679.709	12380.48
679.906	12294.47
680.104	12706.11
680.301	12499.27
680.498	11813.2
680.695	11815.24
680.892	12208.45
681.089	12116.3
681.286	12347.72
681.483	11903.31
681.68	12398.91
681.877	12435.78
682.075	12112.2
682.272	12390.72
682.469	12235.08
682.665	12241.22
682.862	11755.85
683.059	11841.87
683.256	12083.53
683.453	12376.39
683.65	12034.38
683.847	12087.62
684.044	12147.01
684.241	11915.59
684.438	12140.87
684.635	11921.74
684.831	12683.58
685.028	12630.34
685.225	11983.18
685.422	12226.89
685.619	12038.47
685.815	12167.49
686.012	12015.94
686.209	11821.39
686.405	11864.39
686.602	12292.42
686.799	11731.28
686.996	11985.23
687.192	11710.8
687.389	12575.04
687.586	11942.22
687.782	12028.23
687.979	12622.14
688.175	12292.42
688.372	12134.73
688.568	11807.05
688.765	11653.45
688.962	12220.74
689.158	11778.38
689.355	11497.81
689.551	12321.09
689.748	11946.31
689.944	11911.5
690.14	11465.04
690.337	12175.69
690.533	11925.83
690.73	11782.48
690.926	12056.9
691.123	12011.85
691.319	12015.94
691.515	11737.42
691.712	11901.26
691.908	11991.37
692.104	11913.55
692.301	11958.6
692.497	11669.84
692.693	12163.4
692.889	12194.12
693.086	12007.75
693.282	11657.55
693.478	11878.73
693.674	12570.94
693.87	11741.52
694.067	11295.06
694.263	11934.03
694.459	11819.34
694.655	11878.73
694.851	11843.92
695.047	12104.01
695.243	12106.06
695.439	11696.46
695.635	11813.2
695.831	11944.27
696.027	11725.13
696.224	11491.66
696.42	11989.32
696.615	12095.82
696.811	11901.26
697.007	11268.44
697.203	11585.87
697.399	11884.87
697.595	12171.59
697.791	11475.28
697.987	11772.24
698.183	11618.64
698.379	11712.85
698.575	11477.33
698.77	11458.9
698.966	11764.04
699.162	12220.74
699.358	11546.96
699.554	11563.34
699.749	11868.49
699.945	11974.99
700.141	11479.38
700.337	11516.24
700.532	11594.06
700.728	11594.06
700.924	11491.66
701.119	11405.65
701.315	12007.75
701.511	11663.69
701.706	11688.27
701.902	11141.46
702.097	11729.23
702.293	11753.8
702.489	11530.58
702.684	11583.82
702.88	11954.51
703.075	11632.97
703.271	11557.2
703.466	11446.61
703.662	11690.32
703.857	11716.94
704.053	11321.68
704.248	11368.79
704.443	11782.48
704.639	11788.62
704.834	11524.43
705.03	11350.35
705.225	11811.15
705.42	12020.04
705.616	11307.35
705.811	11256.15
706.006	11594.06
706.202	11491.66
706.397	11366.74
706.592	11405.65
706.787	11577.68
706.983	11567.44
707.178	11616.59
707.373	11223.38
707.568	11616.59
707.763	11635.02
707.959	11178.33
708.154	11188.57
708.349	11575.63
708.544	11655.5
708.739	11241.81
708.934	11059.54
709.129	11669.84
709.324	11620.69
709.519	11225.43
709.714	10965.34
709.909	11831.63
710.104	11637.07
710.299	11374.93
710.494	11229.52
710.689	11637.07
710.884	11471.18
711.079	11385.17
711.274	11577.68
711.469	11479.38
711.664	11573.58
711.859	11434.32
712.054	11516.24
712.249	11581.78
712.443	11409.75
712.638	11182.42
712.833	10975.58
713.028	11147.61
713.223	11327.83
713.417	11442.51
713.612	11065.69
713.807	11436.37
714.002	12095.82
714.196	11200.85
714.391	10770.78
714.586	11518.29
714.78	11317.59
714.975	11026.78
715.17	11157.85
715.364	11245.91
715.559	11700.56
715.754	10748.25
715.948	10805.6
716.143	11770.19
716.337	11336.02
716.532	11323.73
716.726	10998.1
716.921	11569.49
717.115	11725.13
717.31	10830.17
717.504	11641.17
717.699	11135.32
717.893	11540.82
718.088	10877.27
718.282	10930.52
718.476	11178.33
718.671	11327.83
718.865	10928.47
719.059	10928.47
719.254	11145.56
719.448	11661.65
719.642	12200.26
719.837	10518.88
720.031	11307.35
720.225	11407.7
720.419	10936.67
720.614	10740.06
720.808	11483.47
721.002	10910.04
721.196	10668.38
721.39	10789.21
721.585	11436.37
721.779	10983.77
721.973	10838.36
722.167	10713.44
722.361	10928.47
722.555	11405.65
722.749	10551.65
722.943	10604.89
723.137	10742.11
723.331	11116.89
723.525	10695
723.719	10699.1
723.913	11086.17
724.107	11323.73
724.301	10813.79
724.495	10715.48
724.689	11641.17
724.883	11221.33
725.077	10787.16
725.271	10707.29
725.465	11262.29
725.659	10975.58
725.853	10967.38
726.046	10504.54
726.24	10729.82
726.434	11168.09
726.628	10572.13
726.822	10807.64
727.015	11069.78
727.209	11032.92
727.403	10867.03
727.596	10443.1
727.79	11090.26
727.984	11184.47
728.177	10832.22
728.371	10905.95
728.565	11149.65
728.758	10754.4
728.952	10430.82
729.146	10592.61
729.339	11229.52
729.533	10803.55
729.726	10555.74
729.92	10647.9
730.113	11368.79
730.307	11010.39
730.5	10584.41
730.694	10520.93
730.887	10873.18
731.081	11006.3
731.274	10656.09
731.468	10582.37
731.661	10807.64
731.854	10684.76
732.048	10729.82
732.241	10396
732.435	10568.03
732.628	10981.72
732.821	10606.94
733.014	10588.51
733.208	10688.86
733.401	11008.34
733.594	10658.14
733.788	10813.79
733.981	11202.9
734.174	10901.85
734.367	10576.22
734.56	10912.09
734.754	11182.42
734.947	10881.37
735.14	10547.55
735.333	10674.53
735.526	10975.58
735.719	10682.72
735.912	10539.36
736.105	10467.68
736.298	10895.71
736.491	10721.63
736.684	10381.67
736.877	10449.25
737.07	10930.52
737.263	11229.52
737.456	10649.95
737.649	10297.7
737.842	10453.34
738.035	10920.28
738.228	10619.23
738.421	10590.56
738.614	11102.55
738.807	10998.1
739	10127.72
739.192	10342.75
739.385	10858.84
739.578	10879.32
739.771	10832.22
739.964	10590.56
740.156	10670.43
740.349	10830.17
740.542	10764.64
740.735	10172.77
740.927	10320.23
741.12	10658.14
741.313	10168.68
741.505	10463.58
741.698	10580.32
741.891	10924.38
742.083	10234.21
742.276	10443.1
742.468	10576.22
742.661	10697.05
742.854	10447.2
743.046	10140.01
743.239	10914.14
743.431	10703.2
743.624	10500.45
743.816	10068.33
744.009	10451.3
744.201	10660.19
744.393	10594.65
744.586	10131.81
744.778	10873.18
744.971	10637.66
745.163	10508.64
745.355	10484.06
745.548	10393.95
745.74	10580.32
745.932	10246.5
746.125	10414.43
746.317	11086.17
746.509	10819.93
746.702	10428.77
746.894	10516.83
747.086	10449.25
747.278	11159.89
747.471	10666.33
747.663	10676.57
747.855	10639.71
748.047	11065.69
748.239	10324.32
748.431	10295.65
748.623	11061.59
748.815	10809.69
749.008	10215.78
749.2	10221.92
749.392	10758.49
749.584	10496.35
749.776	10428.77
749.968	10414.43
750.16	10944.86
750.352	10262.88
750.544	10314.08
750.736	10219.88
750.928	10746.2
751.12	10484.06
751.311	10006.89
751.503	10287.46
751.695	10277.22
751.887	10332.51
752.079	10021.22
752.271	10133.86
752.463	11295.06
752.654	10477.92
752.846	10211.68
753.038	10133.86
753.23	10264.93
753.421	10582.37
753.613	10279.27
753.805	10355.04
753.997	10533.22
754.188	10436.96
754.38	10021.22
754.572	10168.68
754.763	10297.7
754.955	10459.49
755.146	10226.02
755.338	10142.05
755.53	10355.04
755.721	10391.91
755.913	9814.38
756.104	9945.45
756.296	10107.24
756.487	10508.64
756.679	9769.32
756.87	9990.5
757.062	9992.55
757.253	10381.67
757.445	9927.02
757.636	10221.92
757.827	10125.67
758.019	10781.02
758.21	9918.82
758.401	9841
758.593	10602.85
758.784	10586.46
758.975	9765.23
759.167	9824.62
759.358	10410.34
759.549	10463.58
759.74	9992.55
759.932	9771.37
760.123	10262.88
760.314	9996.65
760.505	9810.28
760.696	9716.08
760.888	10625.37
761.079	10000.74
761.27	9681.26
761.461	9474.42
761.652	10246.5
761.843	9726.32
762.034	9650.54
762.225	9947.5
762.416	9779.56
762.607	9879.91
762.798	9607.53
762.989	9443.7
763.18	10545.5
763.371	9673.07
763.562	9435.5
763.753	9720.17
763.944	10219.88
764.135	10033.51
764.326	9877.87
764.517	9341.3
764.708	9877.87
764.899	9916.78
765.089	9539.95
765.28	9226.61
765.471	9814.38
765.662	10049.89
765.853	9535.85
766.043	9224.56
766.234	10115.43
766.425	9906.54
766.615	9480.56
766.806	9279.86
766.997	9943.4
767.187	9515.37
767.378	9306.48
767.569	8966.52
767.759	9746.8
767.95	9728.36
768.141	9402.74
768.331	9333.11
768.522	9650.54
768.712	9935.21
768.903	9331.06
769.093	9322.87
769.284	9832.81
769.474	9650.54
769.665	9060.73
769.855	9116.02
770.046	9587.05
770.236	9488.75
770.426	9363.83
770.617	8978.81
770.807	9513.33
770.998	9329.01
771.188	9150.84
771.378	9277.81
771.569	9570.67
771.759	9671.02
771.949	8915.32
772.139	8931.7
772.33	9421.17
772.52	9802.09
772.71	9202.04
772.9	8976.76
773.09	9802.09
773.281	9748.84
773.471	8950.14
773.661	9122.16
773.851	9443.7
774.041	9116.02
774.231	9052.53
774.421	9165.17
774.611	9515.37
774.802	9185.65
774.992	8915.32
775.182	8771.96
775.372	9267.57
775.562	9527.66
775.752	9085.3
775.942	8880.5
776.131	9537.9
776.321	9355.63
776.511	8771.96
776.701	8681.85
776.891	9302.39
777.081	8862.07
777.271	8921.46
777.461	8757.63
777.651	9140.6
777.84	9369.97
778.03	8812.92
778.22	8612.22
778.41	9349.49
778.599	8903.03
778.789	8726.91
778.979	8634.75
779.169	9042.29
779.358	8976.76
779.548	8907.13
779.738	8409.47
779.927	9165.17
780.117	8853.88
780.307	8601.98
780.496	8233.35
780.686	9124.21
780.875	9351.54
781.065	8769.91
781.254	8550.78
781.444	8870.26
781.633	8886.65
781.823	8628.6
782.012	8468.86
782.202	8731
782.391	8712.57
782.581	8317.31
782.77	8769.91
782.96	8960.38
783.149	8649.08
783.338	8720.76
783.528	8413.57
783.717	9197.94
783.906	9044.34
784.096	8522.11
784.285	8382.85
784.474	8655.23
784.663	8724.86
784.853	8294.79
785.042	8472.96
785.231	8530.3
785.42	8814.97
785.61	8323.46
785.799	8116.61
785.988	8495.49
786.177	8567.17
786.366	8429.95
786.555	8567.17
786.744	8862.07
786.933	8425.86
787.122	8167.81
787.312	8376.7
787.501	8444.29
787.69	8565.12
787.879	7999.88
788.068	8006.02
788.257	8083.84
788.445	8276.35
788.634	8214.91
788.823	7971.21
789.012	8851.83
789.201	8769.91
789.39	8143.24
789.579	7911.82
789.768	8532.35
789.957	8352.13
790.145	8049.03
790.334	7717.26
790.523	8382.85
790.712	8331.65
790.9	8192.39
791.089	7854.47
791.278	8673.66
791.467	8305.03
791.655	8161.67
791.844	8790.39
792.033	8071.56
792.221	8274.31
792.41	7879.05
792.599	7633.29
792.787	8489.34
792.976	8544.64
793.164	7838.09
793.353	8020.36
793.541	8595.84
793.73	8378.75
793.918	8059.27
794.107	7922.06
794.295	8075.65
794.484	8233.35
794.672	7989.64
794.861	7786.89
795.049	8452.48
795.238	8690.04
795.426	7750.03
795.614	7956.87
795.803	8370.56
795.991	8417.66
796.179	7850.38
796.368	7786.89
796.556	8294.79
796.744	7895.43
796.932	7649.68
797.121	7645.58
797.309	8106.37
797.497	8249.73
797.685	7833.99
797.874	7715.21
798.062	7944.58
798.25	8307.07
798.438	7874.95
798.626	7852.42
798.814	8309.12
799.002	8761.72
799.19	8130.95
799.378	7719.31
799.566	8104.32
799.755	8468.86
799.943	7907.72
800.131	7629.2
800.318	7993.73
800.506	8237.44
800.694	7735.69
800.882	8053.13
801.07	8323.46
801.258	7938.44
801.446	7766.41
801.634	7805.32
801.822	7922.06
802.01	7905.67
802.197	7836.04
802.385	7979.4
802.573	8151.43
802.761	7958.92
802.949	8016.26
803.136	7715.21
803.324	8143.24
803.512	8208.77
803.699	7805.32
803.887	7532.94
804.075	8378.75
804.262	7764.36
804.45	7774.6
804.638	7987.59
804.825	7877
805.013	7844.23
805.201	7831.94
805.388	7641.48
805.576	8006.02
805.763	8419.71
805.951	7817.61
806.138	7977.35
806.326	8544.64
806.513	8307.07
806.701	7741.83
806.888	7696.78
807.075	8198.53
807.263	8513.92
807.45	7860.62
807.638	7864.71
807.825	8708.48
808.012	8352.13
808.2	8155.52
808.387	8372.61
808.574	8333.7
808.761	8489.34
808.949	7928.2
809.136	7903.62
809.323	8186.24
809.51	8171.91
809.698	8092.04
809.885	8112.52
810.072	8386.94
810.259	8581.5
810.446	7944.58
810.633	7848.33
810.82	8448.38
811.008	8585.6
811.195	8192.39
811.382	7934.34
811.569	7969.16
811.756	7942.53
811.943	8006.02
812.13	8016.26
812.317	8020.36
812.504	8147.33
812.691	8046.98
812.878	8114.56
813.064	8677.76
813.251	8227.2
813.438	7846.28
813.625	7860.62
813.812	8133
813.999	8159.62
814.186	8006.02
814.372	7846.28
814.559	8145.28
814.746	8694.14
814.933	8061.32
815.12	8235.39
815.306	8196.48
815.493	7852.42
815.68	7883.14
815.866	8069.51
816.053	8604.03
816.24	8706.43
816.426	7983.49
816.613	7752.07
816.799	8436.1
816.986	8292.74
817.173	7911.82
817.359	7651.72
817.546	8167.81
817.732	7858.57
817.919	7616.91
818.105	7952.77
818.292	7905.67
818.478	8255.87
818.665	8067.46
818.851	7836.04
819.037	8606.08
819.224	8315.27
819.41	7727.5
819.597	7891.34
819.783	8436.1
819.969	8325.5
820.156	7848.33
820.342	7707.02
820.528	8921.46
820.714	8192.39
820.901	8022.41
821.087	7780.75
821.273	8280.45
821.459	8012.17
821.646	7752.07
821.832	7727.5
822.018	8157.57
822.204	7899.53
822.39	7836.04
822.576	7747.98
822.762	8130.95
822.948	8026.5
823.134	7741.83
823.32	7799.18
823.507	7731.59
823.693	8018.31
823.879	8044.93
824.065	7682.44
824.25	8161.67
824.436	7881.1
824.622	7692.68
824.808	7696.78
824.994	7965.06
825.18	7672.2
825.366	7518.61
825.552	7805.32
825.738	8063.36
825.923	8300.93
826.109	7727.5
826.295	7590.28
826.481	7627.15
826.667	7674.25
826.852	7885.19
827.038	7621
827.224	8180.1
827.409	8345.98
827.595	7487.89
827.781	7727.5
827.966	8038.79
828.152	8018.31
828.338	7633.29
828.523	7416.21
828.709	7735.69
828.894	7889.29
829.08	7471.5
829.266	7516.56
829.451	7725.45
829.637	7836.04
829.822	7678.35
830.008	7502.22
830.193	7854.47
830.378	8145.28
830.564	7496.08
830.749	7135.64
830.935	7854.47
831.12	7735.69
831.305	7412.11
831.491	7420.3
831.676	7348.62
831.861	7770.51
832.047	7444.88
832.232	7219.6
832.417	7805.32
832.602	7750.03
832.788	7342.48
832.973	7422.35
833.158	7670.15
833.343	7723.4
833.528	7340.43
833.714	7405.97
833.899	7856.52
834.084	8063.36
834.269	7655.82
834.454	7389.58
834.639	7733.64
834.824	7543.18
835.009	7332.24
835.194	7389.58
835.379	7555.47
835.564	7977.35
835.749	7459.21
835.934	6996.37
836.119	7627.15
836.304	7561.61
836.489	7027.09
836.674	7485.84
836.859	7248.27
837.044	7815.56
837.228	7055.76
837.413	7070.1
837.598	7590.28
837.783	7575.95
837.968	7190.93
838.152	6793.62
838.337	6826.39
838.522	7920.01
838.707	7526.8
838.891	7272.85
839.076	7342.48
839.261	7502.22
839.445	7297.42
839.63	7037.33
839.815	7733.64
839.999	7215.51
840.184	6879.64
840.368	7066
840.553	7534.99
840.737	7606.67
840.922	6826.39
841.106	6855.06
841.291	6928.79
841.475	7238.03
841.66	6939.03
841.844	7023
842.029	7920.01
842.213	6920.6
842.397	6785.43
842.582	6752.66
842.766	7469.45
842.951	7510.41
843.135	6795.67
843.319	6912.41
843.504	7197.07
843.688	7514.51
843.872	6709.66
844.056	6760.86
844.241	7127.44
844.425	7047.57
844.609	7041.43
844.793	6683.03
844.977	7612.81
845.161	7178.64
845.346	6826.39
845.53	6816.15
845.714	6928.79
845.898	7432.59
846.082	6429.09
846.266	6736.28
846.45	7059.86
846.634	7088.53
846.818	6975.89
847.002	6787.48
847.186	7205.27
847.37	6850.97
847.554	6719.9
847.738	6865.3
847.922	7020.95
848.106	7072.15
848.29	6533.53
848.473	6547.87
848.657	6936.98
848.841	7020.95
849.025	6660.51
849.209	6422.94
849.392	6979.99
849.576	6822.3
849.76	6359.45
849.944	6777.24
850.127	7164.31
850.311	6736.28
850.495	6424.99
850.678	6498.72
850.862	7254.42
851.046	7174.55
851.229	6791.58
851.413	6576.54
851.596	7012.76
851.78	6826.39
851.964	6701.47
852.147	6371.74
852.331	7518.61
852.514	6965.65
852.698	6431.13
852.881	6158.75
853.065	6799.77
853.248	6484.38
853.431	6488.48
853.615	6590.88
853.798	7195.03
853.982	6511
854.165	6535.58
854.348	6355.36
854.532	6453.66
854.715	6685.08
854.898	6371.74
855.081	6480.29
855.265	6838.68
855.448	7006.61
855.631	6265.25
855.814	6183.33
855.997	6773.14
856.181	6406.56
856.364	6341.02
856.547	6054.31
856.73	6584.73
856.913	6519.2
857.096	6005.16
857.279	6281.63
857.462	6379.93
857.645	6689.18
857.828	6392.22
858.011	6207.91
858.194	6427.04
858.377	6525.34
858.56	6009.25
858.743	6121.89
858.926	6203.81
859.109	6543.77
859.292	6343.07
859.475	5958.05
859.658	6687.13
859.841	6511
860.023	6142.37
860.206	6066.6
860.389	6631.83
860.572	6519.2
860.755	6046.12
860.937	6185.38
861.12	6287.78
861.303	6482.33
861.486	6070.69
861.668	6111.65
861.851	6472.09
862.034	6330.78
862.216	6168.99
862.399	5792.17
862.581	6486.43
862.764	6742.43
862.947	5945.77
863.129	5962.15
863.312	6025.64
863.494	6566.3
863.677	5996.96
863.859	5839.27
864.042	6539.68
864.224	6447.52
864.406	5872.04
864.589	5577.13
864.771	6154.66
864.954	5945.77
865.136	5718.44
865.318	5599.66
865.501	6248.86
865.683	5697.96
865.865	5654.95
866.048	5953.96
866.23	6109.6
866.412	6011.3
866.594	5616.04
866.777	5888.42
866.959	6273.44
867.141	5921.19
867.323	6113.7
867.505	5724.58
867.687	6035.88
867.869	6111.65
868.052	5755.3
868.234	5626.28
868.416	5972.39
868.598	6113.7
868.78	5695.91
868.962	5495.21
869.144	6003.11
869.326	6072.74
869.508	5646.76
869.69	5497.26
869.872	5718.44
870.054	6209.95
870.236	5626.28
870.417	5544.36
870.599	5892.52
870.781	6326.69
870.963	5947.81
871.145	5530.03
871.327	5747.11
871.508	5999.01
871.69	5622.19
871.872	5556.65
872.054	5773.74
872.235	6031.78
872.417	5618.09
872.599	5478.83
872.78	6400.41
872.962	5974.44
873.144	5491.12
873.325	5728.68
873.507	6199.71
873.689	5777.83
873.87	5491.12
874.052	5652.91
874.233	5757.35
874.415	6109.6
874.596	5691.82
874.778	5421.49
874.959	5790.12
875.141	6087.08
875.322	5515.69
875.503	5421.49
875.685	6015.4
875.866	5497.26
876.048	5482.92
876.229	5388.72
876.41	5829.03
876.592	5980.58
876.773	5482.92
876.954	5222.83
877.136	6224.29
877.317	5616.04
877.498	5398.96
877.679	5530.03
877.86	6064.55
878.042	5890.47
878.223	5427.63
878.404	5945.77
878.585	5988.77
878.766	6164.9
878.947	5835.17
879.128	5661.1
879.309	5956.01
879.49	6085.03
879.672	5546.41
879.853	5554.6
880.034	5609.9
880.215	5835.17
880.396	5620.14
880.576	5634.47
880.757	5808.55
880.938	6193.57
881.119	5554.6
881.3	5562.8
881.481	5669.29
881.662	6867.35
881.843	5519.79
882.023	5613.99
882.204	6154.66
882.385	6056.36
882.566	5732.78
882.747	5683.63
882.927	6033.83
883.108	6199.71
883.289	5636.52
883.469	5900.71
883.65	5945.77
883.831	5990.82
884.011	5904.81
884.192	5712.3
884.373	6365.6
884.553	6160.8
884.734	5945.77
884.914	6046.12
885.095	6787.48
885.275	6433.18
885.456	6125.99
885.636	5593.51
885.817	6113.7
885.997	6044.07
886.178	5675.43
886.358	5855.65
886.538	6033.83
886.719	7162.26
886.899	5738.92
887.08	5923.24
887.26	6386.08
887.44	5953.96
887.621	5687.72
887.801	5945.77
887.981	6699.42
888.161	6347.17
888.342	6076.84
888.522	6011.3
888.702	6285.73
888.882	6400.41
889.062	6242.72
889.242	5915.05
889.423	6461.85
889.603	6455.71
889.783	6089.12
889.963	5894.57
890.143	6431.13
890.323	6447.52
890.503	5990.82
890.683	5818.79
890.863	6191.52
891.043	6197.67
891.223	6152.61
891.403	6201.76
891.583	6402.46
891.763	6373.79
891.943	6009.25
892.122	5915.05
892.302	6228.38
892.482	6277.54
892.662	6130.08
892.842	5962.15
893.022	6334.88
893.201	6099.36
893.381	6289.82
893.561	5994.92
893.741	6502.81
893.92	6400.41
894.1	5937.57
894.28	6007.2
894.459	6402.46
894.639	6273.44
894.819	5919.14
894.998	5990.82
895.178	6449.57
895.357	6349.22
895.537	5773.74
895.716	5923.24
895.896	6056.36
896.075	6429.09
896.255	6056.36
896.434	5783.98
896.614	6547.87
896.793	6472.09
896.973	5749.16
897.152	5931.43
897.331	6158.75
897.511	6179.23
897.69	5700.01
897.87	5800.36
898.049	6109.6
898.228	6003.11
898.407	6050.21
898.587	5724.58
898.766	5757.35
898.945	6113.7
899.124	6039.97
899.304	5783.98
899.483	6166.95
899.662	6445.47
899.841	5685.67
900.02	5597.61
900.199	6130.08
900.378	5933.48
900.557	5450.16
900.737	5548.46
900.916	6080.93
901.095	6271.39
901.274	5775.78
901.453	5446.06
901.632	5697.96
901.811	5603.75
901.989	5448.11
902.168	5343.66
902.347	5953.96
902.526	5597.61
902.705	5345.71
902.884	5513.64
903.063	6089.12
903.242	5980.58
903.42	5224.88
903.599	5462.44
903.778	5888.42
903.957	6019.49
904.135	5421.49
904.314	5263.79
904.493	5593.51
904.672	5564.84
904.85	5224.88
905.029	5353.9
905.207	5548.46
905.386	6054.31
905.565	5036.47
905.743	5075.38
905.922	5470.64
906.1	5593.51
906.279	4921.78
906.457	4995.51
906.636	5333.42
906.814	5165.49
906.993	4899.25
907.171	4829.62
907.35	5511.6
907.528	5390.77
907.707	5249.46
907.885	4708.79
908.063	5570.99
908.242	4868.53
908.42	4909.49
908.598	4417.98
908.777	5050.8
908.955	5011.89
909.133	5058.99
909.311	4532.67
909.49	4805.05
909.668	4839.86
909.846	4708.79
910.024	4544.95
910.202	4999.6
910.38	5294.51
910.559	4647.35
910.737	4798.9
910.915	5132.72
911.093	5286.32
911.271	5048.75
911.449	5145.01
911.627	5302.7
911.805	5876.13
911.983	5050.8
912.161	4831.67
912.339	5380.53
912.517	5820.84
912.695	5304.75
912.872	5005.75
913.05	5104.05
913.228	5271.98
913.406	5147.06
913.584	5061.04
913.762	5562.8
913.939	5204.4
914.117	5044.66
914.295	4977.08
914.473	5425.58
914.65	5319.09
914.828	4909.49
915.006	5001.65
915.184	5065.14
915.361	5487.02
915.539	5110.19
915.716	5339.57
915.894	5503.4
916.072	5650.86
916.249	5083.57
916.427	5140.91
916.604	5110.19
916.782	5337.52
916.959	5022.13
917.137	4884.92
917.314	5306.8
917.492	5480.88
917.669	5083.57
917.847	5030.32
918.024	5274.03
918.201	4956.6
918.379	4821.43
918.556	4708.79
918.733	5390.77
918.911	5192.11
919.088	5085.62
919.265	4774.33
919.442	5163.44
919.62	4991.41
919.797	4692.41
919.974	4800.95
920.151	5128.63
920.328	5233.07
920.506	4729.27
920.683	5063.09
920.86	4868.53
921.037	4921.78
921.214	4882.87
921.391	4805.05
921.568	5202.35
921.745	4878.77
921.922	4889.01
922.099	4762.04
922.276	5278.13
922.453	5122.48
922.63	4694.46
922.807	5114.29
922.984	4927.92
923.161	4628.92
923.338	4635.07
923.514	4604.35
923.691	4831.67
923.868	5048.75
924.045	4553.15
924.222	4692.41
924.399	5020.08
924.575	5085.62
924.752	4856.25
924.929	4757.94
925.105	4942.26
925.282	4628.92
925.459	4592.06
925.635	4721.08
925.812	4782.52
925.989	4747.7
926.165	4651.45
926.342	4532.67
926.518	4389.31
926.695	4866.49
926.871	4479.42
927.048	4303.29
927.224	4901.3
927.401	4698.55
927.577	4547
927.754	4356.54
927.93	4817.33
928.107	4843.96
928.283	4235.71
928.459	4630.97
928.636	4727.22
928.812	4460.99
928.988	4121.03
929.165	4121.03
929.341	4612.54
929.517	4626.87
929.693	4665.78
929.87	4045.25
930.046	4508.09
930.222	4377.02
930.398	4211.14
930.574	4180.42
930.751	4360.64
930.927	4397.5
931.103	4170.18
931.279	4053.44
931.455	4225.47
931.631	4393.4
931.807	3977.67
931.983	3944.9
932.159	3862.98
932.335	4221.38
932.511	4051.39
932.687	3959.24
932.863	4336.06
933.039	4360.64
933.215	3682.76
933.391	3693
933.566	4082.11
933.742	4125.12
933.918	3817.93
934.094	3625.42
934.27	3971.52
934.445	4061.63
934.621	3809.73
934.797	3514.83
934.973	4012.48
935.148	3926.47
935.324	3486.15
935.5	3285.45
935.675	4024.77
935.851	3883.46
936.027	3502.54
936.202	3428.81
936.378	3545.55
936.553	3408.33
936.729	3672.52
936.904	3039.7
937.08	3084.75
937.255	3193.3
937.431	3099.09
937.606	2818.52
937.782	3066.32
937.957	3088.85
938.133	2990.55
938.308	2812.37
938.483	3000.79
938.659	2818.52
938.834	2798.04
939.009	2687.45
939.185	2992.59
939.36	2705.88
939.535	2306.52
939.71	2795.99
939.886	3082.7
940.061	2916.82
940.236	2609.62
940.411	2482.65
940.586	2976.21
940.761	2814.42
940.937	2464.22
941.112	2279.9
941.287	2726.36
941.462	2478.55
941.637	2230.75
941.812	2279.9
941.987	2617.82
942.162	2628.06
942.337	2337.24
942.512	2374.11
942.687	2775.51
942.862	2527.71
943.037	1948.13
943.212	1923.55
943.386	2441.69
943.561	2515.42
943.736	2318.81
943.911	2492.89
944.086	2583
944.26	2458.07
944.435	2255.33
944.61	2341.34
944.785	2619.86
944.959	2851.28
945.134	2234.85
945.309	2052.58
945.483	2208.22
945.658	2642.39
945.833	1880.55
946.007	2073.06
946.182	2914.77
946.357	2167.26
946.531	2105.82
946.706	2099.68
946.88	2046.43
947.055	2517.47
947.229	2064.86
947.404	2109.92
947.578	2763.22
947.752	2320.86
947.927	2066.91
948.101	2017.76
948.276	2466.27
948.45	2603.48
948.624	2421.21
948.799	2089.44
948.973	2539.99
949.147	2247.13
949.321	2300.38
949.496	2095.58
949.67	2732.5
949.844	2417.12
950.018	2310.62
950.193	2269.66
950.367	2845.14
950.541	2492.89
950.715	2421.21
950.889	2560.47
951.063	2388.44
951.237	2677.21
951.411	2187.74
951.585	2159.07
951.759	2683.35
951.933	2400.73
952.107	2226.65
952.281	2486.75
952.455	2949.59
952.629	2777.56
952.803	2257.37
952.977	2255.33
953.151	2791.89
953.325	2746.84
953.499	2521.56
953.672	2290.14
953.846	2486.75
954.02	2675.16
954.194	2269.66
954.368	2318.81
954.541	2931.16
954.715	2509.27
954.889	2415.07
955.062	2353.63
955.236	2738.65
955.41	2492.89
955.583	2613.72
955.757	2347.48
955.93	2687.45
956.104	2449.88
956.278	2472.41
956.451	2546.14
956.625	2906.58
956.798	3164.62
956.972	2734.55
957.145	2374.11
957.319	2787.8
957.492	2630.1
957.665	2578.9
957.839	2441.69
958.012	2847.19
958.185	2603.48
958.359	2392.54
958.532	2601.43
958.705	2828.76
958.879	2718.17
959.052	2652.63
959.225	2376.16
959.398	2664.92
959.572	2863.57
959.745	2392.54
959.918	2533.85
960.091	2718.17
960.264	2859.48
960.438	2357.72
960.611	2398.68
960.784	2843.09
960.957	2632.15
961.13	2910.68
961.303	2468.31
961.476	2666.97
961.649	2847.19
961.822	2261.47
961.995	2480.6
962.168	2767.32
962.341	2730.45
962.514	2445.79
962.686	2402.78
962.859	2761.17
963.032	2791.89
963.205	2472.41
963.378	2271.71
963.551	2947.54
963.723	2738.65
963.896	2677.21
964.069	2656.73
964.242	2707.93
964.414	2933.2
964.587	2347.48
964.76	2521.56
964.932	2730.45
965.105	2562.52
965.278	2294.24
965.45	2382.3
965.623	2761.17
965.795	2828.76
965.968	2560.47
966.14	2423.26
966.313	2607.58
966.485	2669.02
966.658	2449.88
966.83	2349.53
967.003	2857.43
967.175	2890.2
967.348	2361.82
967.52	2349.53
967.692	3133.9
967.865	2802.13
968.037	2386.4
968.209	2654.68
968.382	2679.26
968.554	2826.71
968.726	2423.26
968.898	2310.62
969.071	2482.65
969.243	2832.85
969.415	2462.17
969.587	2472.41
969.759	2976.21
969.932	2734.55
970.104	2341.34
970.276	1989.09
970.448	2507.23
970.62	2470.36
970.792	2451.93
970.964	2410.97
971.136	3072.47
971.308	2642.39
971.48	2243.04
971.652	2392.54
971.824	2894.29
971.996	2359.77
972.168	2388.44
972.339	2382.3
972.511	2716.12
972.683	2415.07
972.855	2578.9
973.027	2382.3
973.199	2447.83
973.37	2705.88
973.542	2443.74
973.714	2394.59
973.886	2531.8
974.057	2689.49
974.229	2202.08
974.401	2296.28
974.572	2308.57
974.744	2079.2
974.915	2161.12
975.087	2228.7
975.259	2767.32
975.43	2468.31
975.602	2087.39
975.773	2081.25
975.945	2290.14
976.116	2759.13
976.288	2105.82
976.459	2404.83
976.63	2421.21
976.802	2572.76
976.973	2138.59
977.145	2388.44
977.316	3019.22
977.487	2370.01
977.659	2288.09
977.83	2058.72
978.001	2709.97
978.172	2398.68
978.344	1989.09
978.515	2218.46
978.686	2378.2
978.857	2709.97
979.028	2181.6
979.2	1958.37
979.371	2554.33
979.542	2308.57
979.713	2251.23
979.884	1821.16
980.055	2234.85
980.226	2294.24
980.397	2114.02
980.568	1976.8
980.739	2599.38
980.91	2216.41
981.081	2152.93
981.252	2062.82
981.423	2333.15
981.594	2542.04
981.765	2089.44
981.936	2095.58
982.106	2228.7
982.277	2456.03
982.448	1929.7
982.619	2122.21
982.79	2118.11
982.96	2488.79
983.131	2089.44
983.302	1792.48
983.472	2128.35
983.643	2263.52
983.814	2128.35
983.984	2066.91
984.155	2132.45
984.326	2335.2
984.496	1950.18
984.667	1956.32
984.837	2134.5
985.008	2488.79
985.178	2255.33
985.349	1878.5
985.519	2253.28
985.69	2013.67
985.86	1817.06
986.031	1800.68
986.201	2132.45
986.371	2193.89
986.542	1745.38
986.712	1583.59
986.882	2157.02
987.053	2197.98
987.223	1704.42
987.393	1858.02
987.563	2034.14
987.734	2191.84
987.904	2284
988.074	1800.68
988.244	1982.95
988.414	1767.91
988.585	1645.03
988.755	1886.69
988.925	1997.28
989.095	2316.76
989.265	1628.65
989.435	1786.34
989.605	2105.82
989.775	2021.86
989.945	2007.52
990.115	1706.47
990.285	1860.07
990.455	1941.99
990.625	1806.82
990.795	1563.11
990.965	2306.52
991.134	1698.28
991.304	1563.11
991.474	1685.99
991.644	1997.28
991.814	2292.19
991.984	1491.43
992.153	1436.14
992.323	1776.1
992.493	1812.96
992.662	1415.66
992.832	1735.14
993.002	1849.83
993.171	1898.98
993.341	1358.32
993.511	1761.77
993.68	1712.61
993.85	1817.06
994.019	1296.88
994.189	1409.51
994.358	1739.24
994.528	1628.65
994.697	1130.99
994.867	1366.51
995.036	1919.46
995.206	1622.5
995.375	1305.07
995.544	1632.74
995.714	1812.96
995.883	1573.35
996.052	1608.17
996.222	1346.03
996.391	2202.08
996.56	1692.13
996.73	1292.78
996.899	1157.61
997.068	2042.34
997.237	1653.22
997.406	1411.56
997.576	1241.58
997.745	1866.21
997.914	1759.72
998.083	1204.72
998.252	1303.02
998.421	1602.02
998.59	1483.24
998.759	1268.2
998.928	1161.71
999.097	1982.95
999.266	1700.33
999.435	1542.63
999.604	1212.91
999.773	2124.26
999.942	1540.58
1000.111	1219.05
1000.28	1145.33
1000.448	1452.52
1000.617	1317.36
1000.786	1333.74
1000.955	1190.38
1001.124	1626.6
1001.292	2251.23
1001.461	1206.77
1001.63	1190.38
1001.798	1886.69
1001.967	1817.06
1002.136	1122.8
1002.304	1055.22
1002.473	1591.78
1002.642	1608.17
1002.81	1270.25
1002.979	1174
1003.147	1649.13
1003.316	1976.8
1003.484	1157.61
1003.653	1018.35
1003.821	1761.77
1003.99	1399.27
1004.158	1274.35
1004.327	1190.38
1004.495	1540.58
1004.663	1251.82
1004.832	1268.2
1005	956.91
1005.168	1626.6
1005.337	1524.2
1005.505	860.66
1005.673	1188.33
1005.842	1497.58
1006.01	1477.1
1006.178	934.39
1006.346	989.68
1006.514	1421.8
1006.683	1563.11
1006.851	995.82
1007.019	1096.18
1007.187	1087.98
1007.355	827.89
1007.523	674.29
1007.691	825.84
1007.859	1024.5
1008.027	1587.69
1008.195	1018.35
1008.363	768.5
1008.531	1513.96
1008.699	1120.75
1008.867	885.23
1009.035	881.14
1009.203	1591.78
1009.37	1274.35
1009.538	979.44
1009.706	1329.64
1009.874	1231.34
1010.042	1202.67
1010.209	825.84
1010.377	815.6
1010.545	1440.23
1010.713	1305.07
1010.88	948.72
1011.048	891.38
1011.216	1102.32
1011.383	1475.05
1011.551	657.91
1011.718	772.6
1011.886	1391.08
1012.054	1163.76
1012.221	766.45
1012.389	696.82
1012.556	1040.88
1012.724	1464.81
1012.891	874.99
1013.058	563.7
1013.226	1268.2
1013.393	1300.97
1013.561	637.43
1013.728	598.52
1013.895	1255.92
1014.063	1311.21
1014.23	520.7
1014.397	686.58
1014.565	1305.07
1014.732	1001.97
1014.899	707.06
1015.066	612.85
1015.233	1124.85
1015.401	1317.36
1015.568	731.64
1015.735	840.18
1015.902	1130.99
1016.069	1178.09
1016.236	690.68
1016.403	614.9
1016.57	893.43
1016.737	1237.49
1016.904	682.49
1017.071	592.37
1017.238	801.27
1017.405	1276.4
1017.572	670.2
1017.739	870.9
1017.906	1098.22
1018.073	1225.2
1018.24	575.99
1018.407	760.31
1018.573	1282.54
1018.74	932.34
1018.907	686.58
1019.074	502.26
1019.241	1161.71
1019.407	946.67
1019.574	553.46
1019.741	403.96
1019.907	979.44
1020.074	1042.93
1020.241	330.23
1020.407	453.11
1020.574	1001.97
1020.74	1034.74
1020.907	487.93
1021.073	465.4
1021.24	1407.47
1021.406	1300.97
1021.573	444.92
1021.739	393.72
1021.906	1083.89
1022.072	850.42
1022.239	434.68
1022.405	557.56
1022.571	891.38
1022.738	700.92
1022.904	506.36
1023.07	451.07
1023.237	795.12
1023.403	1194.48
1023.569	440.83
1023.735	432.63
1023.902	924.15
1024.068	866.8
1024.234	401.91
1024.4	416.25
1024.566	928.24
1024.732	1061.36
1024.898	418.3
1025.065	281.08
1025.231	936.43
1025.397	780.79
1025.563	369.15
1025.729	344.57
1025.895	305.66
1026.061	674.29
1026.227	305.66
1026.392	354.81
1026.558	1047.02
1026.724	829.94
1026.89	293.37
1027.056	481.78
1027.222	842.23
1027.388	768.5
1027.553	346.62
1027.719	381.43
1027.885	1165.81
1028.051	907.76
1028.216	150.01
1028.382	461.3
1028.548	958.96
1028.713	629.24
1028.879	270.84
1029.045	551.42
1029.21	1081.84
1029.376	1010.16
1029.541	391.67
1029.707	360.95
1029.873	936.43
1030.038	967.15
1030.204	344.57
1030.369	416.25
1030.534	887.28
1030.7	629.24
1030.865	416.25
1031.031	258.56
1031.196	827.89
1031.361	729.59
1031.527	250.36
1031.692	201.21
1031.857	320
1032.023	940.53
1032.188	199.16
1032.353	369.15
1032.518	969.2
1032.684	766.45
1032.849	211.45
1033.014	295.42
1033.179	823.8
1033.344	803.32
1033.509	371.19
1033.674	309.76
1033.839	858.61
1034.004	895.47
1034.17	354.81
1034.335	215.55
1034.5	631.29
1034.664	526.84
1034.829	199.16
1034.994	283.13
1035.159	692.73
1035.324	715.25
1035.489	264.7
1035.654	231.93
1035.819	940.53
1035.984	809.46
1036.148	342.52
1036.313	281.08
1036.478	932.34
1036.643	666.1
1036.807	166.4
1036.972	238.08
1037.137	840.18
1037.301	692.73
1037.466	121.34
1037.631	320
1037.795	958.96
1037.96	688.63
1038.124	369.15
1038.289	166.4
1038.454	827.89
1038.618	727.54
1038.783	274.94
1038.947	301.56
1039.111	713.21
1039.276	528.89
1039.44	211.45
1039.605	672.25
1039.769	539.13
1039.933	559.61
1040.098	289.28
1040.262	393.72
1040.426	809.46
1040.591	723.44
1040.755	150.01
1040.919	307.71
1041.083	719.35
1041.248	645.62
1041.412	23.04
1041.576	154.11
1041.74	551.42
1041.904	784.88
1042.068	166.4
1042.232	236.03
1042.397	817.65
1042.561	604.66
1042.725	-77.31
1042.889	264.7
1043.053	774.64
1043.217	715.25
1043.381	262.65
1043.544	90.62
1043.708	879.09
1043.872	363
1044.036	-15.87
1044.2	41.47
1044.364	750.07
1044.528	868.85
1044.691	5118.39
1044.855	41.47
1045.019	795.12
1045.183	727.54
1045.346	254.46
1045.51	33.28
1045.674	768.5
1045.837	647.67
1046.001	152.06
1046.165	123.39
1046.328	1059.31
1046.492	557.56
1046.655	336.38
1046.819	223.74
1046.983	377.34
1047.146	606.71
1047.31	223.74
1047.473	-15.87
1047.636	575.99
1047.8	391.67
1047.963	150.01
1048.127	76.29
1048.29	311.8
