Data from Hydrogel_Ink_Intensity_Test_1_USB4F045381__72__00072.txt Node

Date: Mon Jul 31 10:55:28 EDT 2023
User: mmckonesweet
Spectrometer: USB4F04538
Trigger mode: 4
Integration Time (sec): 9.000000E-1
Scans to average: 1
Electric dark correction enabled: true
Nonlinearity correction enabled: false
Boxcar width: 0
XAxis mode: Wavelengths
Number of Pixels in Spectrum: 3648
>>>>>Begin Spectral Data<<<<<
345.52	-990.36
345.736	-990.36
345.952	-990.36
346.168	-1031.32
346.384	-1027.23
346.6	-179.37
346.816	-185.51
347.032	-253.09
347.248	342.86
347.464	-289.96
347.68	-113.83
347.896	99.16
348.112	447.31
348.328	-87.21
348.544	-76.97
348.76	66.39
348.975	230.23
349.191	-310.44
349.407	-183.46
349.623	78.68
349.839	-48.3
350.055	-142.5
350.27	86.87
350.486	99.16
350.702	363.34
350.918	258.9
351.133	-105.64
351.349	258.9
351.565	455.5
351.781	-216.23
351.996	-9.39
352.212	375.63
352.428	-148.65
352.644	-162.98
352.859	-195.75
353.075	232.27
353.291	-33.96
353.506	-124.07
353.722	-257.19
353.938	11.09
354.153	369.49
354.369	107.35
354.584	-173.22
354.8	240.47
355.016	-349.35
355.231	-128.17
355.447	-146.6
355.662	222.03
355.878	881.48
356.093	-375.97
356.309	-29.87
356.524	-146.6
356.74	238.42
356.955	-236.71
357.171	-91.31
357.386	176.98
357.602	-306.34
357.817	-27.82
358.033	-117.93
358.248	383.82
358.464	217.94
358.679	-232.62
358.895	-330.92
359.11	-85.16
359.325	336.72
359.541	230.23
359.756	-1.19
359.972	-189.61
360.187	209.75
360.402	-150.7
360.618	-224.42
360.833	1030.98
361.048	277.33
361.264	-117.93
361.479	-64.68
361.694	-3.24
361.909	244.56
362.125	-177.32
362.34	-87.21
362.555	334.67
362.77	170.83
362.986	-281.77
363.201	-124.07
363.416	179.03
363.631	72.53
363.847	-210.09
364.062	-173.22
364.277	152.4
364.492	113.49
364.707	-85.16
364.922	-380.07
365.138	271.19
365.353	275.28
365.568	-183.46
365.783	-167.08
365.998	41.81
366.213	598.86
366.428	-216.23
366.643	23.38
366.858	260.95
367.073	283.47
367.288	-132.26
367.503	-158.89
367.718	131.92
367.933	379.73
368.148	-320.68
368.363	-85.16
368.578	-27.82
368.793	490.32
369.008	-122.02
369.223	-205.99
369.438	226.13
369.653	410.45
369.868	-273.57
370.083	-271.53
370.298	193.36
370.513	361.3
370.728	35.67
370.943	-175.27
371.157	-208.04
371.372	480.08
371.587	-230.57
371.802	-224.42
372.017	84.82
372.232	455.5
372.446	-101.55
372.661	-263.33
372.876	267.09
373.091	146.26
373.306	-158.89
373.52	-236.71
373.735	-150.7
373.95	469.84
374.165	-126.12
374.379	-150.7
374.594	-101.55
374.809	127.83
375.023	70.48
375.238	-210.09
375.453	275.28
375.667	-257.19
375.882	-117.93
376.097	-165.03
376.311	13.14
376.526	136.02
376.741	-210.09
376.955	136.02
377.17	582.48
377.384	617.29
377.599	-105.64
377.813	-287.91
378.028	590.67
378.242	234.32
378.457	-101.55
378.672	-257.19
378.886	105.3
379.101	39.76
379.315	-253.09
379.53	-179.37
379.744	254.8
379.958	271.19
380.173	-138.41
380.387	-171.18
380.602	209.75
380.816	-109.74
381.031	-85.16
381.245	-85.16
381.459	185.17
381.674	2728.75
381.888	-130.22
382.103	103.25
382.317	-44.2
382.531	523.09
382.746	-48.3
382.96	-109.74
383.174	-70.83
383.388	430.93
383.603	64.34
383.817	-257.19
384.031	146.26
384.246	500.56
384.46	45.91
384.674	432.97
384.888	64.34
385.103	58.2
385.317	-185.51
385.531	-3.24
385.745	365.39
385.959	432.97
386.174	-214.18
386.388	-242.85
386.602	39.76
386.816	-119.98
387.03	-38.06
387.244	-85.16
387.458	168.79
387.672	377.68
387.887	-271.53
388.101	-306.34
388.315	332.62
388.529	154.45
388.743	-60.59
388.957	-222.38
389.171	424.78
389.385	-150.7
389.599	-60.59
389.813	74.58
390.027	164.69
390.241	648.01
390.455	-66.73
390.669	-15.53
390.883	15.19
391.097	553.8
391.311	74.58
391.525	-126.12
391.738	279.38
391.952	267.09
392.166	58.2
392.38	-152.74
392.594	439.12
392.808	381.78
393.022	-68.78
393.236	-70.83
393.449	283.47
393.663	222.03
393.877	-244.9
394.091	-3.24
394.305	4.95
394.518	-58.54
394.732	-205.99
394.946	-97.45
395.16	602.96
395.373	152.4
395.587	-257.19
395.801	-150.7
396.015	299.86
396.228	293.71
396.442	-224.42
396.656	-257.19
396.869	410.45
397.083	488.27
397.297	21.33
397.51	-58.54
397.724	418.64
397.938	164.69
398.151	-224.42
398.365	-249
398.578	320.34
398.792	387.92
399.005	9.05
399.219	-68.78
399.433	217.94
399.646	271.19
399.86	17.24
400.073	47.96
400.287	289.62
400.5	64.34
400.714	90.96
400.927	-25.77
401.141	308.05
401.354	1100.61
401.567	238.42
401.781	-154.79
401.994	303.95
402.208	650.06
402.421	-81.07
402.635	-117.93
402.848	41.81
403.061	344.91
403.275	45.91
403.488	-242.85
403.701	586.57
403.915	297.81
404.128	131.92
404.341	-56.49
404.555	289.62
404.768	68.44
404.981	-9.39
405.195	-76.97
405.408	621.39
405.621	361.3
405.834	136.02
406.048	-175.27
406.261	447.31
406.474	510.8
406.687	-113.83
406.9	111.44
407.114	111.44
407.327	383.82
407.54	-222.38
407.753	-205.99
407.966	-50.35
408.179	328.53
408.392	-117.93
408.605	-191.66
408.819	326.48
409.032	389.97
409.245	-48.3
409.458	37.72
409.671	279.38
409.884	408.4
410.097	-158.89
410.31	82.77
410.523	260.95
410.736	136.02
410.949	-7.34
411.162	-44.2
411.375	512.85
411.588	418.64
411.801	144.21
412.014	-150.7
412.227	125.78
412.44	99.16
412.653	-50.35
412.865	185.17
413.078	455.5
413.291	392.02
413.504	33.62
413.717	-122.02
413.93	340.82
414.143	-9.39
414.356	-44.2
414.568	-195.75
414.781	334.67
414.994	283.47
415.207	76.63
415.42	70.48
415.632	375.63
415.845	652.11
416.058	-52.39
416.271	-216.23
416.483	162.64
416.696	656.2
416.909	-36.01
417.121	-109.74
417.334	250.71
417.547	572.24
417.759	-109.74
417.972	-169.13
418.185	80.72
418.397	398.16
418.61	-74.92
418.823	-130.22
419.035	545.61
419.248	205.65
419.46	62.29
419.673	97.11
419.885	402.26
420.098	105.3
420.311	-15.53
420.523	-249
420.736	334.67
420.948	228.18
421.161	31.57
421.373	-232.62
421.586	219.99
421.798	76.63
422.01	-212.14
422.223	99.16
422.435	111.44
422.648	389.97
422.86	-27.82
423.073	-93.35
423.285	480.08
423.497	-64.68
423.71	-36.01
423.922	-68.78
424.134	332.62
424.347	590.67
424.559	189.27
424.771	279.38
424.984	117.59
425.196	342.86
425.408	-255.14
425.621	-150.7
425.833	494.41
426.045	512.85
426.257	-87.21
426.47	-52.39
426.682	353.1
426.894	367.44
427.106	66.39
427.318	45.91
427.531	41.81
427.743	377.68
427.955	50
428.167	441.17
428.379	324.43
428.591	203.6
428.804	70.48
429.016	43.86
429.228	172.88
429.44	400.21
429.652	205.65
429.864	-83.11
430.076	289.62
430.288	236.37
430.5	29.52
430.712	90.96
430.924	518.99
431.136	406.35
431.348	-128.17
431.56	11.09
431.772	291.66
431.984	158.55
432.196	70.48
432.408	2.9
432.62	162.64
432.832	344.91
433.044	365.39
433.256	150.36
433.468	435.02
433.679	-85.16
433.891	-81.07
434.103	295.76
434.315	592.72
434.527	441.17
434.739	103.25
434.95	90.96
435.162	570.19
435.374	103.25
435.586	86.87
435.798	-21.67
436.009	60.24
436.221	222.03
436.433	103.25
436.645	52.05
436.856	213.84
437.068	533.33
437.28	-9.39
437.491	336.72
437.703	537.42
437.915	299.86
438.126	107.35
438.338	349.01
438.55	312.14
438.761	447.31
438.973	144.21
439.184	111.44
439.396	291.66
439.608	553.8
439.819	-83.11
440.031	162.64
440.242	465.74
440.454	588.62
440.665	78.68
440.877	189.27
441.088	463.69
441.3	267.09
441.511	-40.11
441.723	58.2
441.934	312.14
442.146	369.49
442.357	262.99
442.569	455.5
442.78	414.54
442.991	754.51
443.203	469.84
443.414	133.97
443.626	701.26
443.837	166.74
444.048	13.14
444.26	-27.82
444.471	392.02
444.682	549.71
444.894	-56.49
445.105	-72.87
445.316	611.15
445.528	535.37
445.739	250.71
445.95	213.84
446.161	430.93
446.373	600.91
446.584	136.02
446.795	129.88
447.006	582.48
447.217	701.26
447.429	25.43
447.64	78.68
447.851	764.75
448.062	353.1
448.273	-74.92
448.484	144.21
448.695	484.17
448.907	328.53
449.118	254.8
449.329	349.01
449.54	332.62
449.751	285.52
449.962	168.79
450.173	115.54
450.384	711.5
450.595	777.03
450.806	215.89
451.017	170.83
451.228	766.79
451.439	615.24
451.65	254.8
451.861	-23.72
452.072	138.07
452.283	353.1
452.494	353.1
452.705	195.41
452.915	764.75
453.126	473.93
453.337	246.61
453.548	54.1
453.759	697.16
453.97	877.38
454.181	469.84
454.391	176.98
454.602	500.56
454.813	645.96
455.024	301.9
455.235	256.85
455.445	459.6
455.656	578.38
455.867	387.92
456.078	170.83
456.288	365.39
456.499	672.59
456.71	152.4
456.921	496.46
457.131	531.28
457.342	586.57
457.553	336.72
457.763	240.47
457.974	666.44
458.184	719.69
458.395	185.17
458.606	172.88
458.816	774.99
459.027	959.3
459.237	459.6
459.448	121.68
459.659	750.41
459.869	1051.46
460.08	78.68
460.29	443.21
460.501	963.4
460.711	383.82
460.922	203.6
461.132	277.33
461.343	1221.44
461.553	299.86
461.764	262.99
461.974	279.38
462.184	760.65
462.395	611.15
462.605	443.21
462.816	344.91
463.026	674.64
463.236	811.85
463.447	369.49
463.657	332.62
463.867	811.85
464.078	451.41
464.288	449.36
464.498	371.54
464.709	619.34
464.919	648.01
465.129	385.87
465.339	197.46
465.55	822.09
465.76	897.86
465.97	414.54
466.18	439.12
466.391	891.72
466.601	758.6
466.811	490.32
467.021	279.38
467.231	768.84
467.441	1055.56
467.651	508.75
467.862	234.32
468.072	670.54
468.282	1041.22
468.492	402.26
468.702	598.86
468.912	863.05
469.122	1364.8
469.332	848.71
469.542	469.84
469.752	1039.17
469.962	783.18
470.172	502.61
470.382	545.61
470.592	1061.7
470.802	1192.77
471.012	746.31
471.222	598.86
471.432	1055.56
471.642	1039.17
471.852	781.13
472.062	596.81
472.272	793.42
472.482	602.96
472.691	635.72
472.901	547.66
473.111	879.43
473.321	1514.3
473.531	639.82
473.741	717.64
473.95	1033.03
474.16	1106.76
474.37	865.1
474.58	602.96
474.79	1504.06
474.999	1237.83
475.209	709.45
475.419	709.45
475.628	953.16
475.838	1360.7
476.048	820.04
476.258	738.12
476.467	1342.27
476.677	932.68
476.886	969.54
477.096	844.62
477.306	883.53
477.515	1477.44
477.725	1012.55
477.935	955.21
478.144	1434.43
478.354	1035.08
478.563	983.88
478.773	881.48
478.982	1508.16
479.192	1403.71
479.401	1112.9
479.611	858.95
479.82	996.17
480.03	1340.22
480.239	961.35
480.449	908.1
480.658	1688.38
480.868	1160
481.077	1205.06
481.287	1020.74
481.496	1413.95
481.705	1723.2
481.915	1276.74
482.124	1276.74
482.333	1522.49
482.543	1770.3
482.752	1121.09
482.961	1182.53
483.171	1628.99
483.38	1565.5
483.589	1289.03
483.799	1106.76
484.008	1385.28
484.217	1635.13
484.426	1203.01
484.636	1088.32
484.845	1532.73
485.054	1149.76
485.263	1588.03
485.472	1258.31
485.682	1954.62
485.891	1692.48
486.1	1155.91
486.309	1291.07
486.518	1731.39
486.727	1850.17
486.936	1180.48
487.146	1426.24
487.355	2007.86
487.564	1452.86
487.773	1393.47
487.982	1368.9
488.191	1579.84
488.4	1807.16
488.609	1440.58
488.818	1438.53
489.027	2161.46
489.236	2040.63
489.445	1512.25
489.654	1444.67
489.863	2071.35
490.072	1710.91
490.281	1889.08
490.49	1667.9
490.698	2190.13
490.907	2143.03
491.116	1659.71
491.325	1536.83
491.534	2245.43
491.743	1966.9
491.952	1694.52
492.16	1653.56
492.369	2063.16
492.578	2204.47
492.787	1626.94
492.996	1489.73
493.204	1745.72
493.413	2487.09
493.622	1463.1
493.831	1473.34
494.039	2405.17
494.248	1866.55
494.457	1782.59
494.665	1647.42
494.874	2202.42
495.083	2552.62
495.291	1866.55
495.5	1684.28
495.709	2259.76
495.917	2083.64
496.126	1897.27
496.335	1782.59
496.543	2108.21
496.752	2327.35
496.96	2106.17
497.169	1833.79
497.377	2169.65
497.586	2292.53
497.794	1991.48
498.003	1635.13
498.211	2122.55
498.42	2448.18
498.628	1917.75
498.837	1893.18
499.045	2329.39
499.254	2317.11
499.462	1905.46
499.671	1919.8
499.879	2685.74
500.087	2407.22
500.296	1887.03
500.504	2063.16
500.713	2310.96
500.921	2927.4
501.129	2028.34
501.338	2036.53
501.546	2386.74
501.754	2454.32
501.962	2014.01
502.171	2054.97
502.379	2538.29
502.587	2679.6
502.795	2177.84
503.004	2183.99
503.212	2536.24
503.42	2577.2
503.628	2116.41
503.837	2292.53
504.045	2659.12
504.253	2900.78
504.461	2167.6
504.669	1999.67
504.877	2626.35
505.085	2872.11
505.294	2011.96
505.502	2437.94
505.71	2429.74
505.918	2665.26
506.126	2175.8
506.334	2093.88
506.542	2589.49
506.75	2579.25
506.958	2282.29
507.166	2239.28
507.374	2609.97
507.582	2990.89
507.79	2386.74
507.998	2231.09
508.206	2738.99
508.414	2681.64
508.622	2313.01
508.83	2290.48
509.037	2865.96
509.245	2601.77
509.453	2401.07
509.661	2118.45
509.869	2816.81
510.077	2550.57
510.285	2427.7
510.492	2136.88
510.7	3183.4
510.908	2618.16
511.116	2386.74
511.324	2419.5
511.531	2634.54
511.739	2724.65
511.947	2599.73
512.155	2734.89
512.362	2825
512.57	2499.38
512.778	2370.35
512.985	2210.61
513.193	3025.7
513.401	3257.12
513.608	2487.09
513.816	2413.36
514.024	2919.21
514.231	2994.98
514.439	2530.09
514.646	2523.95
514.854	3124.01
515.061	3097.38
515.269	2634.54
515.477	2489.14
515.684	2714.41
515.892	3146.53
516.099	2427.7
516.307	2507.57
516.514	3083.05
516.722	3142.44
516.929	2442.03
517.136	2638.64
517.344	3210.02
517.551	3011.37
517.759	2523.95
517.966	2714.41
518.173	2808.62
518.381	3040.04
518.588	2728.75
518.796	2685.74
519.003	3201.83
519.21	2851.63
519.418	2724.65
519.625	2947.88
519.832	2951.98
520.039	3146.53
520.247	2511.66
520.454	2796.33
520.661	3304.23
520.868	3109.67
521.076	2683.69
521.283	2806.57
521.49	3664.67
521.697	3167.01
521.904	2790.19
522.112	2833.19
522.319	3398.43
522.526	3236.64
522.733	2935.59
522.94	2745.13
523.147	3095.33
523.354	3359.52
523.561	2872.11
523.768	3025.7
523.975	3463.97
524.183	3169.06
524.39	2962.22
524.597	2704.17
524.804	3240.74
525.011	2894.63
525.218	2865.96
525.425	2978.6
525.632	3521.31
525.838	3064.61
526.045	2941.74
526.252	3037.99
526.459	4492.05
526.666	4035.35
526.873	2931.5
527.08	2937.64
527.287	3650.33
527.494	3488.54
527.701	2841.39
527.907	2835.24
528.114	3496.74
528.321	3332.9
528.528	3150.63
528.735	2999.08
528.941	3189.54
529.148	3066.66
529.355	3142.44
529.562	3154.73
529.768	3859.23
529.975	3308.32
530.182	3183.4
530.388	3111.72
530.595	3799.84
530.802	3167.01
531.008	3330.85
531.215	3050.28
531.422	4061.98
531.628	4274.96
531.835	3152.68
532.042	3263.27
532.248	3314.47
532.455	3539.74
532.661	3113.77
532.868	3257.12
533.074	3629.85
533.281	3789.6
533.487	3236.64
533.694	3117.86
533.9	3478.3
534.107	3623.71
534.313	3148.58
534.52	3046.18
534.726	3808.03
534.933	4154.13
535.139	3253.03
535.345	3289.89
535.552	3707.68
535.758	3586.85
535.965	3277.6
536.171	3353.38
536.377	3834.65
536.584	4117.27
536.79	3275.56
536.996	3527.46
537.203	3707.68
537.409	3842.84
537.615	3388.19
537.821	3599.13
538.028	3912.47
538.234	3889.95
538.44	3447.58
538.646	3504.93
538.853	3887.9
539.059	3754.78
539.265	3978.01
539.471	3144.49
539.677	4113.17
539.883	3724.06
540.09	3506.98
540.296	3898.14
540.502	3773.21
540.708	3638.05
540.914	3734.3
541.12	3515.17
541.326	4002.58
541.532	3891.99
541.738	3601.18
541.944	3717.92
542.15	4006.68
542.356	3803.93
542.562	3482.4
542.768	3707.68
542.974	4580.11
543.18	4354.83
543.386	3461.92
543.592	3439.39
543.798	4383.51
544.004	4258.58
544.21	3679.01
544.415	3808.03
544.621	4061.98
544.827	4266.77
545.033	3590.94
545.239	3971.86
545.445	3697.44
545.651	3996.44
545.856	3715.87
546.062	3717.92
546.268	3900.19
546.474	4049.69
546.679	3701.53
546.885	3795.74
547.091	4014.87
547.297	4559.63
547.502	3744.54
547.708	3732.25
547.914	4059.93
548.119	4213.53
548.325	3701.53
548.531	3511.07
548.736	4555.54
548.942	4002.58
549.147	3750.68
549.353	4039.45
549.559	4418.32
549.764	4244.24
549.97	3722.01
550.175	3685.15
550.381	4412.18
550.586	3912.47
550.792	3865.37
550.997	3810.08
551.203	4277.01
551.408	4444.95
551.614	3691.29
551.819	3801.88
552.025	4780.81
552.23	4694.8
552.435	4033.3
552.641	4231.96
552.846	4260.63
553.052	4668.17
553.257	4029.21
553.462	3941.15
553.668	4197.14
553.873	4434.71
554.078	3986.2
554.283	4027.16
554.489	4367.12
554.694	4344.6
554.899	3949.34
555.105	4199.19
555.31	4309.78
555.515	4631.31
555.72	4270.87
555.925	4018.97
556.131	4520.72
556.336	4174.61
556.541	4082.46
556.746	3900.19
556.951	4727.57
557.156	4907.79
557.361	4104.98
557.567	4172.57
557.772	4885.26
557.977	4463.38
558.182	4078.36
558.387	4109.08
558.592	4330.26
558.797	4793.1
559.002	4326.16
559.207	4291.35
559.412	4496.14
559.617	5051.14
559.822	4141.85
560.027	3920.67
560.232	4403.99
560.437	4776.72
560.642	4168.47
560.847	4250.39
561.051	4635.41
561.256	4670.22
561.461	4363.03
561.666	4127.51
561.871	4625.17
562.076	4809.48
562.281	4117.27
562.485	4037.4
562.69	4813.58
562.895	4850.44
563.1	4338.45
563.305	4281.11
563.509	4856.59
563.714	5145.35
563.919	4154.13
564.123	4430.61
564.328	4469.52
564.533	5016.33
564.737	4477.71
564.942	4399.89
565.147	5053.19
565.351	5135.11
565.556	4469.52
565.761	4360.98
565.965	4608.78
566.17	4487.95
566.374	4551.44
566.579	4371.22
566.784	4758.28
566.988	4772.62
567.193	4264.72
567.397	4377.36
567.602	4541.2
567.806	4680.46
568.011	4471.57
568.215	4557.58
568.42	4789
568.624	4666.13
568.828	4391.7
569.033	4723.47
569.237	5081.86
569.442	5034.76
569.646	4225.81
569.85	4338.45
570.055	4711.18
570.259	4881.16
570.463	4838.16
570.668	4502.29
570.872	4762.38
571.076	4825.87
571.281	4707.09
571.485	4723.47
571.689	4842.25
571.893	5135.11
572.098	4713.23
572.302	4567.82
572.506	4907.79
572.71	4887.31
572.914	4647.69
573.119	4645.65
573.323	5204.74
573.527	5151.49
573.731	4674.32
573.935	4569.87
574.139	5092.1
574.343	4799.24
574.547	4666.13
574.751	4610.83
574.955	5065.48
575.159	5192.45
575.364	4668.17
575.568	4641.55
575.772	5079.82
575.976	5319.43
576.18	4592.4
576.383	4651.79
576.587	5219.08
576.791	5088.01
576.995	4606.74
577.199	4666.13
577.403	5223.17
577.607	5341.96
577.811	4600.59
578.015	4915.98
578.219	5247.75
578.422	5321.48
578.626	4956.94
578.83	5092.1
579.034	5169.93
579.238	5182.21
579.442	4610.83
579.645	5204.74
579.849	5012.23
580.053	5159.69
580.257	4827.92
580.46	4920.07
580.664	5356.29
580.868	5282.56
581.071	4942.6
581.275	4950.79
581.479	5030.66
581.682	5272.32
581.886	4670.22
582.09	4920.07
582.293	5251.85
582.497	5321.48
582.7	5085.96
582.904	4954.89
583.107	5214.98
583.311	5118.73
583.515	4920.07
583.718	5149.45
583.922	5296.9
584.125	5724.93
584.329	4866.83
584.532	5047.05
584.735	5667.58
584.939	5325.57
585.142	4875.02
585.346	4641.55
585.549	5409.54
585.753	5165.83
585.956	5120.78
586.159	5137.16
586.363	5749.5
586.566	5436.16
586.769	4940.55
586.973	5057.29
587.176	5358.34
587.379	5718.78
587.582	5493.51
587.786	5235.46
587.989	5444.35
588.192	5911.29
588.395	5303.04
588.599	5640.96
588.802	5407.49
589.005	5655.3
589.208	4961.03
589.411	5118.73
589.615	5550.85
589.818	5894.91
590.021	5501.7
590.224	5415.68
590.427	5802.75
590.63	5921.53
590.833	5028.62
591.036	5073.67
591.239	5450.5
591.442	5387.01
591.645	5516.03
591.848	5276.42
592.051	5591.81
592.254	5796.6
592.457	5503.75
592.66	5266.18
592.863	5608.19
593.066	5569.28
593.269	5235.46
593.472	5407.49
593.675	5569.28
593.878	5808.89
594.081	5309.19
594.284	5415.68
594.486	5739.26
594.689	5614.34
594.892	5432.07
595.095	5389.06
595.298	5765.89
595.5	5667.58
595.703	5661.44
595.906	5677.82
596.109	6232.82
596.311	6001.4
596.514	5278.47
596.717	5460.74
596.92	5989.11
597.122	5667.58
597.325	5163.78
597.528	5409.54
597.73	5987.07
597.933	5686.01
598.136	5356.29
598.338	5108.49
598.541	5905.15
598.743	5939.96
598.946	5423.87
599.148	5675.77
599.351	6009.59
599.554	6193.91
599.756	5733.12
599.959	5534.46
600.161	6116.09
600.363	6439.67
600.566	5905.15
600.768	5475.07
600.971	6306.55
601.173	5841.66
601.376	5600
601.578	5587.71
601.78	6038.27
601.983	6583.02
602.185	5659.39
602.388	5874.43
602.59	5929.72
602.792	5735.17
602.995	5829.37
603.197	5464.83
603.399	6271.73
603.601	6116.09
603.804	5731.07
604.006	5589.76
604.208	5722.88
604.41	5556.99
604.613	5763.84
604.815	5331.72
605.017	6388.47
605.219	5769.98
605.421	6136.57
605.623	5675.77
605.826	6423.28
606.028	6210.29
606.23	5620.48
606.432	5638.91
606.634	6406.9
606.836	6353.65
607.038	5427.97
607.24	5804.8
607.442	5948.15
607.644	5980.92
607.846	5915.39
608.048	5542.66
608.25	6292.21
608.452	5741.31
608.654	5849.85
608.856	5522.18
609.058	6122.23
609.26	6068.98
609.462	5767.93
609.664	5829.37
609.866	6537.97
610.067	6111.99
610.269	5968.63
610.471	5886.72
610.673	5976.83
610.875	6310.65
611.077	5669.63
611.278	5870.33
611.48	6091.51
611.682	6542.07
611.884	5870.33
612.085	5849.85
612.287	5974.78
612.489	6271.73
612.69	5698.3
612.892	5692.16
613.094	6335.22
613.295	6204.15
613.497	5864.19
613.699	5538.56
613.9	6349.56
614.102	6329.08
614.304	5600
614.505	5630.72
614.707	6212.34
614.908	6064.89
615.11	5651.2
615.311	5939.96
615.513	6161.14
615.714	6394.61
615.916	5688.06
616.117	5858.04
616.319	6054.65
616.52	6255.35
616.722	5722.88
616.923	5980.92
617.124	6470.39
617.326	6337.27
617.527	5989.11
617.729	6077.18
617.93	6185.72
618.131	6212.34
618.333	5745.41
618.534	5767.93
618.735	5980.92
618.937	6617.84
619.138	5556.99
619.339	5784.32
619.54	6257.4
619.742	6226.68
619.943	5991.16
620.144	5894.91
620.345	6437.62
620.546	6320.88
620.748	5939.96
620.949	6007.55
621.15	6314.74
621.351	6220.53
621.552	5810.94
621.753	5712.64
621.954	5839.61
622.155	6623.98
622.356	5829.37
622.558	6062.84
622.759	6241.01
622.96	6591.22
623.161	5837.56
623.362	5841.66
623.563	6290.17
623.764	6279.93
623.965	6216.44
624.166	6206.2
624.366	6263.54
624.567	6355.7
624.768	5776.13
624.969	5935.87
625.17	6134.52
625.371	6370.04
625.572	6030.07
625.773	5817.08
625.973	6370.04
626.174	6472.43
626.375	6042.36
626.576	6034.17
626.777	6435.57
626.977	6757.1
627.178	6060.79
627.379	6134.52
627.58	6101.75
627.78	6181.62
627.981	5927.67
628.182	6157.05
628.382	6568.69
628.583	5782.27
628.784	5972.73
628.984	6210.29
629.185	6531.83
629.386	6392.56
629.586	6279.93
629.787	5964.54
629.987	6441.72
630.188	6183.67
630.388	5929.72
630.589	6185.72
630.79	6869.74
630.99	6339.32
631.191	6019.83
631.391	6015.74
631.591	6501.11
631.792	6691.57
631.992	6380.28
632.193	6138.62
632.393	6750.96
632.594	6406.9
632.794	5874.43
632.994	6181.62
633.195	6322.93
633.395	6259.45
633.595	6038.27
633.796	6238.97
633.996	6066.94
634.196	6533.87
634.397	5987.07
634.597	6265.59
634.797	6236.92
634.997	6890.22
635.198	6445.81
635.398	5890.81
635.598	6546.16
635.798	6697.71
635.998	6490.87
636.199	5993.21
636.399	6318.84
636.599	6384.37
636.799	6116.09
636.999	6210.29
637.199	6542.07
637.399	6623.98
637.599	6132.47
637.799	6281.97
637.999	6267.64
638.199	6728.43
638.399	6075.13
638.599	6195.96
638.799	6609.65
638.999	6939.37
639.199	6312.69
639.399	6312.69
639.599	6804.21
639.799	6322.93
639.999	6220.53
640.199	6023.93
640.399	6464.24
640.599	6617.84
640.799	6320.88
640.998	6333.17
641.198	6570.74
641.398	6640.37
641.598	6228.73
641.798	6288.12
641.997	7496.42
642.197	6644.46
642.397	6550.26
642.597	6300.41
642.796	6644.46
642.996	6775.53
643.196	6415.09
643.395	6034.17
643.595	6693.62
643.795	6124.28
643.994	6308.6
644.194	6361.84
644.394	6607.6
644.593	6431.48
644.793	6159.1
644.992	6591.22
645.192	6669.04
645.392	6200.05
645.591	6509.3
645.791	6454
645.99	6681.33
646.19	6671.09
646.389	6286.07
646.589	6382.32
646.788	6566.64
646.987	6554.35
647.187	6640.37
647.386	6761.2
647.586	6623.98
647.785	6746.86
647.984	6288.12
648.184	6460.15
648.383	6404.85
648.582	6494.96
648.782	6331.12
648.981	6396.66
649.18	6353.65
649.38	6697.71
649.579	6294.26
649.778	6214.39
649.977	6755.05
650.177	6757.1
650.376	6279.93
650.575	6189.81
650.774	7033.58
650.973	6527.73
651.173	6066.94
651.372	6421.24
651.571	6675.18
651.77	6939.37
651.969	6206.2
652.168	6568.69
652.367	6458.1
652.566	6695.66
652.765	6411
652.964	6621.94
653.163	6963.95
653.362	6497.01
653.561	6408.95
653.76	6429.43
653.959	6695.66
654.158	6865.64
654.357	6609.65
654.556	6413.04
654.755	6945.52
654.954	6820.59
655.153	6554.35
655.352	6540.02
655.551	7172.84
655.749	6468.34
655.948	6376.18
656.147	6734.57
656.346	6916.84
656.545	6603.5
656.743	6574.83
656.942	6726.38
657.141	6687.47
657.34	6691.57
657.538	6548.21
657.737	6411
657.936	6580.98
658.135	6836.97
658.333	6415.09
658.532	6738.67
658.731	7172.84
658.929	7013.1
659.128	6750.96
659.326	6275.83
659.525	7162.6
659.724	6810.35
659.922	6257.4
660.121	6511.35
660.319	6841.07
660.518	6509.3
660.716	6419.19
660.915	6238.97
661.113	7035.63
661.312	6503.15
661.51	6484.72
661.709	6386.42
661.907	6859.5
662.105	7133.93
662.304	6562.55
662.502	6644.46
662.701	6959.85
662.899	6703.86
663.097	6945.52
663.296	6363.89
663.494	6982.38
663.692	7146.22
663.891	6648.56
664.089	6591.22
664.287	6978.28
664.485	7166.7
664.684	6478.58
664.882	6771.44
665.08	6861.55
665.278	6806.25
665.476	6537.97
665.675	6697.71
665.873	7437.03
666.071	7240.42
666.269	6613.74
666.467	6767.34
666.665	6740.72
666.863	6759.15
667.061	6662.9
667.259	6406.9
667.457	6836.97
667.655	7013.1
667.853	6476.53
668.051	6705.9
668.249	6595.31
668.447	6845.16
668.645	6396.66
668.843	6937.32
669.041	6896.36
669.239	6611.7
669.437	6793.97
669.635	6781.68
669.833	6912.75
670.031	7017.19
670.229	6560.5
670.426	6748.91
670.624	6730.48
670.822	6787.82
671.02	6566.64
671.218	6703.86
671.415	6535.92
671.613	6982.38
671.811	6744.81
672.009	6640.37
672.206	7031.53
672.404	6963.95
672.602	6789.87
672.799	6744.81
672.997	6955.76
673.195	7158.5
673.392	6771.44
673.59	6578.93
673.788	6982.38
673.985	6226.68
674.183	6546.16
674.38	6560.5
674.578	6910.7
674.775	6505.2
674.973	6267.64
675.17	6554.35
675.368	7041.77
675.565	6904.56
675.763	6544.11
675.96	6472.43
676.158	7109.35
676.355	6689.52
676.553	6583.02
676.75	6759.15
676.947	6808.3
677.145	6697.71
677.342	6640.37
677.539	6642.42
677.737	6976.23
677.934	7189.22
678.131	6726.38
678.329	6398.71
678.526	7320.29
678.723	7011.05
678.92	6597.36
679.118	6603.5
679.315	6681.33
679.512	7131.88
679.709	6550.26
679.906	6638.32
680.104	6789.87
680.301	6601.46
680.498	6308.6
680.695	6220.53
680.892	6443.76
681.089	6634.22
681.286	6644.46
681.483	6241.01
681.68	6765.29
681.877	6834.93
682.075	6593.26
682.272	6632.18
682.469	6750.96
682.665	6664.94
682.862	6181.62
683.059	6390.52
683.256	6732.53
683.453	6580.98
683.65	6587.12
683.847	6570.74
684.044	6648.56
684.241	6615.79
684.438	6578.93
684.635	6286.07
684.831	6918.89
685.028	7037.67
685.225	6392.56
685.422	6447.86
685.619	6634.22
685.815	6642.42
686.012	6327.03
686.209	6370.04
686.405	6398.71
686.602	6738.67
686.799	6281.97
686.996	6296.31
687.192	6435.57
687.389	7060.2
687.586	6361.84
687.782	6439.67
687.979	7066.35
688.175	6927.08
688.372	6386.42
688.568	6376.18
688.765	6314.74
688.962	6906.6
689.158	6454
689.355	6097.66
689.551	6755.05
689.748	6419.19
689.944	6431.48
690.14	6169.34
690.337	6750.96
690.533	6472.43
690.73	6535.92
690.926	6431.48
691.123	6656.75
691.319	6474.48
691.515	6310.65
691.712	6623.98
691.908	6503.15
692.104	6443.76
692.301	6544.11
692.497	6052.6
692.693	6744.81
692.889	6744.81
693.086	6284.02
693.282	5980.92
693.478	6617.84
693.674	7041.77
693.87	6320.88
694.067	6134.52
694.263	6695.66
694.459	6570.74
694.655	6443.76
694.851	6345.46
695.047	6628.08
695.243	6658.8
695.439	6324.98
695.635	6298.36
695.831	6605.55
696.027	6601.46
696.224	6247.16
696.42	6793.97
696.615	6777.58
696.811	6646.51
697.007	6187.77
697.203	6241.01
697.399	6370.04
697.595	6791.92
697.791	6085.37
697.987	6267.64
698.183	6218.49
698.379	6507.25
698.575	6374.13
698.77	6304.5
698.966	6630.13
699.162	6595.31
699.358	6288.12
699.554	6003.45
699.749	6570.74
699.945	6533.87
700.141	6406.9
700.337	6329.08
700.532	6497.01
700.728	6220.53
700.924	6181.62
701.119	5907.2
701.315	6427.38
701.511	6509.3
701.706	6085.37
701.902	6001.4
702.097	6443.76
702.293	6417.14
702.489	6189.81
702.684	6228.73
702.88	6503.15
703.075	6296.31
703.271	6214.39
703.466	5968.63
703.662	6296.31
703.857	6568.69
704.053	6163.19
704.248	6116.09
704.443	6630.13
704.639	6636.27
704.834	6322.93
705.03	6171.38
705.225	6662.9
705.42	6632.18
705.616	6388.47
705.811	6099.7
706.006	6214.39
706.202	6294.26
706.397	6271.73
706.592	5942.01
706.787	6378.23
706.983	6243.06
707.178	6275.83
707.373	6148.86
707.568	6433.52
707.763	6679.28
707.959	6011.64
708.154	6052.6
708.349	6492.91
708.544	6357.75
708.739	6380.28
708.934	6003.45
709.129	6494.96
709.324	6691.57
709.519	5952.25
709.714	5866.24
709.909	6738.67
710.104	6451.95
710.299	5882.62
710.494	6259.45
710.689	6361.84
710.884	6200.05
711.079	6105.85
711.274	6310.65
711.469	6386.42
711.664	6451.95
711.859	6169.34
712.054	6238.97
712.249	6439.67
712.443	6583.02
712.638	6021.88
712.833	5894.91
713.028	6263.54
713.223	6175.48
713.417	6210.29
713.612	5911.29
713.807	6476.53
714.002	6931.18
714.196	6109.94
714.391	6091.51
714.586	6478.58
714.78	6101.75
714.975	6167.29
715.17	5911.29
715.364	6177.53
715.559	6458.1
715.754	5653.25
715.948	5886.72
716.143	6470.39
716.337	6382.32
716.532	6214.39
716.726	6068.98
716.921	6513.39
717.115	6683.38
717.31	5853.95
717.504	6593.26
717.699	6118.14
717.893	6181.62
718.088	5696.25
718.282	5792.51
718.476	6157.05
718.671	6507.25
718.865	5948.15
719.059	5942.01
719.254	6173.43
719.448	6509.3
719.642	7336.68
719.837	5765.89
720.031	6241.01
720.225	6447.86
720.419	5980.92
720.614	5808.89
720.808	6413.04
721.002	6107.9
721.196	5812.99
721.39	5747.45
721.585	6406.9
721.779	6095.61
721.973	5798.65
722.167	5618.43
722.361	6107.9
722.555	6443.76
722.749	5714.69
722.943	5722.88
723.137	5581.57
723.331	6163.19
723.525	5991.16
723.719	5851.9
723.913	6238.97
724.107	6210.29
724.301	5679.87
724.495	5825.28
724.689	6595.31
724.883	6456.05
725.077	5800.7
725.271	5692.16
725.465	6374.13
725.659	6009.59
725.853	5890.81
726.046	5526.27
726.24	6089.46
726.434	6292.21
726.628	5616.38
726.822	5882.62
727.015	6423.28
727.209	6304.5
727.403	5688.06
727.596	5647.1
727.79	6218.49
727.984	6345.46
728.177	5726.97
728.371	5884.67
728.565	6292.21
728.758	5739.26
728.952	5737.21
729.146	5976.83
729.339	6304.5
729.533	6095.61
729.726	5815.04
729.92	5667.58
730.113	6370.04
730.307	6257.4
730.5	5812.99
730.694	5710.59
730.887	5950.2
731.081	6138.62
731.274	5794.56
731.468	5837.56
731.661	5962.49
731.854	6009.59
732.048	5556.99
732.241	5792.51
732.435	5964.54
732.628	6068.98
732.821	5636.86
733.014	5681.92
733.208	5786.37
733.401	6173.43
733.594	5794.56
733.788	5698.3
733.981	6093.56
734.174	6034.17
734.367	5614.34
734.56	5925.63
734.754	6234.87
734.947	5974.78
735.14	5780.22
735.333	5731.07
735.526	6249.21
735.719	5776.13
735.912	5620.48
736.105	5903.1
736.298	6060.79
736.491	5749.5
736.684	5825.28
736.877	5690.11
737.07	6189.81
737.263	6169.34
737.456	5753.6
737.649	5702.4
737.842	5931.77
738.035	6064.89
738.228	5841.66
738.421	5901.05
738.614	6300.41
738.807	6075.13
739	5473.03
739.192	5536.51
739.385	5966.59
739.578	6111.99
739.771	5876.48
739.964	5616.38
740.156	5884.67
740.349	5776.13
740.542	5868.28
740.735	5444.35
740.927	5761.79
741.12	5690.11
741.313	5583.62
741.505	5784.32
741.698	5919.48
741.891	6128.38
742.083	5849.85
742.276	5724.93
742.468	5874.43
742.661	5872.38
742.854	5559.04
743.046	5657.34
743.239	6341.36
743.431	5845.76
743.624	5577.47
743.816	5516.03
744.009	5802.75
744.201	5905.15
744.393	5772.03
744.586	5454.59
744.778	6144.76
744.971	5933.82
745.163	5647.1
745.355	5688.06
745.548	5890.81
745.74	5878.52
745.932	5706.49
746.125	5636.86
746.317	6396.66
746.509	5796.6
746.702	5630.72
746.894	5677.82
747.086	5829.37
747.278	6064.89
747.471	5677.82
747.663	5845.76
747.855	5638.91
748.047	6152.95
748.239	5630.72
748.431	5462.79
748.623	6234.87
748.815	6091.51
749.008	5563.14
749.2	5214.98
749.392	5884.67
749.584	5735.17
749.776	5683.97
749.968	5653.25
750.16	6288.12
750.352	5679.87
750.544	5575.42
750.736	5440.26
750.928	6134.52
751.12	5939.96
751.311	5665.53
751.503	5690.11
751.695	5927.67
751.887	5796.6
752.079	5354.24
752.271	5522.18
752.463	6501.11
752.654	6066.94
752.846	5567.23
753.038	5481.22
753.23	5759.74
753.421	5909.24
753.613	5522.18
753.805	5726.97
753.997	6060.79
754.188	6058.74
754.38	5417.73
754.572	5497.6
754.763	5573.38
754.955	5884.67
755.146	5595.9
755.338	5464.83
755.53	5927.67
755.721	5757.69
755.913	5241.61
756.104	5184.26
756.296	5686.01
756.487	5927.67
756.679	5346.05
756.87	5368.58
757.062	5620.48
757.253	5681.92
757.445	5423.87
757.636	5581.57
757.827	5509.89
758.019	6247.16
758.21	5266.18
758.401	5425.92
758.593	5989.11
758.784	6025.98
758.975	5098.25
759.167	5380.87
759.358	5606.14
759.549	6001.4
759.74	5341.96
759.932	5399.3
760.123	5937.91
760.314	5464.83
760.505	5448.45
760.696	5290.76
760.888	5960.44
761.079	5399.3
761.27	5225.22
761.461	4985.61
761.652	5985.02
761.843	5243.65
762.034	5223.17
762.225	5495.55
762.416	5606.14
762.607	5575.42
762.798	5186.31
762.989	4932.36
763.18	6259.45
763.371	5374.72
763.562	5112.58
763.753	5301
763.944	5700.35
764.135	5720.83
764.326	5272.32
764.517	5159.69
764.708	5397.25
764.899	5690.11
765.089	5225.22
765.28	5102.34
765.471	5528.32
765.662	5563.14
765.853	5290.76
766.043	4952.84
766.234	5610.24
766.425	5499.65
766.615	5104.39
766.806	4967.18
766.997	5843.71
767.187	5305.09
767.378	4991.75
767.569	4934.41
767.759	5516.03
767.95	5280.52
768.141	5202.69
768.331	4915.98
768.522	5276.42
768.712	5401.35
768.903	5010.18
769.093	5128.97
769.284	5845.76
769.474	5290.76
769.665	4952.84
769.855	4795.15
770.046	5516.03
770.236	5229.32
770.426	5284.61
770.617	4989.71
770.807	5329.67
770.998	5255.94
771.188	5124.87
771.378	4840.2
771.569	5358.34
771.759	5362.44
771.949	4696.85
772.139	4760.33
772.33	5149.45
772.52	5675.77
772.71	4829.96
772.9	4805.39
773.09	5624.58
773.281	5546.75
773.471	4737.81
773.661	4852.49
773.851	5509.89
774.041	5100.3
774.231	4756.24
774.421	5057.29
774.611	5376.77
774.802	5233.41
774.992	4967.18
775.182	4844.3
775.372	5219.08
775.562	5239.56
775.752	4834.06
775.942	4815.63
776.131	5550.85
776.321	5092.1
776.511	4731.66
776.701	4789
776.891	5284.61
777.081	4844.3
777.271	4752.14
777.461	4758.28
777.651	5184.26
777.84	5268.23
778.03	4885.26
778.22	4608.78
778.41	5321.48
778.599	4875.02
778.789	4793.1
778.979	4668.17
779.169	5012.23
779.358	5014.28
779.548	5055.24
779.738	4555.54
779.927	5038.86
780.117	4709.13
780.307	4713.23
780.496	4492.05
780.686	4977.42
780.875	5391.11
781.065	4561.68
781.254	4526.86
781.444	5090.06
781.633	4938.51
781.823	4590.35
782.012	4539.15
782.202	4768.52
782.391	4842.25
782.581	4522.77
782.77	4692.75
782.96	5190.41
783.149	4780.81
783.338	4682.51
783.528	4629.26
783.717	5096.2
783.906	5104.39
784.096	4782.86
784.285	4455.19
784.474	4696.85
784.663	4623.12
784.853	4487.95
785.042	4657.93
785.231	4809.48
785.42	5100.3
785.61	4694.8
785.799	4369.17
785.988	4694.8
786.177	4758.28
786.366	4526.86
786.555	4688.65
786.744	4989.71
786.933	4707.09
787.122	4567.82
787.312	4260.63
787.501	4526.86
787.69	4752.14
787.879	4360.98
788.068	4457.23
788.257	4399.89
788.445	4678.41
788.634	4490
788.823	4360.98
789.012	5378.82
789.201	4965.13
789.39	4330.26
789.579	4305.68
789.768	4580.11
789.957	4690.7
790.145	4461.33
790.334	4283.16
790.523	4608.78
790.712	4420.37
790.9	4502.29
791.089	4221.72
791.278	4784.91
791.467	4672.27
791.655	4682.51
791.844	4891.4
792.033	4508.43
792.221	4569.87
792.41	4328.21
792.599	4281.11
792.787	4684.56
792.976	4825.87
793.164	4123.41
793.353	4209.43
793.541	4895.5
793.73	4811.53
793.918	4291.35
794.107	4221.72
794.295	4436.75
794.484	4438.8
794.672	4250.39
794.861	4225.81
795.049	4492.05
795.238	4995.85
795.426	4098.84
795.614	4266.77
795.803	4616.97
795.991	4911.88
796.179	4256.53
796.368	4436.75
796.556	4799.24
796.744	4371.22
796.932	4324.12
797.121	4064.02
797.309	4528.91
797.497	4600.59
797.685	4324.12
797.874	4264.72
798.062	4332.31
798.25	4737.81
798.438	4158.23
798.626	4166.42
798.814	4686.61
799.002	5008.14
799.19	4365.07
799.378	4320.02
799.566	4805.39
799.755	4907.79
799.943	4580.11
800.131	4133.65
800.318	4633.36
800.506	4674.32
800.694	4121.37
800.882	4330.26
801.07	4936.46
801.258	4496.14
801.446	4313.88
801.634	4129.56
801.822	4381.46
802.01	4436.75
802.197	4068.12
802.385	4297.49
802.573	4571.92
802.761	4305.68
802.949	4254.48
803.136	4084.5
803.324	4694.8
803.512	4666.13
803.699	4283.16
803.887	3955.48
804.075	4928.27
804.262	4553.49
804.45	4014.87
804.638	4414.23
804.825	4289.3
805.013	4287.25
805.201	4191
805.388	4076.31
805.576	4352.79
805.763	4858.64
805.951	4260.63
806.138	4348.69
806.326	5067.53
806.513	4682.51
806.701	4234
806.888	4141.85
807.075	4616.97
807.263	4813.58
807.45	4104.98
807.638	4414.23
807.825	4946.7
808.012	4764.43
808.2	4178.71
808.387	4616.97
808.574	4467.47
808.761	4819.72
808.949	4295.44
809.136	4410.13
809.323	4412.18
809.51	4473.62
809.698	4508.43
809.885	4410.13
810.072	4629.26
810.259	4811.53
810.446	4403.99
810.633	4369.17
810.82	4533.01
811.008	4897.55
811.195	4383.51
811.382	4352.79
811.569	4748.04
811.756	4260.63
811.943	4375.31
812.13	4262.68
812.317	4516.62
812.504	4424.47
812.691	4264.72
812.878	4274.96
813.064	4866.83
813.251	4616.97
813.438	4207.38
813.625	4305.68
813.812	4393.75
813.999	4422.42
814.186	4440.85
814.372	4266.77
814.559	4537.1
814.746	4885.26
814.933	4195.09
815.12	4387.6
815.306	4508.43
815.493	4277.01
815.68	4356.88
815.866	4354.83
816.053	4875.02
816.24	4905.74
816.426	4563.73
816.613	4059.93
816.799	4746
816.986	5059.34
817.173	4365.07
817.359	4268.82
817.546	4756.24
817.732	4385.55
817.919	4150.04
818.105	4340.5
818.292	4635.41
818.478	4586.26
818.665	4346.64
818.851	4268.82
819.037	5055.24
819.224	4621.07
819.41	4240.15
819.597	4092.69
819.783	5096.2
819.969	4760.33
820.156	4320.02
820.342	4199.19
820.528	5147.4
820.714	4379.41
820.901	4522.77
821.087	4274.96
821.273	4922.12
821.459	4305.68
821.646	4053.78
821.832	4188.95
822.018	4215.57
822.204	4475.67
822.39	4231.96
822.576	4143.89
822.762	4692.75
822.948	4395.79
823.134	4379.41
823.32	4158.23
823.507	4311.83
823.693	4453.14
823.879	4555.54
824.065	4248.34
824.25	4444.95
824.436	4258.58
824.622	4209.43
824.808	4037.4
824.994	4383.51
825.18	4264.72
825.366	3973.91
825.552	4113.17
825.738	4455.19
825.923	4621.07
826.109	4367.12
826.295	4174.61
826.481	4297.49
826.667	4272.92
826.852	4334.36
827.038	4008.73
827.224	4659.98
827.409	4897.55
827.595	4010.78
827.781	4279.06
827.966	4576.02
828.152	4446.99
828.338	4121.37
828.523	3951.39
828.709	4080.41
828.894	4776.72
829.08	4176.66
829.266	3990.3
829.451	4268.82
829.637	4535.06
829.822	4121.37
830.008	3992.34
830.193	4727.57
830.378	4713.23
830.564	3994.39
830.749	3928.86
830.935	4444.95
831.12	4428.56
831.305	4084.5
831.491	4119.32
831.676	4029.21
831.861	4520.72
832.047	3982.1
832.232	3857.18
832.417	4490
832.602	4205.33
832.788	4078.36
832.973	3916.57
833.158	4209.43
833.343	4231.96
833.528	4082.46
833.714	4178.71
833.899	4338.45
834.084	4702.99
834.269	4186.9
834.454	3937.05
834.639	4305.68
834.824	4180.76
835.009	4027.16
835.194	4178.71
835.379	4381.46
835.564	4684.56
835.749	4082.46
835.934	3842.84
836.119	4367.12
836.304	4258.58
836.489	3873.56
836.674	4078.36
836.859	3975.96
837.044	4465.43
837.228	3838.75
837.413	3803.93
837.598	4225.81
837.783	4459.28
837.968	3844.89
838.152	3765.02
838.337	3711.77
838.522	4502.29
838.707	4178.71
838.891	4109.08
839.076	4152.09
839.261	4313.88
839.445	4090.65
839.63	3818.27
839.815	4551.44
839.999	3998.49
840.184	3773.21
840.368	3816.22
840.553	4229.91
840.737	4268.82
840.922	3578.65
841.106	3697.44
841.291	3750.68
841.475	4082.46
841.66	3760.92
841.844	3736.35
842.029	4657.93
842.213	3830.55
842.397	3748.64
842.582	3625.76
842.766	4416.27
842.951	4170.52
843.135	3730.2
843.319	3767.07
843.504	4158.23
843.688	4363.03
843.872	3646.24
844.056	3549.98
844.241	4115.22
844.425	3881.75
844.609	3818.27
844.793	3586.85
844.977	4162.33
845.161	4047.64
845.346	3592.99
845.53	3644.19
845.714	4000.54
845.898	4207.38
846.082	3351.33
846.266	3590.94
846.45	4061.98
846.634	3998.49
846.818	3691.29
847.002	3697.44
847.186	4041.5
847.37	3611.42
847.554	3498.78
847.738	3773.21
847.922	3883.8
848.106	4012.82
848.29	3427.11
848.473	3513.12
848.657	4086.55
848.841	3842.84
849.025	3595.04
849.209	3412.77
849.392	4016.92
849.576	3797.79
849.76	3398.43
849.944	3625.76
850.127	4182.81
850.311	3597.09
850.495	3380
850.678	3246.88
850.862	3982.1
851.046	4125.46
851.229	3707.68
851.413	3449.63
851.596	3789.6
851.78	3695.39
851.964	3599.13
852.147	3554.08
852.331	4584.21
852.514	4078.36
852.698	3631.9
852.881	3517.22
853.065	4121.37
853.248	3801.88
853.431	3683.1
853.615	3529.5
853.798	4209.43
853.982	3869.47
854.165	3494.69
854.348	3511.07
854.532	3472.16
854.715	3623.71
854.898	3623.71
855.081	3425.06
855.265	3898.14
855.448	3975.96
855.631	3269.41
855.814	3373.86
855.997	3935
856.181	3611.42
856.364	3388.19
856.547	3365.67
856.73	3691.29
856.913	3650.33
857.096	3230.5
857.279	3466.02
857.462	3506.98
857.645	3779.36
857.828	3539.74
858.011	3384.1
858.194	3547.94
858.377	3750.68
858.56	3300.13
858.743	3406.63
858.926	3388.19
859.109	3822.36
859.292	3365.67
859.475	3195.68
859.658	3994.39
859.841	3730.2
860.023	3199.78
860.206	3121.96
860.389	3592.99
860.572	3980.06
860.755	3253.03
860.937	3283.75
861.12	3621.66
861.303	3588.89
861.486	3314.47
861.668	3173.16
861.851	3767.07
862.034	3521.31
862.216	3377.95
862.399	3074.85
862.581	3580.7
862.764	3900.19
862.947	3212.07
863.129	3097.38
863.312	3275.56
863.494	3846.94
863.677	3414.82
863.859	3052.33
864.042	3613.47
864.224	3820.32
864.406	3261.22
864.589	3087.14
864.771	3490.59
864.954	3238.69
865.136	3152.68
865.318	2863.91
865.501	3599.13
865.683	3003.18
865.865	3140.39
866.048	3085.09
866.23	3420.96
866.412	3314.47
866.594	3095.33
866.777	3089.19
866.959	3609.37
867.141	3306.27
867.323	3357.47
867.505	3216.16
867.687	3347.23
867.869	3322.66
868.052	3119.91
868.234	2904.87
868.416	3330.85
868.598	3490.59
868.78	2999.08
868.962	2872.11
869.144	3603.23
869.326	3398.43
869.508	3109.67
869.69	2784.04
869.872	3097.38
870.054	3609.37
870.236	2855.72
870.417	2968.36
870.599	3265.32
870.781	3685.15
870.963	3226.4
871.145	3027.75
871.327	3048.23
871.508	3439.39
871.69	3048.23
871.872	3103.53
872.054	3363.62
872.235	3445.54
872.417	3136.29
872.599	2982.7
872.78	3715.87
872.962	3416.87
873.144	2827.05
873.325	3015.46
873.507	3554.08
873.689	3300.13
873.87	2847.53
874.052	3009.32
874.233	3154.73
874.415	3638.05
874.596	3042.09
874.778	2943.78
874.959	3341.09
875.141	3556.13
875.322	2945.83
875.503	2917.16
875.685	3345.19
875.866	2988.84
876.048	2874.15
876.229	2884.39
876.41	3183.4
876.592	3445.54
876.773	3062.57
876.954	2843.43
877.136	3562.27
877.317	3324.71
877.498	2859.82
877.679	3093.29
877.86	3509.02
878.042	3334.95
878.223	2921.26
878.404	3427.11
878.585	3357.47
878.766	3769.12
878.947	3298.08
879.128	3177.25
879.309	3488.54
879.49	3679.01
879.672	3128.1
879.853	3003.18
880.034	3103.53
880.215	3283.75
880.396	3011.37
880.576	3068.71
880.757	3121.96
880.938	3595.04
881.119	3040.04
881.3	2868.01
881.481	3302.18
881.662	4231.96
881.843	3015.46
882.023	2951.98
882.204	3375.91
882.385	3400.48
882.566	2917.16
882.747	2945.83
882.927	3404.58
883.108	3380
883.289	3037.99
883.469	3359.52
883.65	3205.92
883.831	3304.23
884.011	3343.14
884.192	3033.9
884.373	3724.06
884.553	3476.26
884.734	3310.37
884.914	3490.59
885.095	4178.71
885.275	3746.59
885.456	3394.34
885.636	2982.7
885.817	3418.91
885.997	3453.73
886.178	3097.38
886.358	3195.68
886.538	3443.49
886.719	4516.62
886.899	3183.4
887.08	3392.29
887.26	3722.01
887.44	3107.62
887.621	3048.23
887.801	3259.17
887.981	4221.72
888.161	3584.8
888.342	3191.59
888.522	3244.84
888.702	3699.48
888.882	3736.35
889.062	3414.82
889.242	3111.72
889.423	3777.31
889.603	3521.31
889.783	3185.44
889.963	3136.29
890.143	3592.99
890.323	3736.35
890.503	3171.11
890.683	3349.28
890.863	3455.78
891.043	3572.51
891.223	3359.52
891.403	3334.95
891.583	3472.16
891.763	3683.1
891.943	3324.71
892.122	3101.48
892.302	3492.64
892.482	3451.68
892.662	3291.94
892.842	3285.8
893.022	3552.03
893.201	3334.95
893.381	3384.1
893.561	3234.6
893.741	3715.87
893.92	3576.61
894.1	3318.56
894.28	3296.04
894.459	3834.65
894.639	3431.2
894.819	3255.08
894.998	3304.23
895.178	3660.57
895.357	3535.65
895.537	3070.76
895.716	3064.61
895.896	3289.89
896.075	3814.17
896.255	3263.27
896.434	3003.18
896.614	3726.11
896.793	3783.45
896.973	3158.82
897.152	3298.08
897.331	3414.82
897.511	3599.13
897.69	2921.26
897.87	3298.08
898.049	3509.02
898.228	3386.15
898.407	3289.89
898.587	3263.27
898.766	3269.41
898.945	3566.37
899.124	3232.55
899.304	3279.65
899.483	3619.61
899.662	3842.84
899.841	3033.9
900.02	3044.13
900.199	3679.01
900.378	3433.25
900.557	3076.9
900.737	2921.26
900.916	3486.5
901.095	3451.68
901.274	3304.23
901.453	2954.02
901.632	2986.79
901.811	3062.57
901.989	2890.54
902.168	2851.63
902.347	3433.25
902.526	2999.08
902.705	2917.16
902.884	3060.52
903.063	3447.58
903.242	3433.25
903.42	2796.33
903.599	3035.94
903.778	3396.39
903.957	3541.79
904.135	3117.86
904.314	2976.55
904.493	3156.77
904.672	3355.43
904.85	2794.28
905.029	2861.87
905.207	3136.29
905.386	3773.21
905.565	2614.06
905.743	2698.03
905.922	2962.22
906.1	3191.59
906.279	2624.3
906.457	2708.27
906.636	2818.86
906.814	3048.23
906.993	2616.11
907.171	2685.74
907.35	3175.2
907.528	3210.02
907.707	2839.34
907.885	2581.29
908.063	3355.43
908.242	2855.72
908.42	2523.95
908.598	2347.83
908.777	3037.99
908.955	2745.13
909.133	2657.07
909.311	2556.72
909.49	2738.99
909.668	2888.49
909.846	2677.55
910.024	2345.78
910.202	2788.14
910.38	3035.94
910.559	2628.4
910.737	2511.66
910.915	2911.02
911.093	3068.71
911.271	2671.4
911.449	2984.74
911.627	3189.54
911.805	3314.47
911.983	2794.28
912.161	2585.39
912.339	3109.67
912.517	3396.39
912.695	2753.32
912.872	2736.94
913.05	2806.57
913.228	3212.07
913.406	2771.76
913.584	2734.89
913.762	3238.69
913.939	2886.44
914.117	2708.27
914.295	2536.24
914.473	3109.67
914.65	3037.99
914.828	2700.08
915.006	2624.3
915.184	2757.42
915.361	3056.42
915.539	2847.53
915.716	2978.6
915.894	3064.61
916.072	3169.06
916.249	2954.02
916.427	3003.18
916.604	2712.36
916.782	3111.72
916.959	2466.61
917.137	2814.76
917.314	2927.4
917.492	3111.72
917.669	2753.32
917.847	2722.6
918.024	3009.32
918.201	2669.36
918.379	2781.99
918.556	2806.57
918.733	3132.2
918.911	2794.28
919.088	2876.2
919.265	2734.89
919.442	2958.12
919.62	2997.03
919.797	2642.73
919.974	2519.85
920.151	2988.84
920.328	2847.53
920.506	2499.38
920.683	2861.87
920.86	2640.69
921.037	2675.5
921.214	2634.54
921.391	2564.91
921.568	3066.66
921.745	2767.66
921.922	2679.6
922.099	2569.01
922.276	2994.98
922.453	2943.78
922.63	2458.42
922.807	3005.22
922.984	2939.69
923.161	2652.97
923.338	2579.25
923.514	2530.09
923.691	2839.34
923.868	2919.21
924.045	2558.77
924.222	2548.53
924.399	2911.02
924.575	3109.67
924.752	2681.64
924.929	2644.78
925.105	2777.9
925.282	2532.14
925.459	2478.9
925.635	2511.66
925.812	2794.28
925.989	2388.78
926.165	2597.68
926.342	2245.43
926.518	2323.25
926.695	2661.16
926.871	2433.84
927.048	2388.78
927.224	2833.19
927.401	2546.48
927.577	2571.05
927.754	2151.22
927.93	2966.31
928.107	2855.72
928.283	2368.31
928.459	2599.73
928.636	2556.72
928.812	2554.67
928.988	2181.94
929.165	2265.91
929.341	2528.05
929.517	2569.01
929.693	2663.21
929.87	1991.48
930.046	2650.92
930.222	2390.83
930.398	1999.67
930.574	2415.41
930.751	2419.5
930.927	2259.76
931.103	2282.29
931.279	2345.78
931.455	2257.71
931.631	2554.67
931.807	2075.45
931.983	2204.47
932.159	2134.84
932.335	2507.57
932.511	2302.77
932.687	2128.69
932.863	2493.23
933.039	2347.83
933.215	1991.48
933.391	1989.43
933.566	2376.5
933.742	2429.74
933.918	2022.2
934.094	2030.39
934.27	2388.78
934.445	2186.04
934.621	2085.69
934.797	1872.7
934.973	2364.21
935.148	2216.76
935.324	1753.91
935.5	1667.9
935.675	2347.83
935.851	2183.99
936.027	1864.5
936.202	1778.49
936.378	2212.66
936.553	1938.23
936.729	2282.29
936.904	1715
937.08	1729.34
937.255	1798.97
937.431	1635.13
937.606	1399.62
937.782	1778.49
937.957	1833.79
938.133	1741.63
938.308	1491.77
938.483	1706.81
938.659	1487.68
938.834	1452.86
939.009	1370.94
939.185	1618.75
939.36	1446.72
939.535	1137.48
939.71	1512.25
939.886	1876.79
940.061	1631.04
940.236	1571.65
940.411	1375.04
940.586	1725.24
940.761	1725.24
940.937	1358.66
941.112	1045.32
941.287	1643.32
941.462	1389.38
941.637	1155.91
941.812	1307.46
941.987	1530.69
942.162	1413.95
942.337	1364.8
942.512	1190.72
942.687	1682.24
942.862	1612.6
943.037	1147.72
943.212	947.01
943.386	1444.67
943.561	1409.86
943.736	1241.92
943.911	1428.29
944.086	1620.8
944.26	1446.72
944.435	1174.34
944.61	1303.36
944.785	1729.34
944.959	1884.98
945.134	1192.77
945.309	1026.89
945.483	1153.86
945.658	1569.6
945.833	848.71
946.007	1170.24
946.182	1801.02
946.357	1172.29
946.531	957.25
946.706	1067.85
946.88	873.29
947.055	1424.19
947.229	1196.87
947.404	1094.47
947.578	1717.05
947.752	1278.79
947.927	1037.13
948.101	918.34
948.276	1499.97
948.45	1512.25
948.624	1342.27
948.799	1088.32
948.973	1463.1
949.147	1168.2
949.321	1237.83
949.496	1311.55
949.67	1678.14
949.844	1364.8
950.018	1256.26
950.193	1157.96
950.367	1833.79
950.541	1274.69
950.715	1307.46
950.889	1391.42
951.063	1377.09
951.237	1635.13
951.411	959.3
951.585	1057.61
951.759	1495.87
951.933	1432.38
952.107	1174.34
952.281	1346.37
952.455	1819.45
952.629	1669.95
952.803	1155.91
952.977	1143.62
953.151	1749.82
953.325	1479.49
953.499	1493.82
953.672	1069.89
953.846	1231.68
954.02	1432.38
954.194	1248.07
954.368	1358.66
954.541	1680.19
954.715	1313.6
954.889	1350.46
955.062	1188.68
955.236	1553.21
955.41	1430.34
955.583	1483.58
955.757	1004.36
955.93	1440.58
956.104	1284.93
956.278	1278.79
956.451	1391.42
956.625	1649.47
956.798	2054.97
956.972	1577.79
957.145	1194.82
957.319	1526.59
957.492	1581.89
957.665	1432.38
957.839	1209.15
958.012	1633.08
958.185	1424.19
958.359	1325.89
958.532	1536.83
958.705	1766.2
958.879	1590.08
959.052	1397.57
959.225	1157.96
959.398	1624.89
959.572	1612.6
959.745	1338.18
959.918	1301.31
960.091	1487.68
960.264	1827.64
960.438	1104.71
960.611	1305.41
960.784	1719.1
960.957	1407.81
961.13	1696.57
961.303	1284.93
961.476	1590.08
961.649	1770.3
961.822	1266.5
961.995	1297.22
962.168	1645.37
962.341	1608.51
962.514	1272.64
962.686	1291.07
962.859	1643.32
963.032	1856.31
963.205	1366.85
963.378	1225.54
963.551	1581.89
963.723	1532.73
963.896	1450.82
964.069	1340.22
964.242	1428.29
964.414	1643.32
964.587	1356.61
964.76	1440.58
964.932	1506.11
965.105	1518.4
965.278	1342.27
965.45	1258.31
965.623	1538.88
965.795	1647.42
965.968	1184.58
966.14	1372.99
966.313	1456.96
966.485	1422.14
966.658	1272.64
966.83	1188.68
967.003	1856.31
967.175	1573.69
967.348	1307.46
967.52	1336.13
967.692	1823.55
967.865	1545.02
968.037	1348.42
968.209	1512.25
968.382	1495.87
968.554	1710.91
968.726	1405.76
968.898	1243.97
969.071	1631.04
969.243	1678.14
969.415	1172.29
969.587	1327.94
969.759	1989.43
969.932	1684.28
970.104	1356.61
970.276	1022.79
970.448	1381.18
970.62	1338.18
970.792	1346.37
970.964	1301.31
971.136	2032.44
971.308	1571.65
971.48	1123.14
971.652	1219.39
971.824	1876.79
971.996	1342.27
972.168	1254.21
972.339	1325.89
972.511	1653.56
972.683	1473.34
972.855	1495.87
973.027	1286.98
973.199	1450.82
973.37	1489.73
973.542	1352.51
973.714	1266.5
973.886	1395.52
974.057	1618.75
974.229	1078.08
974.401	1319.75
974.572	1233.73
974.744	979.78
974.915	1082.18
975.087	1129.28
975.259	1729.34
975.43	1317.7
975.602	1266.5
975.773	1028.93
975.945	1135.43
976.116	1555.26
976.288	1102.66
976.459	1307.46
976.63	1282.88
976.802	1514.3
976.973	1000.26
977.145	1332.03
977.316	1901.37
977.487	1778.49
977.659	1323.84
977.83	1137.48
978.001	1809.21
978.172	1442.62
978.344	1100.61
978.515	1121.09
978.686	1260.35
978.857	1680.19
979.028	1203.01
979.2	1094.47
979.371	1606.46
979.542	1323.84
979.713	1332.03
979.884	787.27
980.055	1096.52
980.226	1198.92
980.397	1053.51
980.568	967.49
980.739	1596.22
980.91	1307.46
981.081	1147.72
981.252	983.88
981.423	1362.75
981.594	1481.53
981.765	967.49
981.936	1217.35
982.106	1348.42
982.277	1518.4
982.448	938.82
982.619	1135.43
982.79	1241.92
982.96	1479.49
983.131	1016.65
983.302	844.62
983.472	1047.37
983.643	1418.05
983.814	1192.77
983.984	959.3
984.155	1211.2
984.326	1436.48
984.496	1151.81
984.667	1026.89
984.837	1024.84
985.008	1545.02
985.178	1252.16
985.349	963.4
985.519	1274.69
985.69	1080.13
985.86	957.25
986.031	881.48
986.201	1250.11
986.371	1309.51
986.542	936.78
986.712	848.71
986.882	1176.39
987.053	1270.59
987.223	869.19
987.393	1127.24
987.563	983.88
987.734	1368.9
987.904	1278.79
988.074	916.3
988.244	1252.16
988.414	951.11
988.585	815.94
988.755	973.64
988.925	1086.28
989.095	1581.89
989.265	856.9
989.435	1010.5
989.605	1348.42
989.775	1291.07
989.945	1180.48
990.115	699.21
990.285	1090.37
990.455	1215.3
990.625	942.92
990.795	848.71
990.965	1397.57
991.134	947.01
991.304	701.26
991.474	842.57
991.644	1121.09
991.814	1506.11
991.984	795.47
992.153	709.45
992.323	1129.28
992.493	1135.43
992.662	607.05
992.832	975.69
993.002	1065.8
993.171	1149.76
993.341	742.22
993.511	879.43
993.68	944.97
993.85	1192.77
994.019	619.34
994.189	686.92
994.358	1041.22
994.528	869.19
994.697	461.65
994.867	641.87
995.036	1250.11
995.206	955.21
995.375	629.58
995.544	938.82
995.714	1168.2
995.883	944.97
996.052	830.28
996.222	553.8
996.391	1467.2
996.56	1078.08
996.73	639.82
996.899	615.24
997.068	1254.21
997.237	977.73
997.406	549.71
997.576	553.8
997.745	1071.94
997.914	1121.09
998.083	506.7
998.252	734.03
998.421	979.78
998.59	648.01
998.759	588.62
998.928	463.69
999.097	1284.93
999.266	987.97
999.435	701.26
999.604	418.64
999.773	1397.57
999.942	871.24
1000.111	467.79
1000.28	385.87
1000.448	584.52
1000.617	650.06
1000.786	826.18
1000.955	478.03
1001.124	1022.79
1001.292	1532.73
1001.461	463.69
1001.63	512.85
1001.798	1299.27
1001.967	1096.52
1002.136	443.21
1002.304	451.41
1002.473	1004.36
1002.642	789.32
1002.81	643.92
1002.979	525.13
1003.147	1024.84
1003.316	1377.09
1003.484	498.51
1003.653	439.12
1003.821	1151.81
1003.99	797.51
1004.158	629.58
1004.327	553.8
1004.495	1028.93
1004.663	629.58
1004.832	619.34
1005	306
1005.168	969.54
1005.337	885.58
1005.505	340.82
1005.673	580.43
1005.842	947.01
1006.01	924.49
1006.178	351.06
1006.346	414.54
1006.514	934.73
1006.683	1057.61
1006.851	349.01
1007.019	564.04
1007.187	637.77
1007.355	324.43
1007.523	250.71
1007.691	236.37
1007.859	387.92
1008.027	1094.47
1008.195	424.78
1008.363	283.47
1008.531	938.82
1008.699	631.63
1008.867	217.94
1009.035	299.86
1009.203	1137.48
1009.37	619.34
1009.538	418.64
1009.706	774.99
1009.874	799.56
1010.042	715.59
1010.209	185.17
1010.377	324.43
1010.545	996.17
1010.713	658.25
1010.88	289.62
1011.048	334.67
1011.216	648.01
1011.383	1010.5
1011.551	297.81
1011.718	275.28
1011.886	979.78
1012.054	641.87
1012.221	299.86
1012.389	279.38
1012.556	600.91
1012.724	1049.41
1012.891	336.72
1013.058	203.6
1013.226	783.18
1013.393	836.42
1013.561	156.5
1013.728	168.79
1013.895	789.32
1014.063	838.47
1014.23	176.98
1014.397	330.58
1014.565	861
1014.732	566.09
1014.899	324.43
1015.066	78.68
1015.233	586.57
1015.401	826.18
1015.568	295.76
1015.735	418.64
1015.902	578.38
1016.069	686.92
1016.236	267.09
1016.403	148.31
1016.57	418.64
1016.737	820.04
1016.904	277.33
1017.071	125.78
1017.238	475.98
1017.405	805.71
1017.572	269.14
1017.739	455.5
1017.906	711.5
1018.073	832.33
1018.24	80.72
1018.407	269.14
1018.573	848.71
1018.74	529.23
1018.907	195.41
1019.074	56.15
1019.241	791.37
1019.407	574.28
1019.574	115.54
1019.741	62.29
1019.907	697.16
1020.074	678.73
1020.241	-91.31
1020.407	119.64
1020.574	697.16
1020.74	770.89
1020.907	215.89
1021.073	88.92
1021.24	1080.13
1021.406	875.34
1021.573	25.43
1021.739	111.44
1021.906	686.92
1022.072	502.61
1022.239	195.41
1022.405	187.22
1022.571	564.04
1022.738	353.1
1022.904	146.26
1023.07	222.03
1023.237	539.47
1023.403	774.99
1023.569	123.73
1023.735	150.36
1023.902	596.81
1024.068	549.71
1024.234	47.96
1024.4	148.31
1024.566	584.52
1024.732	582.48
1024.898	97.11
1025.065	-68.78
1025.231	699.21
1025.397	392.02
1025.563	152.4
1025.729	-9.39
1025.895	37.72
1026.061	256.85
1026.227	21.33
1026.392	158.55
1026.558	625.48
1026.724	615.24
1026.89	4.95
1027.056	260.95
1027.222	545.61
1027.388	365.39
1027.553	60.24
1027.719	19.29
1027.885	830.28
1028.051	611.15
1028.216	-85.16
1028.382	113.49
1028.548	721.74
1028.713	369.49
1028.879	-99.5
1029.045	199.51
1029.21	756.55
1029.376	631.63
1029.541	136.02
1029.707	103.25
1029.873	666.44
1030.038	605
1030.204	19.29
1030.369	78.68
1030.534	613.2
1030.7	301.9
1030.865	129.88
1031.031	29.52
1031.196	623.44
1031.361	484.17
1031.527	62.29
1031.692	41.81
1031.857	-36.01
1032.023	574.28
1032.188	-42.15
1032.353	-25.77
1032.518	746.31
1032.684	381.78
1032.849	-115.88
1033.014	50
1033.179	584.52
1033.344	570.19
1033.509	158.55
1033.674	62.29
1033.839	594.76
1034.004	600.91
1034.17	37.72
1034.335	-52.39
1034.5	514.89
1034.664	246.61
1034.829	-54.44
1034.994	33.62
1035.159	463.69
1035.324	430.93
1035.489	-3.24
1035.654	-11.43
1035.819	785.23
1035.984	461.65
1036.148	103.25
1036.313	66.39
1036.478	637.77
1036.643	369.49
1036.807	-76.97
1036.972	-115.88
1037.137	709.45
1037.301	432.97
1037.466	-42.15
1037.631	125.78
1037.795	617.29
1037.96	449.36
1038.124	166.74
1038.289	-52.39
1038.454	512.85
1038.618	502.61
1038.783	109.4
1038.947	103.25
1039.111	377.68
1039.276	277.33
1039.44	-9.39
1039.605	473.93
1039.769	201.55
1039.933	353.1
1040.098	37.72
1040.262	215.89
1040.426	615.24
1040.591	570.19
1040.755	-95.4
1040.919	-13.48
1041.083	445.26
1041.248	359.25
1041.412	-142.5
1041.576	-103.59
1041.74	271.19
1041.904	539.47
1042.068	-52.39
1042.232	11.09
1042.397	592.72
1042.561	588.62
1042.725	-224.42
1042.889	244.56
1043.053	588.62
1043.217	475.98
1043.381	11.09
1043.544	-68.78
1043.708	643.92
1043.872	35.67
1044.036	-238.76
1044.2	-167.08
1044.364	645.96
1044.528	662.35
1044.691	2863.91
1044.855	-146.6
1045.019	504.65
1045.183	525.13
1045.346	37.72
1045.51	-109.74
1045.674	492.37
1045.837	488.27
1046.001	-81.07
1046.165	-103.59
1046.328	998.21
1046.492	424.78
1046.655	125.78
1046.819	-46.25
1046.983	234.32
1047.146	455.5
1047.31	41.81
1047.473	-271.53
1047.636	451.41
1047.8	78.68
1047.963	31.57
1048.127	-136.36
1048.29	158.55
