Data from Hydrogel_Ink_Intensity_Test_1_USB4F045381__1__00001.txt Node

Date: Mon Jul 31 10:33:52 EDT 2023
User: mmckonesweet
Spectrometer: USB4F04538
Trigger mode: 4
Integration Time (sec): 9.000000E-1
Scans to average: 1
Electric dark correction enabled: true
Nonlinearity correction enabled: false
Boxcar width: 0
XAxis mode: Wavelengths
Number of Pixels in Spectrum: 3648
>>>>>Begin Spectral Data<<<<<
345.52	-912.88
345.736	-912.88
345.952	-912.88
346.168	-935.41
346.384	-906.74
346.6	-108.03
346.816	-235
347.032	-261.63
347.248	207.36
347.464	-179.71
347.68	-124.41
347.896	70.14
348.112	416.25
348.328	-34.3
348.544	-67.07
348.76	64
348.975	252.41
349.191	-265.72
349.407	-56.83
349.623	107.01
349.839	-50.69
350.055	-3.58
350.27	119.29
350.486	231.93
350.702	397.82
350.918	303.61
351.133	-91.65
351.349	174.59
351.565	410.11
351.781	-120.32
351.996	104.96
352.212	440.83
352.428	-67.07
352.644	18.94
352.859	-157.18
353.075	313.85
353.291	-28.16
353.506	-5.63
353.722	-116.22
353.938	-7.68
354.153	526.84
354.369	176.64
354.584	-67.07
354.8	248.32
355.016	-136.7
355.231	-116.22
355.447	47.62
355.662	135.68
355.878	1014.26
356.093	-282.11
356.309	88.57
356.524	-103.93
356.74	291.32
356.955	-11.78
357.171	66.05
357.386	219.64
357.602	-105.98
357.817	37.38
358.033	-28.16
358.248	412.15
358.464	174.59
358.679	2.56
358.895	-140.8
359.11	125.44
359.325	340.47
359.541	358.91
359.756	109.05
359.972	-239.1
360.187	250.36
360.402	-54.78
360.618	53.76
360.833	1018.35
361.048	231.93
361.264	-56.83
361.479	166.4
361.694	78.33
361.909	309.76
362.125	-34.3
362.34	-38.4
362.555	227.84
362.77	107.01
362.986	-103.93
363.201	39.42
363.416	311.8
363.631	168.45
363.847	-40.45
364.062	8.7
364.277	330.23
364.492	223.74
364.707	-24.06
364.922	-185.85
365.138	406.01
365.353	575.99
365.568	-5.63
365.783	31.23
365.998	154.11
366.213	614.9
366.428	-71.17
366.643	207.36
366.858	383.48
367.073	295.42
367.288	31.23
367.503	-103.93
367.718	209.4
367.933	467.45
368.148	-93.69
368.363	158.21
368.578	88.57
368.793	598.52
369.008	14.85
369.223	-17.92
369.438	297.47
369.653	547.32
369.868	-83.45
370.083	-40.45
370.298	174.59
370.513	487.93
370.728	182.78
370.943	-9.73
371.157	-11.78
371.372	561.66
371.587	-136.7
371.802	-56.83
372.017	199.16
372.232	567.8
372.446	55.81
372.661	-40.45
372.876	395.77
373.091	365.05
373.306	109.05
373.52	-73.21
373.735	-54.78
373.95	471.54
374.165	156.16
374.379	16.9
374.594	133.63
374.809	152.06
375.023	236.03
375.238	-19.97
375.453	449.02
375.667	-36.35
375.882	88.57
376.097	92.67
376.311	246.27
376.526	254.46
376.741	29.18
376.955	258.56
377.17	780.79
377.384	729.59
377.599	88.57
377.813	57.86
378.028	690.68
378.242	297.47
378.457	152.06
378.672	-122.37
378.886	367.1
379.101	147.97
379.315	-69.12
379.53	145.92
379.744	416.25
379.958	365.05
380.173	164.35
380.387	76.29
380.602	377.34
380.816	102.91
381.031	35.33
381.245	115.2
381.459	356.86
381.674	1036.78
381.888	80.38
382.103	401.91
382.317	100.86
382.531	772.6
382.746	197.12
382.96	160.25
383.174	135.68
383.388	616.95
383.603	363
383.817	14.85
384.031	401.91
384.246	768.5
384.46	373.24
384.674	571.9
384.888	379.39
385.103	330.23
385.317	72.19
385.531	186.88
385.745	551.42
385.959	637.43
386.174	246.27
386.388	61.95
386.602	199.16
386.816	199.16
387.03	285.18
387.244	354.81
387.458	299.52
387.672	588.28
387.887	90.62
388.101	66.05
388.315	692.73
388.529	432.63
388.743	254.46
388.957	135.68
389.171	647.67
389.385	78.33
389.599	248.32
389.813	559.61
390.027	332.28
390.241	1022.45
390.455	297.47
390.669	328.19
390.883	270.84
391.097	846.32
391.311	483.83
391.525	205.31
391.738	623.09
391.952	498.17
392.166	389.63
392.38	176.64
392.594	598.52
392.808	690.68
393.022	494.07
393.236	399.87
393.449	629.24
393.663	524.79
393.877	150.01
394.091	360.95
394.305	352.76
394.518	399.87
394.732	195.07
394.946	363
395.16	836.08
395.373	551.42
395.587	324.09
395.801	322.04
396.015	760.31
396.228	629.24
396.442	240.12
396.656	215.55
396.869	770.55
397.083	840.18
397.297	596.47
397.51	385.53
397.724	997.87
397.938	670.2
398.151	199.16
398.365	285.18
398.578	700.92
398.792	899.57
399.005	614.9
399.219	451.07
399.433	571.9
399.646	731.64
399.86	582.14
400.073	473.59
400.287	788.98
400.5	557.56
400.714	694.77
400.927	616.95
401.141	760.31
401.354	1630.7
401.567	838.13
401.781	455.16
401.994	905.71
402.208	1147.37
402.421	481.78
402.635	481.78
402.848	598.52
403.061	967.15
403.275	645.62
403.488	451.07
403.701	1116.65
403.915	776.69
404.128	590.33
404.341	592.37
404.555	762.36
404.768	719.35
404.981	709.11
405.195	569.85
405.408	1190.38
405.621	909.81
405.834	680.44
406.048	606.71
406.261	1139.18
406.474	1210.86
406.687	547.32
406.9	723.44
407.114	705.01
407.327	821.75
407.54	440.83
407.753	541.18
407.966	596.47
408.179	975.35
408.392	571.9
408.605	596.47
408.819	870.9
409.032	934.39
409.245	604.66
409.458	940.53
409.671	1010.16
409.884	1128.94
410.097	664.05
410.31	879.09
410.523	946.67
410.736	842.23
410.949	793.08
411.162	803.32
411.375	1233.39
411.588	1108.46
411.801	944.63
412.014	807.41
412.227	934.39
412.44	760.31
412.653	750.07
412.865	928.24
413.078	1128.94
413.291	1098.22
413.504	821.75
413.717	885.23
413.93	1126.89
414.143	778.74
414.356	819.7
414.568	635.38
414.781	1241.58
414.994	1077.74
415.207	809.46
415.42	807.41
415.632	1274.35
415.845	1432.04
416.058	725.49
416.271	717.3
416.483	1061.36
416.696	1370.6
416.909	901.62
417.121	967.15
417.334	1260.01
417.547	1563.11
417.759	879.09
417.972	791.03
418.185	1010.16
418.397	1331.69
418.61	944.63
418.823	885.23
419.035	1475.05
419.248	1120.75
419.46	975.35
419.673	1100.27
419.885	1405.42
420.098	1077.74
420.311	1036.78
420.523	922.1
420.736	1354.22
420.948	1235.44
421.161	1094.13
421.373	928.24
421.586	1315.31
421.798	1128.94
422.01	883.19
422.223	1147.37
422.435	1167.85
422.648	1399.27
422.86	1147.37
423.073	1079.79
423.285	1741.29
423.497	1020.4
423.71	1219.05
423.922	1106.42
424.134	1444.33
424.347	1704.42
424.559	1423.85
424.771	1429.99
424.984	1210.86
425.196	1497.58
425.408	1010.16
425.621	1071.6
425.833	1671.65
426.045	1685.99
426.257	1163.76
426.47	1257.96
426.682	1610.22
426.894	1554.92
427.106	1307.12
427.318	1331.69
427.531	1323.5
427.743	1700.33
427.955	1411.56
428.167	1784.29
428.379	1718.76
428.591	1522.15
428.804	1542.63
429.016	1251.82
429.228	1409.51
429.44	1718.76
429.652	1612.26
429.864	1243.63
430.076	1507.82
430.288	1589.74
430.5	1409.51
430.712	1778.15
430.924	1927.65
431.136	1655.27
431.348	1491.43
431.56	1479.15
431.772	1755.62
431.984	1657.32
432.196	1499.63
432.408	1612.26
432.62	1706.47
432.832	1817.06
433.044	1901.03
433.256	1759.72
433.468	1927.65
433.679	1626.6
433.891	1513.96
434.103	2015.71
434.315	2177.5
434.527	1999.33
434.739	1831.4
434.95	1894.88
435.162	2071.01
435.374	1892.84
435.586	1800.68
435.798	1901.03
436.009	1753.57
436.221	1890.79
436.433	1874.4
436.645	1825.25
436.856	1923.55
437.068	2214.37
437.28	1829.35
437.491	2075.1
437.703	2271.71
437.915	2099.68
438.126	2079.2
438.338	2134.5
438.55	2136.54
438.761	2353.63
438.973	2071.01
439.184	1915.36
439.396	2218.46
439.608	2419.16
439.819	1997.28
440.031	2150.88
440.242	2359.77
440.454	2402.78
440.665	2097.63
440.877	2267.61
441.088	2372.06
441.3	2185.69
441.511	2021.86
441.723	1984.99
441.934	2365.92
442.146	2433.5
442.357	2505.18
442.569	2468.31
442.78	2351.58
442.991	2730.45
443.203	2673.11
443.414	2193.89
443.626	2734.55
443.837	2312.67
444.048	2206.17
444.26	2103.78
444.471	2435.55
444.682	2599.38
444.894	2122.21
445.105	2126.3
445.316	2662.87
445.528	2542.04
445.739	2423.26
445.95	2298.33
446.161	2718.17
446.373	2810.33
446.584	2521.56
446.795	2386.4
447.006	2808.28
447.217	3101.14
447.429	2310.62
447.64	2427.35
447.851	2802.13
448.062	2644.44
448.273	2257.37
448.484	2505.18
448.695	2779.61
448.907	2619.86
449.118	2634.2
449.329	2664.92
449.54	2544.09
449.751	2546.14
449.962	2613.72
450.173	2546.14
450.384	3054.03
450.595	3152.34
450.806	2693.59
451.017	2736.6
451.228	3275.21
451.439	3258.83
451.65	2863.57
451.861	2488.79
452.072	2654.68
452.283	3017.17
452.494	3004.88
452.705	2679.26
452.915	3387.85
453.126	3295.69
453.337	2961.87
453.548	3019.22
453.759	3295.69
453.97	3609.03
454.181	2984.4
454.391	3109.33
454.602	3418.57
454.813	3336.65
455.024	3185.1
455.235	2892.24
455.445	3125.71
455.656	3350.99
455.867	3279.31
456.078	3252.69
456.288	3199.44
456.499	3369.42
456.71	3119.57
456.921	3512.78
457.131	3674.57
457.342	3457.48
457.553	3353.04
457.763	3138
457.974	3709.38
458.184	3789.25
458.395	3267.02
458.606	3600.84
458.816	3779.01
459.027	4305.34
459.237	3611.08
459.448	3350.99
459.659	3967.43
459.869	4374.97
460.08	3469.77
460.29	3965.38
460.501	4413.88
460.711	3764.68
460.922	3490.25
461.132	3879.36
461.343	4626.87
461.553	3869.12
461.764	3672.52
461.974	3944.9
462.184	4084.16
462.395	4422.08
462.605	4088.26
462.816	3930.56
463.026	4266.43
463.236	4753.85
463.447	4262.33
463.657	4088.26
463.867	4839.86
464.078	4440.51
464.288	4555.19
464.498	4483.52
464.709	4520.38
464.919	4516.28
465.129	4489.66
465.339	4473.28
465.55	4807.09
465.76	4985.27
465.97	4417.98
466.18	4477.37
466.391	5147.06
466.601	4934.07
466.811	4983.22
467.021	4739.51
467.231	5261.74
467.441	5314.99
467.651	5216.69
467.862	4764.09
468.072	5335.47
468.282	5792.17
468.492	5081.52
468.702	5439.92
468.912	5562.8
469.122	6050.21
469.332	5675.43
469.542	5392.81
469.752	5923.24
469.962	5896.61
470.172	5601.71
470.382	5747.11
470.592	6185.38
470.802	6453.66
471.012	6046.12
471.222	5835.17
471.432	6402.46
471.642	6531.48
471.852	6330.78
472.062	6199.71
472.272	6492.57
472.482	6312.35
472.691	6455.71
472.901	6459.81
473.111	6814.1
473.321	7399.82
473.531	6576.54
473.741	6797.72
473.95	7270.8
474.16	7080.34
474.37	7082.39
474.58	6769.05
474.79	7713.16
474.999	7674.25
475.209	7174.55
475.419	7436.69
475.628	7551.37
475.838	8065.41
476.048	7526.8
476.258	7403.92
476.467	8348.03
476.677	7944.58
476.886	8102.28
477.096	8118.66
477.306	8288.64
477.515	8558.97
477.725	8163.72
477.935	8302.98
478.144	8878.46
478.354	8423.81
478.563	8694.14
478.773	8577.41
478.982	9105.78
479.192	9214.32
479.401	9017.72
479.611	8878.46
479.82	9111.92
480.03	9320.82
480.239	9165.17
480.449	9099.64
480.658	10086.76
480.868	9714.03
481.077	9597.29
481.287	9673.07
481.496	10109.29
481.705	10312.03
481.915	10226.02
482.124	10027.37
482.333	10414.43
482.543	10871.13
482.752	10305.89
482.961	10178.92
483.171	10903.9
483.38	10492.26
483.589	10619.23
483.799	10703.2
484.008	10953.05
484.217	11196.76
484.426	11112.79
484.636	10996.06
484.845	11290.96
485.054	11198.81
485.263	11540.82
485.472	11391.31
485.682	12087.62
485.891	11934.03
486.1	11237.72
486.309	11782.48
486.518	11860.3
486.727	12300.61
486.936	12093.77
487.146	12120.39
487.355	12708.16
487.564	12128.58
487.773	12413.25
487.982	12345.67
488.191	12552.51
488.4	12704.06
488.609	12687.68
488.818	12869.95
489.027	13637.94
489.236	13416.76
489.445	12929.34
489.654	12687.68
489.863	13803.82
490.072	13250.87
490.281	13484.34
490.49	13392.18
490.698	13904.17
490.907	14020.91
491.116	13699.37
491.325	13451.57
491.534	14219.56
491.743	14266.66
491.952	14143.78
492.16	13988.14
492.369	14227.75
492.578	14842.14
492.787	14168.36
492.996	14203.18
493.204	14360.87
493.413	15065.37
493.622	14272.81
493.831	14235.94
494.039	15206.68
494.248	14565.67
494.457	14860.57
494.665	14760.22
494.874	15069.47
495.083	15747.34
495.291	15184.15
495.5	14823.71
495.709	15759.63
495.917	15421.72
496.126	15483.16
496.335	15485.2
496.543	15737.1
496.752	15939.85
496.96	16044.3
497.169	15589.65
497.377	15964.43
497.586	16371.97
497.794	16191.75
498.003	15923.47
498.211	16242.95
498.42	16793.86
498.628	16404.74
498.837	16337.16
499.045	16351.49
499.254	16341.25
499.462	16404.74
499.671	16593.15
499.879	17039.61
500.087	17105.15
500.296	16705.79
500.504	16791.81
500.713	17215.74
500.921	17772.78
501.129	17008.89
501.338	17156.35
501.546	17584.37
501.754	17379.57
501.962	17289.46
502.171	17299.7
502.379	17830.13
502.587	18036.97
502.795	17813.74
503.004	17324.28
503.212	17666.29
503.42	18182.38
503.628	17441.01
503.837	18016.49
504.045	18227.43
504.253	18710.75
504.461	17993.97
504.669	18067.69
504.877	18354.41
505.085	18665.7
505.294	18262.25
505.502	18311.4
505.71	18727.14
505.918	18585.83
506.126	18761.95
506.334	18356.46
506.542	18854.11
506.75	18712.8
506.958	18700.51
507.166	19009.76
507.374	18860.26
507.582	19466.45
507.79	19189.98
507.998	18919.65
508.206	19202.27
508.414	19370.2
508.622	19478.74
508.83	19214.55
509.037	19951.82
509.245	19327.19
509.453	19042.53
509.661	19181.79
509.869	19564.76
510.077	19521.75
510.285	19855.57
510.492	19300.57
510.7	20662.47
510.908	19927.25
511.116	19841.23
511.324	19538.13
511.531	20117.71
511.739	20054.22
511.947	20095.18
512.155	20263.11
512.362	20072.65
512.57	20138.19
512.778	20021.45
512.985	20091.09
513.193	20318.41
513.401	20574.41
513.608	20598.98
513.816	20332.75
514.024	20777.15
514.231	21024.96
514.439	20439.24
514.646	20564.17
514.854	20830.4
515.061	20908.22
515.269	20697.28
515.477	20814.02
515.684	20922.56
515.892	21264.57
516.099	20818.11
516.307	20781.25
516.514	21577.91
516.722	21690.55
516.929	21215.42
517.136	21158.08
517.344	21833.91
517.551	21704.88
517.759	21272.76
517.966	21604.53
518.173	21258.43
518.381	21809.33
518.588	21383.35
518.796	21522.62
519.003	22063.28
519.21	22165.68
519.418	21876.91
519.625	22038.7
519.832	22053.04
520.039	22270.12
520.247	22376.62
520.454	22137.01
520.661	22722.73
520.868	22427.82
521.076	22429.87
521.283	22274.22
521.49	22952.1
521.697	22874.27
521.904	22413.48
522.112	22444.2
522.319	22886.56
522.526	22591.66
522.733	22542.5
522.94	22993.06
523.147	22868.13
523.354	23171.23
523.561	22847.65
523.768	22565.03
523.975	23658.65
524.183	23324.83
524.39	23228.57
524.597	22853.8
524.804	23490.71
525.011	23763.09
525.218	23543.96
525.425	23367.84
525.632	23928.98
525.838	23709.85
526.045	23767.19
526.252	23656.6
526.459	25325.69
526.666	24907.91
526.873	24203.41
527.08	24062.1
527.287	24619.14
527.494	23976.08
527.701	24219.79
527.907	23759
528.114	24334.48
528.321	24459.4
528.528	24551.56
528.735	24512.65
528.941	24184.97
529.148	24049.81
529.355	24350.86
529.562	24203.41
529.768	24830.09
529.975	24379.53
530.182	24385.68
530.388	24574.09
530.595	25124.99
530.802	24543.37
531.008	25280.64
531.215	25014.4
531.422	25847.93
531.628	26194.03
531.835	25196.67
532.042	25114.75
532.248	25309.31
532.455	25426.04
532.661	25409.66
532.868	25446.52
533.074	26110.07
533.281	25843.83
533.487	25536.63
533.694	25663.61
533.9	25827.45
534.107	26189.94
534.313	25913.46
534.52	25694.33
534.726	26464.36
534.933	26527.85
535.139	26112.11
535.345	25944.18
535.552	26513.52
535.758	26419.31
535.965	26212.46
536.171	26495.08
536.377	26484.84
536.584	26966.12
536.79	26290.29
536.996	27062.37
537.203	26931.3
537.409	26806.37
537.615	26789.99
537.821	26890.34
538.028	27881.56
538.234	27416.67
538.44	26859.62
538.646	26914.92
538.853	27572.32
539.059	27002.98
539.265	27431.01
539.471	27222.11
539.677	27748.44
539.883	27654.23
540.09	27238.5
540.296	27875.41
540.502	28059.73
540.708	27451.49
540.914	28285.01
541.12	27918.42
541.326	28289.1
541.532	28108.88
541.738	28168.27
541.944	28162.13
542.15	28749.9
542.356	28883.02
542.562	28242
542.768	28280.91
542.974	28889.16
543.18	29157.44
543.386	28463.18
543.592	28538.96
543.798	28950.6
544.004	29124.68
544.21	28813.38
544.415	28788.81
544.621	28993.61
544.827	29270.08
545.033	29081.67
545.239	29149.25
545.445	29161.54
545.651	29188.16
545.856	29308.99
546.062	29139.01
546.268	29104.2
546.474	29575.23
546.679	29026.37
546.885	29190.21
547.091	29462.59
547.297	29476.93
547.502	29227.07
547.708	29370.43
547.914	29112.39
548.119	29954.1
548.325	29306.94
548.531	29206.59
548.736	30109.75
548.942	29579.32
549.147	29315.14
549.353	30011.45
549.559	30226.48
549.764	29909.05
549.97	29608
550.175	29845.56
550.381	30117.94
550.586	29765.69
550.792	29802.55
550.997	30380.08
551.203	30302.26
551.408	30586.93
551.614	29904.95
551.819	30341.17
552.025	31103.01
552.23	31416.35
552.435	30564.4
552.641	31297.57
552.846	30722.09
553.052	31584.29
553.257	31076.39
553.462	31209.51
553.668	30933.03
553.873	31795.23
554.078	31074.34
554.283	31170.6
554.489	31260.71
554.694	31479.84
554.899	30986.28
555.105	31524.89
555.31	31615.01
555.515	31815.71
555.72	31694.88
555.925	31348.77
556.131	32348.18
556.336	31848.47
556.541	31858.71
556.746	31823.9
556.951	32299.03
557.156	32260.12
557.361	31655.96
557.567	32516.11
557.772	32544.78
557.977	32499.73
558.182	32049.17
558.387	31584.29
558.592	32075.8
558.797	32462.86
559.002	32165.91
559.207	32419.86
559.412	32266.26
559.617	32792.59
559.822	32143.38
560.027	32010.26
560.232	32743.44
560.437	33097.73
560.642	31993.88
560.847	32593.93
561.051	32669.71
561.256	32847.88
561.461	32555.02
561.666	32350.23
561.871	32919.56
562.076	32827.4
562.281	32784.4
562.485	32444.43
562.69	33214.47
562.895	33302.53
563.1	33017.86
563.305	32487.44
563.509	33325.06
563.714	33781.76
563.919	32860.17
564.123	33341.44
564.328	33107.97
564.533	33445.89
564.737	32679.95
564.942	33183.75
565.147	33511.42
565.351	34248.69
565.556	33253.38
565.761	33148.93
565.965	33781.76
566.17	33314.82
566.374	33157.13
566.579	33280
566.784	33593.34
566.988	33617.92
567.193	33734.65
567.397	33157.13
567.602	33337.35
567.806	33507.33
568.011	33796.09
568.215	33482.75
568.42	33785.85
568.624	33859.58
568.828	33167.37
569.033	33865.72
569.237	34197.49
569.442	34764.78
569.646	33701.89
569.85	34263.03
570.055	34426.87
570.259	34271.22
570.463	34347
570.668	34213.88
570.872	34519.03
571.076	34392.05
571.281	34287.6
571.485	34060.28
571.689	34467.83
571.893	35067.88
572.098	34744.3
572.302	34519.03
572.506	34635.76
572.71	34803.69
572.914	34879.47
573.119	34856.94
573.323	35231.72
573.527	35057.64
573.731	34699.25
573.935	35114.98
574.139	35049.45
574.343	34930.67
574.547	35057.64
574.751	35092.46
574.955	35674.08
575.159	35465.19
575.364	34902
575.568	35143.66
575.772	35510.24
575.976	35719.13
576.18	34861.04
576.383	35518.43
576.587	35825.63
576.791	35952.6
576.995	35270.63
577.199	35254.25
577.403	35735.52
577.607	36605.91
577.811	36005.85
578.015	35688.42
578.219	36018.14
578.422	35981.27
578.626	35823.58
578.83	35819.49
579.034	36085.72
579.238	36050.91
579.442	36138.97
579.645	36284.37
579.849	36599.76
580.053	36884.43
580.257	36007.9
580.46	36423.64
580.664	36325.33
580.868	36571.09
581.071	36386.77
581.275	36331.48
581.479	36431.83
581.682	36906.96
581.886	36360.15
582.09	36614.1
582.293	36990.92
582.497	37185.48
582.7	37066.7
582.904	36980.68
583.107	36966.35
583.311	36741.07
583.515	36505.55
583.718	37081.03
583.922	37291.97
584.125	37654.47
584.329	36509.65
584.532	37423.04
584.735	37867.45
584.939	37136.33
585.142	36775.89
585.346	37224.39
585.549	37318.6
585.753	37607.36
585.956	37541.83
586.159	37226.44
586.363	38344.63
586.566	37988.28
586.769	37681.09
586.973	37185.48
587.176	37896.13
587.379	38358.97
587.582	38238.14
587.786	38137.79
587.989	37957.56
588.192	38414.26
588.395	38133.69
588.599	38168.51
588.802	38180.79
589.005	38152.12
589.208	38086.59
589.411	37859.26
589.615	38420.41
589.818	38852.53
590.021	38492.08
590.224	38211.51
590.427	38993.84
590.63	39051.18
590.833	38537.14
591.036	38358.97
591.239	39042.99
591.442	38647.73
591.645	38733.74
591.848	39104.43
592.051	39139.24
592.254	39161.77
592.457	39155.63
592.66	38805.42
592.863	39528.36
593.066	39452.58
593.269	39317.42
593.472	39663.52
593.675	39272.36
593.878	39442.34
594.081	39442.34
594.284	38922.16
594.486	39729.06
594.689	39937.95
594.892	39065.52
595.095	39700.39
595.298	39747.49
595.5	39923.61
595.703	40032.16
595.906	39892.9
596.109	40406.94
596.311	40062.88
596.514	39423.91
596.717	40169.37
596.92	40558.49
597.122	40054.68
597.325	39231.4
597.528	39868.32
597.73	40798.1
597.933	40245.15
598.136	40222.62
598.338	39757.73
598.541	40703.89
598.743	41133.96
598.946	40030.11
599.148	40894.35
599.351	40351.64
599.554	40773.52
599.756	40306.58
599.959	40961.93
600.161	40822.67
600.363	41633.67
600.566	40976.27
600.768	40505.24
600.971	41453.45
601.173	41156.49
601.376	41029.52
601.578	40906.64
601.78	41394.06
601.983	41615.24
602.185	40640.4
602.388	41371.53
602.59	41387.91
602.792	41428.87
602.995	40961.93
603.197	40892.3
603.399	41422.73
603.601	41170.83
603.804	41342.86
604.006	41260.94
604.208	41093
604.41	41144.2
604.613	41179.02
604.815	41138.06
605.017	41955.2
605.219	41181.07
605.421	41191.31
605.623	41490.31
605.826	42121.09
606.028	41949.06
606.23	40826.77
606.432	41287.56
606.634	42452.86
606.836	41684.87
607.038	41586.57
607.24	41430.92
607.442	41619.33
607.644	41725.83
607.846	42180.48
608.048	41209.74
608.25	41914.24
608.452	41676.68
608.654	41918.34
608.856	40730.51
609.058	41762.69
609.26	41987.97
609.462	41981.82
609.664	41625.48
609.866	42252.16
610.067	41963.39
610.269	42102.65
610.471	41758.59
610.673	42106.75
610.875	42207.1
611.077	41621.38
611.278	41930.62
611.48	42018.69
611.682	42012.54
611.884	42602.36
612.085	41762.69
612.287	41680.77
612.489	42096.51
612.69	41215.88
612.892	42094.46
613.094	42440.57
613.295	42305.4
613.497	41572.23
613.699	41871.23
613.9	42635.13
614.102	42073.98
614.304	41605
614.505	41691.01
614.707	42479.48
614.908	42379.13
615.11	41623.43
615.311	42157.95
615.513	42540.92
615.714	42424.18
615.916	42047.36
616.117	42420.09
616.319	42434.42
616.52	42590.07
616.722	42123.13
616.923	42631.03
617.124	42717.04
617.326	42553.21
617.527	41957.25
617.729	42307.45
617.93	42536.82
618.131	42653.56
618.333	41953.15
618.534	42110.85
618.735	42325.88
618.937	42575.73
619.138	42082.17
619.339	42094.46
619.54	42647.41
619.742	42919.79
619.943	42446.71
620.144	42227.58
620.345	43077.49
620.546	43032.43
620.748	42307.45
620.949	42758
621.15	42649.46
621.351	42882.93
621.552	42239.87
621.753	42217.34
621.954	42401.66
622.155	42706.8
622.356	42635.13
622.558	42452.86
622.759	42749.81
622.96	43243.37
623.161	42207.1
623.362	42571.64
623.563	42719.09
623.764	42669.94
623.965	42737.52
624.166	43290.48
624.366	42676.08
624.567	43018.1
624.768	42467.19
624.969	42526.58
625.17	42794.87
625.371	43005.81
625.572	42614.65
625.773	42565.49
625.973	43186.03
626.174	43186.03
626.375	42817.39
626.576	43011.95
626.777	43177.84
626.977	43675.49
627.178	42698.61
627.379	42526.58
627.58	42702.71
627.78	43136.88
627.981	42690.42
628.182	43132.78
628.382	43569
628.583	42375.03
628.784	42712.95
628.984	42508.15
629.185	43306.86
629.386	42913.65
629.586	43048.82
629.787	43040.62
629.987	43550.57
630.188	43427.69
630.388	43450.22
630.589	42966.9
630.79	43851.62
630.99	43181.93
631.191	42778.48
631.391	43669.35
631.591	43265.9
631.792	43607.91
631.992	44160.86
632.193	44023.65
632.393	43597.67
632.594	43640.68
632.794	43007.86
632.994	43806.56
633.195	43468.65
633.395	43898.72
633.595	43290.48
633.796	43519.85
633.996	43364.2
634.196	43571.05
634.397	43911.01
634.597	43462.5
634.797	43575.14
634.997	43829.09
635.198	43581.29
635.398	43665.25
635.598	44060.51
635.798	44005.22
635.998	43433.83
636.199	43280.24
636.399	43714.4
636.599	43591.53
636.799	43437.93
636.999	43792.23
637.199	43947.87
637.399	44238.68
637.599	43845.47
637.799	43585.38
637.999	43708.26
638.199	44363.61
638.399	43900.77
638.599	43730.79
638.799	44240.73
638.999	44795.73
639.199	44054.37
639.399	43978.59
639.599	44787.54
639.799	43976.54
639.999	44369.75
640.199	43915.11
640.399	44306.27
640.599	42991.47
640.799	44341.08
640.998	44371.8
641.198	44158.81
641.398	44304.22
641.598	44423
641.798	44384.09
641.997	45057.87
642.197	44384.09
642.397	44578.65
642.597	44154.72
642.796	44519.26
642.996	44805.97
643.196	44357.47
643.395	43722.6
643.595	44627.8
643.795	44310.36
643.994	44412.76
644.194	44627.8
644.394	44592.98
644.593	44517.21
644.793	44486.49
644.992	44775.25
645.192	44603.22
645.392	44162.91
645.591	44627.8
645.791	44635.99
645.99	44783.44
646.19	44771.16
646.389	44672.85
646.589	44701.53
646.788	44871.51
646.987	45025.1
647.187	45084.5
647.386	44900.18
647.586	45229.9
647.785	45539.15
647.984	45053.78
648.184	44607.32
648.383	44824.4
648.582	44980.05
648.782	44603.22
648.981	45190.99
649.18	44715.86
649.38	45125.46
649.579	44595.03
649.778	44781.4
649.977	45700.93
650.177	45354.83
650.376	44863.32
650.575	44453.72
650.774	45436.75
650.973	45086.54
651.173	44642.13
651.372	45002.58
651.571	45172.56
651.77	45608.78
651.969	44799.83
652.168	45137.74
652.367	45109.07
652.566	45612.87
652.765	45442.89
652.964	45758.28
653.163	46192.45
653.362	45428.55
653.561	45172.56
653.76	45487.95
653.959	45262.67
654.158	46167.87
654.357	45786.95
654.556	45348.68
654.755	45688.65
654.954	46155.58
655.153	44932.95
655.352	45633.35
655.551	46114.62
655.749	46090.05
655.948	45422.41
656.147	45805.38
656.346	45963.07
656.545	45922.12
656.743	45567.82
656.942	45504.33
657.141	45639.5
657.34	45461.32
657.538	45449.03
657.737	45535.05
657.936	45533
658.135	45692.74
658.333	45541.19
658.532	45543.24
658.731	46126.91
658.929	46110.53
659.128	46104.38
659.326	45633.35
659.525	45881.16
659.724	45827.91
659.922	45715.27
660.121	45533
660.319	45991.75
660.518	45485.9
660.716	45451.08
660.915	45160.27
661.113	46112.58
661.312	45352.78
661.51	45709.13
661.709	45649.74
661.907	46051.14
662.105	46122.82
662.304	45535.05
662.502	46176.06
662.701	46131.01
662.899	45561.67
663.097	46126.91
663.296	45619.02
663.494	46262.08
663.692	46231.36
663.891	45494.09
664.089	45215.57
664.287	46335.8
664.485	46174.02
664.684	45694.79
664.882	45449.03
665.08	45823.81
665.278	46139.2
665.476	46102.34
665.675	45938.5
665.873	46167.87
666.071	46034.75
666.269	45223.76
666.467	45395.79
666.665	46157.63
666.863	45467.47
667.061	45367.12
667.259	45991.75
667.457	46354.24
667.655	45901.64
667.853	45330.25
668.051	45205.33
668.249	45428.55
668.447	45485.9
668.645	45485.9
668.843	46055.23
669.041	45870.92
669.239	45082.45
669.437	45455.18
669.635	45997.89
669.833	45946.69
670.031	45672.26
670.229	45184.85
670.426	46022.47
670.624	45315.92
670.822	45676.36
671.02	45567.82
671.218	45784.9
671.415	45455.18
671.613	45592.39
671.811	45260.62
672.009	45375.31
672.206	45967.17
672.404	45582.15
672.602	45467.47
672.799	45645.64
672.997	46094.14
673.195	45582.15
673.392	45533
673.59	45365.07
673.788	45651.78
673.985	44705.62
674.183	45125.46
674.38	45700.93
674.578	45461.32
674.775	45311.82
674.973	45078.35
675.17	44922.71
675.368	45877.06
675.565	45610.82
675.763	45272.91
675.96	45455.18
676.158	46026.56
676.355	45053.78
676.553	45262.67
676.75	45074.26
676.947	45516.62
677.145	45393.74
677.342	45358.92
677.539	44937.04
677.737	45113.17
677.934	45338.44
678.131	45379.4
678.329	45137.74
678.526	45184.85
678.723	45459.27
678.92	45242.19
679.118	44803.92
679.315	44713.81
679.512	45379.4
679.709	44934.99
679.906	44812.12
680.104	45504.33
680.301	45156.17
680.498	44488.54
680.695	44762.96
680.892	44578.65
681.089	44601.18
681.286	45145.94
681.483	44377.95
681.68	44918.61
681.877	45465.42
682.075	44959.57
682.272	44875.6
682.469	45207.37
682.665	44441.43
682.862	44867.41
683.059	44359.52
683.256	44773.2
683.453	44797.78
683.65	44586.84
683.847	44732.25
684.044	44625.75
684.241	44115.81
684.438	44851.03
684.635	44302.17
684.831	44564.31
685.028	44975.95
685.225	44044.13
685.422	44281.69
685.619	44484.44
685.815	44291.93
686.012	44627.8
686.209	43476.84
686.405	44349.28
686.602	44420.95
686.799	43968.35
686.996	44488.54
687.192	43640.68
687.389	44468.06
687.586	43843.43
687.782	43781.99
687.979	44533.59
688.175	44136.29
688.372	43812.71
688.568	43911.01
688.765	43745.12
688.962	44617.56
689.158	43728.74
689.355	43640.68
689.551	43945.83
689.748	43429.74
689.944	43378.54
690.14	43495.27
690.337	43790.18
690.533	43954.02
690.73	43478.89
690.926	43759.46
691.123	43464.55
691.319	44070.75
691.515	43343.72
691.712	43222.89
691.908	43474.79
692.104	43476.84
692.301	43456.36
692.497	43317.1
692.693	43888.48
692.889	43843.43
693.086	43491.18
693.282	43353.96
693.478	43802.47
693.674	44175.2
693.87	43396.97
694.067	43485.03
694.263	43571.05
694.459	43407.21
694.655	43767.65
694.851	43607.91
695.047	43335.53
695.243	43972.45
695.439	43128.69
695.635	42907.51
695.831	43220.84
696.027	43560.81
696.224	42794.87
696.42	43396.97
696.615	43788.13
696.811	43509.61
697.007	42919.79
697.203	42880.88
697.399	43046.77
697.595	43181.93
697.791	42872.69
697.987	42497.91
698.183	42917.75
698.379	42299.26
698.575	43014
698.77	43136.88
698.966	42790.77
699.162	42921.84
699.358	42563.45
699.554	42389.37
699.749	43370.35
699.945	42991.47
700.141	42436.47
700.337	42106.75
700.532	42409.85
700.728	42598.26
700.924	42395.51
701.119	42354.55
701.315	42465.14
701.511	42680.18
701.706	42905.46
701.902	41936.77
702.097	42764.15
702.293	42780.53
702.489	42366.84
702.684	42407.8
702.88	42440.57
703.075	42071.93
703.271	41766.79
703.466	42084.22
703.662	42465.14
703.857	42592.12
704.053	42276.73
704.248	42100.61
704.443	42618.74
704.639	42610.55
704.834	41840.51
705.03	41906.05
705.225	42352.51
705.42	42510.2
705.616	41873.28
705.811	41951.1
706.006	42215.29
706.202	42194.81
706.397	41811.84
706.592	41803.65
706.787	41779.07
706.983	41924.48
707.178	42841.97
707.373	41971.58
707.568	41805.7
707.763	41873.28
707.959	41928.58
708.154	41609.09
708.349	41441.16
708.544	41926.53
708.739	41828.23
708.934	41578.37
709.129	42102.65
709.324	42010.49
709.519	41797.51
709.714	41355.14
709.909	42366.84
710.104	41797.51
710.299	41742.21
710.494	42059.65
710.689	41594.76
710.884	41600.9
711.079	41592.71
711.274	42096.51
711.469	42340.22
711.664	41600.9
711.859	41535.37
712.054	41539.46
712.249	41684.87
712.443	42055.55
712.638	41428.87
712.833	41166.73
713.028	41545.61
713.223	40968.08
713.417	41578.37
713.612	41160.59
713.807	41705.35
714.002	42026.88
714.196	41412.49
714.391	41019.28
714.586	41179.02
714.78	41504.65
714.975	40925.07
715.17	40488.85
715.364	41344.91
715.559	41531.27
715.754	40105.88
715.948	40609.68
716.143	41305.99
716.337	40937.36
716.532	41142.16
716.726	40875.92
716.921	41121.68
717.115	41142.16
717.31	40673.17
717.504	41203.6
717.699	41103.24
717.893	40630.16
718.088	40134.56
718.282	40636.31
718.476	40417.18
718.671	40564.63
718.865	40306.58
719.059	40318.87
719.254	41068.43
719.448	40830.86
719.642	41377.67
719.837	40073.12
720.031	40658.84
720.225	40083.36
720.419	40271.77
720.614	40200.09
720.808	40857.49
721.002	40417.18
721.196	40120.22
721.39	39915.42
721.585	39976.86
721.779	40036.25
721.973	39767.97
722.167	39464.87
722.361	40263.58
722.555	40097.69
722.749	39454.63
722.943	39782.3
723.137	39591.84
723.331	40077.21
723.525	39554.98
723.719	39421.86
723.913	40003.49
724.107	39856.03
724.301	39442.34
724.495	39597.99
724.689	40120.22
724.883	40169.37
725.077	39700.39
725.271	39763.87
725.465	40058.78
725.659	40056.73
725.853	39471.01
726.046	39219.11
726.24	39038.89
726.434	39675.81
726.628	39708.58
726.822	39438.25
727.015	40234.91
727.209	39544.74
727.403	39341.99
727.596	39260.07
727.79	39669.67
727.984	39817.12
728.177	39438.25
728.371	39733.15
728.565	39966.62
728.758	39636.9
728.952	39790.5
729.146	39554.98
729.339	39894.94
729.533	39614.37
729.726	39411.62
729.92	39727.01
730.113	40511.38
730.307	40308.63
730.5	39339.94
730.694	39608.23
730.887	39532.45
731.081	40148.89
731.274	39253.93
731.468	39714.72
731.661	39589.8
731.854	39098.28
732.048	39221.16
732.241	38969.26
732.435	39759.78
732.628	39212.97
732.821	39176.11
733.014	39743.39
733.208	39450.53
733.401	40064.92
733.594	39356.33
733.788	39700.39
733.981	39831.46
734.174	39657.38
734.367	39636.9
734.56	40249.24
734.754	39569.32
734.947	39645.09
735.14	39456.68
735.333	39450.53
735.526	39702.43
735.719	39266.22
735.912	39018.41
736.105	39223.21
736.298	39004.08
736.491	39407.53
736.684	39258.02
736.877	39284.65
737.07	39544.74
737.263	39727.01
737.456	39188.39
737.649	39190.44
737.842	39133.1
738.035	39681.95
738.228	38844.34
738.421	39444.39
738.614	39503.78
738.807	39679.91
739	38682.55
739.192	39067.56
739.385	39477.16
739.578	39479.21
739.771	39430.05
739.964	38586.29
740.156	39475.11
740.349	39110.57
740.542	38791.09
740.735	38713.27
740.927	39157.67
741.12	38682.55
741.313	38799.28
741.505	39430.05
741.698	38989.74
741.891	39423.91
742.083	39120.81
742.276	39104.43
742.468	38873.01
742.661	38797.23
742.854	38932.4
743.046	38993.84
743.239	39286.7
743.431	39004.08
743.624	38758.32
743.816	38565.81
744.009	38840.24
744.201	38924.21
744.393	38651.83
744.586	38379.45
744.778	38954.93
744.971	38553.52
745.163	38725.55
745.355	38418.36
745.548	38393.78
745.74	38838.19
745.932	38631.35
746.125	38467.51
746.317	38950.83
746.509	38344.63
746.702	38225.85
746.894	38414.26
747.086	38246.33
747.278	38748.08
747.471	38354.87
747.663	38361.01
747.855	38418.36
748.047	39075.76
748.239	38176.7
748.431	38090.68
748.623	39038.89
748.815	38707.12
749.008	38236.09
749.2	38465.46
749.392	38266.81
749.584	38023.1
749.776	38131.64
749.968	37875.65
750.16	38922.16
750.352	37978.04
750.544	37963.71
750.736	37707.71
750.928	38469.56
751.12	37734.34
751.311	37797.82
751.503	37846.97
751.695	37994.43
751.887	37509.06
752.079	37535.68
752.271	37414.85
752.463	38528.95
752.654	38113.21
752.846	37478.34
753.038	37588.93
753.23	37046.22
753.421	37773.25
753.613	37267.4
753.805	37812.16
753.997	37242.82
754.188	37511.11
754.38	36929.48
754.572	37175.24
754.763	37320.65
754.955	37621.7
755.146	37210.06
755.338	36935.63
755.53	37027.79
755.721	36835.28
755.913	36849.61
756.104	36687.82
756.296	37050.31
756.487	36904.91
756.679	36761.55
756.87	36419.54
757.062	36523.99
757.253	37054.41
757.445	36646.86
757.636	36794.32
757.827	36818.89
758.019	37136.33
758.21	36319.19
758.401	36231.13
758.593	36743.12
758.784	37023.69
758.975	36116.44
759.167	36425.68
759.358	36706.26
759.549	36863.95
759.74	36110.3
759.932	35958.75
760.123	36659.15
760.314	36521.94
760.505	35932.12
760.696	36020.19
760.888	36802.51
761.079	35862.49
761.27	35923.93
761.461	35524.58
761.652	36560.85
761.843	35506.15
762.034	35938.27
762.225	35801.05
762.416	35983.32
762.607	35463.14
762.798	35792.86
762.989	35715.04
763.18	36347.86
763.371	35418.08
763.562	35538.91
763.753	35143.66
763.944	35712.99
764.135	35551.2
764.326	35489.76
764.517	34932.71
764.708	35180.52
764.899	35629.02
765.089	35377.12
765.28	35377.12
765.471	35153.9
765.662	35080.17
765.853	34906.09
766.043	34402.29
766.234	35274.73
766.425	34566.13
766.615	34514.93
766.806	34801.64
766.997	35086.31
767.187	34670.57
767.378	34549.74
767.569	34203.64
767.759	34254.84
767.95	34756.59
768.141	34295.8
768.331	34058.23
768.522	34674.67
768.712	34842.6
768.903	34197.49
769.093	33957.88
769.284	34551.79
769.474	34172.92
769.665	33761.28
769.855	33986.55
770.046	34531.31
770.236	33851.39
770.426	34072.57
770.617	34105.34
770.807	34377.72
770.998	33536
771.188	33843.2
771.378	33593.34
771.569	34181.11
771.759	33978.36
771.949	33277.96
772.139	33415.17
772.33	33329.16
772.52	34140.15
772.71	33353.73
772.9	33228.8
773.09	33904.63
773.281	33927.16
773.471	33419.27
773.661	33101.83
773.851	33140.74
774.041	33400.83
774.231	32917.51
774.421	33449.99
774.611	33484.8
774.802	33093.64
774.992	32702.48
775.182	32872.46
775.372	32989.19
775.562	33232.9
775.752	32696.33
775.942	32454.67
776.131	33067.02
776.321	32944.14
776.511	32684.05
776.701	32614.41
776.891	32956.43
777.081	32290.84
777.271	32311.31
777.461	32870.41
777.651	32665.61
777.84	33058.82
778.03	32331.79
778.22	32423.95
778.41	32940.04
778.599	31981.59
778.789	32163.86
778.979	31967.26
779.169	32565.26
779.358	32151.57
779.548	32372.75
779.738	31789.08
779.927	32256.02
780.117	31811.61
780.307	31895.58
780.496	31713.31
780.686	31772.7
780.875	32405.52
781.065	31498.27
781.254	31115.3
781.444	31227.94
781.633	31660.06
781.823	31543.33
782.012	31340.58
782.202	31281.19
782.391	31293.47
782.581	31168.55
782.77	31373.35
782.96	31590.43
783.149	30939.18
783.338	30898.22
783.528	30797.87
783.717	31508.51
783.906	31115.3
784.096	31107.11
784.285	30883.88
784.474	30861.35
784.663	30906.41
784.853	30826.54
785.042	30822.44
785.231	30787.63
785.42	31354.91
785.61	30842.92
785.799	30402.61
785.988	30851.11
786.177	30289.97
786.366	30566.45
786.555	30992.42
786.744	30795.82
786.933	30511.15
787.122	30423.09
787.312	30537.77
787.501	30482.48
787.69	30849.07
787.879	30468.14
788.068	30128.18
788.257	30136.37
788.445	30152.76
788.634	30674.99
788.823	30017.59
789.012	30834.73
789.201	30617.64
789.39	29925.43
789.579	30171.19
789.768	29753.4
789.957	30468.14
790.145	29974.58
790.334	29884.47
790.523	29863.99
790.712	30253.11
790.9	30011.45
791.089	29665.34
791.278	30214.19
791.467	29827.13
791.655	29816.89
791.844	29880.38
792.033	29474.88
792.221	29462.59
792.41	29626.43
792.599	29036.61
792.787	29796.41
792.976	30124.08
793.164	29438.01
793.353	28952.65
793.541	29511.74
793.73	29694.01
793.918	29356.1
794.107	29151.3
794.295	29390.91
794.484	29313.09
794.672	28739.66
794.861	28948.55
795.049	29349.95
795.238	29595.71
795.426	28760.14
795.614	29290.56
795.803	28934.21
795.991	29173.83
796.179	29167.68
796.368	28829.77
796.556	29216.83
796.744	28624.97
796.932	28612.68
797.121	28483.66
797.309	28821.58
797.497	29020.23
797.685	28637.26
797.874	28627.02
798.062	28780.62
798.25	29087.81
798.438	28870.73
798.626	28735.56
798.814	28725.32
799.002	29276.23
799.19	28729.42
799.378	28481.61
799.566	28700.75
799.755	28973.13
799.943	28665.93
800.131	28848.2
800.318	28915.78
800.506	28903.49
800.694	28510.28
800.882	28604.49
801.07	29337.66
801.258	28600.4
801.446	28969.03
801.634	28756.04
801.822	28813.38
802.01	28887.11
802.197	29073.48
802.385	28432.46
802.573	29083.72
802.761	28725.32
802.949	29005.89
803.136	28708.94
803.324	28858.44
803.512	29128.77
803.699	28604.49
803.887	28440.65
804.075	29306.94
804.262	29014.09
804.45	28854.34
804.638	28903.49
804.825	28956.74
805.013	28555.34
805.201	28956.74
805.388	28514.38
805.576	29104.2
805.763	29706.3
805.951	28903.49
806.138	28715.08
806.326	29446.21
806.513	29610.04
806.701	28958.79
806.888	29059.14
807.075	29749.31
807.263	29335.62
807.45	28985.41
807.638	29167.68
807.825	29466.69
808.012	29079.62
808.2	29042.76
808.387	29321.28
808.574	29384.77
808.761	29823.03
808.949	29372.48
809.136	29020.23
809.323	29485.12
809.51	29378.62
809.698	29218.88
809.885	29128.77
810.072	29167.68
810.259	29481.02
810.446	29329.47
810.633	29075.52
810.82	29487.17
811.008	30079.03
811.195	29460.54
811.382	29454.4
811.569	29583.42
811.756	29323.33
811.943	29710.39
812.13	29388.86
812.317	29053
812.504	29489.21
812.691	29399.1
812.878	29505.6
813.064	29597.76
813.251	29384.77
813.438	29255.75
813.625	29343.81
813.812	29433.92
813.999	29845.56
814.186	29233.22
814.372	29116.48
814.559	29274.18
814.746	29485.12
814.933	28991.56
815.12	29624.38
815.306	29149.25
815.493	28801.1
815.68	29583.42
815.866	28954.69
816.053	29636.67
816.24	29599.8
816.426	29407.3
816.613	28907.59
816.799	29544.51
816.986	29767.74
817.173	28786.76
817.359	29005.89
817.546	29493.31
817.732	28696.65
817.919	28719.18
818.105	29173.83
818.292	28799.05
818.478	29050.95
818.665	29225.03
818.851	29016.13
819.037	29530.17
819.224	29327.42
819.41	28446.8
819.597	28725.32
819.783	29329.47
819.969	29550.65
820.156	28733.51
820.342	28969.03
820.528	29747.26
820.714	28964.93
820.901	28936.26
821.087	28393.55
821.273	29395.01
821.459	28870.73
821.646	28848.2
821.832	29079.62
822.018	29218.88
822.204	28858.44
822.39	28409.93
822.576	28274.77
822.762	28559.44
822.948	28760.14
823.134	28821.58
823.32	28594.25
823.507	28307.54
823.693	28495.95
823.879	28766.28
824.065	28319.82
824.25	28127.31
824.436	28067.92
824.622	28213.33
824.808	28487.76
824.994	28483.66
825.18	28207.19
825.366	27975.77
825.552	28065.88
825.738	28272.72
825.923	28577.87
826.109	28541
826.295	27879.51
826.481	27867.22
826.667	28029.01
826.852	28194.9
827.038	28190.8
827.224	28543.05
827.409	28581.96
827.595	27856.98
827.781	27574.36
827.966	28409.93
828.152	28500.05
828.338	27811.93
828.523	27396.19
828.709	27961.43
828.894	28131.41
829.08	27414.62
829.266	27551.84
829.451	27828.31
829.637	27797.59
829.822	27873.37
830.008	27617.37
830.193	27977.81
830.378	27863.13
830.564	27748.44
830.749	27261.02
830.935	27813.98
831.12	27619.42
831.305	27441.25
831.491	27478.11
831.676	27113.57
831.861	27289.7
832.047	27195.49
832.232	27093.09
832.417	27574.36
832.602	27615.32
832.788	26734.7
832.973	27002.98
833.158	27310.18
833.343	27080.8
833.528	26923.11
833.714	27037.8
833.899	27111.52
834.084	27629.66
834.269	27107.43
834.454	26667.11
834.639	26925.16
834.824	26923.11
835.009	26626.15
835.194	26806.37
835.379	26959.97
835.564	26787.94
835.749	26660.97
835.934	26581.1
836.119	26992.74
836.304	26632.3
836.489	26427.5
836.674	26746.98
836.859	26585.19
837.044	27095.14
837.228	26656.87
837.413	26396.78
837.598	26828.9
837.783	26843.24
837.968	26560.62
838.152	25944.18
838.337	26183.79
838.522	26861.67
838.707	26902.63
838.891	26447.98
839.076	26642.54
839.261	26683.5
839.445	26067.06
839.63	26015.86
839.815	26253.42
839.999	25890.93
840.184	26253.42
840.368	25753.72
840.553	25976.95
840.737	26292.33
840.922	26007.67
841.106	25462.91
841.291	25667.7
841.475	25927.8
841.66	25675.9
841.844	25471.1
842.029	26607.72
842.213	25641.08
842.397	25555.07
842.582	25487.48
842.766	26450.03
842.951	25811.06
843.135	25348.22
843.319	25299.07
843.504	25641.08
843.688	25831.54
843.872	24795.27
844.056	25163.9
844.241	25473.15
844.425	25149.57
844.609	25266.3
844.793	25301.12
844.977	25548.92
845.161	25038.98
845.346	25061.51
845.53	25110.66
845.714	25163.9
845.898	25102.46
846.082	24936.58
846.266	24672.39
846.45	25299.07
846.634	25208.96
846.818	24942.72
847.002	24922.24
847.186	25387.13
847.37	24709.25
847.554	24561.8
847.738	24658.06
847.922	25004.16
848.106	24944.77
848.29	23982.23
848.473	24598.66
848.657	24971.39
848.841	25098.37
849.025	24363.15
849.209	24262.8
849.392	24500.36
849.576	24699.02
849.76	24121.49
849.944	24471.69
850.127	24873.09
850.311	23812.24
850.495	24090.77
850.678	23642.26
850.862	24572.04
851.046	24494.22
851.229	24090.77
851.413	23759
851.596	23808.15
851.78	24189.07
851.964	24385.68
852.147	23928.98
852.331	24838.28
852.514	24477.83
852.698	24273.04
852.881	23820.44
853.065	24051.86
853.248	23988.37
853.431	23826.58
853.615	23754.9
853.798	24320.14
853.982	23791.76
854.165	23885.97
854.348	23548.06
854.532	23584.92
854.715	23568.54
854.898	23427.23
855.081	23681.17
855.265	23675.03
855.448	24174.74
855.631	23316.64
855.814	23492.76
855.997	23591.06
856.181	23478.43
856.364	23603.35
856.547	23138.46
856.73	23107.74
856.913	23304.35
857.096	23132.32
857.279	23122.08
857.462	23101.6
857.645	23959.7
857.828	23423.13
858.011	23449.75
858.194	23144.61
858.377	23226.53
858.56	23103.65
858.743	23068.83
858.926	22802.6
859.109	22745.25
859.292	22665.38
859.475	22653.09
859.658	23423.13
859.841	22937.76
860.023	22577.32
860.206	22382.76
860.389	22806.69
860.572	23077.02
860.755	22431.91
860.937	22522.02
861.12	22270.12
861.303	22558.89
861.486	22354.09
861.668	22575.27
861.851	22671.53
862.034	22268.08
862.216	22239.4
862.399	21430.46
862.581	22194.35
862.764	22427.82
862.947	22208.69
863.129	21698.74
863.312	21592.25
863.494	22419.63
863.677	22126.77
863.859	21543.1
864.042	21905.59
864.224	22253.74
864.406	21747.89
864.589	21446.84
864.771	21639.35
864.954	21477.56
865.136	21291.2
865.318	21158.08
865.501	21520.57
865.683	21518.52
865.865	21317.82
866.048	21182.65
866.23	21428.41
866.412	21356.73
866.594	21176.51
866.777	21459.13
866.959	21594.29
867.141	21307.58
867.323	21680.31
867.505	21330.11
867.687	21424.31
867.869	21444.79
868.052	21270.72
868.234	21285.05
868.416	21526.71
868.598	21551.29
868.78	21014.72
868.962	20871.36
869.144	21455.03
869.326	21287.1
869.508	20893.89
869.69	20842.69
869.872	21029.06
870.054	21612.73
870.236	20654.28
870.417	20988.1
870.599	20889.79
870.781	21264.57
870.963	20918.46
871.145	20764.87
871.327	20744.39
871.508	21147.84
871.69	21303.48
871.872	20826.31
872.054	21045.44
872.235	21199.04
872.417	21018.82
872.599	20619.46
872.78	21608.63
872.962	21108.93
873.144	20707.52
873.325	20869.31
873.507	21579.96
873.689	20957.38
873.87	20887.75
874.052	21047.49
874.233	21063.87
874.415	21264.57
874.596	21104.83
874.778	20631.75
874.959	21008.58
875.141	21321.91
875.322	20805.83
875.503	20586.69
875.685	20979.9
875.866	20730.05
876.048	20594.89
876.229	20551.88
876.41	20744.39
876.592	21229.76
876.773	21055.68
876.954	20598.98
877.136	21473.46
877.317	20996.29
877.498	20705.48
877.679	21074.11
877.86	21291.2
878.042	21358.78
878.223	20951.23
878.404	21366.97
878.585	21186.75
878.766	21545.14
878.947	21045.44
879.128	21047.49
879.309	21301.43
879.49	21442.74
879.672	21334.2
879.853	20871.36
880.034	21110.97
880.215	21174.46
880.396	21299.39
880.576	21213.37
880.757	21334.2
880.938	21905.59
881.119	21326.01
881.3	21596.34
881.481	21711.03
881.662	22591.66
881.843	21512.38
882.023	21375.16
882.204	21674.17
882.385	21971.12
882.566	21539
882.747	21397.69
882.927	21864.63
883.108	21967.02
883.289	21762.23
883.469	21956.78
883.65	21864.63
883.831	21831.86
884.011	21981.36
884.192	21792.95
884.373	22120.62
884.553	22053.04
884.734	21860.53
884.914	22173.87
885.095	22991.01
885.275	22732.97
885.456	22374.57
885.636	22014.13
885.817	22173.87
885.997	22413.48
886.178	22145.2
886.358	22286.51
886.538	22581.42
886.719	23181.47
886.899	21954.74
887.08	22440.11
887.26	22595.75
887.44	22024.37
887.621	22188.21
887.801	22341.8
887.981	23064.74
888.161	22765.73
888.342	22290.6
888.522	22694.05
888.702	22888.61
888.882	23070.88
889.062	22485.16
889.242	22159.53
889.423	22866.08
889.603	22898.85
889.783	22833.32
889.963	22546.6
890.143	22909.09
890.323	22595.75
890.503	22620.33
890.683	22591.66
890.863	22509.74
891.043	22894.75
891.223	22839.46
891.403	22663.33
891.583	22999.2
891.763	22667.43
891.943	22610.09
892.122	22362.28
892.302	22880.42
892.482	22935.71
892.662	22612.13
892.842	22407.34
893.022	23230.62
893.201	22681.77
893.381	22788.26
893.561	23009.44
893.741	23218.33
893.92	23224.48
894.1	22812.84
894.28	22929.57
894.459	22886.56
894.639	23302.3
894.819	22710.44
894.998	23181.47
895.178	23124.13
895.357	23271.58
895.537	22837.41
895.716	22522.02
895.896	23156.89
896.075	23025.82
896.255	22687.91
896.434	22479.02
896.614	23480.47
896.793	23408.79
896.973	23146.65
897.152	22935.71
897.331	22954.15
897.511	23513.24
897.69	22796.45
897.87	22864.04
898.049	22999.2
898.228	23111.84
898.407	22802.6
898.587	22847.65
898.766	22782.12
898.945	22866.08
899.124	22605.99
899.304	22728.87
899.483	23138.46
899.662	23341.21
899.841	22552.74
900.02	22433.96
900.199	23019.68
900.378	22622.37
900.557	22446.25
900.737	22597.8
900.916	23025.82
901.095	22878.37
901.274	22853.8
901.453	22534.31
901.632	22601.9
901.811	22702.25
901.989	22669.48
902.168	22382.76
902.347	23120.03
902.526	22558.89
902.705	22276.27
902.884	22458.54
903.063	22677.67
903.242	22900.9
903.42	22487.21
903.599	22745.25
903.778	22616.23
903.957	22892.71
904.135	22753.44
904.314	22481.06
904.493	22667.43
904.672	22706.34
904.85	22225.07
905.029	22640.81
905.207	22388.91
905.386	23048.35
905.565	21973.17
905.743	22007.98
905.922	21940.4
906.1	22188.21
906.279	21452.98
906.457	21668.02
906.636	21883.06
906.814	21891.25
906.993	21618.87
907.171	21762.23
907.35	22354.09
907.528	22227.12
907.707	21944.5
907.885	21465.27
908.063	22118.57
908.242	21573.81
908.42	21457.08
908.598	21027.01
908.777	21928.11
908.955	21483.7
909.133	21450.94
909.311	21106.88
909.49	21393.59
909.668	21614.77
909.846	21244.09
910.024	20945.09
910.202	21448.89
910.38	21539
910.559	20945.09
910.737	21033.15
910.915	21450.94
911.093	21330.11
911.271	21170.36
911.449	21422.27
911.627	21283
911.805	21467.32
911.983	20988.1
912.161	20619.46
912.339	21135.55
912.517	21213.37
912.695	20848.83
912.872	20627.65
913.05	20693.19
913.228	20715.72
913.406	20523.21
913.584	20469.96
913.762	21080.25
913.939	20752.58
914.117	20738.24
914.295	20275.4
914.473	20703.43
914.65	20979.9
914.828	20265.16
915.006	19919.06
915.184	20076.75
915.361	20342.99
915.539	19947.73
915.716	20199.63
915.894	20349.13
916.072	20693.19
916.249	20070.61
916.427	20066.51
916.604	20056.27
916.782	20359.37
916.959	19880.14
917.137	19951.82
917.314	19957.97
917.492	20056.27
917.669	19736.79
917.847	19689.68
918.024	19372.25
918.201	19275.99
918.379	19431.64
918.556	19474.65
918.733	19742.93
918.911	19466.45
919.088	19462.36
919.265	19456.22
919.442	19347.67
919.62	19355.86
919.797	19335.38
919.974	18669.8
920.151	19337.43
920.328	19097.82
920.506	18815.2
920.683	18995.42
920.86	18643.17
921.037	18862.3
921.214	18727.14
921.391	18735.33
921.568	18804.96
921.745	18282.73
921.922	18462.95
922.099	18209
922.276	18770.15
922.453	18403.56
922.63	18282.73
922.807	18329.83
922.984	18217.19
923.161	17817.84
923.338	18186.47
923.514	17971.44
923.691	18016.49
923.868	18157.8
924.045	17934.57
924.222	17641.71
924.399	18223.34
924.575	18135.28
924.752	17965.29
924.929	17879.28
925.105	17914.09
925.282	17611
925.459	17393.91
925.635	17547.51
925.812	17533.17
925.989	17191.16
926.165	17291.51
926.342	16945.41
926.518	17053.95
926.695	17281.27
926.871	17058.04
927.048	17076.48
927.224	17131.77
927.401	16883.97
927.577	16642.31
927.754	16587.01
927.93	17078.52
928.107	16894.21
928.283	16503.04
928.459	16742.66
928.636	16724.22
928.812	16460.04
928.988	16195.85
929.165	16152.84
929.341	16367.88
929.517	16451.84
929.693	16406.79
929.87	15874.32
930.046	16439.56
930.222	15905.04
930.398	15907.09
930.574	15859.98
930.751	15927.56
930.927	15778.06
931.103	15810.83
931.279	15552.79
931.455	15544.59
931.631	15446.29
931.807	15159.58
931.983	15110.43
932.159	15085.85
932.335	15581.46
932.511	15120.67
932.687	15143.19
932.863	15311.13
933.039	15044.89
933.215	14620.96
933.391	14487.84
933.566	14627.1
933.742	14844.19
933.918	14532.9
934.094	14016.81
934.27	14641.44
934.445	14315.81
934.621	14031.15
934.797	13560.11
934.973	13936.94
935.148	14031.15
935.324	13316.4
935.5	13142.33
935.675	13515.06
935.851	12988.73
936.027	13007.16
936.202	12818.75
936.378	13054.26
936.553	12300.61
936.729	12542.27
936.904	11977.03
937.08	11755.85
937.255	11602.25
937.431	11442.51
937.606	11254.1
937.782	11221.33
937.957	11157.85
938.133	11047.26
938.308	10797.4
938.483	11026.78
938.659	10467.68
938.834	10617.18
939.009	10424.67
939.185	10158.44
939.36	10045.8
939.535	9728.36
939.71	10051.94
939.886	9955.69
940.061	10017.13
940.236	9554.29
940.411	9286
940.586	9431.41
940.761	9476.46
940.937	9195.89
941.112	8876.41
941.287	9271.67
941.462	9101.69
941.637	8997.24
941.812	9019.77
941.987	9040.25
942.162	8843.64
942.337	8644.99
942.512	8489.34
942.687	8849.78
942.862	8890.74
943.037	8290.69
943.212	8024.45
943.386	8460.67
943.561	8597.88
943.736	8497.53
943.911	8565.12
944.086	8595.84
944.26	8421.76
944.435	8239.49
944.61	8413.57
944.785	8702.33
944.959	8694.14
945.134	8274.31
945.309	8151.43
945.483	8081.8
945.658	8595.84
945.833	7891.34
946.007	8057.22
946.182	8757.63
946.357	8112.52
946.531	8245.63
946.706	8317.31
946.88	7944.58
947.055	8272.26
947.229	8098.18
947.404	8354.18
947.578	8782.2
947.752	8309.12
947.927	8116.61
948.101	8139.14
948.276	8706.43
948.45	8630.65
948.624	8440.19
948.799	8411.52
948.973	8761.72
949.147	8178.05
949.321	8591.74
949.496	8677.76
949.67	9005.43
949.844	8595.84
950.018	8518.01
950.193	8565.12
950.367	9245.04
950.541	8651.13
950.715	8694.14
950.889	8642.94
951.063	8614.27
951.237	9030.01
951.411	8692.09
951.585	8610.17
951.759	8962.42
951.933	8878.46
952.107	8567.17
952.281	8917.37
952.455	9451.89
952.629	9138.55
952.803	8753.53
952.977	8943.99
953.151	9267.57
953.325	9222.52
953.499	9380.21
953.672	8835.45
953.846	9046.39
954.02	8923.51
954.194	8845.69
954.368	8853.88
954.541	9369.97
954.715	9066.87
954.889	9116.02
955.062	8931.7
955.236	9255.28
955.41	9255.28
955.583	9384.3
955.757	8962.42
955.93	9314.67
956.104	8995.19
956.278	9288.05
956.451	9302.39
956.625	9625.97
956.798	9746.8
956.972	9464.18
957.145	9238.9
957.319	9376.11
957.492	9296.24
957.665	9394.54
957.839	9163.12
958.012	9621.87
958.185	9369.97
958.359	9384.3
958.532	9496.94
958.705	9722.22
958.879	9486.7
959.052	9458.03
959.225	8956.28
959.398	9455.98
959.572	9582.96
959.745	9329.01
959.918	9406.83
960.091	9320.82
960.264	9496.94
960.438	9204.08
960.611	9056.63
960.784	9613.68
960.957	9134.45
961.13	9675.12
961.303	9419.12
961.476	9632.11
961.649	9492.85
961.822	9191.8
961.995	9318.77
962.168	9513.33
962.341	9273.71
962.514	9322.87
962.686	9314.67
962.859	9511.28
963.032	9628.01
963.205	9220.47
963.378	9132.4
963.551	9554.29
963.723	9267.57
963.896	9134.45
964.069	9396.59
964.242	9419.12
964.414	9476.46
964.587	9474.42
964.76	9337.2
964.932	9478.51
965.105	9367.92
965.278	9062.77
965.45	9191.8
965.623	9367.92
965.795	9507.18
965.968	9128.31
966.14	8972.66
966.313	9218.42
966.485	9281.91
966.658	9009.53
966.83	9003.38
967.003	9402.74
967.175	9339.25
967.348	9093.49
967.52	8921.46
967.692	9789.8
967.865	9206.13
968.037	9118.07
968.209	9134.45
968.382	9191.8
968.554	9193.84
968.726	8931.7
968.898	8810.87
969.071	9286
969.243	9199.99
969.415	8788.35
969.587	8866.17
969.759	9466.22
969.932	9044.34
970.104	8907.13
970.276	8376.7
970.448	8763.77
970.62	8722.81
970.792	8731
970.964	8647.04
971.136	9496.94
971.308	8898.94
971.48	8444.29
971.652	8563.07
971.824	8991.09
971.996	8518.01
972.168	8386.94
972.339	8802.68
972.511	9040.25
972.683	8634.75
972.855	8755.58
973.027	8657.28
973.199	8706.43
973.37	8718.71
973.542	8472.96
973.714	8417.66
973.886	8599.93
974.057	8829.31
974.229	8085.89
974.401	8270.21
974.572	8368.51
974.744	8124.8
974.915	8223.11
975.087	8266.11
975.259	8720.76
975.43	8298.88
975.602	8298.88
975.773	7965.06
975.945	8122.76
976.116	8305.03
976.288	8089.99
976.459	8382.85
976.63	8137.09
976.802	8386.94
976.973	8028.55
977.145	8225.15
977.316	8554.88
977.487	8155.52
977.659	8171.91
977.83	8055.17
978.001	8651.13
978.172	8212.87
978.344	7809.42
978.515	7989.64
978.686	7963.01
978.857	8214.91
979.028	7866.76
979.2	7729.55
979.371	8079.75
979.542	7784.84
979.713	7821.7
979.884	7199.12
980.055	7729.55
980.226	7997.83
980.397	7623.05
980.568	7477.65
980.739	8159.62
980.91	7696.78
981.081	7721.35
981.252	7457.17
981.423	7836.04
981.594	8108.42
981.765	7479.69
981.936	7739.79
982.106	7766.41
982.277	7872.9
982.448	7541.13
982.619	7623.05
982.79	7393.68
982.96	8022.41
983.131	7379.34
983.302	7211.41
983.472	7412.11
983.643	7643.53
983.814	7274.9
983.984	7420.3
984.155	7467.41
984.326	7747.98
984.496	7319.95
984.667	7141.78
984.837	7313.81
985.008	7389.58
985.178	7317.9
985.349	7076.24
985.519	6994.33
985.69	7008.66
985.86	7057.81
986.031	6898.07
986.201	7195.03
986.371	7063.96
986.542	6879.64
986.712	6547.87
986.882	7119.25
987.053	7180.69
987.223	6750.62
987.393	6920.6
987.563	6822.3
987.734	7201.17
987.904	7127.44
988.074	6648.22
988.244	7023
988.414	6594.97
988.585	6627.74
988.755	6713.75
988.925	6707.61
989.095	7160.21
989.265	6506.91
989.435	6687.13
989.605	6934.93
989.775	6891.93
989.945	6746.52
990.115	6338.98
990.285	6738.33
990.455	6644.12
990.625	6363.55
990.795	6381.98
990.965	6877.59
991.134	6265.25
991.304	6345.12
991.474	6361.5
991.644	6652.31
991.814	6877.59
991.984	6130.08
992.153	6166.95
992.323	6349.22
992.493	6312.35
992.662	6048.16
992.832	6308.26
993.002	6384.03
993.171	6402.46
993.341	6037.92
993.511	6365.6
993.68	6230.43
993.85	6463.9
994.019	5857.7
994.189	5976.48
994.358	6207.91
994.528	6082.98
994.697	5851.56
994.867	5726.63
995.036	6212
995.206	6132.13
995.375	5843.37
995.544	6033.83
995.714	6148.51
995.883	5908.9
996.052	5806.5
996.222	5376.43
996.391	6443.42
996.56	5708.2
996.73	5562.8
996.899	5462.44
997.068	6146.47
997.237	5675.43
997.406	5104.05
997.576	5444.01
997.745	5718.44
997.914	5751.21
998.083	5208.5
998.252	5419.44
998.421	5507.5
998.59	5351.85
998.759	5185.97
998.928	5282.22
999.097	5706.15
999.266	5769.64
999.435	5446.06
999.604	5104.05
999.773	5937.57
999.942	5450.16
1000.111	5210.54
1000.28	5216.69
1000.448	5145.01
1000.617	5231.02
1000.786	5349.81
1000.955	5114.29
1001.124	5517.74
1001.292	5984.68
1001.461	4886.97
1001.63	5044.66
1001.798	5597.61
1001.967	5448.11
1002.136	4749.75
1002.304	4899.25
1002.473	5319.09
1002.642	5102
1002.81	4944.31
1002.979	4921.78
1003.147	5224.88
1003.316	5573.03
1003.484	4776.38
1003.653	4669.88
1003.821	5415.34
1003.99	4977.08
1004.158	4755.9
1004.327	4798.9
1004.495	4929.97
1004.663	4653.5
1004.832	4690.36
1005	4600.25
1005.168	4911.54
1005.337	4800.95
1005.505	4422.08
1005.673	4737.46
1005.842	4839.86
1006.01	4948.4
1006.178	4202.94
1006.346	4549.05
1006.514	4727.22
1006.683	4915.64
1006.851	4395.45
1007.019	4512.19
1007.187	4497.85
1007.355	4112.83
1007.523	4180.42
1007.691	4129.22
1007.859	4260.29
1008.027	4604.35
1008.195	4190.66
1008.363	4116.93
1008.531	4643.26
1008.699	4104.64
1008.867	4252.1
1009.035	4155.84
1009.203	4723.13
1009.37	4436.41
1009.538	4080.07
1009.706	4477.37
1009.874	4262.33
1010.042	4088.26
1010.209	3776.97
1010.377	4000.19
1010.545	4436.41
1010.713	4127.17
1010.88	3963.33
1011.048	3979.72
1011.216	4145.6
1011.383	4426.17
1011.551	3918.28
1011.718	3813.83
1011.886	4397.5
1012.054	4086.21
1012.221	3733.96
1012.389	3742.15
1012.556	4092.35
1012.724	4471.23
1012.891	3903.94
1013.058	3502.54
1013.226	4157.89
1013.393	4133.31
1013.561	3541.45
1013.728	3473.87
1013.895	4063.68
1014.063	3965.38
1014.23	3342.8
1014.397	3518.92
1014.565	4053.44
1014.732	3676.62
1014.899	3453.39
1015.066	3377.61
1015.233	3832.26
1015.401	3803.59
1015.568	3451.34
1015.735	3533.26
1015.902	3684.81
1016.069	3678.66
1016.236	3289.55
1016.403	3330.51
1016.57	3451.34
1016.737	3871.17
1016.904	3383.76
1017.071	3267.02
1017.238	3439.05
1017.405	3674.57
1017.572	3152.34
1017.739	3342.8
1017.906	3480.01
1018.073	3639.75
1018.24	3170.77
1018.407	3172.82
1018.573	3772.87
1018.74	3398.09
1018.907	3142.1
1019.074	2972.11
1019.241	3508.68
1019.407	3350.99
1019.574	3105.23
1019.741	2904.53
1019.907	3396.04
1020.074	3209.68
1020.241	2759.13
1020.407	2851.28
1020.574	3348.94
1020.74	3305.93
1020.907	2898.39
1021.073	2771.41
1021.24	3627.46
1021.406	3353.04
1021.573	2777.56
1021.739	2808.28
1021.906	3310.03
1022.072	3097.04
1022.239	2847.19
1022.405	2656.73
1022.571	2939.35
1022.738	2834.9
1022.904	2722.26
1023.07	2781.65
1023.237	3070.42
1023.403	3183.06
1023.569	2617.82
1023.735	2716.12
1023.902	3008.98
1024.068	2845.14
1024.234	2376.16
1024.4	2648.54
1024.566	2961.87
1024.732	3068.37
1024.898	2654.68
1025.065	2398.68
1025.231	2882
1025.397	2718.17
1025.563	2499.03
1025.729	2476.51
1025.895	2456.03
1026.061	2501.08
1026.227	2337.24
1026.392	2546.14
1026.558	2869.72
1026.724	2826.71
1026.89	2302.43
1027.056	2503.13
1027.222	2628.06
1027.388	2505.18
1027.553	2286.05
1027.719	2185.69
1027.885	2937.3
1028.051	2675.16
1028.216	2128.35
1028.382	2327
1028.548	2726.36
1028.713	2251.23
1028.879	2036.19
1029.045	2331.1
1029.21	2755.03
1029.376	2718.17
1029.541	2177.5
1029.707	2310.62
1029.873	2574.81
1030.038	2507.23
1030.204	2222.56
1030.369	2144.74
1030.534	2474.46
1030.7	2204.13
1030.865	2101.73
1031.031	2005.47
1031.196	2425.31
1031.361	2238.94
1031.527	2013.67
1031.692	1987.04
1031.857	1870.31
1032.023	2300.38
1032.188	1958.37
1032.353	2073.06
1032.518	2669.02
1032.684	2214.37
1032.849	1792.48
1033.014	1925.6
1033.179	2357.72
1033.344	2357.72
1033.509	1821.16
1033.674	1872.36
1033.839	2339.29
1034.004	2294.24
1034.17	1841.64
1034.335	1769.96
1034.5	1972.71
1034.664	1931.75
1034.829	1812.96
1034.994	1855.97
1035.159	2216.41
1035.324	2044.38
1035.489	1731.05
1035.654	1710.57
1035.819	2296.28
1035.984	2071.01
1036.148	1685.99
1036.313	1694.18
1036.478	2068.96
1036.643	1866.21
1036.807	1638.89
1036.972	1526.25
1037.137	2329.05
1037.301	1831.4
1037.466	1464.81
1037.631	1620.46
1037.795	2161.12
1037.96	1974.75
1038.124	1737.19
1038.289	1487.34
1038.454	2015.71
1038.618	2036.19
1038.783	1593.83
1038.947	1647.08
1039.111	1925.6
1039.276	1663.46
1039.44	1450.47
1039.605	1802.72
1039.769	1665.51
1039.933	1745.38
1040.098	1638.89
1040.262	1671.65
1040.426	1974.75
1040.591	1970.66
1040.755	1335.79
1040.919	1491.43
1041.083	1769.96
1041.248	1751.53
1041.412	1217.01
1041.576	1262.06
1041.74	1759.72
1041.904	1925.6
1042.068	1288.68
1042.232	1391.08
1042.397	1845.73
1042.561	1657.32
1042.725	1057.26
1042.889	1393.13
1043.053	1907.17
1043.217	1864.16
1043.381	1511.91
1043.544	1186.29
1043.708	1913.31
1043.872	1255.92
1044.036	1104.37
1044.2	1069.55
1044.364	1767.91
1044.528	1962.47
1044.691	4088.26
1044.855	1059.31
1045.019	1892.84
1045.183	1649.13
1045.346	1327.6
1045.51	1151.47
1045.674	1591.78
1045.837	1542.63
1046.001	1165.81
1046.165	1047.02
1046.328	2071.01
1046.492	1538.54
1046.655	1288.68
1046.819	1208.81
1046.983	1260.01
1047.146	1645.03
1047.31	1198.57
1047.473	973.3
1047.636	1421.8
1047.8	1206.77
1047.963	1198.57
1048.127	1057.26
1048.29	1229.29
