Data from Hydrogel_Ink_Intensity_Test_1_USB4F045381__59__00059.txt Node

Date: Mon Jul 31 10:51:16 EDT 2023
User: mmckonesweet
Spectrometer: USB4F04538
Trigger mode: 4
Integration Time (sec): 9.000000E-1
Scans to average: 1
Electric dark correction enabled: true
Nonlinearity correction enabled: false
Boxcar width: 0
XAxis mode: Wavelengths
Number of Pixels in Spectrum: 3648
>>>>>Begin Spectral Data<<<<<
345.52	-1012.04
345.736	-1012.04
345.952	-1012.04
346.168	-1067.33
346.384	-995.65
346.6	-112.98
346.816	-186.71
347.032	-309.58
347.248	261.8
347.464	-235.86
347.68	-96.6
347.896	134.82
348.112	446.12
348.328	-57.68
348.544	-82.26
348.76	-51.54
348.975	290.47
349.191	-188.75
349.407	-102.74
349.623	54.95
349.839	-22.87
350.055	-16.73
350.27	69.29
350.486	196.26
350.702	360.1
350.918	263.85
351.133	-139.6
351.349	235.18
351.565	327.33
351.781	-178.51
351.996	67.24
352.212	356.01
352.428	-115.03
352.644	-211.28
352.859	-137.56
353.075	255.65
353.291	34.47
353.506	-92.5
353.722	-145.75
353.938	-37.2
354.153	458.4
354.369	138.92
354.584	-184.66
354.8	304.81
355.016	-258.39
355.231	-182.61
355.447	-10.58
355.662	196.26
355.878	921.24
356.093	-282.96
356.309	149.16
356.524	-147.8
356.74	282.28
356.955	-170.32
357.171	-10.58
357.386	206.5
357.602	-194.9
357.817	-117.08
358.033	-192.85
358.248	374.44
358.464	188.07
358.679	-59.73
358.895	-264.53
359.11	-4.44
359.325	329.38
359.541	321.19
359.756	138.92
359.972	-256.34
360.187	208.55
360.402	-119.12
360.618	-61.78
360.833	1070.75
361.048	165.54
361.264	-100.69
361.479	-63.83
361.694	50.86
361.909	210.6
362.125	-170.32
362.34	-96.6
362.555	278.18
362.77	91.82
362.986	-305.49
363.201	-188.75
363.416	216.74
363.631	61.1
363.847	-158.03
364.062	-158.03
364.277	190.12
364.492	50.86
364.707	-108.88
364.922	-340.3
365.138	274.09
365.353	405.16
365.568	-176.47
365.783	-112.98
365.998	208.55
366.213	632.48
366.428	-125.27
366.643	183.98
366.858	343.72
367.073	269.99
367.288	-65.88
367.503	-188.75
367.718	116.39
367.933	399.01
368.148	-248.15
368.363	-33.11
368.578	67.24
368.793	433.83
369.008	-47.44
369.223	-180.56
369.438	198.31
369.653	499.36
369.868	-205.14
370.083	-209.23
370.298	153.26
370.513	366.25
370.728	83.63
370.943	-67.92
371.157	-90.45
371.372	544.42
371.587	-188.75
371.802	-278.87
372.017	161.45
372.232	632.48
372.446	-59.73
372.661	-137.56
372.876	286.37
373.091	247.46
373.306	-14.68
373.52	-198.99
373.735	-129.36
373.95	476.84
374.165	-12.63
374.379	-45.4
374.594	-80.21
374.809	163.5
375.023	157.35
375.238	-145.75
375.453	313
375.667	-176.47
375.882	-84.31
376.097	-153.94
376.311	104.11
376.526	79.53
376.741	-125.27
376.955	140.97
377.17	634.53
377.384	661.15
377.599	-20.82
377.813	-162.13
378.028	593.57
378.242	282.28
378.457	38.57
378.672	-239.95
378.886	181.93
379.101	59.05
379.315	-252.24
379.53	-80.21
379.744	286.37
379.958	296.61
380.173	-139.6
380.387	-168.27
380.602	171.69
380.816	-80.21
381.031	-86.36
381.245	-74.07
381.459	259.75
381.674	2721.41
381.888	-147.8
382.103	87.72
382.317	-115.03
382.531	513.7
382.746	42.67
382.96	-106.84
383.174	-2.39
383.388	552.61
383.603	151.21
383.817	-178.51
384.031	226.98
384.246	542.37
384.46	100.01
384.674	427.68
384.888	126.63
385.103	183.98
385.317	-178.51
385.531	20.14
385.745	366.25
385.959	370.34
386.174	-115.03
386.388	-104.79
386.602	87.72
386.816	-47.44
387.03	59.05
387.244	13.99
387.458	251.56
387.672	362.15
387.887	-139.6
388.101	-260.43
388.315	405.16
388.529	243.37
388.743	-43.35
388.957	-112.98
389.171	458.4
389.385	-6.49
389.599	-123.22
389.813	196.26
390.027	265.89
390.241	779.93
390.455	28.33
390.669	104.11
390.883	93.87
391.097	691.87
391.311	167.59
391.525	-100.69
391.738	415.4
391.952	296.61
392.166	91.82
392.38	-29.01
392.594	384.68
392.808	478.88
393.022	108.2
393.236	-39.25
393.449	394.92
393.663	337.57
393.877	-96.6
394.091	85.67
394.305	161.45
394.518	-6.49
394.732	-166.23
394.946	65.19
395.16	525.99
395.373	239.27
395.587	-108.88
395.801	-4.44
396.015	487.08
396.228	280.23
396.442	-166.23
396.656	-213.33
396.869	429.73
397.083	636.58
397.297	42.67
397.51	20.14
397.724	450.21
397.938	333.48
398.151	-92.5
398.365	-168.27
398.578	403.11
398.792	485.03
399.005	226.98
399.219	32.43
399.433	358.05
399.646	343.72
399.86	159.4
400.073	95.91
400.287	480.93
400.5	206.5
400.714	147.11
400.927	61.1
401.141	376.48
401.354	1273.5
401.567	284.33
401.781	-102.74
401.994	374.44
402.208	775.84
402.421	61.1
402.635	95.91
402.848	241.32
403.061	536.23
403.275	198.31
403.488	3.75
403.701	568.99
403.915	460.45
404.128	175.78
404.341	130.73
404.555	399.01
404.768	222.89
404.981	194.22
405.195	-2.39
405.408	587.43
405.621	421.54
405.834	173.74
406.048	-110.93
406.261	710.3
406.474	751.26
406.687	28.33
406.9	204.46
407.114	349.86
407.327	403.11
407.54	-67.92
407.753	-92.5
407.966	157.35
408.179	427.68
408.392	57
408.605	-22.87
408.819	386.72
409.032	390.82
409.245	83.63
409.458	362.15
409.671	480.93
409.884	652.96
410.097	-43.35
410.31	233.13
410.523	497.32
410.736	298.66
410.949	67.24
411.162	108.2
411.375	667.3
411.588	474.79
411.801	411.3
412.014	124.58
412.227	282.28
412.44	329.38
412.653	54.95
412.865	259.75
413.078	618.15
413.291	452.26
413.504	290.47
413.717	120.49
413.93	595.62
414.143	190.12
414.356	192.17
414.568	-67.92
414.781	587.43
414.994	382.63
415.207	208.55
415.42	222.89
415.632	509.6
415.845	822.94
416.058	9.9
416.271	9.9
416.483	374.44
416.696	796.32
416.909	124.58
417.121	112.3
417.334	517.79
417.547	865.95
417.759	85.67
417.972	83.63
418.185	226.98
418.397	595.62
418.61	143.02
418.823	140.97
419.035	882.33
419.248	315.05
419.46	394.92
419.673	179.88
419.885	478.88
420.098	343.72
420.311	186.02
420.523	-12.63
420.736	511.65
420.948	378.53
421.161	237.22
421.373	61.1
421.586	513.7
421.798	304.81
422.01	65.19
422.223	317.09
422.435	325.29
422.648	679.58
422.86	243.37
423.073	149.16
423.285	720.54
423.497	202.41
423.71	243.37
423.922	210.6
424.134	706.21
424.347	814.75
424.559	468.64
424.771	478.88
424.984	335.53
425.196	616.1
425.408	81.58
425.621	171.69
425.833	798.37
426.045	816.8
426.257	112.3
426.47	175.78
426.682	593.57
426.894	765.6
427.106	370.34
427.318	280.23
427.531	333.48
427.743	722.59
427.955	296.61
428.167	661.15
428.379	560.8
428.591	495.27
428.804	425.64
429.016	222.89
429.228	431.78
429.44	630.43
429.652	523.94
429.864	114.34
430.076	442.02
430.288	540.32
430.5	405.16
430.712	399.01
430.924	655.01
431.136	700.06
431.348	274.09
431.56	239.27
431.772	525.99
431.984	468.64
432.196	280.23
432.408	368.29
432.62	493.22
432.832	714.4
433.044	665.25
433.256	517.79
433.468	755.36
433.679	313
433.891	214.7
434.103	601.76
434.315	968.35
434.527	812.7
434.739	468.64
434.95	495.27
435.162	843.42
435.374	442.02
435.586	513.7
435.798	448.16
436.009	435.88
436.221	550.56
436.433	456.36
436.645	399.01
436.856	550.56
437.068	1007.26
437.28	399.01
437.491	732.83
437.703	868
437.915	788.13
438.126	525.99
438.338	736.93
438.55	687.78
438.761	755.36
438.973	491.17
439.184	503.46
439.396	800.41
439.608	939.68
439.819	407.2
440.031	542.37
440.242	921.24
440.454	849.57
440.665	620.19
440.877	585.38
441.088	927.39
441.3	730.78
441.511	364.2
441.723	480.93
441.934	796.32
442.146	829.09
442.357	753.31
442.569	833.18
442.78	829.09
442.991	1234.58
443.203	878.24
443.414	544.42
443.626	1021.6
443.837	577.19
444.048	444.07
444.26	495.27
444.471	857.76
444.682	1031.83
444.894	317.09
445.105	431.78
445.316	1062.55
445.528	962.2
445.739	681.63
445.95	583.33
446.161	917.15
446.373	1052.31
446.584	624.29
446.795	566.95
447.006	935.58
447.217	1236.63
447.429	478.88
447.64	525.99
447.851	1207.96
448.062	845.47
448.273	378.53
448.484	587.43
448.695	1076.89
448.907	882.33
449.118	798.37
449.329	939.68
449.54	806.56
449.751	726.69
449.962	706.21
450.173	685.73
450.384	1183.38
450.595	1248.92
450.806	648.86
451.017	706.21
451.228	1304.21
451.439	1162.9
451.65	808.61
451.861	466.6
452.072	837.28
452.283	982.68
452.494	972.44
452.705	648.86
452.915	1386.13
453.126	1121.95
453.337	773.79
453.548	605.86
453.759	1343.13
453.97	1474.2
454.181	1031.83
454.391	837.28
454.602	1042.07
454.813	1308.31
455.024	947.87
455.235	736.93
455.445	1216.15
455.656	1212.06
455.867	1001.12
456.078	738.98
456.288	956.06
456.499	1189.53
456.71	865.95
456.921	1107.61
457.131	1269.4
457.342	1275.54
457.553	1091.23
457.763	974.49
457.974	1250.97
458.184	1316.5
458.395	898.72
458.606	935.58
458.816	1414.81
459.027	1648.27
459.237	1046.17
459.448	784.03
459.659	1543.83
459.869	1805.97
460.08	927.39
460.29	1158.81
460.501	1621.65
460.711	1173.14
460.922	874.14
461.132	1052.31
461.343	1906.32
461.553	999.07
461.764	986.78
461.974	1054.36
462.184	1595.03
462.395	1384.09
462.605	1121.95
462.816	1074.84
463.026	1472.15
463.236	1642.13
463.447	1105.56
463.657	1078.94
463.867	1566.35
464.078	1371.8
464.288	1296.02
464.498	1316.5
464.709	1513.11
464.919	1392.28
465.129	1263.26
465.339	1158.81
465.55	1543.83
465.76	1681.04
465.97	1330.84
466.18	1121.95
466.391	1765.01
466.601	1574.55
466.811	1275.54
467.021	1144.47
467.231	1681.04
467.441	1906.32
467.651	1474.2
467.862	1207.96
468.072	1652.37
468.282	1992.33
468.492	1375.89
468.702	1652.37
468.912	1789.58
469.122	2363.01
469.332	1758.86
469.542	1451.67
469.752	1994.38
469.962	2002.57
470.172	1480.34
470.382	1629.84
470.592	2066.06
470.802	2254.47
471.012	1740.43
471.222	1635.99
471.432	2229.9
471.642	2154.12
471.852	2002.57
472.062	1619.6
472.272	1992.33
472.482	1904.27
472.691	1787.54
472.901	1740.43
473.111	2225.8
473.321	2745.98
473.531	1853.07
473.741	2002.57
473.95	2414.21
474.16	2410.12
474.37	2147.98
474.58	1922.7
474.79	2813.57
474.999	2543.24
475.209	2092.68
475.419	2150.03
475.628	2381.45
475.838	2674.31
476.048	2270.86
476.258	2045.58
476.467	2782.85
476.677	2408.07
476.886	2539.14
477.096	2500.23
477.306	2422.41
477.515	2829.95
477.725	2348.68
477.935	2565.76
478.144	2909.82
478.354	2563.72
478.563	2463.37
478.773	2545.28
478.982	2963.07
479.192	3065.47
479.401	2741.89
479.611	2565.76
479.82	2895.49
480.03	3036.8
480.239	2508.42
480.449	2770.56
480.658	3393.14
480.868	2893.44
481.077	2930.3
481.287	2879.1
481.496	3307.13
481.705	3524.21
481.915	3167.87
482.124	3292.79
482.333	3442.29
482.543	3606.13
482.752	3319.42
482.961	3061.37
483.171	3507.83
483.38	3403.38
483.589	3204.73
483.799	3309.18
484.008	3360.38
484.217	3729.01
484.426	3247.74
484.636	3174.01
484.845	3663.47
485.054	3257.98
485.263	3706.48
485.472	3280.5
485.682	4042.35
485.891	3712.63
486.1	3294.84
486.309	3434.1
486.518	4025.97
486.727	4232.81
486.936	3518.07
487.146	3767.92
487.355	4171.37
487.564	3634.8
487.773	3749.49
487.982	3559.03
488.191	3880.56
488.4	4222.57
488.609	3858.03
488.818	3855.98
489.027	4671.08
489.236	4521.57
489.445	4150.89
489.654	3876.46
489.863	4664.93
490.072	4214.38
490.281	4320.87
490.49	4011.63
490.698	4666.98
490.907	4832.86
491.116	4146.8
491.325	3999.34
491.534	4705.89
491.743	4507.24
491.952	4359.78
492.16	4318.82
492.369	4580.96
492.578	4826.72
492.787	4296.3
492.996	4169.32
493.204	4531.81
493.413	4990.56
493.622	4236.91
493.831	4154.99
494.039	5082.72
494.248	4560.49
494.457	4402.79
494.665	4427.37
494.874	4976.22
495.083	5326.43
495.291	4550.25
495.5	4623.97
495.709	4998.75
495.917	4951.65
496.126	4724.32
496.335	4564.58
496.543	4943.46
496.752	5111.39
496.96	4945.5
497.169	4611.68
497.377	5074.53
497.586	5334.62
497.794	4947.55
498.003	4671.08
498.211	5078.62
498.42	5396.06
498.628	4998.75
498.837	4957.79
499.045	5432.92
499.254	5215.84
499.462	4992.61
499.671	4824.67
499.879	5809.75
500.087	5602.9
500.296	5111.39
500.504	5158.49
500.713	5477.98
500.921	5867.09
501.129	5236.31
501.338	5146.2
501.546	5541.46
501.754	5428.82
501.962	5215.84
502.171	5224.03
502.379	5854.8
502.587	5946.96
502.795	5373.53
503.004	5387.86
503.212	5699.16
503.42	5848.66
503.628	5420.63
503.837	5555.8
504.045	5914.19
504.253	6133.33
504.461	5539.41
504.669	5451.35
504.877	5912.14
505.085	6217.29
505.294	5346.91
505.502	5733.97
505.71	5899.86
505.918	6084.17
506.126	5582.42
506.334	5529.17
506.542	5869.14
506.75	6071.89
506.958	5916.24
507.166	5826.13
507.374	5920.34
507.582	6526.54
507.79	5906
507.998	5684.82
508.206	6104.65
508.414	6262.35
508.622	5805.65
508.83	5768.79
509.037	6549.06
509.245	6153.8
509.453	5799.51
509.661	5817.94
509.869	6391.37
510.077	6088.27
510.285	6080.08
510.492	5613.14
510.7	6960.7
510.908	6282.83
511.116	6235.72
511.324	6180.43
511.531	6315.59
511.739	6409.8
511.947	6354.51
512.155	6397.51
512.362	6491.72
512.57	6186.57
512.778	6114.89
512.985	6090.32
513.193	6872.64
513.401	6977.09
513.608	6121.04
513.816	6305.35
514.024	6633.03
514.231	6825.54
514.439	6135.37
514.646	6364.75
514.854	6698.56
515.061	7048.77
515.269	6350.41
515.477	6514.25
515.684	6563.4
515.892	7102.01
516.099	6100.56
516.307	6237.77
516.514	6940.22
516.722	7202.36
516.929	6676.04
517.136	6481.48
517.344	7128.64
517.551	6919.75
517.759	6438.47
517.966	6587.97
518.173	6831.68
518.381	7059.01
518.588	6626.89
518.796	6587.97
519.003	7159.36
519.21	6981.18
519.418	6680.13
519.625	6987.33
519.832	7001.66
520.039	7274.04
520.247	6694.47
520.454	6739.52
520.661	7394.87
520.868	7415.35
521.076	6893.12
521.283	6831.68
521.49	7736.88
521.697	7343.67
521.904	7087.68
522.112	6893.12
522.319	7552.57
522.526	7403.07
522.733	6948.42
522.94	7081.53
523.147	7431.74
523.354	7718.45
523.561	6893.12
523.768	7353.91
523.975	7661.11
524.183	7513.66
524.39	7358.01
524.597	6981.18
524.804	7579.19
525.011	7286.33
525.218	7358.01
525.425	7321.15
525.632	7755.32
525.838	7446.07
526.045	7198.27
526.252	7419.45
526.459	8586.79
526.666	8437.29
526.873	7261.76
527.08	7468.6
527.287	8289.84
527.494	7812.66
527.701	7218.75
527.907	7263.8
528.114	8113.71
528.321	7589.43
528.528	7644.73
528.735	7722.55
528.941	7808.56
529.148	7470.65
529.355	7786.04
529.562	7525.94
529.768	8291.88
529.975	7886.39
530.182	7724.6
530.388	7618.1
530.595	8023.6
530.802	7716.4
531.008	8054.32
531.215	7704.12
531.422	8857.12
531.628	8705.57
531.835	7996.98
532.042	7935.54
532.248	7906.87
532.455	8306.22
532.661	7902.77
532.868	8007.22
533.074	8298.03
533.281	8592.94
533.487	7933.49
533.694	7898.67
533.9	8218.16
534.107	8549.93
534.313	7978.54
534.52	7921.2
534.726	8564.26
534.933	8775.2
535.139	8126
535.345	7962.16
535.552	8369.71
535.758	8488.49
535.965	8318.51
536.171	8138.29
536.377	8717.86
536.584	8832.55
536.79	8066.61
536.996	8394.28
537.203	8646.18
537.409	8642.09
537.615	8443.43
537.821	8797.73
538.028	8869.41
538.234	8914.47
538.44	8132.14
538.646	8554.02
538.853	8992.29
539.059	8631.85
539.265	8906.27
539.471	8369.71
539.677	9016.87
539.883	8640.04
540.09	8646.18
540.296	9166.37
540.502	8994.34
540.708	8836.64
540.914	8959.52
541.12	8883.75
541.326	9211.42
541.532	8971.81
541.738	8945.19
541.944	8898.08
542.15	9496.09
542.356	9242.14
542.562	8760.87
542.768	9086.5
542.974	9799.19
543.18	9604.63
543.386	8875.56
543.592	8832.55
543.798	9498.14
544.004	9733.65
544.21	8920.61
544.415	9070.11
544.621	9332.25
544.827	9573.91
545.033	8986.15
545.239	9373.21
545.445	9416.22
545.651	9408.03
545.856	8977.95
546.062	9299.48
546.268	9135.65
546.474	9578.01
546.679	9336.35
546.885	9262.62
547.091	9508.38
547.297	9887.25
547.502	9467.42
547.708	9131.55
547.914	9512.47
548.119	9768.47
548.325	9152.03
548.531	8975.91
548.736	9872.92
548.942	9408.03
549.147	9197.09
549.353	9692.69
549.559	9963.03
549.764	9805.33
549.97	9233.95
550.175	9539.1
550.381	9807.38
550.586	9502.23
550.792	9473.56
550.997	9504.28
551.203	9840.15
551.408	10069.52
551.614	9412.12
551.819	9608.73
552.025	10606.09
552.23	10284.56
552.435	9645.59
552.641	9899.54
552.846	9811.48
553.052	10380.81
553.257	9823.76
553.462	9778.71
553.668	9897.49
553.873	10208.78
554.078	9838.1
554.283	9766.42
554.489	10343.95
554.694	10100.24
554.899	9635.35
555.105	10284.56
555.31	10503.69
555.515	10513.93
555.72	10081.81
555.925	9700.89
556.131	10456.59
556.336	10032.66
556.541	9936.4
556.746	9864.72
556.951	10704.39
557.156	10536.46
557.361	10051.09
557.567	10307.09
557.772	10946.05
557.977	10569.23
558.182	10305.04
558.387	10239.5
558.592	10282.51
558.797	10669.58
559.002	10380.81
559.207	10237.45
559.412	10427.92
559.617	10808.84
559.822	10298.89
560.027	10255.89
560.232	10671.62
560.437	10808.84
560.642	10274.32
560.847	10337.8
561.051	10515.98
561.256	10704.39
561.461	10321.42
561.666	10358.28
561.871	10855.94
562.076	10896.9
562.281	10561.03
562.485	10120.72
562.69	10855.94
562.895	10907.14
563.1	10462.73
563.305	10429.96
563.509	11044.35
563.714	11089.41
563.919	10526.22
564.123	10434.06
564.328	10632.71
564.533	11093.51
564.737	10475.02
564.942	10405.39
565.147	11386.36
565.351	11462.14
565.556	10638.86
565.761	10669.58
565.965	11083.27
566.17	10901
566.374	10835.46
566.579	10544.65
566.784	10925.57
566.988	10987.01
567.193	10616.33
567.397	10898.95
567.602	10778.12
567.806	10892.8
568.011	10769.93
568.215	10845.7
568.42	10927.62
568.624	11095.55
568.828	10667.53
569.033	10984.96
569.237	11367.93
569.442	11292.16
569.646	10548.75
569.85	11064.83
570.055	11152.9
570.259	11226.62
570.463	11122.18
570.668	10837.51
570.872	11011.59
571.076	11494.91
571.281	11257.34
571.485	11353.6
571.689	11173.38
571.893	11566.59
572.098	11341.31
572.302	10944
572.506	11333.12
572.71	11214.34
572.914	11142.66
573.119	11075.07
573.323	11976.18
573.527	11443.71
573.731	11030.02
573.935	11144.7
574.139	11699.7
574.343	11171.33
574.547	11099.65
574.751	11355.65
574.955	12092.91
575.159	11798.01
575.364	11113.99
575.568	11103.75
575.772	11275.77
575.976	11711.99
576.18	10997.25
576.383	11228.67
576.587	12062.19
576.791	11734.52
576.995	11355.65
577.199	11310.59
577.403	11904.5
577.607	11967.99
577.811	11472.38
578.015	11423.23
578.219	11832.82
578.422	11920.88
578.626	11707.9
578.83	11650.55
579.034	11970.04
579.238	11892.21
579.442	11742.71
579.645	11982.32
579.849	11922.93
580.053	12019.19
580.257	11738.62
580.46	11785.72
580.664	12111.35
580.868	12021.24
581.071	11900.41
581.275	12045.81
581.479	11638.27
581.682	12144.11
581.886	11726.33
582.09	12125.68
582.293	12412.4
582.497	12140.02
582.7	11908.6
582.904	11906.55
583.107	12330.48
583.311	12004.85
583.515	11959.8
583.718	11961.84
583.922	12189.17
584.125	12746.22
584.329	11912.69
584.532	12078.58
584.735	12465.64
584.939	12144.11
585.142	11879.93
585.346	12062.19
585.549	12324.33
585.753	12101.11
585.956	11951.6
586.159	12320.24
586.363	12879.33
586.566	12430.83
586.769	12199.41
586.973	11914.74
587.176	12445.16
587.379	12969.44
587.582	12332.53
587.786	12588.52
587.989	12455.4
588.192	13432.29
588.395	12631.53
588.599	12561.9
588.802	12901.86
589.005	12609
589.208	12654.06
589.411	12340.72
589.615	12838.37
589.818	13198.82
590.021	12445.16
590.224	12748.26
590.427	12885.48
590.63	12946.92
590.833	12355.05
591.036	12266.99
591.239	12826.09
591.442	12670.44
591.645	12717.54
591.848	12506.6
592.051	12899.81
592.254	13120.99
592.457	12832.23
592.66	12643.82
592.863	12897.77
593.066	12946.92
593.269	12522.99
593.472	12617.19
593.675	12688.87
593.878	13262.3
594.081	12750.31
594.284	12799.46
594.486	13225.44
594.689	13182.43
594.892	12699.11
595.095	12805.61
595.298	13059.56
595.5	13178.34
595.703	12871.14
595.906	13012.45
596.109	13565.4
596.311	13444.57
596.514	12439.02
596.717	13006.31
596.92	13659.61
597.122	13358.56
597.325	12584.43
597.528	12948.97
597.73	13616.6
597.933	13336.03
598.136	13028.84
598.338	12815.85
598.541	13327.84
598.743	13651.42
598.946	13184.48
599.148	12862.95
599.351	13557.21
599.554	13759.96
599.756	13245.92
599.959	13276.64
600.161	13772.25
600.363	14099.92
600.566	13141.47
600.768	13114.85
600.971	13811.16
601.173	13409.76
601.376	13254.11
601.578	13114.85
601.78	13577.69
601.983	13948.37
602.185	13329.89
602.388	13407.71
602.59	13696.47
602.792	13573.6
602.995	13342.18
603.197	13336.03
603.399	14110.16
603.601	13643.23
603.804	13311.46
604.006	13346.27
604.208	13536.73
604.41	13467.1
604.613	13680.09
604.815	13440.48
605.017	14456.27
605.219	13567.45
605.421	13741.53
605.623	13460.96
605.826	14185.94
606.028	14360.02
606.23	13489.63
606.432	13610.46
606.634	14157.27
606.836	14118.36
607.038	13526.49
607.24	13698.52
607.442	13977.05
607.644	14011.86
607.846	13866.46
608.048	13530.59
608.25	14032.34
608.452	13667.8
608.654	13716.95
608.856	13389.28
609.058	13931.99
609.26	14075.35
609.462	13673.95
609.664	13708.76
609.866	14116.31
610.067	14196.18
610.269	13782.49
610.471	13927.89
610.673	13768.15
610.875	14052.82
611.077	13542.88
611.278	13698.52
611.48	14056.92
611.682	14489.04
611.884	13936.09
612.085	13946.33
612.287	13891.03
612.489	13966.81
612.69	13702.62
612.892	13837.78
613.094	14454.22
613.295	14173.65
613.497	13491.68
613.699	13940.18
613.9	14458.32
614.102	14237.14
614.304	13749.72
614.505	13622.75
614.707	14243.28
614.908	13888.98
615.11	13616.6
615.311	13905.37
615.513	14204.37
615.714	14403.02
615.916	13624.79
616.117	13796.82
616.319	14087.64
616.52	14382.54
616.722	13710.81
616.923	13678.04
617.124	14411.21
617.326	14429.65
617.527	13788.63
617.729	14054.87
617.93	14321.1
618.131	14251.47
618.333	13716.95
618.534	13909.46
618.735	13813.21
618.937	14513.61
619.138	13700.57
619.339	13987.29
619.54	14298.58
619.742	14063.06
619.943	14018
620.144	14040.53
620.345	14398.93
620.546	14603.72
620.748	14112.21
620.949	14179.79
621.15	14478.8
621.351	14470.61
621.552	13870.55
621.753	13682.14
621.954	14083.54
622.155	14443.98
622.356	13815.26
622.558	14050.77
622.759	14263.76
622.96	14558.67
623.161	14046.68
623.362	13966.81
623.563	14386.64
623.764	14253.52
623.965	14347.73
624.166	14255.57
624.366	14304.72
624.567	14370.26
624.768	13882.84
624.969	14108.12
625.17	14364.11
625.371	14443.98
625.572	14173.65
625.773	14093.78
625.973	14562.76
626.174	14622.16
626.375	14271.95
626.576	14308.82
626.777	14550.48
626.977	14837.19
627.178	14085.59
627.379	14208.47
627.58	14343.63
627.78	14527.95
627.981	14249.43
628.182	14204.37
628.382	14810.57
628.583	14261.71
628.784	14050.77
628.984	14306.77
629.185	14335.44
629.386	14300.62
629.586	14353.87
629.787	14210.51
629.987	14859.72
630.188	14351.82
630.388	14384.59
630.589	14071.25
630.79	15136.2
630.99	14476.75
631.191	14147.03
631.391	14341.58
631.591	14749.13
631.792	14906.82
631.992	14718.41
632.193	14419.41
632.393	14863.82
632.594	14552.52
632.794	14112.21
632.994	14466.51
633.195	14654.92
633.395	14560.72
633.595	14347.73
633.796	14554.57
633.996	14587.34
634.196	14679.5
634.397	14226.9
634.597	14556.62
634.797	14222.8
634.997	15033.8
635.198	14710.22
635.398	14321.1
635.598	14781.9
635.798	15105.48
635.998	14855.62
636.199	14339.54
636.399	14656.97
636.599	14435.79
636.799	14497.23
636.999	14568.91
637.199	14714.31
637.399	15242.69
637.599	14331.34
637.799	14587.34
637.999	14695.88
638.199	15257.03
638.399	14460.37
638.599	14554.57
638.799	14843.34
638.999	15416.77
639.199	14859.72
639.399	14829
639.599	15345.09
639.799	14661.07
639.999	14587.34
640.199	14693.83
640.399	14923.21
640.599	14693.83
640.799	14706.12
640.998	14882.25
641.198	15252.93
641.398	14759.37
641.598	14765.51
641.798	14976.45
641.997	16022.97
642.197	14912.97
642.397	15039.94
642.597	14738.89
642.796	15044.04
642.996	15584.7
643.196	14820.81
643.395	14798.28
643.595	14984.65
643.795	14773.71
643.994	14867.91
644.194	14863.82
644.394	15109.57
644.593	15097.28
644.793	14767.56
644.992	15050.18
645.192	15089.09
645.392	14659.02
645.591	14990.79
645.791	14878.15
645.99	15279.55
646.19	15017.41
646.389	15283.65
646.589	14849.48
646.788	15232.45
646.987	15441.34
647.187	15060.42
647.386	15107.52
647.586	15400.38
647.785	15289.79
647.984	14816.71
648.184	15187.39
648.383	15330.75
648.582	14888.39
648.782	14984.65
648.981	14986.69
649.18	15089.09
649.38	15427.01
649.579	15125.96
649.778	14927.3
649.977	15429.06
650.177	15451.58
650.376	14904.78
650.575	15080.9
650.774	15769.02
650.973	15191.49
651.173	14958.02
651.372	14769.61
651.571	15369.66
651.77	15316.42
651.969	15236.55
652.168	15128
652.367	15066.56
652.566	15388.1
652.765	15105.48
652.964	15347.14
653.163	16061.88
653.362	15289.79
653.561	14964.17
653.76	15041.99
653.959	15291.84
654.158	15533.5
654.357	15392.19
654.556	15340.99
654.755	15578.56
654.954	15656.38
655.153	15195.59
655.352	15214.02
655.551	15726.01
655.749	15363.52
655.948	15355.33
656.147	15295.94
656.346	15640
656.545	15410.62
656.743	15119.81
656.942	15105.48
657.141	15459.77
657.34	15412.67
657.538	15269.31
657.737	15406.53
657.936	15697.34
658.135	15828.41
658.333	15154.63
658.532	15363.52
658.731	16035.25
658.929	15562.17
659.128	15734.2
659.326	15435.2
659.525	15752.63
659.724	15732.15
659.922	15111.62
660.121	15205.83
660.319	15699.39
660.518	15420.86
660.716	15234.5
660.915	15543.74
661.113	16072.12
661.312	15185.35
661.51	15582.65
661.709	15203.78
661.907	15773.11
662.105	15973.81
662.304	15535.55
662.502	15674.81
662.701	16166.32
662.899	15480.25
663.097	15689.15
663.296	15152.58
663.494	16027.06
663.692	15955.38
663.891	15359.42
664.089	15209.92
664.287	15482.3
664.485	15895.99
664.684	15306.18
664.882	15584.7
665.08	15820.22
665.278	15672.76
665.476	15257.03
665.675	15510.97
665.873	16078.26
666.071	15769.02
666.269	15347.14
666.467	15492.54
666.665	15705.53
666.863	15271.36
667.061	15377.86
667.259	15300.03
667.457	15455.68
667.655	15816.12
667.853	15197.63
668.051	15480.25
668.249	15336.9
668.447	15553.98
668.645	15070.66
668.843	15740.35
669.041	15742.39
669.239	15381.95
669.437	15275.46
669.635	15451.58
669.833	15422.91
670.031	15683
670.229	15398.34
670.426	15576.51
670.624	15601.08
670.822	15281.6
671.02	15310.27
671.218	15345.09
671.415	15326.66
671.613	15601.08
671.811	15459.77
672.009	15396.29
672.206	15945.14
672.404	15599.04
672.602	15668.67
672.799	15531.45
672.997	15652.28
673.195	15705.53
673.392	15601.08
673.59	15271.36
673.788	15574.46
673.985	15044.04
674.183	15259.07
674.38	15416.77
674.578	15515.07
674.775	15390.14
674.973	15222.21
675.17	15226.31
675.368	15785.4
675.565	15668.67
675.763	15146.44
675.96	15211.97
676.158	15631.8
676.355	15226.31
676.553	15003.08
676.75	15099.33
676.947	15568.32
677.145	15457.73
677.342	15349.18
677.539	15504.83
677.737	15336.9
677.934	15861.18
678.131	15392.19
678.329	15302.08
678.526	15609.28
678.723	15754.68
678.92	15281.6
679.118	15332.8
679.315	15189.44
679.512	15883.7
679.709	15361.47
679.906	15076.8
680.104	15609.28
680.301	15379.9
680.498	15046.09
680.695	14962.12
680.892	15193.54
681.089	15005.13
681.286	15214.02
681.483	14912.97
681.68	15185.35
681.877	15525.31
682.075	15001.03
682.272	15144.39
682.469	15379.9
682.665	14945.73
682.862	15113.67
683.059	14771.66
683.256	14917.06
683.453	15379.9
683.65	15093.19
683.847	15267.27
684.044	15056.32
684.241	15097.28
684.438	15185.35
684.635	14792.14
684.831	15640
685.028	15709.63
685.225	14863.82
685.422	15058.37
685.619	15060.42
685.815	15066.56
686.012	15142.34
686.209	14699.98
686.405	15205.83
686.602	15304.13
686.799	14681.55
686.996	14912.97
687.192	14841.29
687.389	15271.36
687.586	14577.1
687.782	14855.62
687.979	15365.57
688.175	15248.83
688.372	14810.57
688.568	14888.39
688.765	14796.23
688.962	15371.71
689.158	14839.24
689.355	14714.31
689.551	15175.11
689.748	14747.08
689.944	15068.61
690.14	14650.83
690.337	15041.99
690.533	14937.54
690.73	14661.07
690.926	14820.81
691.123	14962.12
691.319	14880.2
691.515	14693.83
691.712	14513.61
691.908	14943.69
692.104	15007.17
692.301	14931.4
692.497	14626.25
692.693	15279.55
692.889	15050.18
693.086	14773.71
693.282	14560.72
693.478	14908.87
693.674	15246.79
693.87	14640.59
694.067	14550.48
694.263	14837.19
694.459	14478.8
694.655	14765.51
694.851	14726.6
695.047	15078.85
695.243	15336.9
695.439	14943.69
695.635	14532.04
695.831	15007.17
696.027	15074.76
696.224	14390.74
696.42	14960.07
696.615	15211.97
696.811	14837.19
697.007	14513.61
697.203	14687.69
697.399	14943.69
697.595	14982.6
697.791	14079.44
697.987	14570.96
698.183	14439.89
698.379	14351.82
698.575	14564.81
698.77	14648.78
698.966	14644.68
699.162	15214.02
699.358	14374.35
699.554	14472.65
699.749	14841.29
699.945	14491.09
700.141	14374.35
700.337	14759.37
700.532	14693.83
700.728	14308.82
700.924	14216.66
701.119	14190.03
701.315	14523.85
701.511	14470.61
701.706	14652.88
701.902	14042.58
702.097	14243.28
702.293	14724.55
702.489	14534.09
702.684	14304.72
702.88	14499.28
703.075	14144.98
703.271	14362.06
703.466	14413.26
703.662	14554.57
703.857	14904.78
704.053	14353.87
704.248	14263.76
704.443	14579.15
704.639	14804.42
704.834	14396.88
705.03	14265.81
705.225	14747.08
705.42	14667.21
705.616	14116.31
705.811	14065.11
706.006	14306.77
706.202	14497.23
706.397	14159.31
706.592	14140.88
706.787	14392.78
706.983	14304.72
707.178	14634.44
707.373	14405.07
707.568	14581.2
707.763	14759.37
707.959	14235.09
708.154	14038.48
708.349	14388.69
708.544	14642.64
708.739	14476.75
708.934	13862.36
709.129	14595.53
709.324	14554.57
709.519	13970.9
709.714	14177.75
709.909	14747.08
710.104	14538.19
710.299	14163.41
710.494	14159.31
710.689	14441.93
710.884	14310.86
711.079	14138.83
711.274	14122.45
711.469	14517.71
711.664	14525.9
711.859	14063.06
712.054	14173.65
712.249	14429.65
712.443	14278.1
712.638	13929.94
712.833	13958.61
713.028	14075.35
713.223	14058.96
713.417	14112.21
713.612	13893.08
713.807	14564.81
714.002	14687.69
714.196	14112.21
714.391	13669.85
714.586	14134.74
714.78	14034.39
714.975	13587.93
715.17	13981.14
715.364	14015.96
715.559	14421.45
715.754	13407.71
715.948	13845.98
716.143	14314.96
716.337	13835.74
716.532	14230.99
716.726	13741.53
716.921	14214.61
717.115	14439.89
717.31	13694.43
717.504	14366.16
717.699	13688.28
717.893	14085.59
718.088	13651.42
718.282	13575.64
718.476	14079.44
718.671	14015.96
718.865	13673.95
719.059	13794.78
719.254	13663.71
719.448	14104.02
719.642	14837.19
719.837	13331.94
720.031	14071.25
720.225	14097.88
720.419	13587.93
720.614	13430.24
720.808	13762.01
721.002	13393.37
721.196	13671.9
721.39	13315.55
721.585	14067.16
721.779	14032.34
721.973	13536.73
722.167	13325.79
722.361	13874.65
722.555	14032.34
722.749	13577.69
722.943	13528.54
723.137	13333.98
723.331	13780.44
723.525	13659.61
723.719	13344.22
723.913	14112.21
724.107	13858.26
724.301	13622.75
724.495	13637.08
724.689	14308.82
724.883	13925.85
725.077	13520.35
725.271	13530.59
725.465	13848.02
725.659	13719
725.853	13207.01
726.046	13104.61
726.24	13135.33
726.434	13866.46
726.628	13325.79
726.822	13313.5
727.015	14218.71
727.209	13807.06
727.403	13297.12
727.596	13321.7
727.79	13796.82
727.984	13983.19
728.177	13524.44
728.371	13479.39
728.565	13823.45
728.758	13524.44
728.952	13137.38
729.146	13350.37
729.339	13831.64
729.533	13612.51
729.726	13440.48
729.92	13325.79
730.113	13915.61
730.307	13942.23
730.5	13250.02
730.694	13354.46
730.887	13542.88
731.081	13692.38
731.274	13344.22
731.468	13256.16
731.661	13575.64
731.854	13497.82
732.048	13305.31
732.241	13104.61
732.435	13430.24
732.628	13501.92
732.821	13393.37
733.014	13243.87
733.208	13442.53
733.401	13868.5
733.594	13262.3
733.788	13430.24
733.981	13835.74
734.174	13733.34
734.367	13313.5
734.56	13518.3
734.754	13587.93
734.947	13485.53
735.14	13125.09
735.333	13338.08
735.526	13604.32
735.719	13549.02
735.912	13321.7
736.105	13084.13
736.298	13450.72
736.491	13463.01
736.684	13272.54
736.877	13090.27
737.07	13522.4
737.263	13639.13
737.456	13262.3
737.649	12889.57
737.842	13518.3
738.035	13530.59
738.228	13164
738.421	13329.89
738.614	13784.54
738.807	13848.02
739	12991.97
739.192	12955.11
739.385	13612.51
739.578	13454.81
739.771	13346.27
739.964	12967.4
740.156	13405.66
740.349	13407.71
740.542	13262.3
740.735	13067.75
740.927	13102.56
741.12	13067.75
741.313	12910.05
741.505	13207.01
741.698	13366.75
741.891	13479.39
742.083	13387.23
742.276	13116.9
742.468	13385.18
742.661	13086.18
742.854	12875.24
743.046	13125.09
743.239	13739.48
743.431	13399.52
743.624	12969.44
743.816	12817.9
744.009	13123.04
744.201	13456.86
744.393	13073.89
744.586	12916.2
744.778	13331.94
744.971	12932.58
745.163	12735.98
745.355	13080.04
745.548	13043.17
745.74	13045.22
745.932	13030.88
746.125	13114.85
746.317	13757.91
746.509	13321.7
746.702	12787.18
746.894	12961.25
747.086	13432.29
747.278	13479.39
747.471	12971.49
747.663	12969.44
747.855	13239.78
748.047	13518.3
748.239	12985.83
748.431	13104.61
748.623	13616.6
748.815	13477.34
749.008	12797.42
749.2	12858.85
749.392	13510.11
749.584	13217.25
749.776	13071.84
749.968	13059.56
750.16	13616.6
750.352	13041.12
750.544	12959.2
750.736	12957.16
750.928	13233.63
751.12	13174.24
751.311	12809.7
751.503	12961.25
751.695	12932.58
751.887	13022.69
752.079	12486.12
752.271	12645.87
752.463	13952.47
752.654	13051.36
752.846	12738.02
753.038	12565.99
753.23	13112.8
753.421	13180.39
753.613	12819.94
753.805	13010.4
753.997	13088.23
754.188	13092.32
754.38	12633.58
754.572	12436.97
754.763	12854.76
754.955	12940.77
755.146	12725.74
755.338	12578.28
755.53	12934.63
755.721	12627.43
755.913	12320.24
756.104	12545.52
756.296	12862.95
756.487	12776.94
756.679	12572.14
756.87	12563.95
757.062	12522.99
757.253	12979.68
757.445	12258.8
757.636	12482.03
757.827	12873.19
758.019	13157.86
758.21	12396.01
758.401	12310
758.593	12944.87
758.784	12887.53
758.975	11924.98
759.167	12342.77
759.358	12565.99
759.549	12948.97
759.74	12221.94
759.932	12277.23
760.123	12826.09
760.314	12514.8
760.505	12328.43
760.696	12211.7
760.888	12932.58
761.079	12375.53
761.27	12158.45
761.461	11886.07
761.652	13045.22
761.843	12533.23
762.034	12199.41
762.225	12475.88
762.416	12371.44
762.607	12391.92
762.798	12160.5
762.989	12023.28
763.18	13157.86
763.371	12117.49
763.562	11910.64
763.753	12097.01
763.944	12574.19
764.135	12631.53
764.326	12088.82
764.517	11961.84
764.708	12158.45
764.899	12338.67
765.089	11785.72
765.28	11728.38
765.471	12223.98
765.662	12191.22
765.853	12043.76
766.043	11666.94
766.234	12369.39
766.425	12348.91
766.615	11906.55
766.806	11746.81
766.997	12598.76
767.187	11996.66
767.378	11902.45
767.569	11501.05
767.759	12209.65
767.95	12164.59
768.141	11865.59
768.331	11677.18
768.522	11732.47
768.712	11970.04
768.903	11861.49
769.093	11558.39
769.284	12275.18
769.474	11939.32
769.665	11298.3
769.855	11406.84
770.046	11996.66
770.236	11873.78
770.426	11716.09
770.617	11374.08
770.807	11820.53
770.998	11728.38
771.188	11812.34
771.378	11384.32
771.569	11908.6
771.759	11822.58
771.949	11523.58
772.139	11273.73
772.33	11621.88
772.52	12119.54
772.71	11228.67
772.9	11017.73
773.09	11929.08
773.281	11871.73
773.471	11388.41
773.661	11281.92
773.851	11916.79
774.041	11695.61
774.231	11388.41
774.421	11595.26
774.611	11771.38
774.802	11464.19
774.992	11234.82
775.182	10882.56
775.372	11472.38
775.562	11806.2
775.752	11245.06
775.942	11249.15
776.131	11679.22
776.321	11552.25
776.511	11130.37
776.701	11036.16
776.891	11679.22
777.081	10989.06
777.271	10804.74
777.461	11046.4
777.651	11441.66
777.84	11482.62
778.03	10964.48
778.22	10929.67
778.41	11363.84
778.599	11134.46
778.789	11216.38
778.979	10853.89
779.169	11529.72
779.358	11111.94
779.548	11032.07
779.738	10726.92
779.927	11085.31
780.117	10872.32
780.307	10991.11
780.496	10536.46
780.686	11343.36
780.875	11535.87
781.065	10712.58
781.254	10728.97
781.444	11150.85
781.633	11105.79
781.823	10595.85
782.012	10597.9
782.202	10704.39
782.391	11077.12
782.581	10497.55
782.77	10995.2
782.96	11365.89
783.149	10722.82
783.338	10821.13
783.528	10606.09
783.717	10933.76
783.906	11077.12
784.096	10544.65
784.285	10694.15
784.474	10790.41
784.663	10544.65
784.853	10651.14
785.042	10661.38
785.231	10651.14
785.42	10980.87
785.61	10724.87
785.799	10264.08
785.988	10728.97
786.177	10669.58
786.366	10487.31
786.555	10427.92
786.744	10913.28
786.933	10749.45
787.122	10225.17
787.312	10331.66
787.501	10423.82
787.69	10659.34
787.879	10182.16
788.068	10470.92
788.257	10278.41
788.445	10497.55
788.634	10249.74
788.823	10104.34
789.012	11181.57
789.201	10880.52
789.39	10358.28
789.579	10094.1
789.768	10368.52
789.957	10645
790.145	10167.82
790.334	9772.57
790.523	10346
790.712	10192.4
790.9	10151.44
791.089	9979.41
791.278	10843.65
791.467	10423.82
791.655	10208.78
791.844	10714.63
792.033	10229.26
792.221	10040.85
792.41	10034.71
792.599	9946.64
792.787	10499.59
792.976	10497.55
793.164	9932.31
793.353	10198.54
793.541	10462.73
793.73	10372.62
793.918	10102.29
794.107	9887.25
794.295	10094.1
794.484	10288.65
794.672	9723.41
794.861	9999.89
795.049	10366.48
795.238	10567.18
795.426	10044.95
795.614	9858.58
795.803	10262.03
795.991	10608.14
796.179	9995.79
796.368	10028.56
796.556	10233.36
796.744	9883.16
796.932	9711.13
797.121	9854.48
797.309	9981.46
797.497	10368.52
797.685	9815.57
797.874	10053.14
798.062	10040.85
798.25	10421.77
798.438	9717.27
798.626	9967.12
798.814	10208.78
799.002	10591.75
799.19	9926.16
799.378	9676.31
799.566	10090
799.755	10333.71
799.943	9803.29
800.131	9813.52
800.318	10126.86
800.506	10202.64
800.694	9629.21
800.882	9924.12
801.07	10487.31
801.258	10061.33
801.446	9858.58
801.634	9911.83
801.822	9786.9
802.01	9967.12
802.197	9756.18
802.385	10071.57
802.573	10077.71
802.761	9864.72
802.949	9739.8
803.136	9897.49
803.324	10397.2
803.512	10292.75
803.699	9963.03
803.887	9528.86
804.075	10343.95
804.262	10085.9
804.45	9539.1
804.638	9694.74
804.825	9915.92
805.013	9936.4
805.201	10003.99
805.388	9651.74
805.576	10067.47
805.763	10610.18
805.951	9856.53
806.138	9901.59
806.326	10544.65
806.513	10335.76
806.701	9887.25
806.888	9788.95
807.075	10393.1
807.263	10456.59
807.45	9709.08
807.638	9969.17
807.825	10556.94
808.012	10233.36
808.2	9782.81
808.387	9954.83
808.574	10321.42
808.761	10577.42
808.949	9829.91
809.136	10057.23
809.323	9877.01
809.51	10192.4
809.698	10292.75
809.885	9930.26
810.072	10245.65
810.259	10558.99
810.446	9913.88
810.633	9799.19
810.82	10376.72
811.008	10706.44
811.195	10255.89
811.382	10292.75
811.569	10278.41
811.756	9831.96
811.943	9922.07
812.13	10169.87
812.317	10173.97
812.504	9926.16
812.691	10184.21
812.878	10053.14
813.064	10642.95
813.251	10096.14
813.438	9817.62
813.625	10028.56
813.812	10169.87
813.999	10341.9
814.186	10094.1
814.372	10126.86
814.559	10112.53
814.746	10503.69
814.933	9932.31
815.12	10186.26
815.306	9870.87
815.493	10090
815.68	9997.84
815.866	10098.19
816.053	10632.71
816.24	10753.54
816.426	10286.61
816.613	9928.21
816.799	10460.68
816.986	10485.26
817.173	9995.79
817.359	9770.52
817.546	10118.67
817.732	9766.42
817.919	9752.09
818.105	10319.37
818.292	10149.39
818.478	10257.93
818.665	10141.2
818.851	9991.7
819.037	10819.08
819.224	10200.59
819.41	9922.07
819.597	9934.36
819.783	10538.51
819.969	10307.09
820.156	10026.51
820.342	9817.62
820.528	10886.66
820.714	10116.62
820.901	10012.18
821.087	9719.32
821.273	10636.81
821.459	9969.17
821.646	9725.46
821.832	9831.96
822.018	9991.7
822.204	10055.19
822.39	9987.6
822.576	9766.42
822.762	10124.82
822.948	10155.54
823.134	9971.22
823.32	9784.85
823.507	9901.59
823.693	9967.12
823.879	10249.74
824.065	9623.06
824.25	9954.83
824.436	9737.75
824.622	9741.85
824.808	9535
824.994	9930.26
825.18	9612.82
825.366	9315.87
825.552	9586.2
825.738	9629.21
825.923	10243.6
826.109	9989.65
826.295	9549.34
826.481	9676.31
826.667	9827.86
826.852	9618.97
827.038	9465.37
827.224	10018.32
827.409	9958.93
827.595	9248.29
827.781	9586.2
827.966	9942.55
828.152	9883.16
828.338	9397.79
828.523	9090.59
828.709	9287.2
828.894	10081.81
829.08	9508.38
829.266	9401.88
829.451	9369.12
829.637	9848.34
829.822	9647.64
830.008	9373.21
830.193	9934.36
830.378	9823.76
830.564	9297.44
830.749	9285.15
830.935	9901.59
831.12	9571.86
831.305	9258.53
831.491	9254.43
831.676	9448.99
831.861	9635.35
832.047	9240.09
832.232	9211.42
832.417	9928.21
832.602	9414.17
832.788	9090.59
832.973	9164.32
833.158	9207.33
833.343	9430.55
833.528	9375.26
833.714	9176.61
833.899	9498.14
834.084	9606.68
834.269	9283.1
834.454	9149.98
834.639	9582.1
834.824	9274.91
835.009	9494.04
835.194	9303.58
835.379	9629.21
835.564	9563.67
835.749	9428.51
835.934	8873.51
836.119	9350.68
836.304	9094.69
836.489	8820.26
836.674	9201.18
836.859	9201.18
837.044	9743.89
837.228	9160.22
837.413	8893.99
837.598	9438.75
837.783	9432.6
837.968	9004.58
838.152	8762.92
838.337	8947.23
838.522	9414.17
838.707	9352.73
838.891	9037.34
839.076	9356.83
839.261	9279.01
839.445	9074.21
839.63	9016.87
839.815	9606.68
839.999	9115.17
840.184	8857.12
840.368	8838.69
840.553	9123.36
840.737	9279.01
840.922	8726.05
841.106	8715.81
841.291	8734.25
841.475	9018.91
841.66	8799.78
841.844	8511.02
842.029	9692.69
842.213	8683.05
842.397	8687.14
842.582	8551.98
842.766	9190.94
842.951	9160.22
843.135	8695.33
843.319	8734.25
843.504	9131.55
843.688	9037.34
843.872	8543.78
844.056	8748.58
844.241	8900.13
844.425	8756.77
844.609	8838.69
844.793	8564.26
844.977	9061.92
845.161	8828.45
845.346	8560.17
845.53	8676.9
845.714	8961.57
845.898	9201.18
846.082	8420.91
846.266	8537.64
846.45	8859.17
846.634	8812.07
846.818	8363.56
847.002	8670.76
847.186	8885.8
847.37	8375.85
847.554	8205.87
847.738	8656.42
847.922	8744.49
848.106	8627.75
848.29	8302.12
848.473	8345.13
848.657	8707.62
848.841	8683.05
849.025	8463.91
849.209	8078.9
849.392	8617.51
849.576	8271.4
849.76	8021.55
849.944	8418.86
850.127	8810.02
850.311	8238.64
850.495	8220.21
850.678	8183.34
850.862	8631.85
851.046	8842.79
851.229	8353.32
851.413	7915.06
851.596	8570.41
851.78	8183.34
851.964	8330.8
852.147	8238.64
852.331	8877.6
852.514	8496.68
852.698	8087.09
852.881	7659.06
853.065	8425
853.248	8115.76
853.431	8238.64
853.615	8019.5
853.798	8822.31
853.982	8300.08
854.165	8097.33
854.348	8042.03
854.532	7986.74
854.715	7978.54
854.898	8025.65
855.081	8058.42
855.265	8279.6
855.448	8619.56
855.631	7632.44
855.814	7827
855.997	8427.05
856.181	8400.43
856.364	7814.71
856.547	7544.38
856.73	8052.27
856.913	8111.66
857.096	7667.25
857.279	7915.06
857.462	7894.58
857.645	8529.45
857.828	8023.6
858.011	8029.74
858.194	7992.88
858.377	8287.79
858.56	7767.6
858.743	7820.85
858.926	7783.99
859.109	8359.47
859.292	7747.12
859.475	7661.11
859.658	8384.04
859.841	8156.72
860.023	7728.69
860.206	7489.08
860.389	7999.02
860.572	8281.64
860.755	7630.39
860.937	7603.77
861.12	8003.12
861.303	7808.56
861.486	7597.62
861.668	7478.84
861.851	8058.42
862.034	8011.31
862.216	7634.49
862.399	7374.39
862.581	7734.84
862.764	8082.99
862.947	7460.41
863.129	7468.6
863.312	7527.99
863.494	8070.7
863.677	7788.08
863.859	7284.28
864.042	7820.85
864.224	7990.83
864.406	7419.45
864.589	7159.36
864.771	7573.05
864.954	7169.6
865.136	7300.67
865.318	7013.95
865.501	7587.38
865.683	7026.24
865.865	7243.32
866.048	7214.65
866.23	7599.67
866.412	7476.79
866.594	7218.75
866.777	7321.15
866.959	7675.45
867.141	7386.68
867.323	7403.07
867.505	7435.83
867.687	7470.65
867.869	7466.55
868.052	7382.59
868.234	7151.17
868.416	7636.53
868.598	7579.19
868.78	6905.41
868.962	6999.62
869.144	7697.97
869.326	7708.21
869.508	7059.01
869.69	6991.42
869.872	7278.14
870.054	7728.69
870.236	6925.89
870.417	7024.19
870.599	7194.17
870.781	7667.25
870.963	7132.73
871.145	7026.24
871.327	6944.32
871.508	7542.33
871.69	7042.62
871.872	6942.27
872.054	7259.71
872.235	7550.52
872.417	7061.05
872.599	6858.31
872.78	7769.65
872.962	7208.51
873.144	6981.18
873.325	7210.56
873.507	7845.43
873.689	7306.81
873.87	7104.06
874.052	7171.65
874.233	7145.02
874.415	7331.39
874.596	7052.86
874.778	6903.36
874.959	7302.72
875.141	7366.2
875.322	7081.53
875.503	6901.31
875.685	7382.59
875.866	7089.73
876.048	6762.05
876.229	6784.58
876.41	7269.95
876.592	7405.11
876.773	6993.47
876.954	6723.14
877.136	7427.64
877.317	6987.33
877.498	6688.32
877.679	6956.61
877.86	7022.14
878.042	7124.54
878.223	6860.35
878.404	7317.05
878.585	7370.3
878.766	7687.73
878.947	7024.19
879.128	7024.19
879.309	7394.87
879.49	7591.48
879.672	7169.6
879.853	7108.16
880.034	7124.54
880.215	7415.35
880.396	7188.03
880.576	7091.77
880.757	7360.06
880.938	7628.34
881.119	7044.67
881.3	7126.59
881.481	7171.65
881.662	8158.77
881.843	7028.29
882.023	7087.68
882.204	7411.26
882.385	7595.57
882.566	7175.74
882.747	7151.17
882.927	7390.78
883.108	7558.71
883.289	7237.18
883.469	7302.72
883.65	7278.14
883.831	7546.42
884.011	7366.2
884.192	7194.17
884.373	7890.48
884.553	7867.95
884.734	7614.01
884.914	7538.23
885.095	8314.41
885.275	7949.87
885.456	7659.06
885.636	7151.17
885.817	7605.81
885.997	7640.63
886.178	7292.48
886.358	7327.29
886.538	7628.34
886.719	8605.22
886.899	7327.29
887.08	7460.41
887.26	7693.88
887.44	7386.68
887.621	7497.27
887.801	7566.9
887.981	8265.26
888.161	7892.53
888.342	7730.74
888.522	7478.84
888.702	8091.18
888.882	7990.83
889.062	7552.57
889.242	7272
889.423	8169.01
889.603	7806.52
889.783	7620.15
889.963	7351.87
890.143	7755.32
890.323	7945.78
890.503	7527.99
890.683	7546.42
890.863	7833.14
891.043	7908.91
891.223	7347.77
891.403	7685.69
891.583	7874.1
891.763	7847.47
891.943	7550.52
892.122	7304.76
892.302	7788.08
892.482	7765.56
892.662	7607.86
892.842	7308.86
893.022	7853.62
893.201	7654.97
893.381	7644.73
893.561	7396.92
893.741	7939.63
893.92	7910.96
894.1	7671.35
894.28	7460.41
894.459	7947.83
894.639	7827
894.819	7527.99
894.998	7730.74
895.178	7867.95
895.357	7923.25
895.537	7147.07
895.716	7235.13
895.896	7609.91
896.075	7878.19
896.255	7245.37
896.434	7259.71
896.614	8042.03
896.793	7892.53
896.973	7489.08
897.152	7425.59
897.331	7636.53
897.511	7953.97
897.69	7222.84
897.87	7161.41
898.049	7751.22
898.228	7581.24
898.407	7407.16
898.587	7384.63
898.766	7175.74
898.945	7548.47
899.124	7263.8
899.304	7255.61
899.483	7482.94
899.662	7910.96
899.841	7046.72
900.02	7009.86
900.199	7628.34
900.378	7310.91
900.557	6800.96
900.737	6907.46
900.916	7480.89
901.095	7495.22
901.274	7171.65
901.453	6731.33
901.632	6817.35
901.811	6977.09
901.989	6856.26
902.168	6884.93
902.347	7325.24
902.526	7046.72
902.705	6768.2
902.884	6862.4
903.063	7409.21
903.242	7288.38
903.42	6485.58
903.599	6995.52
903.778	7284.28
903.957	7218.75
904.135	6932.03
904.314	6807.11
904.493	7102.01
904.672	7157.31
904.85	6686.28
905.029	6426.18
905.207	7030.34
905.386	7470.65
905.565	6245.96
905.743	6276.68
905.922	6665.8
906.1	6825.54
906.279	6442.57
906.457	6299.21
906.636	6501.96
906.814	6465.1
906.993	6340.17
907.171	6004.3
907.35	6544.97
907.528	6657.61
907.707	6436.42
907.885	6022.73
908.063	6790.72
908.242	6116.94
908.42	6243.92
908.598	5774.93
908.777	6370.89
908.955	6133.33
909.133	6141.52
909.311	5979.73
909.49	6297.16
909.668	6436.42
909.846	6008.4
910.024	5910.1
910.202	6504.01
910.38	6510.15
910.559	5969.49
910.737	6241.87
910.915	6567.49
911.093	6592.07
911.271	6227.53
911.449	6233.68
911.627	6516.3
911.805	6886.98
911.983	6284.87
912.161	6266.44
912.339	6684.23
912.517	6882.88
912.695	6508.1
912.872	6317.64
913.05	6303.31
913.228	6614.6
913.406	6420.04
913.584	6432.33
913.762	6983.23
913.939	6458.95
914.117	6454.86
914.295	6194.76
914.473	6624.84
914.65	6841.92
914.828	6329.93
915.006	6182.48
915.184	6358.6
915.361	6592.07
915.539	6481.48
915.716	6397.51
915.894	6684.23
916.072	6635.08
916.249	6663.75
916.427	6555.21
916.604	6284.87
916.782	6600.26
916.959	6272.59
917.137	6123.09
917.314	6538.82
917.492	6540.87
917.669	6348.36
917.847	6284.87
918.024	6377.03
918.201	6166.09
918.379	6202.96
918.556	6221.39
918.733	6692.42
918.911	6303.31
919.088	6397.51
919.265	6145.61
919.442	6583.88
919.62	6350.41
919.797	5994.06
919.974	5815.89
920.151	6596.17
920.328	6286.92
920.506	5957.2
920.683	6243.92
920.86	6028.88
921.037	6006.35
921.214	6223.44
921.391	6051.41
921.568	6434.38
921.745	5918.29
921.922	6057.55
922.099	5897.81
922.276	6444.62
922.453	6073.93
922.63	5754.45
922.807	5985.87
922.984	6004.3
923.161	5981.78
923.338	6006.35
923.514	5908.05
923.691	6205
923.868	6383.18
924.045	5899.86
924.222	5803.6
924.399	6166.09
924.575	6491.72
924.752	6100.56
924.929	5922.38
925.105	6182.48
925.282	5871.19
925.459	5736.02
925.635	5717.59
925.812	6018.64
925.989	5867.09
926.165	5746.26
926.342	5563.99
926.518	5795.41
926.695	5899.86
926.871	5576.28
927.048	5496.41
927.224	5959.25
927.401	5555.8
927.577	5580.37
927.754	5353.05
927.93	6030.93
928.107	5834.32
928.283	5326.43
928.459	5715.54
928.636	5785.17
928.812	5588.57
928.988	5260.89
929.165	5219.93
929.341	5508.69
929.517	5703.25
929.693	5604.95
929.87	5006.94
930.046	5770.83
930.222	5254.75
930.398	5125.72
930.574	5310.04
930.751	5525.08
930.927	5342.81
931.103	5287.51
931.279	5228.12
931.455	5213.79
931.631	5426.78
931.807	4836.96
931.983	4984.41
932.159	5041.76
932.335	5279.32
932.511	4947.55
932.687	5058.14
932.863	5234.27
933.039	5162.59
933.215	4738.66
933.391	4765.28
933.566	4929.12
933.742	5101.15
933.918	4888.16
934.094	4550.25
934.27	5080.67
934.445	5054.05
934.621	4828.77
934.797	4605.54
934.973	4877.92
935.148	4748.9
935.324	4277.87
935.5	4042.35
935.675	4869.73
935.851	4666.98
936.027	4331.11
936.202	4279.91
936.378	4521.57
936.553	4327.02
936.729	4458.09
936.904	3815.02
937.08	4044.4
937.255	4001.39
937.431	3735.15
937.606	3534.45
937.782	3827.31
937.957	3993.2
938.133	3528.31
938.308	3370.62
938.483	3729.01
938.659	3563.12
938.834	3507.83
939.009	3413.62
939.185	3563.12
939.36	3376.76
939.535	3020.41
939.71	3329.66
939.886	3538.55
940.061	3640.95
940.236	3237.5
940.411	3069.56
940.586	3706.48
940.761	3534.45
940.937	3171.96
941.112	3057.28
941.287	3321.46
941.462	3208.83
941.637	2793.09
941.812	2926.21
941.987	3362.42
942.162	3159.67
942.337	2854.53
942.512	2854.53
942.687	3311.22
942.862	3100.28
943.037	2688.64
943.212	2449.03
943.386	2836.1
943.561	2985.6
943.736	2866.81
943.911	3051.13
944.086	2967.17
944.26	2961.02
944.435	2756.22
944.61	2764.42
944.785	3241.59
944.959	3378.81
945.134	2768.51
945.309	2639.49
945.483	2797.18
945.658	3055.23
945.833	2619.01
946.007	2727.55
946.182	3407.48
946.357	2659.97
946.531	2608.77
946.706	2655.87
946.88	2569.86
947.055	3028.6
947.229	2629.25
947.404	2643.59
947.578	3217.02
947.752	2926.21
947.927	2438.79
948.101	2709.12
948.276	2991.74
948.45	3079.8
948.624	3069.56
948.799	2809.47
948.973	2944.64
949.147	2803.33
949.321	2774.66
949.496	2813.57
949.67	3333.75
949.844	3001.98
950.018	2819.71
950.193	2846.34
950.367	3626.61
950.541	2961.02
950.715	3069.56
950.889	3075.71
951.063	3139.19
951.237	3307.13
951.411	2743.94
951.585	2719.36
951.759	3165.82
951.933	3044.99
952.107	2834.05
952.281	3133.05
952.455	3585.65
952.629	3503.73
952.803	2832
952.977	2819.71
953.151	3366.52
953.325	3276.41
953.499	3194.49
953.672	2918.01
953.846	3106.43
954.02	3305.08
954.194	2995.84
954.368	2893.44
954.541	3387
954.715	3194.49
954.889	3194.49
955.062	2885.25
955.236	3405.43
955.41	3221.11
955.583	3237.5
955.757	2969.21
955.93	3198.59
956.104	2995.84
956.278	3016.32
956.451	3083.9
956.625	3430.01
956.798	3722.87
956.972	3327.61
957.145	2971.26
957.319	3454.58
957.492	3278.46
957.665	3165.82
957.839	3083.9
958.012	3503.73
958.185	3296.89
958.359	3112.57
958.532	3141.24
958.705	3473.01
958.879	3409.53
959.052	3231.35
959.225	2956.93
959.398	3346.04
959.572	3407.48
959.745	3122.81
959.918	3073.66
960.091	3300.98
960.264	3493.49
960.438	3004.03
960.611	2989.69
960.784	3538.55
960.957	3241.59
961.13	3419.77
961.303	2944.64
961.476	3346.04
961.649	3487.35
961.822	3135.1
961.995	3149.43
962.168	3581.56
962.341	3415.67
962.514	3102.33
962.686	3131
962.859	3360.38
963.032	3526.26
963.205	3272.31
963.378	2932.35
963.551	3350.14
963.723	3292.79
963.896	3174.01
964.069	3237.5
964.242	3325.56
964.414	3470.97
964.587	3290.74
964.76	3057.28
964.932	3382.9
965.105	3303.03
965.278	2985.6
965.45	3139.19
965.623	3333.75
965.795	3466.87
965.968	2995.84
966.14	3171.96
966.313	3266.17
966.485	3319.42
966.658	3040.89
966.83	3069.56
967.003	3532.4
967.175	3565.17
967.348	3049.08
967.52	3231.35
967.692	3683.95
967.865	3462.77
968.037	2948.73
968.209	3266.17
968.382	3307.13
968.554	3489.4
968.726	3065.47
968.898	3120.76
969.071	3327.61
969.243	3411.57
969.415	3065.47
969.587	3122.81
969.759	3761.78
969.932	3413.62
970.104	2999.93
970.276	2680.45
970.448	3034.75
970.62	3186.3
970.792	3049.08
970.964	3020.41
971.136	3860.08
971.308	3163.77
971.48	2877.05
971.652	3016.32
971.824	3640.95
971.996	3028.6
972.168	3001.98
972.339	2942.59
972.511	3407.48
972.683	3012.22
972.855	3196.54
973.027	2803.33
973.199	3128.95
973.37	3229.31
973.542	3053.18
973.714	3024.51
973.886	3030.65
974.057	3255.93
974.229	2672.26
974.401	2791.04
974.572	2854.53
974.744	2582.15
974.915	2625.15
975.087	2647.68
975.259	3446.39
975.43	2903.68
975.602	2872.96
975.773	2674.31
975.945	2969.21
976.116	3268.22
976.288	2715.27
976.459	2983.55
976.63	2950.78
976.802	3110.52
976.973	2772.61
977.145	2971.26
977.316	3356.28
977.487	3092.09
977.659	2819.71
977.83	2721.41
978.001	3294.84
978.172	3042.94
978.344	2563.72
978.515	2705.03
978.686	2948.73
978.857	3327.61
979.028	2627.2
979.2	2625.15
979.371	3169.91
979.542	2829.95
979.713	2780.8
979.884	2174.6
980.055	2537.09
980.226	2797.18
980.397	2592.39
980.568	2576
980.739	2983.55
980.91	2690.69
981.081	2680.45
981.252	2403.97
981.423	2848.38
981.594	3032.7
981.765	2475.65
981.936	2498.18
982.106	2684.55
982.277	3014.27
982.448	2422.41
982.619	2705.03
982.79	2684.55
982.96	2999.93
983.131	2586.24
983.302	2315.91
983.472	2573.96
983.643	2766.46
983.814	2510.47
983.984	2446.98
984.155	2600.58
984.326	2942.59
984.496	2528.9
984.667	2471.56
984.837	2520.71
985.008	3077.76
985.178	2512.52
985.349	2406.02
985.519	2639.49
985.69	2442.89
985.86	2469.51
986.031	2375.3
986.201	2582.15
986.371	2657.92
986.542	2309.77
986.712	2135.69
986.882	2641.54
987.053	2657.92
987.223	2193.03
987.393	2446.98
987.563	2496.13
987.734	2686.59
987.904	2657.92
988.074	2213.51
988.244	2510.47
988.414	2330.25
988.585	2184.84
988.755	2268.81
988.925	2397.83
989.095	2795.14
989.265	2008.72
989.435	2147.98
989.605	2553.48
989.775	2549.38
989.945	2352.77
990.115	1982.09
990.285	2381.45
990.455	2451.08
990.625	2201.23
990.795	2004.62
990.965	2688.64
991.134	1988.24
991.304	2109.07
991.474	2119.31
991.644	2457.22
991.814	2657.92
991.984	1971.85
992.153	1980.04
992.323	2297.48
992.493	2244.23
992.662	1924.75
992.832	2066.06
993.002	2258.57
993.171	2317.96
993.341	1906.32
993.511	2023.05
993.68	2080.39
993.85	2358.92
994.019	1810.06
994.189	1898.13
994.358	2199.18
994.528	2078.35
994.697	1648.27
994.867	1853.07
995.036	2328.2
995.206	2178.7
995.375	1844.88
995.544	2107.02
995.714	2281.1
995.883	2129.55
996.052	1947.28
996.222	1644.18
996.391	2584.2
996.56	2143.88
996.73	1767.06
996.899	1664.66
997.068	2467.46
997.237	1955.47
997.406	1582.74
997.576	1590.93
997.745	2111.11
997.914	2109.07
998.083	1478.29
998.252	1693.33
998.421	2115.21
998.59	1889.93
998.759	1597.07
998.928	1427.09
999.097	2250.38
999.266	1920.65
999.435	1724.05
999.604	1396.37
999.773	2434.69
999.942	1947.28
1000.111	1537.68
1000.28	1414.81
1000.448	1746.58
1000.617	1607.31
1000.786	1656.47
1000.955	1509.01
1001.124	1945.23
1001.292	2453.13
1001.461	1656.47
1001.63	1423
1001.798	2186.89
1001.967	2160.27
1002.136	1357.46
1002.304	1400.47
1002.473	1918.61
1002.642	1828.49
1002.81	1547.92
1002.979	1629.84
1003.147	1939.09
1003.316	2428.55
1003.484	1623.7
1003.653	1304.21
1003.821	2078.35
1003.99	1705.62
1004.158	1578.64
1004.327	1523.35
1004.495	1810.06
1004.663	1433.24
1004.832	1590.93
1005	1300.12
1005.168	1863.31
1005.337	1814.16
1005.505	1193.62
1005.673	1447.57
1005.842	1879.69
1006.01	1664.66
1006.178	1289.88
1006.346	1261.21
1006.514	1791.63
1006.683	1992.33
1006.851	1246.87
1007.019	1476.24
1007.187	1611.41
1007.355	1179.29
1007.523	1183.38
1007.691	1070.75
1007.859	1328.79
1008.027	1844.88
1008.195	1345.17
1008.363	1175.19
1008.531	1799.82
1008.699	1339.03
1008.867	1083.03
1009.035	1140.38
1009.203	1769.1
1009.37	1578.64
1009.538	1324.69
1009.706	1648.27
1009.874	1568.4
1010.042	1398.42
1010.209	1029.79
1010.377	1109.66
1010.545	1640.08
1010.713	1500.82
1010.88	1152.67
1011.048	1158.81
1011.216	1345.17
1011.383	1754.77
1011.551	1074.84
1011.718	954.01
1011.886	1744.53
1012.054	1384.09
1012.221	1003.16
1012.389	1029.79
1012.556	1353.37
1012.724	1814.16
1012.891	1183.38
1013.058	874.14
1013.226	1480.34
1013.393	1529.49
1013.561	847.52
1013.728	913.05
1013.895	1480.34
1014.063	1500.82
1014.23	968.35
1014.397	939.68
1014.565	1433.24
1014.732	1271.45
1014.899	976.54
1015.066	753.31
1015.233	1255.06
1015.401	1486.48
1015.568	935.58
1015.735	943.77
1015.902	1232.54
1016.069	1226.39
1016.236	863.9
1016.403	747.17
1016.57	1066.65
1016.737	1449.62
1016.904	902.81
1017.071	855.71
1017.238	1111.71
1017.405	1377.94
1017.572	935.58
1017.739	1068.7
1017.906	1484.44
1018.073	1375.89
1018.24	796.32
1018.407	931.48
1018.573	1423
1018.74	1201.82
1018.907	849.57
1019.074	747.17
1019.241	1343.13
1019.407	1205.91
1019.574	781.98
1019.741	583.33
1019.907	1083.03
1020.074	1210.01
1020.241	577.19
1020.407	679.58
1020.574	1060.51
1020.74	1210.01
1020.907	790.17
1021.073	745.12
1021.24	1640.08
1021.406	1463.96
1021.573	755.36
1021.739	661.15
1021.906	1183.38
1022.072	1070.75
1022.239	685.73
1022.405	626.34
1022.571	1111.71
1022.738	837.28
1022.904	743.07
1023.07	718.5
1023.237	1164.95
1023.403	1300.12
1023.569	614.05
1023.735	802.46
1023.902	1105.56
1024.068	1050.27
1024.234	464.55
1024.4	657.06
1024.566	1156.76
1024.732	1195.67
1024.898	595.62
1025.065	468.64
1025.231	1091.23
1025.397	945.82
1025.563	597.67
1025.729	534.18
1025.895	599.71
1026.061	781.98
1026.227	437.92
1026.392	638.62
1026.558	1146.52
1026.724	1060.51
1026.89	544.42
1027.056	640.67
1027.222	1017.5
1027.388	794.27
1027.553	577.19
1027.719	423.59
1027.885	1316.5
1028.051	1044.12
1028.216	423.59
1028.382	591.52
1028.548	1078.94
1028.713	794.27
1028.879	419.49
1029.045	642.72
1029.21	1179.29
1029.376	1224.34
1029.541	665.25
1029.707	554.66
1029.873	954.01
1030.038	1064.6
1030.204	505.51
1030.369	601.76
1030.534	1029.79
1030.7	806.56
1030.865	573.09
1031.031	462.5
1031.196	913.05
1031.361	941.72
1031.527	493.22
1031.692	370.34
1031.857	515.75
1032.023	1017.5
1032.188	399.01
1032.353	509.6
1032.518	1091.23
1032.684	820.89
1032.849	341.67
1033.014	495.27
1033.179	943.77
1033.344	1019.55
1033.509	503.46
1033.674	501.41
1033.839	878.24
1034.004	999.07
1034.17	421.54
1034.335	212.65
1034.5	673.44
1034.664	652.96
1034.829	411.3
1034.994	507.55
1035.159	820.89
1035.324	820.89
1035.489	419.49
1035.654	345.77
1035.819	1113.75
1035.984	831.13
1036.148	419.49
1036.313	378.53
1036.478	976.54
1036.643	779.93
1036.807	392.87
1036.972	288.42
1037.137	1062.55
1037.301	743.07
1037.466	222.89
1037.631	439.97
1037.795	994.97
1037.96	833.18
1038.124	472.74
1038.289	222.89
1038.454	870.05
1038.618	886.43
1038.783	431.78
1038.947	407.2
1039.111	722.59
1039.276	568.99
1039.44	366.25
1039.605	812.7
1039.769	712.35
1039.933	628.39
1040.098	306.85
1040.262	603.81
1040.426	923.29
1040.591	786.08
1040.755	231.08
1040.919	343.72
1041.083	788.13
1041.248	730.78
1041.412	124.58
1041.576	257.7
1041.74	636.58
1041.904	874.14
1042.068	241.32
1042.232	413.35
1042.397	966.3
1042.561	730.78
1042.725	63.15
1042.889	497.32
1043.053	765.6
1043.217	763.55
1043.381	403.11
1043.544	163.5
1043.708	980.64
1043.872	425.64
1044.036	83.63
1044.2	159.4
1044.364	870.05
1044.528	974.49
1044.691	3507.83
1044.855	169.64
1045.019	997.02
1045.183	796.32
1045.346	368.29
1045.51	190.12
1045.674	720.54
1045.837	804.51
1046.001	243.37
1046.165	276.13
1046.328	1095.32
1046.492	734.88
1046.655	413.35
1046.819	294.57
1046.983	546.47
1047.146	792.22
1047.31	362.15
1047.473	77.48
1047.636	648.86
1047.8	454.31
1047.963	237.22
1048.127	157.35
1048.29	378.53
