Data from Hydrogel_Ink_Intensity_Test_1_USB4F045381__43__00043.txt Node

Date: Mon Jul 31 10:46:49 EDT 2023
User: mmckonesweet
Spectrometer: USB4F04538
Trigger mode: 4
Integration Time (sec): 9.000000E-1
Scans to average: 1
Electric dark correction enabled: true
Nonlinearity correction enabled: false
Boxcar width: 0
XAxis mode: Wavelengths
Number of Pixels in Spectrum: 3648
>>>>>Begin Spectral Data<<<<<
345.52	-949.4
345.736	-949.4
345.952	-949.4
346.168	-904.35
346.384	-986.27
346.6	-130.22
346.816	-203.94
347.032	-181.42
347.248	262.99
347.464	-234.66
347.68	-97.45
347.896	86.87
348.112	420.69
348.328	-66.73
348.544	-109.74
348.76	33.62
348.975	219.99
349.191	-222.38
349.407	-169.13
349.623	41.81
349.839	-46.25
350.055	-95.4
350.27	74.58
350.486	230.23
350.702	320.34
350.918	258.9
351.133	-197.8
351.349	185.17
351.565	422.73
351.781	-220.33
351.996	70.48
352.212	379.73
352.428	-97.45
352.644	-144.55
352.859	-205.99
353.075	340.82
353.291	-25.77
353.506	-126.12
353.722	-220.33
353.938	-15.53
354.153	494.41
354.369	191.31
354.584	-144.55
354.8	242.51
355.016	-306.34
355.231	-214.18
355.447	17.24
355.662	176.98
355.878	803.66
356.093	-310.44
356.309	15.19
356.524	-181.42
356.74	234.32
356.955	-152.74
357.171	70.48
357.386	121.68
357.602	-183.46
357.817	52.05
358.033	-212.14
358.248	375.63
358.464	197.46
358.679	-119.98
358.895	-267.43
359.11	0.85
359.325	389.97
359.541	287.57
359.756	33.62
359.972	-240.81
360.187	191.31
360.402	-83.11
360.618	-66.73
360.833	936.78
361.048	125.78
361.264	-115.88
361.479	-23.72
361.694	123.73
361.909	260.95
362.125	-162.98
362.34	-19.63
362.555	322.38
362.77	156.5
362.986	-273.57
363.201	-95.4
363.416	275.28
363.631	45.91
363.847	-105.64
364.062	-185.51
364.277	209.75
364.492	150.36
364.707	-146.6
364.922	-306.34
365.138	275.28
365.353	346.96
365.568	-232.62
365.783	-212.14
365.998	50
366.213	555.85
366.428	-197.8
366.643	119.64
366.858	303.95
367.073	344.91
367.288	-9.39
367.503	-162.98
367.718	244.56
367.933	406.35
368.148	-240.81
368.363	-87.21
368.578	27.48
368.793	463.69
369.008	-138.41
369.223	-191.66
369.438	306
369.653	518.99
369.868	-181.42
370.083	-212.14
370.298	86.87
370.513	373.58
370.728	164.69
370.943	-107.69
371.157	-87.21
371.372	623.44
371.587	-220.33
371.802	-265.38
372.017	78.68
372.232	449.36
372.446	-1.19
372.661	-171.18
372.876	258.9
373.091	213.84
373.306	27.48
373.52	-191.66
373.735	-89.26
373.95	486.22
374.165	-68.78
374.379	-46.25
374.594	-56.49
374.809	142.16
375.023	70.48
375.238	-197.8
375.453	205.65
375.667	-128.17
375.882	-99.5
376.097	-87.21
376.311	119.64
376.526	56.15
376.741	-173.22
376.955	236.37
377.17	619.34
377.384	645.96
377.599	-21.67
377.813	-167.08
378.028	617.29
378.242	219.99
378.457	-9.39
378.672	-294.05
378.886	119.64
379.101	-15.53
379.315	-318.63
379.53	-138.41
379.744	299.86
379.958	281.43
380.173	-93.35
380.387	-66.73
380.602	269.14
380.816	-3.24
381.031	-136.36
381.245	-158.89
381.459	312.14
381.674	1033.03
381.888	-138.41
382.103	189.27
382.317	-64.68
382.531	568.14
382.746	-40.11
382.96	-187.56
383.174	-31.91
383.388	463.69
383.603	70.48
383.817	-183.46
384.031	289.62
384.246	607.05
384.46	52.05
384.674	408.4
384.888	140.12
385.103	154.45
385.317	-216.23
385.531	19.29
385.745	412.5
385.959	355.15
386.174	-126.12
386.388	-130.22
386.602	115.54
386.816	17.24
387.03	52.05
387.244	41.81
387.458	250.71
387.672	502.61
387.887	-191.66
388.101	-111.78
388.315	506.7
388.529	230.23
388.743	-52.39
388.957	-70.83
389.171	451.41
389.385	-122.02
389.599	-31.91
389.813	76.63
390.027	252.75
390.241	791.37
390.455	27.48
390.669	37.72
390.883	-33.96
391.097	621.39
391.311	183.12
391.525	-23.72
391.738	332.62
391.952	275.28
392.166	2.9
392.38	-109.74
392.594	420.69
392.808	498.51
393.022	-13.48
393.236	35.67
393.449	330.58
393.663	351.06
393.877	-89.26
394.091	-38.06
394.305	25.43
394.518	-23.72
394.732	-179.37
394.946	-15.53
395.16	525.13
395.373	127.83
395.587	-107.69
395.801	-60.59
396.015	451.41
396.228	365.39
396.442	-169.13
396.656	-169.13
396.869	471.89
397.083	586.57
397.297	9.05
397.51	9.05
397.724	441.17
397.938	328.53
398.151	-134.31
398.365	-158.89
398.578	334.67
398.792	525.13
399.005	90.96
399.219	25.43
399.433	267.09
399.646	308.05
399.86	127.83
400.073	138.07
400.287	357.2
400.5	62.29
400.714	201.55
400.927	74.58
401.141	338.77
401.354	1233.73
401.567	265.04
401.781	-93.35
401.994	475.98
402.208	650.06
402.421	115.54
402.635	11.09
402.848	93.01
403.061	377.68
403.275	72.53
403.488	-115.88
403.701	645.96
403.915	361.3
404.128	203.6
404.341	-7.34
404.555	346.96
404.768	187.22
404.981	170.83
405.195	-27.82
405.408	738.12
405.621	461.65
405.834	125.78
406.048	2.9
406.261	568.14
406.474	691.02
406.687	35.67
406.9	119.64
407.114	271.19
407.327	416.59
407.54	-93.35
407.753	-152.74
407.966	-36.01
408.179	432.97
408.392	-38.06
408.605	-130.22
408.819	346.96
409.032	359.25
409.245	13.14
409.458	201.55
409.671	340.82
409.884	629.58
410.097	-54.44
410.31	246.61
410.523	353.1
410.736	197.46
410.949	127.83
411.162	138.07
411.375	590.67
411.588	617.29
411.801	207.7
412.014	33.62
412.227	250.71
412.44	158.55
412.653	39.76
412.865	285.52
413.078	441.17
413.291	478.03
413.504	123.73
413.717	50
413.93	418.64
414.143	95.06
414.356	133.97
414.568	-87.21
414.781	531.28
414.994	412.5
415.207	189.27
415.42	230.23
415.632	445.26
415.845	719.69
416.058	-29.87
416.271	-136.36
416.483	357.2
416.696	760.65
416.909	74.58
417.121	13.14
417.334	471.89
417.547	842.57
417.759	-7.34
417.972	-5.29
418.185	201.55
418.397	537.42
418.61	43.86
418.823	103.25
419.035	752.46
419.248	432.97
419.46	213.84
419.673	195.41
419.885	430.93
420.098	316.24
420.311	97.11
420.523	-46.25
420.736	535.37
420.948	379.73
421.161	144.21
421.373	-31.91
421.586	508.75
421.798	236.37
422.01	-97.45
422.223	219.99
422.435	164.69
422.648	531.28
422.86	107.35
423.073	144.21
423.285	570.19
423.497	37.72
423.71	125.78
423.922	31.57
424.134	562
424.347	723.79
424.559	400.21
424.771	508.75
424.984	242.51
425.196	568.14
425.408	-7.34
425.621	90.96
425.833	668.49
426.045	734.03
426.257	107.35
426.47	246.61
426.682	486.22
426.894	553.8
427.106	181.07
427.318	248.66
427.531	193.36
427.743	652.11
427.955	244.56
428.167	625.48
428.379	609.1
428.591	422.73
428.804	318.29
429.016	74.58
429.228	322.38
429.44	564.04
429.652	435.02
429.864	125.78
430.076	414.54
430.288	351.06
430.5	271.19
430.712	312.14
430.924	676.68
431.136	510.8
431.348	111.44
431.56	205.65
431.772	518.99
431.984	410.45
432.196	158.55
432.408	279.38
432.62	447.31
432.832	516.94
433.044	475.98
433.256	445.26
433.468	652.11
433.679	140.12
433.891	215.89
434.103	471.89
434.315	846.66
434.527	676.68
434.739	365.39
434.95	422.73
435.162	717.64
435.374	357.2
435.586	293.71
435.798	279.38
436.009	324.43
436.221	494.41
436.433	277.33
436.645	275.28
436.856	508.75
437.068	877.38
437.28	234.32
437.491	631.63
437.703	746.31
437.915	682.83
438.126	359.25
438.338	609.1
438.55	574.28
438.761	746.31
438.973	412.5
439.184	351.06
439.396	486.22
439.608	719.69
439.819	303.95
440.031	453.45
440.242	729.93
440.454	836.42
440.665	504.65
440.877	445.26
441.088	779.08
441.3	582.48
441.511	230.23
441.723	377.68
441.934	602.96
442.146	617.29
442.357	598.86
442.569	727.88
442.78	635.72
442.991	1035.08
443.203	676.68
443.414	289.62
443.626	1014.6
443.837	516.94
444.048	314.19
444.26	238.42
444.471	662.35
444.682	856.9
444.894	271.19
445.105	316.24
445.316	957.25
445.528	736.07
445.739	529.23
445.95	451.41
446.161	691.02
446.373	873.29
446.584	402.26
446.795	480.08
447.006	838.47
447.217	1104.71
447.429	258.9
447.64	369.49
447.851	959.3
448.062	740.17
448.273	267.09
448.484	455.5
448.695	854.86
448.907	588.62
449.118	490.32
449.329	734.03
449.54	586.57
449.751	525.13
449.962	488.27
450.173	516.94
450.384	1000.26
450.595	1145.67
450.806	516.94
451.017	588.62
451.228	1049.41
451.439	908.1
451.65	557.9
451.861	228.18
452.072	504.65
452.283	729.93
452.494	715.59
452.705	578.38
452.915	1188.68
453.126	908.1
453.337	510.8
453.548	490.32
453.759	1090.37
453.97	1289.03
454.181	817.99
454.391	572.24
454.602	885.58
454.813	967.49
455.024	750.41
455.235	510.8
455.445	893.77
455.656	932.68
455.867	846.66
456.078	676.68
456.288	746.31
456.499	1080.13
456.71	592.72
456.921	957.25
457.131	1110.85
457.342	854.86
457.553	797.51
457.763	705.35
457.974	1057.61
458.184	1100.61
458.395	742.22
458.606	664.4
458.816	1299.27
459.027	1438.53
459.237	854.86
459.448	545.61
459.659	1254.21
459.869	1461.06
460.08	631.63
460.29	883.53
460.501	1444.67
460.711	887.62
460.922	645.96
461.132	758.6
461.343	1680.19
461.553	756.55
461.764	811.85
461.974	787.27
462.184	1221.44
462.395	1325.89
462.605	877.38
462.816	826.18
463.026	1141.57
463.236	1504.06
463.447	897.86
463.657	893.77
463.867	1282.88
464.078	1106.76
464.288	1039.17
464.498	1082.18
464.709	1272.64
464.919	1178.44
465.129	1045.32
465.339	906.06
465.55	1321.79
465.76	1391.42
465.97	1076.04
466.18	965.45
466.391	1508.16
466.601	1317.7
466.811	1102.66
467.021	910.15
467.231	1516.35
467.441	1700.67
467.651	1127.24
467.862	861
468.072	1207.11
468.282	1702.72
468.492	1160
468.702	1155.91
468.912	1495.87
469.122	2040.63
469.332	1444.67
469.542	1235.78
469.752	1659.71
469.962	1555.26
470.172	1250.11
470.382	1307.46
470.592	1628.99
470.802	1780.54
471.012	1469.25
471.222	1352.51
471.432	1796.92
471.642	1708.86
471.852	1469.25
472.062	1334.08
472.272	1631.04
472.482	1387.33
472.691	1426.24
472.901	1274.69
473.111	1776.44
473.321	2337.59
473.531	1327.94
473.741	1692.48
473.95	2069.3
474.16	2069.3
474.37	1719.1
474.58	1545.02
474.79	2278.19
474.999	2200.37
475.209	1624.89
475.419	1749.82
475.628	1950.52
475.838	2243.38
476.048	1884.98
476.258	1696.57
476.467	2497.33
476.677	1983.29
476.886	1987.38
477.096	1995.57
477.306	2063.16
477.515	2550.57
477.725	2026.29
477.935	2020.15
478.144	2507.57
478.354	2106.17
478.563	2007.86
478.773	1975.1
478.982	2564.91
479.192	2661.16
479.401	2251.57
479.611	2024.25
479.82	2214.71
480.03	2386.74
480.239	2081.59
480.449	2136.88
480.658	2898.73
480.868	2358.07
481.077	2396.98
481.287	2302.77
481.496	2626.35
481.705	3074.85
481.915	2634.54
482.124	2685.74
482.333	2763.56
482.543	3081
482.752	2665.26
482.961	2413.36
483.171	3037.99
483.38	2810.67
483.589	2624.3
483.799	2528.05
484.008	2804.52
484.217	3097.38
484.426	2589.49
484.636	2532.14
484.845	2958.12
485.054	2609.97
485.263	3017.51
485.472	2802.47
485.682	3404.58
485.891	3095.33
486.1	2657.07
486.309	2863.91
486.518	3257.12
486.727	3533.6
486.936	2763.56
487.146	2855.72
487.355	3601.18
487.564	2954.02
487.773	3109.67
487.982	3044.13
488.191	3148.58
488.4	3296.04
488.609	2911.02
488.818	3070.76
489.027	3935
489.236	3646.24
489.445	3218.21
489.654	3081
489.863	3834.65
490.072	3523.36
490.281	3627.81
490.49	3298.08
490.698	3920.67
490.907	3904.28
491.116	3400.48
491.325	3277.6
491.534	4016.92
491.743	3824.41
491.952	3474.21
492.16	3392.29
492.369	3818.27
492.578	3803.93
492.787	3611.42
492.996	3414.82
493.204	3672.86
493.413	4207.38
493.622	3361.57
493.831	3296.04
494.039	4223.76
494.248	3650.33
494.457	3756.83
494.665	3560.22
494.874	4023.06
495.083	4512.53
495.291	3752.73
495.5	3664.67
495.709	4209.43
495.917	4209.43
496.126	3978.01
496.335	3711.77
496.543	4324.12
496.752	4295.44
496.96	4109.08
497.169	3779.36
497.377	4150.04
497.586	4412.18
497.794	4109.08
498.003	3705.63
498.211	4330.26
498.42	4621.07
498.628	4162.33
498.837	4080.41
499.045	4539.15
499.254	4465.43
499.462	4152.09
499.671	3910.43
499.879	4924.17
500.087	4610.83
500.296	4086.55
500.504	4246.29
500.713	4633.36
500.921	5157.64
501.129	4295.44
501.338	4082.46
501.546	4641.55
501.754	4537.1
501.962	4375.31
502.171	4320.02
502.379	4621.07
502.587	5049.1
502.795	4496.14
503.004	4526.86
503.212	4539.15
503.42	4872.97
503.628	4479.76
503.837	4522.77
504.045	5010.18
504.253	5231.37
504.461	4381.46
504.669	4354.83
504.877	5012.23
505.085	5284.61
505.294	4453.14
505.502	4817.68
505.71	4958.99
505.918	5047.05
506.126	4573.97
506.334	4477.71
506.542	4973.32
506.75	4911.88
506.958	4856.59
507.166	4756.24
507.374	4913.93
507.582	5597.95
507.79	4866.83
507.998	4836.11
508.206	5264.13
508.414	5094.15
508.622	4956.94
508.83	4748.04
509.037	5585.66
509.245	5085.96
509.453	4772.62
509.661	4842.25
509.869	5331.72
510.077	5198.6
510.285	4965.13
510.492	4717.33
510.7	6011.64
510.908	5260.04
511.116	4995.85
511.324	5030.66
511.531	5190.41
511.739	5251.85
511.947	5102.34
512.155	5387.01
512.362	5370.63
512.57	5128.97
512.778	5118.73
512.985	4952.84
513.193	5653.25
513.401	5790.46
513.608	5278.47
513.816	5192.45
514.024	5694.21
514.231	5907.2
514.439	5255.94
514.646	5260.04
514.854	5823.23
515.061	5718.78
515.269	5219.08
515.477	5194.5
515.684	5311.24
515.892	5972.73
516.099	5026.57
516.307	5114.63
516.514	5968.63
516.722	6071.03
516.929	5425.92
517.136	5296.9
517.344	6093.56
517.551	5690.11
517.759	5538.56
517.966	5444.35
518.173	5575.42
518.381	5921.53
518.588	5407.49
518.796	5540.61
519.003	6099.7
519.21	5878.52
519.418	5507.84
519.625	5837.56
519.832	5911.29
520.039	5978.87
520.247	5479.17
520.454	5620.48
520.661	6294.26
520.868	5982.97
521.076	5778.17
521.283	5798.65
521.49	6603.5
521.697	6222.58
521.904	5739.26
522.112	5716.73
522.319	6275.83
522.526	6220.53
522.733	5847.8
522.94	5681.92
523.147	6073.08
523.354	6392.56
523.561	5628.67
523.768	5849.85
523.975	6376.18
524.183	6179.58
524.39	5989.11
524.597	5808.89
524.804	6376.18
525.011	6030.07
525.218	6005.5
525.425	6126.33
525.632	6818.54
525.838	6155
526.045	5974.78
526.252	6118.14
526.459	7670.5
526.666	7254.76
526.873	6187.77
527.08	6288.12
527.287	7043.82
527.494	6632.18
527.701	6132.47
527.907	6097.66
528.114	6638.32
528.321	6728.43
528.528	6193.91
528.735	6316.79
528.941	6454
529.148	6374.13
529.355	6544.11
529.562	6316.79
529.768	6976.23
529.975	6429.43
530.182	6558.45
530.388	6292.21
530.595	6978.28
530.802	6415.09
531.008	6638.32
531.215	6456.05
531.422	7533.28
531.628	7328.49
531.835	6669.04
532.042	6697.71
532.248	6767.34
532.455	6980.33
532.661	6638.32
532.868	6499.06
533.074	6871.79
533.281	7183.08
533.487	6703.86
533.694	6669.04
533.9	6984.43
534.107	7074.54
534.313	6619.89
534.52	6685.42
534.726	7389.92
534.933	7514.85
535.139	6677.23
535.345	6722.29
535.552	7123.69
535.758	7090.92
535.965	6900.46
536.171	6767.34
536.377	7445.22
536.584	7559.91
536.79	6894.32
536.996	7023.34
537.203	7219.94
537.409	7338.73
537.615	7092.97
537.821	7183.08
538.028	7432.93
538.234	7445.22
538.44	7170.79
538.646	7256.81
538.853	7547.62
539.059	7324.39
539.265	7510.75
539.471	6882.03
539.677	7746.27
539.883	7572.19
540.09	7076.59
540.296	7682.78
540.502	7561.95
540.708	7199.46
540.914	7508.71
541.12	7394.02
541.326	7791.33
541.532	7561.95
541.738	7486.18
541.944	7381.73
542.15	7908.06
542.356	7701.22
542.562	7199.46
542.768	7416.55
542.974	8303.32
543.18	8276.7
543.386	7580.39
543.592	7492.32
543.798	8088.28
544.004	8114.91
544.21	7658.21
544.415	7711.46
544.621	7955.16
544.827	8059.61
545.033	7520.99
545.239	7875.29
545.445	7797.47
545.651	8088.28
545.856	7647.97
546.062	7711.46
546.268	7865.05
546.474	7885.53
546.679	7746.27
546.885	7785.18
547.091	7946.97
547.297	8594.13
547.502	7731.94
547.708	7789.28
547.914	8022.75
548.119	8325.85
548.325	7848.67
548.531	7764.7
548.736	8674
548.942	8069.85
549.147	7756.51
549.353	8123.1
549.559	8573.65
549.764	8286.93
549.97	7705.31
550.175	7987.93
550.381	8352.47
550.586	7893.72
550.792	7959.26
550.997	7959.26
551.203	8282.84
551.408	8327.89
551.614	7963.36
551.819	7963.36
552.025	8659.67
552.23	8870.61
552.435	8143.58
552.641	8475.35
552.846	8434.39
553.052	8792.78
553.257	8452.82
553.462	8430.29
553.668	8241.88
553.873	8698.58
554.078	8422.1
554.283	8422.1
554.489	8833.74
554.694	8626.9
554.899	8327.89
555.105	8432.34
555.31	8743.63
555.515	8911.57
555.72	8553.17
555.925	8295.13
556.131	8932.05
556.336	8155.86
556.541	8424.15
556.746	8309.46
556.951	8913.61
557.156	9091.79
557.361	8606.42
557.567	8643.28
557.772	9218.76
557.977	9073.35
558.182	8608.47
558.387	8497.88
558.592	8635.09
558.797	9097.93
559.002	8540.88
559.207	8514.26
559.412	8893.13
559.617	9274.06
559.822	8538.84
560.027	8456.92
560.232	9003.72
560.437	9118.41
560.642	8237.78
560.847	8676.05
561.051	9132.75
561.256	9116.36
561.461	8807.12
561.666	8649.43
561.871	9077.45
562.076	9315.02
562.281	8962.76
562.485	8725.2
562.69	9427.65
562.895	9181.9
563.1	8962.76
563.305	8819.41
563.509	9454.28
563.714	9802.43
563.919	8940.24
564.123	8839.89
564.328	9124.55
564.533	9521.86
564.737	8727.25
564.942	8930
565.147	9532.1
565.351	9620.16
565.556	9030.35
565.761	9046.73
565.965	9415.37
566.17	8876.75
566.374	9044.68
566.579	9020.11
566.784	9355.97
566.988	9292.49
567.193	8909.52
567.397	8925.9
567.602	9009.87
567.806	9169.61
568.011	8968.91
568.215	9177.8
568.42	9278.15
568.624	9335.49
568.828	9013.96
569.033	9376.45
569.237	9880.25
569.442	9730.75
569.646	8823.5
569.85	9169.61
570.055	9513.67
570.259	9513.67
570.463	9491.14
570.668	9444.04
570.872	9540.29
571.076	9380.55
571.281	9366.21
571.485	9470.66
571.689	9562.82
571.893	9794.24
572.098	9579.2
572.302	9157.32
572.506	9757.38
572.71	9683.65
572.914	9405.13
573.119	9413.32
573.323	9896.64
573.527	10001.08
573.731	9532.1
573.935	9431.75
574.139	9917.12
574.343	9601.73
574.547	9390.79
574.751	9485
574.955	10050.24
575.159	10343.1
575.364	9693.89
575.568	9548.48
575.772	10095.29
575.976	10382.01
576.18	9401.03
576.383	9654.98
576.587	10314.42
576.791	10021.56
576.995	9571.01
577.199	9499.33
577.403	10142.39
577.607	10482.36
577.811	9634.5
578.015	9708.23
578.219	10064.57
578.422	10261.18
578.626	9773.76
578.83	10083
579.034	10154.68
579.238	10242.75
579.442	9827.01
579.645	10058.43
579.849	10252.98
580.053	10300.09
580.257	9835.2
580.46	9943.74
580.664	10295.99
580.868	10420.92
581.071	10220.22
581.275	9980.61
581.479	10042.04
581.682	10459.83
581.886	9956.03
582.09	9992.89
582.293	10437.3
582.497	10560.18
582.7	10207.93
582.904	10023.61
583.107	10355.38
583.311	10451.64
583.515	10252.98
583.718	10203.83
583.922	10521.27
584.125	11010.73
584.329	10023.61
584.532	10160.83
584.735	10861.23
584.939	10422.97
585.142	10097.34
585.346	9994.94
585.549	10687.15
585.753	10531.51
585.956	10171.07
586.159	10375.86
586.363	11037.36
586.566	10836.66
586.769	10148.54
586.973	10074.81
587.176	10668.72
587.379	11041.45
587.582	10711.73
587.786	10484.41
587.989	10740.4
588.192	11276.97
588.395	10508.98
588.599	10881.71
588.802	10914.48
589.005	10822.32
589.208	10367.67
589.411	10484.41
589.615	11016.88
589.818	11385.51
590.021	10865.33
590.224	10844.85
590.427	11262.63
590.63	11186.86
590.833	10564.28
591.036	10640.05
591.239	10896.05
591.442	10850.99
591.645	10871.47
591.848	10898.1
592.051	11184.81
592.254	11231.91
592.457	10767.03
592.66	10848.94
592.863	11223.72
593.066	11315.88
593.269	10769.07
593.472	10816.18
593.675	10916.53
593.878	11256.49
594.081	11008.69
594.284	10695.35
594.486	11356.84
594.689	11276.97
594.892	10934.96
595.095	10934.96
595.298	11373.22
595.5	11305.64
595.703	11043.5
595.906	11063.98
596.109	11553.45
596.311	11512.49
596.514	10683.06
596.717	10977.97
596.92	11748
597.122	11600.55
597.325	10961.58
597.528	11014.83
597.73	11674.28
597.933	11449
598.136	11334.31
598.338	10773.17
598.541	11545.25
598.743	11791.01
598.946	11217.58
599.148	11317.93
599.351	11745.95
599.554	11735.71
599.756	11397.8
599.959	11391.66
600.161	11752.1
600.363	12370.58
600.566	11469.48
600.768	11227.82
600.971	12004
601.173	11866.78
601.376	11223.72
601.578	11481.77
601.78	11668.13
601.983	12137.12
602.185	11459.24
602.388	11424.42
602.59	11799.2
602.792	11510.44
602.995	11537.06
603.197	11365.03
603.399	11782.82
603.601	11760.29
603.804	11457.19
604.006	11494.05
604.208	11725.47
604.41	11375.27
604.613	11840.16
604.815	11365.03
605.017	12475.03
605.219	11623.08
605.421	11860.64
605.623	11596.45
605.826	12169.88
606.028	12327.58
606.23	11651.75
606.432	11430.57
606.634	12163.74
606.836	12069.53
607.038	11436.71
607.24	11512.49
607.442	11958.94
607.644	12034.72
607.846	11920.03
608.048	11614.88
608.25	12366.49
608.452	11885.22
608.654	11727.52
608.856	11358.89
609.058	12130.97
609.26	12135.07
609.462	11678.37
609.664	11829.92
609.866	12364.44
610.067	12063.39
610.269	11778.72
610.471	11856.54
610.673	11907.74
610.875	12171.93
611.077	11719.33
611.278	11657.89
611.48	11782.82
611.682	12356.25
611.884	11967.13
612.085	11743.91
612.287	11887.26
612.489	12413.59
612.69	11633.32
612.892	12038.81
613.094	12305.05
613.295	12028.57
613.497	11704.99
613.699	11690.66
613.9	12700.31
614.102	12423.83
614.304	11819.68
614.505	11586.21
614.707	12163.74
614.908	11985.57
615.11	11817.63
615.311	11891.36
615.513	12249.75
615.714	12253.85
615.916	11668.13
616.117	11811.49
616.319	12126.88
616.52	12143.26
616.722	11692.71
616.923	12079.77
617.124	12466.84
617.326	12247.71
617.527	11999.9
617.729	12444.31
617.93	12407.45
618.131	12540.57
618.333	11954.85
618.534	12130.97
618.735	11891.36
618.937	12444.31
619.138	11838.11
619.339	11614.88
619.54	12296.86
619.742	12212.89
619.943	12149.4
620.144	12173.98
620.345	12515.99
620.546	12595.86
620.748	12137.12
620.949	12071.58
621.15	12358.3
621.351	12364.44
621.552	11973.28
621.753	12106.4
621.954	12012.19
622.155	12802.71
622.356	11772.58
622.558	12184.22
622.759	12382.87
622.96	12669.59
623.161	12018.33
623.362	12069.53
623.563	12192.41
623.764	12243.61
623.965	12200.6
624.166	12536.47
624.366	12479.13
624.567	12429.98
624.768	11952.8
624.969	12051.1
625.17	12282.52
625.371	12321.43
625.572	12231.32
625.773	12223.13
625.973	12524.18
626.174	12659.35
626.375	12360.34
626.576	12305.05
626.777	12485.27
626.977	12841.62
627.178	12251.8
627.379	12141.21
627.58	12268.19
627.78	12657.3
627.981	12151.45
628.182	12628.63
628.382	12464.79
628.583	11963.04
628.784	12063.39
628.984	12251.8
629.185	12628.63
629.386	12300.95
629.586	12155.55
629.787	12165.79
629.987	12739.22
630.188	12780.18
630.388	12395.16
630.589	12182.17
630.79	13277.83
630.99	12692.12
631.191	12378.78
631.391	12442.26
631.591	12616.34
631.792	13025.93
631.992	12667.54
632.193	12440.22
632.393	13148.81
632.594	12683.92
632.794	12356.25
632.994	12376.73
633.195	12810.9
633.395	12741.27
633.595	12571.29
633.796	12882.58
633.996	12595.86
634.196	13093.52
634.397	12419.74
634.597	12614.29
634.797	12389.02
634.997	13007.5
635.198	12466.84
635.398	12147.36
635.598	12870.29
635.798	13251.21
635.998	12714.64
636.199	12454.55
636.399	12774.03
636.599	12319.39
636.799	12456.6
636.999	13126.29
637.199	12972.69
637.399	13222.54
637.599	12591.77
637.799	12712.6
637.999	12651.16
638.199	13240.97
638.399	12479.13
638.599	12583.57
638.799	12978.83
638.999	13341.32
639.199	12575.38
639.399	12718.74
639.599	13298.31
639.799	12753.55
639.999	12737.17
640.199	12706.45
640.399	13124.24
640.599	12821.14
640.799	12944.02
640.998	13070.99
641.198	13255.31
641.398	12901.01
641.598	12790.42
641.798	12685.97
641.997	14051.97
642.197	13195.92
642.397	12618.39
642.597	12790.42
642.796	13093.52
642.996	13402.76
643.196	12972.69
643.395	12518.04
643.595	13263.5
643.795	12872.34
643.994	12771.99
644.194	12890.77
644.394	13392.52
644.593	13195.92
644.793	13093.52
644.992	12974.74
645.192	13218.44
645.392	12505.75
645.591	13193.87
645.791	13058.7
645.99	13415.05
646.19	13218.44
646.389	13046.41
646.589	12796.56
646.788	13353.61
646.987	13329.03
647.187	13494.92
647.386	13292.17
647.586	13306.51
647.785	13593.22
647.984	13126.29
648.184	13138.57
648.383	13007.5
648.582	13236.88
648.782	13136.52
648.981	13070.99
649.18	13306.51
649.38	13247.12
649.579	12927.63
649.778	12876.43
649.977	13447.82
650.177	13511.3
650.376	13273.74
650.575	12884.62
650.774	13632.13
650.973	13046.41
651.173	12866.19
651.372	13120.14
651.571	13134.48
651.77	13703.81
651.969	12890.77
652.168	13095.57
652.367	13062.8
652.566	13513.35
652.765	12876.43
652.964	13433.48
653.163	13877.89
653.362	13296.27
653.561	13224.59
653.76	13376.14
653.959	13361.8
654.158	13654.66
654.357	13392.52
654.556	13253.26
654.755	13681.28
654.954	13732.48
655.153	13193.87
655.352	13351.56
655.551	13730.44
655.749	13298.31
655.948	13288.07
656.147	13195.92
656.346	13509.26
656.545	13476.49
656.743	13292.17
656.942	13296.27
657.141	13746.82
657.34	13208.2
657.538	13468.3
657.737	13359.75
657.936	13425.29
658.135	13693.57
658.333	13124.24
658.532	13329.03
658.731	13947.52
658.929	13734.53
659.128	13517.45
659.326	13413
659.525	13836.93
659.724	13642.37
659.922	13132.43
660.121	13083.28
660.319	13322.89
660.518	13367.95
660.716	12968.59
660.915	13292.17
661.113	13855.36
661.312	13316.75
661.51	13568.65
661.709	13308.55
661.907	13615.75
662.105	14119.55
662.304	13601.41
662.502	13542.02
662.701	14107.26
662.899	13623.94
663.097	13836.93
663.296	13148.81
663.494	13816.45
663.692	13988.48
663.891	13116.05
664.089	13456.01
664.287	13564.55
664.485	14148.22
664.684	13326.99
664.882	13679.24
665.08	13664.9
665.278	13724.29
665.476	13537.93
665.675	13773.44
665.873	14033.54
666.071	13773.44
666.269	13343.37
666.467	13554.31
666.665	13593.22
666.863	13451.91
667.061	13525.64
667.259	13128.33
667.457	13818.5
667.655	13861.51
667.853	13320.84
668.051	13580.93
668.249	13408.9
668.447	13800.07
668.645	13161.1
668.843	13421.19
669.041	13617.8
669.239	13456.01
669.437	13386.38
669.635	13472.39
669.833	13363.85
670.031	13937.28
670.229	13585.03
670.426	13666.95
670.624	13535.88
670.822	13429.38
671.02	13308.55
671.218	13374.09
671.415	13527.69
671.613	13505.16
671.811	13423.24
672.009	13208.2
672.206	13646.47
672.404	13722.24
672.602	13548.17
672.799	13673.09
672.997	13838.98
673.195	14211.71
673.392	13783.68
673.59	13396.62
673.788	13582.98
673.985	13333.13
674.183	13552.26
674.38	13394.57
674.578	13963.9
674.775	13286.03
674.973	13216.4
675.17	13111.95
675.368	13871.75
675.565	13861.51
675.763	13396.62
675.96	13343.37
676.158	13845.12
676.355	13171.34
676.553	13324.94
676.75	13392.52
676.947	13683.33
677.145	13447.82
677.342	13482.63
677.539	13501.06
677.737	13703.81
677.934	13927.04
678.131	13552.26
678.329	13257.36
678.526	13716.1
678.723	13550.21
678.92	13447.82
679.118	13122.19
679.315	13329.03
679.512	13871.75
679.709	13609.61
679.906	13408.9
680.104	13890.18
680.301	13523.59
680.498	13230.73
680.695	13070.99
680.892	13193.87
681.089	13398.66
681.286	13406.86
681.483	12880.53
681.68	13456.01
681.877	13685.38
682.075	13277.83
682.272	13322.89
682.469	13228.68
682.665	13503.11
682.862	13013.65
683.059	12907.15
683.256	13564.55
683.453	13466.25
683.65	13320.84
683.847	13388.43
684.044	13189.77
684.241	13019.79
684.438	13429.38
684.635	12927.63
684.831	13841.03
685.028	13746.82
685.225	13167.24
685.422	13165.2
685.619	13294.22
685.815	13329.03
686.012	13320.84
686.209	12915.34
686.405	13296.27
686.602	13605.51
686.799	12755.6
686.996	12917.39
687.192	12827.28
687.389	13468.3
687.586	13075.09
687.782	12950.16
687.979	13404.81
688.175	13408.9
688.372	12853.91
688.568	13015.69
688.765	12941.97
688.962	13324.94
689.158	13050.51
689.355	12855.95
689.551	13345.42
689.748	13011.6
689.944	13222.54
690.14	12876.43
690.337	13404.81
690.533	13109.9
690.73	12923.54
690.926	13208.2
691.123	13091.47
691.319	13009.55
691.515	12944.02
691.712	13116.05
691.908	13189.77
692.104	13187.72
692.301	12946.06
692.497	12622.48
692.693	13484.68
692.889	13290.12
693.086	12941.97
693.282	12567.19
693.478	13335.18
693.674	13578.89
693.87	12989.07
694.067	12901.01
694.263	13126.29
694.459	13050.51
694.655	13249.16
694.851	13226.64
695.047	13111.95
695.243	13537.93
695.439	13046.41
695.635	12663.44
695.831	13124.24
696.027	13058.7
696.224	12796.56
696.42	13116.05
696.615	13621.89
696.811	13095.57
697.007	12645.01
697.203	13038.22
697.399	12956.3
697.595	13224.59
697.791	12638.87
697.987	13070.99
698.183	12780.18
698.379	12626.58
698.575	12886.67
698.77	12829.33
698.966	12999.31
699.162	13183.63
699.358	12698.26
699.554	12608.15
699.749	13226.64
699.945	13058.7
700.141	13017.74
700.337	12716.69
700.532	12563.09
700.728	12817.04
700.924	12802.71
701.119	12546.71
701.315	12804.75
701.511	12794.51
701.706	12866.19
701.902	12561.05
702.097	12765.84
702.293	13040.27
702.489	12710.55
702.684	12520.09
702.88	12798.61
703.075	12667.54
703.271	12653.2
703.466	12511.89
703.662	12872.34
703.857	12905.1
704.053	12364.44
704.248	12651.16
704.443	13103.76
704.639	12739.22
704.834	12507.8
705.03	12200.6
705.225	12884.62
705.42	13013.65
705.616	12726.93
705.811	12354.2
706.006	12690.07
706.202	12559
706.397	12655.25
706.592	12585.62
706.787	12915.34
706.983	12827.28
707.178	12757.65
707.373	12669.59
707.568	12937.87
707.763	12839.57
707.959	12411.54
708.154	12544.66
708.349	12649.11
708.544	12903.06
708.739	12671.64
708.934	12593.81
709.129	12855.95
709.324	12837.52
709.519	12540.57
709.714	12522.13
709.909	12903.06
710.104	12700.31
710.299	12526.23
710.494	12530.33
710.689	12552.85
710.884	12522.13
711.079	12472.98
711.274	12583.57
711.469	12894.86
711.664	12647.06
711.859	12464.79
712.054	12626.58
712.249	12645.01
712.443	12728.98
712.638	12219.03
712.833	12362.39
713.028	12487.32
713.223	12567.19
713.417	12370.58
713.612	12272.28
713.807	12679.83
714.002	13091.47
714.196	12481.17
714.391	12364.44
714.586	12757.65
714.78	12454.55
714.975	12292.76
715.17	12135.07
715.364	12442.26
715.559	12864.15
715.754	11895.46
715.948	12001.95
716.143	12978.83
716.337	12554.9
716.532	12438.17
716.726	12259.99
716.921	12667.54
717.115	13093.52
717.31	12307.1
717.504	12923.54
717.699	12491.41
717.893	12696.21
718.088	12227.23
718.282	12047.01
718.476	12563.09
718.671	12610.2
718.865	12227.23
719.059	12202.65
719.254	12372.63
719.448	12653.2
719.642	13730.44
719.837	11934.37
720.031	12534.42
720.225	12718.74
720.419	12165.79
720.614	12018.33
720.808	12513.94
721.002	12229.27
721.196	11870.88
721.39	11969.18
721.585	12561.05
721.779	12378.78
721.973	12006.05
722.167	11606.69
722.361	12350.1
722.555	12470.94
722.749	11924.13
722.943	11772.58
723.137	11715.23
723.331	12405.4
723.525	11844.26
723.719	11917.98
723.913	12360.34
724.107	12446.36
724.301	11729.57
724.495	11963.04
724.689	12493.46
724.883	12305.05
725.077	11836.06
725.271	11817.63
725.465	12464.79
725.659	12354.2
725.853	11950.75
726.046	11772.58
726.24	11774.63
726.434	12290.71
726.628	11987.61
726.822	12075.68
727.015	12472.98
727.209	12257.95
727.403	12026.53
727.596	11764.39
727.79	12333.72
727.984	12231.32
728.177	11967.13
728.371	12122.78
728.565	12360.34
728.758	11936.42
728.952	11797.15
729.146	11883.17
729.339	12337.82
729.533	12149.4
729.726	11840.16
729.92	11633.32
730.113	12722.84
730.307	11924.13
730.5	11809.44
730.694	11836.06
730.887	11946.66
731.081	12386.97
731.274	11981.47
731.468	11965.09
731.661	12122.78
731.854	12012.19
732.048	11829.92
732.241	11670.18
732.435	11950.75
732.628	12362.39
732.821	12069.53
733.014	11907.74
733.208	11879.07
733.401	12102.3
733.594	11856.54
733.788	11965.09
733.981	12147.36
734.174	12102.3
734.367	11621.03
734.56	12014.24
734.754	12311.19
734.947	11735.71
735.14	11723.43
735.333	11874.98
735.526	12251.8
735.719	11723.43
735.912	11682.47
736.105	11629.22
736.298	11917.98
736.491	11834.02
736.684	11641.51
736.877	11567.78
737.07	11801.25
737.263	12182.17
737.456	11561.64
737.649	11791.01
737.842	11795.11
738.035	11944.61
738.228	11909.79
738.421	11975.33
738.614	12282.52
738.807	12311.19
739	11440.81
739.192	11649.7
739.385	11936.42
739.578	12108.44
739.771	11866.78
739.964	11510.44
740.156	11969.18
740.349	11907.74
740.542	11954.85
740.735	11541.16
740.927	11606.69
741.12	11661.99
741.313	11569.83
741.505	11723.43
741.698	11881.12
741.891	12032.67
742.083	12042.91
742.276	11600.55
742.468	11838.11
742.661	11969.18
742.854	11580.07
743.046	11430.57
743.239	11936.42
743.431	11844.26
743.624	11631.27
743.816	11248.3
744.009	11745.95
744.201	11766.43
744.393	11905.7
744.586	11473.57
744.778	12155.55
744.971	11821.73
745.163	11500.2
745.355	11870.88
745.548	11674.28
745.74	11514.53
745.932	11541.16
746.125	11424.42
746.317	12452.5
746.509	12049.05
746.702	11780.77
746.894	11866.78
747.086	11608.74
747.278	12014.24
747.471	11770.53
747.663	11682.47
747.855	11881.12
748.047	12216.99
748.239	11481.77
748.431	11422.38
748.623	11967.13
748.815	12124.83
749.008	11225.77
749.2	11547.3
749.392	11690.66
749.584	11700.9
749.776	11371.18
749.968	11588.26
750.16	12409.5
750.352	11457.19
750.544	11616.93
750.736	11260.59
750.928	11963.04
751.12	11950.75
751.311	11350.7
751.503	11516.58
751.695	11725.47
751.887	11571.88
752.079	11375.27
752.271	11561.64
752.463	12423.83
752.654	11856.54
752.846	11569.83
753.038	11371.18
753.23	11227.82
753.421	11768.48
753.613	11367.08
753.805	11934.37
753.997	11690.66
754.188	11524.77
754.38	11129.52
754.572	11387.56
754.763	11707.04
754.955	11768.48
755.146	11477.67
755.338	11387.56
755.53	11635.36
755.721	11465.38
755.913	10863.28
756.104	11020.97
756.296	11434.66
756.487	11508.39
756.679	11170.47
756.87	11199.15
757.062	11250.35
757.253	11739.81
757.445	11137.71
757.636	11305.64
757.827	11322.02
758.019	12069.53
758.21	10750.64
758.401	11080.36
758.593	11872.93
758.784	11580.07
758.975	10787.5
759.167	10986.16
759.358	11387.56
759.549	11438.76
759.74	11035.31
759.932	10840.75
760.123	11532.97
760.314	11020.97
760.505	10920.62
760.696	10807.98
760.888	11717.28
761.079	11020.97
761.27	10891.95
761.461	10719.92
761.652	11418.28
761.843	11152.04
762.034	10850.99
762.225	11221.67
762.416	10990.25
762.607	10869.42
762.798	10990.25
762.989	10916.53
763.18	11877.02
763.371	10869.42
763.562	10635.96
763.753	10666.67
763.944	11227.82
764.135	10992.3
764.326	10941.1
764.517	10715.83
764.708	11080.36
764.899	10887.86
765.089	10463.93
765.28	10474.17
765.471	11000.49
765.662	11121.32
765.853	10812.08
766.043	10484.41
766.234	11209.39
766.425	10873.52
766.615	10652.34
766.806	10748.59
766.997	11070.12
767.187	10963.63
767.378	10597.04
767.569	10363.58
767.759	10967.73
767.95	10781.36
768.141	10562.23
768.331	10453.69
768.522	10648.24
768.712	11033.26
768.903	10543.8
769.093	10283.7
769.284	11117.23
769.474	10640.05
769.665	10382.01
769.855	10269.37
770.046	11178.67
770.236	10535.6
770.426	10617.52
770.617	10189.5
770.807	10453.69
770.998	10515.12
771.188	10508.98
771.378	10302.14
771.569	10640.05
771.759	10697.39
771.949	10113.72
772.139	10117.82
772.33	10554.04
772.52	11033.26
772.71	10388.15
772.9	10064.57
773.09	11035.31
773.281	10820.27
773.471	10281.66
773.661	10156.73
773.851	10674.87
774.041	10212.03
774.231	10066.62
774.421	10328.76
774.611	10726.07
774.802	10201.79
774.992	10146.49
775.182	9953.98
775.372	10318.52
775.562	10539.7
775.752	10064.57
775.942	10003.13
776.131	10564.28
776.321	10365.62
776.511	10113.72
776.701	9896.64
776.891	10484.41
777.081	10009.28
777.271	10019.52
777.461	9740.99
777.651	10336.95
777.84	10314.42
778.03	10031.8
778.22	9892.54
778.41	10687.15
778.599	9894.59
778.789	9978.56
778.979	9804.48
779.169	10207.93
779.358	10134.2
779.548	10089.15
779.738	9736.9
779.927	10158.78
780.117	9796.29
780.307	9605.83
780.496	9401.03
780.686	10146.49
780.875	10517.17
781.065	9747.14
781.254	9415.37
781.444	9853.63
781.633	10072.76
781.823	9784
782.012	9425.61
782.202	9616.07
782.391	9841.34
782.581	9562.82
782.77	9593.54
782.96	10025.66
783.149	9620.16
783.338	9446.09
783.528	9386.69
783.717	10060.48
783.906	10314.42
784.096	9435.85
784.285	9439.94
784.474	9642.69
784.663	9554.63
784.853	9786.05
785.042	9607.87
785.231	9786.05
785.42	10056.38
785.61	9532.1
785.799	9214.66
785.988	9341.64
786.177	9630.4
786.366	9421.51
786.555	9695.94
786.744	9978.56
786.933	9607.87
787.122	9290.44
787.312	9071.31
787.501	9366.21
787.69	9663.17
787.879	9292.49
788.068	9206.47
788.257	9269.96
788.445	9290.44
788.634	9341.64
788.823	9065.16
789.012	10062.52
789.201	9855.68
789.39	9241.29
789.579	9161.42
789.768	9341.64
789.957	9366.21
790.145	9048.78
790.334	8913.61
790.523	9110.22
790.712	9347.78
790.9	9167.56
791.089	9157.32
791.278	9597.63
791.467	9417.41
791.655	9198.28
791.844	9644.74
792.033	9069.26
792.221	9421.51
792.41	9005.77
792.599	8835.79
792.787	9480.9
792.976	9695.94
793.164	8868.56
793.353	8997.58
793.541	9380.55
793.73	9380.55
793.918	9157.32
794.107	9054.92
794.295	9298.63
794.484	9067.21
794.672	8727.25
794.861	8850.13
795.049	9341.64
795.238	9405.13
795.426	8694.48
795.614	8913.61
795.803	9202.38
795.991	9269.96
796.179	8837.84
796.368	8895.18
796.556	9380.55
796.744	8766.16
796.932	8823.5
797.121	8676.05
797.309	8962.76
797.497	9441.99
797.685	8866.51
797.874	8796.88
798.062	8956.62
798.25	9474.76
798.438	8721.1
798.626	8678.1
798.814	9302.73
799.002	9650.88
799.19	8964.81
799.378	8684.24
799.566	9433.8
799.755	9663.17
799.943	8964.81
800.131	8676.05
800.318	9134.79
800.506	9130.7
800.694	8934.09
800.882	8886.99
801.07	9530.05
801.258	9087.69
801.446	8827.6
801.634	8835.79
801.822	9075.4
802.01	9054.92
802.197	8981.2
802.385	9136.84
802.573	9104.07
802.761	8968.91
802.949	8829.65
803.136	8749.78
803.324	9364.17
803.512	9388.74
803.699	8852.17
803.887	8540.88
804.075	9241.29
804.262	8866.51
804.45	8571.6
804.638	8893.13
804.825	9097.93
805.013	8884.94
805.201	8831.69
805.388	8803.02
805.576	9114.31
805.763	9616.07
805.951	8786.64
806.138	8891.09
806.326	9634.5
806.513	9282.25
806.701	8950.48
806.888	8723.15
807.075	9282.25
807.263	9478.85
807.45	8616.66
807.638	8940.24
807.825	9405.13
808.012	9337.54
808.2	8913.61
808.387	9267.91
808.574	9237.19
808.761	9491.14
808.949	8590.03
809.136	9122.51
809.323	9106.12
809.51	8985.29
809.698	9104.07
809.885	9093.83
810.072	9188.04
810.259	9456.33
810.446	9079.5
810.633	8743.63
810.82	9548.48
811.008	9945.79
811.195	9401.03
811.382	9036.49
811.569	9521.86
811.756	9126.6
811.943	9151.18
812.13	8927.95
812.317	9091.79
812.504	9169.61
812.691	9153.23
812.878	9011.92
813.064	9657.03
813.251	9325.26
813.438	8989.39
813.625	9165.51
813.812	9308.87
813.999	9288.39
814.186	9116.36
814.372	9118.41
814.559	9360.07
814.746	9491.14
814.933	9175.75
815.12	9276.1
815.306	8956.62
815.493	9118.41
815.68	8981.2
815.866	8946.38
816.053	9398.98
816.24	9812.67
816.426	9065.16
816.613	8940.24
816.799	9396.93
816.986	9433.8
817.173	8889.04
817.359	8872.65
817.546	9237.19
817.732	8960.72
817.919	8860.37
818.105	9329.35
818.292	9175.75
818.478	9288.39
818.665	9161.42
818.851	9005.77
819.037	9775.81
819.224	9433.8
819.41	8831.69
819.597	9007.82
819.783	9566.92
819.969	9347.78
820.156	8850.13
820.342	8958.67
820.528	9925.31
820.714	9134.79
820.901	9323.21
821.087	8987.34
821.273	9798.34
821.459	9222.86
821.646	8798.93
821.832	9003.72
822.018	9274.06
822.204	9077.45
822.39	8979.15
822.576	8784.59
822.762	9134.79
822.948	9188.04
823.134	8932.05
823.32	8909.52
823.507	8704.72
823.693	9267.91
823.879	9048.78
824.065	8743.63
824.25	9239.24
824.436	8712.91
824.622	8770.26
824.808	8493.78
824.994	8954.57
825.18	8807.12
825.366	8823.5
825.552	8817.36
825.738	8823.5
825.923	9292.49
826.109	9069.26
826.295	8655.57
826.481	8940.24
826.667	8821.45
826.852	9003.72
827.038	8811.21
827.224	9462.47
827.409	9388.74
827.595	8544.98
827.781	8823.5
827.966	9224.9
828.152	9282.25
828.338	8600.27
828.523	8305.37
828.709	8645.33
828.894	9081.55
829.08	8364.76
829.266	8680.14
829.451	8551.12
829.637	9009.87
829.822	8493.78
830.008	8508.12
830.193	9040.59
830.378	9194.19
830.564	8348.37
830.749	8217.3
830.935	8919.76
831.12	8741.58
831.305	8168.15
831.491	8401.62
831.676	8401.62
831.861	8770.26
832.047	8387.29
832.232	8153.82
832.417	8940.24
832.602	8542.93
832.788	8323.8
832.973	8346.33
833.158	8538.84
833.343	8811.21
833.528	8501.97
833.714	8370.9
833.899	8676.05
834.084	8766.16
834.269	8514.26
834.454	8385.24
834.639	8848.08
834.824	8782.54
835.009	8461.01
835.194	8561.36
835.379	8706.77
835.564	8860.37
835.749	8413.91
835.934	8110.81
836.119	8676.05
836.304	8477.4
836.489	8323.8
836.674	8409.81
836.859	8340.18
837.044	8792.78
837.228	8338.13
837.413	8106.71
837.598	8381.14
837.783	8717.01
837.968	8135.39
838.152	7985.88
838.337	8184.54
838.522	8616.66
838.707	8475.35
838.891	8446.68
839.076	8553.17
839.261	8463.06
839.445	8303.32
839.63	8149.72
839.815	8856.27
839.999	8137.43
840.184	8045.27
840.368	8045.27
840.553	8438.48
840.737	8409.81
840.922	7801.57
841.106	7910.11
841.291	8016.6
841.475	8196.82
841.66	8030.94
841.844	7840.48
842.029	8782.54
842.213	7824.09
842.397	8264.41
842.582	7639.78
842.766	8612.56
842.951	8483.54
843.135	7682.78
843.319	7838.43
843.504	8147.67
843.688	8415.96
843.872	7621.35
844.056	7797.47
844.241	8215.26
844.425	7940.83
844.609	7768.8
844.793	7615.2
844.977	8315.61
845.161	8045.27
845.346	7656.16
845.53	7744.22
845.714	8073.95
845.898	8323.8
846.082	7594.72
846.266	7740.13
846.45	7998.17
846.634	8129.24
846.818	7842.53
847.002	7895.77
847.186	8061.66
847.37	7660.26
847.554	7541.47
847.738	7959.26
847.922	8008.41
848.106	8102.62
848.29	7523.04
848.473	7688.93
848.657	7975.64
848.841	7897.82
849.025	7539.43
849.209	7308.01
849.392	8119
849.576	7676.64
849.76	7228.14
849.944	7877.34
850.127	8030.94
850.311	7340.77
850.495	7353.06
850.678	7260.9
850.862	7758.56
851.046	8096.47
851.229	7533.28
851.413	7252.71
851.596	7447.27
851.78	7609.06
851.964	7508.71
852.147	7463.65
852.331	8211.16
852.514	7809.76
852.698	7416.55
852.881	7201.51
853.065	7924.44
853.248	7631.58
853.431	7402.21
853.615	7275.24
853.798	8248.02
853.982	7643.87
854.165	7424.74
854.348	7291.62
854.532	7426.79
854.715	7535.33
854.898	7314.15
855.081	7009
855.265	7705.31
855.448	7969.5
855.631	7138.02
855.814	7326.44
855.997	7674.59
856.181	7269.09
856.364	7326.44
856.547	6974.19
856.73	7617.25
856.913	7480.04
857.096	7047.91
857.279	7279.33
857.462	7424.74
857.645	7627.49
857.828	7449.32
858.011	7254.76
858.194	7281.38
858.377	7541.47
858.56	6953.71
858.743	7097.07
858.926	6961.9
859.109	7396.07
859.292	7224.04
859.475	6894.32
859.658	7420.64
859.841	7525.09
860.023	6710
860.206	6902.51
860.389	7463.65
860.572	7578.34
860.755	6922.99
860.937	7004.91
861.12	7197.42
861.303	7189.22
861.486	6839.02
861.668	6767.34
861.851	7308.01
862.034	7254.76
862.216	6929.13
862.399	6832.88
862.581	7152.36
862.764	7496.42
862.947	6978.28
863.129	6853.36
863.312	6861.55
863.494	7621.35
863.677	7217.9
863.859	6593.26
864.042	7074.54
864.224	7426.79
864.406	6949.61
864.589	6580.98
864.771	7080.68
864.954	6847.21
865.136	6748.91
865.318	6421.24
865.501	7240.42
865.683	6675.18
865.865	6671.09
866.048	6544.11
866.23	6882.03
866.412	6828.78
866.594	6437.62
866.777	6812.4
866.959	7107.3
867.141	6716.14
867.323	6740.72
867.505	6666.99
867.687	6806.25
867.869	6722.29
868.052	6619.89
868.234	6574.83
868.416	6699.76
868.598	6945.52
868.78	6529.78
868.962	6472.43
869.144	6877.93
869.326	6947.56
869.508	6583.02
869.69	6511.35
869.872	6554.35
870.054	6937.32
870.236	6253.3
870.417	6562.55
870.599	6660.85
870.781	7068.39
870.963	6347.51
871.145	6353.65
871.327	6447.86
871.508	6759.15
871.69	6505.2
871.872	6564.59
872.054	6832.88
872.235	6763.25
872.417	6431.48
872.599	6318.84
872.78	7252.71
872.962	6869.74
873.144	6300.41
873.325	6617.84
873.507	6978.28
873.689	6812.4
873.87	6425.33
874.052	6408.95
874.233	6740.72
874.415	7004.91
874.596	6402.8
874.778	6382.32
874.959	6611.7
875.141	6787.82
875.322	6468.34
875.503	6408.95
875.685	6691.57
875.866	6155
876.048	6355.7
876.229	6290.17
876.41	6681.33
876.592	6808.3
876.773	6374.13
876.954	6284.02
877.136	6836.97
877.317	6523.63
877.498	6290.17
877.679	6458.1
877.86	6593.26
878.042	6548.21
878.223	6474.48
878.404	6798.06
878.585	6845.16
878.766	7049.96
878.947	6888.17
879.128	6664.94
879.309	6800.11
879.49	7080.68
879.672	6531.83
879.853	6488.82
880.034	6699.76
880.215	6730.48
880.396	6576.88
880.576	6562.55
880.757	6546.16
880.938	7135.98
881.119	6365.94
881.3	6423.28
881.481	6775.53
881.662	7553.76
881.843	6472.43
882.023	6384.37
882.204	6879.98
882.385	6865.64
882.566	6533.87
882.747	6564.59
882.927	6861.55
883.108	6849.26
883.289	6546.16
883.469	6877.93
883.65	6818.54
883.831	7224.04
884.011	6753.01
884.192	6793.97
884.373	7332.58
884.553	7074.54
884.734	7095.02
884.914	7123.69
885.095	7789.28
885.275	7381.73
885.456	7135.98
885.636	6650.61
885.817	6931.18
885.997	7148.26
886.178	6744.81
886.358	6861.55
886.538	6974.19
886.719	7977.69
886.899	6793.97
887.08	7201.51
887.26	7332.58
887.44	6955.76
887.621	6814.45
887.801	7209.7
887.981	7570.15
888.161	7131.88
888.342	6771.44
888.522	7123.69
888.702	7238.37
888.882	7516.9
889.062	6816.49
889.242	6693.62
889.423	7359.21
889.603	7377.64
889.783	7080.68
889.963	6896.36
890.143	7348.97
890.323	7465.7
890.503	6839.02
890.683	6867.69
890.863	7066.35
891.043	7121.64
891.223	7078.63
891.403	7029.48
891.583	7201.51
891.763	7064.3
891.943	6894.32
892.122	6861.55
892.302	7082.73
892.482	7070.44
892.662	7113.45
892.842	6914.8
893.022	7105.26
893.201	6968.04
893.381	6894.32
893.561	6750.96
893.741	7189.22
893.92	7316.2
894.1	7033.58
894.28	6841.07
894.459	7140.07
894.639	7058.15
894.819	6779.63
894.998	6931.18
895.178	7123.69
895.357	7228.14
895.537	6761.2
895.716	6644.46
895.896	6935.28
896.075	7242.47
896.255	6707.95
896.434	6714.09
896.614	7463.65
896.793	7387.88
896.973	6951.66
897.152	6918.89
897.331	7076.59
897.511	7107.3
897.69	6636.27
897.87	6810.35
898.049	6953.71
898.228	6843.12
898.407	6857.45
898.587	6703.86
898.766	6650.61
898.945	7088.87
899.124	6832.88
899.304	6818.54
899.483	6984.43
899.662	7338.73
899.841	6699.76
900.02	6613.74
900.199	7285.48
900.378	6742.77
900.557	6550.26
900.737	6333.17
900.916	6968.04
901.095	7109.35
901.274	6619.89
901.453	6236.92
901.632	6443.76
901.811	6470.39
901.989	6275.83
902.168	6312.69
902.347	6777.58
902.526	6261.49
902.705	6204.15
902.884	6327.03
903.063	7011.05
903.242	6841.07
903.42	6161.14
903.599	6279.93
903.778	6570.74
903.957	6910.7
904.135	6488.82
904.314	6302.45
904.493	6521.59
904.672	6427.38
904.85	6099.7
905.029	6013.69
905.207	6464.24
905.386	6953.71
905.565	5894.91
905.743	6009.59
905.922	6077.18
906.1	6208.25
906.279	5761.79
906.457	5704.45
906.636	6001.4
906.814	6073.08
906.993	5700.35
907.171	5651.2
907.35	6042.36
907.528	6120.18
907.707	5911.29
907.885	5538.56
908.063	6320.88
908.242	5618.43
908.42	5769.98
908.598	5292.8
908.777	6091.51
908.955	5806.84
909.133	5853.95
909.311	5470.98
909.49	5735.17
909.668	5759.74
909.846	5579.52
910.024	5462.79
910.202	5933.82
910.38	6003.45
910.559	5450.5
910.737	5567.23
910.915	5907.2
911.093	6087.42
911.271	5636.86
911.449	5962.49
911.627	6046.46
911.805	6587.12
911.983	5714.69
912.161	5706.49
912.339	6367.99
912.517	6408.95
912.695	5806.84
912.872	6013.69
913.05	6060.79
913.228	6210.29
913.406	5968.63
913.584	5769.98
913.762	6120.18
913.939	6017.79
914.117	5894.91
914.295	5606.14
914.473	6173.43
914.65	6155
914.828	5964.54
915.006	5724.93
915.184	5759.74
915.361	6136.57
915.539	5841.66
915.716	6044.41
915.894	6130.42
916.072	6118.14
916.249	5913.34
916.427	5929.72
916.604	5681.92
916.782	6077.18
916.959	5653.25
917.137	5839.61
917.314	6015.74
917.492	6095.61
917.669	5745.41
917.847	5626.62
918.024	5954.3
918.201	5894.91
918.379	5737.21
918.556	5616.38
918.733	6025.98
918.911	5913.34
919.088	5817.08
919.265	5649.15
919.442	5851.9
919.62	5792.51
919.797	5491.46
919.974	5380.87
920.151	5952.25
920.328	5745.41
920.506	5624.58
920.683	5868.28
920.86	5546.75
921.037	5911.29
921.214	5675.77
921.391	5614.34
921.568	5962.49
921.745	5559.04
921.922	5573.38
922.099	5425.92
922.276	6169.34
922.453	5765.89
922.63	5450.5
922.807	5755.65
922.984	5649.15
923.161	5577.47
923.338	5456.64
923.514	5241.61
923.691	5653.25
923.868	5784.32
924.045	5423.87
924.222	5272.32
924.399	5604.1
924.575	5913.34
924.752	5434.11
924.929	5411.59
925.105	5747.45
925.282	5370.63
925.459	5341.96
925.635	5505.79
925.812	5538.56
925.989	5339.91
926.165	5360.39
926.342	5088.01
926.518	5202.69
926.695	5294.85
926.871	5237.51
927.048	5012.23
927.224	5614.34
927.401	5280.52
927.577	5307.14
927.754	5088.01
927.93	5731.07
928.107	5454.59
928.283	4938.51
928.459	5284.61
928.636	5626.62
928.812	5255.94
928.988	5040.9
929.165	4838.16
929.341	5335.81
929.517	5321.48
929.693	5294.85
929.87	4729.61
930.046	5196.55
930.222	5026.57
930.398	4862.73
930.574	4903.69
930.751	4961.03
930.927	4956.94
931.103	4868.88
931.279	4885.26
931.455	4834.06
931.631	4926.22
931.807	4510.48
931.983	4469.52
932.159	4559.63
932.335	4860.68
932.511	4694.8
932.687	4631.31
932.863	4846.35
933.039	4948.75
933.215	4483.86
933.391	4277.01
933.566	4643.6
933.742	4565.78
933.918	4551.44
934.094	4320.02
934.27	4592.4
934.445	4573.97
934.621	4393.75
934.797	3992.34
934.973	4586.26
935.148	4582.16
935.324	4277.01
935.5	3969.82
935.675	4608.78
935.851	4377.36
936.027	4027.16
936.202	3935
936.378	4279.06
936.553	4086.55
936.729	4139.8
936.904	3699.48
937.08	3625.76
937.255	3615.52
937.431	3480.35
937.606	3451.68
937.782	3560.22
937.957	3779.36
938.133	3511.07
938.308	3271.46
938.483	3601.18
938.659	3248.93
938.834	3402.53
939.009	3154.73
939.185	3316.51
939.36	3167.01
939.535	2868.01
939.71	3207.97
939.886	3472.16
940.061	3431.2
940.236	3132.2
940.411	2835.24
940.586	3308.32
940.761	3302.18
940.937	2906.92
941.112	2806.57
941.287	3091.24
941.462	2925.35
941.637	2642.73
941.812	2681.64
941.987	2900.78
942.162	2892.59
942.337	2775.85
942.512	2853.67
942.687	3181.35
942.862	2937.64
943.037	2509.62
943.212	2276.15
943.386	2825
943.561	2781.99
943.736	2618.16
943.911	2863.91
944.086	2736.94
944.26	2804.52
944.435	2618.16
944.61	2673.45
944.785	3044.13
944.959	3148.58
945.134	2638.64
945.309	2439.98
945.483	2593.58
945.658	2917.16
945.833	2251.57
946.007	2390.83
946.182	3140.39
946.357	2609.97
946.531	2335.54
946.706	2448.18
946.88	2435.89
947.055	2812.71
947.229	2607.92
947.404	2442.03
947.578	3144.49
947.752	2655.02
947.927	2552.62
948.101	2417.46
948.276	2886.44
948.45	2720.56
948.624	2814.76
948.799	2495.28
948.973	2810.67
949.147	2472.75
949.321	2603.82
949.496	2569.01
949.67	3087.14
949.844	2804.52
950.018	2558.77
950.193	2605.87
950.367	3420.96
950.541	2722.6
950.715	2734.89
950.889	2732.84
951.063	2652.97
951.237	2937.64
951.411	2439.98
951.585	2523.95
951.759	3101.48
951.933	2896.68
952.107	2646.83
952.281	3007.27
952.455	3410.72
952.629	3330.85
952.803	2609.97
952.977	2695.98
953.151	2999.08
953.325	3189.54
953.499	2933.54
953.672	2579.25
953.846	2888.49
954.02	3003.18
954.194	2833.19
954.368	2724.65
954.541	3142.44
954.715	2921.26
954.889	2911.02
955.062	2749.23
955.236	2992.94
955.41	2982.7
955.583	3021.61
955.757	2681.64
955.93	2947.88
956.104	2933.54
956.278	2827.05
956.451	2806.57
956.625	3197.73
956.798	3623.71
956.972	3095.33
957.145	2868.01
957.319	3179.3
957.492	3150.63
957.665	3023.66
957.839	2794.28
958.012	3179.3
958.185	2999.08
958.359	2970.41
958.532	2933.54
958.705	3244.84
958.879	3173.16
959.052	2931.5
959.225	2644.78
959.398	3148.58
959.572	3191.59
959.745	2822.95
959.918	2849.58
960.091	3105.57
960.264	3359.52
960.438	2847.53
960.611	2786.09
960.784	3377.95
960.957	2990.89
961.13	3240.74
961.303	2712.36
961.476	3044.13
961.649	3214.12
961.822	2728.75
961.995	2863.91
962.168	3220.26
962.341	3027.75
962.514	2976.55
962.686	2902.83
962.859	3056.42
963.032	3173.16
963.205	2923.3
963.378	2792.23
963.551	3224.36
963.723	3187.49
963.896	2999.08
964.069	2954.02
964.242	2968.36
964.414	3318.56
964.587	3050.28
964.76	3035.94
964.932	3267.36
965.105	3146.53
965.278	2845.48
965.45	2775.85
965.623	2939.69
965.795	3263.27
965.968	2798.38
966.14	2743.08
966.313	2931.5
966.485	3195.68
966.658	2892.59
966.83	2749.23
967.003	3351.33
967.175	3138.34
967.348	2646.83
967.52	2863.91
967.692	3478.3
967.865	3187.49
968.037	2939.69
968.209	2994.98
968.382	3109.67
968.554	3298.08
968.726	2994.98
968.898	2761.52
969.071	3035.94
969.243	3140.39
969.415	2757.42
969.587	2636.59
969.759	3355.43
969.932	3220.26
970.104	2847.53
970.276	2468.66
970.448	3025.7
970.62	2814.76
970.792	2966.31
970.964	2868.01
971.136	3416.87
971.308	3054.37
971.48	2558.77
971.652	2726.7
971.824	3289.89
971.996	2868.01
972.168	2794.28
972.339	2663.21
972.511	3072.81
972.683	2788.14
972.855	2911.02
973.027	2671.4
973.199	2997.03
973.37	3158.82
973.542	2726.7
973.714	2849.58
973.886	2902.83
974.057	2951.98
974.229	2392.88
974.401	2663.21
974.572	2626.35
974.744	2493.23
974.915	2526
975.087	2614.06
975.259	3115.81
975.43	2720.56
975.602	2632.49
975.773	2493.23
975.945	2663.21
976.116	2921.26
976.288	2585.39
976.459	2730.8
976.63	2597.68
976.802	2802.47
976.973	2458.42
977.145	2603.82
977.316	3248.93
977.487	3056.42
977.659	2648.88
977.83	2433.84
978.001	3126.05
978.172	2761.52
978.344	2415.41
978.515	2605.87
978.686	2585.39
978.857	3081
979.028	2491.18
979.2	2474.8
979.371	2849.58
979.542	2765.61
979.713	2657.07
979.884	2147.12
980.055	2499.38
980.226	2593.58
980.397	2323.25
980.568	2380.59
980.739	2835.24
980.91	2503.47
981.081	2521.9
981.252	2335.54
981.423	2659.12
981.594	2929.45
981.765	2231.09
981.936	2353.97
982.106	2556.72
982.277	2863.91
982.448	2245.43
982.619	2517.81
982.79	2427.7
982.96	2761.52
983.131	2462.51
983.302	2030.39
983.472	2454.32
983.643	2630.45
983.814	2364.21
983.984	2214.71
984.155	2302.77
984.326	2614.06
984.496	2304.82
984.667	2292.53
984.837	2270
985.008	2736.94
985.178	2435.89
985.349	2245.43
985.519	2446.13
985.69	2274.1
985.86	2179.89
986.031	2016.05
986.201	2540.33
986.371	2569.01
986.542	2087.73
986.712	1884.98
986.882	2534.19
987.053	2515.76
987.223	2155.32
987.393	2319.15
987.563	2175.8
987.734	2454.32
987.904	2462.51
988.074	2128.69
988.244	2222.9
988.414	2093.88
988.585	2020.15
988.755	2241.33
988.925	2374.45
989.095	2554.67
989.265	1991.48
989.435	2192.18
989.605	2417.46
989.775	2341.68
989.945	2351.92
990.115	1807.16
990.285	2171.7
990.455	2265.91
990.625	2048.82
990.795	1911.61
990.965	2517.81
991.134	1975.1
991.304	1907.51
991.474	1923.9
991.644	2302.77
991.814	2587.44
991.984	1821.5
992.153	1864.5
992.323	2181.94
992.493	1995.57
992.662	1766.2
992.832	2042.68
993.002	2188.08
993.171	2106.17
993.341	1710.91
993.511	1991.48
993.68	1844.03
993.85	2114.36
994.019	1690.43
994.189	1710.91
994.358	2175.8
994.528	1721.15
994.697	1512.25
994.867	1585.98
995.036	2169.65
995.206	2050.87
995.375	1725.24
995.544	1819.45
995.714	2042.68
995.883	1856.31
996.052	1803.07
996.222	1493.82
996.391	2450.22
996.56	1936.18
996.73	1407.81
996.899	1538.88
997.068	2274.1
997.237	1893.18
997.406	1528.64
997.576	1499.97
997.745	1870.65
997.914	2007.86
998.083	1377.09
998.252	1508.16
998.421	1940.28
998.59	1723.2
998.759	1450.82
998.928	1358.66
999.097	2208.56
999.266	1844.03
999.435	1676.09
999.604	1352.51
999.773	2380.59
999.942	1868.6
1000.111	1411.9
1000.28	1377.09
1000.448	1651.52
1000.617	1393.47
1000.786	1579.84
1000.955	1438.53
1001.124	1880.89
1001.292	2491.18
1001.461	1469.25
1001.63	1430.34
1001.798	2059.06
1001.967	2112.31
1002.136	1258.31
1002.304	1246.02
1002.473	1762.11
1002.642	1772.35
1002.81	1295.17
1002.979	1430.34
1003.147	1823.55
1003.316	2188.08
1003.484	1336.13
1003.653	1254.21
1003.821	1839.93
1003.99	1563.45
1004.158	1473.34
1004.327	1375.04
1004.495	1733.43
1004.663	1350.46
1004.832	1477.44
1005	1207.11
1005.168	1786.68
1005.337	1604.41
1005.505	1071.94
1005.673	1317.7
1005.842	1651.52
1006.01	1682.24
1006.178	1211.2
1006.346	1254.21
1006.514	1645.37
1006.683	1887.03
1006.851	1172.29
1007.019	1284.93
1007.187	1401.66
1007.355	1125.19
1007.523	1104.71
1007.691	1112.9
1007.859	1190.72
1008.027	1827.64
1008.195	1162.05
1008.363	1059.65
1008.531	1778.49
1008.699	1332.03
1008.867	1063.75
1009.035	1071.94
1009.203	1663.8
1009.37	1471.29
1009.538	1127.24
1009.706	1512.25
1009.874	1401.66
1010.042	1512.25
1010.209	983.88
1010.377	1000.26
1010.545	1569.6
1010.713	1426.24
1010.88	1008.45
1011.048	1108.8
1011.216	1237.83
1011.383	1801.02
1011.551	1047.37
1011.718	963.4
1011.886	1633.08
1012.054	1350.46
1012.221	899.91
1012.389	1012.55
1012.556	1305.41
1012.724	1770.3
1012.891	1057.61
1013.058	746.31
1013.226	1448.77
1013.393	1397.57
1013.561	836.42
1013.728	883.53
1013.895	1506.11
1014.063	1512.25
1014.23	801.61
1014.397	787.27
1014.565	1530.69
1014.732	1270.59
1014.899	934.73
1015.066	809.8
1015.233	1256.26
1015.401	1381.18
1015.568	1006.41
1015.735	852.81
1015.902	1143.62
1016.069	1231.68
1016.236	840.52
1016.403	838.47
1016.57	957.25
1016.737	1372.99
1016.904	906.06
1017.071	760.65
1017.238	910.15
1017.405	1325.89
1017.572	871.24
1017.739	1080.13
1017.906	1289.03
1018.073	1329.99
1018.24	758.6
1018.407	850.76
1018.573	1422.14
1018.74	1010.5
1018.907	863.05
1019.074	688.97
1019.241	1248.07
1019.407	1180.48
1019.574	660.3
1019.741	559.95
1019.907	1131.33
1020.074	1289.03
1020.241	592.72
1020.407	639.82
1020.574	1123.14
1020.74	1225.54
1020.907	725.83
1021.073	617.29
1021.24	1585.98
1021.406	1282.88
1021.573	693.07
1021.739	656.2
1021.906	1225.54
1022.072	1002.31
1022.239	650.06
1022.405	674.64
1022.571	987.97
1022.738	881.48
1022.904	582.48
1023.07	656.2
1023.237	992.07
1023.403	1250.11
1023.569	703.31
1023.735	676.68
1023.902	975.69
1024.068	1010.5
1024.234	432.97
1024.4	596.81
1024.566	1114.95
1024.732	1133.38
1024.898	535.37
1025.065	443.21
1025.231	1033.03
1025.397	869.19
1025.563	574.28
1025.729	621.39
1025.895	471.89
1026.061	721.74
1026.227	418.64
1026.392	590.67
1026.558	1190.72
1026.724	893.77
1026.89	496.46
1027.056	615.24
1027.222	1067.85
1027.388	815.94
1027.553	455.5
1027.719	473.93
1027.885	1221.44
1028.051	1119.04
1028.216	275.28
1028.382	529.23
1028.548	1135.43
1028.713	867.14
1028.879	441.17
1029.045	727.88
1029.21	1104.71
1029.376	1129.28
1029.541	562
1029.707	492.37
1029.873	1004.36
1030.038	1133.38
1030.204	490.32
1030.369	516.94
1030.534	938.82
1030.7	709.45
1030.865	518.99
1031.031	381.78
1031.196	809.8
1031.361	885.58
1031.527	471.89
1031.692	396.11
1031.857	473.93
1032.023	889.67
1032.188	392.02
1032.353	516.94
1032.518	1147.72
1032.684	844.62
1032.849	326.48
1033.014	455.5
1033.179	957.25
1033.344	916.3
1033.509	510.8
1033.674	447.31
1033.839	1000.26
1034.004	1000.26
1034.17	371.54
1034.335	281.43
1034.5	656.2
1034.664	611.15
1034.829	365.39
1034.994	400.21
1035.159	799.56
1035.324	852.81
1035.489	389.97
1035.654	340.82
1035.819	1049.41
1035.984	805.71
1036.148	400.21
1036.313	471.89
1036.478	1047.37
1036.643	766.79
1036.807	385.87
1036.972	334.67
1037.137	1028.93
1037.301	752.46
1037.466	238.42
1037.631	439.12
1037.795	983.88
1037.96	904.01
1038.124	488.27
1038.289	238.42
1038.454	901.96
1038.618	772.94
1038.783	330.58
1038.947	486.22
1039.111	875.34
1039.276	625.48
1039.44	322.38
1039.605	822.09
1039.769	598.86
1039.933	688.97
1040.098	308.05
1040.262	584.52
1040.426	895.82
1040.591	787.27
1040.755	328.53
1040.919	349.01
1041.083	766.79
1041.248	611.15
1041.412	199.51
1041.576	277.33
1041.74	627.53
1041.904	877.38
1042.068	242.51
1042.232	328.53
1042.397	854.86
1042.561	613.2
1042.725	62.29
1042.889	392.02
1043.053	820.04
1043.217	754.51
1043.381	420.69
1043.544	115.54
1043.708	987.97
1043.872	400.21
1044.036	-7.34
1044.2	90.96
1044.364	861
1044.528	959.3
1044.691	1569.6
1044.855	111.44
1045.019	961.35
1045.183	723.79
1045.346	312.14
1045.51	181.07
1045.674	750.41
1045.837	758.6
1046.001	179.03
1046.165	271.19
1046.328	1123.14
1046.492	768.84
1046.655	443.21
1046.819	262.99
1046.983	478.03
1047.146	619.34
1047.31	344.91
1047.473	21.33
1047.636	512.85
1047.8	346.96
1047.963	232.27
1048.127	121.68
1048.29	463.69
