Data from Hydrogel_Ink_Intensity_Test_1_USB4F045381__75__00075.txt Node

Date: Mon Jul 31 10:56:07 EDT 2023
User: mmckonesweet
Spectrometer: USB4F04538
Trigger mode: 4
Integration Time (sec): 9.000000E-1
Scans to average: 1
Electric dark correction enabled: true
Nonlinearity correction enabled: false
Boxcar width: 0
XAxis mode: Wavelengths
Number of Pixels in Spectrum: 3648
>>>>>Begin Spectral Data<<<<<
345.52	-1016.99
345.736	-1016.99
345.952	-1016.99
346.168	-1072.28
346.384	-1103
346.6	-156.84
346.816	-253.09
347.032	-212.14
347.248	308.05
347.464	-187.56
347.68	-62.63
347.896	131.92
348.112	310.1
348.328	-111.78
348.544	-52.39
348.76	41.81
348.975	244.56
349.191	-277.67
349.407	-136.36
349.623	-5.29
349.839	-85.16
350.055	-154.79
350.27	64.34
350.486	240.47
350.702	359.25
350.918	195.41
351.133	-220.33
351.349	60.24
351.565	299.86
351.781	-167.08
351.996	-13.48
352.212	365.39
352.428	-83.11
352.644	-240.81
352.859	-228.52
353.075	246.61
353.291	-27.82
353.506	-148.65
353.722	-259.24
353.938	-97.45
354.153	332.62
354.369	58.2
354.584	-214.18
354.8	228.18
355.016	-410.79
355.231	-228.52
355.447	-105.64
355.662	93.01
355.878	914.25
356.093	-392.36
356.309	-156.84
356.524	-152.74
356.74	211.79
356.955	-234.66
357.171	27.48
357.386	97.11
357.602	-156.84
357.817	-25.77
358.033	-249
358.248	310.1
358.464	123.73
358.679	-189.61
358.895	-324.77
359.11	-58.54
359.325	244.56
359.541	224.08
359.756	-1.19
359.972	-267.43
360.187	148.31
360.402	-124.07
360.618	-101.55
360.833	983.88
361.048	133.97
361.264	-193.7
361.479	7
361.694	-58.54
361.909	219.99
362.125	-210.09
362.34	-25.77
362.555	293.71
362.77	60.24
362.986	-261.29
363.201	-199.85
363.416	154.45
363.631	9.05
363.847	-226.47
364.062	-152.74
364.277	277.33
364.492	113.49
364.707	-162.98
364.922	-416.93
365.138	195.41
365.353	351.06
365.568	-216.23
365.783	-158.89
365.998	62.29
366.213	588.62
366.428	-255.14
366.643	25.43
366.858	314.19
367.073	250.71
367.288	-122.02
367.503	-253.09
367.718	105.3
367.933	260.95
368.148	-326.82
368.363	-122.02
368.578	84.82
368.793	334.67
369.008	-165.03
369.223	-300.2
369.438	279.38
369.653	469.84
369.868	-271.53
370.083	-201.9
370.298	162.64
370.513	289.62
370.728	33.62
370.943	-212.14
371.157	-97.45
371.372	533.33
371.587	-257.19
371.802	-296.1
372.017	84.82
372.232	451.41
372.446	-60.59
372.661	-236.71
372.876	228.18
373.091	189.27
373.306	-83.11
373.52	-201.9
373.735	-189.61
373.95	379.73
374.165	-99.5
374.379	-136.36
374.594	-99.5
374.809	142.16
375.023	-5.29
375.238	-261.29
375.453	260.95
375.667	-277.67
375.882	-210.09
376.097	-246.95
376.311	41.81
376.526	-48.3
376.741	-218.28
376.955	64.34
377.17	508.75
377.384	551.76
377.599	-115.88
377.813	-246.95
378.028	498.51
378.242	170.83
378.457	-140.46
378.672	-308.39
378.886	105.3
379.101	-79.02
379.315	-427.17
379.53	-244.9
379.744	181.07
379.958	256.85
380.173	-126.12
380.387	-210.09
380.602	162.64
380.816	-132.26
381.031	-162.98
381.245	-74.92
381.459	199.51
381.674	2753.32
381.888	-224.42
382.103	66.39
382.317	-173.22
382.531	516.94
382.746	-60.59
382.96	-189.61
383.174	-56.49
383.388	412.5
383.603	31.57
383.817	-259.24
384.031	181.07
384.246	453.45
384.46	17.24
384.674	330.58
384.888	64.34
385.103	129.88
385.317	-232.62
385.531	-50.35
385.745	328.53
385.959	367.44
386.174	-232.62
386.388	-265.38
386.602	129.88
386.816	-72.87
387.03	-103.59
387.244	-21.67
387.458	80.72
387.672	437.07
387.887	-214.18
388.101	-308.39
388.315	357.2
388.529	211.79
388.743	-52.39
388.957	-191.66
389.171	359.25
389.385	-115.88
389.599	-105.64
389.813	60.24
390.027	125.78
390.241	639.82
390.455	-128.17
390.669	-107.69
390.883	47.96
391.097	367.44
391.311	107.35
391.525	-169.13
391.738	242.51
391.952	215.89
392.166	19.29
392.38	-236.71
392.594	355.15
392.808	410.45
393.022	-66.73
393.236	-115.88
393.449	207.7
393.663	242.51
393.877	-257.19
394.091	-66.73
394.305	-17.58
394.518	-74.92
394.732	-220.33
394.946	-185.51
395.16	445.26
395.373	45.91
395.587	-244.9
395.801	-197.8
396.015	306
396.228	201.55
396.442	-189.61
396.656	-316.58
396.869	410.45
397.083	451.41
397.297	-27.82
397.51	-156.84
397.724	355.15
397.938	187.22
398.151	-332.97
398.365	-195.75
398.578	228.18
398.792	416.59
399.005	74.58
399.219	-52.39
399.433	172.88
399.646	265.04
399.86	70.48
400.073	29.52
400.287	306
400.5	60.24
400.714	-31.91
400.927	-66.73
401.141	252.75
401.354	1198.92
401.567	211.79
401.781	-226.47
401.994	281.43
402.208	576.33
402.421	-21.67
402.635	-17.58
402.848	148.31
403.061	287.57
403.275	21.33
403.488	-216.23
403.701	514.89
403.915	308.05
404.128	47.96
404.341	-93.35
404.555	258.9
404.768	66.39
404.981	35.67
405.195	-115.88
405.408	586.57
405.621	312.14
405.834	7
406.048	-97.45
406.261	490.32
406.474	486.22
406.687	-140.46
406.9	9.05
407.114	113.49
407.327	330.58
407.54	-183.46
407.753	-193.7
407.966	-154.79
408.179	349.01
408.392	-115.88
408.605	-263.33
408.819	328.53
409.032	271.19
409.245	-214.18
409.458	56.15
409.671	301.9
409.884	445.26
410.097	-214.18
410.31	101.2
410.523	219.99
410.736	103.25
410.949	-66.73
411.162	-70.83
411.375	482.13
411.588	392.02
411.801	88.92
412.014	-136.36
412.227	162.64
412.44	45.91
412.653	-136.36
412.865	90.96
413.078	310.1
413.291	254.8
413.504	27.48
413.717	-140.46
413.93	277.33
414.143	-124.07
414.356	-83.11
414.568	-195.75
414.781	306
414.994	117.59
415.207	7
415.42	0.85
415.632	351.06
415.845	631.63
416.058	-244.9
416.271	-130.22
416.483	211.79
416.696	564.04
416.909	-7.34
417.121	-105.64
417.334	289.62
417.547	559.95
417.759	-162.98
417.972	-171.18
418.185	68.44
418.397	379.73
418.61	-150.7
418.823	-89.26
419.035	435.02
419.248	160.59
419.46	-21.67
419.673	121.68
419.885	260.95
420.098	82.77
420.311	23.38
420.523	-224.42
420.736	361.3
420.948	170.83
421.161	-54.44
421.373	-255.14
421.586	224.08
421.798	4.95
422.01	-236.71
422.223	142.16
422.435	117.59
422.648	471.89
422.86	-74.92
423.073	-70.83
423.285	396.11
423.497	-72.87
423.71	-191.66
423.922	-119.98
424.134	308.05
424.347	531.28
424.559	193.36
424.771	179.03
424.984	78.68
425.196	230.23
425.408	-287.91
425.621	-246.95
425.833	416.59
426.045	424.78
426.257	-189.61
426.47	-13.48
426.682	260.95
426.894	355.15
427.106	-36.01
427.318	27.48
427.531	35.67
427.743	332.62
427.955	-107.69
428.167	336.72
428.379	252.75
428.591	115.54
428.804	101.2
429.016	-46.25
429.228	138.07
429.44	379.73
429.652	123.73
429.864	-203.94
430.076	142.16
430.288	181.07
430.5	15.19
430.712	15.19
430.924	473.93
431.136	301.9
431.348	-189.61
431.56	-25.77
431.772	230.23
431.984	97.11
432.196	-119.98
432.408	-5.29
432.62	215.89
432.832	277.33
433.044	228.18
433.256	181.07
433.468	396.11
433.679	-95.4
433.891	-99.5
434.103	203.6
434.315	539.47
434.527	353.1
434.739	76.63
434.95	156.5
435.162	475.98
435.374	15.19
435.586	74.58
435.798	-5.29
436.009	-17.58
436.221	183.12
436.433	39.76
436.645	-27.82
436.856	121.68
437.068	498.51
437.28	-64.68
437.491	392.02
437.703	402.26
437.915	359.25
438.126	50
438.338	213.84
438.55	260.95
438.761	432.97
438.973	66.39
439.184	62.29
439.396	252.75
439.608	432.97
439.819	-27.82
440.031	146.26
440.242	295.76
440.454	432.97
440.665	76.63
440.877	181.07
441.088	338.77
441.3	164.69
441.511	-103.59
441.723	41.81
441.934	262.99
442.146	197.46
442.357	260.95
442.569	281.43
442.78	334.67
442.991	615.24
443.203	314.19
443.414	-62.63
443.626	615.24
443.837	160.59
444.048	-31.91
444.26	-130.22
444.471	377.68
444.682	426.83
444.894	-181.42
445.105	-83.11
445.316	521.04
445.528	367.44
445.739	158.55
445.95	101.2
446.161	371.54
446.373	523.09
446.584	25.43
446.795	123.73
447.006	457.55
447.217	664.4
447.429	-205.99
447.64	-31.91
447.851	637.77
448.062	379.73
448.273	-117.93
448.484	15.19
448.695	443.21
448.907	267.09
449.118	113.49
449.329	269.14
449.54	162.64
449.751	232.27
449.962	39.76
450.173	31.57
450.384	559.95
450.595	643.92
450.806	15.19
451.017	72.53
451.228	693.07
451.439	588.62
451.65	50
451.861	-81.07
452.072	97.11
452.283	312.14
452.494	328.53
452.705	-5.29
452.915	785.23
453.126	418.64
453.337	56.15
453.548	68.44
453.759	576.33
453.97	846.66
454.181	310.1
454.391	142.16
454.602	428.88
454.813	572.24
455.024	154.45
455.235	80.72
455.445	488.27
455.656	498.51
455.867	295.76
456.078	74.58
456.288	295.76
456.499	506.7
456.71	66.39
456.921	322.38
457.131	400.21
457.342	455.5
457.553	215.89
457.763	269.14
457.974	527.18
458.184	557.9
458.395	68.44
458.606	47.96
458.816	635.72
459.027	932.68
459.237	363.34
459.448	19.29
459.659	772.94
459.869	904.01
460.08	70.48
460.29	367.44
460.501	865.1
460.711	361.3
460.922	68.44
461.132	209.75
461.343	1160
461.553	140.12
461.764	273.23
461.974	240.47
462.184	631.63
462.395	557.9
462.605	166.74
462.816	146.26
463.026	625.48
463.236	768.84
463.447	238.42
463.657	129.88
463.867	727.88
464.078	508.75
464.288	291.66
464.498	285.52
464.709	510.8
464.919	453.45
465.129	228.18
465.339	164.69
465.55	660.3
465.76	748.36
465.97	273.23
466.18	236.37
466.391	768.84
466.601	639.82
466.811	351.06
467.021	219.99
467.231	600.91
467.441	895.82
467.651	359.25
467.862	93.01
468.072	500.56
468.282	805.71
468.492	277.33
468.702	482.13
468.912	623.44
469.122	1200.96
469.332	668.49
469.542	306
469.752	940.87
469.962	672.59
470.172	326.48
470.382	318.29
470.592	885.58
470.802	971.59
471.012	494.41
471.222	363.34
471.432	922.44
471.642	953.16
471.852	568.14
472.062	437.07
472.272	633.68
472.482	457.55
472.691	392.02
472.901	301.9
473.111	752.46
473.321	1280.83
473.531	498.51
473.741	637.77
473.95	1022.79
474.16	994.12
474.37	650.06
474.58	359.25
474.79	1289.03
474.999	963.4
475.209	475.98
475.419	531.28
475.628	768.84
475.838	1114.95
476.048	717.64
476.258	518.99
476.467	1162.05
476.677	701.26
476.886	748.36
477.096	742.22
477.306	742.22
477.515	1309.51
477.725	793.42
477.935	713.55
478.144	1327.94
478.354	764.75
478.563	707.4
478.773	695.11
478.982	1112.9
479.192	1340.22
479.401	949.06
479.611	719.69
479.82	813.9
480.03	1166.15
480.239	758.6
480.449	762.7
480.658	1473.34
480.868	1030.98
481.077	938.82
481.287	852.81
481.496	1235.78
481.705	1461.06
481.915	1151.81
482.124	1188.68
482.333	1256.26
482.543	1514.3
482.752	1108.8
482.961	869.19
483.171	1315.65
483.38	1229.63
483.589	1063.75
483.799	926.54
484.008	1196.87
484.217	1366.85
484.426	1035.08
484.636	916.3
484.845	1350.46
485.054	1069.89
485.263	1305.41
485.472	1055.56
485.682	1641.28
485.891	1401.66
486.1	879.43
486.309	1096.52
486.518	1430.34
486.727	1747.77
486.936	1137.48
487.146	1151.81
487.355	1647.42
487.564	1135.43
487.773	1157.96
487.982	1114.95
488.191	1334.08
488.4	1461.06
488.609	1172.29
488.818	1174.34
489.027	2048.82
489.236	1829.69
489.445	1291.07
489.654	1129.28
489.863	1700.67
490.072	1522.49
490.281	1561.41
490.49	1237.83
490.698	1817.4
490.907	1958.71
491.116	1301.31
491.325	1219.39
491.534	1901.37
491.743	1719.1
491.952	1399.62
492.16	1424.19
492.369	1749.82
492.578	1932.09
492.787	1502.01
492.996	1221.44
493.204	1514.3
493.413	2071.35
493.622	1198.92
493.831	1219.39
494.039	2077.49
494.248	1510.21
494.457	1461.06
494.665	1327.94
494.874	1927.99
495.083	2317.11
495.291	1395.52
495.5	1407.81
495.709	1942.33
495.917	1932.09
496.126	1493.82
496.335	1377.09
496.543	1696.57
496.752	1884.98
496.96	1891.13
497.169	1387.33
497.377	1846.07
497.586	2112.31
497.794	1735.48
498.003	1301.31
498.211	1846.07
498.42	2253.62
498.628	1641.28
498.837	1538.88
499.045	2046.77
499.254	1909.56
499.462	1579.84
499.671	1469.25
499.879	2280.24
500.087	2147.12
500.296	1532.73
500.504	1661.76
500.713	2075.45
500.921	2456.37
501.129	1690.43
501.338	1649.47
501.546	2042.68
501.754	1930.04
501.962	1715
502.171	1631.04
502.379	2106.17
502.587	2493.23
502.795	1823.55
503.004	1706.81
503.212	2018.1
503.42	2339.63
503.628	1721.15
503.837	1858.36
504.045	2140.98
504.253	2515.76
504.461	1694.52
504.669	1479.49
504.877	2165.56
505.085	2433.84
505.294	1577.79
505.502	1989.43
505.71	2308.91
505.918	2288.43
506.126	1688.38
506.334	1792.83
506.542	2048.82
506.75	2276.15
506.958	1940.28
507.166	1870.65
507.374	1977.14
507.582	2526
507.79	1909.56
507.998	1884.98
508.206	2310.96
508.414	2317.11
508.622	1899.32
508.83	1940.28
509.037	2427.7
509.245	2089.78
509.453	1796.92
509.661	1794.87
509.869	2460.46
510.077	2067.25
510.285	2118.45
510.492	1749.82
510.7	2792.23
510.908	2210.61
511.116	1930.04
511.324	1891.13
511.531	2192.18
511.739	2351.92
511.947	2165.56
512.155	2353.97
512.362	2403.12
512.57	2112.31
512.778	1932.09
512.985	1770.3
513.193	2560.81
513.401	2767.66
513.608	2112.31
513.816	1925.94
514.024	2364.21
514.231	2708.27
514.439	2005.81
514.646	2100.02
514.854	2519.85
515.061	2681.64
515.269	2059.06
515.477	2163.51
515.684	2327.35
515.892	2630.45
516.099	2005.81
516.307	1977.14
516.514	2698.03
516.722	2929.45
516.929	2134.84
517.136	2040.63
517.344	2937.64
517.551	2595.63
517.759	2026.29
517.966	2165.56
518.173	2378.55
518.381	2433.84
518.588	2194.23
518.796	2063.16
519.003	2822.95
519.21	2407.22
519.418	2134.84
519.625	2495.28
519.832	2534.19
520.039	2663.21
520.247	2071.35
520.454	2198.32
520.661	2865.96
520.868	2753.32
521.076	2284.34
521.283	2323.25
521.49	3226.4
521.697	2644.78
521.904	2333.49
522.112	2229.04
522.319	2898.73
522.526	2616.11
522.733	2227
522.94	2208.56
523.147	2665.26
523.354	2816.81
523.561	2272.05
523.768	2454.32
523.975	2900.78
524.183	2657.07
524.39	2468.66
524.597	2382.64
524.804	2673.45
525.011	2421.55
525.218	2360.11
525.425	2448.18
525.632	3068.71
525.838	2476.85
526.045	2321.2
526.252	2450.22
526.459	3939.1
526.666	3592.99
526.873	2476.85
527.08	2263.86
527.287	3138.34
527.494	2970.41
527.701	2407.22
527.907	2353.97
528.114	2960.17
528.321	2728.75
528.528	2579.25
528.735	2605.87
528.941	2730.8
529.148	2587.44
529.355	2605.87
529.562	2460.46
529.768	3195.68
529.975	2794.28
530.182	2550.57
530.388	2472.75
530.595	2974.5
530.802	2585.39
531.008	2581.29
531.215	2505.52
531.422	3506.98
531.628	3695.39
531.835	2669.36
532.042	2720.56
532.248	2888.49
532.455	3066.66
532.661	2706.22
532.868	2564.91
533.074	3097.38
533.281	3277.6
533.487	2804.52
533.694	2663.21
533.9	2865.96
534.107	3072.81
534.313	2755.37
534.52	2706.22
534.726	3181.35
534.933	3435.3
535.139	2755.37
535.345	2687.79
535.552	3199.78
535.758	3089.19
535.965	2833.19
536.171	2788.14
536.377	3271.46
536.584	3533.6
536.79	2765.61
536.996	3021.61
537.203	3042.09
537.409	3140.39
537.615	2814.76
537.821	3103.53
538.028	3373.86
538.234	3267.36
538.44	2712.36
538.646	2913.06
538.853	3330.85
539.059	3130.15
539.265	3359.52
539.471	2618.16
539.677	3386.15
539.883	3001.13
540.09	2818.86
540.296	3365.67
540.502	3291.94
540.708	2943.78
540.914	2968.36
541.12	2980.65
541.326	3402.53
541.532	3210.02
541.738	3070.76
541.944	2849.58
542.15	3461.92
542.356	3070.76
542.562	2939.69
542.768	3081
542.974	3863.32
543.18	3883.8
543.386	3101.48
543.592	2933.54
543.798	3689.25
544.004	3578.65
544.21	3087.14
544.415	3148.58
544.621	3406.63
544.827	3482.4
545.033	3007.27
545.239	3320.61
545.445	3101.48
545.651	3396.39
545.856	3081
546.062	3179.3
546.268	3316.51
546.474	3463.97
546.679	3056.42
546.885	3177.25
547.091	3320.61
547.297	3801.88
547.502	3193.64
547.708	2949.93
547.914	3201.83
548.119	3566.37
548.325	2923.3
548.531	3132.2
548.736	3971.86
548.942	3322.66
549.147	3083.05
549.353	3398.43
549.559	3748.64
549.764	3537.7
549.97	3212.07
550.175	3027.75
550.381	3713.82
550.586	3449.63
550.792	3091.24
550.997	3234.6
551.203	3681.05
551.408	3601.18
551.614	3293.99
551.819	3085.09
552.025	3988.25
552.23	4127.51
552.435	3240.74
552.641	3554.08
552.846	3412.77
553.052	3834.65
553.257	3572.51
553.462	3296.04
553.668	3572.51
553.873	3754.78
554.078	3269.41
554.283	3271.46
554.489	3685.15
554.694	3709.72
554.899	3345.19
555.105	3582.75
555.31	3781.4
555.515	3928.86
555.72	3580.7
555.925	3146.53
556.131	4031.26
556.336	3566.37
556.541	3386.15
556.746	3253.03
556.951	4086.55
557.156	4076.31
557.361	3631.9
557.567	3560.22
557.772	4264.72
557.977	3848.99
558.182	3496.74
558.387	3392.29
558.592	3660.57
558.797	3957.53
559.002	3480.35
559.207	3726.11
559.412	3857.18
559.617	4264.72
559.822	3418.91
560.027	3349.28
560.232	3941.15
560.437	4104.98
560.642	3304.23
560.847	3418.91
561.051	3910.43
561.256	3965.72
561.461	3472.16
561.666	3328.8
561.871	3902.23
562.076	4027.16
562.281	3650.33
562.485	3502.88
562.69	4117.27
562.895	3953.43
563.1	3570.46
563.305	3552.03
563.509	4037.4
563.714	4516.62
563.919	3451.68
564.123	3533.6
564.328	3871.51
564.533	4182.81
564.737	3676.96
564.942	3638.05
565.147	4342.55
565.351	4379.41
565.556	3691.29
565.761	3877.66
565.965	4084.5
566.17	3894.04
566.374	3584.8
566.579	3595.04
566.784	4088.6
566.988	4049.69
567.193	3545.89
567.397	3603.23
567.602	3549.98
567.806	4076.31
568.011	3605.28
568.215	3631.9
568.42	3859.23
568.624	3984.15
568.828	3681.05
569.033	3787.55
569.237	4309.78
569.442	4139.8
569.646	3566.37
569.85	3844.89
570.055	4021.02
570.259	4016.92
570.463	3906.33
570.668	3826.46
570.872	4115.22
571.076	4129.56
571.281	3756.83
571.485	3889.95
571.689	4127.51
571.893	4438.8
572.098	4074.26
572.302	3859.23
572.506	4401.94
572.71	4154.13
572.914	3898.14
573.119	3994.39
573.323	4612.88
573.527	4385.55
573.731	3963.67
573.935	3836.7
574.139	4299.54
574.343	4010.78
574.547	4033.3
574.751	3955.48
574.955	4412.18
575.159	4379.41
575.364	3980.06
575.568	3830.55
575.772	4086.55
575.976	4483.86
576.18	3840.79
576.383	3789.6
576.587	4533.01
576.791	4342.55
576.995	3758.88
577.199	3654.43
577.403	4344.6
577.607	4643.6
577.811	3844.89
578.015	4147.99
578.219	4356.88
578.422	4467.47
578.626	4162.33
578.83	4500.24
579.034	4569.87
579.238	4324.12
579.442	4041.5
579.645	4367.12
579.849	4373.27
580.053	4363.03
580.257	4115.22
580.46	4117.27
580.664	4690.7
580.868	4506.38
581.071	4455.19
581.275	4274.96
581.479	3885.85
581.682	4707.09
581.886	4039.45
582.09	4147.99
582.293	4576.02
582.497	4553.49
582.7	4340.5
582.904	4000.54
583.107	4520.72
583.311	4234
583.515	4168.47
583.718	4094.74
583.922	4524.82
584.125	4987.66
584.329	4166.42
584.532	4377.36
584.735	4733.71
584.939	4588.3
585.142	4088.6
585.346	4289.3
585.549	4645.65
585.753	4324.12
585.956	4279.06
586.159	4416.27
586.363	4901.64
586.566	4702.99
586.769	4205.33
586.973	4037.4
587.176	4807.44
587.379	4733.71
587.582	4623.12
587.786	4518.67
587.989	4426.51
588.192	5249.8
588.395	4387.6
588.599	4578.06
588.802	4680.46
589.005	4573.97
589.208	4252.44
589.411	4406.03
589.615	4647.69
589.818	4973.32
590.021	4430.61
590.224	4559.63
590.427	4889.35
590.63	4852.49
590.833	4209.43
591.036	4090.65
591.239	4610.83
591.442	4535.06
591.645	4729.61
591.848	4391.7
592.051	4836.11
592.254	4901.64
592.457	4539.15
592.66	4360.98
592.863	4659.98
593.066	4868.88
593.269	4506.38
593.472	4442.9
593.675	4406.03
593.878	4879.11
594.081	4496.14
594.284	4446.99
594.486	4979.47
594.689	4725.52
594.892	4463.38
595.095	4612.88
595.298	4934.41
595.5	4662.03
595.703	4805.39
595.906	4578.06
596.109	5174.02
596.311	4895.5
596.514	4451.09
596.717	4594.45
596.92	5251.85
597.122	4967.18
597.325	4467.47
597.528	4598.54
597.73	5384.96
597.933	5030.66
598.136	4528.91
598.338	4344.6
598.541	5055.24
598.743	5118.73
598.946	4635.41
599.148	4643.6
599.351	5229.32
599.554	5174.02
599.756	4799.24
599.959	4723.47
600.161	5239.56
600.363	5554.94
600.566	4825.87
600.768	4700.94
600.971	5491.46
601.173	5051.14
601.376	4537.1
601.578	4770.57
601.78	5073.67
601.983	5595.9
602.185	4676.37
602.388	4979.47
602.59	4920.07
602.792	4713.23
602.995	5032.71
603.197	4832.01
603.399	5276.42
603.601	5098.25
603.804	4801.29
604.006	4772.62
604.208	5143.3
604.41	4676.37
604.613	4909.83
604.815	4750.09
605.017	5536.51
605.219	4952.84
605.421	5096.2
605.623	4913.93
605.826	5307.14
606.028	5538.56
606.23	4750.09
606.432	4799.24
606.634	5419.78
606.836	5282.56
607.038	4676.37
607.24	4924.17
607.442	5145.35
607.644	5069.58
607.846	4891.4
608.048	4954.89
608.25	5481.22
608.452	4995.85
608.654	4838.16
608.856	4619.02
609.058	5118.73
609.26	5286.66
609.462	5001.99
609.664	4958.99
609.866	5485.31
610.067	5257.99
610.269	4995.85
610.471	4942.6
610.673	5229.32
610.875	5210.89
611.077	4743.95
611.278	5042.95
611.48	5184.26
611.682	5522.18
611.884	5163.78
612.085	4954.89
612.287	4971.27
612.489	5163.78
612.69	4782.86
612.892	4930.31
613.094	5327.62
613.295	5268.23
613.497	4756.24
613.699	4911.88
613.9	5522.18
614.102	5382.92
614.304	4881.16
614.505	4717.33
614.707	5290.76
614.908	5225.22
615.11	4684.56
615.311	5057.29
615.513	5315.33
615.714	5210.89
615.916	4786.96
616.117	4893.45
616.319	5137.16
616.52	5507.84
616.722	4961.03
616.923	4875.02
617.124	5608.19
617.326	5325.57
617.527	5102.34
617.729	5210.89
617.93	5339.91
618.131	5432.07
618.333	4897.55
618.534	4918.03
618.735	5053.19
618.937	5563.14
619.138	4846.35
619.339	4815.63
619.54	5358.34
619.742	5128.97
619.943	4979.47
620.144	5075.72
620.345	5409.54
620.546	5516.03
620.748	5063.43
620.949	4946.7
621.15	5460.74
621.351	5346.05
621.552	4985.61
621.753	4887.31
621.954	5016.33
622.155	5589.76
622.356	4725.52
622.558	5253.89
622.759	5124.87
622.96	5808.89
623.161	4989.71
623.362	5036.81
623.563	5270.28
623.764	5214.98
623.965	5192.45
624.166	5245.7
624.366	5288.71
624.567	5358.34
624.768	4815.63
624.969	5102.34
625.17	5276.42
625.371	5440.26
625.572	5196.55
625.773	4905.74
625.973	5612.29
626.174	5360.39
626.375	5008.14
626.576	5116.68
626.777	5579.52
626.977	5888.76
627.178	5085.96
627.379	5049.1
627.58	5112.58
627.78	5284.61
627.981	5075.72
628.182	5182.21
628.382	5579.52
628.583	5028.62
628.784	5040.9
628.984	5120.78
629.185	5710.59
629.386	5452.55
629.586	5217.03
629.787	4934.41
629.987	5495.55
630.188	5434.11
630.388	5251.85
630.589	5120.78
630.79	5978.87
630.99	5462.79
631.191	5184.26
631.391	5333.76
631.591	5532.42
631.792	5833.47
631.992	5208.84
632.193	5198.6
632.393	5899
632.594	5327.62
632.794	5135.11
632.994	5262.09
633.195	5466.88
633.395	5407.49
633.595	5110.54
633.796	5350.15
633.996	5309.19
634.196	5585.66
634.397	5200.65
634.597	5147.4
634.797	5292.8
634.997	5810.94
635.198	5397.25
635.398	5135.11
635.598	5520.13
635.798	5868.28
635.998	5542.66
636.199	5053.19
636.399	5372.68
636.599	5210.89
636.799	5196.55
636.999	5659.39
637.199	5571.33
637.399	5839.61
637.599	5276.42
637.799	5313.28
637.999	5468.93
638.199	5987.07
638.399	5233.41
638.599	5352.2
638.799	5720.83
638.999	5948.15
639.199	5436.16
639.399	5348.1
639.599	5987.07
639.799	5319.43
639.999	5237.51
640.199	5133.06
640.399	5755.65
640.599	5540.61
640.799	5372.68
640.998	5622.53
641.198	5831.42
641.398	5782.27
641.598	5423.87
641.798	5505.79
641.997	6521.59
642.197	5362.44
642.397	5427.97
642.597	5350.15
642.796	5878.52
642.996	5909.24
643.196	5577.47
643.395	5206.79
643.595	5757.69
643.795	5026.57
643.994	5419.78
644.194	5253.89
644.394	5884.67
644.593	5565.18
644.793	5165.83
644.992	5421.83
645.192	5798.65
645.392	5268.23
645.591	5503.75
645.791	5477.12
645.99	5798.65
646.19	5663.49
646.389	5378.82
646.589	5507.84
646.788	5653.25
646.987	5784.32
647.187	5737.21
647.386	5522.18
647.586	5591.81
647.785	5841.66
647.984	5487.36
648.184	5456.64
648.383	5694.21
648.582	5509.89
648.782	5565.18
648.981	5507.84
649.18	5440.26
649.38	5817.08
649.579	5364.48
649.778	5448.45
649.977	5769.98
650.177	5651.2
650.376	5387.01
650.575	5327.62
650.774	6085.37
650.973	5376.77
651.173	5364.48
651.372	5544.7
651.571	5667.58
651.77	6089.46
651.969	5303.04
652.168	5524.23
652.367	5417.73
652.566	5806.84
652.765	5241.61
652.964	5849.85
653.163	6028.03
653.362	5718.78
653.561	5432.07
653.76	5397.25
653.959	5651.2
654.158	5888.76
654.357	5626.62
654.556	5358.34
654.755	5839.61
654.954	6085.37
655.153	5384.96
655.352	5626.62
655.551	6030.07
655.749	5778.17
655.948	5628.67
656.147	5675.77
656.346	5862.14
656.545	5909.24
656.743	5624.58
656.942	5663.49
657.141	5700.35
657.34	5573.38
657.538	5528.32
657.737	5577.47
657.936	5665.53
658.135	5835.52
658.333	5585.66
658.532	5757.69
658.731	6218.49
658.929	6038.27
659.128	5925.63
659.326	5667.58
659.525	6036.22
659.724	5812.99
659.922	5364.48
660.121	5442.31
660.319	5892.86
660.518	5544.7
660.716	5401.35
660.915	5548.8
661.113	6267.64
661.312	5372.68
661.51	5665.53
661.709	5602.05
661.907	5911.29
662.105	6288.12
662.304	5530.37
662.502	5669.63
662.701	6222.58
662.899	5700.35
663.097	5907.2
663.296	5364.48
663.494	5985.02
663.692	6224.63
663.891	5587.71
664.089	5610.24
664.287	5817.08
664.485	6142.71
664.684	5479.17
664.882	5573.38
665.08	5894.91
665.278	5929.72
665.476	5274.37
665.675	5946.11
665.873	6392.56
666.071	6193.91
666.269	5581.57
666.467	5901.05
666.665	5835.52
666.863	5864.19
667.061	5645.06
667.259	5665.53
667.457	5800.7
667.655	6103.8
667.853	5448.45
668.051	5788.41
668.249	5630.72
668.447	5925.63
668.645	5669.63
668.843	5923.58
669.041	6132.47
669.239	5837.56
669.437	5620.48
669.635	5577.47
669.833	5937.91
670.031	5970.68
670.229	5663.49
670.426	5794.56
670.624	5849.85
670.822	5643.01
671.02	5552.9
671.218	5708.54
671.415	5653.25
671.613	6011.64
671.811	5714.69
672.009	5751.55
672.206	6091.51
672.404	5892.86
672.602	5858.04
672.799	5554.94
672.997	5970.68
673.195	6136.57
673.392	5755.65
673.59	5364.48
673.788	6105.85
673.985	5245.7
674.183	5554.94
674.38	5733.12
674.578	6044.41
674.775	5552.9
674.973	5387.01
675.17	5538.56
675.368	6210.29
675.565	5970.68
675.763	5634.82
675.96	5358.34
676.158	6109.94
676.355	5610.24
676.553	5587.71
676.75	5579.52
676.947	5845.76
677.145	5739.26
677.342	5618.43
677.539	5643.01
677.737	5749.5
677.934	6314.74
678.131	5610.24
678.329	5501.7
678.526	6128.38
678.723	6068.98
678.92	5663.49
679.118	5540.61
679.315	5548.8
679.512	6195.96
679.709	5675.77
679.906	5536.51
680.104	6173.43
680.301	5667.58
680.498	5462.79
680.695	5438.21
680.892	5575.42
681.089	5554.94
681.286	5628.67
681.483	5255.94
681.68	5956.35
681.877	5899
682.075	5464.83
682.272	5708.54
682.469	5905.15
682.665	5714.69
682.862	5440.26
683.059	5276.42
683.256	5796.6
683.453	5819.13
683.65	5618.43
683.847	5407.49
684.044	5796.6
684.241	5493.51
684.438	5569.28
684.635	5186.31
684.831	6085.37
685.028	6120.18
685.225	5516.03
685.422	5561.09
685.619	5675.77
685.815	5589.76
686.012	5690.11
686.209	5511.94
686.405	5366.53
686.602	5878.52
686.799	5372.68
686.996	5288.71
687.192	5536.51
687.389	6093.56
687.586	5374.72
687.782	5272.32
687.979	5997.31
688.175	5874.43
688.372	5538.56
688.568	5374.72
688.765	5470.98
688.962	5939.96
689.158	5616.38
689.355	5237.51
689.551	5810.94
689.748	5536.51
689.944	5409.54
690.14	5313.28
690.337	5880.57
690.533	5581.57
690.73	5690.11
690.926	5456.64
691.123	5722.88
691.319	5628.67
691.515	5450.5
691.712	5458.69
691.908	5815.04
692.104	5665.53
692.301	5470.98
692.497	5376.77
692.693	5763.84
692.889	5645.06
693.086	5505.79
693.282	5169.93
693.478	5597.95
693.674	5899
693.87	5327.62
694.067	5165.83
694.263	5815.04
694.459	5595.9
694.655	5579.52
694.851	5591.81
695.047	5718.78
695.243	5763.84
695.439	5585.66
695.635	5284.61
695.831	5608.19
696.027	5413.63
696.224	5227.27
696.42	5628.67
696.615	5964.54
696.811	5815.04
697.007	5249.8
697.203	5372.68
697.399	5628.67
697.595	5876.48
697.791	5137.16
697.987	5616.38
698.183	5280.52
698.379	5268.23
698.575	5368.58
698.77	5458.69
698.966	5628.67
699.162	5851.9
699.358	5319.43
699.554	5348.1
699.749	5827.32
699.945	5618.43
700.141	5442.31
700.337	5575.42
700.532	5647.1
700.728	5460.74
700.924	5067.53
701.119	5100.3
701.315	5593.86
701.511	5374.72
701.706	5307.14
701.902	5155.59
702.097	5503.75
702.293	5767.93
702.489	5425.92
702.684	5290.76
702.88	5460.74
703.075	5309.19
703.271	5163.78
703.466	5159.69
703.662	5561.09
703.857	5675.77
704.053	5247.75
704.248	5190.41
704.443	5767.93
704.639	5716.73
704.834	5290.76
705.03	5210.89
705.225	5663.49
705.42	5591.81
705.616	5376.77
705.811	5065.48
706.006	5466.88
706.202	5344
706.397	5284.61
706.592	5227.27
706.787	5432.07
706.983	5618.43
707.178	5579.52
707.373	5411.59
707.568	5706.49
707.763	5755.65
707.959	5171.97
708.154	5221.13
708.349	5417.73
708.544	5731.07
708.739	5442.31
708.934	5151.49
709.129	5698.3
709.324	5677.82
709.519	5161.73
709.714	5040.9
709.909	5815.04
710.104	5520.13
710.299	5200.65
710.494	5165.83
710.689	5513.99
710.884	5546.75
711.079	5384.96
711.274	5458.69
711.469	5663.49
711.664	5516.03
711.859	5253.89
712.054	5581.57
712.249	5540.61
712.443	5628.67
712.638	5061.38
712.833	5071.62
713.028	5458.69
713.223	5358.34
713.417	5491.46
713.612	5069.58
713.807	5536.51
714.002	6095.61
714.196	5188.36
714.391	5126.92
714.586	5645.06
714.78	5507.84
714.975	5192.45
715.17	5192.45
715.364	5344
715.559	5853.95
715.754	4915.98
715.948	5081.86
716.143	5782.27
716.337	5350.15
716.532	5368.58
716.726	5020.42
716.921	5440.26
717.115	5896.96
717.31	5071.62
717.504	5571.33
717.699	5157.64
717.893	5602.05
718.088	5126.92
718.282	4936.46
718.476	5296.9
718.671	5348.1
718.865	5073.67
719.059	5079.82
719.254	5266.18
719.448	5579.52
719.642	6507.25
719.837	4969.23
720.031	5454.59
720.225	5667.58
720.419	5184.26
720.614	4965.13
720.808	5425.92
721.002	5202.69
721.196	5114.63
721.39	4858.64
721.585	5526.27
721.779	5217.03
721.973	5032.71
722.167	4807.44
722.361	5137.16
722.555	5585.66
722.749	5006.09
722.943	4967.18
723.137	4823.82
723.331	5239.56
723.525	4881.16
723.719	4975.37
723.913	5450.5
724.107	5559.04
724.301	4866.83
724.495	5114.63
724.689	5825.28
724.883	5583.62
725.077	4965.13
725.271	5167.88
725.465	5329.67
725.659	5255.94
725.853	5090.06
726.046	4840.2
726.24	5081.86
726.434	5505.79
726.628	4950.79
726.822	5008.14
727.015	5532.42
727.209	5450.5
727.403	4926.22
727.596	4741.9
727.79	5344
727.984	5376.77
728.177	5057.29
728.371	5059.34
728.565	5409.54
728.758	5006.09
728.952	4897.55
729.146	4905.74
729.339	5430.02
729.533	5124.87
729.726	5071.62
729.92	4848.4
730.113	5286.66
730.307	5305.09
730.5	4901.64
730.694	4866.83
730.887	5126.92
731.081	5509.89
731.274	4952.84
731.468	4915.98
731.661	5167.88
731.854	5198.6
732.048	4997.9
732.241	4797.2
732.435	5073.67
732.628	5264.13
732.821	5065.48
733.014	4854.54
733.208	4854.54
733.401	5384.96
733.594	4963.08
733.788	4850.44
733.981	5636.86
734.174	5327.62
734.367	4915.98
734.56	4963.08
734.754	5362.44
734.947	5315.33
735.14	4688.65
735.333	4887.31
735.526	5262.09
735.719	5085.96
735.912	4858.64
736.105	4891.4
736.298	5317.38
736.491	5034.76
736.684	4911.88
736.877	4743.95
737.07	5286.66
737.263	5440.26
737.456	4897.55
737.649	4680.46
737.842	5077.77
738.035	5096.2
738.228	5069.58
738.421	5008.14
738.614	5456.64
738.807	5294.85
739	4741.9
739.192	4721.42
739.385	5200.65
739.578	5167.88
739.771	5004.04
739.964	4885.26
740.156	5088.01
740.349	5104.39
740.542	5028.62
740.735	4690.7
740.927	4803.34
741.12	4815.63
741.313	4911.88
741.505	5045
741.698	5192.45
741.891	5135.11
742.083	4989.71
742.276	4760.33
742.468	5167.88
742.661	5085.96
742.854	4791.05
743.046	4702.99
743.239	5505.79
743.431	5102.34
743.624	4868.88
743.816	4694.8
744.009	4827.92
744.201	5061.38
744.393	5067.53
744.586	4537.1
744.778	5372.68
744.971	5120.78
745.163	4891.4
745.355	4791.05
745.548	4944.65
745.74	4915.98
745.932	4762.38
746.125	4844.3
746.317	5513.99
746.509	5077.77
746.702	4958.99
746.894	4791.05
747.086	5049.1
747.278	5350.15
747.471	4991.75
747.663	4909.83
747.855	5171.97
748.047	5376.77
748.239	4754.19
748.431	4735.76
748.623	5597.95
748.815	5458.69
749.008	4692.75
749.2	4803.34
749.392	5143.3
749.584	5194.5
749.776	4748.04
749.968	4889.35
750.16	5548.8
750.352	4989.71
750.544	4854.54
750.736	4635.41
750.928	5200.65
751.12	4870.92
751.311	4852.49
751.503	4875.02
751.695	5145.35
751.887	5085.96
752.079	4440.85
752.271	4819.72
752.463	5843.71
752.654	5104.39
752.846	4827.92
753.038	4647.69
753.23	4961.03
753.421	5016.33
753.613	4631.31
753.805	5057.29
753.997	5358.34
754.188	5227.27
754.38	4799.24
754.572	4854.54
754.763	5022.47
754.955	5126.92
755.146	4913.93
755.338	4725.52
755.53	5092.1
755.721	5057.29
755.913	4446.99
756.104	4496.14
756.296	4868.88
756.487	5038.86
756.679	4586.26
756.87	4590.35
757.062	4678.41
757.253	5014.28
757.445	4426.51
757.636	4717.33
757.827	5006.09
758.019	5434.11
758.21	4375.31
758.401	4565.78
758.593	5417.73
758.784	5278.47
758.975	4377.36
759.167	4399.89
759.358	4930.31
759.549	5260.04
759.74	4610.83
759.932	4619.02
760.123	5245.7
760.314	4705.04
760.505	4750.09
760.696	4627.21
760.888	5405.44
761.079	4692.75
761.27	4512.53
761.461	4272.92
761.652	5229.32
761.843	4702.99
762.034	4582.16
762.225	4815.63
762.416	4825.87
762.607	4854.54
762.798	4457.23
762.989	4514.58
763.18	5487.36
763.371	4801.29
763.562	4490
763.753	4569.87
763.944	4868.88
764.135	5030.66
764.326	4479.76
764.517	4496.14
764.708	4829.96
764.899	4750.09
765.089	4356.88
765.28	4258.58
765.471	4709.13
765.662	4840.2
765.853	4496.14
766.043	4309.78
766.234	4911.88
766.425	4789
766.615	4367.12
766.806	4356.88
766.997	4956.94
767.187	4741.9
767.378	4356.88
767.569	4203.29
767.759	4807.44
767.95	4659.98
768.141	4582.16
768.331	4242.2
768.522	4696.85
768.712	4875.02
768.903	4346.64
769.093	4211.48
769.284	4989.71
769.474	4709.13
769.665	4102.93
769.855	4141.85
770.046	4604.69
770.236	4483.86
770.426	4428.56
770.617	4225.81
770.807	4662.03
770.998	4434.71
771.188	4500.24
771.378	4277.01
771.569	4860.68
771.759	4674.32
771.949	4133.65
772.139	4041.5
772.33	4627.21
772.52	4782.86
772.71	4154.13
772.9	4127.51
773.09	4694.8
773.281	4899.59
773.471	4109.08
773.661	4234
773.851	4754.19
774.041	4375.31
774.231	4078.36
774.421	4340.5
774.611	4899.59
774.802	4397.84
774.992	4262.68
775.182	4004.63
775.372	4401.94
775.562	4690.7
775.752	4143.89
775.942	4115.22
776.131	4758.28
776.321	4528.91
776.511	4088.6
776.701	4172.57
776.891	4670.22
777.081	4313.88
777.271	4184.85
777.461	3889.95
777.651	4494.1
777.84	4668.17
778.03	4258.58
778.22	4080.41
778.41	4690.7
778.599	4049.69
778.789	4135.7
778.979	3963.67
779.169	4348.69
779.358	4328.21
779.548	4264.72
779.738	3834.65
779.927	4449.04
780.117	3955.48
780.307	4070.17
780.496	3869.47
780.686	4498.19
780.875	4563.73
781.065	4027.16
781.254	4033.3
781.444	4268.82
781.633	4203.29
781.823	3924.76
782.012	3867.42
782.202	4150.04
782.391	4178.71
782.581	4029.21
782.77	4070.17
782.96	4391.7
783.149	4221.72
783.338	3885.85
783.528	3795.74
783.717	4430.61
783.906	4522.77
784.096	3898.14
784.285	3857.18
784.474	4211.48
784.663	4104.98
784.853	3955.48
785.042	3994.39
785.231	4031.26
785.42	4467.47
785.61	3885.85
785.799	3617.57
785.988	4107.03
786.177	4307.73
786.366	3963.67
786.555	4123.41
786.744	4369.17
786.933	4168.47
787.122	3740.44
787.312	3777.31
787.501	3906.33
787.69	4350.74
787.879	3846.94
788.068	3808.03
788.257	3744.54
788.445	3816.22
788.634	3826.46
788.823	3744.54
789.012	4666.13
789.201	4406.03
789.39	3795.74
789.579	3824.41
789.768	4039.45
789.957	4064.02
790.145	3756.83
790.334	3513.12
790.523	3941.15
790.712	3848.99
790.9	3844.89
791.089	3578.65
791.278	4279.06
791.467	3978.01
791.655	3961.62
791.844	4117.27
792.033	3883.8
792.221	3928.86
792.41	3783.45
792.599	3660.57
792.787	4270.87
792.976	4211.48
793.164	3588.89
793.353	3803.93
793.541	4328.21
793.73	4150.04
793.918	3676.96
794.107	3638.05
794.295	4031.26
794.484	3836.7
794.672	3568.41
794.861	3652.38
795.049	4010.78
795.238	4309.78
795.426	3523.36
795.614	3789.6
795.803	4025.11
795.991	4211.48
796.179	3683.1
796.368	3701.53
796.556	4025.11
796.744	3646.24
796.932	3619.61
797.121	3488.54
797.309	3869.47
797.497	4195.09
797.685	3590.94
797.874	3574.56
798.062	3793.69
798.25	4164.37
798.438	3541.79
798.626	3457.82
798.814	4053.78
799.002	4399.89
799.19	3875.61
799.378	3713.82
799.566	4203.29
799.755	4166.42
799.943	3703.58
800.131	3597.09
800.318	3846.94
800.506	4051.74
800.694	3576.61
800.882	3640.09
801.07	4182.81
801.258	3930.91
801.446	3595.04
801.634	3613.47
801.822	3943.19
802.01	3889.95
802.197	3562.27
802.385	3777.31
802.573	3939.1
802.761	3650.33
802.949	3636
803.136	3525.41
803.324	4127.51
803.512	4053.78
803.699	3672.86
803.887	3457.82
804.075	4102.93
804.262	3775.26
804.45	3525.41
804.638	3679.01
804.825	3664.67
805.013	3687.2
805.201	3615.52
805.388	3509.02
805.576	4027.16
805.763	4258.58
805.951	3799.84
806.138	3683.1
806.326	4422.42
806.513	4137.75
806.701	3738.4
806.888	3640.09
807.075	4113.17
807.263	4274.96
807.45	3482.4
807.638	3693.34
807.825	4365.07
808.012	4172.57
808.2	3693.34
808.387	3894.04
808.574	3978.01
808.761	4367.12
808.949	3709.72
809.136	3902.23
809.323	3885.85
809.51	3883.8
809.698	3875.61
809.885	3889.95
810.072	4125.46
810.259	4094.74
810.446	3767.07
810.633	3765.02
810.82	4234
811.008	4291.35
811.195	3980.06
811.382	3922.71
811.569	3922.71
811.756	3687.2
811.943	3853.08
812.13	3656.48
812.317	3879.71
812.504	3767.07
812.691	3738.4
812.878	3789.6
813.064	4406.03
813.251	4121.37
813.438	3621.66
813.625	3910.43
813.812	3982.1
813.999	3937.05
814.186	3638.05
814.372	3636
814.559	3824.41
814.746	4274.96
814.933	3742.49
815.12	3810.08
815.306	3885.85
815.493	3709.72
815.68	3793.69
815.866	3611.42
816.053	4246.29
816.24	4340.5
816.426	3945.24
816.613	3607.33
816.799	4041.5
816.986	4186.9
817.173	3728.16
817.359	3676.96
817.546	4127.51
817.732	3885.85
817.919	3457.82
818.105	3814.17
818.292	3885.85
818.478	4090.65
818.665	3830.55
818.851	3676.96
819.037	4608.78
819.224	3916.57
819.41	3775.26
819.597	3746.59
819.783	4444.95
819.969	4139.8
820.156	3857.18
820.342	3625.76
820.528	4725.52
820.714	3760.92
820.901	3965.72
821.087	3644.19
821.273	4293.4
821.459	3722.01
821.646	3459.87
821.832	3554.08
822.018	3941.15
822.204	3982.1
822.39	3703.58
822.576	3629.85
822.762	4096.79
822.948	4031.26
823.134	3916.57
823.32	3531.55
823.507	3605.28
823.693	4102.93
823.879	4184.85
824.065	3425.06
824.25	3935
824.436	3513.12
824.622	3466.02
824.808	3445.54
824.994	3799.84
825.18	3705.63
825.366	3408.67
825.552	3515.17
825.738	3750.68
825.923	4061.98
826.109	3728.16
826.295	3504.93
826.481	3730.2
826.667	3697.44
826.852	3808.03
827.038	3459.87
827.224	4213.53
827.409	4213.53
827.595	3345.19
827.781	3629.85
827.966	4029.21
828.152	4045.59
828.338	3611.42
828.523	3255.08
828.709	3619.61
828.894	4029.21
829.08	3476.26
829.266	3535.65
829.451	3640.09
829.637	3980.06
829.822	3631.9
830.008	3410.72
830.193	3875.61
830.378	4049.69
830.564	3558.18
830.749	3492.64
830.935	3935
831.12	3754.78
831.305	3316.51
831.491	3402.53
831.676	3539.74
831.861	3941.15
832.047	3525.41
832.232	3312.42
832.417	3777.31
832.602	3771.16
832.788	3341.09
832.973	3324.71
833.158	3623.71
833.343	3818.27
833.528	3539.74
833.714	3554.08
833.899	3832.6
834.084	4029.21
834.269	3547.94
834.454	3437.34
834.639	3719.96
834.824	3676.96
835.009	3617.57
835.194	3578.65
835.379	3748.64
835.564	4168.47
835.749	3513.12
835.934	3150.63
836.119	3867.42
836.304	3472.16
836.489	3318.56
836.674	3580.7
836.859	3384.1
837.044	3947.29
837.228	3367.71
837.413	3283.75
837.598	3783.45
837.783	3994.39
837.968	3193.64
838.152	3238.69
838.337	3197.73
838.522	3945.24
838.707	3834.65
838.891	3420.96
839.076	3646.24
839.261	3748.64
839.445	3316.51
839.63	3330.85
839.815	3859.23
839.999	3427.11
840.184	3353.38
840.368	3328.8
840.553	3697.44
840.737	3838.75
840.922	3257.12
841.106	3078.95
841.291	3285.8
841.475	3640.09
841.66	3152.68
841.844	3203.88
842.029	4293.4
842.213	3212.07
842.397	3169.06
842.582	3095.33
842.766	3726.11
842.951	3707.68
843.135	3187.49
843.319	3283.75
843.504	3435.3
843.688	3705.63
843.872	2935.59
844.056	3113.77
844.241	3554.08
844.425	3412.77
844.609	3353.38
844.793	3001.13
844.977	3570.46
845.161	3451.68
845.346	3058.47
845.53	3130.15
845.714	3382.05
845.898	3863.32
846.082	2927.4
846.266	3121.96
846.45	3568.41
846.634	3640.09
846.818	3054.37
847.002	3351.33
847.186	3668.77
847.37	3181.35
847.554	2984.74
847.738	3361.57
847.922	3498.78
848.106	3343.14
848.29	3015.46
848.473	3152.68
848.657	3586.85
848.841	3351.33
849.025	3128.1
849.209	2894.63
849.392	3504.93
849.576	3375.91
849.76	2718.51
849.944	3334.95
850.127	3734.3
850.311	2915.11
850.495	2974.5
850.678	2718.51
850.862	3676.96
851.046	3636
851.229	3386.15
851.413	2947.88
851.596	3267.36
851.78	3339.04
851.964	3097.38
852.147	2968.36
852.331	3994.39
852.514	3816.22
852.698	3054.37
852.881	2775.85
853.065	3451.68
853.248	3185.44
853.431	3050.28
853.615	3164.97
853.798	3857.18
853.982	3226.4
854.165	3091.24
854.348	2937.64
854.532	3083.05
854.715	3146.53
854.898	2972.46
855.081	2894.63
855.265	3523.36
855.448	3642.14
855.631	2915.11
855.814	2913.06
855.997	3418.91
856.181	3242.79
856.364	3001.13
856.547	2771.76
856.73	3253.03
856.913	3330.85
857.096	2810.67
857.279	2943.78
857.462	2997.03
857.645	3463.97
857.828	3029.8
858.011	3042.09
858.194	3111.72
858.377	3226.4
858.56	2812.71
858.743	2949.93
858.926	2880.3
859.109	3394.34
859.292	2853.67
859.475	2542.38
859.658	3410.72
859.841	3263.27
860.023	2808.62
860.206	2763.56
860.389	3091.24
860.572	3484.45
860.755	2874.15
860.937	2982.7
861.12	2951.98
861.303	3078.95
861.486	2827.05
861.668	2808.62
861.851	3218.21
862.034	3050.28
862.216	2966.31
862.399	2577.2
862.581	3205.92
862.764	3328.8
862.947	2751.28
863.129	2792.23
863.312	2816.81
863.494	3414.82
863.677	3003.18
863.859	2569.01
864.042	3195.68
864.224	3443.49
864.406	2808.62
864.589	2663.21
864.771	3089.19
864.954	2775.85
865.136	2671.4
865.318	2620.21
865.501	3115.81
865.683	2577.2
865.865	2603.82
866.048	2624.3
866.23	3117.86
866.412	3001.13
866.594	2601.77
866.777	2716.46
866.959	3107.62
867.141	2810.67
867.323	2863.91
867.505	2728.75
867.687	2839.34
867.869	2972.46
868.052	2655.02
868.234	2431.79
868.416	2925.35
868.598	3132.2
868.78	2655.02
868.962	2612.01
869.144	3062.57
869.326	3017.51
869.508	2644.78
869.69	2573.1
869.872	2810.67
870.054	3218.21
870.236	2439.98
870.417	2601.77
870.599	2992.94
870.781	3359.52
870.963	2775.85
871.145	2577.2
871.327	2581.29
871.508	2964.26
871.69	2695.98
871.872	2648.88
872.054	2900.78
872.235	3017.51
872.417	2665.26
872.599	2528.05
872.78	3193.64
872.962	2974.5
873.144	2399.02
873.325	2566.96
873.507	3279.65
873.689	2771.76
873.87	2585.39
874.052	2657.07
874.233	2843.43
874.415	3027.75
874.596	2636.59
874.778	2523.95
874.959	3052.33
875.141	3115.81
875.322	2702.12
875.503	2497.33
875.685	2992.94
875.866	2462.51
876.048	2476.85
876.229	2501.42
876.41	2816.81
876.592	3089.19
876.773	2597.68
876.954	2493.23
877.136	3212.07
877.317	2956.07
877.498	2321.2
877.679	2644.78
877.86	3009.32
878.042	2892.59
878.223	2583.34
878.404	2814.76
878.585	3005.22
878.766	3281.7
878.947	2761.52
879.128	2833.19
879.309	3103.53
879.49	3070.76
879.672	2630.45
879.853	2698.03
880.034	2771.76
880.215	2890.54
880.396	2630.45
880.576	2562.86
880.757	2829.1
880.938	3181.35
881.119	2552.62
881.3	2405.17
881.481	2861.87
881.662	3633.95
881.843	2491.18
882.023	2566.96
882.204	3095.33
882.385	3048.23
882.566	2675.5
882.747	2636.59
882.927	3089.19
883.108	2990.89
883.289	2614.06
883.469	2892.59
883.65	2810.67
883.831	3027.75
884.011	2933.54
884.192	2706.22
884.373	3083.05
884.553	3087.14
884.734	2857.77
884.914	3089.19
885.095	3636
885.275	3425.06
885.456	3054.37
885.636	2632.49
885.817	2976.55
885.997	3087.14
886.178	2648.88
886.358	2837.29
886.538	3046.18
886.719	3978.01
886.899	2759.47
887.08	2775.85
887.26	3255.08
887.44	2722.6
887.621	2679.6
887.801	2876.2
887.981	3562.27
888.161	3273.51
888.342	2833.19
888.522	2743.08
888.702	3287.84
888.882	3388.19
889.062	3019.56
889.242	2599.73
889.423	3476.26
889.603	3132.2
889.783	2876.2
889.963	2720.56
890.143	3111.72
890.323	3343.14
890.503	2806.57
890.683	2734.89
890.863	3121.96
891.043	3056.42
891.223	2779.95
891.403	3001.13
891.583	3009.32
891.763	3105.57
891.943	2812.71
892.122	2681.64
892.302	3085.09
892.482	2964.26
892.662	2933.54
892.842	2908.97
893.022	3187.49
893.201	2898.73
893.381	2857.77
893.561	2695.98
893.741	3244.84
893.92	3218.21
894.1	2974.5
894.28	2939.69
894.459	3189.54
894.639	3179.3
894.819	2794.28
894.998	2958.12
895.178	3128.1
895.357	3046.18
895.537	2638.64
895.716	2675.5
895.896	3013.42
896.075	3367.71
896.255	2673.45
896.434	2523.95
896.614	3353.38
896.793	3414.82
896.973	2814.76
897.152	2812.71
897.331	3076.9
897.511	3148.58
897.69	2560.81
897.87	2728.75
898.049	3216.16
898.228	2974.5
898.407	2820.91
898.587	2784.04
898.766	2638.64
898.945	3183.4
899.124	3087.14
899.304	2908.97
899.483	3158.82
899.662	3427.11
899.841	2587.44
900.02	2644.78
900.199	3156.77
900.378	3072.81
900.557	2636.59
900.737	2493.23
900.916	2906.92
901.095	3181.35
901.274	2997.03
901.453	2517.81
901.632	2630.45
901.811	2665.26
901.989	2509.62
902.168	2431.79
902.347	3160.87
902.526	2675.5
902.705	2636.59
902.884	2671.4
903.063	3255.08
903.242	3101.48
903.42	2489.14
903.599	2493.23
903.778	3081
903.957	3078.95
904.135	2587.44
904.314	2521.9
904.493	2982.7
904.672	2874.15
904.85	2579.25
905.029	2435.89
905.207	2876.2
905.386	3244.84
905.565	2186.04
905.743	2460.46
905.922	2601.77
906.1	3023.66
906.279	2186.04
906.457	2202.42
906.636	2480.94
906.814	2526
906.993	2251.57
907.171	2245.43
907.35	2800.43
907.528	2894.63
907.707	2603.82
907.885	2235.19
908.063	2865.96
908.242	2315.06
908.42	2345.78
908.598	1899.32
908.777	2546.48
908.955	2292.53
909.133	2427.7
909.311	2194.23
909.49	2419.5
909.668	2515.76
909.846	2247.48
910.024	2145.08
910.202	2558.77
910.38	2589.49
910.559	2095.93
910.737	2175.8
910.915	2597.68
911.093	2685.74
911.271	2196.28
911.449	2399.02
911.627	2734.89
911.805	3175.2
911.983	2333.49
912.161	2257.71
912.339	2648.88
912.517	2956.07
912.695	2571.05
912.872	2310.96
913.05	2460.46
913.228	2718.51
913.406	2419.5
913.584	2251.57
913.762	2792.23
913.939	2550.57
914.117	2333.49
914.295	2288.43
914.473	2814.76
914.65	2802.47
914.828	2374.45
915.006	2257.71
915.184	2308.91
915.361	2781.99
915.539	2517.81
915.716	2548.53
915.894	2714.41
916.072	2757.42
916.249	2591.53
916.427	2587.44
916.604	2378.55
916.782	2648.88
916.959	2210.61
917.137	2284.34
917.314	2655.02
917.492	2759.47
917.669	2407.22
917.847	2439.98
918.024	2734.89
918.201	2442.03
918.379	2566.96
918.556	2382.64
918.733	2773.8
918.911	2489.14
919.088	2501.42
919.265	2167.6
919.442	2861.87
919.62	2501.42
919.797	2149.17
919.974	2220.85
920.151	2538.29
920.328	2587.44
920.506	2360.11
920.683	2442.03
920.86	2333.49
921.037	2454.32
921.214	2310.96
921.391	2263.86
921.568	2730.8
921.745	2265.91
921.922	2329.39
922.099	2151.22
922.276	2841.39
922.453	2597.68
922.63	2198.32
922.807	2585.39
922.984	2509.62
923.161	2390.83
923.338	2267.95
923.514	2233.14
923.691	2482.99
923.868	2620.21
924.045	2183.99
924.222	2132.79
924.399	2677.55
924.575	2755.37
924.752	2188.08
924.929	2270
925.105	2548.53
925.282	2204.47
925.459	2177.84
925.635	2229.04
925.812	2419.5
925.989	2353.97
926.165	2259.76
926.342	2097.97
926.518	2210.61
926.695	2253.62
926.871	2079.54
927.048	2057.01
927.224	2534.19
927.401	2130.74
927.577	2065.21
927.754	1952.57
927.93	2505.52
928.107	2429.74
928.283	1938.23
928.459	2192.18
928.636	2523.95
928.812	2194.23
928.988	1991.48
929.165	1882.94
929.341	2222.9
929.517	2358.07
929.693	2186.04
929.87	1803.07
930.046	2362.16
930.222	2081.59
930.398	1968.95
930.574	2179.89
930.751	2163.51
930.927	2083.64
931.103	1911.61
931.279	2063.16
931.455	1942.33
931.631	2231.09
931.807	1712.96
931.983	1715
932.159	1878.84
932.335	2147.12
932.511	1891.13
932.687	1940.28
932.863	2081.59
933.039	2071.35
933.215	1678.14
933.391	1690.43
933.566	1946.42
933.742	2165.56
933.918	1753.91
934.094	1655.61
934.27	1946.42
934.445	1981.24
934.621	1719.1
934.797	1688.38
934.973	2272.05
935.148	1993.53
935.324	1508.16
935.5	1329.99
935.675	2110.26
935.851	1813.31
936.027	1698.62
936.202	1633.08
936.378	1907.51
936.553	1760.06
936.729	1919.8
936.904	1383.23
937.08	1454.91
937.255	1559.36
937.431	1307.46
937.606	1350.46
937.782	1565.5
937.957	1737.53
938.133	1358.66
938.308	1221.44
938.483	1524.54
938.659	1260.35
938.834	1184.58
939.009	1041.22
939.185	1446.72
939.36	1295.17
939.535	850.76
939.71	1319.75
939.886	1657.66
940.061	1536.83
940.236	1315.65
940.411	1133.38
940.586	1610.56
940.761	1418.05
940.937	1108.8
941.112	998.21
941.287	1241.92
941.462	1362.75
941.637	926.54
941.812	1198.92
941.987	1311.55
942.162	1248.07
942.337	1256.26
942.512	1022.79
942.687	1461.06
942.862	1522.49
943.037	840.52
943.212	813.9
943.386	1082.18
943.561	1231.68
943.736	1162.05
943.911	1313.6
944.086	1383.23
944.26	1231.68
944.435	947.01
944.61	1035.08
944.785	1454.91
944.959	1653.56
945.134	1010.5
945.309	844.62
945.483	1053.51
945.658	1442.62
945.833	662.35
946.007	807.75
946.182	1489.73
946.357	973.64
946.531	885.58
946.706	875.34
946.88	908.1
947.055	1311.55
947.229	1076.04
947.404	768.84
947.578	1499.97
947.752	1203.01
947.927	955.21
948.101	838.47
948.276	1293.12
948.45	1186.63
948.624	1059.65
948.799	820.04
948.973	1401.66
949.147	940.87
949.321	955.21
949.496	897.86
949.67	1530.69
949.844	1098.56
950.018	1004.36
950.193	924.49
950.367	1674.04
950.541	1114.95
950.715	1188.68
950.889	1190.72
951.063	1250.11
951.237	1448.77
951.411	863.05
951.585	891.72
951.759	1418.05
951.933	1348.42
952.107	949.06
952.281	1198.92
952.455	1528.64
952.629	1405.76
952.803	965.45
952.977	1059.65
953.151	1526.59
953.325	1436.48
953.499	1221.44
953.672	932.68
953.846	1112.9
954.02	1323.84
954.194	1039.17
954.368	1008.45
954.541	1459.01
954.715	1133.38
954.889	1291.07
955.062	926.54
955.236	1268.55
955.41	1186.63
955.583	1219.39
955.757	877.38
955.93	1282.88
956.104	1088.32
956.278	1131.33
956.451	1104.71
956.625	1481.53
956.798	1758.01
956.972	1325.89
957.145	932.68
957.319	1514.3
957.492	1252.16
957.665	1305.41
957.839	1022.79
958.012	1477.44
958.185	1252.16
958.359	1057.61
958.532	1182.53
958.705	1540.93
958.879	1442.62
959.052	1282.88
959.225	936.78
959.398	1401.66
959.572	1366.85
959.745	1071.94
959.918	1162.05
960.091	1397.57
960.264	1456.96
960.438	969.54
960.611	1002.31
960.784	1655.61
960.957	1170.24
961.13	1522.49
961.303	990.02
961.476	1239.87
961.649	1383.23
961.822	1016.65
961.995	1135.43
962.168	1571.65
962.341	1471.29
962.514	1043.27
962.686	1129.28
962.859	1403.71
963.032	1557.31
963.205	1071.94
963.378	990.02
963.551	1473.34
963.723	1372.99
963.896	1276.74
964.069	1235.78
964.242	1399.62
964.414	1557.31
964.587	1063.75
964.76	1125.19
964.932	1385.28
965.105	1170.24
965.278	1100.61
965.45	1026.89
965.623	1307.46
965.795	1416
965.968	1045.32
966.14	1039.17
966.313	1243.97
966.485	1239.87
966.658	1030.98
966.83	1018.69
967.003	1540.93
967.175	1567.55
967.348	1028.93
967.52	1100.61
967.692	1751.87
967.865	1514.3
968.037	1184.58
968.209	1364.8
968.382	1211.2
968.554	1534.78
968.726	1030.98
968.898	1039.17
969.071	1450.82
969.243	1362.75
969.415	1104.71
969.587	1112.9
969.759	1692.48
969.932	1502.01
970.104	1002.31
970.276	781.13
970.448	1160
970.62	1117
970.792	1170.24
970.964	1055.56
971.136	1786.68
971.308	1397.57
971.48	961.35
971.652	1039.17
971.824	1540.93
971.996	1262.4
972.168	1090.37
972.339	1178.44
972.511	1579.84
972.683	1215.3
972.855	1219.39
973.027	1030.98
973.199	1239.87
973.37	1346.37
973.542	1127.24
973.714	1145.67
973.886	1264.45
974.057	1450.82
974.229	949.06
974.401	895.82
974.572	1117
974.744	899.91
974.915	951.11
975.087	887.62
975.259	1635.13
975.43	1047.37
975.602	940.87
975.773	924.49
975.945	1174.34
976.116	1389.38
976.288	873.29
976.459	1063.75
976.63	1151.81
976.802	1342.27
976.973	820.04
977.145	1172.29
977.316	1669.95
977.487	1575.74
977.659	1088.32
977.83	940.87
978.001	1663.8
978.172	1278.79
978.344	969.54
978.515	990.02
978.686	1112.9
978.857	1538.88
979.028	891.72
979.2	813.9
979.371	1411.9
979.542	1112.9
979.713	1123.14
979.884	527.18
980.055	951.11
980.226	1063.75
980.397	869.19
980.568	678.73
980.739	1289.03
980.91	1121.09
981.081	1100.61
981.252	848.71
981.423	1205.06
981.594	1479.49
981.765	629.58
981.936	875.34
982.106	1194.82
982.277	1413.95
982.448	867.14
982.619	1030.98
982.79	1057.61
982.96	1385.28
983.131	951.11
983.302	662.35
983.472	1071.94
983.643	1217.35
983.814	1010.5
983.984	797.51
984.155	961.35
984.326	1327.94
984.496	914.25
984.667	910.15
984.837	971.59
985.008	1391.42
985.178	1088.32
985.349	840.52
985.519	1143.62
985.69	830.28
985.86	908.1
986.031	777.03
986.201	1131.33
986.371	1147.72
986.542	693.07
986.712	629.58
986.882	1125.19
987.053	1106.76
987.223	668.49
987.393	1000.26
987.563	990.02
987.734	1233.73
987.904	1080.13
988.074	744.27
988.244	1014.6
988.414	916.3
988.585	625.48
988.755	830.28
988.925	961.35
989.095	1348.42
989.265	729.93
989.435	865.1
989.605	1088.32
989.775	1129.28
989.945	1080.13
990.115	662.35
990.285	965.45
990.455	1004.36
990.625	764.75
990.795	625.48
990.965	1207.11
991.134	709.45
991.304	666.44
991.474	707.4
991.644	1061.7
991.814	1256.26
991.984	586.57
992.153	621.39
992.323	865.1
992.493	846.66
992.662	473.93
992.832	805.71
993.002	1039.17
993.171	942.92
993.341	428.88
993.511	793.42
993.68	813.9
993.85	1114.95
994.019	527.18
994.189	445.26
994.358	901.96
994.528	760.65
994.697	330.58
994.867	562
995.036	1024.84
995.206	768.84
995.375	455.5
995.544	682.83
995.714	994.12
995.883	813.9
996.052	658.25
996.222	289.62
996.391	1315.65
996.56	912.2
996.73	471.89
996.899	449.36
997.068	1268.55
997.237	795.47
997.406	426.83
997.576	373.58
997.745	885.58
997.914	916.3
998.083	285.52
998.252	435.02
998.421	858.95
998.59	625.48
998.759	420.69
998.928	285.52
999.097	1043.27
999.266	932.68
999.435	627.53
999.604	326.48
999.773	1289.03
999.942	760.65
1000.111	312.14
1000.28	303.95
1000.448	605
1000.617	523.09
1000.786	658.25
1000.955	326.48
1001.124	838.47
1001.292	1360.7
1001.461	344.91
1001.63	324.43
1001.798	1045.32
1001.967	1076.04
1002.136	349.01
1002.304	297.81
1002.473	766.79
1002.642	731.98
1002.81	441.17
1002.979	414.54
1003.147	916.3
1003.316	1252.16
1003.484	441.17
1003.653	377.68
1003.821	990.02
1003.99	631.63
1004.158	518.99
1004.327	496.46
1004.495	811.85
1004.663	484.17
1004.832	435.02
1005	174.93
1005.168	797.51
1005.337	713.55
1005.505	230.23
1005.673	553.8
1005.842	768.84
1006.01	731.98
1006.178	228.18
1006.346	398.16
1006.514	754.51
1006.683	1020.74
1006.851	375.63
1007.019	500.56
1007.187	422.73
1007.355	201.55
1007.523	219.99
1007.691	154.45
1007.859	306
1008.027	897.86
1008.195	322.38
1008.363	205.65
1008.531	760.65
1008.699	461.65
1008.867	191.31
1009.035	211.79
1009.203	924.49
1009.37	631.63
1009.538	334.67
1009.706	703.31
1009.874	523.09
1010.042	629.58
1010.209	84.82
1010.377	164.69
1010.545	852.81
1010.713	609.1
1010.88	158.55
1011.048	293.71
1011.216	502.61
1011.383	891.72
1011.551	146.26
1011.718	107.35
1011.886	828.23
1012.054	531.28
1012.221	246.61
1012.389	170.83
1012.556	547.66
1012.724	1000.26
1012.891	314.19
1013.058	70.48
1013.226	697.16
1013.393	717.64
1013.561	50
1013.728	15.19
1013.895	674.64
1014.063	672.59
1014.23	97.11
1014.397	179.03
1014.565	674.64
1014.732	441.17
1014.899	179.03
1015.066	117.59
1015.233	457.55
1015.401	682.83
1015.568	168.79
1015.735	273.23
1015.902	488.27
1016.069	678.73
1016.236	88.92
1016.403	74.58
1016.57	269.14
1016.737	576.33
1016.904	291.66
1017.071	58.2
1017.238	301.9
1017.405	709.45
1017.572	103.25
1017.739	330.58
1017.906	555.85
1018.073	713.55
1018.24	82.77
1018.407	152.4
1018.573	809.8
1018.74	439.12
1018.907	160.59
1019.074	-103.59
1019.241	760.65
1019.407	463.69
1019.574	19.29
1019.741	25.43
1019.907	482.13
1020.074	500.56
1020.241	-144.55
1020.407	-33.96
1020.574	572.24
1020.74	590.67
1020.907	47.96
1021.073	31.57
1021.24	879.43
1021.406	770.89
1021.573	-85.16
1021.739	82.77
1021.906	756.55
1022.072	410.45
1022.239	80.72
1022.405	123.73
1022.571	500.56
1022.738	201.55
1022.904	43.86
1023.07	88.92
1023.237	482.13
1023.403	637.77
1023.569	88.92
1023.735	60.24
1023.902	457.55
1024.068	445.26
1024.234	82.77
1024.4	80.72
1024.566	525.13
1024.732	580.43
1024.898	80.72
1025.065	-74.92
1025.231	623.44
1025.397	367.44
1025.563	-17.58
1025.729	15.19
1025.895	-115.88
1026.061	310.1
1026.227	-107.69
1026.392	39.76
1026.558	609.1
1026.724	557.9
1026.89	-62.63
1027.056	35.67
1027.222	443.21
1027.388	314.19
1027.553	66.39
1027.719	-58.54
1027.885	746.31
1028.051	621.39
1028.216	-167.08
1028.382	80.72
1028.548	572.24
1028.713	318.29
1028.879	-74.92
1029.045	185.17
1029.21	764.75
1029.376	648.01
1029.541	76.63
1029.707	47.96
1029.873	467.79
1030.038	492.37
1030.204	23.38
1030.369	-33.96
1030.534	572.24
1030.7	346.96
1030.865	-23.72
1031.031	-66.73
1031.196	453.45
1031.361	418.64
1031.527	-54.44
1031.692	-58.54
1031.857	-64.68
1032.023	545.61
1032.188	-87.21
1032.353	60.24
1032.518	725.83
1032.684	389.97
1032.849	-197.8
1033.014	-58.54
1033.179	613.2
1033.344	490.32
1033.509	-5.29
1033.674	-25.77
1033.839	504.65
1034.004	469.84
1034.17	-25.77
1034.335	-148.65
1034.5	254.8
1034.664	226.13
1034.829	-150.7
1034.994	-5.29
1035.159	469.84
1035.324	398.16
1035.489	-33.96
1035.654	-79.02
1035.819	648.01
1035.984	453.45
1036.148	15.19
1036.313	15.19
1036.478	584.52
1036.643	273.23
1036.807	-48.3
1036.972	-93.35
1037.137	549.71
1037.301	379.73
1037.466	-173.22
1037.631	17.24
1037.795	693.07
1037.96	301.9
1038.124	179.03
1038.289	-199.85
1038.454	406.35
1038.618	551.76
1038.783	29.52
1038.947	27.48
1039.111	334.67
1039.276	248.66
1039.44	-138.41
1039.605	480.08
1039.769	187.22
1039.933	353.1
1040.098	33.62
1040.262	107.35
1040.426	512.85
1040.591	439.12
1040.755	-193.7
1040.919	-56.49
1041.083	469.84
1041.248	322.38
1041.412	-197.8
1041.576	-109.74
1041.74	242.51
1041.904	516.94
1042.068	-160.94
1042.232	2.9
1042.397	572.24
1042.561	387.92
1042.725	-271.53
1042.889	76.63
1043.053	498.51
1043.217	490.32
1043.381	11.09
1043.544	-189.61
1043.708	449.36
1043.872	64.34
1044.036	-292.01
1044.2	-171.18
1044.364	533.33
1044.528	703.31
1044.691	2886.44
1044.855	-162.98
1045.019	531.28
1045.183	473.93
1045.346	-81.07
1045.51	-154.79
1045.674	359.25
1045.837	437.07
1046.001	-38.06
1046.165	-115.88
1046.328	766.79
1046.492	381.78
1046.655	29.52
1046.819	2.9
1046.983	228.18
1047.146	406.35
1047.31	-19.63
1047.473	-181.42
1047.636	375.63
1047.8	179.03
1047.963	-50.35
1048.127	-132.26
1048.29	224.08
