Data from Hydrogel_Ink_Intensity_Test_1_USB4F045381__3__00003.txt Node

Date: Mon Jul 31 10:35:32 EDT 2023
User: mmckonesweet
Spectrometer: USB4F04538
Trigger mode: 4
Integration Time (sec): 9.000000E-1
Scans to average: 1
Electric dark correction enabled: true
Nonlinearity correction enabled: false
Boxcar width: 0
XAxis mode: Wavelengths
Number of Pixels in Spectrum: 3648
>>>>>Begin Spectral Data<<<<<
345.52	-979.61
345.736	-979.61
345.952	-979.61
346.168	-895.65
346.384	-893.6
346.6	-33.45
346.816	-225.96
347.032	-201.38
347.248	185.68
347.464	-185
347.68	-53.93
347.896	101.72
348.112	312.66
348.328	-74.41
348.544	-148.14
348.76	40.28
348.975	281.94
349.191	-156.33
349.407	-68.27
349.623	23.89
349.839	-39.59
350.055	-41.64
350.27	120.15
350.486	177.49
350.702	458.06
350.918	277.84
351.133	-117.42
351.349	193.87
351.565	456.01
351.781	-127.66
351.996	64.85
352.212	456.01
352.428	-113.32
352.644	-144.04
352.859	-90.79
353.075	253.27
353.291	42.32
353.506	17.75
353.722	-148.14
353.938	79.19
354.153	552.27
354.369	275.79
354.584	-88.75
354.8	277.84
355.016	-166.57
355.231	-72.36
355.447	64.85
355.662	128.34
355.878	855.37
356.093	-293.54
356.309	87.38
356.524	-176.81
356.74	216.4
356.955	-113.32
357.171	-8.87
357.386	226.64
357.602	-219.82
357.817	-4.78
358.033	-29.35
358.248	439.63
358.464	222.55
358.679	-2.73
358.895	-166.57
359.11	64.85
359.325	390.48
359.541	355.66
359.756	171.35
359.972	-228.01
360.187	134.48
360.402	-62.12
360.618	-49.83
360.833	994.63
361.048	224.59
361.264	9.56
361.479	30.04
361.694	132.44
361.909	267.6
362.125	-37.55
362.34	25.94
362.555	345.42
362.77	144.72
362.986	-119.46
363.201	-19.11
363.416	249.17
363.631	161.11
363.847	-29.35
364.062	-82.6
364.277	216.4
364.492	277.84
364.707	17.75
364.922	-213.67
365.138	378.19
365.353	357.71
365.568	-35.5
365.783	1.37
365.998	222.55
366.213	642.38
366.428	-55.98
366.643	126.29
366.858	378.19
367.073	316.75
367.288	3.41
367.503	-90.79
367.718	148.82
367.933	431.44
368.148	-158.38
368.363	38.23
368.578	101.72
368.793	488.78
369.008	81.24
369.223	-105.13
369.438	324.94
369.653	623.95
369.868	-123.56
370.083	-47.79
370.298	177.49
370.513	433.49
370.728	220.5
370.943	-33.45
371.157	-53.93
371.372	626
371.587	-98.99
371.802	-70.31
372.017	177.49
372.232	505.17
372.446	134.48
372.661	-101.03
372.876	343.38
373.091	298.32
373.306	54.61
373.52	-139.94
373.735	-4.78
373.95	476.49
374.165	105.81
374.379	36.18
374.594	95.57
374.809	286.03
375.023	279.89
375.238	-23.21
375.453	365.9
375.667	-111.27
375.882	34.13
376.097	73.04
376.311	240.98
376.526	124.24
376.741	-62.12
376.955	359.76
377.17	783.69
377.384	757.07
377.599	38.23
377.813	-4.78
378.028	671.05
378.242	329.04
378.457	111.96
378.672	-98.99
378.886	218.45
379.101	71
379.315	-107.18
379.53	21.84
379.744	343.38
379.958	324.94
380.173	157.01
380.387	27.99
380.602	355.66
380.816	91.48
381.031	40.28
381.245	175.44
381.459	337.23
381.674	2471.22
381.888	-35.5
382.103	357.71
382.317	-84.65
382.531	703.82
382.746	109.91
382.96	91.48
383.174	142.68
383.388	632.14
383.603	277.84
383.817	-92.84
384.031	357.71
384.246	640.33
384.46	279.89
384.674	505.17
384.888	329.04
385.103	384.34
385.317	105.81
385.531	290.13
385.745	537.93
385.959	595.28
386.174	122.2
386.388	62.8
386.602	335.18
386.816	130.39
387.03	224.59
387.244	220.5
387.458	335.18
387.672	568.65
387.887	103.76
388.101	-8.87
388.315	699.72
388.529	435.53
388.743	306.51
388.957	161.11
389.171	589.13
389.385	118.1
389.599	279.89
389.813	484.69
390.027	410.96
390.241	884.04
390.455	179.54
390.669	363.86
390.883	267.6
391.097	662.86
391.311	429.39
391.525	107.86
391.738	494.93
391.952	462.16
392.166	415.05
392.38	154.96
392.594	595.28
392.808	673.1
393.022	341.33
393.236	335.18
393.449	460.11
393.663	519.5
393.877	101.72
394.091	343.38
394.305	224.59
394.518	351.57
394.732	212.31
394.946	302.42
395.16	783.69
395.373	499.02
395.587	224.59
395.801	273.75
396.015	703.82
396.228	531.79
396.442	310.61
396.656	105.81
396.869	712.01
397.083	953.67
397.297	439.63
397.51	292.18
397.724	832.84
397.938	548.17
398.151	177.49
398.365	150.87
398.578	679.24
398.792	847.18
399.005	415.05
399.219	380.24
399.433	642.38
399.646	757.07
399.86	433.49
400.073	468.3
400.287	664.91
400.5	458.06
400.714	529.74
400.927	539.98
401.141	636.24
401.354	1514.81
401.567	804.17
401.781	273.75
401.994	853.32
402.208	1070.4
402.421	476.49
402.635	410.96
402.848	611.66
403.061	931.14
403.275	533.84
403.488	329.04
403.701	961.86
403.915	857.42
404.128	535.89
404.341	443.73
404.555	707.91
404.768	603.47
404.981	630.09
405.195	464.21
405.408	1084.74
405.621	707.91
405.834	601.42
406.048	462.16
406.261	970.05
406.474	1080.64
406.687	423.25
406.9	681.29
407.114	697.67
407.327	773.45
407.54	441.68
407.753	382.29
407.966	507.21
408.179	941.38
408.392	486.73
408.605	353.62
408.819	830.79
409.032	888.14
409.245	494.93
409.458	759.11
409.671	947.53
409.884	986.44
410.097	458.06
410.31	771.4
410.523	881.99
410.736	746.83
410.949	638.28
411.162	691.53
411.375	1213.76
411.588	996.68
411.801	884.04
412.014	648.52
412.227	824.65
412.44	718.15
412.653	623.95
412.865	888.14
413.078	1033.54
413.291	1025.35
413.504	752.97
413.717	542.03
413.93	910.66
414.143	658.76
414.356	695.63
414.568	566.6
414.781	1090.88
414.994	916.81
415.207	730.44
415.42	714.06
415.632	1049.93
415.845	1449.28
416.058	666.96
416.271	638.28
416.483	894.28
416.696	1412.42
416.909	859.46
417.121	681.29
417.334	1049.93
417.547	1496.38
417.759	742.73
417.972	660.81
418.185	812.36
418.397	1119.56
418.61	824.65
418.823	795.98
419.035	1422.66
419.248	925
419.46	937.29
419.673	838.98
419.885	1109.32
420.098	929.1
420.311	859.46
420.523	691.53
420.736	1183.04
420.948	990.53
421.161	879.94
421.373	718.15
421.586	1152.32
421.798	947.53
422.01	726.35
422.223	1017.16
422.435	982.34
422.648	1213.76
422.86	869.7
423.073	959.81
423.285	1475.9
423.497	841.03
423.71	933.19
423.922	970.05
424.134	1262.91
424.347	1449.28
424.559	1137.99
424.771	1338.69
424.984	1023.3
425.196	1277.25
425.408	922.95
425.621	857.42
425.833	1410.37
426.045	1465.66
426.257	902.47
426.47	1017.16
426.682	1316.16
426.894	1428.8
427.106	1056.07
427.318	1144.13
427.531	1094.98
427.743	1467.71
427.955	1092.93
428.167	1559.87
428.379	1506.62
428.591	1451.33
428.804	1264.96
429.016	1086.79
429.228	1203.52
429.44	1389.89
429.652	1379.65
429.864	1072.45
430.076	1281.35
430.288	1414.46
430.5	1369.41
430.712	1332.54
430.924	1738.04
431.136	1475.9
431.348	1056.07
431.56	1275.2
431.772	1387.84
431.984	1353.02
432.196	1295.68
432.408	1271.11
432.62	1412.42
432.832	1723.71
433.044	1516.86
433.256	1559.87
433.468	1656.12
433.679	1187.14
433.891	1305.92
434.103	1744.19
434.315	1899.83
434.527	1752.38
434.739	1584.45
434.95	1609.02
435.162	1787.19
435.374	1498.43
435.586	1527.1
435.798	1461.57
436.009	1318.21
436.221	1613.12
436.433	1506.62
436.645	1549.63
436.856	1596.73
437.068	1895.74
437.28	1510.72
437.491	1744.19
437.703	1975.61
437.915	1895.74
438.126	1541.44
438.338	1774.91
438.55	1668.41
438.761	1912.12
438.973	1621.31
439.184	1668.41
439.396	1867.06
439.608	2016.57
439.819	1555.77
440.031	1746.23
440.242	2084.15
440.454	2047.29
440.665	1760.57
440.877	1854.78
441.088	2092.34
441.3	1787.19
441.511	1588.54
441.723	1738.04
441.934	1981.75
442.146	1959.22
442.357	1934.65
442.569	1975.61
442.78	2094.39
442.991	2327.86
443.203	2090.29
443.414	1766.71
443.626	2290.99
443.837	2000.18
444.048	1744.19
444.26	1779
444.471	2157.88
444.682	2262.32
444.894	1776.95
445.105	1885.5
445.316	2393.39
445.528	2305.33
445.739	2133.3
445.95	2061.62
446.161	2164.02
446.373	2528.56
446.584	1967.42
446.795	2053.43
447.006	2305.33
447.217	2575.66
447.429	1895.74
447.64	1948.98
447.851	2473.26
448.062	2270.51
448.273	1795.39
448.484	2092.34
448.695	2407.73
448.907	2200.88
449.118	2213.17
449.329	2266.42
449.54	2090.29
449.751	2143.54
449.962	2080.05
450.173	2182.45
450.384	2585.9
450.595	2721.07
450.806	2241.84
451.017	2153.78
451.228	2694.44
451.439	2733.36
451.65	2252.08
451.861	1922.36
452.072	2170.16
452.283	2358.58
452.494	2538.8
452.705	2256.18
452.915	2841.9
453.126	2759.98
453.337	2356.53
453.548	2307.38
453.759	2817.32
453.97	3081.51
454.181	2628.91
454.391	2489.65
454.602	2823.47
454.813	2702.64
455.024	2575.66
455.235	2549.04
455.445	2671.92
455.656	2901.29
455.867	2633.01
456.078	2649.39
456.288	2571.57
456.499	3054.89
456.71	2532.65
456.921	2864.43
457.131	2796.84
457.342	2985.26
457.553	2635.05
457.763	2700.59
457.974	3050.79
458.184	3110.18
458.395	2780.46
458.606	2745.64
458.816	3226.92
459.027	3417.38
459.237	3138.85
459.448	2682.16
459.659	3331.36
459.869	3659.04
460.08	2809.13
460.29	3321.12
460.501	3728.67
460.711	3198.24
460.922	3063.08
461.132	3140.9
461.343	4076.82
461.553	3005.74
461.764	3208.48
461.974	3190.05
462.184	3560.73
462.395	3665.18
462.605	3468.58
462.816	3218.72
463.026	3478.82
463.236	3808.54
463.447	3274.02
463.657	3439.9
463.867	3955.99
464.078	3667.23
464.288	3718.43
464.498	3628.32
464.709	3652.89
464.919	3687.71
465.129	3759.39
465.339	3677.47
465.55	3929.37
465.76	4062.49
465.97	3790.11
466.18	3771.68
466.391	4316.44
466.601	4099.35
466.811	4052.25
467.021	3753.24
467.231	4347.15
467.441	4470.03
467.651	4091.16
467.862	4044.06
468.072	4406.55
468.282	4742.41
468.492	4017.43
468.702	4207.89
468.912	4807.95
469.122	5143.81
469.332	4705.55
469.542	4474.13
469.752	4908.3
469.962	4883.72
470.172	4373.78
470.382	4693.26
470.592	5047.56
470.802	5254.41
471.012	4926.73
471.222	4877.58
471.432	5385.48
471.642	5238.02
471.852	5229.83
472.062	5025.03
472.272	5426.43
472.482	5242.12
472.691	5135.62
472.901	5246.21
473.111	5428.48
473.321	6163.7
473.531	5360.9
473.741	5698.81
473.95	6008.06
474.16	5913.85
474.37	5866.75
474.58	5707.01
474.79	6507.76
474.999	6253.81
475.209	5676.29
475.419	6063.35
475.628	6163.7
475.838	6706.41
476.048	6161.66
476.258	6104.31
476.467	6929.64
476.677	6460.66
476.886	6753.52
477.096	6847.72
477.306	6700.27
477.515	7038.19
477.725	6872.3
477.935	6941.93
478.144	7320.81
478.354	6943.98
478.563	7122.15
478.773	7087.34
478.982	7496.93
479.192	7959.77
479.401	7363.81
479.611	7283.94
479.82	7306.47
480.03	7847.13
480.239	7507.17
480.449	7355.62
480.658	8285.4
480.868	7769.31
481.077	8105.18
481.287	7884
481.496	8252.63
481.705	8424.66
481.915	8408.28
482.124	8258.78
482.333	8436.95
482.543	8770.77
482.752	8490.2
482.961	8457.43
483.171	8799.44
483.38	8905.93
483.589	8903.89
483.799	8858.83
484.008	8989.9
484.217	9245.9
484.426	9026.76
484.636	9131.21
484.845	9446.6
485.054	9004.24
485.263	9491.65
485.472	9368.77
485.682	10091.71
485.891	9856.19
486.1	9100.49
486.309	9585.86
486.518	10140.86
486.727	10261.69
486.936	9600.19
487.146	10009.79
487.355	10448.05
487.564	10005.69
487.773	10167.48
487.982	10030.27
488.191	10126.52
488.4	10529.97
488.609	10190.01
488.818	10415.29
489.027	11099.31
489.236	11005.1
489.445	10699.95
489.654	10585.27
489.863	11134.12
490.072	10966.19
490.281	10927.28
490.49	10683.57
490.698	11447.46
490.907	11433.13
491.116	11177.13
491.325	10874.03
491.534	11500.71
491.743	11650.21
491.952	11390.12
492.16	11424.93
492.369	11734.18
492.578	11750.56
492.787	11594.92
492.996	11443.37
493.204	11990.17
493.413	12450.97
493.622	11408.55
493.831	11607.2
494.039	12278.94
494.248	11748.51
494.457	11879.58
494.665	12012.7
494.874	12477.59
495.083	13030.54
495.291	12258.46
495.5	12256.41
495.709	12686.48
495.917	12725.4
496.126	12565.65
496.335	12596.37
496.543	12758.16
496.752	12799.12
496.96	12948.62
497.169	12653.72
497.377	13069.45
497.586	13477
497.794	13032.59
498.003	12661.91
498.211	13442.18
498.42	13974.66
498.628	13313.16
498.837	13038.73
499.045	13612.17
499.254	13579.4
499.462	13524.1
499.671	13558.92
499.879	14107.77
500.087	14095.49
500.296	13440.14
500.504	13606.02
500.713	14148.73
500.921	14490.74
501.129	13737.09
501.338	13573.25
501.546	14503.03
501.754	14345.34
501.962	14124.16
502.171	14042.24
502.379	14632.05
502.587	14650.49
502.795	14527.61
503.004	14146.69
503.212	14472.31
503.42	14623.86
503.628	14611.57
503.837	14478.46
504.045	14877.81
504.253	15172.72
504.461	14595.19
504.669	14736.5
504.877	15201.39
505.085	15297.64
505.294	14773.36
505.502	14929.01
505.71	15260.78
505.918	15332.46
506.126	14826.61
506.334	14797.94
506.542	15324.27
506.75	14969.97
506.958	15322.22
507.166	15389.8
507.374	15322.22
507.582	15801.44
507.79	15350.89
507.998	15322.22
508.206	15823.97
508.414	15774.82
508.622	15516.78
508.83	15744.1
509.037	16178.27
509.245	15770.72
509.453	15449.19
509.661	15742.05
509.869	16135.26
510.077	16036.96
510.285	16145.5
510.492	15596.65
510.7	16966.74
510.908	16178.27
511.116	15866.98
511.324	16223.33
511.531	16299.1
511.739	16501.85
511.947	16227.42
512.155	16464.99
512.362	16432.22
512.57	16315.48
512.778	16436.31
512.985	16118.88
513.193	16798.81
513.401	17212.49
513.608	16614.49
513.816	16286.81
514.024	16874.58
514.231	17026.13
514.439	16587.86
514.646	16761.94
514.854	17300.56
515.061	17087.57
515.269	16880.72
515.477	17101.9
515.684	16905.3
515.892	17513.55
516.099	16927.83
516.307	17167.44
516.514	17710.15
516.722	17577.03
516.929	17232.97
517.136	16804.95
517.344	17820.74
517.551	17443.92
517.759	17464.39
517.966	17601.61
518.173	17507.4
518.381	17814.6
518.588	17439.82
518.796	17740.87
519.003	18148.42
519.21	18099.27
519.418	17679.43
519.625	17974.34
519.832	17962.05
520.039	18224.19
520.247	17931.33
520.454	17978.44
520.661	18580.54
520.868	18230.34
521.076	18074.69
521.283	18181.18
521.49	18963.51
521.697	18428.99
521.904	18267.2
522.112	18238.53
522.319	18949.17
522.526	18510.91
522.733	18201.66
522.94	18488.38
523.147	18703.42
523.354	18949.17
523.561	18662.46
523.768	18711.61
523.975	19133.49
524.183	19041.33
524.39	18758.71
524.597	18773.05
524.804	19317.81
525.011	18891.83
525.218	18957.36
525.425	19184.69
525.632	19754.02
525.838	19145.78
526.045	19379.25
526.252	19346.48
526.459	20593.69
526.666	20390.94
526.873	19287.09
527.08	19702.82
527.287	20128.8
527.494	19688.49
527.701	19692.58
527.907	19612.71
528.114	19940.39
528.321	20034.6
528.528	19784.74
528.735	19870.76
528.941	19799.08
529.148	19680.3
529.355	19881
529.562	19940.39
529.768	20503.58
529.975	20136.99
530.182	19846.18
530.388	19981.35
530.595	20184.1
530.802	20167.71
531.008	20538.4
531.215	20196.39
531.422	21474.32
531.628	21191.7
531.835	20605.98
532.042	20739.1
532.248	20671.51
532.455	21230.61
532.661	20577.31
532.868	20773.91
533.074	20915.22
533.281	21226.51
533.487	21074.96
533.694	20679.71
533.9	21023.76
534.107	21490.7
534.313	20925.46
534.52	20829.21
534.726	21916.68
534.933	21742.6
535.139	21138.45
535.345	21136.4
535.552	21314.58
535.758	21947.4
535.965	21519.37
536.171	21486.61
536.377	21740.55
536.584	22133.76
536.79	21578.76
536.996	21539.85
537.203	22043.65
537.409	22150.15
537.615	21842.95
537.821	22051.84
538.028	22584.32
538.234	22252.55
538.44	22092.8
538.646	22117.38
538.853	22363.14
539.059	22346.75
539.265	22567.93
539.471	21922.82
539.677	22594.56
539.883	22486.01
540.09	22164.48
540.296	22914.04
540.502	22664.19
540.708	22699
540.914	22785.02
541.12	22674.43
541.326	22950.9
541.532	22955
541.738	22842.36
541.944	22944.76
542.15	23337.97
542.356	23024.63
542.562	23092.21
542.768	23034.87
542.974	24099.81
543.18	24198.12
543.386	23344.11
543.592	23280.63
543.798	23884.78
544.004	23757.8
544.21	23923.69
544.415	23256.05
544.621	23501.81
544.827	23948.26
545.033	23677.93
545.239	23624.68
545.445	23884.78
545.651	23925.74
545.856	23843.82
546.062	23792.62
546.268	23950.31
546.474	24009.7
546.679	23622.64
546.885	23919.59
547.091	23817.19
547.297	24277.99
547.502	24177.64
547.708	23677.93
547.914	24083.43
548.119	24599.52
548.325	23876.58
548.531	23610.35
548.736	24540.13
548.942	23954.41
549.147	24116.2
549.353	24425.44
549.559	24855.51
549.764	24632.29
549.97	24052.71
550.175	24386.53
550.381	24665.05
550.586	24478.69
550.792	24714.2
550.997	24742.88
551.203	24765.4
551.408	24755.16
551.614	24574.94
551.819	24976.34
552.025	25510.86
552.23	25490.38
552.435	25015.26
552.641	25609.17
552.846	25340.88
553.052	25902.03
553.257	25492.43
553.462	25261.01
553.668	25418.71
553.873	26037.19
554.078	25099.22
554.283	25254.87
554.489	25844.68
554.694	25629.65
554.899	25336.79
555.105	25717.71
555.31	25945.03
555.515	26117.06
555.72	25783.24
555.925	25709.52
556.131	26418.11
556.336	25818.06
556.541	25959.37
556.746	25859.02
556.951	26285
557.156	26622.91
557.361	26112.97
557.567	26332.1
557.772	26647.49
557.977	26217.41
558.182	26016.71
558.387	25883.59
558.592	26158.02
558.797	26475.46
559.002	26213.32
559.207	26385.35
559.412	26352.58
559.617	26956.73
559.822	26422.21
560.027	26450.88
560.232	26524.61
560.437	26778.56
560.642	26266.56
560.847	26833.85
561.051	26856.38
561.256	26848.19
561.461	26338.24
561.666	26692.54
561.871	26700.73
562.076	26737.6
562.281	26905.53
562.485	26358.72
562.69	27098.04
562.895	27618.22
563.1	26624.96
563.305	26840
563.509	27329.46
563.714	27812.78
563.919	26659.77
564.123	26858.43
564.328	27071.42
564.533	27898.8
564.737	27134.9
564.942	26923.96
565.147	27960.23
565.351	27966.38
565.556	26870.72
565.761	27089.85
565.965	27415.47
566.17	27306.93
566.374	26991.55
566.579	27507.63
566.784	27716.53
566.988	27421.62
567.193	27349.94
567.397	27413.43
567.602	27880.36
567.806	27663.28
568.011	27818.92
568.215	28132.26
568.42	27767.73
568.624	27923.37
568.828	27536.31
569.033	27599.79
569.237	28263.33
569.442	28578.72
569.646	27790.25
569.85	27974.57
570.055	28111.78
570.259	27958.19
570.463	28212.13
570.668	28199.85
570.872	28060.59
571.076	28300.2
571.281	28189.61
571.485	28402.6
571.689	28543.91
571.893	28935.07
572.098	28253.09
572.302	28257.19
572.506	28674.98
572.71	28552.1
572.914	28427.17
573.119	28494.75
573.323	28924.83
573.527	28638.11
573.731	28943.26
573.935	28220.33
574.139	29045.66
574.343	28437.41
574.547	28578.72
574.751	28875.68
574.955	29565.84
575.159	29275.03
575.364	28732.32
575.568	28853.15
575.772	28832.67
575.976	29238.17
576.18	28736.41
576.383	28695.46
576.587	29428.63
576.791	29760.4
576.995	28939.16
577.199	29174.68
577.403	29412.24
577.607	29965.2
577.811	29232.02
578.015	29348.76
578.219	29637.52
578.422	29707.15
578.626	29129.62
578.83	29418.39
579.034	29766.54
579.238	29940.62
579.442	29711.25
579.645	30321.54
579.849	29893.52
580.053	30360.45
580.257	29741.97
580.46	30057.35
580.664	30581.63
580.868	29997.96
581.071	30051.21
581.275	29811.6
581.479	29598.61
581.682	30235.53
581.886	29961.1
582.09	29911.95
582.293	30595.97
582.497	30530.44
582.7	30319.49
582.904	30120.84
583.107	30344.07
583.311	30274.44
583.515	30385.03
583.718	30432.13
583.922	30522.24
584.125	30972.8
584.329	30147.47
584.532	30565.25
584.735	31079.29
584.939	30563.2
585.142	30176.14
585.346	30438.28
585.549	30776.19
585.753	31009.66
585.956	31177.59
586.159	31071.1
586.363	31515.51
586.566	31366.01
586.769	30579.59
586.973	30823.3
587.176	31191.93
587.379	31126.39
587.582	31198.07
587.786	31382.39
587.989	31425.4
588.192	32088.94
588.395	31306.62
588.599	31732.59
588.802	31677.3
589.005	31316.86
589.208	31208.31
589.411	31425.4
589.615	31544.18
589.818	32068.46
590.021	31853.42
590.224	31636.34
590.427	31937.39
590.63	32160.62
590.833	31597.43
591.036	31751.02
591.239	32146.28
591.442	31849.33
591.645	32074.6
591.848	31787.89
592.051	31865.71
592.254	32525.16
592.457	32334.7
592.66	31810.42
592.863	32095.08
593.066	32541.54
593.269	31976.3
593.472	32420.71
593.675	32320.36
593.878	32293.74
594.081	32058.22
594.284	32174.95
594.486	32727.91
594.689	32512.87
594.892	32322.41
595.095	32680.8
595.298	32727.91
595.5	32662.37
595.703	32899.94
595.906	33112.92
596.109	33276.76
596.311	33147.74
596.514	32361.32
596.717	32856.93
596.92	33411.93
597.122	33375.06
597.325	32105.32
597.528	32938.85
597.73	33551.19
597.933	33129.31
598.136	33211.23
598.338	32781.15
598.541	33461.08
598.743	33676.12
598.946	32818.02
599.148	33770.32
599.351	33426.26
599.554	34169.68
599.756	33645.4
599.959	33694.55
600.161	33436.5
600.363	34380.62
600.566	33774.42
600.768	33534.81
600.971	34220.88
601.173	33571.67
601.376	33418.07
601.578	33682.26
601.78	33954.64
601.983	34659.14
602.185	34093.9
602.388	33854.29
602.59	34077.52
602.792	33893.2
602.995	33878.86
603.197	33229.66
603.399	34110.28
603.601	34401.1
603.804	33637.2
604.006	34005.84
604.208	33921.87
604.41	33473.37
604.613	34198.35
604.815	33801.04
605.017	34779.97
605.219	33600.34
605.421	34214.73
605.623	34274.12
605.826	34788.16
606.028	34702.15
606.23	34001.74
606.432	34280.27
606.634	34952
606.836	34904.9
607.038	33987.41
607.24	34290.51
607.442	34519.88
607.644	34329.42
607.846	34720.58
608.048	33958.74
608.25	34687.81
608.452	34300.75
608.654	34374.47
608.856	33792.85
609.058	34390.86
609.26	34433.86
609.462	34519.88
609.664	34474.82
609.866	34401.1
610.067	34898.75
610.269	34644.8
610.471	34143.05
610.673	34612.04
610.875	34892.61
611.077	34138.96
611.278	34435.91
611.48	34571.08
611.682	34913.09
611.884	34870.08
612.085	34290.51
612.287	34925.38
612.489	35060.54
612.69	34335.56
612.892	34433.86
613.094	35103.55
613.295	34634.56
613.497	34237.26
613.699	34526.02
613.9	35314.49
614.102	35521.34
614.304	34816.83
614.505	34366.28
614.707	35111.74
614.908	34980.67
615.11	34597.7
615.311	34753.35
615.513	34726.72
615.714	35191.61
615.916	34399.05
616.117	34800.45
616.319	34798.4
616.52	35203.9
616.722	34636.61
616.923	34659.14
617.124	35353.4
617.326	34992.96
617.527	35072.83
617.729	35013.44
617.93	35134.27
618.131	35005.25
618.333	34667.33
618.534	34622.28
618.735	35078.97
618.937	35414.84
619.138	34646.85
619.339	34505.54
619.54	35287.87
619.742	34999.1
619.943	34941.76
620.144	34882.37
620.345	35074.88
620.546	35103.55
620.748	35242.81
620.949	35056.45
621.15	35390.27
621.351	35175.23
621.552	35380.03
621.753	34569.03
621.954	34845.51
622.155	35500.86
622.356	35076.93
622.558	35562.29
622.759	35175.23
622.96	35703.6
623.161	34765.63
623.362	34419.53
623.563	35382.07
623.764	35136.32
623.965	35107.65
624.166	35347.26
624.366	35406.65
624.567	35482.42
624.768	34829.12
624.969	35230.52
625.17	35093.31
625.371	35287.87
625.572	34954.05
625.773	34839.36
625.973	35924.79
626.174	35824.43
626.375	35601.21
626.576	35490.62
626.777	35828.53
626.977	35724.08
627.178	35377.98
627.379	35439.42
627.58	35382.07
627.78	35169.08
627.981	35232.57
628.182	35234.62
628.382	35900.21
628.583	35451.7
628.784	35447.61
628.984	35267.39
629.185	36074.29
629.386	35670.84
629.586	35636.02
629.787	35451.7
629.987	35955.5
630.188	35586.87
630.388	35701.56
630.589	34988.86
630.79	36393.77
630.99	35945.26
631.191	35928.88
631.391	36117.29
631.591	35906.35
631.792	36571.94
631.992	35984.18
632.193	36145.97
632.393	36338.47
632.594	35588.92
632.794	35613.49
632.994	36193.07
633.195	35996.46
633.395	36045.62
633.595	35554.1
633.796	35830.58
633.996	36313.9
634.196	36451.11
634.397	36107.05
634.597	36137.77
634.797	36338.47
634.997	36592.42
635.198	36299.56
635.398	35597.11
635.598	36356.91
635.798	36735.78
635.998	36158.25
636.199	36311.85
636.399	36307.76
636.599	35937.07
636.799	35822.39
636.999	36053.81
637.199	36397.87
637.399	36395.82
637.599	36483.88
637.799	36105.01
637.999	36188.97
638.199	36711.21
638.399	35904.31
638.599	36039.47
638.799	36459.3
638.999	37061.41
639.199	36021.04
639.399	36180.78
639.599	36993.82
639.799	35935.02
639.999	36358.95
640.199	35830.58
640.399	36338.47
640.599	36100.91
640.799	36983.58
640.998	36473.64
641.198	36881.19
641.398	36422.44
641.598	36567.85
641.798	36571.94
641.997	37301.02
642.197	36721.44
642.397	36387.63
642.597	36496.17
642.796	36752.16
642.996	36803.36
643.196	36508.46
643.395	36174.64
643.595	36899.62
643.795	36502.31
643.994	36508.46
644.194	36698.92
644.394	36924.19
644.593	37026.59
644.793	36979.49
644.992	36768.55
645.192	36608.81
645.392	36258.6
645.591	37153.57
645.791	37049.12
645.99	37215.01
646.19	36700.97
646.389	36870.95
646.589	36981.54
646.788	37217.05
646.987	37155.61
647.187	37333.79
647.386	37479.19
647.586	37481.24
647.785	37055.26
647.984	36971.3
648.184	37022.5
648.383	36870.95
648.582	36733.73
648.782	37765.91
648.981	36993.82
649.18	36965.15
649.38	37780.24
649.579	37360.41
649.778	37415.71
649.977	37497.63
650.177	37593.88
650.376	37190.43
650.575	36942.63
650.774	37796.63
650.973	36789.03
651.173	37153.57
651.372	37262.11
651.571	37231.39
651.77	37606.17
651.969	37305.12
652.168	37194.53
652.367	37497.63
652.566	37522.2
652.765	37364.51
652.964	37753.62
653.163	38265.61
653.362	37624.6
653.561	37333.79
653.76	37675.8
653.959	37450.52
654.158	37995.28
654.357	37563.16
654.556	36991.78
654.755	37978.9
654.954	37821.2
655.153	37337.88
655.352	37208.86
655.551	37892.88
655.749	37298.97
655.948	37165.85
656.147	37788.44
656.346	37886.74
656.545	37882.64
656.743	37352.22
656.942	37411.61
657.141	37925.65
657.34	37667.61
657.538	37894.93
657.737	37473.05
657.936	38001.43
658.135	37935.89
658.333	37325.6
658.532	37810.96
658.731	38171.41
658.929	37878.55
659.128	37980.95
659.326	37622.55
659.525	38576.9
659.724	37929.75
659.922	37454.62
660.121	37808.92
660.319	37493.53
660.518	37542.68
660.716	37692.18
660.915	38138.64
661.113	38492.94
661.312	37608.22
661.51	37681.94
661.709	37790.48
661.907	38333.2
662.105	38634.25
662.304	37747.48
662.502	38091.54
662.701	38079.25
662.899	37655.32
663.097	37765.91
663.296	37280.54
663.494	38427.4
663.692	38339.34
663.891	37720.85
664.089	37393.18
664.287	37772.05
664.485	38497.03
664.684	38064.91
664.882	37573.4
665.08	37890.84
665.278	38161.17
665.476	37462.81
665.675	38173.45
665.873	38544.14
666.071	38337.29
666.269	37956.37
666.467	38017.81
666.665	38056.72
666.863	37473.05
667.061	37788.44
667.259	37710.61
667.457	37880.6
667.655	38097.68
667.853	37759.77
668.051	37866.26
668.249	37649.17
668.447	38134.54
668.645	37280.54
668.843	38251.28
669.041	38363.92
669.239	37825.3
669.437	37720.85
669.635	37894.93
669.833	37718.81
670.031	38064.91
670.229	37522.2
670.426	37935.89
670.624	37688.09
670.822	37982.99
671.02	37970.71
671.218	37853.97
671.415	37614.36
671.613	37497.63
671.811	37856.02
672.009	37913.36
672.206	38329.1
672.404	38349.58
672.602	37960.47
672.799	37890.84
672.997	38114.06
673.195	38021.91
673.392	37921.55
673.59	37610.26
673.788	37919.51
673.985	37190.43
674.183	37485.34
674.38	37649.17
674.578	37722.9
674.775	37088.03
674.973	37528.34
675.17	37640.98
675.368	37909.27
675.565	37798.68
675.763	37761.81
675.96	37567.26
676.158	37714.71
676.355	36952.87
676.553	37423.9
676.75	36766.5
676.947	37577.5
677.145	37337.88
677.342	37364.51
677.539	37423.9
677.737	37288.73
677.934	37436.19
678.131	37233.44
678.329	37192.48
678.526	37563.16
678.723	37554.97
678.92	37071.65
679.118	37040.93
679.315	37065.5
679.512	37714.71
679.709	37301.02
679.906	36875.04
680.104	38060.82
680.301	37327.64
680.498	36684.58
680.695	37010.21
680.892	37217.05
681.089	37081.89
681.286	37757.72
681.483	36862.75
681.68	37280.54
681.877	37575.45
682.075	36631.33
682.272	37137.18
682.469	37131.04
682.665	37036.83
682.862	36588.33
683.059	36510.5
683.256	37131.04
683.453	37094.18
683.65	36762.4
683.847	37075.74
684.044	36674.34
684.241	36825.89
684.438	36766.5
684.635	36391.72
684.831	37133.09
685.028	37296.92
685.225	36485.93
685.422	36330.28
685.619	36365.1
685.815	36959.01
686.012	36584.23
686.209	36348.71
686.405	36662.05
686.602	36887.33
686.799	36049.71
686.996	36743.97
687.192	35969.84
687.389	36666.15
687.586	36141.87
687.782	36248.36
687.979	36688.68
688.175	36238.12
688.372	36455.21
688.568	36092.72
688.765	36473.64
688.962	36680.49
689.158	36731.68
689.355	35998.51
689.551	36674.34
689.748	36416.3
689.944	36215.6
690.14	36195.12
690.337	36664.1
690.533	36002.61
690.73	35859.25
690.926	36246.32
691.123	36209.45
691.319	36381.48
691.515	35480.38
691.712	35957.55
691.908	36070.19
692.104	36068.14
692.301	36250.41
692.497	35562.29
692.693	36145.97
692.889	36500.26
693.086	35785.52
693.282	35572.53
693.478	36043.57
693.674	36105.01
693.87	35500.86
694.067	35658.55
694.263	35861.3
694.459	35885.87
694.655	35949.36
694.851	36203.31
695.047	35810.1
695.243	36057.9
695.439	35842.87
695.635	35472.18
695.831	35806
696.027	35541.81
696.224	35289.91
696.42	36027.18
696.615	36211.5
696.811	36010.8
697.007	35500.86
697.203	35119.93
697.399	35633.97
697.595	35519.29
697.791	35177.28
697.987	35423.03
698.183	35367.74
698.379	34906.94
698.575	35359.55
698.77	34982.72
698.966	35457.85
699.162	35820.34
699.358	35365.69
699.554	34859.84
699.749	35470.14
699.945	35492.66
700.141	35136.32
700.337	35433.27
700.532	34653
700.728	35283.77
700.924	34970.43
701.119	35093.31
701.315	35152.7
701.511	34480.97
701.706	35328.83
701.902	34681.67
702.097	34868.03
702.293	35185.47
702.489	34933.57
702.684	35035.97
702.88	34825.03
703.075	34612.04
703.271	34906.94
703.466	34698.05
703.662	35046.21
703.857	35263.29
704.053	35359.55
704.248	34933.57
704.443	35308.35
704.639	34937.66
704.834	34734.92
705.03	34972.48
705.225	35103.55
705.42	35003.2
705.616	34911.04
705.811	34267.98
706.006	35005.25
706.202	34702.15
706.397	34710.34
706.592	34538.31
706.787	34532.17
706.983	34534.21
707.178	34921.28
707.373	34655.04
707.568	34865.99
707.763	34765.63
707.959	34501.45
708.154	34609.99
708.349	34509.64
708.544	34868.03
708.739	34739.01
708.934	34151.24
709.129	34698.05
709.324	34753.35
709.519	34364.23
709.714	34220.88
709.909	35068.73
710.104	34562.89
710.299	34423.62
710.494	34245.45
710.689	34646.85
710.884	34442.06
711.079	34888.51
711.274	34229.07
711.469	35019.58
711.664	34489.16
711.859	34427.72
712.054	34310.99
712.249	34403.14
712.443	34358.09
712.638	34589.51
712.833	33958.74
713.028	34464.58
713.223	34155.34
713.417	34360.14
713.612	34255.69
713.807	34730.82
714.002	34626.37
714.196	34270.03
714.391	34011.98
714.586	34411.34
714.78	33934.16
714.975	33837.9
715.17	33448.79
715.364	34110.28
715.559	34374.47
715.754	33315.67
715.948	33340.25
716.143	33921.87
716.337	33725.27
716.532	34069.33
716.726	33594.2
716.921	33915.73
717.115	34612.04
717.31	33592.15
717.504	33946.45
717.699	33620.82
717.893	33948.5
718.088	33270.62
718.282	33309.53
718.476	33604.44
718.671	33737.55
718.865	33327.96
719.059	33864.53
719.254	33575.76
719.448	33821.52
719.642	34368.33
719.837	32768.87
720.031	33663.83
720.225	33553.24
720.419	33205.08
720.614	32875.36
720.808	33626.96
721.002	33248.09
721.196	32594.79
721.39	32686.95
721.585	32988
721.779	33143.64
721.973	32848.74
722.167	32627.56
722.361	32861.02
722.555	33672.02
722.749	32494.44
722.943	32914.27
723.137	32754.53
723.331	32861.02
723.525	32707.43
723.719	32867.17
723.913	33264.47
724.107	33272.67
724.301	32500.58
724.495	33045.34
724.689	33299.29
724.883	33080.16
725.077	32639.84
725.271	32586.6
725.465	32537.44
725.659	32734.05
725.853	32807.78
726.046	32476.01
726.24	32222.06
726.434	32709.47
726.628	32461.67
726.822	32351.08
727.015	33258.33
727.209	32799.58
727.403	32746.34
727.596	32574.31
727.79	33051.48
727.984	32910.18
728.177	32469.86
728.371	32924.51
728.565	32904.03
728.758	32369.51
728.952	32181.1
729.146	32389.99
729.339	33014.62
729.533	32996.19
729.726	32590.69
729.92	32846.69
730.113	33258.33
730.307	33160.03
730.5	32639.84
730.694	32389.99
730.887	32170.86
731.081	32703.33
731.274	32439.14
731.468	32369.51
731.661	32643.94
731.854	32394.09
732.048	32562.02
732.241	32346.98
732.435	32525.16
732.628	32955.23
732.821	32572.26
733.014	32146.28
733.208	32050.03
733.401	32897.89
733.594	32142.19
733.788	32670.56
733.981	32586.6
734.174	32861.02
734.367	32195.43
734.56	32467.81
734.754	32930.65
734.947	33016.67
735.14	32070.51
735.333	32670.56
735.526	32971.61
735.719	32514.92
735.912	32713.57
736.105	32613.22
736.298	32602.98
736.491	32453.48
736.684	31894.38
736.877	32291.69
737.07	32375.66
737.263	32795.49
737.456	32310.12
737.649	32406.37
737.842	32490.34
738.035	32635.75
738.228	32320.36
738.421	32342.89
738.614	32990.05
738.807	32844.64
739	32095.08
739.192	31906.67
739.385	32510.82
739.578	32330.6
739.771	32467.81
739.964	31882.09
740.156	32424.81
740.349	32433
740.542	32093.04
740.735	32080.75
740.927	31974.25
741.12	32295.78
741.313	32111.47
741.505	32340.84
741.698	32430.95
741.891	32385.9
742.083	32367.46
742.276	32248.68
742.468	32553.83
742.661	31847.28
742.854	31914.86
743.046	32015.21
743.239	32815.97
743.431	32220.01
743.624	32166.76
743.816	31974.25
744.009	32363.37
744.201	31718.26
744.393	31759.22
744.586	31191.93
744.778	32015.21
744.971	31814.51
745.163	31456.12
745.355	31546.23
745.548	31994.73
745.74	31648.63
745.932	31726.45
746.125	31828.85
746.317	32207.72
746.509	31810.42
746.702	31509.36
746.894	31445.88
747.086	31720.31
747.278	31638.39
747.471	31488.88
747.663	31419.25
747.855	31568.76
748.047	31746.93
748.239	31325.05
748.431	31607.67
748.623	31888.24
748.815	31966.06
749.008	31241.08
749.2	31382.39
749.392	31679.35
749.584	31492.98
749.776	31304.57
749.968	31331.19
750.16	31794.03
750.352	31366.01
750.544	31396.73
750.736	31067
750.928	31370.1
751.12	30755.71
751.311	31363.96
751.503	31456.12
751.695	31359.86
751.887	31312.76
752.079	30989.18
752.271	30745.47
752.463	32250.73
752.654	31183.74
752.846	30792.58
753.038	30929.79
753.23	31259.51
753.421	31198.07
753.613	30600.07
753.805	31067
753.997	31079.29
754.188	31073.15
754.38	30425.99
754.572	30376.84
754.763	30464.9
754.955	30563.2
755.146	30559.11
755.338	30331.78
755.53	30600.07
755.721	30731.14
755.913	30325.64
756.104	30231.43
756.296	30561.15
756.487	30792.58
756.679	30270.34
756.87	30026.64
757.062	29840.27
757.253	30675.84
757.445	30221.19
757.636	30495.62
757.827	30088.07
758.019	30854.01
758.21	29696.91
758.401	29870.99
758.593	30792.58
758.784	30505.86
758.975	29713.3
759.167	29662.1
759.358	30430.08
759.549	30485.38
759.74	29852.56
759.932	29813.65
760.123	29692.82
760.314	29901.71
760.505	29582.23
760.696	29522.83
760.888	30176.14
761.079	29637.52
761.27	29199.26
761.461	29201.3
761.652	29862.8
761.843	29205.4
762.034	29453.2
762.225	29268.89
762.416	29426.58
762.607	29281.17
762.798	29088.67
762.989	29340.57
763.18	30151.56
763.371	29432.72
763.562	28883.87
763.753	28902.3
763.944	29834.13
764.135	29250.45
764.326	29412.24
764.517	29080.47
764.708	29186.97
764.899	28951.45
765.089	28738.46
765.28	28609.44
765.471	28847.01
765.662	29092.76
765.853	28754.85
766.043	28531.62
766.234	29211.54
766.425	28873.63
766.615	28748.7
766.806	28515.23
766.997	29088.67
767.187	28789.66
767.378	28877.72
767.569	28257.19
767.759	28855.2
767.95	28814.24
768.141	28539.81
768.331	28607.39
768.522	28732.32
768.712	28324.77
768.903	28414.88
769.093	28205.99
769.284	28994.46
769.474	28449.7
769.665	27816.88
769.855	28054.44
770.046	28572.58
770.236	28400.55
770.426	28087.21
770.617	28277.67
770.807	28001.19
770.998	27929.52
771.188	27650.99
771.378	27886.51
771.569	27863.98
771.759	27999.15
771.949	27884.46
772.139	28087.21
772.33	27614.13
772.52	28310.44
772.71	27536.31
772.9	27380.66
773.09	27681.71
773.281	28134.31
773.471	27401.14
773.661	27302.84
773.851	27536.31
774.041	27171.77
774.231	26934.2
774.421	27499.44
774.611	27562.93
774.802	27202.49
774.992	26872.76
775.182	27282.36
775.372	27186.1
775.562	27569.07
775.752	26954.68
775.942	26678.21
776.131	27014.07
776.321	26747.84
776.511	27012.03
776.701	26751.93
776.891	27145.14
777.081	26762.17
777.271	26532.8
777.461	26323.91
777.651	26753.98
777.84	26850.24
778.03	26559.42
778.22	26377.15
778.41	26831.8
778.599	26497.99
778.789	26598.34
778.979	26502.08
779.169	26649.53
779.358	26614.72
779.548	26637.25
779.738	26033.1
779.927	26782.65
780.117	26672.06
780.307	26115.01
780.496	25883.59
780.686	26514.37
780.875	26825.66
781.065	26049.48
781.254	25932.75
781.444	26387.39
781.633	25949.13
781.823	25850.83
782.012	25795.53
782.202	25549.78
782.391	25961.42
782.581	25590.73
782.77	25811.92
782.96	26205.13
783.149	25353.17
783.338	25377.75
783.528	25095.13
783.717	25940.94
783.906	26098.63
784.096	25459.66
784.285	25457.62
784.474	25545.68
784.663	25318.35
784.853	25086.93
785.042	25494.48
785.231	25242.58
785.42	25541.58
785.61	25271.25
785.799	25125.85
785.988	25517.01
786.177	24951.77
786.366	25277.4
786.555	25570.26
786.744	25220.05
786.933	24994.78
787.122	24789.98
787.312	25013.21
787.501	25265.11
787.69	25082.84
787.879	24964.06
788.068	24642.53
788.257	24579.04
788.445	24947.67
788.634	24894.43
788.823	24665.05
789.012	25660.37
789.201	25330.64
789.39	24490.98
789.579	24509.41
789.768	24703.96
789.957	24974.3
790.145	24824.79
790.334	24441.82
790.523	24529.89
790.712	24730.59
790.9	24431.58
791.089	24099.81
791.278	24898.52
791.467	24742.88
791.655	24423.39
791.844	24675.29
792.033	24396.77
792.221	24288.23
792.41	24224.74
792.599	23915.5
792.787	24351.71
792.976	24308.71
793.164	23788.52
793.353	24151.01
793.541	24546.27
793.73	24394.72
793.918	24142.82
794.107	23692.27
794.295	24411.1
794.484	24665.05
794.672	23804.91
794.861	23684.08
795.049	24245.22
795.238	24306.66
795.426	23700.46
795.614	23561.2
795.803	23843.82
795.991	24435.68
796.179	23380.98
796.368	23256.05
796.556	24146.92
796.744	23530.48
796.932	23249.91
797.121	23522.29
797.309	23872.49
797.497	24075.24
797.685	23526.38
797.874	23426.03
798.062	23413.74
798.25	23268.34
798.438	23311.35
798.626	23696.36
798.814	23591.92
799.002	24275.94
799.19	23581.68
799.378	23497.71
799.566	23872.49
799.755	24026.09
799.943	23366.64
800.131	23417.84
800.318	23559.15
800.506	23780.33
800.694	23407.6
800.882	23718.89
801.07	24099.81
801.258	23626.73
801.446	23622.64
801.634	23569.39
801.822	23428.08
802.01	23649.26
802.197	23569.39
802.385	23669.74
802.573	23598.06
802.761	23722.99
802.949	23856.11
803.136	23340.02
803.324	24183.78
803.512	24054.76
803.699	23815.15
803.887	23438.32
804.075	24409.06
804.262	23907.3
804.45	23747.56
804.638	23880.68
804.825	24216.55
805.013	23972.84
805.201	23710.7
805.388	23380.98
805.576	23870.44
805.763	24529.89
805.951	23528.43
806.138	23843.82
806.326	24232.93
806.513	24175.59
806.701	23849.96
806.888	23753.71
807.075	24062.95
807.263	24509.41
807.45	23978.98
807.638	24110.05
807.825	24607.71
808.012	24525.79
808.2	23958.5
808.387	24423.39
808.574	24429.54
808.761	24675.29
808.949	24052.71
809.136	24110.05
809.323	24208.36
809.51	24032.23
809.698	24290.27
809.885	23708.65
810.072	24204.26
810.259	24468.45
810.446	23837.67
810.633	24243.17
810.82	24550.37
811.008	24650.72
811.195	24073.19
811.382	24277.99
811.569	24329.19
811.756	23643.12
811.943	23944.17
812.13	24091.62
812.317	23905.26
812.504	24034.28
812.691	24091.62
812.878	23989.22
813.064	24382.43
813.251	24300.51
813.438	24241.12
813.625	23792.62
813.812	24388.58
813.999	24273.89
814.186	24392.67
814.372	24212.45
814.559	24654.81
814.746	24484.83
814.933	24224.74
815.12	24265.7
815.306	24144.87
815.493	24208.36
815.68	23757.8
815.866	24185.83
816.053	24394.72
816.24	24746.97
816.426	24081.38
816.613	23925.74
816.799	24495.07
816.986	24234.98
817.173	23743.47
817.359	23618.54
817.546	24208.36
817.732	23935.98
817.919	23942.12
818.105	24146.92
818.292	24112.1
818.478	24308.71
818.665	23964.65
818.851	24423.39
819.037	24570.85
819.224	24204.26
819.41	23704.56
819.597	23516.14
819.783	24482.78
819.969	24081.38
820.156	23636.97
820.342	23860.2
820.528	24654.81
820.714	23612.4
820.901	23929.83
821.087	23591.92
821.273	24312.8
821.459	23825.39
821.646	23819.24
821.832	23694.32
822.018	24181.73
822.204	23526.38
822.39	23872.49
822.576	23397.36
822.762	23483.38
822.948	23782.38
823.134	23350.26
823.32	23139.32
823.507	23192.56
823.693	23722.99
823.879	23450.61
824.065	23329.78
824.25	23761.9
824.436	23329.78
824.622	23266.29
824.808	23182.32
824.994	23141.36
825.18	23172.08
825.366	22889.46
825.552	23346.16
825.738	23190.52
825.923	23407.6
826.109	23434.22
826.295	22694.91
826.481	23028.73
826.667	23221.24
826.852	23032.82
827.038	22764.54
827.224	23301.11
827.409	23878.63
827.595	22584.32
827.781	22811.64
827.966	23319.54
828.152	23153.65
828.338	22803.45
828.523	22348.8
828.709	22721.53
828.894	23235.57
829.08	22774.78
829.266	22858.74
829.451	22721.53
829.637	23094.26
829.822	22924.28
830.008	23018.49
830.193	23094.26
830.378	23167.99
830.564	22680.57
830.749	22623.23
830.935	22895.61
831.12	22694.91
831.305	22232.07
831.491	22258.69
831.676	22225.92
831.861	22488.06
832.047	22119.43
832.232	21965.83
832.417	22539.26
832.602	22467.58
832.788	22273.03
832.973	22107.14
833.158	22256.64
833.343	22160.39
833.528	22113.28
833.714	22305.79
833.899	22268.93
834.084	22432.77
834.269	22019.08
834.454	21713.93
834.639	22115.33
834.824	22088.71
835.009	22215.68
835.194	21965.83
835.379	22279.17
835.564	22283.27
835.749	22105.09
835.934	22021.13
836.119	22277.12
836.304	22201.35
836.489	21523.47
836.674	21797.9
836.859	21857.29
837.044	22010.89
837.228	21644.3
837.413	21986.31
837.598	22113.28
837.783	21955.59
837.968	21617.68
838.152	21683.21
838.337	21365.78
838.522	22033.41
838.707	21914.63
838.891	21443.6
839.076	21619.72
839.261	21519.37
839.445	21619.72
839.63	21517.33
839.815	21801.99
839.999	21580.81
840.184	21566.48
840.368	21120.02
840.553	21586.96
840.737	21550.09
840.922	21302.29
841.106	21238.8
841.291	21058.58
841.475	21105.68
841.66	21251.09
841.844	20927.51
842.029	21775.37
842.213	20907.03
842.397	21220.37
842.582	20591.64
842.766	21466.13
842.951	21343.25
843.135	20999.19
843.319	20585.5
843.504	20927.51
843.688	21490.7
843.872	20616.22
844.056	20773.91
844.241	21249.04
844.425	20999.19
844.609	20880.41
844.793	20419.61
844.977	21077.01
845.161	20788.25
845.346	20823.06
845.53	20442.14
845.714	20775.96
845.898	20849.69
846.082	20358.17
846.266	20552.73
846.45	20653.08
846.634	20427.81
846.818	20278.3
847.002	20554.78
847.186	20476.96
847.37	20188.19
847.554	20143.14
847.738	20309.02
847.922	20509.72
848.106	20382.75
848.29	20048.93
848.473	20306.98
848.657	20358.17
848.841	20243.49
849.025	19815.46
849.209	19704.87
849.392	20235.3
849.576	20194.34
849.76	19432.49
849.944	20110.37
850.127	20522.01
850.311	19881
850.495	19506.22
850.678	19620.91
850.862	20044.84
851.046	20186.15
851.229	19807.27
851.413	19594.28
851.596	20108.32
851.78	20141.09
851.964	19954.72
852.147	19491.88
852.331	20157.47
852.514	20036.64
852.698	19604.52
852.881	19276.85
853.065	20237.34
853.248	19631.15
853.431	19579.95
853.615	19684.39
853.798	20347.93
853.982	19516.46
854.165	19403.82
854.348	19385.39
854.532	19657.77
854.715	19434.54
854.898	19293.23
855.081	19164.21
855.265	19663.91
855.448	19498.03
855.631	18904.12
855.814	19045.43
855.997	19338.29
856.181	19004.47
856.364	19123.25
856.547	18869.3
856.73	19127.35
856.913	18922.55
857.096	18805.81
857.279	19113.01
857.462	18816.05
857.645	19143.73
857.828	19231.79
858.011	18881.59
858.194	18897.97
858.377	19215.41
858.56	18463.8
858.743	18687.03
858.926	18488.38
859.109	18844.73
859.292	18721.85
859.475	18629.69
859.658	19295.28
859.841	18943.03
860.023	18302.01
860.206	18572.35
860.389	18826.29
860.572	18576.44
860.755	18175.04
860.937	18422.84
861.12	18369.6
861.303	18566.2
861.486	18369.6
861.668	18390.08
861.851	18680.89
862.034	18658.36
862.216	18588.73
862.399	17943.62
862.581	18340.93
862.764	18834.49
862.947	18039.87
863.129	17935.43
863.312	17570.89
863.494	18383.93
863.677	18015.3
863.859	17572.94
864.042	18062.4
864.224	18371.65
864.406	18064.45
864.589	17439.82
864.771	17900.61
864.954	17507.4
865.136	17534.03
865.318	17433.68
865.501	17667.14
865.683	17511.5
865.865	17564.75
866.048	17544.27
866.23	17738.82
866.412	17679.43
866.594	17288.27
866.777	17591.37
866.959	17628.23
867.141	17499.21
867.323	17491.02
867.505	17759.3
867.687	17597.51
867.869	17548.36
868.052	17677.38
868.234	17230.93
868.416	17314.89
868.598	17663.05
868.78	17259.6
868.962	17333.32
869.144	17878.08
869.326	17536.07
869.508	17124.43
869.69	17341.52
869.872	17478.73
870.054	17501.26
870.236	16780.37
870.417	17235.02
870.599	17054.8
870.781	17386.57
870.963	17013.84
871.145	16917.59
871.327	17243.21
871.508	17521.74
871.69	16872.53
871.872	17013.84
872.054	17337.42
872.235	17493.07
872.417	16753.75
872.599	16960.59
872.78	17794.12
872.962	17431.63
873.144	17169.49
873.325	17081.42
873.507	17425.48
873.689	17314.89
873.87	16895.06
874.052	17456.2
874.233	17192.01
874.415	17421.39
874.596	17390.67
874.778	16895.06
874.959	17570.89
875.141	17734.73
875.322	17095.76
875.503	16880.72
875.685	17306.7
875.866	16749.65
876.048	17085.52
876.229	16677.97
876.41	17038.42
876.592	17308.75
876.773	17042.51
876.954	16911.44
877.136	17667.14
877.317	17355.85
877.498	16913.49
877.679	17179.73
877.86	17400.91
878.042	17405
878.223	17165.39
878.404	17628.23
878.585	17497.16
878.766	17796.17
878.947	17347.66
879.128	17632.33
879.309	17798.21
879.49	17970.24
879.672	17558.6
879.853	17431.63
880.034	17302.61
880.215	17636.42
880.396	17409.1
880.576	17488.97
880.757	17355.85
880.938	17861.7
881.119	17458.25
881.3	17413.2
881.481	17767.49
881.662	18592.83
881.843	17583.18
882.023	17603.66
882.204	17728.58
882.385	17800.26
882.566	17585.22
882.747	17740.87
882.927	17941.57
883.108	18048.07
883.289	17728.58
883.469	18109.51
883.65	17646.66
883.831	17835.08
884.011	17824.84
884.192	17939.52
884.373	18238.53
884.553	18248.77
884.734	17962.05
884.914	17976.39
885.095	19053.62
885.275	18779.19
885.456	18586.68
885.636	17900.61
885.817	18293.82
885.997	18109.51
886.178	17792.07
886.358	18089.03
886.538	18058.31
886.719	19166.26
886.899	18039.87
887.08	18199.62
887.26	18582.59
887.44	18105.41
887.621	18369.6
887.801	18289.73
887.981	19192.88
888.161	18789.43
888.342	18261.05
888.522	18488.38
888.702	19043.38
888.882	18723.9
889.062	18422.84
889.242	18197.57
889.423	18744.38
889.603	18764.85
889.783	18762.81
889.963	18322.49
890.143	18781.24
890.323	18881.59
890.503	18361.41
890.683	18424.89
890.863	18670.65
891.043	18304.06
891.223	18175.04
891.403	18551.87
891.583	18748.47
891.763	18451.52
891.943	18422.84
892.122	18463.8
892.302	19133.49
892.482	19065.91
892.662	18820.15
892.842	19059.76
893.022	18840.63
893.201	18717.75
893.381	18961.46
893.561	18578.49
893.741	19006.52
893.92	18512.95
894.1	18474.04
894.28	18871.35
894.459	18568.25
894.639	18738.23
894.819	18398.27
894.998	18672.7
895.178	18932.79
895.357	18983.99
895.537	18701.37
895.716	18568.25
895.896	18768.95
896.075	19336.24
896.255	18637.88
896.434	18177.09
896.614	19006.52
896.793	19006.52
896.973	18527.29
897.152	18551.87
897.331	18854.97
897.511	19045.43
897.69	18414.65
897.87	18689.08
898.049	18904.12
898.228	18445.37
898.407	18420.8
898.587	18607.16
898.766	18508.86
898.945	18525.24
899.124	18293.82
899.304	18328.64
899.483	18416.7
899.662	18510.91
899.841	18095.17
900.02	18234.43
900.199	18492.48
900.378	18512.95
900.557	18146.37
900.737	17984.58
900.916	18562.11
901.095	18801.72
901.274	18371.65
901.453	18234.43
901.632	18072.64
901.811	18154.56
901.989	18234.43
902.168	18070.59
902.347	18947.12
902.526	18285.63
902.705	18185.28
902.884	18013.25
903.063	18551.87
903.242	18461.76
903.42	17957.96
903.599	18060.35
903.778	18564.15
903.957	18324.54
904.135	17835.08
904.314	17894.47
904.493	18277.44
904.672	17984.58
904.85	17673.29
905.029	17802.31
905.207	18084.93
905.386	18986.04
905.565	17687.62
905.743	17521.74
905.922	17751.11
906.1	18078.79
906.279	17624.14
906.457	17192.01
906.636	17785.93
906.814	17525.83
906.993	16989.27
907.171	17491.02
907.35	17476.68
907.528	17990.72
907.707	17636.42
907.885	17239.12
908.063	18031.68
908.242	17329.23
908.42	17015.89
908.598	16790.61
908.777	17312.85
908.955	17171.54
909.133	17124.43
909.311	16784.47
909.49	16802.9
909.668	16800.85
909.846	17069.14
910.024	16557.14
910.202	16997.46
910.38	17196.11
910.559	16587.86
910.737	16665.69
910.915	16864.34
911.093	16821.33
911.271	17009.75
911.449	16856.15
911.627	16866.39
911.805	17378.38
911.983	16706.65
912.161	16823.38
912.339	16952.4
912.517	17079.38
912.695	16874.58
912.872	16901.2
913.05	16665.69
913.228	16933.97
913.406	16520.28
913.584	16528.47
913.762	16811.09
913.939	16143.45
914.117	16116.83
914.295	16008.29
914.473	16331.87
914.65	16192.61
914.828	15924.32
915.006	15981.67
915.184	15973.47
915.361	16067.68
915.539	16077.92
915.716	16198.75
915.894	16178.27
916.072	16413.79
916.249	16155.74
916.427	15998.05
916.604	15742.05
916.782	15942.75
916.959	15701.09
917.137	15387.75
917.314	16039.01
917.492	16028.77
917.669	15459.43
917.847	15584.36
918.024	15727.72
918.201	15414.38
918.379	15414.38
918.556	15262.83
918.733	15676.52
918.911	15545.45
919.088	15428.71
919.265	15133.81
919.442	15594.6
919.62	15033.46
919.797	15109.23
919.974	15139.95
920.151	15408.23
920.328	15361.13
920.506	15008.88
920.683	15424.62
920.86	14926.96
921.037	14908.53
921.214	14881.91
921.391	14959.73
921.568	15127.66
921.745	14543.99
921.922	14869.62
922.099	14707.83
922.276	14955.63
922.453	14648.44
922.63	14462.07
922.807	14437.5
922.984	14488.7
923.161	14541.94
923.338	14623.86
923.514	14421.11
923.691	14662.77
923.868	14781.56
924.045	14414.97
924.222	14208.12
924.399	14601.33
924.575	14716.02
924.752	14124.16
924.929	14077.05
925.105	14380.15
925.282	13966.46
925.459	13806.72
925.635	13945.98
925.812	13878.4
925.989	13653.12
926.165	13735.04
926.342	13298.83
926.518	13431.94
926.695	13644.93
926.871	13341.83
927.048	13264.01
927.224	13853.83
927.401	13341.83
927.577	13466.76
927.754	13229.2
927.93	13683.84
928.107	13603.97
928.283	12717.2
928.459	13524.1
928.636	13560.97
928.812	13272.2
928.988	13216.91
929.165	12811.41
929.341	13241.48
929.517	13237.39
929.693	13255.82
929.87	12844.18
930.046	13354.12
930.222	12917.9
930.398	12674.2
930.574	12598.42
930.751	12735.63
930.927	12655.76
931.103	12782.74
931.279	12489.88
931.455	12399.77
931.631	12475.54
931.807	12240.03
931.983	12242.07
932.159	12125.34
932.335	12405.91
932.511	12190.88
932.687	12106.91
932.863	12229.79
933.039	12102.81
933.215	11754.66
933.391	11429.03
933.566	11613.35
933.742	11953.31
933.918	11302.06
934.094	11248.81
934.27	11240.62
934.445	11365.54
934.621	11021.49
934.797	10779.82
934.973	11175.08
935.148	11105.45
935.324	10529.97
935.5	10534.07
935.675	10925.23
935.851	10712.24
936.027	10265.78
936.202	10208.44
936.378	10192.06
936.553	10122.43
936.729	10233.02
936.904	9542.85
937.08	9307.34
937.255	9534.66
937.431	9309.38
937.606	9061.58
937.782	9104.59
937.957	9329.86
938.133	8991.95
938.308	8631.51
938.483	8760.53
938.659	8377.56
938.834	8615.12
939.009	8207.58
939.185	8135.9
939.36	8101.08
939.535	7505.12
939.71	8035.55
939.886	8113.37
940.061	7963.87
940.236	7646.43
940.411	7771.36
940.586	7826.65
940.761	7707.87
940.937	7429.35
941.112	7234.79
941.287	7468.26
941.462	7527.65
941.637	7007.47
941.812	6982.89
941.987	7288.04
942.162	7077.1
942.337	6915.31
942.512	7091.43
942.687	7034.09
942.862	7091.43
943.037	6565.11
943.212	6368.5
943.386	6728.94
943.561	7101.67
943.736	6808.81
943.911	6941.93
944.086	6903.02
944.26	7050.47
944.435	6642.93
944.61	6849.77
944.785	7109.86
944.959	7253.22
945.134	6862.06
945.309	6448.37
945.483	6653.17
945.658	7044.33
945.833	6462.71
946.007	6403.32
946.182	7355.62
946.357	6638.83
946.531	6563.06
946.706	6739.18
946.88	6579.44
947.055	6925.55
947.229	6778.09
947.404	6771.95
947.578	7148.78
947.752	6710.51
947.927	6397.17
948.101	6622.45
948.276	6823.15
948.45	6896.88
948.624	6986.99
948.799	6495.47
948.973	7027.95
949.147	6638.83
949.321	7060.71
949.496	6831.34
949.67	7408.87
949.844	7128.3
950.018	6941.93
950.193	6882.54
950.367	7638.24
950.541	7173.35
950.715	7116.01
950.889	7400.68
951.063	7251.17
951.237	7296.23
951.411	6989.03
951.585	6886.64
951.759	7625.95
951.933	7265.51
952.107	7034.09
952.281	7427.3
952.455	7781.6
952.629	7546.08
952.803	7044.33
952.977	7154.92
953.151	7791.84
953.325	7582.95
953.499	7521.51
953.672	7240.93
953.846	7222.5
954.02	7466.21
954.194	7335.14
954.368	7304.42
954.541	7599.33
954.715	7329
954.889	7613.67
955.062	7199.98
955.236	7730.4
955.41	7746.78
955.583	7494.88
955.757	7349.48
955.93	7439.59
956.104	7159.02
956.278	7390.44
956.451	7486.69
956.625	7781.6
956.798	8088.79
956.972	7664.86
957.145	7322.85
957.319	7871.71
957.492	7746.78
957.665	7816.41
957.839	7681.25
958.012	7996.64
958.185	7779.55
958.359	7705.82
958.532	7898.33
958.705	7974.11
958.879	7941.34
959.052	7388.39
959.225	7228.65
959.398	7894.24
959.572	7912.67
959.745	7431.4
959.918	7724.26
960.091	7757.02
960.264	8056.03
960.438	7484.64
960.611	7707.87
960.784	8088.79
960.957	7836.89
961.13	8002.78
961.303	7673.06
961.476	7638.24
961.649	8053.98
961.822	7619.81
961.995	7644.38
962.168	7963.87
962.341	7828.7
962.514	7924.96
962.686	7529.7
962.859	7933.15
963.032	7965.92
963.205	7574.75
963.378	7441.64
963.551	7990.49
963.723	7675.1
963.896	7562.47
964.069	7535.84
964.242	7572.71
964.414	7687.39
964.587	7693.54
964.76	7550.18
964.932	7775.45
965.105	7462.12
965.278	7423.2
965.45	7468.26
965.623	7726.3
965.795	7568.61
965.968	7517.41
966.14	7308.52
966.313	7367.91
966.485	7668.96
966.658	7277.8
966.83	7347.43
967.003	7970.01
967.175	7726.3
967.348	7374.05
967.52	7402.72
967.692	7881.95
967.865	7679.2
968.037	7382.24
968.209	7560.42
968.382	7449.83
968.554	7654.62
968.726	7341.29
968.898	7333.09
969.071	7529.7
969.243	7648.48
969.415	7392.48
969.587	7285.99
969.759	8051.93
969.932	7664.86
970.104	7308.52
970.276	6876.4
970.448	7245.03
970.62	7234.79
970.792	7191.78
970.964	7228.65
971.136	7718.11
971.308	7384.29
971.48	7009.51
971.652	6991.08
971.824	7724.26
971.996	7111.91
972.168	7171.3
972.339	6927.6
972.511	7410.92
972.683	7130.34
972.855	7116.01
973.027	6915.31
973.199	7007.47
973.37	7138.54
973.542	7079.15
973.714	6966.51
973.886	7032.04
974.057	7285.99
974.229	6638.83
974.401	6911.21
974.572	6739.18
974.744	6649.07
974.915	6771.95
975.087	6700.27
975.259	7216.36
975.43	6802.67
975.602	6837.48
975.773	6667.5
975.945	6927.6
976.116	7097.58
976.288	6468.85
976.459	6986.99
976.63	6755.57
976.802	6837.48
976.973	6532.34
977.145	6677.74
977.316	7009.51
977.487	7138.54
977.659	6644.98
977.83	6354.16
978.001	7181.54
978.172	6841.58
978.344	6352.12
978.515	6448.37
978.686	6454.51
978.857	6876.4
979.028	6325.49
979.2	6356.21
979.371	6806.77
979.542	6325.49
979.713	6501.62
979.884	5989.63
980.055	6354.16
980.226	6444.27
980.397	6323.44
980.568	6124.79
980.739	6761.71
980.91	6159.61
981.081	6464.75
981.252	6331.64
981.423	6489.33
981.594	6673.65
981.765	6169.85
981.936	6151.42
982.106	6466.8
982.277	6544.63
982.448	5977.34
982.619	6173.94
982.79	5924.09
982.96	6356.21
983.131	5985.53
983.302	5905.66
983.472	6106.36
983.643	6120.7
983.814	6006.01
983.984	5610.75
984.155	5782.78
984.326	6262.01
984.496	5940.47
984.667	5717.25
984.837	5801.21
985.008	6294.77
985.178	5897.47
985.349	5924.09
985.519	5928.19
985.69	5823.74
985.86	5694.72
986.031	5743.87
986.201	5942.52
986.371	5979.39
986.542	5534.98
986.712	5561.6
986.882	5991.67
987.053	5936.38
987.223	5391.62
987.393	5618.94
987.563	5731.58
987.734	5934.33
987.904	5864.7
988.074	5393.67
988.244	5827.84
988.414	5453.06
988.585	5534.98
988.755	5567.74
988.925	5502.21
989.095	6120.7
989.265	5373.19
989.435	5352.71
989.605	5713.15
989.775	5559.55
989.945	5426.43
990.115	5102.86
990.285	5469.44
990.455	5473.54
990.625	5342.47
990.795	5131.53
990.965	5788.92
991.134	5184.77
991.304	5164.29
991.474	4984.07
991.644	5414.15
991.814	5682.43
991.984	4945.16
992.153	5182.73
992.323	5389.57
992.493	5266.69
992.662	4877.58
992.832	5170.44
993.002	5276.93
993.171	5221.64
993.341	4711.69
993.511	4971.79
993.68	5047.56
993.85	5313.8
994.019	4517.14
994.189	4861.2
994.358	5141.77
994.528	4916.49
994.697	4531.47
994.867	4625.68
995.036	4971.79
995.206	5008.65
995.375	4568.34
995.544	4701.45
995.714	4728.08
995.883	4857.1
996.052	4742.41
996.222	4463.89
996.391	5328.13
996.56	4797.71
996.73	4568.34
996.899	4539.66
997.068	5213.45
997.237	4844.81
997.406	4457.75
997.576	4355.35
997.745	4865.29
997.914	4723.98
998.083	4259.09
998.252	4488.46
998.421	4625.68
998.59	4336.92
998.759	4209.94
998.928	4166.93
999.097	4699.41
999.266	4543.76
999.435	4535.57
999.604	4142.36
999.773	4975.88
999.942	4349.2
1000.111	4021.53
1000.28	4171.03
1000.448	4074.78
1000.617	4150.55
1000.786	4308.24
1000.955	4105.49
1001.124	4422.93
1001.292	5137.67
1001.461	3968.28
1001.63	4087.06
1001.798	4646.16
1001.967	4467.99
1002.136	3867.93
1002.304	3763.48
1002.473	4302.1
1002.642	4261.14
1002.81	3783.96
1002.979	3923.23
1003.147	4273.43
1003.316	4656.4
1003.484	3863.83
1003.653	3704.09
1003.821	4404.5
1003.99	3925.27
1004.158	3896.6
1004.327	3749.15
1004.495	4144.41
1004.663	3837.21
1004.832	3724.57
1005	3599.65
1005.168	4074.78
1005.337	3812.64
1005.505	3280.16
1005.673	3800.35
1005.842	4054.3
1006.01	4066.58
1006.178	3542.3
1006.346	3661.09
1006.514	3857.69
1006.683	3996.95
1006.851	3599.65
1007.019	3448.1
1007.187	3638.56
1007.355	3282.21
1007.523	3226.92
1007.691	3226.92
1007.859	3355.94
1008.027	3960.09
1008.195	3464.48
1008.363	3306.79
1008.531	3794.2
1008.699	3444
1008.867	3075.37
1009.035	3228.96
1009.203	3734.81
1009.37	3437.86
1009.538	3198.24
1009.706	3575.07
1009.874	3759.39
1010.042	3302.69
1010.209	3101.99
1010.377	3083.56
1010.545	3599.65
1010.713	3462.43
1010.88	3104.04
1011.048	3181.86
1011.216	3339.55
1011.383	3636.51
1011.551	3120.42
1011.718	2938.15
1011.886	3630.37
1012.054	3265.83
1012.221	2936.1
1012.389	3044.65
1012.556	3167.53
1012.724	3765.53
1012.891	3124.52
1013.058	2886.95
1013.226	3300.64
1013.393	3382.56
1013.561	2749.74
1013.728	2676.01
1013.895	3247.4
1014.063	3321.12
1014.23	2698.54
1014.397	2759.98
1014.565	3251.49
1014.732	2897.19
1014.899	2676.01
1015.066	2651.44
1015.233	3063.08
1015.401	3063.08
1015.568	2866.47
1015.735	2747.69
1015.902	3157.29
1016.069	3013.93
1016.236	2645.29
1016.403	2653.48
1016.57	2778.41
1016.737	3065.13
1016.904	2624.81
1017.071	2393.39
1017.238	2768.17
1017.405	2950.44
1017.572	2651.44
1017.739	2745.64
1017.906	2841.9
1018.073	2915.62
1018.24	2368.82
1018.407	2485.55
1018.573	2972.97
1018.74	2592.05
1018.907	2534.7
1019.074	2317.62
1019.241	2921.77
1019.407	2817.32
1019.574	2223.41
1019.741	2225.46
1019.907	2706.73
1020.074	2778.41
1020.241	2178.36
1020.407	2329.91
1020.574	2692.4
1020.74	2841.9
1020.907	2268.47
1021.073	2129.2
1021.24	3056.93
1021.406	2907.43
1021.573	2288.95
1021.739	2194.74
1021.906	2612.53
1022.072	2389.3
1022.239	2284.85
1022.405	2080.05
1022.571	2387.25
1022.738	2274.61
1022.904	2161.97
1023.07	2123.06
1023.237	2493.74
1023.403	2612.53
1023.569	2209.08
1023.735	2227.51
1023.902	2514.22
1024.068	2417.97
1024.234	1938.74
1024.4	1998.13
1024.566	2372.91
1024.732	2422.06
1024.898	2121.01
1025.065	1922.36
1025.231	2622.77
1025.397	2172.21
1025.563	1994.04
1025.729	2008.37
1025.895	1834.3
1026.061	1983.8
1026.227	1783.1
1026.392	1948.98
1026.558	2358.58
1026.724	2258.23
1026.89	1776.95
1027.056	1936.7
1027.222	2262.32
1027.388	1912.12
1027.553	1664.32
1027.719	1719.61
1027.885	2501.94
1028.051	2114.87
1028.216	1641.79
1028.382	1733.95
1028.548	2184.5
1028.713	1951.03
1028.879	1617.21
1029.045	1930.55
1029.21	2184.5
1029.376	2180.4
1029.541	1602.88
1029.707	1647.93
1029.873	2069.81
1030.038	2094.39
1030.204	1576.25
1030.369	1627.45
1030.534	1991.99
1030.7	1822.01
1030.865	1715.52
1031.031	1514.81
1031.196	1922.36
1031.361	1977.66
1031.527	1545.53
1031.692	1482.05
1031.857	1475.9
1032.023	1918.26
1032.188	1439.04
1032.353	1570.11
1032.518	2176.31
1032.684	1852.73
1032.849	1430.85
1033.014	1518.91
1033.179	2022.71
1033.344	1936.7
1033.509	1523.01
1033.674	1535.29
1033.839	1928.5
1034.004	1959.22
1034.17	1393.98
1034.335	1305.92
1034.5	1637.69
1034.664	1422.66
1034.829	1310.02
1034.994	1398.08
1035.159	1740.09
1035.324	1772.86
1035.489	1271.11
1035.654	1230.15
1035.819	1867.06
1035.984	1682.75
1036.148	1277.25
1036.313	1205.57
1036.478	1740.09
1036.643	1553.73
1036.807	1258.82
1036.972	1105.22
1037.137	1940.79
1037.301	1502.53
1037.466	1183.04
1037.631	1373.5
1037.795	1963.32
1037.96	1516.86
1038.124	1436.99
1038.289	1049.93
1038.454	1682.75
1038.618	1596.73
1038.783	1267.01
1038.947	1289.54
1039.111	1506.62
1039.276	1365.31
1039.44	1158.47
1039.605	1459.52
1039.769	1418.56
1039.933	1465.66
1040.098	1215.81
1040.262	1250.63
1040.426	1711.42
1040.591	1496.38
1040.755	1029.45
1040.919	1121.6
1041.083	1400.13
1041.248	1310.02
1041.412	982.34
1041.576	978.25
1041.74	1275.2
1041.904	1559.87
1042.068	1021.25
1042.232	1107.27
1042.397	1570.11
1042.561	1533.25
1042.725	838.98
1042.889	1228.1
1043.053	1426.75
1043.217	1484.09
1043.381	1066.31
1043.544	968.01
1043.708	1678.65
1043.872	1097.03
1044.036	718.15
1044.2	888.14
1044.364	1422.66
1044.528	1615.16
1044.691	5215.49
1044.855	900.42
1045.019	1520.96
1045.183	1393.98
1045.346	908.62
1045.51	910.66
1045.674	1348.93
1045.837	1441.09
1046.001	939.33
1046.165	871.75
1046.328	1756.47
1046.492	1273.15
1046.655	902.47
1046.819	929.1
1046.983	1137.99
1047.146	1348.93
1047.31	918.86
1047.473	660.81
1047.636	1113.41
1047.8	947.53
1047.963	838.98
1048.127	775.5
1048.29	968.01
