Data from Hydrogel_Ink_Intensity_Test_1_USB4F045381__55__00055.txt Node

Date: Mon Jul 31 10:50:34 EDT 2023
User: mmckonesweet
Spectrometer: USB4F04538
Trigger mode: 4
Integration Time (sec): 9.000000E-1
Scans to average: 1
Electric dark correction enabled: true
Nonlinearity correction enabled: false
Boxcar width: 0
XAxis mode: Wavelengths
Number of Pixels in Spectrum: 3648
>>>>>Begin Spectral Data<<<<<
345.52	-975.69
345.736	-975.69
345.952	-975.69
346.168	-969.54
346.384	-998.21
346.6	-133.97
346.816	-295.76
347.032	-330.58
347.248	328.87
347.464	-215.89
347.68	-115.54
347.896	89.26
348.112	412.84
348.328	-27.48
348.544	-17.24
348.76	-2.9
348.975	308.39
349.191	-207.7
349.407	-250.71
349.623	48.3
349.839	-25.43
350.055	-105.3
350.27	64.68
350.486	236.71
350.702	394.4
350.918	287.91
351.133	-203.6
351.349	154.79
351.565	361.64
351.781	-150.36
351.996	21.67
352.212	337.06
352.428	-82.77
352.644	-222.03
352.859	-207.7
353.075	339.11
353.291	-23.38
353.506	-58.2
353.722	-267.09
353.938	-133.97
354.153	416.93
354.369	109.74
354.584	-113.49
354.8	228.52
355.016	-330.58
355.231	-232.27
355.447	13.48
355.662	140.46
355.878	736.42
356.093	-228.18
356.309	-72.53
356.524	-242.51
356.74	345.25
356.955	-232.27
357.171	7.34
357.386	101.55
357.602	-181.07
357.817	-76.63
358.033	-68.44
358.248	414.88
358.464	218.28
358.679	-88.92
358.895	-219.99
359.11	27.82
359.325	361.64
359.541	355.49
359.756	1.19
359.972	-201.55
360.187	287.91
360.402	-158.55
360.618	-187.22
360.833	1070.23
361.048	197.8
361.264	-121.68
361.479	5.29
361.694	9.39
361.909	228.52
362.125	-168.79
362.34	-138.07
362.555	275.62
362.77	119.98
362.986	-226.13
363.201	-170.83
363.416	222.38
363.631	115.88
363.847	-152.4
364.062	-160.59
364.277	142.5
364.492	148.65
364.707	-13.14
364.922	-375.63
365.138	322.73
365.353	343.21
365.568	-168.79
365.783	-146.26
365.998	115.88
366.213	601.25
366.428	-230.23
366.643	134.31
366.858	275.62
367.073	238.76
367.288	-88.92
367.503	-195.41
367.718	197.8
367.933	324.77
368.148	-174.93
368.363	11.43
368.578	17.58
368.793	455.84
369.008	-144.21
369.223	-258.9
369.438	251.05
369.653	464.04
369.868	-127.83
370.083	-138.07
370.298	140.46
370.513	435.36
370.728	158.89
370.943	-170.83
371.157	-142.16
371.372	619.68
371.587	-342.86
371.802	-281.43
372.017	91.31
372.232	406.69
372.446	11.43
372.661	-185.17
372.876	261.29
373.091	343.21
373.306	-84.82
373.52	-164.69
373.735	-35.67
373.95	418.98
374.165	-35.67
374.379	-95.06
374.594	-58.2
374.809	152.74
375.023	68.78
375.238	-242.51
375.453	240.81
375.667	-156.5
375.882	-138.07
376.097	-113.49
376.311	130.22
376.526	85.16
376.741	-150.36
376.955	130.22
377.17	650.4
377.384	648.35
377.599	-31.57
377.813	-230.23
378.028	593.06
378.242	222.38
378.457	-2.9
378.672	-191.31
378.886	150.7
379.101	-7
379.315	-254.8
379.53	-113.49
379.744	255.14
379.958	269.48
380.173	-95.06
380.387	-74.58
380.602	246.95
380.816	-21.33
381.031	-64.34
381.245	-23.38
381.459	279.72
381.674	2593.92
381.888	-105.3
382.103	251.05
382.317	-107.35
382.531	595.11
382.746	-27.48
382.96	-117.59
383.174	-11.09
383.388	537.76
383.603	126.12
383.817	-226.13
384.031	224.42
384.246	552.1
384.46	50.35
384.674	371.88
384.888	144.55
385.103	158.89
385.317	-215.89
385.531	1.19
385.745	515.23
385.959	367.78
386.174	-129.88
386.388	-187.22
386.602	117.93
386.816	-60.24
387.03	-23.38
387.244	-76.63
387.458	107.69
387.672	453.8
387.887	-215.89
388.101	-285.52
388.315	421.03
388.529	220.33
388.743	-68.44
388.957	-121.68
389.171	500.9
389.385	-58.2
389.599	-25.43
389.813	140.46
390.027	234.66
390.241	748.7
390.455	-9.05
390.669	19.63
390.883	1.19
391.097	591.01
391.311	130.22
391.525	-95.06
391.738	300.2
391.952	359.59
392.166	72.87
392.38	-129.88
392.594	480.42
392.808	320.68
393.022	-21.33
393.236	23.72
393.449	279.72
393.663	312.49
393.877	-183.12
394.091	9.39
394.305	72.87
394.518	81.07
394.732	-129.88
394.946	-88.92
395.16	541.86
395.373	185.51
395.587	-136.02
395.801	-97.11
396.015	404.64
396.228	349.35
396.442	-64.34
396.656	-232.27
396.869	461.99
397.083	593.06
397.297	95.4
397.51	66.73
397.724	476.32
397.938	226.47
398.151	-170.83
398.365	-97.11
398.578	246.95
398.792	539.81
399.005	128.17
399.219	-25.43
399.433	320.68
399.646	388.26
399.86	79.02
400.073	162.98
400.287	345.25
400.5	165.03
400.714	162.98
400.927	-0.85
401.141	378.02
401.354	1250.46
401.567	447.65
401.781	-150.36
401.994	431.27
402.208	713.89
402.421	17.58
402.635	99.5
402.848	205.99
403.061	478.37
403.275	87.21
403.488	-105.3
403.701	693.41
403.915	380.07
404.128	249
404.341	-58.2
404.555	466.08
404.768	193.7
404.981	255.14
405.195	-90.96
405.408	744.61
405.621	451.75
405.834	189.61
406.048	-37.72
406.261	574.63
406.474	550.05
406.687	-47.96
406.9	165.03
407.114	191.66
407.327	367.78
407.54	-90.96
407.753	-78.68
407.966	-4.95
408.179	421.03
408.392	-15.19
408.605	-97.11
408.819	404.64
409.032	449.7
409.245	-31.57
409.458	271.53
409.671	373.92
409.884	593.06
410.097	-56.15
410.31	210.09
410.523	375.97
410.736	208.04
410.949	185.51
411.162	81.07
411.375	711.84
411.588	570.53
411.801	263.33
412.014	29.87
412.227	285.86
412.44	140.46
412.653	9.39
412.865	302.25
413.078	603.3
413.291	330.92
413.504	205.99
413.717	54.44
413.93	502.95
414.143	70.83
414.356	175.27
414.568	-97.11
414.781	488.61
414.994	332.97
415.207	187.56
415.42	289.96
415.632	576.67
415.845	842.91
416.058	-23.38
416.271	-17.24
416.483	429.22
416.696	726.18
416.909	103.59
417.121	52.39
417.334	466.08
417.547	836.77
417.759	-29.52
417.972	144.55
418.185	263.33
418.397	441.51
418.61	74.92
418.823	74.92
419.035	697.5
419.248	341.16
419.46	224.42
419.673	269.48
419.885	570.53
420.098	312.49
420.311	138.41
420.523	-45.91
420.736	504.99
420.948	386.21
421.161	72.87
421.373	-64.34
421.586	443.56
421.798	259.24
422.01	29.87
422.223	269.48
422.435	199.85
422.648	576.67
422.86	212.14
423.073	150.7
423.285	588.96
423.497	29.87
423.71	33.96
423.922	203.94
424.134	640.16
424.347	709.79
424.559	486.56
424.771	502.95
424.984	382.12
425.196	593.06
425.408	95.4
425.621	46.25
425.833	709.79
426.045	771.23
426.257	60.59
426.47	230.57
426.682	541.86
426.894	607.39
427.106	236.71
427.318	283.81
427.531	300.2
427.743	601.25
427.955	201.9
428.167	705.7
428.379	591.01
428.591	464.04
428.804	380.07
429.016	230.57
429.228	337.06
429.44	519.33
429.652	459.94
429.864	271.53
430.076	472.23
430.288	472.23
430.5	228.52
430.712	328.87
430.924	789.66
431.136	517.28
431.348	173.22
431.56	230.57
431.772	531.62
431.984	388.26
432.196	263.33
432.408	353.45
432.62	408.74
432.832	636.06
433.044	623.78
433.256	378.02
433.468	779.42
433.679	218.28
433.891	214.18
434.103	531.62
434.315	980.12
434.527	785.57
434.739	521.38
434.95	558.24
435.162	758.94
435.374	410.79
435.586	398.5
435.798	314.53
436.009	312.49
436.221	525.47
436.433	369.83
436.645	382.12
436.856	560.29
437.068	918.68
437.28	330.92
437.491	683.17
437.703	754.85
437.915	687.26
438.126	382.12
438.338	765.09
438.55	599.2
438.761	851.1
438.973	386.21
439.184	541.86
439.396	689.31
439.608	818.33
439.819	298.15
440.031	574.63
440.242	797.85
440.454	887.97
440.665	394.4
440.877	601.25
441.088	769.18
441.3	586.91
441.511	281.77
441.723	361.64
441.934	683.17
442.146	726.18
442.357	578.72
442.569	746.66
442.78	730.27
442.991	1283.22
443.203	769.18
443.414	464.04
443.626	967.84
443.837	541.86
444.048	443.56
444.26	345.25
444.471	691.36
444.682	988.32
444.894	283.81
445.105	351.4
445.316	1000.6
445.528	906.4
445.739	578.72
445.95	711.84
446.161	801.95
446.373	1016.99
446.584	523.43
446.795	533.67
447.006	992.41
447.217	1115.29
447.429	433.32
447.64	470.18
447.851	1090.71
448.062	834.72
448.273	386.21
448.484	500.9
448.695	898.2
448.907	806.05
449.118	627.87
449.329	834.72
449.54	625.83
449.751	646.3
449.962	560.29
450.173	601.25
450.384	1115.29
450.595	1105.05
450.806	527.52
451.017	646.3
451.228	1127.58
451.439	1127.58
451.65	558.24
451.861	472.23
452.072	677.02
452.283	830.62
452.494	865.44
452.705	586.91
452.915	1285.27
453.126	976.03
453.337	660.64
453.548	677.02
453.759	1160.34
453.97	1414.29
454.181	908.44
454.391	750.75
454.602	992.41
454.813	1172.63
455.024	791.71
455.235	804
455.445	1033.37
455.656	1027.23
455.867	832.67
456.078	695.46
456.288	930.97
456.499	1195.16
456.71	656.54
456.921	1043.61
457.131	1090.71
457.342	1053.85
457.553	861.34
457.763	773.28
457.974	1191.06
458.184	1229.98
458.395	748.7
458.606	674.98
458.816	1293.46
459.027	1567.89
459.237	959.64
459.448	730.27
459.659	1406.1
459.869	1690.77
460.08	644.26
460.29	1121.43
460.501	1504.4
460.711	1111.19
460.922	767.13
461.132	910.49
461.343	1881.23
461.553	906.4
461.764	865.44
461.974	1086.62
462.184	1389.72
462.395	1207.45
462.605	1086.62
462.816	834.72
463.026	1338.52
463.236	1545.36
463.447	1049.75
463.657	996.51
463.867	1485.97
464.078	1213.59
464.288	1223.83
464.498	1043.61
464.709	1342.61
464.919	1275.03
465.129	1135.77
465.339	1057.95
465.55	1447.06
465.76	1576.08
465.97	1262.74
466.18	1133.72
466.391	1807.5
466.601	1531.03
466.811	1272.98
467.021	1043.61
467.231	1553.55
467.441	1717.39
467.651	1428.63
467.862	1008.8
468.072	1569.94
468.282	1846.41
468.492	1311.89
468.702	1393.81
468.912	1688.72
469.122	2176.14
469.332	1674.39
469.542	1383.57
469.752	1889.42
469.962	1692.82
470.172	1369.24
470.382	1434.77
470.592	2004.11
470.802	2032.78
471.012	1627.28
471.222	1541.27
471.432	2038.92
471.642	2163.85
471.852	1768.59
472.062	1598.61
472.272	1854.61
472.482	1633.43
472.691	1578.13
472.901	1610.9
473.111	1920.14
473.321	2608.26
473.531	1629.33
473.741	1879.18
473.95	2161.8
474.16	2151.56
474.37	1932.43
474.58	1672.34
474.79	2661.51
474.999	2323.59
475.209	1821.84
475.419	1911.95
475.628	2196.62
475.838	2491.52
476.048	2014.35
476.258	1940.62
476.467	2727.04
476.677	2057.36
476.886	2321.54
477.096	2282.63
477.306	2344.07
477.515	2696.32
477.725	2385.03
477.935	2184.33
478.144	2794.62
478.354	2299.02
478.563	2348.17
478.773	2213
478.982	2761.86
479.192	3005.56
479.401	2466.95
479.611	2229.38
479.82	2407.56
480.03	2759.81
480.239	2409.61
480.449	2411.65
480.658	3089.53
480.868	2540.68
481.077	2729.09
481.287	2565.25
481.496	2962.56
481.705	3071.1
481.915	2950.27
482.124	2933.89
482.333	3116.16
482.543	3253.37
482.752	2878.59
482.961	2851.97
483.171	3312.76
483.38	3044.48
483.589	2968.7
483.799	2937.98
484.008	3171.45
484.217	3368.06
484.426	2911.36
484.636	2847.87
484.845	3456.12
485.054	2942.08
485.263	3325.05
485.472	3085.44
485.682	3611.76
485.891	3449.97
486.1	2940.03
486.309	3226.75
486.518	3554.42
486.727	3910.77
486.936	3327.1
487.146	3302.52
487.355	3765.36
487.564	3331.19
487.773	3331.19
487.982	3296.38
488.191	3341.43
488.4	3662.96
488.609	3323
488.818	3474.55
489.027	4265.07
489.236	4119.66
489.445	3566.71
489.654	3372.15
489.863	4138.09
490.072	3765.36
490.281	3949.68
490.49	3634.29
490.698	4209.77
490.907	4328.55
491.116	3751.03
491.325	3710.07
491.534	4445.29
491.743	4107.37
491.952	3912.81
492.16	3830.9
492.369	4289.64
492.578	4367.46
492.787	3851.38
492.996	3781.74
493.204	4093.04
493.413	4723.81
493.622	3667.06
493.831	3783.79
494.039	4627.56
494.248	3892.34
494.457	4088.94
494.665	3859.57
494.874	4473.96
495.083	4863.07
495.291	4263.02
495.5	4125.8
495.709	4703.33
495.917	4428.9
496.126	4252.78
496.335	4179.05
496.543	4387.94
496.752	4416.62
496.96	4621.41
497.169	4240.49
497.377	4605.03
497.586	4981.85
497.794	4559.97
498.003	4181.1
498.211	4668.52
498.42	5084.25
498.628	4553.83
498.837	4523.11
499.045	4951.14
499.254	4977.76
499.462	4512.87
499.671	4658.28
499.879	5327.96
500.087	5112.92
500.296	4531.3
500.504	4664.42
500.713	5047.39
500.921	5612.63
501.129	4568.16
501.338	4678.76
501.546	5215.32
501.754	5102.68
501.962	4885.6
502.171	4691.04
502.379	5112.92
502.587	5602.39
502.795	4979.81
503.004	4766.82
503.212	5190.75
503.42	5465.18
503.628	4977.76
503.837	5172.32
504.045	5391.45
504.253	5821.52
504.461	4944.99
504.669	4914.27
504.877	5538.9
505.085	5657.68
505.294	5010.53
505.502	5125.21
505.71	5489.75
505.918	5477.46
506.126	5112.92
506.334	5088.35
506.542	5520.47
506.75	5360.73
506.958	5352.54
507.166	5401.69
507.374	5387.35
507.582	5878.86
507.79	5399.64
507.998	5336.15
508.206	5622.87
508.414	5682.26
508.622	5315.67
508.83	5530.71
509.037	6114.38
509.245	5543
509.453	5280.86
509.661	5315.67
509.869	6046.8
510.077	5629.01
510.285	5588.05
510.492	5235.8
510.7	6411.34
510.908	5700.69
511.116	5637.2
511.324	5467.22
511.531	5786.71
511.739	5803.09
511.947	5899.34
512.155	5794.9
512.362	6071.37
512.57	5567.57
512.778	5590.1
512.985	5454.94
513.193	6298.7
513.401	6298.7
513.608	5600.34
513.816	5682.26
514.024	6136.91
514.231	6302.79
514.439	5803.09
514.646	5719.12
514.854	6239.31
515.061	6294.6
515.269	5819.47
515.477	5825.62
515.684	5987.41
515.892	6327.37
516.099	5764.18
516.307	5950.54
516.514	6526.02
516.722	6646.85
516.929	6237.26
517.136	6046.8
517.344	6532.17
517.551	6265.93
517.759	5983.31
517.966	6116.43
518.173	6351.95
518.381	6341.71
518.588	6265.93
518.796	5960.78
519.003	6689.86
519.21	6454.34
519.418	5921.87
519.625	6222.92
519.832	6423.62
520.039	6577.22
520.247	6104.14
520.454	6237.26
520.661	6923.33
520.868	6528.07
521.076	6460.49
521.283	6370.38
521.49	7394.36
521.697	6747.2
521.904	6444.1
522.112	6257.74
522.319	6913.09
522.526	6714.44
522.733	6382.67
522.94	6571.08
523.147	6759.49
523.354	7029.82
523.561	6401.1
523.768	6597.7
523.975	7117.89
524.183	6896.71
524.39	6581.32
524.597	6427.72
524.804	6937.66
525.011	6816.83
525.218	6521.93
525.425	6653
525.632	7238.72
525.838	6751.3
526.045	6730.82
526.252	6550.6
526.459	8283.18
526.666	8180.78
526.873	6665.28
527.08	6835.27
527.287	7412.79
527.494	7177.28
527.701	6900.8
527.907	6839.36
528.114	7255.1
528.321	7113.79
528.528	6825.03
528.735	7068.73
528.941	7156.8
529.148	7310.4
529.355	7056.45
529.562	6894.66
529.768	7691.32
529.975	7265.34
530.182	7003.2
530.388	7038.02
530.595	7742.52
530.802	7031.87
531.008	7169.09
531.215	7380.03
531.422	8117.29
531.628	8295.47
531.835	7398.46
532.042	7091.26
532.248	7283.77
532.455	7625.78
532.661	7242.81
532.868	7158.85
533.074	7578.68
533.281	7967.79
533.487	7486.52
533.694	7158.85
533.9	7443.51
534.107	7681.08
534.313	7210.04
534.52	7367.74
534.726	8010.8
534.933	8287.28
535.139	7382.07
535.345	7574.58
535.552	8053.81
535.758	7689.27
535.965	7631.93
536.171	7595.06
536.377	8231.98
536.584	8135.73
536.79	7638.07
536.996	7822.39
537.203	7971.89
537.409	8109.1
537.615	7496.76
537.821	7824.44
538.028	8369.19
538.234	8125.49
538.44	7676.98
538.646	7742.52
538.853	8090.67
539.059	7900.21
539.265	8274.99
539.471	7871.54
539.677	8332.33
539.883	8148.01
540.09	7951.41
540.296	8268.84
540.502	8383.53
540.708	8076.34
540.914	8301.61
541.12	7986.22
541.326	8338.48
541.532	8299.56
541.738	8303.66
541.944	8070.19
542.15	8633.38
542.356	8324.14
542.562	8203.31
542.768	8289.32
542.974	9172
543.18	9026.59
543.386	8320.04
543.592	8029.23
543.798	8973.35
544.004	8823.84
544.21	8225.84
544.415	8447.02
544.621	8870.95
544.827	8723.49
545.033	8240.17
545.239	8451.11
545.445	8467.5
545.651	8713.25
545.856	8330.28
546.062	8617
546.268	8696.87
546.474	8752.17
546.679	8299.56
546.885	8383.53
547.091	8725.54
547.297	9190.43
547.502	8596.52
547.708	8451.11
547.914	8676.39
548.119	8799.27
548.325	8553.51
548.531	8242.22
548.736	9229.34
548.942	8680.49
549.147	8617
549.353	8932.39
549.559	9178.14
549.764	9057.31
549.97	8524.84
550.175	8561.7
550.381	9245.73
550.586	8913.95
550.792	8817.7
550.997	8633.38
551.203	9102.37
551.408	9055.26
551.614	8504.36
551.819	8920.1
552.025	9667.61
552.23	9804.82
552.435	8842.28
552.641	9333.79
552.846	9298.97
553.052	9540.63
553.257	9206.81
553.462	8940.58
553.668	9112.61
553.873	9630.74
554.078	8997.92
554.283	9233.44
554.489	9227.29
554.694	9452.57
554.899	8897.57
555.105	9481.24
555.31	9761.81
555.515	9577.5
555.72	9358.36
555.925	9108.51
556.131	9643.03
556.336	9167.9
556.541	9358.36
556.746	9020.45
556.951	9790.49
557.156	9931.8
557.361	9356.32
557.567	9712.66
557.772	10150.93
557.977	9888.79
558.182	9372.7
558.387	9313.31
558.592	9794.58
558.797	9864.21
559.002	9571.35
559.207	9577.5
559.412	9790.49
559.617	10202.13
559.822	9354.27
560.027	9286.68
560.232	9727
560.437	10185.74
560.642	9339.93
560.847	9485.34
561.051	9909.27
561.256	9741.33
561.461	9626.65
561.666	9557.02
561.871	9849.88
562.076	10292.24
562.281	9831.44
562.485	9581.59
562.69	9956.37
562.895	9999.38
563.1	9526.3
563.305	9655.32
563.509	10015.76
563.714	10462.22
563.919	9778.2
564.123	9514.01
564.328	9899.03
564.533	10492.94
564.737	9593.88
564.942	9770.01
565.147	10535.95
565.351	10744.84
565.556	9827.35
565.761	9761.81
565.965	10183.7
566.17	10077.2
566.374	9765.91
566.579	9901.08
566.784	10220.56
566.988	10081.3
567.193	9770.01
567.397	10017.81
567.602	9935.89
567.806	10273.81
568.011	10011.67
568.215	10062.87
568.42	10038.29
568.624	10097.68
568.828	9825.3
569.033	9919.51
569.237	10486.79
569.442	10540.04
569.646	9872.4
569.85	10294.29
570.055	10337.29
570.259	10314.77
570.463	10447.88
570.668	10345.48
570.872	10189.84
571.076	10419.21
571.281	10451.98
571.485	10284.05
571.689	10456.08
571.893	10595.34
572.098	10480.65
572.302	10384.4
572.506	10664.97
572.71	10548.23
572.914	10437.64
573.119	10558.47
573.323	10955.78
573.527	10914.82
573.731	10238.99
573.935	10447.88
574.139	10806.28
574.343	10302.48
574.547	10511.37
574.751	10642.44
574.955	10959.88
575.159	10939.4
575.364	10372.11
575.568	10411.02
575.772	10791.94
575.976	10972.16
576.18	10343.44
576.383	10417.16
576.587	11009.03
576.791	10953.73
576.995	10333.2
577.199	10392.59
577.403	11105.28
577.607	11232.26
577.811	10837
578.015	10572.81
578.219	11252.73
578.422	11273.21
578.626	10679.3
578.83	10724.36
579.034	11004.93
579.238	11006.98
579.442	10710.02
579.645	11027.46
579.849	10894.34
580.053	11453.44
580.257	10912.77
580.46	10802.18
580.664	11561.98
580.868	11328.51
581.071	10904.58
581.275	10910.72
581.479	10619.91
581.682	11248.64
581.886	10607.62
582.09	10880
582.293	11594.75
582.497	11279.36
582.7	11074.56
582.904	10937.35
583.107	11303.93
583.311	11488.25
583.515	11138.05
583.718	11092.99
583.922	11596.79
584.125	11785.21
584.329	10867.72
584.532	11230.21
584.735	11693.05
584.939	11258.88
585.142	10800.13
585.346	10947.59
585.549	11371.52
585.753	11484.16
585.956	11258.88
586.159	11328.51
586.363	12014.58
586.566	11719.67
586.769	11004.93
586.973	11078.66
587.176	11707.38
587.379	11920.37
587.582	11723.77
587.786	11803.64
587.989	11674.62
588.192	12280.82
588.395	11625.47
588.599	11684.86
588.802	11942.9
589.005	11799.54
589.208	11475.96
589.411	11729.91
589.615	11887.61
589.818	12248.05
590.021	11885.56
590.224	11643.9
590.427	11944.95
590.63	11967.48
590.833	11410.43
591.036	11584.51
591.239	11903.99
591.442	11824.12
591.645	11807.73
591.848	11736.06
592.051	11996.15
592.254	12411.89
592.457	11903.99
592.66	11840.5
592.863	12039.15
593.066	12217.33
593.269	11903.99
593.472	12141.55
593.675	12082.16
593.878	12454.89
594.081	12135.41
594.284	11969.52
594.486	12319.73
594.689	12170.22
594.892	12114.93
595.095	12147.7
595.298	12450.8
595.5	12264.43
595.703	12133.36
595.906	12051.44
596.109	12911.59
596.311	12624.87
596.514	11701.24
596.717	12344.3
596.92	12962.79
597.122	12565.48
597.325	11875.32
597.528	11987.96
597.73	12760.04
597.933	12219.38
598.136	12006.39
598.338	12022.77
598.541	12612.59
598.743	12913.64
598.946	12096.5
599.148	12207.09
599.351	12776.42
599.554	13224.93
599.756	12463.08
599.959	12377.07
600.161	12841.96
600.363	13124.58
600.566	12559.34
600.768	12241.9
600.971	13038.56
601.173	12903.4
601.376	12334.06
601.578	12534.76
601.78	12864.49
601.983	13325.28
602.185	12295.15
602.388	12809.19
602.59	12958.69
602.792	12813.29
602.995	12743.66
603.197	12424.17
603.399	13087.71
603.601	13028.32
603.804	12362.73
604.006	12477.42
604.208	12801
604.41	12336.11
604.613	12944.36
604.815	12502
605.017	13315.04
605.219	12694.5
605.421	13030.37
605.623	12420.08
605.826	13394.91
606.028	13370.33
606.23	12694.5
606.432	12729.32
606.634	13280.22
606.836	13319.14
607.038	12651.5
607.24	12755.94
607.442	13126.63
607.644	12903.4
607.846	12833.77
608.048	12620.78
608.25	13206.5
608.452	12686.31
608.654	13052.9
608.856	12430.32
609.058	13143.01
609.26	13444.06
609.462	12622.83
609.664	12506.09
609.866	13431.77
610.067	13214.69
610.269	12925.93
610.471	12717.03
610.673	13032.42
610.875	13429.73
611.077	12676.07
611.278	12874.73
611.48	13059.04
611.682	13460.45
611.884	13257.7
612.085	12940.26
612.287	13089.76
612.489	13362.14
612.69	12772.33
612.892	12952.55
613.094	13345.76
613.295	12979.17
613.497	12712.94
613.699	12995.56
613.9	13515.74
614.102	13274.08
614.304	12923.88
614.505	12653.55
614.707	13237.22
614.908	13206.5
615.11	12803.05
615.311	12973.03
615.513	13231.07
615.714	13640.67
615.916	12987.36
616.117	13083.62
616.319	13226.98
616.52	13390.81
616.722	12960.74
616.923	12866.53
617.124	13628.38
617.326	13274.08
617.527	13116.39
617.729	13140.96
617.93	13384.67
618.131	13470.69
618.333	12921.83
618.534	13265.89
618.735	13122.53
618.937	13626.33
619.138	12938.21
619.339	13011.94
619.54	13302.75
619.742	13327.33
619.943	13362.14
620.144	13108.19
620.345	13442.01
620.546	13650.91
620.748	12989.41
620.949	13024.23
621.15	13509.6
621.351	13358.05
621.552	13073.38
621.753	12831.72
621.954	13087.71
622.155	13661.15
622.356	12985.32
622.558	13538.27
622.759	13587.42
622.96	13698.01
623.161	13235.17
623.362	13136.87
623.563	13501.4
623.764	13431.77
623.965	13188.07
624.166	13677.53
624.366	13331.42
624.567	13472.73
624.768	12968.93
624.969	13208.55
625.17	13493.21
625.371	13898.71
625.572	13321.18
625.773	13048.8
625.973	13829.08
626.174	13593.56
626.375	13435.87
626.576	13679.58
626.777	13640.67
626.977	13882.33
627.178	13339.62
627.379	13310.94
627.58	13274.08
627.78	13503.45
627.981	13157.35
628.182	13560.8
628.382	13718.49
628.583	13356
628.784	13175.78
628.984	13218.78
629.185	13947.86
629.386	13741.02
629.586	13556.7
629.787	13216.74
629.987	13667.29
630.188	13437.92
630.388	13515.74
630.589	13288.42
630.79	14123.99
630.99	13863.9
631.191	13390.81
631.391	13444.06
631.591	13652.95
631.792	14025.68
631.992	13597.66
632.193	13495.26
632.393	14115.8
632.594	13908.95
632.794	13548.51
632.994	13530.08
633.195	13954.01
633.395	13550.56
633.595	13401.05
633.796	13759.45
633.996	13636.57
634.196	13874.13
634.397	13536.22
634.597	13460.45
634.797	13519.84
634.997	14113.75
635.198	13906.9
635.398	13480.92
635.598	14019.54
635.798	14152.66
635.998	14040.02
636.199	13384.67
636.399	14062.55
636.599	13419.49
636.799	13618.14
636.999	13876.18
637.199	14046.16
637.399	14422.99
637.599	13681.63
637.799	13550.56
637.999	13839.32
638.199	14422.99
638.399	13646.81
638.599	13421.53
638.799	14068.69
638.999	14412.75
639.199	13761.5
639.399	13835.22
639.599	14517.2
639.799	13917.14
639.999	13714.39
640.199	13677.53
640.399	14164.95
640.599	13837.27
640.799	13882.33
640.998	14113.75
641.198	14056.4
641.398	13911
641.598	14115.8
641.798	13949.91
641.997	15057.86
642.197	14119.89
642.397	14193.62
642.597	13980.63
642.796	14164.95
642.996	14443.47
643.196	13853.66
643.395	13702.11
643.595	14261.2
643.795	13562.84
643.994	13900.76
644.194	14046.16
644.394	14404.56
644.593	14300.11
644.793	13908.95
644.992	14101.46
645.192	14367.7
645.392	13941.72
645.591	14185.43
645.791	13988.82
645.99	14441.42
646.19	14404.56
646.389	13876.18
646.589	14070.74
646.788	14486.48
646.987	14502.86
647.187	14298.06
647.386	14347.22
647.586	14238.67
647.785	14607.31
647.984	14130.13
648.184	14078.93
648.383	14261.2
648.582	14336.98
648.782	14037.97
648.981	14234.58
649.18	14187.47
649.38	14289.87
649.579	14173.14
649.778	14103.51
649.977	14599.12
650.177	14296.02
650.376	14119.89
650.575	13994.97
650.774	15098.82
650.973	14101.46
651.173	13898.71
651.372	14361.55
651.571	14463.95
651.77	14656.46
651.969	14269.39
652.168	14296.02
652.367	14314.45
652.566	14476.24
652.765	14105.56
652.964	14494.67
653.163	14781.39
653.362	14488.53
653.561	14361.55
653.76	14525.39
653.959	14429.13
654.158	14851.02
654.357	14416.85
654.556	14271.44
654.755	14740.43
654.954	14431.18
655.153	14255.06
655.352	14345.17
655.551	14943.17
655.749	14291.92
655.948	14398.41
656.147	14248.91
656.346	14752.71
656.545	14693.32
656.743	14273.49
656.942	14382.03
657.141	14685.13
657.34	14453.71
657.538	14490.57
657.737	14316.5
657.936	14609.36
658.135	14748.62
658.333	14445.52
658.532	14468.05
658.731	15176.64
658.929	14914.5
659.128	14640.08
659.326	14390.22
659.525	14961.61
659.724	14595.02
659.922	14230.48
660.121	14416.85
660.319	14674.89
660.518	14404.56
660.716	14117.84
660.915	14562.25
661.113	15176.64
661.312	14427.09
661.51	14455.76
661.709	14336.98
661.907	14844.87
662.105	15010.76
662.304	14459.85
662.502	14586.83
662.701	15221.7
662.899	14629.84
663.097	14701.51
663.296	14210
663.494	15160.26
663.692	14996.42
663.891	14230.48
664.089	14287.82
664.287	14808.01
664.485	14986.18
664.684	14402.51
664.882	14509.01
665.08	14738.38
665.278	14977.99
665.476	14230.48
665.675	14887.88
665.873	15037.38
666.071	15125.44
666.269	14406.61
666.467	14889.93
666.665	14519.25
666.863	14588.88
667.061	14719.95
667.259	14586.83
667.457	14760.91
667.655	15014.85
667.853	14621.64
668.051	14631.88
668.249	14166.99
668.447	14916.55
668.645	14285.78
668.843	14855.11
669.041	14846.92
669.239	14633.93
669.437	14398.41
669.635	14457.81
669.833	14758.86
670.031	14939.08
670.229	14564.3
670.426	14668.75
670.624	14648.27
670.822	14568.4
671.02	14398.41
671.218	14785.48
671.415	14599.12
671.613	15084.48
671.811	14705.61
672.009	14441.42
672.206	14844.87
672.404	14728.14
672.602	14814.15
672.799	14515.15
672.997	14844.87
673.195	14906.31
673.392	14744.52
673.59	14414.8
673.788	14959.56
673.985	14277.58
674.183	14601.16
674.38	14431.18
674.578	14969.8
674.775	14388.18
674.973	14304.21
675.17	14355.41
675.368	15180.74
675.565	14590.92
675.763	14277.58
675.96	14205.91
676.158	14926.79
676.355	14447.57
676.553	14617.55
676.75	14541.77
676.947	14846.92
677.145	14267.34
677.342	14488.53
677.539	14547.92
677.737	14504.91
677.934	14920.65
678.131	14689.23
678.329	14177.23
678.526	15182.79
678.723	14666.7
678.92	14580.68
679.118	14435.28
679.315	14351.31
679.512	14980.04
679.709	14275.54
679.906	14345.17
680.104	14814.15
680.301	14601.16
680.498	14261.2
680.695	14304.21
680.892	14433.23
681.089	14525.39
681.286	14429.13
681.483	14164.95
681.68	14599.12
681.877	14662.6
682.075	14080.98
682.272	14197.71
682.469	14355.41
682.665	14191.57
682.862	13960.15
683.059	14132.18
683.256	14410.7
683.453	14406.61
683.65	14334.93
683.847	14308.3
684.044	14584.78
684.241	14312.4
684.438	14521.29
684.635	13911
684.831	14738.38
685.028	14869.45
685.225	14119.89
685.422	14336.98
685.619	14263.25
685.815	14232.53
686.012	14259.15
686.209	13902.81
686.405	14015.44
686.602	14687.18
686.799	13960.15
686.996	14095.32
687.192	14099.41
687.389	14752.71
687.586	13913.05
687.782	14160.85
687.979	14683.08
688.175	14525.39
688.372	14058.45
688.568	14040.02
688.765	13867.99
688.962	14627.79
689.158	14074.84
689.355	13671.39
689.551	14293.97
689.748	14070.74
689.944	13976.53
690.14	14013.4
690.337	14418.89
690.533	14126.04
690.73	14009.3
690.926	14031.83
691.123	14201.81
691.319	14031.83
691.515	13691.87
691.712	14158.8
691.908	14326.74
692.104	14232.53
692.301	14185.43
692.497	13624.28
692.693	14377.94
692.889	14279.63
693.086	13988.82
693.282	13747.16
693.478	13861.85
693.674	14560.2
693.87	13931.48
694.067	13669.34
694.263	14115.8
694.459	14103.51
694.655	14103.51
694.851	13958.1
695.047	14197.71
695.243	14236.63
695.439	13847.51
695.635	13902.81
695.831	14105.56
696.027	14064.6
696.224	13937.62
696.42	14336.98
696.615	14404.56
696.811	14144.47
697.007	13622.23
697.203	13837.27
697.399	14035.92
697.595	14271.44
697.791	13863.9
697.987	13886.42
698.183	13747.16
698.379	13618.14
698.575	13906.9
698.77	13685.72
698.966	14316.5
699.162	14087.12
699.358	13761.5
699.554	13808.6
699.749	13970.39
699.945	13863.9
700.141	13708.25
700.337	13677.53
700.532	13880.28
700.728	13652.95
700.924	13542.36
701.119	13558.75
701.315	13691.87
701.511	13601.76
701.706	13872.09
701.902	13382.62
702.097	13538.27
702.293	13820.89
702.489	13792.22
702.684	13632.47
702.88	13579.23
703.075	13974.49
703.271	13573.08
703.466	13571.04
703.662	13876.18
703.857	14085.08
704.053	13605.85
704.248	13372.38
704.443	13902.81
704.639	13792.22
704.834	13452.25
705.03	13413.34
705.225	14062.55
705.42	14021.59
705.616	13485.02
705.811	13339.62
706.006	13618.14
706.202	13458.4
706.397	13499.36
706.592	13331.42
706.787	13566.94
706.983	13659.1
707.178	13908.95
707.373	13624.28
707.568	14003.16
707.763	14019.54
707.959	13548.51
708.154	13345.76
708.349	13392.86
708.544	13704.15
708.739	13568.99
708.934	13312.99
709.129	13665.24
709.324	13888.47
709.519	13403.1
709.714	13237.22
709.909	13896.66
710.104	13743.06
710.299	13333.47
710.494	13583.32
710.689	13536.22
710.884	13542.36
711.079	13485.02
711.274	13427.68
711.469	13745.11
711.664	13618.14
711.859	13104.1
712.054	13579.23
712.249	13513.69
712.443	13874.13
712.638	13108.19
712.833	13353.95
713.028	13575.13
713.223	13356
713.417	13495.26
713.612	13153.25
713.807	13681.63
714.002	14392.27
714.196	13509.6
714.391	13239.26
714.586	13659.1
714.78	13374.43
714.975	13302.75
715.17	13202.4
715.364	13409.25
715.559	13687.77
715.754	12739.56
715.948	13204.45
716.143	13765.59
716.337	13128.67
716.532	13599.71
716.726	13157.35
716.921	13423.58
717.115	13732.83
717.31	12913.64
717.504	13741.02
717.699	13206.5
717.893	13419.49
718.088	13132.77
718.282	12817.38
718.476	13427.68
718.671	13439.97
718.865	12870.63
719.059	12856.29
719.254	13226.98
719.448	13284.32
719.642	14451.66
719.837	12829.67
720.031	13220.83
720.225	13476.83
720.419	13124.58
720.614	12913.64
720.808	13237.22
721.002	13482.97
721.196	12846.05
721.39	12753.9
721.585	13626.33
721.779	13173.73
721.973	12829.67
722.167	12874.73
722.361	13198.31
722.555	13542.36
722.749	12563.43
722.943	12878.82
723.137	12782.57
723.331	13204.45
723.525	12835.81
723.719	12659.69
723.913	13218.78
724.107	13177.83
724.301	12661.74
724.495	12803.05
724.689	13358.05
724.883	13237.22
725.077	12878.82
725.271	12788.71
725.465	13310.94
725.659	12987.36
725.853	12706.79
726.046	12620.78
726.24	12825.57
726.434	12954.6
726.628	12846.05
726.822	12831.72
727.015	13155.3
727.209	13165.54
727.403	12569.58
727.596	12526.57
727.79	13083.62
727.984	13210.59
728.177	12747.75
728.371	12844.01
728.565	13181.92
728.758	12719.08
728.952	12588.01
729.146	12694.5
729.339	13376.48
729.533	13026.28
729.726	12872.68
729.92	12424.17
730.113	13200.35
730.307	13126.63
730.5	12479.47
730.694	12827.62
730.887	13022.18
731.081	13110.24
731.274	12594.15
731.468	12600.3
731.661	12911.59
731.854	12690.41
732.048	12661.74
732.241	12590.06
732.435	12790.76
732.628	12956.64
732.821	12747.75
733.014	12422.13
733.208	12678.12
733.401	13202.4
733.594	12581.87
733.788	12575.72
733.981	13161.44
734.174	13259.74
734.367	12700.65
734.56	12710.89
734.754	13067.24
734.947	12790.76
735.14	12604.39
735.333	12825.57
735.526	12948.45
735.719	12905.45
735.912	12307.44
736.105	12458.99
736.298	12956.64
736.491	12835.81
736.684	12420.08
736.877	12631.02
737.07	12841.96
737.263	13069.28
737.456	12600.3
737.649	12768.23
737.842	12796.9
738.035	12970.98
738.228	12426.22
738.421	12831.72
738.614	13292.51
738.807	12870.63
739	12375.02
739.192	12413.93
739.385	12952.55
739.578	13149.15
739.771	13028.32
739.964	12397.55
740.156	12786.66
740.349	12809.19
740.542	12784.62
740.735	12356.59
740.927	12575.72
741.12	12497.9
741.313	12282.86
741.505	12594.15
741.698	12817.38
741.891	12684.27
742.083	12600.3
742.276	12362.73
742.468	12745.7
742.661	12575.72
742.854	12614.63
743.046	12225.52
743.239	12846.05
743.431	12651.5
743.624	12235.76
743.816	12170.22
744.009	12596.2
744.201	12717.03
744.393	12518.38
744.586	12147.7
744.778	12954.6
744.971	12469.23
745.163	12395.5
745.355	12370.93
745.548	12510.19
745.74	12553.2
745.932	12377.07
746.125	12301.29
746.317	13057
746.509	12461.04
746.702	12499.95
746.894	12205.04
747.086	12585.96
747.278	12919.78
747.471	12426.22
747.663	12487.66
747.855	12708.84
748.047	12997.6
748.239	12540.91
748.431	12352.49
748.623	13114.34
748.815	12774.38
749.008	12069.87
749.2	12250.1
749.392	12610.54
749.584	12721.13
749.776	12450.8
749.968	12284.91
750.16	13091.81
750.352	12420.08
750.544	12305.39
750.736	12301.29
750.928	12581.87
751.12	12497.9
751.311	12411.89
751.503	12174.32
751.695	12536.81
751.887	12444.65
752.079	11918.32
752.271	12182.51
752.463	13206.5
752.654	12592.11
752.846	12207.09
753.038	12157.94
753.23	12264.43
753.421	12467.18
753.613	11887.61
753.805	12418.03
753.997	12702.7
754.188	12669.93
754.38	11768.82
754.572	12176.37
754.763	12223.47
754.955	12164.08
755.146	12024.82
755.338	12067.83
755.53	12194.8
755.721	12123.12
755.913	11674.62
756.104	11774.97
756.296	12057.59
756.487	12319.73
756.679	11820.02
756.87	11889.65
757.062	11895.8
757.253	12123.12
757.445	12084.21
757.636	12231.66
757.827	11912.18
758.019	12995.56
758.21	11856.89
758.401	11967.48
758.593	12538.86
758.784	12327.92
758.975	11553.79
759.167	11658.23
759.358	11922.42
759.549	12233.71
759.74	11721.72
759.932	11736.06
760.123	12215.28
760.314	11707.38
760.505	11621.37
760.696	11709.43
760.888	12481.52
761.079	11750.39
761.27	11668.47
761.461	11324.41
761.652	12045.3
761.843	11863.03
762.034	11578.36
762.225	11840.5
762.416	11856.89
762.607	11518.97
762.798	11482.11
762.989	11473.92
763.18	12381.17
763.371	11734.01
763.562	11588.6
763.753	11447.29
763.944	11910.13
764.135	12039.15
764.326	11482.11
764.517	11473.92
764.708	11637.75
764.899	11813.88
765.089	11211.78
765.28	11168.77
765.471	11697.14
765.662	11734.01
765.853	11318.27
766.043	11109.38
766.234	11811.83
766.425	11471.87
766.615	11287.55
766.806	11070.47
766.997	12004.34
767.187	11498.49
767.378	11205.63
767.569	11064.32
767.759	11547.64
767.95	11525.11
768.141	11473.92
768.331	11004.93
768.522	11203.58
768.712	11582.46
768.903	11174.91
769.093	11146.24
769.284	11576.31
769.474	11408.38
769.665	10857.48
769.855	10793.99
770.046	11523.07
770.236	11338.75
770.426	11131.9
770.617	11041.79
770.807	11408.38
770.998	11172.86
771.188	11246.59
771.378	10988.55
771.569	11441.15
771.759	11375.61
771.949	10722.31
772.139	10664.97
772.33	11078.66
772.52	11701.24
772.71	10931.2
772.9	10675.21
773.09	11482.11
773.281	11289.6
773.471	10664.97
773.661	10726.41
773.851	11172.86
774.041	10998.79
774.231	10900.48
774.421	10785.8
774.611	11389.95
774.802	11330.56
774.992	10765.32
775.182	10503.18
775.372	11060.23
775.562	11207.68
775.752	10720.26
775.942	10648.58
776.131	11219.97
776.321	10970.12
776.511	10599.43
776.701	10265.61
776.891	11138.05
777.081	10646.54
777.271	10691.59
777.461	10394.64
777.651	10884.1
777.84	10724.36
778.03	10550.28
778.22	10667.02
778.41	11123.71
778.599	10552.33
778.789	10537.99
778.979	10181.65
779.169	10857.48
779.358	10750.98
779.548	10652.68
779.738	10210.32
779.927	10609.67
780.117	10478.6
780.307	10157.07
780.496	10105.87
780.686	10765.32
780.875	11125.76
781.065	10228.75
781.254	10404.88
781.444	10617.86
781.633	10642.44
781.823	10259.47
782.012	10038.29
782.202	10404.88
782.391	10552.33
782.581	10249.23
782.77	10486.79
782.96	10855.43
783.149	10198.03
783.338	10220.56
783.528	10017.81
783.717	10750.98
783.906	10726.41
784.096	10267.66
784.285	10208.27
784.474	10390.54
784.663	10214.41
784.853	10218.51
785.042	10183.7
785.231	10257.42
785.42	10615.82
785.61	10216.46
785.799	9870.36
785.988	10040.34
786.177	10179.6
786.366	9933.84
786.555	10152.98
786.744	10517.51
786.933	10290.19
787.122	10001.43
787.312	9972.75
787.501	9845.78
787.69	10347.53
787.879	9921.56
788.068	9841.68
788.257	10015.76
788.445	9974.8
788.634	9921.56
788.823	9853.97
789.012	10730.5
789.201	10468.36
789.39	9690.13
789.579	9542.68
789.768	9987.09
789.957	10169.36
790.145	9569.3
790.334	9634.84
790.523	9829.4
790.712	9753.62
790.9	9778.2
791.089	9667.61
791.278	10310.67
791.467	9843.73
791.655	9952.27
791.844	9976.85
792.033	9692.18
792.221	9714.71
792.41	9491.48
792.599	9421.85
792.787	9982.99
792.976	10112.02
793.164	9315.36
793.353	9524.25
793.541	10101.78
793.73	10013.71
793.918	9753.62
794.107	9495.58
794.295	9784.34
794.484	9876.5
794.672	9616.41
794.861	9575.45
795.049	9786.39
795.238	10202.13
795.426	9413.66
795.614	9456.67
795.803	9858.07
795.991	10101.78
796.179	9395.23
796.368	9368.6
796.556	10036.24
796.744	9454.62
796.932	9509.91
797.121	9268.25
797.309	9751.57
797.497	9856.02
797.685	9337.88
797.874	9477.15
798.062	9647.13
798.25	10048.53
798.438	9219.1
798.626	9415.71
798.814	9747.48
799.002	10195.98
799.19	9704.47
799.378	9565.21
799.566	9792.53
799.755	10038.29
799.943	9628.7
800.131	9432.09
800.318	9557.02
800.506	9849.88
800.694	9298.97
800.882	9440.28
801.07	9880.6
801.258	9804.82
801.446	9505.82
801.634	9450.52
801.822	9593.88
802.01	9729.05
802.197	9344.03
802.385	9632.79
802.573	9681.94
802.761	9364.51
802.949	9575.45
803.136	9198.62
803.324	10097.68
803.512	9989.14
803.699	9479.19
803.887	9102.37
804.075	9903.12
804.262	9577.5
804.45	9350.17
804.638	9364.51
804.825	9755.67
805.013	9559.06
805.201	9610.26
805.388	9292.83
805.576	9645.08
805.763	9995.28
805.951	9468.95
806.138	9462.81
806.326	10316.81
806.513	9896.98
806.701	9520.15
806.888	9434.14
807.075	9862.16
807.263	10308.62
807.45	9503.77
807.638	9544.73
807.825	10064.91
808.012	9798.68
808.2	9374.75
808.387	9985.04
808.574	9808.92
808.761	10400.78
808.949	9438.23
809.136	9511.96
809.323	9522.2
809.51	9944.08
809.698	9833.49
809.885	9784.34
810.072	9892.88
810.259	10023.95
810.446	9661.46
810.633	9475.1
810.82	10187.79
811.008	10036.24
811.195	9679.89
811.382	9593.88
811.569	10066.96
811.756	9384.99
811.943	9612.31
812.13	9534.49
812.317	9501.72
812.504	9755.67
812.691	9675.8
812.878	9759.77
813.064	10251.28
813.251	9982.99
813.438	9573.4
813.625	9858.07
813.812	10021.91
813.999	9911.32
814.186	9823.25
814.372	9810.96
814.559	9954.32
814.746	10290.19
814.933	9499.67
815.12	9597.98
815.306	9550.87
815.493	9450.52
815.68	9540.63
815.866	9479.19
816.053	10230.8
816.24	10187.79
816.426	9864.21
816.613	9444.38
816.799	9933.84
816.986	10130.45
817.173	9380.89
817.359	9557.02
817.546	9806.87
817.732	9440.28
817.919	9075.74
818.105	9770.01
818.292	9595.93
818.478	9882.64
818.665	9694.23
818.851	9325.6
819.037	10509.32
819.224	9804.82
819.41	9151.52
819.597	9118.75
819.783	10071.06
819.969	10015.76
820.156	9628.7
820.342	9446.43
820.528	10515.47
820.714	9579.54
820.901	9628.7
821.087	9413.66
821.273	9987.09
821.459	9438.23
821.646	9419.8
821.832	9628.7
822.018	9714.71
822.204	9675.8
822.39	9583.64
822.576	9384.99
822.762	9837.59
822.948	9587.74
823.134	9624.6
823.32	9507.87
823.507	9423.9
823.693	9595.93
823.879	9759.77
824.065	9323.55
824.25	9782.29
824.436	9389.08
824.622	9348.12
824.808	9307.16
824.994	9610.26
825.18	9356.32
825.366	9139.23
825.552	9167.9
825.738	9368.6
825.923	9727
826.109	9286.68
826.295	9100.32
826.481	9389.08
826.667	9161.76
826.852	9253.92
827.038	9126.94
827.224	9688.09
827.409	9880.6
827.595	8873
827.781	9014.31
827.966	9675.8
828.152	9866.26
828.338	9204.77
828.523	8776.74
828.709	9249.82
828.894	9565.21
829.08	9057.31
829.266	8997.92
829.451	9106.46
829.637	9602.07
829.822	9192.48
830.008	8942.63
830.193	9249.82
830.378	9647.13
830.564	9217.05
830.749	8719.4
830.935	9354.27
831.12	9323.55
831.305	8909.86
831.491	8870.95
831.676	8782.88
831.861	9362.46
832.047	8782.88
832.232	8811.56
832.417	9243.68
832.602	9092.13
832.788	8791.08
832.973	8709.16
833.158	9112.61
833.343	8916
833.528	8961.06
833.714	8813.6
833.899	9206.81
834.084	9440.28
834.269	8801.32
834.454	8807.46
834.639	9233.44
834.824	9141.28
835.009	8866.85
835.194	8670.25
835.379	9352.22
835.564	9118.75
835.749	8799.27
835.934	8621.1
836.119	9321.5
836.304	8750.12
836.489	8674.34
836.674	9059.36
836.859	8776.74
837.044	9190.43
837.228	8678.44
837.413	8543.27
837.598	8924.19
837.783	9153.57
837.968	8586.28
838.152	8494.12
838.337	8457.26
838.522	8983.59
838.707	9049.12
838.891	8606.76
839.076	8784.93
839.261	9077.79
839.445	8653.86
839.63	8619.05
839.815	8924.19
839.999	8635.43
840.184	8295.47
840.368	8379.43
840.553	8907.81
840.737	8926.24
840.922	8326.19
841.106	8311.85
841.291	8320.04
841.475	8836.13
841.66	8148.01
841.844	8541.22
842.029	9421.85
842.213	8326.19
842.397	8242.22
842.582	8072.24
842.766	8913.95
842.951	8746.02
843.135	8285.23
843.319	8465.45
843.504	8561.7
843.688	8653.86
843.872	8113.2
844.056	8252.46
844.241	8846.37
844.425	8600.62
844.609	8442.92
844.793	7887.92
844.977	8670.25
845.161	8391.72
845.346	8090.67
845.53	8127.53
845.714	8569.9
845.898	8782.88
846.082	7826.48
846.266	8170.54
846.45	8326.19
846.634	8309.8
846.818	7998.51
847.002	8135.73
847.186	8393.77
847.37	8027.18
847.554	7918.64
847.738	8186.93
847.922	8238.12
848.106	8352.81
848.29	7857.2
848.473	8053.81
848.657	8504.36
848.841	8172.59
849.025	7978.03
849.209	7881.78
849.392	8258.6
849.576	8168.49
849.76	7672.89
849.944	8031.28
850.127	8528.94
850.311	7795.76
850.495	7664.69
850.678	7760.95
850.862	8383.53
851.046	8504.36
851.229	8006.7
851.413	7664.69
851.596	7957.55
851.78	8045.62
851.964	8021.04
852.147	7863.35
852.331	8715.3
852.514	8399.91
852.698	7760.95
852.881	7517.24
853.065	8242.22
853.248	8053.81
853.431	7787.57
853.615	7783.48
853.798	8588.33
853.982	7994.42
854.165	7932.98
854.348	7709.75
854.532	7785.52
854.715	7900.21
854.898	7703.61
855.081	7685.17
855.265	8215.6
855.448	8262.7
855.631	7281.72
855.814	7705.65
855.997	8205.36
856.181	7834.68
856.364	7619.64
856.547	7652.41
856.73	7935.03
856.913	7814.2
857.096	7332.92
857.279	7619.64
857.462	7656.5
857.645	8213.55
857.828	7722.04
858.011	7476.28
858.194	7633.97
858.377	8094.77
858.56	7468.09
858.743	7486.52
858.926	7515.19
859.109	7806
859.292	7431.23
859.475	7240.76
859.658	8066.1
859.841	7867.44
860.023	7259.2
860.206	7246.91
860.389	7609.4
860.572	7803.96
860.755	7396.41
860.937	7320.63
861.12	7472.18
861.303	7580.73
861.486	7279.68
861.668	7210.04
861.851	7672.89
862.034	7627.83
862.216	7246.91
862.399	7169.09
862.581	7400.51
862.764	7658.55
862.947	7208
863.129	7173.18
863.312	7259.2
863.494	7740.47
863.677	7373.88
863.859	6855.75
864.042	7404.6
864.224	7693.37
864.406	7128.13
864.589	6876.23
864.771	7496.76
864.954	6784.07
865.136	6982.72
865.318	6908.99
865.501	7365.69
865.683	6917.19
865.865	6919.23
866.048	6712.39
866.23	7255.1
866.412	7128.13
866.594	6769.73
866.777	7095.36
866.959	7453.75
867.141	6894.66
867.323	7246.91
867.505	7193.66
867.687	7132.22
867.869	7351.35
868.052	7054.4
868.234	6730.82
868.416	7040.06
868.598	7189.56
868.78	6661.19
868.962	6798.4
869.144	7341.11
869.326	7203.9
869.508	6775.88
869.69	6650.95
869.872	6894.66
870.054	7361.59
870.236	6609.99
870.417	6685.76
870.599	7033.92
870.781	7435.32
870.963	6911.04
871.145	6685.76
871.327	6667.33
871.508	7230.52
871.69	6964.29
871.872	6933.57
872.054	7253.05
872.235	7060.54
872.417	6669.38
872.599	6624.33
872.78	7580.73
872.962	7046.21
873.144	6714.44
873.325	6724.68
873.507	7558.2
873.689	7128.13
873.87	6499.4
874.052	6763.59
874.233	6962.24
874.415	7332.92
874.596	6968.38
874.778	6650.95
874.959	6843.46
875.141	7416.89
875.322	6857.79
875.503	6644.81
875.685	6960.19
875.866	6653
876.048	6534.21
876.229	6556.74
876.41	7021.63
876.592	7044.16
876.773	6685.76
876.954	6464.58
877.136	7423.03
877.317	6947.9
877.498	6751.3
877.679	6790.21
877.86	7128.13
878.042	6964.29
878.223	6706.24
878.404	7001.15
878.585	7232.57
878.766	7423.03
878.947	6964.29
879.128	6915.14
879.309	7132.22
879.49	7238.72
879.672	6902.85
879.853	6962.24
880.034	6888.51
880.215	7058.49
880.396	6915.14
880.576	6829.12
880.757	6784.07
880.938	7414.84
881.119	6820.93
881.3	6810.69
881.481	7130.17
881.662	8055.86
881.843	6843.46
882.023	6759.49
882.204	7261.24
882.385	7222.33
882.566	6892.61
882.747	6917.19
882.927	7316.54
883.108	7259.2
883.289	6966.34
883.469	7164.99
883.65	6931.52
883.831	7193.66
884.011	7199.8
884.192	7056.45
884.373	7466.04
884.553	7380.03
884.734	7242.81
884.914	7466.04
885.095	7963.7
885.275	7681.08
885.456	7468.09
885.636	6974.53
885.817	7210.04
885.997	7384.12
886.178	7119.93
886.358	7038.02
886.538	7339.07
886.719	8549.42
886.899	7169.09
887.08	7263.29
887.26	7724.08
887.44	7189.56
887.621	7066.69
887.801	7269.44
887.981	7975.98
888.161	7556.15
888.342	7251
888.522	7152.7
888.702	7554.1
888.882	7670.84
889.062	7357.5
889.242	7128.13
889.423	7900.21
889.603	7685.17
889.783	7328.83
889.963	7083.07
890.143	7914.55
890.323	7685.17
890.503	7277.63
890.683	7201.85
890.863	7617.59
891.043	7490.62
891.223	7308.35
891.403	7357.5
891.583	7582.77
891.763	7390.27
891.943	7181.37
892.122	7183.42
892.302	7541.82
892.482	7414.84
892.662	7341.11
892.842	7226.43
893.022	7390.27
893.201	7212.09
893.381	7283.77
893.561	7195.71
893.741	7687.22
893.92	7519.29
894.1	7349.31
894.28	7431.23
894.459	7717.94
894.639	7463.99
894.819	7324.73
894.998	7324.73
895.178	7521.34
895.357	7603.25
895.537	7062.59
895.716	7040.06
895.896	7392.31
896.075	7711.8
896.255	7083.07
896.434	6900.8
896.614	7617.59
896.793	7687.22
896.973	7287.87
897.152	7158.85
897.331	7343.16
897.511	7492.66
897.69	6952
897.87	7210.04
898.049	7353.4
898.228	7330.87
898.407	7359.55
898.587	7263.29
898.766	7040.06
898.945	7496.76
899.124	7101.5
899.304	7072.83
899.483	7310.4
899.662	7681.08
899.841	6972.48
900.02	6829.12
900.199	7296.06
900.378	7246.91
900.557	6720.58
900.737	6642.76
900.916	7087.17
901.095	7177.28
901.274	7132.22
901.453	6603.85
901.632	7066.69
901.811	6784.07
901.989	6663.24
902.168	6702.15
902.347	7298.11
902.526	6575.17
902.705	6730.82
902.884	6571.08
903.063	7234.62
903.242	6990.91
903.42	6421.58
903.599	6540.36
903.778	6845.51
903.957	7117.89
904.135	6665.28
904.314	6380.62
904.493	6730.82
904.672	6980.67
904.85	6435.91
905.029	6253.64
905.207	6517.83
905.386	7177.28
905.565	6169.68
905.743	6001.74
905.922	6175.82
906.1	6710.34
906.279	6098
906.457	6034.51
906.636	6335.56
906.814	6270.03
906.993	6071.37
907.171	5944.4
907.35	6263.88
907.528	6319.18
907.707	6106.19
907.885	5846.1
908.063	6511.69
908.242	5971.02
908.42	5839.95
908.598	5692.5
908.777	6128.72
908.955	5721.17
909.133	5993.55
909.311	5653.59
909.49	5915.73
909.668	6214.73
909.846	5882.96
910.024	5702.74
910.202	6098
910.38	6292.55
910.559	5911.63
910.737	5971.02
910.915	6339.66
911.093	6392.91
911.271	6081.61
911.449	6263.88
911.627	6526.02
911.805	6892.61
911.983	5948.5
912.161	5997.65
912.339	6452.3
912.517	6792.26
912.695	6284.36
912.872	6067.28
913.05	6235.21
913.228	6296.65
913.406	6194.25
913.584	6098
913.762	6489.16
913.939	6102.09
914.117	5997.65
914.295	6190.16
914.473	6493.26
914.65	6566.98
914.828	6116.43
915.006	6087.76
915.184	6022.22
915.361	6435.91
915.539	6370.38
915.716	6302.79
915.894	6216.78
916.072	6485.06
916.249	6317.13
916.427	6116.43
916.604	6028.37
916.782	6413.38
916.959	5823.57
917.137	5915.73
917.314	6122.57
917.492	6292.55
917.669	6030.41
917.847	5993.55
918.024	6257.74
918.201	6155.34
918.379	5833.81
918.556	5915.73
918.733	6321.23
918.911	6161.48
919.088	6263.88
919.265	5956.69
919.442	6243.4
919.62	6151.24
919.797	5778.51
919.974	5682.26
920.151	6272.07
920.328	6167.63
920.506	5809.23
920.683	6247.5
920.86	5852.24
921.037	5790.8
921.214	5844.05
921.391	5694.55
921.568	6321.23
921.745	5866.58
921.922	5813.33
922.099	5626.96
922.276	6089.81
922.453	6077.52
922.63	5618.77
922.807	6136.91
922.984	6126.67
923.161	5682.26
923.338	5762.13
923.514	5483.61
923.691	6057.04
923.868	5944.4
924.045	5540.95
924.222	5604.44
924.399	5958.74
924.575	6237.26
924.752	5692.5
924.929	5620.82
925.105	6050.89
925.282	5608.53
925.459	5674.07
925.635	5499.99
925.812	5772.37
925.989	5796.95
926.165	5758.03
926.342	5198.94
926.518	5645.4
926.695	5583.96
926.871	5350.49
927.048	5385.3
927.224	5833.81
927.401	5614.68
927.577	5360.73
927.754	5248.09
927.93	5708.88
928.107	5819.47
928.283	5332.06
928.459	5409.88
928.636	5657.68
928.812	5442.65
928.988	5256.28
929.165	4924.51
929.341	5389.4
929.517	5409.88
929.693	5510.23
929.87	4904.03
930.046	5674.07
930.222	5117.02
930.398	5102.68
930.574	5188.7
930.751	5137.5
930.927	5069.92
931.103	5108.83
931.279	5045.34
931.455	4998.24
931.631	5106.78
931.807	4637.8
931.983	4797.54
932.159	4678.76
932.335	5133.4
932.511	4736.1
932.687	4777.06
932.863	5153.88
933.039	4985.95
933.215	4508.77
933.391	4596.84
933.566	4871.26
933.742	4938.85
933.918	4588.64
934.094	4236.39
934.27	4830.3
934.445	4852.83
934.621	4523.11
934.797	4406.38
934.973	4908.13
935.148	4762.72
935.324	4142.19
935.5	4115.56
935.675	4662.37
935.851	4527.21
936.027	4148.33
936.202	4164.72
936.378	4387.94
936.553	4183.15
936.729	4338.79
936.904	3736.69
937.08	3732.59
937.255	3929.2
937.431	3677.3
937.606	3521.65
937.782	3636.34
937.957	3695.73
938.133	3638.39
938.308	3323
938.483	3642.48
938.659	3355.77
938.834	3515.51
939.009	3269.75
939.185	3396.73
939.36	3273.85
939.535	2729.09
939.71	3349.62
939.886	3601.52
940.061	3443.83
940.236	3171.45
940.411	3069.05
940.586	3517.56
940.761	3232.89
940.937	2811.01
941.112	2720.9
941.287	3224.7
941.462	3077.24
941.637	2632.83
941.812	2942.08
941.987	3116.16
942.162	3011.71
942.337	2929.79
942.512	2825.34
942.687	3275.9
942.862	3058.81
943.037	2577.54
943.212	2374.79
943.386	2733.18
943.561	2706.56
943.736	2956.41
943.911	2987.13
944.086	3030.14
944.26	2847.87
944.435	2616.45
944.61	2706.56
944.785	2976.89
944.959	3259.51
945.134	2612.35
945.309	2555.01
945.483	2714.75
945.658	3122.3
945.833	2270.34
946.007	2444.42
946.182	3290.23
946.357	2712.71
946.531	2573.44
946.706	2602.11
946.88	2479.24
947.055	3040.38
947.229	2782.34
947.404	2591.88
947.578	3069.05
947.752	2839.68
947.927	2583.68
948.101	2505.86
948.276	3036.28
948.45	3044.48
948.624	2997.37
948.799	2616.45
948.973	2935.93
949.147	2688.13
949.321	2794.62
949.496	2661.51
949.67	3173.5
949.844	2845.82
950.018	2776.19
950.193	2663.55
950.367	3464.31
950.541	2847.87
950.715	2970.75
950.889	3081.34
951.063	3040.38
951.237	3310.71
951.411	2624.64
951.585	2731.14
951.759	3210.36
951.933	3009.66
952.107	2759.81
952.281	3005.56
952.455	3497.08
952.629	3255.42
952.803	2802.82
952.977	2868.35
953.151	3259.51
953.325	3212.41
953.499	3005.56
953.672	2706.56
953.846	2905.21
954.02	3134.59
954.194	2888.83
954.368	2729.09
954.541	3288.18
954.715	2970.75
954.889	3071.1
955.062	2913.41
955.236	3187.83
955.41	3177.59
955.583	3173.5
955.757	2722.95
955.93	3097.72
956.104	2903.17
956.278	2958.46
956.451	2978.94
956.625	3343.48
956.798	3525.75
956.972	3306.62
957.145	2962.56
957.319	3267.7
957.492	3226.75
957.665	3167.35
957.839	2952.32
958.012	3294.33
958.185	3179.64
958.359	3060.86
958.532	3218.55
958.705	3480.69
958.879	3318.9
959.052	3081.34
959.225	2763.9
959.398	3204.22
959.572	3331.19
959.745	2907.26
959.918	3112.06
960.091	3183.74
960.264	3394.68
960.438	2942.08
960.611	2987.13
960.784	3429.49
960.957	2911.36
961.13	3392.63
961.303	2944.13
961.476	3236.99
961.649	3464.31
961.822	2905.21
961.995	2935.93
962.168	3394.68
962.341	3261.56
962.514	3040.38
962.686	2901.12
962.859	3212.41
963.032	3343.48
963.205	2950.27
963.378	2788.48
963.551	3325.05
963.723	3273.85
963.896	3095.68
964.069	2942.08
964.242	3171.45
964.414	3431.54
964.587	3064.96
964.76	2944.13
964.932	3161.21
965.105	3234.94
965.278	2960.51
965.45	2819.2
965.623	3228.79
965.795	3323
965.968	2966.65
966.14	2847.87
966.313	3032.19
966.485	3132.54
966.658	2954.37
966.83	2878.59
967.003	3490.93
967.175	3312.76
967.348	2925.69
967.52	2958.46
967.692	3564.66
967.865	3124.35
968.037	2937.98
968.209	3069.05
968.382	3048.57
968.554	3396.73
968.726	2841.73
968.898	2888.83
969.071	3165.31
969.243	3296.38
969.415	2911.36
969.587	2929.79
969.759	3452.02
969.932	3286.14
970.104	2972.8
970.276	2520.2
970.448	3024
970.62	2888.83
970.792	2925.69
970.964	2950.27
971.136	3515.51
971.308	3171.45
971.48	2858.11
971.652	2737.28
971.824	3501.17
971.996	3089.53
972.168	2819.2
972.339	2851.97
972.511	3294.33
972.683	2851.97
972.855	3130.49
973.027	2698.37
973.199	2991.23
973.37	3011.71
973.542	2819.2
973.714	2946.17
973.886	2909.31
974.057	3282.04
974.229	2608.26
974.401	2720.9
974.572	2729.09
974.744	2579.59
974.915	2800.77
975.087	2839.68
975.259	3310.71
975.43	2813.06
975.602	2794.62
975.773	2663.55
975.945	2686.08
976.116	3030.14
976.288	2577.54
976.459	2800.77
976.63	2688.13
976.802	2983.04
976.973	2763.9
977.145	2856.06
977.316	3341.43
977.487	2993.28
977.659	2724.99
977.83	2585.73
978.001	3327.1
978.172	2854.02
978.344	2638.98
978.515	2659.46
978.686	2716.8
978.857	3153.02
979.028	2751.62
979.2	2520.2
979.371	3060.86
979.542	2800.77
979.713	2796.67
979.884	2225.29
980.055	2606.21
980.226	2798.72
980.397	2557.06
980.568	2471.04
980.739	3021.95
980.91	2788.48
981.081	2616.45
981.252	2464.9
981.423	2854.02
981.594	2909.31
981.765	2407.56
981.936	2540.68
982.106	2790.53
982.277	2753.66
982.448	2434.18
982.619	2552.96
982.79	2692.23
982.96	2792.58
983.131	2565.25
983.302	2266.25
983.472	2442.37
983.643	2786.43
983.814	2600.07
983.984	2299.02
984.155	2577.54
984.326	2868.35
984.496	2544.77
984.667	2399.37
984.837	2462.85
985.008	2892.93
985.178	2499.72
985.349	2516.1
985.519	2440.33
985.69	2348.17
985.86	2360.45
986.031	2102.41
986.201	2485.38
986.371	2622.59
986.542	2206.86
986.712	2092.17
986.882	2532.48
987.053	2460.81
987.223	2139.27
987.393	2315.4
987.563	2362.5
987.734	2587.78
987.904	2589.83
988.074	2108.55
988.244	2548.87
988.414	2276.49
988.585	2126.99
988.755	2176.14
988.925	2290.82
989.095	2776.19
989.265	2051.21
989.435	2196.62
989.605	2491.52
989.775	2446.47
989.945	2397.32
990.115	1952.91
990.285	2354.31
990.455	2462.85
990.625	2188.43
990.795	1950.86
990.965	2673.79
991.134	2059.4
991.304	1975.44
991.474	2040.97
991.644	2444.42
991.814	2653.31
991.984	1873.04
992.153	1795.22
992.323	2223.24
992.493	2247.82
992.662	1774.74
992.832	2159.75
993.002	2290.82
993.171	2237.58
993.341	1883.28
993.511	1959.05
993.68	2079.88
993.85	2428.04
994.019	1787.02
994.189	1760.4
994.358	2043.02
994.528	2034.83
994.697	1655.95
994.867	1772.69
995.036	2215.05
995.206	1957
995.375	1717.39
995.544	2043.02
995.714	2237.58
995.883	1950.86
996.052	2081.93
996.222	1633.43
996.391	2462.85
996.56	2018.44
996.73	1623.19
996.899	1610.9
997.068	2475.14
997.237	1954.96
997.406	1727.63
997.576	1533.08
997.745	2169.99
997.914	2057.36
998.083	1410.2
998.252	1625.23
998.421	1926.29
998.59	1784.98
998.759	1596.56
998.928	1533.08
999.097	2241.67
999.266	2018.44
999.435	1651.86
999.604	1488.02
999.773	2395.27
999.942	1877.13
1000.111	1424.53
1000.28	1508.5
1000.448	1614.99
1000.617	1707.15
1000.786	1670.29
1000.955	1455.25
1001.124	1887.37
1001.292	2346.12
1001.461	1469.59
1001.63	1389.72
1001.798	2147.47
1001.967	2100.36
1002.136	1268.89
1002.304	1346.71
1002.473	1881.23
1002.642	1854.61
1002.81	1533.08
1002.979	1490.07
1003.147	2036.88
1003.316	2294.92
1003.484	1408.15
1003.653	1344.66
1003.821	2073.74
1003.99	1606.8
1004.158	1516.69
1004.327	1479.83
1004.495	1787.02
1004.663	1447.06
1004.832	1498.26
1005	1164.44
1005.168	1758.35
1005.337	1715.34
1005.505	1119.39
1005.673	1549.46
1005.842	1717.39
1006.01	1805.46
1006.178	1225.88
1006.346	1213.59
1006.514	1608.85
1006.683	1862.8
1006.851	1340.57
1007.019	1346.71
1007.187	1455.25
1007.355	1127.58
1007.523	959.64
1007.691	1139.87
1007.859	1309.85
1008.027	1784.98
1008.195	1279.13
1008.363	998.56
1008.531	1752.21
1008.699	1406.1
1008.867	1021.08
1009.035	1139.87
1009.203	1893.52
1009.37	1467.54
1009.538	1184.92
1009.706	1633.43
1009.874	1574.03
1010.042	1377.43
1010.209	1002.65
1010.377	1074.33
1010.545	1617.04
1010.713	1393.81
1010.88	1103
1011.048	1219.74
1011.216	1334.42
1011.383	1760.4
1011.551	1082.52
1011.718	920.73
1011.886	1670.29
1012.054	1330.33
1012.221	957.6
1012.389	1008.8
1012.556	1291.41
1012.724	1641.62
1012.891	1111.19
1013.058	808.09
1013.226	1500.31
1013.393	1457.3
1013.561	797.85
1013.728	857.25
1013.895	1526.93
1014.063	1426.58
1014.23	847.01
1014.397	861.34
1014.565	1508.5
1014.732	1262.74
1014.899	812.19
1015.066	789.66
1015.233	1318.04
1015.401	1420.44
1015.568	1016.99
1015.735	1066.14
1015.902	1223.83
1016.069	1242.26
1016.236	879.77
1016.403	830.62
1016.57	1014.94
1016.737	1383.57
1016.904	918.68
1017.071	701.6
1017.238	1084.57
1017.405	1408.15
1017.572	887.97
1017.739	1090.71
1017.906	1262.74
1018.073	1369.24
1018.24	691.36
1018.407	844.96
1018.573	1426.58
1018.74	1094.81
1018.907	879.77
1019.074	560.29
1019.241	1291.41
1019.407	1221.78
1019.574	693.41
1019.741	619.68
1019.907	1150.11
1020.074	1242.26
1020.241	466.08
1020.407	607.39
1020.574	1240.22
1020.74	1340.57
1020.907	634.02
1021.073	670.88
1021.24	1576.08
1021.406	1264.79
1021.573	529.57
1021.739	730.27
1021.906	1246.36
1022.072	967.84
1022.239	736.42
1022.405	693.41
1022.571	990.36
1022.738	906.4
1022.904	599.2
1023.07	787.61
1023.237	1105.05
1023.403	1313.94
1023.569	664.74
1023.735	672.93
1023.902	1066.14
1024.068	978.08
1024.234	525.47
1024.4	623.78
1024.566	971.93
1024.732	1189.02
1024.898	625.83
1025.065	468.13
1025.231	1131.67
1025.397	724.13
1025.563	603.3
1025.729	494.76
1025.895	603.3
1026.061	701.6
1026.227	371.88
1026.392	574.63
1026.558	1246.36
1026.724	1021.08
1026.89	472.23
1027.056	672.93
1027.222	1084.57
1027.388	847.01
1027.553	502.95
1027.719	470.18
1027.885	1246.36
1028.051	996.51
1028.216	398.5
1028.382	638.11
1028.548	1131.67
1028.713	877.73
1028.879	408.74
1029.045	629.92
1029.21	1238.17
1029.376	1082.52
1029.541	619.68
1029.707	652.45
1029.873	963.74
1030.038	1115.29
1030.204	529.57
1030.369	480.42
1030.534	1043.61
1030.7	650.4
1030.865	449.7
1031.031	410.79
1031.196	978.08
1031.361	926.88
1031.527	414.88
1031.692	431.27
1031.857	470.18
1032.023	984.22
1032.188	359.59
1032.353	496.8
1032.518	1199.26
1032.684	855.2
1032.849	226.47
1033.014	439.46
1033.179	973.98
1033.344	885.92
1033.509	548
1033.674	388.26
1033.839	918.68
1034.004	881.82
1034.17	466.08
1034.335	242.85
1034.5	730.27
1034.664	627.87
1034.829	332.97
1034.994	412.84
1035.159	849.05
1035.324	844.96
1035.489	423.08
1035.654	367.78
1035.819	1070.23
1035.984	769.18
1036.148	445.6
1036.313	365.73
1036.478	1043.61
1036.643	804
1036.807	322.73
1036.972	296.1
1037.137	1105.05
1037.301	658.59
1037.466	156.84
1037.631	453.8
1037.795	902.3
1037.96	771.23
1038.124	484.52
1038.289	238.76
1038.454	881.82
1038.618	830.62
1038.783	414.88
1038.947	394.4
1039.111	795.81
1039.276	697.5
1039.44	365.73
1039.605	814.24
1039.769	640.16
1039.933	609.44
1040.098	357.54
1040.262	527.52
1040.426	873.63
1040.591	828.57
1040.755	214.18
1040.919	253.09
1041.083	830.62
1041.248	672.93
1041.412	146.6
1041.576	173.22
1041.74	603.3
1041.904	910.49
1042.068	136.36
1042.232	361.64
1042.397	879.77
1042.561	754.85
1042.725	23.72
1042.889	513.19
1043.053	941.21
1043.217	777.37
1043.381	447.65
1043.544	193.7
1043.708	1057.95
1043.872	355.49
1044.036	-13.14
1044.2	134.31
1044.364	890.01
1044.528	1031.32
1044.691	3568.76
1044.855	165.03
1045.019	959.64
1045.183	758.94
1045.346	261.29
1045.51	152.74
1045.674	781.47
1045.837	814.24
1046.001	249
1046.165	261.29
1046.328	1127.58
1046.492	656.54
1046.655	500.9
1046.819	337.06
1046.983	521.38
1047.146	746.66
1047.31	302.25
1047.473	13.48
1047.636	640.16
1047.8	429.22
1047.963	179.37
1048.127	144.55
1048.29	418.98
