Data from Hydrogel_Ink_Intensity_Test_1_USB4F045381__70__00070.txt Node

Date: Mon Jul 31 10:54:15 EDT 2023
User: mmckonesweet
Spectrometer: USB4F04538
Trigger mode: 4
Integration Time (sec): 9.000000E-1
Scans to average: 1
Electric dark correction enabled: true
Nonlinearity correction enabled: false
Boxcar width: 0
XAxis mode: Wavelengths
Number of Pixels in Spectrum: 3648
>>>>>Begin Spectral Data<<<<<
345.52	-998.9
345.736	-998.9
345.952	-998.9
346.168	-1039.86
346.384	-957.94
346.6	-159.23
346.816	-257.53
347.032	-206.33
347.248	262.65
347.464	-183.81
347.68	-50.69
347.896	74.24
348.112	360.95
348.328	-83.45
348.544	-73.21
348.76	23.04
348.975	293.37
349.191	-253.44
349.407	-153.09
349.623	41.47
349.839	-22.02
350.055	-138.75
350.27	68.09
350.486	244.22
350.702	354.81
350.918	213.5
351.133	-212.48
351.349	164.35
351.565	432.63
351.781	-237.05
351.996	68.09
352.212	283.13
352.428	-128.51
352.644	-171.52
352.859	-181.76
353.075	279.04
353.291	-7.68
353.506	-36.35
353.722	-155.13
353.938	-128.51
354.153	401.91
354.369	70.14
354.584	-306.68
354.8	215.55
355.016	-323.07
355.231	-216.57
355.447	-126.46
355.662	55.81
355.878	811.51
356.093	-366.07
356.309	-52.74
356.524	-196.09
356.74	293.37
356.955	-151.04
357.171	45.57
357.386	242.17
357.602	-185.85
357.817	-65.02
358.033	-198.14
358.248	422.39
358.464	270.84
358.679	-171.52
358.895	-359.93
359.11	86.53
359.325	340.47
359.541	199.16
359.756	18.94
359.972	-216.57
360.187	123.39
360.402	-243.2
360.618	-208.38
360.833	1067.5
361.048	92.67
361.264	-189.95
361.479	-48.64
361.694	78.33
361.909	229.88
362.125	-228.86
362.34	-83.45
362.555	299.52
362.77	92.67
362.986	-267.77
363.201	-108.03
363.416	264.7
363.631	64
363.847	-185.85
364.062	-204.28
364.277	227.84
364.492	109.05
364.707	-134.65
364.922	-349.69
365.138	246.27
365.353	279.04
365.568	-200.19
365.783	-110.08
365.998	10.75
366.213	651.77
366.428	-331.26
366.643	102.91
366.858	219.64
367.073	227.84
367.288	-34.3
367.503	-253.44
367.718	178.69
367.933	430.59
368.148	-269.82
368.363	-60.93
368.578	-28.16
368.793	522.74
369.008	-165.37
369.223	-257.53
369.438	281.08
369.653	371.19
369.868	-253.44
370.083	-220.67
370.298	68.09
370.513	369.15
370.728	4.61
370.943	-202.24
371.157	-148.99
371.372	479.74
371.587	-261.63
371.802	-306.68
372.017	158.21
372.232	379.39
372.446	25.09
372.661	-290.3
372.876	320
373.091	217.6
373.306	-81.41
373.52	-218.62
373.735	-155.13
373.95	410.11
374.165	-110.08
374.379	-120.32
374.594	-60.93
374.809	182.78
375.023	4.61
375.238	-237.05
375.453	219.64
375.667	-247.29
375.882	-151.04
376.097	-179.71
376.311	41.47
376.526	18.94
376.741	-194.05
376.955	102.91
377.17	514.55
377.384	569.85
377.599	-101.89
377.813	-237.05
378.028	676.34
378.242	229.88
378.457	-48.64
378.672	-304.64
378.886	199.16
379.101	-9.73
379.315	-275.96
379.53	-122.37
379.744	270.84
379.958	299.52
380.173	-163.33
380.387	-54.78
380.602	170.49
380.816	-110.08
381.031	-153.09
381.245	-91.65
381.459	174.59
381.674	2695.64
381.888	-151.04
382.103	150.01
382.317	-163.33
382.531	481.78
382.746	-19.97
382.96	-116.22
383.174	-7.68
383.388	463.35
383.603	80.38
383.817	-261.63
384.031	182.78
384.246	426.49
384.46	35.33
384.674	340.47
384.888	64
385.103	94.72
385.317	-192
385.531	-103.93
385.745	432.63
385.959	350.71
386.174	-134.65
386.388	-169.47
386.602	57.86
386.816	-30.21
387.03	-130.56
387.244	-7.68
387.458	94.72
387.672	428.54
387.887	-194.05
388.101	-259.58
388.315	387.58
388.529	233.98
388.743	-146.94
388.957	-228.86
389.171	420.35
389.385	-112.13
389.599	-67.07
389.813	68.09
390.027	125.44
390.241	721.4
390.455	-69.12
390.669	-30.21
390.883	49.66
391.097	455.16
391.311	29.18
391.525	-179.71
391.738	256.51
391.952	213.5
392.166	64
392.38	-169.47
392.594	387.58
392.808	354.81
393.022	-112.13
393.236	-118.27
393.449	344.57
393.663	225.79
393.877	-298.49
394.091	-140.8
394.305	31.23
394.518	31.23
394.732	-116.22
394.946	-62.98
395.16	520.7
395.373	123.39
395.587	-120.32
395.801	-144.89
396.015	451.07
396.228	268.8
396.442	-173.57
396.656	-265.72
396.869	369.15
397.083	561.66
397.297	-79.36
397.51	-103.93
397.724	416.25
397.938	205.31
398.151	-235
398.365	-224.76
398.578	223.74
398.792	451.07
399.005	59.9
399.219	-87.55
399.433	209.4
399.646	295.42
399.86	57.86
400.073	109.05
400.287	317.95
400.5	61.95
400.714	20.99
400.927	-5.63
401.141	311.8
401.354	1159.66
401.567	270.84
401.781	-183.81
401.994	324.09
402.208	647.67
402.421	35.33
402.635	-54.78
402.848	53.76
403.061	367.1
403.275	-46.59
403.488	-110.08
403.701	487.93
403.915	344.57
404.128	94.72
404.341	-62.98
404.555	254.46
404.768	82.43
404.981	100.86
405.195	-161.28
405.408	518.65
405.621	299.52
405.834	100.86
406.048	-196.09
406.261	504.31
406.474	567.8
406.687	-138.75
406.9	109.05
407.114	156.16
407.327	373.24
407.54	-138.75
407.753	-185.85
407.966	45.57
408.179	336.38
408.392	-44.54
408.605	-245.24
408.819	244.22
409.032	303.61
409.245	-81.41
409.458	111.1
409.671	338.43
409.884	475.64
410.097	-155.13
410.31	121.34
410.523	307.71
410.736	133.63
410.949	2.56
411.162	-40.45
411.375	516.6
411.588	449.02
411.801	66.05
412.014	-65.02
412.227	150.01
412.44	66.05
412.653	-73.21
412.865	90.62
413.078	365.05
413.291	272.89
413.504	-15.87
413.717	-62.98
413.93	342.52
414.143	16.9
414.356	-58.88
414.568	-210.43
414.781	506.36
414.994	293.37
415.207	76.29
415.42	-71.17
415.632	393.72
415.845	594.42
416.058	-230.91
416.271	-171.52
416.483	260.6
416.696	596.47
416.909	-46.59
417.121	-81.41
417.334	354.81
417.547	676.34
417.759	-81.41
417.972	-73.21
418.185	-19.97
418.397	332.28
418.61	10.75
418.823	-130.56
419.035	549.37
419.248	313.85
419.46	29.18
419.673	-24.06
419.885	301.56
420.098	324.09
420.311	-62.98
420.523	-257.53
420.736	279.04
420.948	168.45
421.161	94.72
421.373	-253.44
421.586	193.02
421.798	35.33
422.01	-204.28
422.223	160.25
422.435	90.62
422.648	442.87
422.86	-32.26
423.073	-38.4
423.285	424.44
423.497	-32.26
423.71	14.85
423.922	-144.89
424.134	403.96
424.347	639.48
424.559	188.93
424.771	336.38
424.984	168.45
425.196	299.52
425.408	-110.08
425.621	-134.65
425.833	475.64
426.045	543.22
426.257	-161.28
426.47	78.33
426.682	254.46
426.894	401.91
427.106	8.7
427.318	-9.73
427.531	16.9
427.743	377.34
427.955	10.75
428.167	459.26
428.379	420.35
428.591	150.01
428.804	139.77
429.016	-52.74
429.228	193.02
429.44	467.45
429.652	84.48
429.864	-169.47
430.076	260.6
430.288	197.12
430.5	102.91
430.712	86.53
430.924	418.3
431.136	266.75
431.348	-171.52
431.56	20.99
431.772	305.66
431.984	160.25
432.196	-77.31
432.408	33.28
432.62	203.26
432.832	322.04
433.044	324.09
433.256	182.78
433.468	459.26
433.679	-28.16
433.891	-69.12
434.103	297.47
434.315	557.56
434.527	391.67
434.739	49.66
434.95	135.68
435.162	537.08
435.374	205.31
435.586	37.38
435.798	119.29
436.009	18.94
436.221	219.64
436.433	61.95
436.645	131.58
436.856	197.12
437.068	516.6
437.28	59.9
437.491	309.76
437.703	549.37
437.915	342.52
438.126	76.29
438.338	303.61
438.55	274.94
438.761	369.15
438.973	207.36
439.184	90.62
439.396	207.36
439.608	510.46
439.819	-9.73
440.031	119.29
440.242	461.3
440.454	408.06
440.665	102.91
440.877	240.12
441.088	500.22
441.3	295.42
441.511	-50.69
441.723	70.14
441.934	395.77
442.146	322.04
442.357	342.52
442.569	356.86
442.78	383.48
442.991	821.75
443.203	377.34
443.414	2.56
443.626	680.44
443.837	201.21
444.048	10.75
444.26	-46.59
444.471	412.15
444.682	537.08
444.894	-69.12
445.105	-24.06
445.316	522.74
445.528	459.26
445.739	217.6
445.95	246.27
446.161	446.97
446.373	578.04
446.584	143.87
446.795	82.43
447.006	569.85
447.217	801.27
447.429	49.66
447.64	-3.58
447.851	705.01
448.062	387.58
448.273	-79.36
448.484	68.09
448.695	569.85
448.907	254.46
449.118	182.78
449.329	324.09
449.54	266.75
449.751	281.08
449.962	123.39
450.173	109.05
450.384	651.77
450.595	659.96
450.806	96.77
451.017	244.22
451.228	772.6
451.439	645.62
451.65	203.26
451.861	-128.51
452.072	233.98
452.283	451.07
452.494	430.59
452.705	53.76
452.915	913.91
453.126	510.46
453.337	229.88
453.548	57.86
453.759	643.57
453.97	967.15
454.181	428.54
454.391	254.46
454.602	475.64
454.813	551.42
455.024	174.59
455.235	162.3
455.445	567.8
455.656	496.12
455.867	389.63
456.078	199.16
456.288	334.33
456.499	598.52
456.71	92.67
456.921	500.22
457.131	520.7
457.342	510.46
457.553	252.41
457.763	135.68
457.974	664.05
458.184	715.25
458.395	102.91
458.606	119.29
458.816	754.16
459.027	946.67
459.237	401.91
459.448	84.48
459.659	745.97
459.869	1069.55
460.08	66.05
460.29	371.19
460.501	944.63
460.711	438.78
460.922	156.16
461.132	240.12
461.343	1130.99
461.553	320
461.764	184.83
461.974	270.84
462.184	725.49
462.395	657.91
462.605	360.95
462.816	242.17
463.026	631.29
463.236	870.9
463.447	299.52
463.657	320
463.867	885.23
464.078	455.16
464.288	434.68
464.498	365.05
464.709	563.7
464.919	602.61
465.129	408.06
465.339	375.29
465.55	700.92
465.76	829.94
465.97	387.58
466.18	340.47
466.391	924.15
466.601	748.02
466.811	430.59
467.021	266.75
467.231	829.94
467.441	991.73
467.651	535.03
467.862	174.59
468.072	700.92
468.282	1014.26
468.492	363
468.702	522.74
468.912	680.44
469.122	1356.27
469.332	705.01
469.542	363
469.752	905.71
469.962	774.64
470.172	352.76
470.382	434.68
470.592	1024.5
470.802	1071.6
471.012	709.11
471.222	500.22
471.432	983.54
471.642	1049.07
471.852	655.86
472.062	551.42
472.272	809.46
472.482	575.99
472.691	459.26
472.901	500.22
473.111	905.71
473.321	1399.27
473.531	451.07
473.741	780.79
473.95	1128.94
474.16	1036.78
474.37	850.42
474.58	594.42
474.79	1442.28
474.999	1196.53
475.209	649.72
475.419	829.94
475.628	926.19
475.838	1233.39
476.048	788.98
476.258	702.97
476.467	1272.3
476.677	834.04
476.886	948.72
477.096	868.85
477.306	854.51
477.515	1348.08
477.725	936.43
477.935	836.08
478.144	1446.38
478.354	889.33
478.563	932.34
478.773	877.04
478.982	1378.79
479.192	1407.47
479.401	1006.06
479.611	813.56
479.82	1065.46
480.03	1214.96
480.239	879.09
480.449	893.43
480.658	1657.32
480.868	1071.6
481.077	1081.84
481.287	975.35
481.496	1507.82
481.705	1642.98
481.915	1231.34
482.124	1235.44
482.333	1384.94
482.543	1765.86
482.752	1163.76
482.961	1022.45
483.171	1509.86
483.38	1339.88
483.589	1233.39
483.799	1100.27
484.008	1434.09
484.217	1438.19
484.426	1147.37
484.636	1034.74
484.845	1475.05
485.054	1108.46
485.263	1548.78
485.472	1251.82
485.682	1845.73
485.891	1524.2
486.1	1147.37
486.309	1331.69
486.518	1622.5
486.727	1862.12
486.936	1214.96
487.146	1376.75
487.355	1935.84
487.564	1444.33
487.773	1319.4
487.982	1458.67
488.191	1458.67
488.4	1729
488.609	1368.56
488.818	1462.76
489.027	2236.89
489.236	2062.82
489.445	1583.59
489.654	1313.26
489.863	2042.34
490.072	1815.01
490.281	1847.78
490.49	1542.63
490.698	2015.71
490.907	2173.41
491.116	1516.01
491.325	1276.4
491.534	2089.44
491.743	1772
491.952	1706.47
492.16	1653.22
492.369	2068.96
492.578	2105.82
492.787	1739.24
492.996	1401.32
493.204	1757.67
493.413	2294.24
493.622	1477.1
493.831	1409.51
494.039	2388.44
494.248	1731.05
494.457	1774.05
494.665	1581.54
494.874	2056.67
495.083	2570.71
495.291	1647.08
495.5	1589.74
495.709	2187.74
495.917	2060.77
496.126	1851.88
496.335	1720.81
496.543	1890.79
496.752	2132.45
496.96	2032.1
497.169	1647.08
497.377	2101.73
497.586	2179.55
497.794	1868.26
498.003	1681.89
498.211	2015.71
498.42	2583
498.628	1958.37
498.837	1757.67
499.045	2255.33
499.254	2165.21
499.462	1829.35
499.671	1892.84
499.879	2619.86
500.087	2443.74
500.296	1915.36
500.504	1952.23
500.713	2382.3
500.921	2685.4
501.129	1919.46
501.338	1923.55
501.546	2230.75
501.754	2167.26
501.962	2003.43
502.171	1878.5
502.379	2408.92
502.587	2642.39
502.795	2046.43
503.004	2032.1
503.212	2310.62
503.42	2580.95
503.628	2073.06
503.837	2122.21
504.045	2568.66
504.253	2685.4
504.461	2208.22
504.669	1913.31
504.877	2595.29
505.085	2832.85
505.294	1962.47
505.502	2288.09
505.71	2357.72
505.918	2626.01
506.126	2044.38
506.334	2095.58
506.542	2494.94
506.75	2552.28
506.958	2257.37
507.166	2263.52
507.374	2380.25
507.582	2818.52
507.79	2380.25
507.998	2159.07
508.206	2574.81
508.414	2505.18
508.622	2212.32
508.83	2257.37
509.037	2970.07
509.245	2372.06
509.453	2187.74
509.661	2218.46
509.869	2671.06
510.077	2519.51
510.285	2462.17
510.492	2034.14
510.7	3332.56
510.908	2410.97
511.116	2349.53
511.324	2284
511.531	2517.47
511.739	2611.67
511.947	2544.09
512.155	2613.72
512.362	2761.17
512.57	2347.48
512.778	2200.03
512.985	2079.2
513.193	2826.71
513.401	3082.7
513.608	2388.44
513.816	2349.53
514.024	2798.04
514.231	2984.4
514.439	2320.86
514.646	2568.66
514.854	2957.78
515.061	3039.7
515.269	2460.12
515.477	2388.44
515.684	2660.82
515.892	2933.2
516.099	2253.28
516.307	2253.28
516.514	3019.22
516.722	3244.49
516.929	2662.87
517.136	2494.94
517.344	3232.21
517.551	2933.2
517.759	2384.35
517.966	2621.91
518.173	2800.09
518.381	2947.54
518.588	2671.06
518.796	2523.61
519.003	2988.5
519.21	3064.27
519.418	2595.29
519.625	2818.52
519.832	2935.25
520.039	2970.07
520.247	2423.26
520.454	2677.21
520.661	3269.07
520.868	3023.31
521.076	2503.13
521.283	2697.69
521.49	3490.25
521.697	3086.8
521.904	2746.84
522.112	2552.28
522.319	3146.19
522.526	3049.94
522.733	2607.58
522.94	2578.9
523.147	2994.64
523.354	3176.91
523.561	2677.21
523.768	2705.88
523.975	3273.17
524.183	3035.6
524.39	2927.06
524.597	2572.76
524.804	3011.03
525.011	2886.1
525.218	2777.56
525.425	2752.98
525.632	3357.13
525.838	2884.05
526.045	2937.3
526.252	2793.94
526.459	4411.84
526.666	3856.84
526.873	2814.42
527.08	2845.14
527.287	3602.89
527.494	3443.15
527.701	2736.6
527.907	2832.85
528.114	3396.04
528.321	3138
528.528	2965.97
528.735	2822.61
528.941	2984.4
529.148	2970.07
529.355	3049.94
529.562	3021.27
529.768	3682.76
529.975	3170.77
530.182	3023.31
530.388	3015.12
530.595	3559.88
530.802	3017.17
531.008	3383.76
531.215	3103.18
531.422	4061.63
531.628	3996.1
531.835	3047.89
532.042	2925.01
532.248	3105.23
532.455	3412.43
532.661	3156.43
532.868	3162.58
533.074	3611.08
533.281	3594.7
533.487	3129.81
533.694	3019.22
533.9	3219.92
534.107	3523.02
534.313	3123.66
534.52	2941.4
534.726	3535.31
534.933	3944.9
535.139	3082.7
535.345	3006.93
535.552	3684.81
535.758	3490.25
535.965	3201.49
536.171	3342.8
536.377	3658.18
536.584	3736.01
536.79	3162.58
536.996	3420.62
537.203	3486.15
537.409	3619.27
537.615	3260.88
537.821	3398.09
538.028	3756.49
538.234	3705.29
538.44	3363.28
538.646	3346.89
538.853	3750.34
539.059	3459.53
539.265	3670.47
539.471	3105.23
539.677	3936.71
539.883	3647.94
540.09	3234.25
540.296	3809.73
540.502	3637.7
540.708	3490.25
540.914	3596.75
541.12	3332.56
541.326	3928.52
541.532	3772.87
541.738	3670.47
541.944	3418.57
542.15	3961.28
542.356	3633.61
542.562	3344.84
542.768	3582.41
542.974	4499.9
543.18	4233.66
543.386	3295.69
543.592	3353.04
543.798	4200.9
544.004	4219.33
544.21	3570.12
544.415	3752.39
544.621	3791.3
544.827	3971.52
545.033	3416.52
545.239	3916.23
545.445	3555.79
545.651	3930.56
545.856	3729.86
546.062	3643.85
546.268	3746.25
546.474	3989.96
546.679	3631.56
546.885	3723.72
547.091	3733.96
547.297	4485.56
547.502	3776.97
547.708	3432.91
547.914	3748.29
548.119	4143.55
548.325	3463.63
548.531	3391.95
548.736	4202.94
548.942	3832.26
549.147	3606.98
549.353	3916.23
549.559	4354.49
549.764	3973.57
549.97	3674.57
550.175	3592.65
550.381	4192.7
550.586	3801.54
550.792	3830.21
550.997	3645.9
551.203	4272.57
551.408	4194.75
551.614	3594.7
551.819	3729.86
552.025	4528.57
552.23	4555.19
552.435	3733.96
552.641	3971.52
552.846	3852.74
553.052	4501.95
553.257	3738.05
553.462	3729.86
553.668	3779.01
553.873	4348.35
554.078	3973.57
554.283	4010.43
554.489	4243.9
554.694	4108.74
554.899	4049.35
555.105	3979.72
555.31	4305.34
555.515	4336.06
555.72	4112.83
555.925	3811.78
556.131	4448.7
556.336	4112.83
556.541	3819.97
556.746	3969.48
556.951	4528.57
557.156	4702.65
557.361	4032.96
557.567	4151.74
557.772	4770.23
557.977	4319.68
558.182	3996.1
558.387	3801.54
558.592	4100.55
558.797	4460.99
559.002	4141.5
559.207	4090.31
559.412	4270.53
559.617	4686.26
559.822	3924.42
560.027	3877.32
560.232	4483.52
560.437	4514.24
560.642	3836.36
560.847	3932.61
561.051	4577.72
561.256	4530.62
561.461	4057.54
561.666	4010.43
561.871	4448.7
562.076	4637.11
562.281	4168.13
562.485	4016.58
562.69	4465.08
562.895	4723.13
563.1	4092.35
563.305	3973.57
563.509	4573.63
563.714	5009.84
563.919	4313.53
564.123	4161.98
564.328	4532.67
564.533	4696.5
564.737	3944.9
564.942	4141.5
565.147	4950.45
565.351	4882.87
565.556	4186.56
565.761	4129.22
565.965	4714.94
566.17	4334.01
566.374	4229.57
566.579	4030.91
566.784	4639.16
566.988	4413.88
567.193	3949
567.397	4090.31
567.602	4493.76
567.806	4456.89
568.011	4342.21
568.215	4133.31
568.42	4497.85
568.624	4542.91
568.828	4190.66
569.033	4280.77
569.237	4837.81
569.442	4755.9
569.646	4147.65
569.85	4456.89
570.055	4624.83
570.259	4659.64
570.463	4563.39
570.668	4417.98
570.872	4612.54
571.076	4598.2
571.281	4415.93
571.485	4473.28
571.689	4780.47
571.893	4788.66
572.098	4436.41
572.302	4428.22
572.506	4841.91
572.71	4798.9
572.914	4477.37
573.119	4401.6
573.323	5083.57
573.527	5128.63
573.731	4473.28
573.935	4428.22
574.139	4723.13
574.343	4596.15
574.547	4374.97
574.751	4401.6
574.955	5048.75
575.159	5089.71
575.364	4291.01
575.568	4342.21
575.772	4788.66
575.976	5106.1
576.18	4340.16
576.383	4299.2
576.587	5050.8
576.791	4964.79
576.995	4383.17
577.199	4211.14
577.403	5018.04
577.607	5171.63
577.811	4436.41
578.015	4721.08
578.219	5030.32
578.422	5005.75
578.626	4547
578.83	4803
579.034	5015.99
579.238	4932.02
579.442	4688.31
579.645	5050.8
579.849	4940.21
580.053	5028.28
580.257	4590.01
580.46	4719.03
580.664	5226.93
580.868	5130.67
581.071	4776.38
581.275	4643.26
581.479	4817.33
581.682	5122.48
581.886	4583.87
582.09	4585.91
582.293	5296.56
582.497	5196.21
582.7	4794.81
582.904	4676.02
583.107	5026.23
583.311	4764.09
583.515	4870.58
583.718	4731.32
583.922	5212.59
584.125	5503.4
584.329	4626.87
584.532	4913.59
584.735	5364.14
584.939	4907.45
585.142	4762.04
585.346	4708.79
585.549	5054.9
585.753	5056.95
585.956	4743.61
586.159	4944.31
586.363	5458.35
586.566	5327.28
586.769	4542.91
586.973	4780.47
587.176	5267.89
587.379	5331.37
587.582	5099.95
587.786	5247.41
587.989	5206.45
588.192	5898.66
588.395	5093.81
588.599	5253.55
588.802	5509.55
589.005	5417.39
589.208	5067.19
589.411	4874.68
589.615	5560.75
589.818	5581.23
590.021	5069.23
590.224	5106.1
590.427	5603.75
590.63	5384.62
590.833	4850.1
591.036	4977.08
591.239	5269.94
591.442	5161.39
591.645	5358
591.848	4999.6
592.051	5374.38
592.254	5626.28
592.457	5058.99
592.66	5157.3
592.863	5353.9
593.066	5325.23
593.269	5046.71
593.472	5194.16
593.675	5237.17
593.878	5640.62
594.081	5280.18
594.284	5063.09
594.486	5515.69
594.689	5681.58
594.892	5259.7
595.095	5147.06
595.298	5570.99
595.5	5292.46
595.703	5276.08
595.906	5343.66
596.109	5927.33
596.311	5609.9
596.514	4956.6
596.717	5190.06
596.92	5628.33
597.122	5620.14
597.325	4948.4
597.528	5204.4
597.73	5857.7
597.933	5560.75
598.136	5349.81
598.338	4874.68
598.541	5671.34
598.743	6029.73
598.946	5331.37
599.148	5251.5
599.351	5841.32
599.554	5882.28
599.756	5353.9
599.959	5351.85
600.161	5818.79
600.363	6183.33
600.566	5579.18
600.768	5302.7
600.971	5986.72
601.173	5861.8
601.376	5337.52
601.578	5482.92
601.78	5620.14
601.983	6304.16
602.185	5220.78
602.388	5560.75
602.59	5730.73
602.792	5642.67
602.995	5630.38
603.197	5278.13
603.399	5867.94
603.601	5814.7
603.804	5407.15
604.006	5519.79
604.208	5603.75
604.41	5190.06
604.613	5730.73
604.815	5271.98
605.017	6218.15
605.219	5646.76
605.421	5829.03
605.623	5319.09
605.826	6078.88
606.028	6144.42
606.23	5556.65
606.432	5327.28
606.634	6082.98
606.836	6144.42
607.038	5433.77
607.24	5546.41
607.442	5773.74
607.644	5718.44
607.846	5540.27
608.048	5470.64
608.25	6193.57
608.452	5314.99
608.654	5593.51
608.856	5364.14
609.058	5763.5
609.26	5906.85
609.462	5740.97
609.664	5767.59
609.866	6279.58
610.067	6054.31
610.269	5697.96
610.471	5628.33
610.673	5634.47
610.875	5923.24
611.077	5417.39
611.278	5685.67
611.48	5939.62
611.682	6242.72
611.884	5747.11
612.085	5734.82
612.287	5577.13
612.489	5890.47
612.69	5468.59
612.892	5530.03
613.094	5980.58
613.295	5824.94
613.497	5495.21
613.699	5654.95
613.9	6087.08
614.102	6128.03
614.304	5681.58
614.505	5388.72
614.707	6011.3
614.908	5894.57
615.11	5505.45
615.311	5663.15
615.513	6021.54
615.714	6222.24
615.916	5351.85
616.117	5581.23
616.319	5837.22
616.52	6017.44
616.722	5468.59
616.923	5450.16
617.124	5982.63
617.326	6097.31
617.527	5665.19
617.729	5718.44
617.93	6044.07
618.131	6267.3
618.333	5503.4
618.534	5788.07
618.735	5681.58
618.937	6312.35
619.138	5519.79
619.339	5679.53
619.54	6007.2
619.742	5779.88
619.943	5996.96
620.144	5761.45
620.345	6261.15
620.546	6136.23
620.748	5585.32
620.949	5714.34
621.15	6078.88
621.351	5982.63
621.552	5755.3
621.753	5310.89
621.954	5609.9
622.155	6336.93
622.356	5591.47
622.558	5894.57
622.759	5933.48
622.96	6455.71
623.161	5761.45
623.362	5570.99
623.563	6218.15
623.764	5898.66
623.965	5665.19
624.166	5915.05
624.366	5888.42
624.567	6158.75
624.768	5634.47
624.969	5702.06
625.17	5910.95
625.371	6011.3
625.572	5749.16
625.773	5454.25
625.973	6316.45
626.174	6171.04
626.375	5732.78
626.576	5913
626.777	6179.23
626.977	6486.43
627.178	5679.53
627.379	5878.18
627.58	6001.06
627.78	5978.53
627.981	5937.57
628.182	5941.67
628.382	6185.38
628.583	5630.38
628.784	5583.27
628.984	5771.69
629.185	6295.97
629.386	6142.37
629.586	5949.86
629.787	5693.87
629.987	6115.75
630.188	5841.32
630.388	5761.45
630.589	5841.32
630.79	6533.53
630.99	6046.12
631.191	5951.91
631.391	6042.02
631.591	6341.02
631.792	6468
631.992	5949.86
632.193	5757.35
632.393	6480.29
632.594	6171.04
632.794	5777.83
632.994	6156.71
633.195	6168.99
633.395	6128.03
633.595	5929.38
633.796	6062.5
633.996	6029.73
634.196	6281.63
634.397	5872.04
634.597	6134.18
634.797	5994.92
634.997	6572.44
635.198	6011.3
635.398	5765.54
635.598	6240.67
635.798	6568.35
635.998	6349.22
636.199	5745.06
636.399	6013.35
636.599	5880.23
636.799	6015.4
636.999	6191.52
637.199	6468
637.399	6351.26
637.599	5706.15
637.799	6029.73
637.999	6158.75
638.199	6572.44
638.399	5878.18
638.599	5796.26
638.799	6400.41
638.999	6627.74
639.199	6275.49
639.399	6085.03
639.599	6558.11
639.799	5988.77
639.999	5847.46
640.199	5769.64
640.399	6320.54
640.599	6212
640.799	6046.12
640.998	6140.32
641.198	6611.36
641.398	6320.54
641.598	6136.23
641.798	6054.31
641.997	7123.35
642.197	6265.25
642.397	6148.51
642.597	6009.25
642.796	6324.64
642.996	6676.89
643.196	6076.84
643.395	5876.13
643.595	6257.06
643.795	5779.88
643.994	6136.23
644.194	6130.08
644.394	6474.14
644.593	6533.53
644.793	6156.71
644.992	6191.52
645.192	6416.8
645.392	5956.01
645.591	6341.02
645.791	6250.91
645.99	6592.92
646.19	6138.27
646.389	6087.08
646.589	6089.12
646.788	6349.22
646.987	6445.47
647.187	6261.15
647.386	6250.91
647.586	6457.76
647.785	6742.43
647.984	5910.95
648.184	6173.09
648.383	6320.54
648.582	6091.17
648.782	6185.38
648.981	6322.59
649.18	6070.69
649.38	6537.63
649.579	6232.48
649.778	6033.83
649.977	6594.97
650.177	6410.65
650.376	6168.99
650.575	5964.2
650.774	6820.25
650.973	6345.12
651.173	6005.16
651.372	6209.95
651.571	6345.12
651.77	6658.46
651.969	6269.34
652.168	6424.99
652.367	6252.96
652.566	6338.98
652.765	5939.62
652.964	6498.72
653.163	7068.05
653.362	6484.38
653.561	6150.56
653.76	6082.98
653.959	6490.52
654.158	6607.26
654.357	6416.8
654.556	6244.77
654.755	6779.29
654.954	6572.44
655.153	6252.96
655.352	6357.41
655.551	6807.96
655.749	6369.69
655.948	6099.36
656.147	6416.8
656.346	6644.12
656.545	6447.52
656.743	6433.18
656.942	6240.67
657.141	6500.76
657.34	6334.88
657.538	6224.29
657.737	6224.29
657.936	6384.03
658.135	6771.1
658.333	6029.73
658.532	6437.28
658.731	6963.61
658.929	6633.88
659.128	6517.15
659.326	6422.94
659.525	6850.97
659.724	6566.3
659.922	6343.07
660.121	6013.35
660.319	6601.12
660.518	6398.37
660.716	6238.62
660.915	6185.38
661.113	6928.79
661.312	6236.58
661.51	6582.68
661.709	6168.99
661.907	6717.85
662.105	6900.12
662.304	6373.79
662.502	6408.61
662.701	6840.73
662.899	6504.86
663.097	6693.27
663.296	6160.8
663.494	6678.94
663.692	6988.18
663.891	6252.96
664.089	6242.72
664.287	6660.51
664.485	6859.16
664.684	6082.98
664.882	6392.22
665.08	6511
665.278	6656.41
665.476	6341.02
665.675	6570.4
665.873	7035.28
666.071	6631.83
666.269	6494.62
666.467	6562.2
666.665	6703.51
666.863	6566.3
667.061	6480.29
667.259	6322.59
667.457	6721.95
667.655	6748.57
667.853	6136.23
668.051	6447.52
668.249	6369.69
668.447	6656.41
668.645	6125.99
668.843	6486.43
669.041	6769.05
669.239	6455.71
669.437	6363.55
669.635	6594.97
669.833	6547.87
670.031	6726.04
670.229	6453.66
670.426	6394.27
670.624	6275.49
670.822	6429.09
671.02	6300.06
671.218	6349.22
671.415	6332.83
671.613	6564.25
671.811	6261.15
672.009	6404.51
672.206	6812.06
672.404	6599.07
672.602	6537.63
672.799	6371.74
672.997	6449.57
673.195	6887.83
673.392	6474.14
673.59	6148.51
673.788	6607.26
673.985	6132.13
674.183	6381.98
674.38	6332.83
674.578	6781.34
674.775	6306.21
674.973	6103.46
675.17	6361.5
675.368	6832.54
675.565	6627.74
675.763	6336.93
675.96	6142.37
676.158	6769.05
676.355	6470.05
676.553	6326.69
676.75	6220.19
676.947	6572.44
677.145	6277.54
677.342	6427.04
677.539	6240.67
677.737	6592.92
677.934	7008.66
678.131	6517.15
678.329	6267.3
678.526	6566.3
678.723	6594.97
678.92	6447.52
679.118	6191.52
679.315	6275.49
679.512	6713.75
679.709	6302.11
679.906	6295.97
680.104	6824.34
680.301	6572.44
680.498	6001.06
680.695	6072.74
680.892	6207.91
681.089	6345.12
681.286	6267.3
681.483	6087.08
681.68	6545.82
681.877	6539.68
682.075	6234.53
682.272	6404.51
682.469	6488.48
682.665	6424.99
682.862	6001.06
683.059	5900.71
683.256	6517.15
683.453	6502.81
683.65	6257.06
683.847	6181.28
684.044	6414.75
684.241	6080.93
684.438	6242.72
684.635	6035.88
684.831	6791.58
685.028	7068.05
685.225	6246.82
685.422	6130.08
685.619	6406.56
685.815	6515.1
686.012	6283.68
686.209	6115.75
686.405	6234.53
686.602	6652.31
686.799	6021.54
686.996	5976.48
687.192	5956.01
687.389	6783.38
687.586	6095.27
687.782	6166.95
687.979	6777.24
688.175	6472.09
688.372	6326.69
688.568	6152.61
688.765	6214.05
688.962	6601.12
689.158	6246.82
689.355	5945.77
689.551	6672.79
689.748	6099.36
689.944	6285.73
690.14	5949.86
690.337	6359.45
690.533	6257.06
690.73	6365.6
690.926	6265.25
691.123	6447.52
691.319	6144.42
691.515	5906.85
691.712	6295.97
691.908	6566.3
692.104	6439.33
692.301	6197.67
692.497	5994.92
692.693	6672.79
692.889	6431.13
693.086	6427.04
693.282	5867.94
693.478	6381.98
693.674	6590.88
693.87	5988.77
694.067	5939.62
694.263	6410.65
694.459	6427.04
694.655	6349.22
694.851	6281.63
695.047	6420.89
695.243	6558.11
695.439	6314.4
695.635	5902.76
695.831	6261.15
696.027	6420.89
696.224	5972.39
696.42	6326.69
696.615	6715.8
696.811	6453.66
697.007	5841.32
697.203	6021.54
697.399	6312.35
697.595	6474.14
697.791	5915.05
697.987	5966.24
698.183	6009.25
698.379	5986.72
698.575	5992.87
698.77	6013.35
698.966	6486.43
699.162	6445.47
699.358	5994.92
699.554	5863.85
699.749	6351.26
699.945	6416.8
700.141	6089.12
700.337	6064.55
700.532	6168.99
700.728	5945.77
700.924	5786.02
701.119	5767.59
701.315	6140.32
701.511	6158.75
701.706	6107.55
701.902	5808.55
702.097	6099.36
702.293	6326.69
702.489	6128.03
702.684	5925.29
702.88	6205.86
703.075	5968.29
703.271	5943.72
703.466	5964.2
703.662	6082.98
703.857	6189.47
704.053	5857.7
704.248	5814.7
704.443	6453.66
704.639	6416.8
704.834	6087.08
705.03	5892.52
705.225	6306.21
705.42	6508.96
705.616	6091.17
705.811	5659.05
706.006	5988.77
706.202	6001.06
706.397	5894.57
706.592	5685.67
706.787	6085.03
706.983	6054.31
707.178	6291.87
707.373	5878.18
707.568	6353.31
707.763	6447.52
707.959	5908.9
708.154	5679.53
708.349	6097.31
708.544	6168.99
708.739	6136.23
708.934	5761.45
709.129	6341.02
709.324	6203.81
709.519	5900.71
709.714	5646.76
709.909	6287.78
710.104	6330.78
710.299	5759.4
710.494	5863.85
710.689	6371.74
710.884	6095.27
711.079	6023.59
711.274	6103.46
711.469	6267.3
711.664	6058.4
711.859	5898.66
712.054	5851.56
712.249	6054.31
712.443	6214.05
712.638	5810.6
712.833	5833.13
713.028	5982.63
713.223	5861.8
713.417	6013.35
713.612	5753.26
713.807	6377.89
714.002	6560.16
714.196	6037.92
714.391	5886.37
714.586	6252.96
714.78	6146.47
714.975	5681.58
715.17	5583.27
715.364	6136.23
715.559	6295.97
715.754	5644.71
715.948	5765.54
716.143	6353.31
716.337	6005.16
716.532	5910.95
716.726	5632.43
716.921	6214.05
717.115	6490.52
717.31	5669.29
717.504	6306.21
717.699	5826.98
717.893	6023.59
718.088	5611.95
718.282	5497.26
718.476	6052.26
718.671	6005.16
718.865	5743.02
719.059	5558.7
719.254	5951.91
719.448	6214.05
719.642	6947.22
719.837	5583.27
720.031	5980.58
720.225	6101.41
720.419	5720.49
720.614	5489.07
720.808	6105.51
721.002	5816.74
721.196	5599.66
721.39	5593.51
721.585	6224.29
721.779	5990.82
721.973	5618.09
722.167	5382.57
722.361	5956.01
722.555	6134.18
722.749	5517.74
722.943	5552.56
723.137	5546.41
723.331	6013.35
723.525	5767.59
723.719	5585.32
723.913	6048.16
724.107	6156.71
724.301	5355.95
724.495	5611.95
724.689	6302.11
724.883	6017.44
725.077	5536.17
725.271	5491.12
725.465	6039.97
725.659	5902.76
725.853	5730.73
726.046	5364.14
726.24	5595.56
726.434	5992.87
726.628	5556.65
726.822	5632.43
727.015	6201.76
727.209	6181.28
727.403	5667.24
727.596	5482.92
727.79	5968.29
727.984	6101.41
728.177	5575.08
728.371	5560.75
728.565	6029.73
728.758	5609.9
728.952	5382.57
729.146	5452.2
729.339	6068.64
729.533	5869.99
729.726	5628.33
729.92	5577.13
730.113	6099.36
730.307	5898.66
730.5	5575.08
730.694	5566.89
730.887	5714.34
731.081	5894.57
731.274	5546.41
731.468	5681.58
731.661	5820.84
731.854	5745.06
732.048	5560.75
732.241	5478.83
732.435	5517.74
732.628	5906.85
732.821	5728.68
733.014	5470.64
733.208	5446.06
733.401	6076.84
733.594	5548.46
733.788	5366.19
733.981	6162.85
734.174	5886.37
734.367	5409.2
734.56	5517.74
734.754	6158.75
734.947	5865.89
735.14	5497.26
735.333	5624.23
735.526	5964.2
735.719	5728.68
735.912	5368.24
736.105	5394.86
736.298	5642.67
736.491	5851.56
736.684	5509.55
736.877	5448.11
737.07	5730.73
737.263	6150.56
737.456	5679.53
737.649	5480.88
737.842	5435.82
738.035	5857.7
738.228	5521.84
738.421	5800.36
738.614	5980.58
738.807	5976.48
739	5274.03
739.192	5491.12
739.385	5941.67
739.578	5882.28
739.771	5767.59
739.964	5491.12
740.156	5816.74
740.349	5640.62
740.542	5661.1
740.735	5153.2
740.927	5401.01
741.12	5562.8
741.313	5321.13
741.505	5519.79
741.698	5798.31
741.891	5638.57
742.083	5587.37
742.276	5517.74
742.468	5796.26
742.661	5538.22
742.854	5450.16
743.046	5403.05
743.239	6099.36
743.431	5806.5
743.624	5484.97
743.816	5329.33
744.009	5487.02
744.201	5771.69
744.393	5601.71
744.586	5247.41
744.778	6017.44
744.971	5611.95
745.163	5534.12
745.355	5568.94
745.548	5788.07
745.74	5599.66
745.932	5597.61
746.125	5337.52
746.317	6142.37
746.509	5712.3
746.702	5407.15
746.894	5505.45
747.086	5896.61
747.278	5964.2
747.471	5566.89
747.663	5456.3
747.855	5681.58
748.047	6203.81
748.239	5325.23
748.431	5358
748.623	6105.51
748.815	5956.01
749.008	5374.38
749.2	5245.36
749.392	5704.1
749.584	5718.44
749.776	5525.93
749.968	5554.6
750.16	6078.88
750.352	5726.63
750.544	5306.8
750.736	5243.31
750.928	5872.04
751.12	5611.95
751.311	5243.31
751.503	5474.73
751.695	5724.58
751.887	5560.75
752.079	5218.74
752.271	5353.9
752.463	6394.27
752.654	5837.22
752.846	5394.86
753.038	5441.96
753.23	5194.16
753.421	5761.45
753.613	5304.75
753.805	5515.69
753.997	5790.12
754.188	5765.54
754.38	5251.5
754.572	5165.49
754.763	5468.59
754.955	5513.64
755.146	5337.52
755.338	5235.12
755.53	5509.55
755.721	5480.88
755.913	4977.08
756.104	5253.55
756.296	5480.88
756.487	5681.58
756.679	5128.63
756.87	5300.66
757.062	5271.98
757.253	5679.53
757.445	5284.27
757.636	5355.95
757.827	5425.58
758.019	6101.41
758.21	5188.02
758.401	5226.93
758.593	5964.2
758.784	5808.55
758.975	4934.07
759.167	5130.67
759.358	5435.82
759.549	5558.7
759.74	5099.95
759.932	5097.91
760.123	5648.81
760.314	5392.81
760.505	5212.59
760.696	5257.65
760.888	5779.88
761.079	5317.04
761.27	4956.6
761.461	4874.68
761.652	5796.26
761.843	5177.78
762.034	5130.67
762.225	5444.01
762.416	5276.08
762.607	5398.96
762.798	5120.43
762.989	4936.12
763.18	6062.5
763.371	5181.87
763.562	5071.28
763.753	4989.36
763.944	5503.4
764.135	5460.4
764.326	5183.92
764.517	5140.91
764.708	5376.43
764.899	5444.01
765.089	4956.6
765.28	4864.44
765.471	5409.2
765.662	5302.7
765.853	5005.75
766.043	4716.98
766.234	5378.48
766.425	5333.42
766.615	4854.2
766.806	4850.1
766.997	5517.74
767.187	5341.61
767.378	4923.83
767.569	4600.25
767.759	5282.22
767.95	5099.95
768.141	4999.6
768.331	4684.22
768.522	5081.52
768.712	5222.83
768.903	4946.36
769.093	4716.98
769.284	5562.8
769.474	5181.87
769.665	4618.68
769.855	4637.11
770.046	5173.68
770.236	4940.21
770.426	4919.73
770.617	4759.99
770.807	5196.21
770.998	4972.98
771.188	5052.85
771.378	4538.81
771.569	5210.54
771.759	5124.53
771.949	4610.49
772.139	4553.15
772.33	5030.32
772.52	5300.66
772.71	4759.99
772.9	4751.8
773.09	5513.64
773.281	5194.16
773.471	4659.64
773.661	4817.33
773.851	5169.59
774.041	4776.38
774.231	4762.04
774.421	4878.77
774.611	5343.66
774.802	5085.62
774.992	4907.45
775.182	4469.18
775.372	4895.16
775.562	5142.96
775.752	4628.92
775.942	4598.2
776.131	5128.63
776.321	5214.64
776.511	4647.35
776.701	4669.88
776.891	5015.99
777.081	4579.77
777.271	4753.85
777.461	4555.19
777.651	5020.08
777.84	5020.08
778.03	4770.23
778.22	4661.69
778.41	5310.89
778.599	4506.04
778.789	4639.16
778.979	4420.03
779.169	4915.64
779.358	4751.8
779.548	4772.28
779.738	4264.38
779.927	4755.9
780.117	4616.63
780.307	4616.63
780.496	4266.43
780.686	4929.97
780.875	5173.68
781.065	4544.95
781.254	4342.21
781.444	4770.23
781.633	4743.61
781.823	4391.36
782.012	4379.07
782.202	4686.26
782.391	4710.84
782.581	4348.35
782.77	4657.59
782.96	4850.1
783.149	4712.89
783.338	4469.18
783.528	4174.27
783.717	5200.3
783.906	4876.73
784.096	4530.62
784.285	4344.25
784.474	4667.83
784.663	4510.14
784.853	4434.36
785.042	4499.9
785.231	4444.6
785.42	4882.87
785.61	4540.86
785.799	4258.24
785.988	4446.65
786.177	4735.42
786.366	4432.32
786.555	4563.39
786.744	4649.4
786.933	4526.52
787.122	4377.02
787.312	4272.57
787.501	4551.1
787.69	4792.76
787.879	4401.6
788.068	4202.94
788.257	4442.56
788.445	4374.97
788.634	4362.69
788.823	4198.85
789.012	5282.22
789.201	4784.57
789.39	4413.88
789.579	4254.14
789.768	4489.66
789.957	4655.54
790.145	4184.51
790.334	3987.91
790.523	4387.26
790.712	4477.37
790.9	4387.26
791.089	4035.01
791.278	4547
791.467	4579.77
791.655	4493.76
791.844	4747.7
792.033	4178.37
792.221	4415.93
792.41	4288.96
792.599	3971.52
792.787	4596.15
792.976	4522.43
793.164	3953.09
793.353	4030.91
793.541	4547
793.73	4456.89
793.918	4258.24
794.107	4213.18
794.295	4413.88
794.484	4417.98
794.672	4250.05
794.861	4000.19
795.049	4420.03
795.238	4815.29
795.426	3979.72
795.614	4157.89
795.803	4542.91
795.991	4704.7
796.179	4233.66
796.368	3899.84
796.556	4581.82
796.744	4104.64
796.932	4059.59
797.121	4020.67
797.309	4231.62
797.497	4581.82
797.685	4100.55
797.874	4088.26
798.062	4354.49
798.25	4676.02
798.438	3936.71
798.626	3989.96
798.814	4426.17
799.002	4827.57
799.19	4252.1
799.378	4164.03
799.566	4518.33
799.755	4620.73
799.943	4325.82
800.131	4084.16
800.318	4237.76
800.506	4403.64
800.694	3985.86
800.882	4084.16
801.07	4698.55
801.258	4207.04
801.446	4112.83
801.634	4047.3
801.822	4391.36
802.01	4399.55
802.197	4004.29
802.385	4194.75
802.573	4477.37
802.761	4137.41
802.949	4264.38
803.136	4018.63
803.324	4641.21
803.512	4501.95
803.699	4026.82
803.887	3946.95
804.075	4659.64
804.262	4219.33
804.45	3957.19
804.638	4045.25
804.825	4043.2
805.013	4250.05
805.201	4071.87
805.388	3961.28
805.576	4272.57
805.763	4813.24
805.951	4035.01
806.138	4264.38
806.326	4927.92
806.513	4342.21
806.701	4112.83
806.888	4121.03
807.075	4432.32
807.263	4749.75
807.45	3905.99
807.638	4188.61
807.825	4813.24
808.012	4463.04
808.2	4145.6
808.387	4256.19
808.574	4641.21
808.761	4743.61
808.949	4055.49
809.136	4329.92
809.323	4315.58
809.51	4356.54
809.698	4387.26
809.885	4237.76
810.072	4610.49
810.259	4594.11
810.446	4096.45
810.633	4133.31
810.82	4635.07
811.008	4731.32
811.195	4235.71
811.382	4258.24
811.569	4544.95
811.756	4121.03
811.943	4227.52
812.13	4176.32
812.317	4139.46
812.504	4182.46
812.691	4237.76
812.878	4248
813.064	4893.11
813.251	4504
813.438	4211.14
813.625	4200.9
813.812	4395.45
813.999	4547
814.186	4264.38
814.372	4248
814.559	4571.58
814.746	4661.69
814.933	4112.83
815.12	4254.14
815.306	4325.82
815.493	4182.46
815.68	4026.82
815.866	4227.52
816.053	4874.68
816.24	5009.84
816.426	4239.81
816.613	3971.52
816.799	4471.23
816.986	4653.5
817.173	4002.24
817.359	3985.86
817.546	4661.69
817.732	4086.21
817.919	3905.99
818.105	4213.18
818.292	4368.83
818.478	4370.88
818.665	4166.08
818.851	4014.53
819.037	4846.01
819.224	4602.3
819.41	4112.83
819.597	4157.89
819.783	4739.51
819.969	4342.21
820.156	4282.81
820.342	4049.35
820.528	5099.95
820.714	4233.66
820.901	4456.89
821.087	3951.04
821.273	4735.42
821.459	4137.41
821.646	4100.55
821.832	3971.52
822.018	4424.12
822.204	4340.16
822.39	4084.16
822.576	3940.8
822.762	4489.66
822.948	4391.36
823.134	4356.54
823.32	3951.04
823.507	4100.55
823.693	4448.7
823.879	4393.4
824.065	3828.17
824.25	4225.47
824.436	3965.38
824.622	4082.11
824.808	3850.69
824.994	4118.98
825.18	4198.85
825.366	3903.94
825.552	3922.37
825.738	4237.76
825.923	4442.56
826.109	4227.52
826.295	3985.86
826.481	4073.92
826.667	4178.37
826.852	4121.03
827.038	3895.75
827.224	4501.95
827.409	4618.68
827.595	3840.45
827.781	4067.78
827.966	4573.63
828.152	4460.99
828.338	4026.82
828.523	3738.05
828.709	4049.35
828.894	4190.66
829.08	3989.96
829.266	3873.22
829.451	4125.12
829.637	4215.23
829.822	4010.43
830.008	3838.41
830.193	4364.73
830.378	4469.18
830.564	4020.67
830.749	3811.78
830.935	4321.73
831.12	4456.89
831.305	3930.56
831.491	3946.95
831.676	3951.04
831.861	4381.12
832.047	3850.69
832.232	3576.27
832.417	4358.59
832.602	4204.99
832.788	3781.06
832.973	3930.56
833.158	3977.67
833.343	4057.54
833.528	3969.48
833.714	4030.91
833.899	4225.47
834.084	4534.71
834.269	3983.81
834.454	3723.72
834.639	4313.53
834.824	3975.62
835.009	3977.67
835.194	3938.76
835.379	4245.95
835.564	4549.05
835.749	3875.27
835.934	3621.32
836.119	4248
836.304	4026.82
836.489	3750.34
836.674	3905.99
836.859	3838.41
837.044	4377.02
837.228	3875.27
837.413	3668.42
837.598	4055.49
837.783	4239.81
837.968	3738.05
838.152	3611.08
838.337	3799.49
838.522	4260.29
838.707	4295.1
838.891	3752.39
839.076	3922.37
839.261	4121.03
839.445	3781.06
839.63	3819.97
839.815	4284.86
839.999	3858.89
840.184	3740.1
840.368	3721.67
840.553	4145.6
840.737	4231.62
840.922	3740.1
841.106	3537.35
841.291	3592.65
841.475	3928.52
841.66	3697.1
841.844	3635.66
842.029	4633.02
842.213	3596.75
842.397	3731.91
842.582	3482.06
842.766	4098.5
842.951	4061.63
843.135	3635.66
843.319	3613.13
843.504	3905.99
843.688	4188.61
843.872	3551.69
844.056	3461.58
844.241	3930.56
844.425	3709.38
844.609	3875.27
844.793	3381.71
844.977	4041.15
845.161	3899.84
845.346	3498.44
845.53	3606.98
845.714	3791.3
845.898	4311.49
846.082	3398.09
846.266	3568.07
846.45	3817.93
846.634	3916.23
846.818	3508.68
847.002	3836.36
847.186	3879.36
847.37	3647.94
847.554	3363.28
847.738	3514.83
847.922	3940.8
848.106	3938.76
848.29	3320.27
848.473	3504.59
848.657	3758.53
848.841	3606.98
849.025	3545.55
849.209	3367.37
849.392	3819.97
849.576	3678.66
849.76	3148.24
849.944	3740.1
850.127	3981.76
850.311	3408.33
850.495	3291.6
850.678	3240.4
850.862	3920.32
851.046	4043.2
851.229	3672.52
851.413	3279.31
851.596	3662.28
851.78	3641.8
851.964	3545.55
852.147	3451.34
852.331	4352.45
852.514	4096.45
852.698	3424.72
852.881	3158.48
853.065	3793.35
853.248	3668.42
853.431	3492.3
853.615	3680.71
853.798	4211.14
853.982	3772.87
854.165	3475.91
854.348	3320.27
854.532	3445.2
854.715	3484.11
854.898	3260.88
855.081	3328.46
855.265	3850.69
855.448	3981.76
855.631	3271.12
855.814	3303.89
855.997	3680.71
856.181	3480.01
856.364	3307.98
856.547	3060.18
856.73	3606.98
856.913	3469.77
857.096	3119.57
857.279	3461.58
857.462	3480.01
857.645	3729.86
857.828	3379.66
858.011	3334.61
858.194	3303.89
858.377	3699.14
858.56	3154.38
858.743	3221.97
858.926	3262.93
859.109	3766.73
859.292	3279.31
859.475	3076.56
859.658	3674.57
859.841	3557.83
860.023	3037.65
860.206	3025.36
860.389	3426.76
860.572	3797.45
860.755	3174.86
860.937	3129.81
861.12	3484.11
861.303	3482.06
861.486	3193.3
861.668	3131.86
861.851	3420.62
862.034	3289.55
862.216	3201.49
862.399	2806.23
862.581	3484.11
862.764	3674.57
862.947	3191.25
863.129	3049.94
863.312	3066.32
863.494	3670.47
863.677	3367.37
863.859	2974.16
864.042	3553.74
864.224	3582.41
864.406	3051.99
864.589	2877.91
864.771	3346.89
864.954	3094.99
865.136	3109.33
865.318	2908.63
865.501	3576.27
865.683	2810.33
865.865	2992.59
866.048	3090.9
866.23	3480.01
866.412	3391.95
866.594	2894.29
866.777	3156.43
866.959	3449.29
867.141	3213.77
867.323	3293.65
867.505	3074.51
867.687	3183.06
867.869	3375.56
868.052	3062.23
868.234	2859.48
868.416	3213.77
868.598	3506.63
868.78	3006.93
868.962	2843.09
869.144	3451.34
869.326	3457.48
869.508	2949.59
869.69	2879.96
869.872	3094.99
870.054	3592.65
870.236	2949.59
870.417	2824.66
870.599	3123.66
870.781	3518.92
870.963	2961.87
871.145	2820.56
871.327	2945.49
871.508	3361.23
871.69	2834.9
871.872	2912.72
872.054	3271.12
872.235	3285.45
872.417	2908.63
872.599	2806.23
872.78	3572.17
872.962	3185.1
873.144	2818.52
873.325	2990.55
873.507	3527.11
873.689	3117.52
873.87	2750.93
874.052	3031.51
874.233	3082.7
874.415	3494.35
874.596	2943.44
874.778	2808.28
874.959	3301.84
875.141	3410.38
875.322	2968.02
875.503	2857.43
875.685	3269.07
875.866	2666.97
876.048	2750.93
876.229	2761.17
876.41	3256.78
876.592	3275.21
876.773	2789.85
876.954	2709.97
877.136	3441.1
877.317	3099.09
877.498	2730.45
877.679	2986.45
877.86	3277.26
878.042	3228.11
878.223	2888.15
878.404	3203.54
878.585	3240.4
878.766	3553.74
878.947	3103.18
879.128	3060.18
879.309	3353.04
879.49	3443.15
879.672	3039.7
879.853	2949.59
880.034	3027.41
880.215	3312.08
880.396	3090.9
880.576	3013.07
880.757	3008.98
880.938	3654.09
881.119	2804.18
881.3	2818.52
881.481	3127.76
881.662	3994.05
881.843	2810.33
882.023	2839
882.204	3334.61
882.385	3322.32
882.566	3025.36
882.747	2875.86
882.927	3256.78
883.108	3447.24
883.289	3033.55
883.469	3281.36
883.65	3006.93
883.831	3318.22
884.011	3213.77
884.192	2927.06
884.373	3619.27
884.553	3463.63
884.734	3162.58
884.914	3185.1
885.095	4049.35
885.275	3637.7
885.456	3379.66
885.636	2978.26
885.817	3412.43
885.997	3252.69
886.178	2982.35
886.358	3162.58
886.538	3459.53
886.719	4501.95
886.899	3076.56
887.08	3135.95
887.26	3662.28
887.44	3080.66
887.621	2884.05
887.801	3213.77
887.981	3926.47
888.161	3391.95
888.342	3234.25
888.522	3047.89
888.702	3539.4
888.882	3701.19
889.062	3291.6
889.242	2802.13
889.423	3711.43
889.603	3523.02
889.783	3066.32
889.963	3047.89
890.143	3619.27
890.323	3666.38
890.503	2990.55
890.683	3133.9
890.863	3363.28
891.043	3371.47
891.223	3348.94
891.403	3381.71
891.583	3264.97
891.763	3449.29
891.943	3150.29
892.122	3062.23
892.302	3324.37
892.482	3328.46
892.662	3305.93
892.842	3170.77
893.022	3334.61
893.201	3232.21
893.381	3320.27
893.561	3138
893.741	3518.92
893.92	3428.81
894.1	3162.58
894.28	3242.45
894.459	3609.03
894.639	3482.06
894.819	3047.89
894.998	3203.54
895.178	3473.87
895.357	3477.96
895.537	3064.27
895.716	2894.29
895.896	3305.93
896.075	3768.77
896.255	3049.94
896.434	2925.01
896.614	3486.15
896.793	3537.35
896.973	3224.01
897.152	3207.63
897.331	3365.32
897.511	3555.79
897.69	2929.11
897.87	2955.73
898.049	3525.07
898.228	3416.52
898.407	3164.62
898.587	3066.32
898.766	3072.47
898.945	3629.51
899.124	3117.52
899.304	3047.89
899.483	3389.9
899.662	3715.53
899.841	2986.45
900.02	2890.2
900.199	3731.91
900.378	3324.37
900.557	2855.38
900.737	2767.32
900.916	3287.5
901.095	3342.8
901.274	3162.58
901.453	2816.47
901.632	2961.87
901.811	3031.51
901.989	2834.9
902.168	2843.09
902.347	3342.8
902.526	3029.46
902.705	2818.52
902.884	2884.05
903.063	3342.8
903.242	3330.51
903.42	2812.37
903.599	2955.73
903.778	3369.42
903.957	3437
904.135	3000.79
904.314	2800.09
904.493	2996.69
904.672	3185.1
904.85	2718.17
905.029	2671.06
905.207	3262.93
905.386	3699.14
905.565	2634.2
905.743	2648.54
905.922	2859.48
906.1	3094.99
906.279	2580.95
906.457	2425.31
906.636	2845.14
906.814	2779.61
906.993	2507.23
907.171	2507.23
907.35	3115.47
907.528	3043.79
907.707	2882
907.885	2449.88
908.063	3219.92
908.242	2585.05
908.42	2548.19
908.598	2331.1
908.777	3013.07
908.955	2650.58
909.133	2597.34
909.311	2415.07
909.49	2785.75
909.668	2681.3
909.846	2511.32
910.024	2243.04
910.202	2791.89
910.38	2845.14
910.559	2466.27
910.737	2447.83
910.915	2902.48
911.093	2908.63
911.271	2556.38
911.449	2759.13
911.627	2931.16
911.805	3441.1
911.983	2542.04
912.161	2542.04
912.339	3076.56
912.517	3254.73
912.695	2709.97
912.872	2564.57
913.05	2685.4
913.228	2912.72
913.406	2666.97
913.584	2544.09
913.762	3203.54
913.939	2841.04
914.117	2583
914.295	2527.71
914.473	3051.99
914.65	3031.51
914.828	2726.36
915.006	2679.26
915.184	2666.97
915.361	2959.83
915.539	2771.41
915.716	2783.7
915.894	3060.18
916.072	3103.18
916.249	2867.67
916.427	2738.65
916.604	2699.73
916.782	3107.28
916.959	2410.97
917.137	2642.39
917.314	2949.59
917.492	2922.96
917.669	2736.6
917.847	2744.79
918.024	2949.59
918.201	2671.06
918.379	2576.86
918.556	2615.77
918.733	3178.96
918.911	2736.6
919.088	2789.85
919.265	2597.34
919.442	2927.06
919.62	2826.71
919.797	2535.9
919.974	2466.27
920.151	2935.25
920.328	2822.61
920.506	2644.44
920.683	2822.61
920.86	2716.12
921.037	2548.19
921.214	2626.01
921.391	2505.18
921.568	3064.27
921.745	2527.71
921.922	2539.99
922.099	2413.02
922.276	2955.73
922.453	2771.41
922.63	2462.17
922.807	2781.65
922.984	2791.89
923.161	2531.8
923.338	2589.14
923.514	2378.2
923.691	2634.2
923.868	2875.86
924.045	2419.16
924.222	2372.06
924.399	2802.13
924.575	2951.63
924.752	2482.65
924.929	2392.54
925.105	2724.31
925.282	2503.13
925.459	2355.68
925.635	2523.61
925.812	2644.44
925.989	2623.96
926.165	2449.88
926.342	2187.74
926.518	2496.99
926.695	2693.59
926.871	2349.53
927.048	2212.32
927.224	2834.9
927.401	2437.59
927.577	2380.25
927.754	2220.51
927.93	2853.33
928.107	2691.54
928.283	2286.05
928.459	2419.16
928.636	2671.06
928.812	2589.14
928.988	2202.08
929.165	2114.02
929.341	2513.37
929.517	2613.72
929.693	2605.53
929.87	2087.39
930.046	2587.1
930.222	2343.39
930.398	2118.11
930.574	2361.82
930.751	2347.48
930.927	2398.68
931.103	2269.66
931.279	2179.55
931.455	2210.27
931.631	2542.04
931.807	1866.21
931.983	2009.57
932.159	2101.73
932.335	2195.93
932.511	2163.17
932.687	2146.78
932.863	2437.59
933.039	2271.71
933.215	2066.91
933.391	2042.34
933.566	2163.17
933.742	2339.29
933.918	2015.71
934.094	1929.7
934.27	2302.43
934.445	2101.73
934.621	2046.43
934.797	1802.72
934.973	2327
935.148	2224.61
935.324	1831.4
935.5	1665.51
935.675	2361.82
935.851	2114.02
936.027	1810.92
936.202	1812.96
936.378	2210.27
936.553	1956.32
936.729	2232.8
936.904	1667.56
937.08	1630.7
937.255	1696.23
937.431	1577.45
937.606	1495.53
937.782	1589.74
937.957	1749.48
938.133	1661.41
938.308	1411.56
938.483	1679.85
938.659	1356.27
938.834	1573.35
939.009	1378.79
939.185	1604.07
939.36	1503.72
939.535	1020.4
939.71	1386.99
939.886	1788.39
940.061	1745.38
940.236	1546.73
940.411	1366.51
940.586	1735.14
940.761	1741.29
940.937	1245.68
941.112	1147.37
941.287	1458.67
941.462	1489.39
941.637	1126.89
941.812	1266.16
941.987	1524.2
942.162	1450.47
942.337	1229.29
942.512	1112.56
942.687	1589.74
942.862	1604.07
943.037	1106.42
943.212	903.67
943.386	1227.25
943.561	1346.03
943.736	1386.99
943.911	1522.15
944.086	1544.68
944.26	1477.1
944.435	1137.13
944.61	1274.35
944.785	1624.55
944.959	1905.12
945.134	1145.33
945.309	1102.32
945.483	1176.05
945.658	1563.11
945.833	881.14
946.007	999.92
946.182	1708.52
946.357	1065.46
946.531	1028.59
946.706	1044.98
946.88	995.82
947.055	1481.19
947.229	1155.57
947.404	1090.03
947.578	1610.22
947.752	1360.36
947.927	991.73
948.101	901.62
948.276	1542.63
948.45	1386.99
948.624	1393.13
948.799	1094.13
948.973	1552.87
949.147	1090.03
949.321	1237.49
949.496	1090.03
949.67	1597.93
949.844	1425.9
950.018	1184.24
950.193	1151.47
950.367	1913.31
950.541	1331.69
950.715	1239.53
950.889	1327.6
951.063	1429.99
951.237	1583.59
951.411	940.53
951.585	1044.98
951.759	1587.69
951.933	1524.2
952.107	1188.33
952.281	1423.85
952.455	1802.72
952.629	1669.61
952.803	1204.72
952.977	1208.81
953.151	1745.38
953.325	1505.77
953.499	1296.88
953.672	983.54
953.846	1180.14
954.02	1382.89
954.194	1188.33
954.368	1067.5
954.541	1608.17
954.715	1307.12
954.889	1247.72
955.062	1042.93
955.236	1479.15
955.41	1419.75
955.583	1317.36
955.757	1024.5
955.93	1405.42
956.104	1081.84
956.278	1257.96
956.451	1309.16
956.625	1696.23
956.798	1950.18
956.972	1548.78
957.145	1180.14
957.319	1507.82
957.492	1417.71
957.665	1438.19
957.839	1315.31
958.012	1593.83
958.185	1389.03
958.359	1329.64
958.532	1393.13
958.705	1647.08
958.879	1491.43
959.052	1403.37
959.225	1051.12
959.398	1479.15
959.572	1540.58
959.745	1280.49
959.918	1311.21
960.091	1411.56
960.264	1622.5
960.438	1200.62
960.611	1153.52
960.784	1708.52
960.957	1497.58
961.13	1569.26
961.303	1176.05
961.476	1518.06
961.649	1769.96
961.822	1169.9
961.995	1364.46
962.168	1729
962.341	1505.77
962.514	1288.68
962.686	1186.29
962.859	1602.02
963.032	1616.36
963.205	1237.49
963.378	1122.8
963.551	1565.16
963.723	1421.8
963.896	1358.32
964.069	1456.62
964.242	1542.63
964.414	1729
964.587	1229.29
964.76	1360.36
964.932	1573.35
965.105	1401.32
965.278	1206.77
965.45	1124.85
965.623	1421.8
965.795	1604.07
965.968	1210.86
966.14	1225.2
966.313	1343.98
966.485	1499.63
966.658	1155.57
966.83	1126.89
967.003	1702.37
967.175	1556.97
967.348	1245.68
967.52	1296.88
967.692	1882.6
967.865	1747.43
968.037	1268.2
968.209	1458.67
968.382	1386.99
968.554	1673.7
968.726	1313.26
968.898	1085.94
969.071	1450.47
969.243	1673.7
969.415	1266.16
969.587	1245.68
969.759	1954.27
969.932	1524.2
970.104	1319.4
970.276	942.58
970.448	1380.84
970.62	1333.74
970.792	1253.87
970.964	1130.99
971.136	1911.27
971.308	1464.81
971.48	1139.18
971.652	1204.72
971.824	1831.4
971.996	1294.83
972.168	1225.2
972.339	1280.49
972.511	1671.65
972.683	1419.75
972.855	1415.66
973.027	1065.46
973.199	1395.18
973.37	1536.49
973.542	1305.07
973.714	1403.37
973.886	1376.75
974.057	1632.74
974.229	1032.69
974.401	1034.74
974.572	1196.53
974.744	987.63
974.915	961.01
975.087	1034.74
975.259	1690.09
975.43	1329.64
975.602	1124.85
975.773	1147.37
975.945	1186.29
976.116	1485.29
976.288	1006.06
976.459	1262.06
976.63	1217.01
976.802	1516.01
976.973	1073.65
977.145	1315.31
977.316	1790.44
977.487	1731.05
977.659	1266.16
977.83	1174
978.001	1694.18
978.172	1460.71
978.344	1006.06
978.515	1135.09
978.686	1143.28
978.857	1739.24
979.028	1120.75
979.2	983.54
979.371	1524.2
979.542	1335.79
979.713	1188.33
979.884	733.68
980.055	1151.47
980.226	1239.53
980.397	936.43
980.568	934.39
980.739	1532.39
980.91	1278.44
981.081	1204.72
981.252	897.52
981.423	1466.86
981.594	1460.71
981.765	889.33
981.936	1184.24
982.106	1294.83
982.277	1495.53
982.448	995.82
982.619	1266.16
982.79	1204.72
982.96	1434.09
983.131	1243.63
983.302	852.47
983.472	1182.19
983.643	1364.46
983.814	1059.31
983.984	1069.55
984.155	1243.63
984.326	1507.82
984.496	1192.43
984.667	934.39
984.837	1077.74
985.008	1384.94
985.178	1157.61
985.349	993.78
985.519	1057.26
985.69	1100.27
985.86	1057.26
986.031	848.37
986.201	1235.44
986.371	1270.25
986.542	903.67
986.712	780.79
986.882	1217.01
987.053	1294.83
987.223	770.55
987.393	1096.18
987.563	1098.22
987.734	1210.86
987.904	1196.53
988.074	856.56
988.244	1180.14
988.414	1020.4
988.585	825.84
988.755	1028.59
988.925	1149.42
989.095	1520.1
989.265	772.6
989.435	1014.26
989.605	1284.59
989.775	1288.68
989.945	1024.5
990.115	717.3
990.285	1118.7
990.455	1151.47
990.625	950.77
990.795	803.32
990.965	1384.94
991.134	915.95
991.304	852.47
991.474	813.56
991.644	1206.77
991.814	1516.01
991.984	743.92
992.153	758.26
992.323	934.39
992.493	1053.17
992.662	573.94
992.832	944.63
993.002	1049.07
993.171	1098.22
993.341	604.66
993.511	1014.26
993.68	864.75
993.85	1159.66
994.019	590.33
994.189	684.53
994.358	1190.38
994.528	791.03
994.697	504.31
994.867	549.37
995.036	1081.84
995.206	813.56
995.375	598.52
995.544	752.12
995.714	1118.7
995.883	909.81
996.052	721.4
996.222	508.41
996.391	1438.19
996.56	1026.54
996.73	530.94
996.899	475.64
997.068	1190.38
997.237	954.87
997.406	569.85
997.576	494.07
997.745	899.57
997.914	1032.69
998.083	387.58
998.252	543.22
998.421	1053.17
998.59	739.83
998.759	592.37
998.928	453.11
999.097	1229.29
999.266	897.52
999.435	700.92
999.604	365.05
999.773	1294.83
999.942	797.17
1000.111	461.3
1000.28	442.87
1000.448	637.43
1000.617	657.91
1000.786	831.99
1000.955	434.68
1001.124	913.91
1001.292	1493.48
1001.461	457.21
1001.63	487.93
1001.798	1208.81
1001.967	1180.14
1002.136	299.52
1002.304	428.54
1002.473	868.85
1002.642	922.1
1002.81	557.56
1002.979	520.7
1003.147	838.13
1003.316	1253.87
1003.484	512.5
1003.653	477.69
1003.821	1118.7
1003.99	664.05
1004.158	647.67
1004.327	532.98
1004.495	928.24
1004.663	516.6
1004.832	623.09
1005	375.29
1005.168	1069.55
1005.337	901.62
1005.505	299.52
1005.673	674.29
1005.842	858.61
1006.01	854.51
1006.178	352.76
1006.346	373.24
1006.514	872.95
1006.683	991.73
1006.851	340.47
1007.019	510.46
1007.187	492.02
1007.355	328.19
1007.523	180.73
1007.691	365.05
1007.859	434.68
1008.027	1001.97
1008.195	469.5
1008.363	238.08
1008.531	946.67
1008.699	485.88
1008.867	242.17
1009.035	356.86
1009.203	961.01
1009.37	834.04
1009.538	295.42
1009.706	872.95
1009.874	694.77
1010.042	641.53
1010.209	250.36
1010.377	195.07
1010.545	874.99
1010.713	651.77
1010.88	270.84
1011.048	379.39
1011.216	553.46
1011.383	997.87
1011.551	231.93
1011.718	201.21
1011.886	946.67
1012.054	524.79
1012.221	209.4
1012.389	231.93
1012.556	567.8
1012.724	1065.46
1012.891	496.12
1013.058	59.9
1013.226	778.74
1013.393	889.33
1013.561	166.4
1013.728	115.2
1013.895	881.14
1014.063	743.92
1014.23	162.3
1014.397	285.18
1014.565	774.64
1014.732	561.66
1014.899	258.56
1015.066	141.82
1015.233	551.42
1015.401	750.07
1015.568	309.76
1015.735	340.47
1015.902	625.14
1016.069	829.94
1016.236	242.17
1016.403	117.25
1016.57	406.01
1016.737	799.22
1016.904	197.12
1017.071	111.1
1017.238	401.91
1017.405	748.02
1017.572	168.45
1017.739	360.95
1017.906	688.63
1018.073	764.4
1018.24	61.95
1018.407	264.7
1018.573	819.7
1018.74	500.22
1018.907	221.69
1019.074	45.57
1019.241	692.73
1019.407	608.76
1019.574	121.34
1019.741	31.23
1019.907	709.11
1020.074	631.29
1020.241	-28.16
1020.407	45.57
1020.574	535.03
1020.74	621.05
1020.907	150.01
1021.073	88.57
1021.24	1163.76
1021.406	846.32
1021.573	94.72
1021.739	102.91
1021.906	727.54
1022.072	446.97
1022.239	129.53
1022.405	193.02
1022.571	502.26
1022.738	352.76
1022.904	152.06
1023.07	240.12
1023.237	557.56
1023.403	727.54
1023.569	170.49
1023.735	199.16
1023.902	582.14
1024.068	541.18
1024.234	20.99
1024.4	121.34
1024.566	518.65
1024.732	676.34
1024.898	80.38
1025.065	-65.02
1025.231	725.49
1025.397	367.1
1025.563	115.2
1025.729	23.04
1025.895	2.56
1026.061	229.88
1026.227	-130.56
1026.392	66.05
1026.558	768.5
1026.724	541.18
1026.89	-22.02
1027.056	102.91
1027.222	569.85
1027.388	322.04
1027.553	70.14
1027.719	-38.4
1027.885	885.23
1028.051	631.29
1028.216	-136.7
1028.382	182.78
1028.548	625.14
1028.713	365.05
1028.879	-42.5
1029.045	213.5
1029.21	762.36
1029.376	602.61
1029.541	119.29
1029.707	131.58
1029.873	610.81
1030.038	741.88
1030.204	33.28
1030.369	135.68
1030.534	625.14
1030.7	311.8
1030.865	166.4
1031.031	20.99
1031.196	555.51
1031.361	444.92
1031.527	45.57
1031.692	12.8
1031.857	39.42
1032.023	532.98
1032.188	-87.55
1032.353	82.43
1032.518	705.01
1032.684	483.83
1032.849	-11.78
1033.014	64
1033.179	518.65
1033.344	489.98
1033.509	111.1
1033.674	-30.21
1033.839	635.38
1034.004	573.94
1034.17	-40.45
1034.335	8.7
1034.5	332.28
1034.664	264.7
1034.829	-56.83
1034.994	18.94
1035.159	496.12
1035.324	420.35
1035.489	18.94
1035.654	90.62
1035.819	670.2
1035.984	504.31
1036.148	123.39
1036.313	107.01
1036.478	590.33
1036.643	475.64
1036.807	-32.26
1036.972	-40.45
1037.137	664.05
1037.301	383.48
1037.466	-114.17
1037.631	162.3
1037.795	741.88
1037.96	352.76
1038.124	229.88
1038.289	-118.27
1038.454	602.61
1038.618	487.93
1038.783	76.29
1038.947	125.44
1039.111	492.02
1039.276	346.62
1039.44	-3.58
1039.605	504.31
1039.769	342.52
1039.933	305.66
1040.098	45.57
1040.262	168.45
1040.426	571.9
1040.591	571.9
1040.755	-75.26
1040.919	-28.16
1041.083	442.87
1041.248	340.47
1041.412	-140.8
1041.576	-97.79
1041.74	281.08
1041.904	537.08
1042.068	-134.65
1042.232	0.51
1042.397	528.89
1042.561	469.5
1042.725	-214.52
1042.889	143.87
1043.053	694.77
1043.217	387.58
1043.381	102.91
1043.544	-120.32
1043.708	594.42
1043.872	115.2
1044.036	-132.61
1044.2	-194.05
1044.364	563.7
1044.528	688.63
1044.691	2963.92
1044.855	-120.32
1045.019	575.99
1045.183	520.7
1045.346	-19.97
1045.51	-97.79
1045.674	451.07
1045.837	492.02
1046.001	16.9
1046.165	-22.02
1046.328	909.81
1046.492	463.35
1046.655	168.45
1046.819	16.9
1046.983	190.97
1047.146	418.3
1047.31	8.7
1047.473	-235
1047.636	406.01
1047.8	141.82
1047.963	-30.21
1048.127	-7.68
1048.29	221.69
