Data from Hydrogel_Ink_Intensity_Test_1_USB4F045381__8__00008.txt Node

Date: Mon Jul 31 10:36:31 EDT 2023
User: mmckonesweet
Spectrometer: USB4F04538
Trigger mode: 4
Integration Time (sec): 9.000000E-1
Scans to average: 1
Electric dark correction enabled: true
Nonlinearity correction enabled: false
Boxcar width: 0
XAxis mode: Wavelengths
Number of Pixels in Spectrum: 3648
>>>>>Begin Spectral Data<<<<<
345.52	-878.58
345.736	-878.58
345.952	-878.58
346.168	-956.4
346.384	-931.83
346.6	-172.03
346.816	-219.13
347.032	-204.8
347.248	237.56
347.464	-133.12
347.68	-30.72
347.896	145.41
348.112	372.73
348.328	2.05
348.544	-61.44
348.76	-30.72
348.975	94.21
349.191	-167.93
349.407	-14.34
349.623	108.54
349.839	28.67
350.055	55.3
350.27	57.34
350.486	264.19
350.702	382.97
350.918	342.01
351.133	-133.12
351.349	215.04
351.565	450.55
351.781	-149.5
351.996	122.88
352.212	376.83
352.428	-53.25
352.644	-112.64
352.859	-67.58
353.075	313.34
353.291	18.43
353.506	59.39
353.722	-149.5
353.938	-14.34
354.153	468.98
354.369	165.89
354.584	-122.88
354.8	296.96
355.016	-223.23
355.231	-141.31
355.447	6.14
355.662	163.84
355.878	985.07
356.093	-288.76
356.309	55.3
356.524	-192.51
356.74	227.32
356.955	-12.29
357.171	43.01
357.386	229.37
357.602	-120.83
357.817	92.16
358.033	-90.11
358.248	450.55
358.464	153.6
358.679	-38.91
358.895	-194.56
359.11	34.82
359.325	423.93
359.541	264.19
359.756	124.93
359.972	-120.83
360.187	143.36
360.402	-30.72
360.618	-10.24
360.833	825.33
361.048	296.96
361.264	-81.92
361.479	-32.77
361.694	90.11
361.909	278.52
362.125	-6.14
362.34	38.91
362.555	374.78
362.77	192.51
362.986	-90.11
363.201	-24.58
363.416	219.13
363.631	100.35
363.847	-47.1
364.062	-67.58
364.277	329.72
364.492	262.14
364.707	57.34
364.922	-241.66
365.138	366.59
365.353	468.98
365.568	-178.17
365.783	28.67
365.998	180.22
366.213	774.13
366.428	-114.69
366.643	229.37
366.858	354.3
367.073	317.44
367.288	4.1
367.503	-20.48
367.718	198.65
367.933	430.07
368.148	-75.77
368.363	88.06
368.578	4.1
368.793	559.1
369.008	36.86
369.223	-38.91
369.438	385.02
369.653	507.9
369.868	-120.83
370.083	-22.53
370.298	167.93
370.513	536.57
370.728	262.14
370.943	-81.92
371.157	-8.19
371.372	618.49
371.587	-90.11
371.802	-90.11
372.017	112.64
372.232	567.29
372.446	190.46
372.661	-47.1
372.876	409.59
373.091	305.15
373.306	124.93
373.52	-49.15
373.735	-4.1
373.95	483.32
374.165	88.06
374.379	24.58
374.594	32.77
374.809	225.28
375.023	311.29
375.238	36.86
375.453	405.5
375.667	-57.34
375.882	40.96
376.097	59.39
376.311	188.41
376.526	202.75
376.741	92.16
376.955	317.44
377.17	763.89
377.384	735.22
377.599	47.1
377.813	-22.53
378.028	702.45
378.242	270.33
378.457	159.74
378.672	-94.21
378.886	237.56
379.101	223.23
379.315	-141.31
379.53	81.92
379.744	428.03
379.958	344.06
380.173	167.93
380.387	43.01
380.602	436.22
380.816	53.25
381.031	34.82
381.245	169.98
381.459	366.59
381.674	2568.15
381.888	114.69
382.103	364.54
382.317	22.53
382.531	753.65
382.746	237.56
382.96	137.21
383.174	45.06
383.388	552.95
383.603	366.59
383.817	-18.43
384.031	407.55
384.246	665.59
384.46	227.32
384.674	624.63
384.888	266.24
385.103	360.44
385.317	26.62
385.531	305.15
385.745	579.58
385.959	620.53
386.174	49.15
386.388	120.83
386.602	268.28
386.816	296.96
387.03	235.52
387.244	229.37
387.458	391.16
387.672	634.87
387.887	51.2
388.101	55.3
388.315	653.3
388.529	442.36
388.743	272.38
388.957	67.58
389.171	571.38
389.385	139.26
389.599	202.75
389.813	370.68
390.027	403.45
390.241	956.4
390.455	245.76
390.669	235.52
390.883	317.44
391.097	825.33
391.311	405.5
391.525	174.08
391.738	538.62
391.952	475.13
392.166	356.35
392.38	157.69
392.594	657.4
392.808	694.26
393.022	362.49
393.236	196.61
393.449	530.42
393.663	524.28
393.877	278.52
394.091	374.78
394.305	169.98
394.518	223.23
394.732	88.06
394.946	423.93
395.16	851.96
395.373	555
395.587	260.09
395.801	374.78
396.015	704.5
396.228	681.97
396.442	210.94
396.656	169.98
396.869	808.95
397.083	811
397.297	368.63
397.51	321.53
397.724	860.15
397.938	577.53
398.151	180.22
398.365	188.41
398.578	628.73
398.792	737.27
399.005	450.55
399.219	411.64
399.433	565.24
399.646	743.41
399.86	499.7
400.073	552.95
400.287	772.08
400.5	522.23
400.714	534.52
400.927	475.13
401.141	696.31
401.354	1486.83
401.567	804.85
401.781	282.62
401.994	886.77
402.208	1193.97
402.421	473.08
402.635	423.93
402.848	722.93
403.061	882.67
403.275	569.34
403.488	339.96
403.701	1185.77
403.915	851.96
404.128	602.1
404.341	452.6
404.555	763.89
404.768	645.11
404.981	675.83
405.195	434.17
405.408	1191.92
405.621	876.53
405.834	706.55
406.048	473.08
406.261	1019.89
406.474	1130.48
406.687	509.94
406.9	638.97
407.114	667.64
407.327	940.02
407.54	544.76
407.753	446.46
407.966	456.7
408.179	894.96
408.392	567.29
408.605	419.83
408.819	860.15
409.032	948.21
409.245	651.25
409.458	786.42
409.671	1026.03
409.884	1171.44
410.097	448.51
410.31	745.46
410.523	942.07
410.736	757.75
410.949	679.93
411.162	722.93
411.375	1277.93
411.588	1171.44
411.801	911.35
412.014	692.21
412.227	792.56
412.44	706.55
412.653	700.41
412.865	888.82
413.078	1091.57
413.291	1013.74
413.504	831.48
413.717	657.4
413.93	1095.66
414.143	737.27
414.356	831.48
414.568	522.23
414.781	1122.29
414.994	1003.5
415.207	880.63
415.42	792.56
415.632	1144.81
415.845	1441.77
416.058	737.27
416.271	671.73
416.483	1021.94
416.696	1419.24
416.909	821.24
417.121	835.57
417.334	1148.91
417.547	1474.54
417.759	817.14
417.972	825.33
418.185	1013.74
418.397	1208.3
418.61	856.05
418.823	821.24
419.035	1423.34
419.248	1007.6
419.46	1036.27
419.673	989.17
419.885	1212.4
420.098	1097.71
420.311	923.63
420.523	743.41
420.736	1314.8
420.948	1167.34
421.161	927.73
421.373	796.66
421.586	1198.06
421.798	1013.74
422.01	858.1
422.223	1015.79
422.435	1071.09
422.648	1376.24
422.86	1036.27
423.073	1009.65
423.285	1458.15
423.497	1001.46
423.71	991.22
423.922	983.03
424.134	1349.61
424.347	1544.17
424.559	1390.57
424.771	1343.47
424.984	1257.45
425.196	1368.04
425.408	976.88
425.621	1042.42
425.833	1570.79
426.045	1552.36
426.257	1118.19
426.47	1138.67
426.682	1421.29
426.894	1550.31
427.106	1204.21
427.318	1228.78
427.531	1222.64
427.743	1552.36
427.955	1236.97
428.167	1634.28
428.379	1646.57
428.591	1404.91
428.804	1474.54
429.016	1130.48
429.228	1327.08
429.44	1607.66
429.652	1531.88
429.864	1206.25
430.076	1538.02
430.288	1533.93
430.5	1337.32
430.712	1480.68
430.924	1873.89
431.136	1658.85
431.348	1296.36
431.56	1357.8
431.772	1476.59
431.984	1439.72
432.196	1415.15
432.408	1447.91
432.62	1681.38
432.832	1769.45
433.044	1755.11
433.256	1615.85
433.468	1826.79
433.679	1478.63
433.891	1482.73
434.103	1822.69
434.315	2004.96
434.527	1865.7
434.739	1630.18
434.95	1769.45
435.162	2045.92
435.374	1675.24
435.586	1650.66
435.798	1652.71
436.009	1628.14
436.221	1771.49
436.433	1648.61
436.645	1802.21
436.856	1779.68
437.068	2162.66
437.28	1679.33
437.491	1976.29
437.703	2119.65
437.915	1923.04
438.126	1937.38
438.338	2097.12
438.55	2131.94
438.761	2127.84
438.973	1896.42
439.184	1894.37
439.396	2045.92
439.608	2326.49
439.819	1818.6
440.031	2086.88
440.242	2113.5
440.454	2195.42
440.665	1990.63
440.877	2062.3
441.088	2166.75
441.3	2068.45
441.511	1824.74
441.723	1929.19
441.934	2238.43
442.146	2109.41
442.357	2162.66
442.569	2336.73
442.78	2299.87
442.991	2600.92
443.203	2324.44
443.414	2000.87
443.626	2523.1
443.837	2142.18
444.048	2082.78
444.26	1832.93
444.471	2263.01
444.682	2467.8
444.894	1837.03
445.105	2011.11
445.316	2549.72
445.528	2478.04
445.739	2303.96
445.95	2344.92
446.161	2342.88
446.373	2836.44
446.584	2275.29
446.795	2199.52
447.006	2652.12
447.217	2764.76
447.429	2086.88
447.64	2197.47
447.851	2734.04
448.062	2574.3
448.273	2246.62
448.484	2306.01
448.695	2611.16
448.907	2410.46
449.118	2478.04
449.329	2523.1
449.54	2432.99
449.751	2473.95
449.962	2285.53
450.173	2416.6
450.384	2856.92
450.595	3160.02
450.806	2543.58
451.017	2592.73
451.228	2979.79
451.439	3030.99
451.65	2605.02
451.861	2250.72
452.072	2627.54
452.283	2781.14
452.494	2682.84
452.705	2535.39
452.915	3155.92
453.126	2979.79
453.337	2660.31
453.548	2645.98
453.759	3135.44
453.97	3487.69
454.181	2916.31
454.391	2752.47
454.602	2906.07
454.813	3147.73
455.024	2899.92
455.235	2838.48
455.445	3039.19
455.656	3026.9
455.867	3104.72
456.078	2824.15
456.288	2992.08
456.499	3264.46
456.71	2979.79
456.921	3270.61
457.131	3297.23
457.342	3262.41
457.553	3049.43
457.763	3094.48
457.974	3459.02
458.184	3444.68
458.395	3172.3
458.606	3143.63
458.816	3532.75
459.027	3979.2
459.237	3469.26
459.448	3215.31
459.659	3649.48
459.869	3989.44
460.08	3192.78
460.29	3700.68
460.501	4235.2
460.711	3665.86
460.922	3350.48
461.132	3588.04
461.343	4370.37
461.553	3514.31
461.764	3590.09
461.974	3604.43
462.184	3899.33
462.395	4106.18
462.605	4014.02
462.816	3563.47
463.026	3909.57
463.236	4327.36
463.447	3850.18
463.657	3829.7
463.867	4435.9
464.078	4169.66
464.288	4167.62
464.498	4104.13
464.709	4212.67
464.919	4206.53
465.129	4167.62
465.339	4145.09
465.55	4571.07
465.76	4607.93
465.97	4308.93
466.18	4556.73
466.391	4999.09
466.601	4628.41
466.811	4622.27
467.021	4304.83
467.231	4878.26
467.441	5066.67
467.651	4775.86
467.862	4515.77
468.072	4925.36
468.282	5435.31
468.492	4904.89
468.702	4999.09
468.912	5085.11
469.122	5658.54
469.332	5437.36
469.542	5038
469.752	5556.14
469.962	5441.45
470.172	5248.94
470.382	5433.26
470.592	5777.32
470.802	5949.35
471.012	5521.32
471.222	5525.42
471.432	6186.91
471.642	6061.99
471.852	5971.88
472.062	5769.13
472.272	6107.04
472.482	5867.43
472.691	5973.92
472.901	5738.41
473.111	6463.39
473.321	6924.18
473.531	6070.18
473.741	6440.86
473.95	6623.13
474.16	6676.38
474.37	6729.63
474.58	6504.35
474.79	7161.75
474.999	7227.28
475.209	6647.71
475.419	6944.66
475.628	7163.79
475.838	7303.06
476.048	7055.25
476.258	7042.96
476.467	7823.24
476.677	7503.76
476.886	7597.96
477.096	7425.93
477.306	7677.83
477.515	8040.33
477.725	7612.3
477.935	7749.51
478.144	8400.77
478.354	7890.82
478.563	8202.11
478.773	8083.33
478.982	8486.78
479.192	8736.63
479.401	8316.8
479.611	8400.77
479.82	8519.55
480.03	8849.27
480.239	8742.78
480.449	8763.26
480.658	9424.75
480.868	8992.63
481.077	8869.75
481.287	9234.29
481.496	9402.22
481.705	9705.32
481.915	9445.23
482.124	9381.74
482.333	9625.45
482.543	9967.46
482.752	9496.43
482.961	9809.77
483.171	9989.99
483.38	9840.49
483.589	9961.32
483.799	9938.79
484.008	10211.17
484.217	10620.77
484.426	10286.95
484.636	10159.97
484.845	10682.2
485.054	10231.65
485.263	10708.83
485.472	10567.52
485.682	11210.58
485.891	10841.95
486.1	10575.71
486.309	10993.5
486.518	11108.18
486.727	11317.08
486.936	10919.77
487.146	11351.89
487.355	11845.45
487.564	11341.65
487.773	11401.04
487.982	11595.6
488.191	11870.03
488.4	11806.54
488.609	11673.42
488.818	11943.75
489.027	12785.47
489.236	12752.7
489.445	12103.5
489.654	11976.52
489.863	12810.04
490.072	12572.48
490.281	12814.14
490.49	12619.58
490.698	13109.05
490.907	13000.51
491.116	12799.8
491.325	12775.23
491.534	13240.12
491.743	13016.89
491.952	12883.77
492.16	13272.89
492.369	13252.41
492.578	13580.08
492.787	13547.31
492.996	13209.4
493.204	13618.99
493.413	14120.74
493.622	13211.45
493.831	13266.74
494.039	14237.48
494.248	13760.3
494.457	14022.44
494.665	13723.44
494.874	14180.14
495.083	14573.35
495.291	13977.39
495.5	14221.09
495.709	14423.84
495.917	14483.24
496.126	14325.54
496.335	14460.71
496.543	14567.2
496.752	14837.53
496.96	14870.3
497.169	14497.57
497.377	14821.15
497.586	15107.87
497.794	15114.01
498.003	14870.3
498.211	15226.65
498.42	15746.83
498.628	15367.96
498.837	15087.39
499.045	15613.71
499.254	15466.26
499.462	15372.05
499.671	15163.16
499.879	15931.15
500.087	16279.3
500.296	15472.4
500.504	15877.9
500.713	15978.25
500.921	16740.1
501.129	15779.6
501.338	15638.29
501.546	16482.05
501.754	16236.3
501.962	16027.4
502.171	16201.48
502.379	16830.21
502.587	16922.37
502.795	16070.41
503.004	16187.15
503.212	16781.06
503.42	16781.06
503.628	16676.61
503.837	16811.78
504.045	17008.38
504.253	17428.21
504.461	16760.58
504.669	16590.59
504.877	17348.34
505.085	17555.19
505.294	17073.92
505.502	17168.12
505.71	17424.12
505.918	17676.02
506.126	16996.09
506.334	17313.53
506.542	17585.91
506.75	17557.24
506.958	17782.51
507.166	17696.5
507.374	17823.47
507.582	18056.94
507.79	17915.63
507.998	17893.1
508.206	18147.05
508.414	18188.01
508.622	17934.06
508.83	17798.9
509.037	18431.72
509.245	17811.18
509.453	17745.65
509.661	17864.43
509.869	18523.88
510.077	18241.26
510.285	18595.56
510.492	17854.19
510.7	19347.16
510.908	18388.71
511.116	18413.29
511.324	18540.26
511.531	18931.42
511.739	18958.05
511.947	19042.01
512.155	19082.97
512.362	18958.05
512.57	18708.19
512.778	18560.74
512.985	19031.77
513.193	19304.15
513.401	19400.41
513.608	19138.27
513.816	19179.23
514.024	19328.73
514.231	19846.87
514.439	19177.18
514.646	19232.47
514.854	19719.89
515.061	19664.6
515.269	19189.47
515.477	19283.67
515.684	19566.29
515.892	20076.24
516.099	19535.57
516.307	19721.94
516.514	20152.01
516.722	19998.41
516.929	19764.95
517.136	19728.08
517.344	20311.75
517.551	20254.41
517.759	19908.3
517.966	19967.7
518.173	20029.13
518.381	20514.5
518.588	20002.51
518.796	19953.36
519.003	20518.6
519.21	20391.62
519.418	20557.51
519.625	20582.09
519.832	20668.1
520.039	20803.27
520.247	20610.76
520.454	20930.24
520.661	21425.85
520.868	20991.68
521.076	20864.71
521.283	21010.11
521.49	21862.07
521.697	21313.21
521.904	21335.74
522.112	21149.37
522.319	21909.17
522.526	21333.69
522.733	21327.55
522.94	21384.89
523.147	21538.49
523.354	21812.92
523.561	21116.61
523.768	21542.58
523.975	22439.59
524.183	22040.24
524.39	21888.69
524.597	21903.03
524.804	22267.56
525.011	22011.57
525.218	21753.52
525.425	22132.4
525.632	22640.29
525.838	22197.93
526.045	21919.41
526.252	22156.97
526.459	23541.4
526.666	23428.76
526.873	22472.36
527.08	22498.98
527.287	23148.19
527.494	22806.18
527.701	22812.32
527.907	22443.69
528.114	23262.88
528.321	22730.41
528.528	22609.57
528.735	22677.16
528.941	23096.99
529.148	22634.15
529.355	22959.78
529.562	22511.27
529.768	23340.7
529.975	22675.11
530.182	23121.57
530.388	22927.01
530.595	23758.49
530.802	23305.88
531.008	23486.11
531.215	23445.15
531.422	24356.49
531.628	24346.25
531.835	23568.02
532.042	24028.82
532.248	23985.81
532.455	24020.63
532.661	23674.52
532.868	23899.8
533.074	24358.54
533.281	24870.53
533.487	24129.17
533.694	24067.73
533.9	24239.76
534.107	24301.2
534.313	24448.65
534.52	24395.4
534.726	24999.55
534.933	24956.55
535.139	24579.72
535.345	24565.39
535.552	24936.07
535.758	25142.91
535.965	24671.88
536.171	25032.32
536.377	25362.04
536.584	25400.96
536.79	24891.01
536.996	25360
537.203	25433.72
537.409	25278.08
537.615	24946.31
537.821	24854.15
538.028	25810.55
538.234	25712.25
538.44	25527.93
538.646	25171.58
538.853	25732.73
539.059	25613.95
539.265	25710.2
539.471	25325.18
539.677	26138.23
539.883	26201.71
540.09	25628.28
540.296	26300.01
540.502	26429.04
540.708	26033.78
540.914	26293.87
541.12	26027.63
541.326	26592.87
541.532	26689.13
541.738	26725.99
541.944	26242.67
542.15	27283.04
542.356	26969.7
542.562	26332.78
542.768	26666.6
542.974	27692.63
543.18	27625.05
543.386	26742.38
543.592	27059.81
543.798	27555.42
544.004	27588.19
544.21	27262.56
544.415	27035.24
544.621	27862.61
544.827	27307.62
545.033	27420.25
545.239	27412.06
545.445	27813.46
545.651	27831.9
545.856	27784.79
546.062	27768.41
546.268	27563.61
546.474	27659.87
546.679	27164.26
546.885	27555.42
547.091	27850.33
547.297	28149.33
547.502	27745.88
547.708	27842.14
547.914	27448.93
548.119	28472.91
548.325	27680.35
548.531	27774.55
548.736	28823.11
548.942	27926.1
549.147	27815.51
549.353	28597.84
549.559	28491.34
549.764	28304.98
549.97	27903.57
550.175	27905.62
550.381	28823.11
550.586	27901.53
550.792	28239.44
550.997	28528.2
551.203	28874.31
551.408	29046.34
551.614	28544.59
551.819	28823.11
552.025	29427.26
552.23	29650.49
552.435	29201.99
552.641	29527.61
552.846	28905.03
553.052	29599.29
553.257	29171.27
553.462	29419.07
553.668	29490.75
553.873	29718.07
554.078	29328.96
554.283	29384.26
554.489	29918.78
554.694	30058.04
554.899	29568.57
555.105	29820.47
555.31	29969.97
555.515	30182.96
555.72	30017.08
555.925	29955.64
556.131	30037.56
556.336	29883.96
556.541	29990.45
556.746	29986.36
556.951	30445.1
557.156	30670.38
557.361	30236.21
557.567	30549.55
557.772	31321.63
557.977	30424.62
558.182	30375.47
558.387	30342.7
558.592	30019.13
558.797	30860.84
559.002	30146.1
559.207	30729.77
559.412	30725.68
559.617	30805.55
559.822	30408.24
560.027	30225.97
560.232	30881.32
560.437	31290.91
560.642	31008.29
560.847	30694.96
561.051	30895.66
561.256	30953
561.461	30789.16
561.666	30907.94
561.871	31036.97
562.076	31360.55
562.281	31342.11
562.485	30731.82
562.69	31297.06
562.895	31604.25
563.1	31254.05
563.305	31102.5
563.509	31852.06
563.714	32167.45
563.919	31401.5
564.123	31106.6
564.328	31606.3
564.533	32058.9
564.737	31088.17
564.942	31256.1
565.147	32497.17
565.351	32192.02
565.556	31239.72
565.761	31358.5
565.965	32337.43
566.17	31426.08
566.374	31477.28
566.579	31661.6
566.784	31655.45
566.988	32032.28
567.193	31690.27
567.397	32013.85
567.602	32013.85
567.806	31804.95
568.011	32108.05
568.215	32173.59
568.42	32345.62
568.624	32482.83
568.828	31886.87
569.033	32364.05
569.237	32339.47
569.442	32921.1
569.646	32009.75
569.85	32595.47
570.055	32728.59
570.259	32718.35
570.463	32744.97
570.668	32515.6
570.872	32628.24
571.076	33111.56
571.281	32816.65
571.485	33236.48
571.689	33121.8
571.893	33547.78
572.098	32839.18
572.302	33019.4
572.506	33611.26
572.71	33091.08
572.914	33226.25
573.119	32873.99
573.323	33699.33
573.527	33293.83
573.731	33220.1
573.935	33302.02
574.139	33652.22
574.343	33031.69
574.547	33363.46
574.751	33361.41
574.955	33953.27
575.159	34172.41
575.364	33207.81
575.568	33641.98
575.772	33580.54
575.976	34125.3
576.18	33281.54
576.383	33555.97
576.587	34256.37
576.791	34330.1
576.995	33451.52
577.199	33629.69
577.403	34137.59
577.607	34579.95
577.811	34147.83
578.015	34149.88
578.219	34205.17
578.422	34641.39
578.626	34366.96
578.83	34055.67
579.034	34473.46
579.238	34213.37
579.442	34283
579.645	34817.52
579.849	34629.1
580.053	34885.1
580.257	34317.81
580.46	34532.85
580.664	35040.75
580.868	34731.5
581.071	34590.19
581.275	34903.53
581.479	34571.76
581.682	35173.86
581.886	34526.71
582.09	34913.77
582.293	35497.44
582.497	35501.54
582.7	35028.46
582.904	35018.22
583.107	35300.84
583.311	35595.74
583.515	35274.21
583.718	35485.15
583.922	35546.59
584.125	36140.5
584.329	35284.45
584.532	35110.38
584.735	36056.54
584.939	35425.76
585.142	35032.55
585.346	35405.28
585.549	35732.96
585.753	36015.58
585.956	35753.44
586.159	35849.69
586.363	36300.25
586.566	36619.73
586.769	35988.95
586.973	35608.03
587.176	36576.72
587.379	36656.59
587.582	36474.32
587.786	36533.71
587.989	36337.11
588.192	36877.77
588.395	36312.53
588.599	36546
588.802	36756.94
589.005	36763.09
589.208	36402.64
589.411	36597.2
589.615	36959.69
589.818	37445.06
590.021	36621.78
590.224	36894.16
590.427	37092.81
590.63	37217.74
590.833	36679.12
591.036	36849.1
591.239	37010.89
591.442	36804.05
591.645	37295.56
591.848	36988.36
592.051	37465.54
592.254	37758.4
592.457	37391.81
592.66	37176.78
592.863	37631.43
593.066	37676.48
593.269	37563.84
593.472	37578.18
593.675	37977.53
593.878	38155.71
594.081	37635.52
594.284	37572.03
594.486	37834.17
594.689	38628.79
594.892	37780.93
595.095	37785.02
595.298	38270.39
595.5	38319.54
595.703	38243.77
595.906	38266.3
596.109	38495.67
596.311	38901.17
596.514	37612.99
596.717	37891.52
596.92	38925.74
597.122	38598.07
597.325	37746.11
597.528	37993.92
597.73	39069.1
597.933	38417.85
598.136	38127.03
598.338	38028.73
598.541	39030.19
598.743	39468.45
598.946	38182.33
599.148	38710.71
599.351	39073.2
599.554	39429.54
599.756	38890.93
599.959	38886.83
600.161	38987.18
600.363	39749.03
600.566	38935.98
600.768	39415.21
600.971	39779.75
601.173	39646.63
601.376	39263.66
601.578	39003.56
601.78	39411.11
601.983	40439.19
602.185	39177.64
602.388	39683.49
602.59	39245.23
602.792	39247.27
602.995	39519.65
603.197	38915.5
603.399	39894.43
603.601	39665.06
603.804	39079.34
604.006	39325.1
604.208	38870.45
604.41	39022
604.613	39499.17
604.815	39294.38
605.017	40633.75
605.219	39765.41
605.421	39583.14
605.623	39519.65
605.826	40025.5
606.028	40019.36
606.23	39517.61
606.432	39900.58
606.634	40826.26
606.836	40347.03
607.038	40093.08
607.24	39902.62
607.442	40185.24
607.644	40152.48
607.846	40177.05
608.048	39650.72
608.25	40404.38
608.452	39847.33
608.654	40084.89
608.856	39685.54
609.058	40213.91
609.26	40363.42
609.462	39972.25
609.664	40177.05
609.866	40433.05
610.067	40517.01
610.269	40492.44
610.471	39937.44
610.673	40232.35
610.875	40914.32
611.077	40250.78
611.278	40347.03
611.48	40560.02
611.682	40861.07
611.884	40488.34
612.085	40459.67
612.287	40566.17
612.489	40447.38
612.69	40150.43
612.892	40496.53
613.094	40750.48
613.295	40500.63
613.497	40285.59
613.699	40281.5
613.9	40805.78
614.102	40707.47
614.304	40048.03
614.505	39728.55
614.707	40895.89
614.908	40519.06
615.11	40191.39
615.311	40486.29
615.513	40750.48
615.714	41076.11
615.916	40953.23
616.117	40306.07
616.319	40533.4
616.52	40918.42
616.722	40527.25
616.923	40199.58
617.124	41049.49
617.326	40648.08
617.527	40719.76
617.729	40773.01
617.93	40531.35
618.131	40908.18
618.333	40326.55
618.534	40687
618.735	40969.61
618.937	41364.87
619.138	40471.96
619.339	40437.14
619.54	40689.04
619.742	41014.67
619.943	41006.48
620.144	40539.54
620.345	41452.94
620.546	40936.85
620.748	40822.16
620.949	40885.65
621.15	40879.5
621.351	40848.78
621.552	40881.55
621.753	40768.91
621.954	40955.28
622.155	40992.14
622.356	40822.16
622.558	41309.58
622.759	41147.79
622.96	41438.6
623.161	40672.66
623.362	40498.58
623.563	41237.9
623.764	40936.85
623.965	41072.01
624.166	41264.52
624.366	40998.29
624.567	41452.94
624.768	41117.07
624.969	40988.05
625.17	40633.75
625.371	41209.23
625.572	41004.43
625.773	41141.64
625.973	41567.62
626.174	41629.06
626.375	41067.92
626.576	41203.08
626.777	41426.31
626.977	41860.48
627.178	41510.28
627.379	40957.33
627.58	41241.99
627.78	41919.87
627.981	41264.52
628.182	41637.25
628.382	41616.77
628.583	41448.84
628.784	41340.3
628.984	41342.35
629.185	42188.16
629.386	41475.46
629.586	41692.55
629.787	41280.91
629.987	41811.33
630.188	41975.17
630.388	41647.49
630.589	41149.84
630.79	41977.22
630.99	41852.29
631.191	41643.4
631.391	41993.6
631.591	41721.22
631.792	42143.1
631.992	41827.71
632.193	41678.21
632.393	42331.51
632.594	41575.81
632.794	41457.03
632.994	41840
633.195	41880.96
633.395	42255.74
633.595	41715.08
633.796	42341.75
633.996	42358.14
634.196	42544.5
634.397	42120.57
634.597	41807.23
634.797	42302.84
634.997	42018.17
635.198	42202.49
635.398	41485.7
635.598	42472.82
635.798	42364.28
635.998	42040.7
636.199	41897.34
636.399	42278.27
636.599	42044.8
636.799	41833.86
636.999	42050.94
637.199	42327.42
637.399	42466.68
637.599	42128.77
637.799	42198.4
637.999	42730.87
638.199	43042.16
638.399	42278.27
638.599	42612.09
638.799	43060.59
638.999	43345.26
639.199	42503.54
639.399	42519.93
639.599	43160.94
639.799	42331.51
639.999	42837.36
640.199	42505.59
640.399	43318.64
640.599	41973.12
640.799	42667.38
640.998	43060.59
641.198	43027.82
641.398	42202.49
641.598	43013.49
641.798	42648.95
641.997	43347.31
642.197	42728.82
642.397	42571.13
642.597	42931.57
642.796	43187.57
642.996	43574.63
643.196	43148.65
643.395	42560.89
643.595	43103.6
643.795	42958.19
643.994	42935.66
644.194	43181.42
644.394	43251.05
644.593	43040.11
644.793	43072.88
644.992	43230.57
645.192	43464.04
645.392	43212.14
645.591	43373.93
645.791	43545.96
645.99	43085.17
646.19	43634.02
646.389	43509.1
646.589	43410.79
646.788	43597.16
646.987	43513.19
647.187	44037.47
647.386	43601.25
647.586	43679.08
647.785	43599.21
647.984	43337.07
648.184	43335.02
648.383	43046.26
648.582	43119.98
648.782	43550.06
648.981	43453.8
649.18	43160.94
649.38	43728.23
649.579	43318.64
649.778	43244.91
649.977	44012.9
650.177	43500.9
650.376	43306.35
650.575	43027.82
650.774	44172.64
650.973	43457.9
651.173	43036.02
651.372	43091.31
651.571	43668.84
651.77	43677.03
651.969	43330.92
652.168	43390.31
652.367	44031.33
652.566	43769.19
652.765	43609.45
652.964	44279.13
653.163	44184.93
653.362	44129.63
653.561	43414.89
653.76	43898.21
653.959	43908.45
654.158	44684.63
654.357	44137.82
654.556	43437.42
654.755	44330.33
654.954	44354.91
655.153	44045.66
655.352	44270.94
655.551	44539.22
655.749	44055.9
655.948	43701.61
656.147	44313.95
656.346	44453.21
656.545	44451.16
656.743	44100.96
656.942	44262.75
657.141	44244.32
657.34	44524.89
657.538	44311.9
657.737	44213.6
657.936	44363.1
658.135	44424.54
658.333	44166.49
658.532	44457.31
658.731	44547.42
658.929	44578.14
659.128	44563.8
659.326	44191.07
659.525	44928.34
659.724	44504.41
659.922	43941.22
660.121	43877.73
660.319	44330.33
660.518	44047.71
660.716	44127.58
660.915	44039.52
661.113	44981.59
661.312	44346.72
661.51	44508.5
661.709	44320.09
661.907	44598.62
662.105	44711.25
662.304	44596.57
662.502	44459.35
662.701	44576.09
662.899	44170.59
663.097	44348.76
663.296	44342.62
663.494	45118.8
663.692	45024.59
663.891	44377.43
664.089	43824.48
664.287	44463.45
664.485	44752.21
664.684	44404.06
664.882	44770.64
665.08	44639.57
665.278	44844.37
665.476	44389.72
665.675	44571.99
665.873	44957.01
666.071	44580.18
666.269	44014.94
666.467	44121.44
666.665	44821.84
666.863	44285.28
667.061	44660.05
667.259	44479.83
667.457	44402.01
667.655	44893.52
667.853	43875.68
668.051	44639.57
668.249	44434.78
668.447	44692.82
668.645	44189.02
668.843	44631.38
669.041	44731.73
669.239	44612.95
669.437	44707.16
669.635	44588.38
669.833	44221.79
670.031	44586.33
670.229	44606.81
670.426	44062.05
670.624	44156.25
670.822	44686.68
671.02	44733.78
671.218	44367.19
671.415	44311.9
671.613	44348.76
671.811	44287.32
672.009	44414.3
672.206	44748.12
672.404	44561.75
672.602	44526.94
672.799	44385.63
672.997	44780.88
673.195	44703.06
673.392	44383.58
673.59	44014.94
673.788	44141.92
673.985	43398.51
674.183	44277.08
674.38	44180.83
674.578	44418.39
674.775	44133.73
674.973	43713.89
675.17	44207.45
675.368	44395.87
675.565	44815.7
675.763	43982.18
675.96	43728.23
676.158	44621.14
676.355	43453.8
676.553	44229.98
676.75	44019.04
676.947	44203.36
677.145	43736.42
677.342	44121.44
677.539	43996.51
677.737	43771.24
677.934	44008.8
678.131	43933.03
678.329	43683.17
678.526	44031.33
678.723	43883.87
678.92	43687.27
679.118	43939.17
679.315	43345.26
679.512	44592.47
679.709	43406.7
679.906	43652.45
680.104	44184.93
680.301	44215.65
680.498	43234.67
680.695	43162.99
680.892	43912.55
681.089	43646.31
681.286	43871.59
681.483	42904.95
681.68	43724.13
681.877	43973.99
682.075	43529.58
682.272	43529.58
682.469	43666.79
682.665	43822.44
682.862	42706.29
683.059	42835.31
683.256	43396.46
683.453	43505
683.65	43279.72
683.847	43447.66
684.044	43271.53
684.241	43191.66
684.438	43973.99
684.635	43033.97
684.831	43961.7
685.028	43511.14
685.225	43122.03
685.422	43322.73
685.619	42995.06
685.815	42935.66
686.012	43058.54
686.209	42986.86
686.405	43099.5
686.602	43152.75
686.799	42624.37
686.996	42878.32
687.192	42390.91
687.389	43414.89
687.586	43040.11
687.782	42800.5
687.979	43287.92
688.175	43148.65
688.372	42964.34
688.568	42997.1
688.765	42476.92
688.962	43265.39
689.158	42511.74
689.355	42708.34
689.551	43210.09
689.748	42526.07
689.944	42831.22
690.14	42202.49
690.337	42698.1
690.533	42851.7
690.73	42216.83
690.926	42724.72
691.123	42542.45
691.319	42632.57
691.515	42493.3
691.712	42407.29
691.908	42673.52
692.104	42466.68
692.301	42399.1
692.497	42268.03
692.693	42274.17
692.889	42876.27
693.086	42196.35
693.282	41928.06
693.478	42661.24
693.674	42724.72
693.87	41702.79
694.067	42147.2
694.263	42401.15
694.459	42356.09
694.655	42245.5
694.851	42349.95
695.047	42356.09
695.243	42587.51
695.439	42265.98
695.635	42165.63
695.831	41817.47
696.027	42110.33
696.224	41481.61
696.42	42124.67
696.615	42519.93
696.811	42333.56
697.007	41448.84
697.203	41592.2
697.399	41850.24
697.595	42440.06
697.791	41076.11
697.987	41682.31
698.183	41565.57
698.379	41522.57
698.575	41747.84
698.77	41710.98
698.966	41940.35
699.162	42038.65
699.358	41452.94
699.554	41119.12
699.749	42046.85
699.945	41911.68
700.141	41604.49
700.337	41772.42
700.532	41373.06
700.728	41205.13
700.924	41522.57
701.119	40961.42
701.315	41145.74
701.511	41289.1
701.706	41510.28
701.902	40994.19
702.097	41260.43
702.293	41629.06
702.489	41678.21
702.684	40969.61
702.88	41229.71
703.075	41266.57
703.271	40684.95
703.466	40822.16
703.662	41446.79
703.857	41946.5
704.053	41258.38
704.248	41026.96
704.443	41364.87
704.639	41553.29
704.834	41051.53
705.03	40908.18
705.225	41362.82
705.42	41524.61
705.616	41022.86
705.811	40711.57
706.006	41254.28
706.202	40662.42
706.397	40742.29
706.592	40504.73
706.787	40942.99
706.983	40998.29
707.178	41381.26
707.373	40924.56
707.568	40730
707.763	40519.06
707.959	40840.59
708.154	41047.44
708.349	40816.02
708.544	40682.9
708.739	41104.78
708.934	40463.77
709.129	40996.24
709.324	40625.56
709.519	40576.4
709.714	40570.26
709.909	41082.25
710.104	40965.52
710.299	40502.68
710.494	40682.9
710.689	40830.35
710.884	40846.74
711.079	40439.19
711.274	40551.83
711.469	40805.78
711.664	40805.78
711.859	40336.79
712.054	40842.64
712.249	40539.54
712.443	40525.21
712.638	40265.11
712.833	40226.2
713.028	40398.23
713.223	39945.63
713.417	40105.37
713.612	40168.86
713.807	40502.68
714.002	40863.12
714.196	40621.46
714.391	39990.69
714.586	40398.23
714.78	40185.24
714.975	39808.42
715.17	39613.86
715.364	40058.27
715.559	40457.62
715.754	39503.27
715.948	39601.57
716.143	40242.59
716.337	40082.84
716.532	39953.82
716.726	39630.24
716.921	39888.29
717.115	40082.84
717.31	39646.63
717.504	40209.82
717.699	39867.81
717.893	39935.39
718.088	39335.34
718.282	39634.34
718.476	39622.05
718.671	39554.47
718.865	39175.59
719.059	39237.03
719.254	39609.76
719.448	39398.82
719.642	40152.48
719.837	38833.58
720.031	39636.39
720.225	39738.79
720.419	39173.55
720.614	38852.02
720.808	39450.02
721.002	38835.63
721.196	39083.44
721.39	38520.24
721.585	39157.16
721.779	39359.91
721.973	38733.23
722.167	38534.58
722.361	39083.44
722.555	39355.82
722.749	38583.73
722.943	38639.03
723.137	38876.59
723.331	39151.02
723.525	38444.47
723.719	38458.81
723.913	38849.97
724.107	38909.36
724.301	38542.77
724.495	38800.82
724.689	39226.79
724.883	39101.87
725.077	38569.4
725.271	38710.71
725.465	39187.88
725.659	38684.08
725.853	38565.3
726.046	38170.04
726.24	38397.37
726.434	38536.63
726.628	38440.37
726.822	38774.19
727.015	39212.46
727.209	38555.06
727.403	38604.21
727.596	38542.77
727.79	38882.73
727.984	38614.45
728.177	38872.49
728.371	38583.73
728.565	39300.52
728.758	38776.24
728.952	38626.74
729.146	38428.09
729.339	39062.96
729.533	38485.43
729.726	38137.27
729.92	38227.38
730.113	38903.21
730.307	38919.6
730.5	38501.81
730.694	38241.72
730.887	38559.16
731.081	38897.07
731.274	38442.42
731.468	37944.76
731.661	38274.49
731.854	38354.36
732.048	38434.23
732.241	38262.2
732.435	38350.26
732.628	38763.95
732.821	38464.95
733.014	38389.17
733.208	38344.12
733.401	39062.96
733.594	38065.6
733.788	38176.19
733.981	38569.4
734.174	38294.97
734.367	38196.67
734.56	38399.41
734.754	38317.5
734.947	38696.37
735.14	38006.2
735.333	37979.58
735.526	38624.69
735.719	38280.63
735.912	38063.55
736.105	38206.9
736.298	38122.94
736.491	37860.8
736.684	37854.65
736.877	38294.97
737.07	38000.06
737.263	38403.51
737.456	38184.38
737.649	37995.96
737.842	37914.05
738.035	38178.23
738.228	37672.39
738.421	37948.86
738.614	38542.77
738.807	38608.31
739	37680.58
739.192	37514.69
739.385	37633.47
739.578	37756.35
739.771	37934.53
739.964	37389.77
740.156	38176.19
740.349	37803.46
740.542	37909.95
740.735	37498.31
740.927	37905.85
741.12	37912
741.313	37799.36
741.505	38041.02
741.698	37615.04
741.891	37748.16
742.083	38131.13
742.276	37883.33
742.468	37877.18
742.661	37516.74
742.854	37359.05
743.046	37535.17
743.239	37926.33
743.431	37989.82
743.624	37461.44
743.816	37293.51
744.009	37780.93
744.201	37717.44
744.393	37326.28
744.586	36683.22
744.778	37823.93
744.971	37344.71
745.163	37291.46
745.355	37045.71
745.548	37232.07
745.74	37322.18
745.932	37176.78
746.125	37354.95
746.317	37828.03
746.509	37342.66
746.702	37172.68
746.894	37344.71
747.086	37406.15
747.278	37799.36
747.471	37440.96
747.663	37037.51
747.855	37195.21
748.047	37883.33
748.239	37438.92
748.431	36787.66
748.623	37543.36
748.815	37361.09
749.008	36998.6
749.2	37313.99
749.392	37516.74
749.584	37270.98
749.776	37348.81
749.968	37230.02
750.16	37408.2
750.352	37281.22
750.544	36761.04
750.736	36754.9
750.928	37383.62
751.12	36793.81
751.311	36441.56
751.503	36931.02
751.695	36873.68
751.887	36701.65
752.079	36339.16
752.271	36396.5
752.463	37942.72
752.654	36974.03
752.846	36926.92
753.038	36527.57
753.23	36414.93
753.421	36724.18
753.613	36527.57
753.805	36935.12
753.997	36967.88
754.188	36724.18
754.38	36474.32
754.572	36130.26
754.763	36392.4
754.955	36445.65
755.146	36120.02
755.338	36081.11
755.53	36152.79
755.721	36466.13
755.913	35710.43
756.104	35784.16
756.296	36126.17
756.487	36556.24
756.679	35751.39
756.87	35767.77
757.062	35593.7
757.253	36359.64
757.445	35804.64
757.636	35902.94
757.827	35927.52
758.019	36347.35
758.21	35323.37
758.401	35706.34
758.593	36136.41
758.784	36126.17
758.975	35112.42
759.167	35335.65
759.358	35634.66
759.549	35685.86
759.74	35212.77
759.932	35239.4
760.123	35290.6
760.314	35644.9
760.505	35231.21
760.696	35196.39
760.888	35716.58
761.079	34938.35
761.27	35171.82
761.461	34678.25
761.652	35728.86
761.843	35331.56
762.034	34946.54
762.225	35122.66
762.416	34764.27
762.607	34848.24
762.798	34635.25
762.989	34743.79
763.18	35917.28
763.371	34780.65
763.562	34741.74
763.753	34645.49
763.944	34964.97
764.135	34979.31
764.326	34735.6
764.517	34176.5
764.708	35046.89
764.899	34743.79
765.089	34094.58
765.28	33775.1
765.471	34403.83
765.662	34438.64
765.853	34278.9
766.043	33828.35
766.234	34792.94
766.425	34014.71
766.615	33983.99
766.806	33728
766.997	34512.37
767.187	34016.76
767.378	33660.41
767.569	33732.09
767.759	34242.04
767.95	33760.76
768.141	33811.96
768.331	33576.45
768.522	33648.13
768.712	34045.43
768.903	33545.73
769.093	33549.82
769.284	33992.19
769.474	33601.02
769.665	32964.11
769.855	33342.98
770.046	33861.12
770.236	33568.26
770.426	33326.6
770.617	33238.53
770.807	33332.74
770.998	33086.98
771.188	33220.1
771.378	32927.24
771.569	33314.31
771.759	33662.46
771.949	32679.44
772.139	33158.66
772.33	32769.55
772.52	33672.7
772.71	32755.21
772.9	32273.94
773.09	33406.47
773.281	33209.86
773.471	32341.52
773.661	32247.32
773.851	32474.64
774.041	32699.92
774.231	32216.6
774.421	32523.79
774.611	32787.98
774.802	32099.86
774.992	32187.92
775.182	32165.4
775.372	32376.34
775.562	32409.11
775.752	32108.05
775.942	31788.57
776.131	32460.3
776.321	32325.14
776.511	31815.19
776.701	31909.4
776.891	31956.5
777.081	31702.56
777.271	31475.23
777.461	31542.81
777.651	31948.31
777.84	32298.52
778.03	31489.57
778.22	31237.67
778.41	32261.65
778.599	31852.06
778.789	31419.94
778.979	31524.38
779.169	31659.55
779.358	31385.12
779.548	31534.62
779.738	30862.89
779.927	31512.1
780.117	31561.25
780.307	31520.29
780.496	31206.95
780.686	31606.3
780.875	31573.53
781.065	31067.69
781.254	30723.63
781.444	31325.73
781.633	31254.05
781.823	30770.73
782.012	30703.15
782.202	30893.61
782.391	30723.63
782.581	30549.55
782.77	31077.93
782.96	31041.06
783.149	30623.28
783.338	30387.76
783.528	30367.28
783.717	31311.39
783.906	31073.83
784.096	30576.17
784.285	30615.08
784.474	30604.84
784.663	30561.84
784.853	30551.6
785.042	30414.38
785.231	30387.76
785.42	30901.8
785.61	30398
785.799	30043.7
785.988	30311.99
786.177	30199.35
786.366	30363.18
786.555	30783.02
786.744	30432.82
786.933	29746.75
787.122	29943.35
787.312	29703.74
787.501	29974.07
787.69	30123.57
787.879	29924.92
788.068	29853.24
788.257	29423.17
788.445	29857.34
788.634	29283.91
788.823	29494.85
789.012	30281.27
789.201	30293.55
789.39	29402.69
789.579	29513.28
789.768	29544
789.957	29492.8
790.145	29044.29
790.334	29148.74
790.523	29294.14
790.712	29306.43
790.9	29447.74
791.089	28902.98
791.278	29670.97
791.467	29193.79
791.655	29275.71
791.844	29627.96
792.033	28989
792.221	29120.07
792.41	28948.04
792.599	28370.51
792.787	29318.72
792.976	29259.33
793.164	28487.25
793.353	28941.89
793.541	29091.4
793.73	29109.83
793.918	29062.72
794.107	28444.24
794.295	28362.32
794.484	28816.97
794.672	28976.71
794.861	28550.73
795.049	28927.56
795.238	29079.11
795.426	28370.51
795.614	28438.09
795.803	28751.43
795.991	29275.71
796.179	28071.51
796.368	28110.42
796.556	28974.66
796.744	28055.12
796.932	28386.89
797.121	27864.66
797.309	28386.89
797.497	28642.89
797.685	28266.06
797.874	28331.6
798.062	28868.17
798.25	28610.12
798.438	28223.06
798.626	28175.95
798.814	28651.08
799.002	28819.02
799.19	28270.16
799.378	28030.55
799.566	28454.48
799.755	28563.02
799.943	28329.55
800.131	27946.58
800.318	28208.72
800.506	28278.35
800.694	27661.91
800.882	27522.65
801.07	28534.35
801.258	28218.96
801.446	28233.3
801.634	28026.45
801.822	28139.09
802.01	28165.71
802.197	27936.34
802.385	28200.53
802.573	28407.37
802.761	28141.14
802.949	28061.27
803.136	28055.12
803.324	28505.68
803.512	28182.1
803.699	28077.65
803.887	27987.54
804.075	29001.29
804.262	28214.87
804.45	27934.29
804.638	28302.93
804.825	28440.14
805.013	28495.44
805.201	28188.24
805.388	28345.94
805.576	28524.11
805.763	28700.23
805.951	28249.68
806.138	28339.79
806.326	28980.81
806.513	28546.64
806.701	28448.33
806.888	28016.21
807.075	28618.32
807.263	28841.54
807.45	28327.5
807.638	28419.66
807.825	29115.97
808.012	28528.2
808.2	28253.78
808.387	28765.77
808.574	28712.52
808.761	28993.09
808.949	28343.89
809.136	28466.77
809.323	28692.04
809.51	28565.07
809.698	28735.05
809.885	28446.29
810.072	28702.28
810.259	29199.94
810.446	28700.23
810.633	28651.08
810.82	28958.28
811.008	29664.83
811.195	29113.92
811.382	28655.18
811.569	29222.47
811.756	28597.84
811.943	29029.96
812.13	28716.62
812.317	28554.83
812.504	28878.41
812.691	28853.83
812.878	28884.55
813.064	28644.94
813.251	28950.09
813.438	28409.42
813.625	28649.03
813.812	28530.25
813.999	28767.82
814.186	28472.91
814.372	28923.46
814.559	28726.86
814.746	28952.13
814.933	28397.13
815.12	28923.46
815.306	28415.57
815.493	28151.38
815.68	28677.71
815.866	28479.05
816.053	28937.8
816.24	29275.71
816.426	28681.8
816.613	28550.73
816.799	28997.19
816.986	29310.53
817.173	28538.44
817.359	28370.51
817.546	28640.84
817.732	28315.22
817.919	28413.52
818.105	28655.18
818.292	28259.92
818.478	28610.12
818.665	28468.81
818.851	28565.07
819.037	28886.6
819.224	28919.37
819.41	28337.74
819.597	28661.32
819.783	29017.67
819.969	28675.66
820.156	28067.41
820.342	28155.47
820.528	29138.5
820.714	28264.02
820.901	28765.77
821.087	28526.16
821.273	28821.06
821.459	28352.08
821.646	27956.82
821.832	27962.97
822.018	28546.64
822.204	28069.46
822.39	28061.27
822.576	27453.02
822.762	28452.43
822.948	27932.25
823.134	27766.36
823.32	27565.66
823.507	27772.5
823.693	28311.12
823.879	27940.44
824.065	27690.59
824.25	28264.02
824.436	27885.14
824.622	27924.05
824.808	27829.85
824.994	27758.17
825.18	27647.58
825.366	27403.87
825.552	27647.58
825.738	27567.71
825.923	28155.47
826.109	27981.4
826.295	27299.42
826.481	27563.61
826.667	27618.91
826.852	27289.18
827.038	27367.01
827.224	27967.06
827.409	28053.08
827.595	27141.73
827.781	27379.29
827.966	27917.91
828.152	27940.44
828.338	27500.12
828.523	26973.8
828.709	27270.75
828.894	27879
829.08	27268.7
829.266	26895.97
829.451	27371.1
829.637	27379.29
829.822	27246.18
830.008	27231.84
830.193	27555.42
830.378	27772.5
830.564	26650.22
830.749	26998.37
830.935	27180.64
831.12	26902.12
831.305	26740.33
831.491	26889.83
831.676	26633.83
831.861	27123.3
832.047	26955.36
832.232	26596.97
832.417	27328.09
832.602	26957.41
832.788	26269.3
832.973	26568.3
833.158	26472.04
833.343	26723.94
833.528	26658.41
833.714	26609.26
833.899	26459.76
834.084	26635.88
834.269	26439.28
834.454	26351.21
834.639	26769
834.824	26863.21
835.009	26357.36
835.194	26322.54
835.379	26412.65
835.564	26330.73
835.749	25943.67
835.934	25659
836.119	26437.23
836.304	26230.38
836.489	25863.8
836.674	26189.42
836.859	25814.65
837.044	26482.28
837.228	26095.22
837.413	26138.23
837.598	26201.71
837.783	26334.83
837.968	26003.06
838.152	25529.98
838.337	25560.7
838.522	26062.45
838.707	26386.03
838.891	25806.45
839.076	25689.72
839.261	25970.29
839.445	25824.89
839.63	25669.24
839.815	26338.93
839.999	25853.56
840.184	25423.48
840.368	25556.6
840.553	25650.81
840.737	25945.72
840.922	25364.09
841.106	25263.74
841.291	25161.34
841.475	25622.14
841.66	25071.23
841.844	24764.04
842.029	25867.89
842.213	25296.51
842.397	25007.75
842.582	25013.89
842.766	25704.06
842.951	25079.43
843.135	24790.66
843.319	24903.3
843.504	25185.92
843.688	25226.88
843.872	24819.33
844.056	24958.6
844.241	25282.17
844.425	24882.82
844.609	25073.28
844.793	24444.56
844.977	24931.97
845.161	24710.79
845.346	24577.67
845.53	24403.6
845.714	24899.2
845.898	24772.23
846.082	24131.22
846.266	24538.76
846.45	24450.7
846.634	24802.95
846.818	24467.08
847.002	24469.13
847.186	24510.09
847.37	24090.26
847.554	24026.77
847.738	24309.39
847.922	24037.01
848.106	24338.06
848.29	23789.2
848.473	24436.36
848.657	24284.81
848.841	24237.71
849.025	23881.36
849.209	23793.3
849.392	24163.98
849.576	24118.93
849.76	23727.77
849.944	23762.58
850.127	24174.22
850.311	23733.91
850.495	23594.65
850.678	23346.84
850.862	24438.41
851.046	24479.37
851.229	23985.81
851.413	23594.65
851.596	24016.53
851.78	23836.31
851.964	23666.33
852.147	23445.15
852.331	23957.14
852.514	23834.26
852.698	23635.61
852.881	22941.35
853.065	23457.43
853.248	23410.33
853.431	23776.92
853.615	23242.4
853.798	24090.26
853.982	23373.47
854.165	23271.07
854.348	22953.63
854.532	23232.16
854.715	23309.98
854.898	23066.27
855.081	23049.89
855.265	23371.42
855.448	23604.89
855.631	22673.06
855.814	22767.27
855.997	23576.22
856.181	22847.14
856.364	22967.97
856.547	22773.41
856.73	22875.81
856.913	22922.91
857.096	22511.27
857.279	22806.18
857.462	22632.1
857.645	22820.52
857.828	22881.95
858.011	22689.45
858.194	22404.78
858.377	23064.22
858.56	22234.8
858.743	22564.52
858.926	22005.42
859.109	22425.26
859.292	22103.73
859.475	22212.27
859.658	22382.25
859.841	22511.27
860.023	21978.8
860.206	22019.76
860.389	22415.02
860.572	22492.84
860.755	22132.4
860.937	21929.65
861.12	22111.92
861.303	22126.25
861.486	21618.36
861.668	22021.81
861.851	22064.82
862.034	21931.7
862.216	21759.67
862.399	21343.93
862.581	21661.37
862.764	22107.82
862.947	21708.47
863.129	21515.96
863.312	21278.4
863.494	21958.32
863.677	21536.44
863.859	21274.3
864.042	21716.66
864.224	21935.79
864.406	21595.83
864.589	20903.62
864.771	21665.46
864.954	20911.81
865.136	20924.1
865.318	20866.75
865.501	21253.82
865.683	20905.66
865.865	21151.42
866.048	20842.18
866.23	21018.3
866.412	21108.41
866.594	20739.78
866.777	20979.39
866.959	21108.41
867.141	20442.82
867.323	20905.66
867.505	20530.89
867.687	20340.43
867.869	20917.95
868.052	20328.14
868.234	20287.18
868.416	20625.09
868.598	21096.13
868.78	20448.97
868.962	20842.18
869.144	21081.79
869.326	20975.3
869.508	20446.92
869.69	20522.69
869.872	20793.03
870.054	20895.43
870.236	20272.84
870.417	20365
870.599	20606.66
870.781	21159.61
870.963	20539.08
871.145	20252.36
871.327	20346.57
871.508	20690.63
871.69	20328.14
871.872	20416.2
872.054	20621
872.235	20596.42
872.417	20459.21
872.599	20133.58
872.78	21139.13
872.962	20903.62
873.144	20125.39
873.325	20217.55
873.507	20909.76
873.689	20518.6
873.87	20481.74
874.052	20643.52
874.233	20313.8
874.415	20729.54
874.596	20594.37
874.778	20184.78
874.959	20776.64
875.141	20825.79
875.322	20127.44
875.503	20313.8
875.685	20842.18
875.866	20014.8
876.048	20170.44
876.229	20178.64
876.41	20264.65
876.592	20422.34
876.773	20344.52
876.954	20139.72
877.136	20686.53
877.317	20264.65
877.498	19902.16
877.679	20096.72
877.86	20559.56
878.042	20473.54
878.223	20299.47
878.404	20559.56
878.585	20543.17
878.766	21036.74
878.947	20858.56
879.128	20815.55
879.309	20823.75
879.49	20967.1
879.672	20879.04
879.853	20424.39
880.034	20375.24
880.215	20899.52
880.396	20481.74
880.576	20494.02
880.757	20784.83
880.938	20991.68
881.119	20776.64
881.3	20864.71
881.481	20872.9
881.662	21862.07
881.843	20453.06
882.023	20735.68
882.204	21042.88
882.385	20874.95
882.566	20584.13
882.747	21016.26
882.927	21130.94
883.108	21378.75
883.289	20844.23
883.469	21272.25
883.65	20848.32
883.831	21290.68
884.011	20989.63
884.192	21210.81
884.373	21720.76
884.553	21499.58
884.734	21427.9
884.914	21692.08
885.095	22378.15
885.275	22044.34
885.456	21769.91
885.636	21067.45
885.817	21638.84
885.997	21702.32
886.178	21540.54
886.358	21520.06
886.538	21485.24
886.719	22898.34
886.899	21630.65
887.08	21784.24
887.26	22105.77
887.44	21399.23
887.621	21364.41
887.801	21900.98
887.981	22458.03
888.161	21976.75
888.342	21651.13
888.522	21618.36
888.702	21913.27
888.882	22560.42
889.062	21669.56
889.242	21726.9
889.423	22302.38
889.603	22296.24
889.783	22017.71
889.963	21534.39
890.143	22472.36
890.323	22118.06
890.503	21948.08
890.683	21958.32
890.863	21872.31
891.043	21950.13
891.223	21855.92
891.403	22066.86
891.583	22101.68
891.763	21950.13
891.943	21698.23
892.122	21800.63
892.302	22066.86
892.482	21800.63
892.662	21894.83
892.842	21706.42
893.022	22027.95
893.201	21978.8
893.381	22240.94
893.561	21384.89
893.741	22066.86
893.92	21532.34
894.1	21622.45
894.28	21323.45
894.459	21896.88
894.639	21653.17
894.819	21618.36
894.998	21554.87
895.178	21599.93
895.357	21683.89
895.537	21139.13
895.716	21366.46
895.896	21675.7
896.075	22081.2
896.255	21370.55
896.434	21089.98
896.614	21771.96
896.793	22109.87
896.973	21446.33
897.152	21483.19
897.331	21735.09
897.511	21722.8
897.69	21409.47
897.87	21139.13
898.049	21587.64
898.228	21546.68
898.407	21391.03
898.587	21104.32
898.766	21059.26
898.945	21210.81
899.124	20707.01
899.304	21110.46
899.483	21241.53
899.662	21612.21
899.841	20829.89
900.02	20545.22
900.199	20836.03
900.378	20678.34
900.557	20510.41
900.737	20573.89
900.916	20981.44
901.095	20668.1
901.274	20754.12
901.453	20211.4
901.632	20240.08
901.811	20172.49
901.989	19953.36
902.168	19881.68
902.347	20514.5
902.526	19879.63
902.705	19949.26
902.884	19916.5
903.063	20389.58
903.242	19873.49
903.42	19637.97
903.599	19883.73
903.778	20055.76
903.957	20149.96
904.135	19533.53
904.314	19361.5
904.493	19723.99
904.672	19670.74
904.85	19336.92
905.029	19257.05
905.207	19429.08
905.386	20047.57
905.565	18636.52
905.743	18847.46
905.922	18800.35
906.1	18669.28
906.279	18192.11
906.457	18112.24
906.636	18751.2
906.814	18214.63
906.993	17837.81
907.171	18167.53
907.35	18081.52
907.528	18347.75
907.707	18116.33
907.885	17678.07
908.063	18540.26
908.242	17653.49
908.42	17573.62
908.598	17368.82
908.777	17786.61
908.955	17704.69
909.133	17295.1
909.311	17200.89
909.49	17843.95
909.668	17618.68
909.846	17702.64
910.024	17712.88
910.202	18089.71
910.38	18233.07
910.559	17626.87
910.737	17706.74
910.915	18302.7
911.093	18329.32
911.271	18118.38
911.449	18337.51
911.627	18505.45
911.805	18947.81
911.983	18157.29
912.161	18224.87
912.339	18628.32
912.517	18771.68
912.695	18433.77
912.872	18208.49
913.05	18605.8
913.228	18708.19
913.406	18630.37
913.584	18470.63
913.762	19078.88
913.939	18448.1
914.117	18474.73
914.295	18487.01
914.473	18695.91
914.65	18697.95
914.828	18568.93
915.006	18372.33
915.184	18331.37
915.361	18261.74
915.539	18482.92
915.716	18507.49
915.894	18513.64
916.072	18591.46
916.249	18261.74
916.427	18239.21
916.604	18263.79
916.782	18593.51
916.959	17972.97
917.137	18005.74
917.314	18570.98
917.492	18231.02
917.669	17948.4
917.847	18169.58
918.024	18366.18
918.201	18030.32
918.379	17882.86
918.556	17878.77
918.733	18038.51
918.911	17893.1
919.088	18126.57
919.265	17692.4
919.442	18026.22
919.62	17790.7
919.797	17577.72
919.974	17565.43
920.151	17823.47
920.328	17714.93
920.506	17776.37
920.683	18077.42
920.86	17549.04
921.037	17551.09
921.214	17413.88
921.391	17274.62
921.568	17757.94
921.745	17366.77
921.922	17405.69
922.099	17252.09
922.276	17977.07
922.453	17483.51
922.63	17323.77
922.807	17518.32
922.984	17221.37
923.161	17100.54
923.338	17067.77
923.514	17073.92
923.691	17329.91
923.868	17307.38
924.045	16848.64
924.222	16881.41
924.399	17100.54
924.575	17327.86
924.752	17008.38
924.929	17164.03
925.105	17108.73
925.282	16697.09
925.459	16627.46
925.635	16520.96
925.812	16561.92
925.989	16596.74
926.165	16307.98
926.342	16166.67
926.518	15976.2
926.695	16402.18
926.871	16133.9
927.048	16299.78
927.224	16508.68
927.401	16090.89
927.577	15965.96
927.754	15859.47
927.93	16217.86
928.107	15988.49
928.283	15820.56
928.459	15925.01
928.636	16051.98
928.812	15660.82
928.988	15603.47
929.165	15193.88
929.341	15560.47
929.517	15888.14
929.693	15460.12
929.87	15046.43
930.046	15722.26
930.222	15374.1
930.398	15247.13
930.574	15148.82
930.751	15542.03
930.927	15038.23
931.103	15124.25
931.279	14673.7
931.455	14694.18
931.631	15009.56
931.807	14386.98
931.983	14311.21
932.159	14556.96
932.335	14704.42
932.511	14452.52
932.687	14386.98
932.863	14499.62
933.039	14362.4
933.215	14098.22
933.391	13979.43
933.566	14161.7
933.742	14360.36
933.918	13991.72
934.094	13485.87
934.27	14108.46
934.445	13688.62
934.621	13586.22
934.797	13109.05
934.973	13610.8
935.148	13363
935.324	12830.52
935.5	12394.31
935.675	13008.7
935.851	12691.26
936.027	12392.26
936.202	12244.81
936.378	12506.95
936.553	12068.68
936.729	12398.4
936.904	11714.38
937.08	11366.23
937.255	11304.79
937.431	11210.58
937.606	10803.04
937.782	10702.68
937.957	11026.26
938.133	10659.68
938.308	10432.35
938.483	10528.61
938.659	10319.71
938.834	10024.81
939.009	10016.62
939.185	9987.94
939.36	9525.1
939.535	9213.81
939.71	9420.66
939.886	9721.71
940.061	9582.45
940.236	9295.73
940.411	9031.54
940.586	9498.48
940.761	9516.91
940.937	8945.53
941.112	8744.83
941.287	9088.89
941.462	8802.17
941.637	8484.73
941.812	8314.75
941.987	8689.53
942.162	8580.99
942.337	8415.1
942.512	8335.23
942.687	8646.52
942.862	8718.2
943.037	8150.92
943.212	7978.89
943.386	8281.99
943.561	8337.28
943.736	8288.13
943.911	8337.28
944.086	8167.3
944.26	8398.72
944.435	7808.9
944.61	8200.07
944.785	8341.38
944.959	8533.89
945.134	7972.74
945.309	7907.21
945.483	7823.24
945.658	8458.11
945.833	7470.99
946.007	7759.75
946.182	8552.32
946.357	7837.58
946.531	7970.69
946.706	7964.55
946.88	7696.27
947.055	8218.5
947.229	7991.17
947.404	7909.26
947.578	8548.22
947.752	8241.03
947.927	8054.66
948.101	7882.63
948.276	8302.47
948.45	8390.53
948.624	8271.75
948.799	7958.41
948.973	8406.91
949.147	7899.02
949.321	8181.64
949.496	8134.53
949.67	8660.86
949.844	8298.37
950.018	8310.66
950.193	8052.61
950.367	8988.53
950.541	8451.97
950.715	8587.13
950.889	8753.02
951.063	8492.93
951.237	8634.24
951.411	8245.12
951.585	8214.4
951.759	8798.07
951.933	8767.35
952.107	8640.38
952.281	8640.38
952.455	9185.14
952.629	9146.23
952.803	8554.37
952.977	8619.9
953.151	9133.94
953.325	8980.34
953.499	8869.75
953.672	8458.11
953.846	8845.18
954.02	8812.41
954.194	8718.2
954.368	8638.33
954.541	9115.51
954.715	8705.92
954.889	9103.22
955.062	8615.8
955.236	9113.46
955.41	9031.54
955.583	8943.48
955.757	8654.72
955.93	9103.22
956.104	8701.82
956.278	9084.79
956.451	9062.26
956.625	9133.94
956.798	9654.12
956.972	9185.14
957.145	8980.34
957.319	9232.24
957.492	9265.01
957.665	9246.58
957.839	8945.53
958.012	9330.55
958.185	9072.5
958.359	9086.84
958.532	9252.72
958.705	9459.57
958.879	9230.2
959.052	9039.73
959.225	8802.17
959.398	9181.04
959.572	9230.2
959.745	9262.96
959.918	9127.8
960.091	9084.79
960.264	9410.42
960.438	8972.15
960.611	9000.82
960.784	9447.28
960.957	9209.72
961.13	9465.71
961.303	8994.68
961.476	9295.73
961.649	9439.09
961.822	8980.34
961.995	9201.52
962.168	9492.34
962.341	9402.22
962.514	8996.73
962.686	8877.94
962.859	9367.41
963.032	9410.42
963.205	8968.06
963.378	8834.94
963.551	9420.66
963.723	9510.77
963.896	9002.87
964.069	9064.31
964.242	9047.93
964.414	9301.87
964.587	9080.69
964.76	9131.89
964.932	9236.34
965.105	9086.84
965.278	9092.98
965.45	8902.52
965.623	9176.95
965.795	9371.5
965.968	8740.73
966.14	8857.46
966.313	9080.69
966.485	9289.59
966.658	8783.74
966.83	8757.11
967.003	9262.96
967.175	9148.28
967.348	8753.02
967.52	9076.6
967.692	9344.88
967.865	9070.45
968.037	8949.62
968.209	9021.3
968.382	9004.92
968.554	9047.93
968.726	8972.15
968.898	8654.72
969.071	8869.75
969.243	8918.9
969.415	8744.83
969.587	8738.68
969.759	9199.48
969.932	9068.41
970.104	8697.72
970.276	8349.57
970.448	8750.97
970.62	8793.98
970.792	8597.37
970.964	8900.47
971.136	9183.09
971.308	8908.66
971.48	8550.27
971.652	8607.61
971.824	8963.96
971.996	8503.17
972.168	8482.69
972.339	8462.21
972.511	8744.83
972.683	8630.14
972.855	8656.76
973.027	8427.39
973.199	8609.66
973.37	8753.02
973.542	8519.55
973.714	8531.84
973.886	8435.58
974.057	8593.28
974.229	8058.76
974.401	8378.24
974.572	8269.7
974.744	7825.29
974.915	8116.1
975.087	8075.14
975.259	8820.6
975.43	8136.58
975.602	7976.84
975.773	7952.26
975.945	8038.28
976.116	8144.77
976.288	7901.06
976.459	8048.52
976.63	8085.38
976.802	8208.26
976.973	7866.25
977.145	8146.82
977.316	8308.61
977.487	8267.65
977.659	7909.26
977.83	7911.3
978.001	8382.34
978.172	7718.79
978.344	7868.3
978.515	7757.71
978.686	7712.65
978.857	8306.56
979.028	7810.95
979.2	7563.15
979.371	8013.7
979.542	7958.41
979.713	7909.26
979.884	7204.75
980.055	7614.35
980.226	7784.33
980.397	7548.81
980.568	7315.34
980.739	7995.27
980.91	7438.22
981.081	7532.43
981.252	7391.12
981.423	7774.09
981.594	8015.75
981.765	7436.17
981.936	7565.2
982.106	7526.29
982.277	7915.4
982.448	7305.1
982.619	7393.17
982.79	7528.33
982.96	7645.07
983.131	7409.55
983.302	7024.53
983.472	7399.31
983.643	7456.65
983.814	7241.62
983.984	7141.27
984.155	7214.99
984.326	7608.2
984.496	7325.58
984.667	6903.7
984.837	7061.4
985.008	7368.59
985.178	7200.66
985.349	6977.43
985.519	7102.36
985.69	6750.1
985.86	6832.02
986.031	6639.51
986.201	7020.44
986.371	7178.13
986.542	6696.86
986.712	6535.07
986.882	7034.77
987.053	7014.29
987.223	6481.82
987.393	6924.18
987.563	6838.17
987.734	7081.88
987.904	6774.68
988.074	6594.46
988.244	6770.58
988.414	6719.39
988.585	6553.5
988.755	6586.27
988.925	6588.32
989.095	6895.51
989.265	6289.31
989.435	6416.29
989.605	6662.04
989.775	6616.99
989.945	6424.48
990.115	6246.3
990.285	6424.48
990.455	6639.51
990.625	6274.98
990.795	6221.73
990.965	6684.57
991.134	6135.71
991.304	6248.35
991.474	6221.73
991.644	6602.65
991.814	6582.17
991.984	5969.83
992.153	5912.49
992.323	6250.4
992.493	6178.72
992.662	5908.39
992.832	5906.34
993.002	6084.52
993.171	6090.66
993.341	5744.55
993.511	6145.95
993.68	5773.22
993.85	6131.62
994.019	5627.82
994.189	5762.98
994.358	5943.21
994.528	5717.93
994.697	5359.53
994.867	5543.85
995.036	5939.11
995.206	5855.14
995.375	5519.28
995.544	5805.99
995.714	5935.01
995.883	5582.76
996.052	5547.95
996.222	5345.2
996.391	6133.67
996.56	5539.76
996.73	5408.69
996.899	5390.25
997.068	6027.17
997.237	5531.56
997.406	5179.31
997.576	5148.59
997.745	5693.35
997.914	5775.27
998.083	4947.89
998.252	5132.21
998.421	5488.56
998.59	5382.06
998.759	5146.55
998.928	5029.81
999.097	5805.99
999.266	5433.26
999.435	4976.56
999.604	4833.21
999.773	5722.02
999.942	5201.84
1000.111	4741.05
1000.28	4794.29
1000.448	4859.83
1000.617	4919.22
1000.786	4927.41
1000.955	4771.77
1001.124	5218.22
1001.292	5691.31
1001.461	4560.83
1001.63	4726.71
1001.798	5380.01
1001.967	5365.68
1002.136	4573.11
1002.304	4683.7
1002.473	5017.52
1002.642	4956.08
1002.81	4661.18
1002.979	4648.89
1003.147	5081.01
1003.316	5400.49
1003.484	4616.12
1003.653	4433.85
1003.821	5138.35
1003.99	4706.23
1004.158	4589.5
1004.327	4675.51
1004.495	4827.06
1004.663	4714.42
1004.832	4650.94
1005	4278.21
1005.168	4788.15
1005.337	4575.16
1005.505	4147.14
1005.673	4437.95
1005.842	4673.46
1006.01	4562.87
1006.178	4222.91
1006.346	4188.1
1006.514	4546.49
1006.683	4550.59
1006.851	4251.58
1007.019	4200.38
1007.187	4407.23
1007.355	4034.5
1007.523	3977.16
1007.691	3856.33
1007.859	3946.44
1008.027	4583.35
1008.195	4003.78
1008.363	3874.76
1008.531	4466.62
1008.699	4165.57
1008.867	3882.95
1009.035	3925.96
1009.203	4407.23
1009.37	4251.58
1009.538	3950.53
1009.706	4255.68
1009.874	4126.66
1010.042	3973.06
1010.209	3557.32
1010.377	3639.24
1010.545	4261.82
1010.713	3991.49
1010.88	3643.34
1011.048	3846.09
1011.216	3809.22
1011.383	4233.15
1011.551	3555.27
1011.718	3567.56
1011.886	4085.7
1012.054	3850.18
1012.221	3495.88
1012.389	3542.99
1012.556	3786.69
1012.724	4071.36
1012.891	3545.03
1013.058	3268.56
1013.226	3866.57
1013.393	3936.2
1013.561	3293.13
1013.728	3219.41
1013.895	3721.16
1014.063	3706.82
1014.23	3176.4
1014.397	3237.84
1014.565	3631.05
1014.732	3360.72
1014.899	3108.82
1015.066	3057.62
1015.233	3551.18
1015.401	3418.06
1015.568	3164.11
1015.735	3233.74
1015.902	3418.06
1016.069	3422.16
1016.236	2932.69
1016.403	2924.5
1016.57	3252.17
1016.737	3405.77
1016.904	3059.67
1017.071	2873.3
1017.238	3254.22
1017.405	3467.21
1017.572	3018.71
1017.739	3170.26
1017.906	3319.76
1018.073	3360.72
1018.24	2883.54
1018.407	2883.54
1018.573	3342.29
1018.74	3182.54
1018.907	2979.79
1019.074	2719.7
1019.241	3420.11
1019.407	3252.17
1019.574	2551.77
1019.741	2615.26
1019.907	3110.86
1020.074	3110.86
1020.241	2445.27
1020.407	2576.34
1020.574	3104.72
1020.74	3094.48
1020.907	2639.83
1021.073	2650.07
1021.24	3375.05
1021.406	3117.01
1021.573	2486.23
1021.739	2535.39
1021.906	3002.32
1022.072	2799.57
1022.239	2533.34
1022.405	2502.62
1022.571	2813.91
1022.738	2709.46
1022.904	2332.64
1023.07	2414.56
1023.237	2734.04
1023.403	2992.08
1023.569	2263.01
1023.735	2586.58
1023.902	2832.34
1024.068	2697.17
1024.234	2398.17
1024.4	2387.93
1024.566	2580.44
1024.732	2824.15
1024.898	2396.12
1025.065	2250.72
1025.231	2942.93
1025.397	2469.85
1025.563	2424.8
1025.729	2185.18
1025.895	2226.14
1026.061	2539.48
1026.227	1998.82
1026.392	2260.96
1026.558	2832.34
1026.724	2617.3
1026.89	2213.85
1027.056	2320.35
1027.222	2488.28
1027.388	2277.34
1027.553	2136.03
1027.719	2074.59
1027.885	2731.99
1028.051	2533.34
1028.216	1906.66
1028.382	2029.54
1028.548	2650.07
1028.713	2131.94
1028.879	1935.33
1029.045	2162.66
1029.21	2678.74
1029.376	2535.39
1029.541	2004.96
1029.707	1957.86
1029.873	2420.7
1030.038	2443.23
1030.204	1890.28
1030.369	1945.57
1030.534	2349.02
1030.7	2060.26
1030.865	2088.93
1031.031	1867.75
1031.196	2283.49
1031.361	2308.06
1031.527	1775.59
1031.692	1873.89
1031.857	1882.08
1032.023	2283.49
1032.188	1748.97
1032.353	1880.04
1032.518	2656.22
1032.684	2078.69
1032.849	1578.98
1033.014	1914.85
1033.179	2365.4
1033.344	2197.47
1033.509	1853.41
1033.674	1728.49
1033.839	2267.1
1034.004	2187.23
1034.17	1718.25
1034.335	1640.42
1034.5	1923.04
1034.664	1886.18
1034.829	1843.17
1034.994	1677.29
1035.159	2138.08
1035.324	2021.35
1035.489	1624.04
1035.654	1708.01
1035.819	2095.07
1035.984	2078.69
1036.148	1708.01
1036.313	1568.74
1036.478	2197.47
1036.643	1824.74
1036.807	1546.22
1036.972	1554.41
1037.137	2140.13
1037.301	1937.38
1037.466	1368.04
1037.631	1554.41
1037.795	2119.65
1037.96	1937.38
1038.124	1630.18
1038.289	1415.15
1038.454	1947.62
1038.618	1914.85
1038.783	1490.92
1038.947	1605.61
1039.111	1892.32
1039.276	1703.91
1039.44	1507.31
1039.605	1851.36
1039.769	1591.27
1039.933	1671.14
1040.098	1529.83
1040.262	1734.63
1040.426	1994.72
1040.591	1783.78
1040.755	1284.08
1040.919	1398.76
1041.083	1701.86
1041.248	1675.24
1041.412	1312.75
1041.576	1265.64
1041.74	1607.66
1041.904	1824.74
1042.068	1239.02
1042.232	1296.36
1042.397	1746.92
1042.561	1697.77
1042.725	1048.56
1042.889	1368.04
1043.053	1849.32
1043.217	1662.95
1043.381	1282.03
1043.544	1015.79
1043.708	1875.94
1043.872	1351.66
1044.036	1030.13
1044.2	1107.95
1044.364	1751.01
1044.528	1859.56
1044.691	5468.08
1044.855	1048.56
1045.019	1744.87
1045.183	1581.03
1045.346	1222.64
1045.51	1056.75
1045.674	1581.03
1045.837	1648.61
1046.001	1153.01
1046.165	1226.73
1046.328	2023.39
1046.492	1628.14
1046.655	1300.46
1046.819	1181.68
1046.983	1300.46
1047.146	1478.63
1047.31	1079.28
1047.473	903.15
1047.636	1318.89
1047.8	1144.81
1047.963	1036.27
1048.127	960.5
1048.29	1200.11
