Data from Hydrogel_Ink_Intensity_Test_1_USB4F045381__34__00034.txt Node

Date: Mon Jul 31 10:43:26 EDT 2023
User: mmckonesweet
Spectrometer: USB4F04538
Trigger mode: 4
Integration Time (sec): 9.000000E-1
Scans to average: 1
Electric dark correction enabled: true
Nonlinearity correction enabled: false
Boxcar width: 0
XAxis mode: Wavelengths
Number of Pixels in Spectrum: 3648
>>>>>Begin Spectral Data<<<<<
345.52	-965.79
345.736	-965.79
345.952	-965.79
346.168	-1021.08
346.384	-980.12
346.6	-154.79
346.816	-193.7
347.032	-193.7
347.248	287.57
347.464	-238.76
347.68	-154.79
347.896	105.3
348.112	389.97
348.328	-17.58
348.544	-93.35
348.76	76.63
348.975	187.22
349.191	-130.22
349.407	-27.82
349.623	47.96
349.839	-21.67
350.055	-74.92
350.27	113.49
350.486	226.13
350.702	400.21
350.918	256.85
351.133	-183.46
351.349	125.78
351.565	389.97
351.781	-173.22
351.996	103.25
352.212	373.58
352.428	-83.11
352.644	-154.79
352.859	-218.28
353.075	342.86
353.291	86.87
353.506	-17.58
353.722	-136.36
353.938	2.9
354.153	404.3
354.369	193.36
354.584	-119.98
354.8	336.72
355.016	-154.79
355.231	-134.31
355.447	43.86
355.662	109.4
355.878	908.1
356.093	-201.9
356.309	-27.82
356.524	-136.36
356.74	238.42
356.955	-179.37
357.171	86.87
357.386	281.43
357.602	-140.46
357.817	7
358.033	-54.44
358.248	342.86
358.464	224.08
358.679	-42.15
358.895	-265.38
359.11	103.25
359.325	430.93
359.541	334.67
359.756	107.35
359.972	-177.32
360.187	299.86
360.402	-48.3
360.618	-115.88
360.833	990.02
361.048	207.7
361.264	-62.63
361.479	15.19
361.694	58.2
361.909	228.18
362.125	-62.63
362.34	-17.58
362.555	371.54
362.77	207.7
362.986	-138.41
363.201	21.33
363.416	269.14
363.631	66.39
363.847	-95.4
364.062	13.14
364.277	242.51
364.492	193.36
364.707	-48.3
364.922	-302.25
365.138	330.58
365.353	402.26
365.568	-162.98
365.783	-17.58
365.998	197.46
366.213	635.72
366.428	-124.07
366.643	260.95
366.858	373.58
367.073	303.95
367.288	47.96
367.503	-146.6
367.718	176.98
367.933	371.54
368.148	-89.26
368.363	70.48
368.578	68.44
368.793	502.61
369.008	-19.63
369.223	-109.74
369.438	357.2
369.653	478.03
369.868	-197.8
370.083	-56.49
370.298	256.85
370.513	484.17
370.728	183.12
370.943	-46.25
371.157	-103.59
371.372	631.63
371.587	-199.85
371.802	-158.89
372.017	174.93
372.232	529.23
372.446	82.77
372.661	-126.12
372.876	297.81
373.091	207.7
373.306	-52.39
373.52	-138.41
373.735	-15.53
373.95	510.8
374.165	-7.34
374.379	-25.77
374.594	-7.34
374.809	256.85
375.023	168.79
375.238	-117.93
375.453	336.72
375.667	-91.31
375.882	-33.96
376.097	-62.63
376.311	133.97
376.526	195.41
376.741	-128.17
376.955	279.38
377.17	625.48
377.384	707.4
377.599	97.11
377.813	-25.77
378.028	727.88
378.242	344.91
378.457	129.88
378.672	-287.91
378.886	226.13
379.101	50
379.315	-199.85
379.53	13.14
379.744	371.54
379.958	318.29
380.173	23.38
380.387	-87.21
380.602	287.57
380.816	-5.29
381.031	-44.2
381.245	125.78
381.459	416.59
381.674	2718.51
381.888	19.29
382.103	279.38
382.317	31.57
382.531	641.87
382.746	164.69
382.96	13.14
383.174	82.77
383.388	645.96
383.603	207.7
383.817	-54.44
384.031	349.01
384.246	551.76
384.46	205.65
384.674	443.21
384.888	185.17
385.103	244.56
385.317	11.09
385.531	113.49
385.745	492.37
385.959	551.76
386.174	-23.72
386.388	0.85
386.602	209.75
386.816	72.53
387.03	64.34
387.244	131.92
387.458	275.28
387.672	541.52
387.887	-109.74
388.101	23.38
388.315	594.76
388.529	297.81
388.743	-19.63
388.957	-19.63
389.171	580.43
389.385	-15.53
389.599	93.01
389.813	262.99
390.027	330.58
390.241	881.48
390.455	131.92
390.669	189.27
390.883	172.88
391.097	688.97
391.311	193.36
391.525	78.68
391.738	480.08
391.952	408.4
392.166	195.41
392.38	95.06
392.594	572.24
392.808	568.14
393.022	187.22
393.236	138.07
393.449	445.26
393.663	398.16
393.877	-52.39
394.091	176.98
394.305	211.79
394.518	117.59
394.732	7
394.946	115.54
395.16	705.35
395.373	289.62
395.587	80.72
395.801	60.24
396.015	566.09
396.228	500.56
396.442	33.62
396.656	-23.72
396.869	627.53
397.083	783.18
397.297	195.41
397.51	154.45
397.724	627.53
397.938	408.4
398.151	56.15
398.365	37.72
398.578	353.1
398.792	691.02
399.005	336.72
399.219	205.65
399.433	398.16
399.646	518.99
399.86	383.82
400.073	277.33
400.287	590.67
400.5	246.61
400.714	277.33
400.927	236.37
401.141	611.15
401.354	1411.9
401.567	504.65
401.781	41.81
401.994	580.43
402.208	891.72
402.421	252.75
402.635	377.68
402.848	367.44
403.061	674.64
403.275	355.15
403.488	250.71
403.701	887.62
403.915	611.15
404.128	435.02
404.341	172.88
404.555	600.91
404.768	439.12
404.981	416.59
405.195	226.13
405.408	920.39
405.621	641.87
405.834	500.56
406.048	279.38
406.261	811.85
406.474	891.72
406.687	271.19
406.9	387.92
407.114	508.75
407.327	592.72
407.54	93.01
407.753	195.41
407.966	230.23
408.179	650.06
408.392	252.75
408.605	260.95
408.819	602.96
409.032	703.31
409.245	295.76
409.458	518.99
409.671	635.72
409.884	850.76
410.097	226.13
410.31	541.52
410.523	619.34
410.736	441.17
410.949	494.41
411.162	445.26
411.375	906.06
411.588	826.18
411.801	531.28
412.014	365.39
412.227	543.57
412.44	408.4
412.653	295.76
412.865	590.67
413.078	858.95
413.291	668.49
413.504	461.65
413.717	498.51
413.93	809.8
414.143	398.16
414.356	404.3
414.568	277.33
414.781	858.95
414.994	680.78
415.207	463.69
415.42	371.54
415.632	817.99
415.845	1078.08
416.058	306
416.271	338.77
416.483	645.96
416.696	1121.09
416.909	480.08
417.121	432.97
417.334	840.52
417.547	1149.76
417.759	439.12
417.972	363.34
418.185	590.67
418.397	920.39
418.61	488.27
418.823	510.8
419.035	1006.41
419.248	695.11
419.46	582.48
419.673	650.06
419.885	813.9
420.098	641.87
420.311	482.13
420.523	303.95
420.736	832.33
420.948	758.6
421.161	555.85
421.373	420.69
421.586	748.36
421.798	584.52
422.01	369.49
422.223	627.53
422.435	658.25
422.648	887.62
422.86	582.48
423.073	641.87
423.285	1102.66
423.497	504.65
423.71	533.33
423.922	539.47
424.134	1014.6
424.347	1227.59
424.559	836.42
424.771	826.18
424.984	715.59
425.196	879.43
425.408	471.89
425.621	568.14
425.833	1170.24
426.045	1088.32
426.257	539.47
426.47	654.16
426.682	938.82
426.894	1039.17
427.106	711.5
427.318	772.94
427.531	770.89
427.743	1123.14
427.955	772.94
428.167	1133.38
428.379	1133.38
428.591	955.21
428.804	854.86
429.016	670.54
429.228	959.3
429.44	985.93
429.652	906.06
429.864	717.64
430.076	928.58
430.288	881.48
430.5	877.38
430.712	932.68
430.924	1317.7
431.136	1020.74
431.348	695.11
431.56	707.4
431.772	1059.65
431.984	879.43
432.196	842.57
432.408	865.1
432.62	1006.41
432.832	1135.43
433.044	1110.85
433.256	953.16
433.468	1305.41
433.679	799.56
433.891	793.42
434.103	1119.04
434.315	1506.11
434.527	1284.93
434.739	1055.56
434.95	1039.17
435.162	1325.89
435.374	1028.93
435.586	908.1
435.798	1006.41
436.009	904.01
436.221	1123.14
436.433	1071.94
436.645	930.63
436.856	1073.99
437.068	1489.73
437.28	932.68
437.491	1325.89
437.703	1493.82
437.915	1409.86
438.126	1110.85
438.338	1280.83
438.55	1205.06
438.761	1487.68
438.973	1073.99
439.184	1127.24
439.396	1479.49
439.608	1430.34
439.819	1039.17
440.031	1241.92
440.242	1469.25
440.454	1446.72
440.665	1133.38
440.877	1309.51
441.088	1489.73
441.3	1276.74
441.511	1037.13
441.723	1119.04
441.934	1313.6
442.146	1418.05
442.357	1350.46
442.569	1495.87
442.78	1561.41
442.991	1827.64
443.203	1487.68
443.414	1141.57
443.626	1801.02
443.837	1418.05
444.048	1227.59
444.26	1149.76
444.471	1456.96
444.682	1725.24
444.894	1059.65
445.105	1096.52
445.316	1762.11
445.528	1616.7
445.739	1286.98
445.95	1389.38
446.161	1530.69
446.373	1717.05
446.584	1344.32
446.795	1440.58
447.006	1686.33
447.217	2005.81
447.429	1184.58
447.64	1229.63
447.851	1819.45
448.062	1581.89
448.273	1211.2
448.484	1231.68
448.695	1692.48
448.907	1633.08
449.118	1598.27
449.329	1667.9
449.54	1534.78
449.751	1542.97
449.962	1379.14
450.173	1375.04
450.384	1899.32
450.595	2145.08
450.806	1483.58
451.017	1477.44
451.228	1895.22
451.439	1940.28
451.65	1604.41
451.861	1289.03
452.072	1626.94
452.283	1731.39
452.494	1712.96
452.705	1573.69
452.915	2169.65
453.126	1893.18
453.337	1657.66
453.548	1647.42
453.759	2097.97
453.97	2370.35
454.181	1878.84
454.391	1848.12
454.602	1983.29
454.813	1956.66
455.024	1704.76
455.235	1768.25
455.445	1893.18
455.656	2104.12
455.867	1837.88
456.078	1790.78
456.288	1848.12
456.499	2175.8
456.71	1727.29
456.921	2001.72
457.131	2194.23
457.342	2186.04
457.553	1983.29
457.763	1911.61
457.974	2270
458.184	2321.2
458.395	1821.5
458.606	1825.59
458.816	2478.9
459.027	2743.08
459.237	2112.31
459.448	1913.66
459.659	2511.66
459.869	2722.6
460.08	1905.46
460.29	2263.86
460.501	2904.87
460.711	2341.68
460.922	2077.49
461.132	2171.7
461.343	2980.65
461.553	2145.08
461.764	2208.56
461.974	2290.48
462.184	2730.8
462.395	2550.57
462.605	2415.41
462.816	2149.17
463.026	2620.21
463.236	2882.35
463.447	2308.91
463.657	2390.83
463.867	2943.78
464.078	2683.69
464.288	2429.74
464.498	2609.97
464.709	2777.9
464.919	2595.63
465.129	2591.53
465.339	2503.47
465.55	2927.4
465.76	3099.43
465.97	2646.83
466.18	2552.62
466.391	3136.29
466.601	3017.51
466.811	2808.62
467.021	2626.35
467.231	3173.16
467.441	3154.73
467.651	2894.63
467.862	2632.49
468.072	3148.58
468.282	3609.37
468.492	2980.65
468.702	3142.44
468.912	3373.86
469.122	3797.79
469.332	3293.99
469.542	3058.47
469.752	3726.11
469.962	3468.06
470.172	3257.12
470.382	3300.13
470.592	3801.88
470.802	3990.3
471.012	3427.11
471.222	3359.52
471.432	3795.74
471.642	3908.38
471.852	3701.53
472.062	3447.58
472.272	3754.78
472.482	3558.18
472.691	3703.58
472.901	3590.94
473.111	3998.49
473.321	4727.57
473.531	3754.78
473.741	4092.69
473.95	4254.48
474.16	4365.07
474.37	4092.69
474.58	3891.99
474.79	4885.26
474.999	4551.44
475.209	4033.3
475.419	4252.44
475.628	4352.79
475.838	4944.65
476.048	4379.41
476.258	4459.28
476.467	5137.16
476.677	4725.52
476.886	4829.96
477.096	4780.81
477.306	4692.75
477.515	5073.67
477.725	4848.4
477.935	4883.21
478.144	5501.7
478.354	5016.33
478.563	5077.77
478.773	4938.51
478.982	5417.73
479.192	5612.29
479.401	5241.61
479.611	5030.66
479.82	5122.82
480.03	5692.16
480.239	5360.39
480.449	5397.25
480.658	6208.25
480.868	5724.93
481.077	5755.65
481.287	5679.87
481.496	5958.39
481.705	6382.32
481.915	6071.03
482.124	6052.6
482.333	6130.42
482.543	6476.53
482.752	6046.46
482.961	5821.18
483.171	6681.33
483.38	6456.05
483.589	6212.34
483.799	6130.42
484.008	6550.26
484.217	6636.27
484.426	6329.08
484.636	6241.01
484.845	6802.16
485.054	6347.51
485.263	6888.17
485.472	6470.39
485.682	7211.75
485.891	7033.58
486.1	6583.02
486.309	6632.18
486.518	7170.79
486.727	7531.23
486.936	6935.28
487.146	7162.6
487.355	7729.89
487.564	7064.3
487.773	7224.04
487.982	7230.18
488.191	7391.97
488.4	7535.33
488.609	7385.83
488.818	7434.98
489.027	8248.02
489.236	8125.15
489.445	7615.2
489.654	7418.6
489.863	8082.14
490.072	8090.33
490.281	7963.36
490.49	7791.33
490.698	8475.35
490.907	8620.75
491.116	8024.79
491.325	7817.95
491.534	8680.14
491.743	8446.68
491.952	8276.7
492.16	8258.26
492.369	8608.47
492.578	8639.19
492.787	8477.4
492.996	8227.54
493.204	8432.34
493.413	9288.39
493.622	8254.17
493.831	8278.74
494.039	9169.61
494.248	8549.07
494.457	8686.29
494.665	8764.11
494.874	9157.32
495.083	9538.24
495.291	8893.13
495.5	8880.85
495.709	9462.47
495.917	9222.86
496.126	8983.24
496.335	8893.13
496.543	9261.77
496.752	9511.62
496.96	9419.46
497.169	9093.83
497.377	9423.56
497.586	9781.95
497.794	9493.19
498.003	9140.94
498.211	9636.55
498.42	10134.2
498.628	9657.03
498.837	9482.95
499.045	10068.67
499.254	9806.53
499.462	9663.17
499.671	9622.21
499.879	10527.41
500.087	10326.71
500.296	9652.93
500.504	9790.14
500.713	10164.92
500.921	10930.86
501.129	9872.06
501.338	9900.73
501.546	10445.49
501.754	10506.93
501.962	10056.38
502.171	10074.81
502.379	10597.04
502.587	11008.69
502.795	10336.95
503.004	10386.1
503.212	10656.43
503.42	10713.78
503.628	10617.52
503.837	10582.71
504.045	10775.22
504.253	11276.97
504.461	10461.88
504.669	10638
504.877	11074.22
505.085	11369.13
505.294	10709.68
505.502	10965.68
505.71	11139.76
505.918	11254.44
506.126	10672.82
506.334	10812.08
506.542	11281.07
506.75	11324.07
506.958	11225.77
507.166	11164.33
507.374	11209.39
507.582	11856.54
507.79	11328.17
507.998	11043.5
508.206	11473.57
508.414	11735.71
508.622	11481.77
508.83	11317.93
509.037	12133.02
509.245	11520.68
509.453	11455.14
509.661	11328.17
509.869	11846.3
510.077	11684.52
510.285	11655.84
510.492	11063.98
510.7	12520.09
510.908	11524.77
511.116	11453.09
511.324	11561.64
511.531	11858.59
511.739	12055.2
511.947	11848.35
512.155	12210.84
512.362	12141.21
512.57	11756.19
512.778	11621.03
512.985	11782.82
513.193	12372.63
513.401	12602.01
513.608	12055.2
513.816	12149.4
514.024	12655.25
514.231	12708.5
514.439	12360.34
514.646	12405.4
514.854	12509.85
515.061	12950.16
515.269	12024.48
515.477	12333.72
515.684	12311.19
515.892	12802.71
516.099	12241.56
516.307	11977.37
516.514	12982.93
516.722	13202.06
516.929	12479.13
517.136	12499.61
517.344	13259.4
517.551	13032.08
517.759	12550.81
517.966	12659.35
518.173	12675.73
518.381	12898.96
518.588	13105.81
518.796	12649.11
519.003	13404.81
519.21	13296.27
519.418	12753.55
519.625	13230.73
519.832	12946.06
520.039	13515.4
520.247	12880.53
520.454	13093.52
520.661	13777.54
520.868	13578.89
521.076	13429.38
521.283	13283.98
521.49	13949.57
521.697	13699.72
521.904	13378.19
522.112	13320.84
522.319	13965.95
522.526	13783.68
522.733	13570.69
522.94	13580.93
523.147	13759.11
523.354	13679.24
523.561	13636.23
523.768	13703.81
523.975	14301.82
524.183	13910.66
524.39	13824.64
524.597	13621.89
524.804	14195.32
525.011	14062.21
525.218	14011.01
525.425	13922.94
525.632	14412.41
525.838	14078.59
526.045	14103.17
526.252	14328.44
526.459	15604.33
526.666	15215.21
526.873	14133.89
527.08	14338.68
527.287	14895.73
527.494	14578.29
527.701	14375.55
527.907	14074.49
528.114	14709.36
528.321	14647.93
528.528	14543.48
528.735	14828.15
528.941	14813.81
529.148	14658.17
529.355	14604.92
529.562	14314.11
529.768	15250.03
529.975	14592.63
530.182	14381.69
530.388	14580.34
530.595	15207.02
530.802	15008.37
531.008	14850.67
531.215	15059.57
531.422	15915.62
531.628	16122.46
531.835	15194.73
532.042	15233.64
532.248	15295.08
532.455	15565.42
532.661	15258.22
532.868	15125.1
533.074	15661.67
533.281	15800.93
533.487	15268.46
533.694	15229.55
533.9	15589.99
534.107	15667.81
534.313	15166.06
534.52	15372.91
534.726	15880.8
534.933	16233.05
535.139	15587.94
535.345	15532.65
535.552	16034.4
535.758	16323.16
535.965	15770.21
536.171	15895.14
536.377	16269.92
536.584	16390.75
536.79	15932
536.996	16212.57
537.203	16206.43
537.409	16280.16
537.615	16018.02
537.821	16140.9
538.028	16810.58
538.234	16306.78
538.44	15925.86
538.646	16165.47
538.853	16730.71
539.059	16296.54
539.265	16599.64
539.471	16267.87
539.677	16929.36
539.883	16472.67
540.09	16648.79
540.296	16912.98
540.502	16953.94
540.708	16636.5
540.914	16650.84
541.12	16421.47
541.326	17189.46
541.532	16831.06
541.738	16833.11
541.944	16804.44
542.15	17254.99
542.356	17056.34
542.562	16798.29
542.768	16747.09
542.974	17697.35
543.18	17834.57
543.386	16972.37
543.592	17271.37
543.798	17943.11
544.004	17668.68
544.21	17388.11
544.415	17283.66
544.621	17863.24
544.827	17703.5
545.033	17318.48
545.239	17562.19
545.445	17699.4
545.651	17857.09
545.856	17558.09
546.062	17535.56
546.268	17508.94
546.474	18084.42
546.679	17424.97
546.885	17539.66
547.091	17689.16
547.297	18512.44
547.502	17814.09
547.708	17691.21
547.914	17603.14
548.119	18352.7
548.325	17586.76
548.531	17488.46
548.736	18479.68
548.942	17777.22
549.147	17898.05
549.353	18199.1
549.559	18532.92
549.764	18311.74
549.97	17715.78
550.175	18213.44
550.381	18586.17
550.586	18135.62
550.792	18106.95
550.997	18012.74
551.203	18436.67
551.408	18426.43
551.614	18104.9
551.819	18297.41
552.025	18889.27
552.23	19266.1
552.435	18694.71
552.641	19135.03
552.846	18655.8
553.052	19348.01
553.257	18762.3
553.462	18549.31
553.668	18670.14
553.873	19212.85
554.078	19055.15
554.283	18958.9
554.489	19307.05
554.694	19262
554.899	18784.82
555.105	19282.48
555.31	19075.63
555.515	19360.3
555.72	19395.12
555.925	18825.78
556.131	19345.97
556.336	19120.69
556.541	19087.92
556.746	18698.81
556.951	19894.82
557.156	19778.09
557.361	19540.52
557.567	19630.63
557.772	20245.02
557.977	19728.94
558.182	19239.47
558.387	19567.15
558.592	19649.07
558.797	20023.84
559.002	19917.35
559.207	19616.3
559.412	19687.98
559.617	20472.35
559.822	19425.84
560.027	19421.74
560.232	19810.86
560.437	20171.3
560.642	19565.1
560.847	19569.19
561.051	20140.58
561.256	19806.76
561.461	19855.91
561.666	19538.48
561.871	20199.97
562.076	20470.3
562.281	20027.94
562.485	19669.55
562.69	20257.31
562.895	20124.19
563.1	20077.09
563.305	19784.23
563.509	20353.57
563.714	20642.33
563.919	19956.26
564.123	19946.02
564.328	20109.86
564.533	20593.18
564.737	19907.11
564.942	20079.14
565.147	20734.49
565.351	21137.94
565.556	19968.55
565.761	20300.32
565.965	20357.66
566.17	20173.35
566.374	20271.65
566.579	20154.91
566.784	20736.54
566.988	20421.15
567.193	20093.47
567.397	20267.55
567.602	20570.65
567.806	20771.35
568.011	20415.01
568.215	20593.18
568.42	21025.3
568.624	20601.37
568.828	20347.42
569.033	20679.19
569.237	21031.44
569.442	21320.21
569.646	20544.03
569.85	21148.18
570.055	21135.89
570.259	20967.96
570.463	21111.32
570.668	20927
570.872	20947.48
571.076	21006.87
571.281	20812.31
571.485	21469.71
571.689	21357.07
571.893	21395.98
572.098	21195.28
572.302	21043.73
572.506	21494.29
572.71	21025.3
572.914	21482
573.119	21309.97
573.323	21867.02
573.527	21953.03
573.731	21160.47
573.935	21479.95
574.139	21918.21
574.343	21150.23
574.547	21289.49
574.751	21271.06
574.955	22096.39
575.159	22004.23
575.364	21506.57
575.568	21334.54
575.772	21740.04
575.976	21889.54
576.18	21166.61
576.383	21660.17
576.587	21795.34
576.791	22030.85
576.995	21453.33
577.199	21568.01
577.403	22088.2
577.607	22297.09
577.811	21557.77
578.015	21717.51
578.219	21983.75
578.422	22059.52
578.626	21789.19
578.83	22018.57
579.034	22333.95
579.238	22084.1
579.442	21856.78
579.645	22462.97
579.849	22362.62
580.053	22757.88
580.257	22108.68
580.46	22407.68
580.664	22753.79
580.868	22696.44
581.071	22544.89
581.275	22274.56
581.479	21998.09
581.682	22559.23
581.886	22280.71
582.09	22600.19
582.293	22950.39
582.497	22995.45
582.7	23126.52
582.904	22444.54
583.107	22702.59
583.311	22655.48
583.515	22731.26
583.718	22747.64
583.922	23161.33
584.125	23386.61
584.329	22368.77
584.532	22985.21
584.735	23343.6
584.939	22899.19
585.142	22440.45
585.346	22624.76
585.549	23114.23
585.753	23214.58
585.956	22960.63
586.159	23144.95
586.363	23495.15
586.566	23566.83
586.769	22821.37
586.973	22981.11
587.176	23591.41
587.379	23570.93
587.582	23534.06
587.786	23230.96
587.989	23478.77
588.192	24115.69
588.395	23478.77
588.599	23628.27
588.802	23671.28
589.005	23663.08
589.208	23538.16
589.411	23343.6
589.615	23796.2
589.818	24310.24
590.021	23658.99
590.224	23615.98
590.427	24031.72
590.63	24048.1
590.833	23237.11
591.036	23642.6
591.239	23724.52
591.442	23831.02
591.645	24097.25
591.848	23751.15
592.051	24472.03
592.254	24353.25
592.457	24197.6
592.66	23931.37
592.863	24269.28
593.066	24246.76
593.269	23898.6
593.472	23998.95
593.675	24402.4
593.878	24826.33
594.081	23933.42
594.284	24177.12
594.486	24828.38
594.689	24818.14
594.892	24474.08
595.095	24396.26
595.298	24646.11
595.5	24535.52
595.703	24832.47
595.906	24523.23
596.109	25213.4
596.311	25063.89
596.514	24445.41
596.717	24775.13
596.92	25469.39
597.122	25166.29
597.325	24328.67
597.528	24846.81
597.73	25348.56
597.933	24846.81
598.136	24725.98
598.338	24465.89
598.541	25274.84
598.743	25459.15
598.946	24627.68
599.148	25051.61
599.351	25364.95
599.554	25215.44
599.756	24545.76
599.959	25305.56
600.161	25227.73
600.363	26157.51
600.566	25082.33
600.768	24998.36
600.971	25928.14
601.173	25291.22
601.376	25211.35
601.578	25166.29
601.78	25412.05
601.983	26128.84
602.185	25264.6
602.388	25549.26
602.59	25522.64
602.792	25489.87
602.995	25586.13
603.197	25399.76
603.399	25868.75
603.601	25465.3
603.804	25283.03
604.006	25301.46
604.208	25356.75
604.41	25090.52
604.613	25563.6
604.815	25446.87
605.017	26431.94
605.219	25559.5
605.421	25782.73
605.623	25688.53
605.826	26556.86
606.028	26276.29
606.23	25590.22
606.432	25438.67
606.634	26409.41
606.836	26177.99
607.038	25496.02
607.24	25825.74
607.442	25612.75
607.644	25960.91
607.846	25997.77
608.048	25618.89
608.25	26102.22
608.452	25868.75
608.654	25790.92
608.856	25412.05
609.058	25840.08
609.26	26290.63
609.462	25919.95
609.664	25897.42
609.866	26292.68
610.067	26151.37
610.269	25795.02
610.471	25776.59
610.673	26159.56
610.875	26481.09
611.077	25641.42
611.278	25778.64
611.48	26317.25
611.682	26491.33
611.884	26188.23
612.085	25774.54
612.287	26393.03
612.489	26411.46
612.69	25897.42
612.892	26259.91
613.094	26943.93
613.295	26341.83
613.497	26026.44
613.699	26161.61
613.9	26882.49
614.102	26628.54
614.304	26071.5
614.505	25729.48
614.707	26438.08
614.908	26378.69
615.11	25870.79
615.311	26259.91
615.513	26280.39
615.714	26579.39
615.916	25979.34
616.117	26313.16
616.319	26415.55
616.52	26642.88
616.722	26079.69
616.923	25928.14
617.124	26714.56
617.326	26489.28
617.527	26352.07
617.729	26565.06
617.93	26612.16
618.131	26767.8
618.333	26001.86
618.534	26177.99
618.735	26524.1
618.937	27136.44
619.138	26065.35
619.339	25911.75
619.54	26765.76
619.742	26655.17
619.943	26638.78
620.144	26143.17
620.345	27111.86
620.546	27158.97
620.748	26374.59
620.949	26456.51
621.15	26606.02
621.351	26669.5
621.552	26343.88
621.753	26182.09
621.954	26450.37
622.155	26870.2
622.356	26210.76
622.558	26403.27
622.759	26878.4
622.96	27031.99
623.161	26190.28
623.362	26610.11
623.563	26575.3
623.764	26864.06
623.965	26644.93
624.166	26726.85
624.366	26577.34
624.567	26735.04
624.768	26368.45
624.969	26171.85
625.17	26796.48
625.371	27124.15
625.572	26585.54
625.773	26350.02
625.973	27044.28
626.174	27232.69
626.375	26567.1
626.576	26417.6
626.777	27019.71
626.977	27247.03
627.178	26888.64
627.379	26499.52
627.58	26970.55
627.78	27183.54
627.981	26655.17
628.182	27214.26
628.382	27404.72
628.583	26546.62
628.784	26720.7
628.984	26493.38
629.185	27062.71
629.386	27101.62
629.586	26767.8
629.787	26560.96
629.987	27242.93
630.188	27107.77
630.388	26751.42
630.589	26712.51
630.79	27560.37
630.99	27158.97
631.191	27255.22
631.391	27236.79
631.591	27400.63
631.792	27423.15
631.992	27015.61
632.193	27333.04
632.393	27310.52
632.594	26780.09
632.794	26960.31
632.994	27118.01
633.195	27185.59
633.395	27427.25
633.595	27077.05
633.796	27314.61
633.996	27296.18
634.196	27433.39
634.397	26894.78
634.597	27036.09
634.797	27087.29
634.997	27546.03
635.198	27068.86
635.398	27091.38
635.598	27386.29
635.798	27924.91
635.998	27564.46
636.199	27036.09
636.399	27367.86
636.599	26880.44
636.799	27097.53
636.999	27279.8
637.199	27687.34
637.399	27888.04
637.599	27427.25
637.799	27382.2
637.999	27249.08
638.199	27957.67
638.399	27136.44
638.599	27533.75
638.799	27732.4
638.999	28180.9
639.199	27718.06
639.399	27791.79
639.599	28481.95
639.799	27425.2
639.999	27302.32
640.199	27476.4
640.399	27648.43
640.599	27058.62
640.799	28113.32
640.998	27623.86
641.198	28006.83
641.398	27896.24
641.598	27543.99
641.798	27804.08
641.997	28846.49
642.197	27883.95
642.397	27642.29
642.597	27646.38
642.796	28029.35
642.996	28023.21
643.196	27722.16
643.395	27484.59
643.595	28078.5
643.795	27517.36
643.994	27597.23
644.194	28031.4
644.394	28307.88
644.593	28191.14
644.793	28012.97
644.992	27951.53
645.192	28109.22
645.392	27523.51
645.591	27943.34
645.791	28117.42
645.99	28318.12
646.19	28242.34
646.389	28193.19
646.589	27865.52
646.788	28615.07
646.987	28512.67
647.187	28211.62
647.386	28420.52
647.586	28129.7
647.785	28527.01
647.984	28264.87
648.184	28137.9
648.383	28051.88
648.582	28123.56
648.782	28187.05
648.981	28406.18
649.18	28010.92
649.38	28256.68
649.579	28199.34
649.778	28025.26
649.977	28928.41
650.177	28432.8
650.376	28193.19
650.575	27890.09
650.774	28897.69
650.973	28191.14
651.173	28193.19
651.372	28477.86
651.571	28537.25
651.77	28774.81
651.969	28311.97
652.168	28070.31
652.367	28088.74
652.566	28516.77
652.765	28328.36
652.964	28273.06
653.163	28907.93
653.362	28617.12
653.561	28209.57
653.76	28547.49
653.959	28500.39
654.158	28864.92
654.357	28936.6
654.556	28549.54
654.755	28619.17
654.954	28799.39
655.153	28475.81
655.352	28500.39
655.551	28803.49
655.749	28692.9
655.948	28627.36
656.147	28490.15
656.346	29278.61
656.545	28942.75
656.743	28572.07
656.942	28914.08
657.141	29002.14
657.34	28731.81
657.538	28889.5
657.737	28619.17
657.936	29063.58
658.135	29241.75
658.333	28582.31
658.532	28580.26
658.731	29223.32
658.929	29122.97
659.128	28815.77
659.326	28678.56
659.525	29319.57
659.724	28744.09
659.922	28543.39
660.121	28613.02
660.319	28754.33
660.518	28408.23
660.716	28565.92
660.915	28764.57
661.113	29667.73
661.312	28508.58
661.51	28985.76
661.709	28666.27
661.907	29108.63
662.105	29303.19
662.304	28471.71
662.502	28795.29
662.701	29301.14
662.899	28588.45
663.097	29065.63
663.296	28441
663.494	29313.43
663.692	29131.16
663.891	28826.01
664.089	28512.67
664.287	29286.81
664.485	29098.39
664.684	28432.8
664.882	28928.41
665.08	28881.31
665.278	29325.72
665.476	28453.28
665.675	29358.49
665.873	29723.02
666.071	29297.05
666.269	28653.98
666.467	28643.74
666.665	29026.71
666.863	28588.45
667.061	28766.62
667.259	28766.62
667.457	28936.6
667.655	28944.8
667.853	28721.57
668.051	28588.45
668.249	28641.7
668.447	28817.82
668.645	28834.21
668.843	28852.64
669.041	29317.53
669.239	28662.18
669.437	28807.58
669.635	28983.71
669.833	28897.69
670.031	29012.38
670.229	29032.86
670.426	29098.39
670.624	28819.87
670.822	28682.66
671.02	28543.39
671.218	28885.4
671.415	28737.95
671.613	28768.67
671.811	28674.46
672.009	28684.7
672.206	29299.09
672.404	28959.13
672.602	28977.56
672.799	28981.66
672.997	29184.41
673.195	29002.14
673.392	28944.8
673.59	28443.04
673.788	28912.03
673.985	28469.67
674.183	28651.94
674.38	28885.4
674.578	29045.15
674.775	28477.86
674.973	28328.36
675.17	28696.99
675.368	28709.28
675.565	28805.53
675.763	28559.78
675.96	28721.57
676.158	29247.9
676.355	28500.39
676.553	28701.09
676.75	28260.77
676.947	28643.74
677.145	28641.7
677.342	28527.01
677.539	28453.28
677.737	28494.24
677.934	29061.53
678.131	28447.14
678.329	28490.15
678.526	29059.48
678.723	29086.11
678.92	28780.96
679.118	28240.29
679.315	28174.76
679.512	28932.51
679.709	28520.87
679.906	28373.41
680.104	28979.61
680.301	28608.93
680.498	28080.55
680.695	27949.48
680.892	28285.35
681.089	28252.58
681.286	28441
681.483	28168.62
681.68	28860.83
681.877	28836.25
682.075	28010.92
682.272	28410.28
682.469	28283.3
682.665	28277.16
682.862	28019.11
683.059	28307.88
683.256	28217.77
683.453	28441
683.65	28279.21
683.847	28576.16
684.044	28156.33
684.241	28082.6
684.438	28193.19
684.635	27830.7
684.831	28854.69
685.028	28666.27
685.225	27609.52
685.422	27736.49
685.619	28185
685.815	28318.12
686.012	28189.1
686.209	27855.28
686.405	27593.14
686.602	28445.09
686.799	27398.58
686.996	27916.72
687.192	27437.49
687.389	28010.92
687.586	27931.05
687.782	27718.06
687.979	28520.87
688.175	27955.63
688.372	27761.07
688.568	27867.56
688.765	27654.58
688.962	28244.39
689.158	27619.76
689.355	27408.82
689.551	28064.17
689.748	27554.22
689.944	27642.29
690.14	27386.29
690.337	27888.04
690.533	27842.99
690.73	27449.78
690.926	27886
691.123	27806.13
691.319	27679.15
691.515	27529.65
691.712	27574.7
691.908	28021.16
692.104	27711.92
692.301	27627.95
692.497	27390.39
692.693	27818.41
692.889	27857.32
693.086	27695.53
693.282	27484.59
693.478	27584.94
693.674	27855.28
693.87	27402.68
694.067	27388.34
694.263	28035.5
694.459	27433.39
694.655	27740.59
694.851	27249.08
695.047	27423.15
695.243	27883.95
695.439	27177.4
695.635	27541.94
695.831	27791.79
696.027	27550.13
696.224	27021.75
696.42	27466.16
696.615	27646.38
696.811	27259.32
697.007	26927.55
697.203	26933.69
697.399	27388.34
697.595	27603.38
697.791	26972.6
697.987	27310.52
698.183	26638.78
698.379	26843.58
698.575	27357.62
698.77	26749.37
698.966	27193.78
699.162	27500.98
699.358	26823.1
699.554	27025.85
699.749	27228.6
699.945	27244.98
700.141	26759.61
700.337	27150.78
700.532	27011.51
700.728	26913.21
700.924	26755.52
701.119	26696.13
701.315	26915.26
701.511	26847.68
701.706	27031.99
701.902	26757.57
702.097	26982.84
702.293	27445.68
702.489	27085.24
702.684	26909.11
702.88	26964.41
703.075	26859.96
703.271	26548.67
703.466	26565.06
703.662	26606.02
703.857	27038.14
704.053	26683.84
704.248	26816.96
704.443	27019.71
704.639	26929.59
704.834	26677.69
705.03	26821.05
705.225	26831.29
705.42	26755.52
705.616	26528.19
705.811	26237.38
706.006	26892.73
706.202	26915.26
706.397	26661.31
706.592	26683.84
706.787	26671.55
706.983	26960.31
707.178	27025.85
707.373	26546.62
707.568	26859.96
707.763	27111.86
707.959	26866.11
708.154	26679.74
708.349	26753.47
708.544	26552.77
708.739	26773.95
708.934	26073.54
709.129	26669.5
709.324	26868.16
709.519	26470.85
709.714	26386.88
709.909	27259.32
710.104	26702.27
710.299	26274.24
710.494	26323.4
710.689	26556.86
710.884	26413.51
711.079	26577.34
711.274	26337.73
711.469	26771.9
711.664	26464.71
711.859	26147.27
712.054	26421.7
712.249	26384.83
712.443	26548.67
712.638	26036.68
712.833	25981.38
713.028	26354.12
713.223	26304.96
713.417	26429.89
713.612	26073.54
713.807	26479.04
714.002	26905.02
714.196	26384.83
714.391	26143.17
714.586	26347.97
714.78	26188.23
714.975	26188.23
715.17	26210.76
715.364	26493.38
715.559	26556.86
715.754	25649.61
715.948	25930.19
716.143	26671.55
716.337	26096.07
716.532	26163.65
716.726	25686.48
716.921	25928.14
717.115	26251.72
717.31	25887.18
717.504	26352.07
717.699	25932.23
717.893	26016.2
718.088	25731.53
718.282	25450.96
718.476	25747.92
718.671	25543.12
718.865	25422.29
719.059	25635.28
719.254	25799.12
719.448	26231.24
719.642	25733.58
719.837	25287.12
720.031	25778.64
720.225	25874.89
720.419	25436.63
720.614	25616.85
720.808	25633.23
721.002	25135.57
721.196	25326.03
721.39	25215.44
721.585	25666
721.779	25629.13
721.973	25350.61
722.167	25090.52
722.361	25457.1
722.555	25512.4
722.749	25072.09
722.943	24984.02
723.137	25340.37
723.331	25235.92
723.525	25178.58
723.719	25078.23
723.913	25457.1
724.107	25520.59
724.301	24795.61
724.495	24914.39
724.689	25399.76
724.883	25289.17
725.077	24844.76
725.271	25004.5
725.465	25633.23
725.659	25072.09
725.853	25360.85
726.046	24855
726.24	24793.56
726.434	24916.44
726.628	24844.76
726.822	24850.91
727.015	25557.46
727.209	25072.09
727.403	25076.18
727.596	24777.18
727.79	25276.88
727.984	25197.01
728.177	24873.43
728.371	24838.62
728.565	25414.1
728.758	25010.65
728.952	24723.93
729.146	25004.5
729.339	25586.13
729.533	25057.75
729.726	24658.4
729.92	24965.59
730.113	25530.83
730.307	25268.69
730.5	25010.65
730.694	24947.16
730.887	24930.78
731.081	25246.16
731.274	24766.94
731.468	24752.6
731.661	25098.71
731.854	25180.63
732.048	24811.99
732.241	24965.59
732.435	25027.03
732.628	25084.37
732.821	24975.83
733.014	24701.4
733.208	24934.87
733.401	25366.99
733.594	24547.81
733.788	24713.69
733.981	25321.94
734.174	25383.38
734.367	24918.49
734.56	25061.85
734.754	25154.01
734.947	25256.4
735.14	24936.92
735.333	24805.85
735.526	25463.25
735.719	24633.82
735.912	24930.78
736.105	24742.36
736.298	25063.89
736.491	24965.59
736.684	24738.27
736.877	24740.32
737.07	24873.43
737.263	25283.03
737.456	24824.28
737.649	24259.04
737.842	24619.49
738.035	24981.98
738.228	24349.15
738.421	24689.12
738.614	25393.62
738.807	24834.52
739	24189.41
739.192	24140.26
739.385	24873.43
739.578	24988.12
739.771	24832.47
739.964	24248.8
740.156	24834.52
740.349	24543.71
740.542	24703.45
740.735	24252.9
740.927	24400.35
741.12	24058.34
741.313	24314.34
741.505	24521.18
741.698	24691.16
741.891	24328.67
742.083	24439.26
742.276	24363.49
742.468	24617.44
742.661	24410.59
742.854	24015.33
743.046	24195.56
743.239	24926.68
743.431	24603.1
743.624	24340.96
743.816	24162.79
744.009	24408.54
744.201	24035.81
744.393	24799.71
744.586	24529.38
744.778	24523.23
744.971	24267.24
745.163	24183.27
745.355	24304.1
745.548	24271.33
745.74	24273.38
745.932	24021.48
746.125	24060.39
746.317	24965.59
746.509	24254.95
746.702	24586.72
746.894	24261.09
747.086	24277.47
747.278	24736.22
747.471	24562.14
747.663	24306.15
747.855	24285.67
748.047	24805.85
748.239	24130.02
748.431	23939.56
748.623	24723.93
748.815	24586.72
749.008	23837.16
749.2	24111.59
749.392	24541.66
749.584	24054.25
749.776	24269.28
749.968	24250.85
750.16	24816.09
750.352	24228.32
750.544	24242.66
750.736	24015.33
750.928	24543.71
751.12	23857.64
751.311	23761.39
751.503	24113.64
751.695	24021.48
751.887	23935.46
752.079	23767.53
752.271	23898.6
752.463	25119.19
752.654	24244.71
752.846	23902.7
753.038	23683.56
753.23	23497.2
753.421	23984.62
753.613	23646.7
753.805	23992.81
753.997	24185.32
754.188	24273.38
754.38	23591.41
754.572	23714.28
754.763	23613.93
754.955	23894.5
755.146	23550.45
755.338	23622.12
755.53	23605.74
755.721	23595.5
755.913	23179.76
756.104	23269.87
756.296	23677.42
756.487	23884.26
756.679	23173.62
756.87	23362.03
757.062	23048.69
757.253	23644.65
757.445	23214.58
757.636	23337.46
757.827	23353.84
758.019	24170.98
758.21	23169.52
758.401	23230.96
758.593	23742.96
758.784	23671.28
758.975	22723.07
759.167	23257.59
759.358	23167.48
759.549	23736.81
759.74	22770.17
759.932	22684.16
760.123	23548.4
760.314	22786.55
760.505	22647.29
760.696	22708.73
760.888	23575.02
761.079	23106.04
761.27	22872.57
761.461	22651.39
761.652	23597.55
761.843	22745.59
762.034	22944.25
762.225	23020.02
762.416	22645.24
762.607	22708.73
762.798	22675.96
762.989	22387.2
763.18	23439.86
763.371	22475.26
763.562	22608.38
763.753	22782.46
763.944	23011.83
764.135	22864.38
764.326	22702.59
764.517	22102.53
764.708	22514.17
764.899	22733.31
765.089	22102.53
765.28	22272.51
765.471	22563.33
765.662	22485.5
765.853	22192.64
766.043	21950.98
766.234	22673.92
766.425	22303.23
766.615	21647.88
766.806	22000.13
766.997	22626.81
767.187	22319.62
767.378	21948.93
767.569	21860.87
767.759	22120.96
767.95	22370.82
768.141	22135.3
768.331	21781
768.522	22166.02
768.712	22379.01
768.903	21809.67
769.093	21701.13
769.284	22133.25
769.474	22229.51
769.665	21350.93
769.855	21281.3
770.046	22149.64
770.236	21375.5
770.426	21338.64
770.617	21465.61
770.807	21737.99
770.998	21977.61
771.188	21447.18
771.378	21066.26
771.569	21740.04
771.759	21604.88
771.949	20939.29
772.139	21262.86
772.33	21516.81
772.52	21774.86
772.71	20888.09
772.9	20634.14
773.09	21557.77
773.281	21551.63
773.471	21008.92
773.661	21135.89
773.851	21373.46
774.041	21109.27
774.231	20906.52
774.421	21185.04
774.611	21645.84
774.802	21195.28
774.992	20998.68
775.182	20820.5
775.372	21295.63
775.562	21383.7
775.752	20757.02
775.942	20894.23
776.131	21584.4
776.321	21262.86
776.511	20896.28
776.701	20656.67
776.891	20877.85
777.081	20836.89
777.271	20458.01
777.461	20644.38
777.651	20492.83
777.84	20955.67
778.03	20378.14
778.22	20214.3
778.41	21082.64
778.599	20693.53
778.789	20296.22
778.979	20279.84
779.169	20580.89
779.358	20380.19
779.548	20800.02
779.738	20089.38
779.927	20539.93
780.117	20408.86
780.307	20300.32
780.496	20419.1
780.686	20421.15
780.875	20918.81
781.065	20191.78
781.254	20075.04
781.444	20240.93
781.633	20216.35
781.823	20019.75
782.012	20048.42
782.202	19894.82
782.391	20148.77
782.581	19606.06
782.77	20011.56
782.96	20537.88
783.149	20300.32
783.338	19782.18
783.528	19741.22
783.717	20134.43
783.906	20288.03
784.096	19696.17
784.285	19604.01
784.474	19827.24
784.663	19814.95
784.853	19638.83
785.042	19712.55
785.231	19704.36
785.42	20197.92
785.61	19448.36
785.799	19362.35
785.988	19610.15
786.177	19571.24
786.366	19362.35
786.555	19495.47
786.744	19929.64
786.933	19644.97
787.122	19264.05
787.312	19382.83
787.501	19358.25
787.69	19679.79
787.879	19497.52
788.068	19157.55
788.257	18991.67
788.445	19429.93
788.634	19407.41
788.823	19087.92
789.012	20023.84
789.201	19610.15
789.39	19120.69
789.579	18516.54
789.768	19028.53
789.957	19380.78
790.145	19184.18
790.334	18872.89
790.523	19227.18
790.712	19151.41
790.9	19311.15
791.089	18733.62
791.278	19477.04
791.467	19235.38
791.655	19370.54
791.844	19382.83
792.033	18700.86
792.221	18860.6
792.41	18637.37
792.599	18772.53
792.787	18997.81
792.976	19001.91
793.164	18745.91
793.353	18811.45
793.541	19198.51
793.73	19036.72
793.918	18627.13
794.107	18180.67
794.295	18631.23
794.484	18623.03
794.672	18575.93
794.861	18254.4
795.049	18848.31
795.238	19161.65
795.426	18393.66
795.614	18555.45
795.803	18864.69
795.991	18823.73
796.179	18229.82
796.368	18299.45
796.556	18909.75
796.744	18393.66
796.932	18674.23
797.121	18168.38
797.309	18438.72
797.497	18825.78
797.685	18184.77
797.874	18209.34
798.062	18430.52
798.25	18696.76
798.438	18381.37
798.626	18082.37
798.814	18756.15
799.002	18854.45
799.19	18438.72
799.378	18375.23
799.566	18690.62
799.755	18807.35
799.943	18172.48
800.131	18029.12
800.318	18582.07
800.506	18688.57
800.694	18266.69
800.882	18307.65
801.07	18788.92
801.258	18364.99
801.446	18199.1
801.634	18252.35
801.822	18313.79
802.01	18463.29
802.197	18074.18
802.385	18221.63
802.573	18381.37
802.761	18614.84
802.949	18203.2
803.136	18119.23
803.324	18813.49
803.512	18457.15
803.699	18285.12
803.887	18162.24
804.075	18659.9
804.262	18152
804.45	18182.72
804.638	18123.33
804.825	18266.69
805.013	18104.9
805.201	18235.97
805.388	18307.65
805.576	18577.98
805.763	18965.04
805.951	18373.18
806.138	18352.7
806.326	19233.33
806.513	18717.24
806.701	18534.97
806.888	18518.59
807.075	18817.59
807.263	18917.94
807.45	18485.82
807.638	18283.07
807.825	19071.54
808.012	18709.05
808.2	18577.98
808.387	19061.3
808.574	18989.62
808.761	18913.84
808.949	18338.37
809.136	18362.94
809.323	18557.5
809.51	18428.48
809.698	18559.55
809.885	18367.04
810.072	18971.19
810.259	19003.96
810.446	18371.13
810.633	18680.38
810.82	19216.94
811.008	19110.45
811.195	18727.48
811.382	18494.01
811.569	18975.28
811.756	18446.91
811.943	18606.65
812.13	18510.39
812.317	18676.28
812.504	19016.24
812.691	18760.25
812.878	18694.71
813.064	19274.29
813.251	18942.52
813.438	18451
813.625	18594.36
813.812	18641.46
813.999	19116.59
814.186	18762.3
814.372	18704.95
814.559	18801.21
814.746	19094.07
814.933	18319.93
815.12	18649.66
815.306	18582.07
815.493	18475.58
815.68	18768.44
815.866	18545.21
816.053	19153.46
816.24	19233.33
816.426	18872.89
816.613	18340.41
816.799	19016.24
816.986	19069.49
817.173	18420.28
817.359	18197.06
817.546	18721.34
817.732	18403.9
817.919	17969.73
818.105	18614.84
818.292	18788.92
818.478	19028.53
818.665	18653.75
818.851	18315.84
819.037	19163.7
819.224	18836.02
819.41	17904.2
819.597	18174.53
819.783	19132.98
819.969	18856.5
820.156	18192.96
820.342	18305.6
820.528	19200.56
820.714	18264.64
820.901	18743.86
821.087	18174.53
821.273	18999.86
821.459	18481.72
821.646	18381.37
821.832	18254.4
822.018	18799.16
822.204	18446.91
822.39	18055.75
822.576	17891.91
822.762	18674.23
822.948	18367.04
823.134	18287.17
823.32	18221.63
823.507	18303.55
823.693	18444.86
823.879	18481.72
824.065	17603.14
824.25	17992.26
824.436	17955.4
824.622	17869.38
824.808	17689.16
824.994	17902.15
825.18	17949.25
825.366	17713.74
825.552	17590.86
825.738	18188.86
825.923	18336.32
826.109	18068.03
826.295	17533.51
826.481	17900.1
826.667	17850.95
826.852	17869.38
827.038	17547.85
827.224	18352.7
827.409	18424.38
827.595	17572.43
827.781	17764.93
827.966	18192.96
828.152	18162.24
828.338	17467.98
828.523	17283.66
828.709	17582.67
828.894	17955.4
829.08	17609.29
829.266	17703.5
829.451	17736.26
829.637	17994.31
829.822	17687.11
830.008	17582.67
830.193	17949.25
830.378	18213.44
830.564	17482.31
830.749	17195.6
830.935	17773.13
831.12	17592.9
831.305	17279.57
831.491	17496.65
831.676	17338.96
831.861	17695.3
832.047	17455.69
832.232	17283.66
832.417	17783.37
832.602	17461.83
832.788	17064.53
832.973	17199.69
833.158	17410.64
833.343	17236.56
833.528	17152.59
833.714	17257.04
833.899	17439.31
834.084	17959.49
834.269	17668.68
834.454	17154.64
834.639	17396.3
834.824	17349.2
835.009	17117.78
835.194	17076.82
835.379	17259.09
835.564	17418.83
835.749	16853.59
835.934	16628.31
836.119	17201.74
836.304	16929.36
836.489	16796.25
836.674	16898.64
836.859	16556.63
837.044	17496.65
837.228	16896.6
837.413	16788.05
837.598	17089.1
837.783	17361.48
837.968	16587.35
838.152	16374.36
838.337	16255.58
838.522	17144.4
838.707	17242.7
838.891	16751.19
839.076	16829.01
839.261	17019.47
839.445	16732.76
839.63	16777.81
839.815	17121.87
839.999	16683.61
840.184	16515.67
840.368	16626.26
840.553	16626.26
840.737	16730.71
840.922	16327.26
841.106	16384.6
841.291	16464.47
841.475	16468.57
841.66	16310.88
841.844	16257.63
842.029	17447.5
842.213	16013.92
842.397	16233.05
842.582	15975.01
842.766	16829.01
842.951	16740.95
843.135	16306.78
843.319	16073.31
843.504	16433.75
843.688	16599.64
843.872	15831.65
844.056	16030.3
844.241	16370.27
844.425	16003.68
844.609	16099.94
844.793	15678.05
844.977	16290.4
845.161	16046.69
845.346	15729.25
845.53	15612.52
845.714	15888.99
845.898	16212.57
846.082	15755.88
846.266	15563.37
846.45	16038.5
846.634	16132.7
846.818	15651.43
847.002	15993.44
847.186	16200.29
847.37	15821.41
847.554	15391.34
847.738	15450.73
847.922	15895.14
848.106	16044.64
848.29	15530.6
848.473	15657.57
848.657	15815.27
848.841	15759.97
849.025	15444.59
849.209	15108.72
849.392	16026.21
849.576	15747.69
849.76	14887.54
849.944	15589.99
850.127	15882.85
850.311	15059.57
850.495	15219.31
850.678	15069.81
850.862	16142.94
851.046	16091.74
851.229	15534.7
851.413	14760.56
851.596	15364.71
851.78	15393.39
851.964	15309.42
852.147	15354.48
852.331	15809.12
852.514	15989.35
852.698	15286.89
852.881	14944.88
853.065	15471.21
853.248	15092.34
853.431	15182.45
853.615	14930.55
853.798	15594.09
853.982	15352.43
854.165	15065.71
854.348	14865.01
854.532	15049.33
854.715	15149.68
854.898	14811.76
855.081	14848.63
855.265	15145.58
855.448	15536.74
855.631	14387.83
855.814	14645.88
855.997	15180.4
856.181	14785.14
856.364	14654.07
856.547	14324.35
856.73	14811.76
856.913	14985.84
857.096	14471.8
857.279	14596.73
857.462	14666.36
857.645	14836.34
857.828	14733.94
858.011	14533.24
858.194	14492.28
858.377	14987.89
858.56	14355.07
858.743	14465.66
858.926	14547.58
859.109	14715.51
859.292	14383.74
859.475	14318.2
859.658	15153.77
859.841	14656.12
860.023	14158.46
860.206	14072.45
860.389	14557.82
860.572	14779
860.755	14109.31
860.937	14084.73
861.12	14334.59
861.303	14359.16
861.486	14207.61
861.668	13900.42
861.851	14336.63
862.034	14426.75
862.216	14293.63
862.399	13857.41
862.581	14369.4
862.764	14434.94
862.947	14080.64
863.129	13646.47
863.312	13714.05
863.494	14566.01
863.677	13736.58
863.859	13570.69
864.042	14189.18
864.224	14142.08
864.406	13812.35
864.589	13374.09
864.771	13945.47
864.954	13466.25
865.136	13636.23
865.318	13548.17
865.501	13933.18
865.683	13329.03
865.865	13613.7
866.048	13533.83
866.23	13853.31
866.412	13537.93
866.594	13546.12
866.777	13496.97
866.959	13902.47
867.141	13372.04
867.323	13714.05
867.505	13458.06
867.687	13582.98
867.869	13689.48
868.052	13548.17
868.234	13204.11
868.416	13609.61
868.598	13847.17
868.78	13247.12
868.962	13288.07
869.144	13795.97
869.326	13830.79
869.508	13318.79
869.69	13261.45
869.872	13310.6
870.054	13613.7
870.236	13122.19
870.417	13105.81
870.599	13337.23
870.781	13865.6
870.963	13566.6
871.145	13296.27
871.327	13195.92
871.508	13539.97
871.69	13128.33
871.872	13070.99
872.054	13376.14
872.235	13488.78
872.417	13300.36
872.599	13030.03
872.78	14011.01
872.962	13533.83
873.144	12735.12
873.325	13161.1
873.507	13714.05
873.689	13105.81
873.87	13046.41
874.052	13210.25
874.233	13421.19
874.415	13974.14
874.596	13111.95
874.778	13068.94
874.959	13621.89
875.141	13523.59
875.322	13091.47
875.503	12835.47
875.685	13386.38
875.866	13062.8
876.048	12919.44
876.229	13146.76
876.41	13384.33
876.592	13216.4
876.773	13230.73
876.954	12696.21
877.136	13474.44
877.317	13220.49
877.498	13011.6
877.679	13122.19
877.86	13353.61
878.042	13232.78
878.223	13197.96
878.404	13433.48
878.585	13531.78
878.766	13681.28
878.947	13566.6
879.128	13460.1
879.309	13576.84
879.49	13699.72
879.672	13197.96
879.853	13224.59
880.034	13306.51
880.215	13376.14
880.396	13615.75
880.576	13486.73
880.757	13435.53
880.938	13767.3
881.119	13339.27
881.3	13419.14
881.481	13523.59
881.662	14637.69
881.843	12937.87
882.023	13318.79
882.204	13916.8
882.385	13845.12
882.566	13187.72
882.747	13456.01
882.927	13619.85
883.108	13748.87
883.289	13431.43
883.469	13652.61
883.65	13644.42
883.831	13654.66
884.011	13795.97
884.192	13548.17
884.373	14234.24
884.553	14097.02
884.734	13617.8
884.914	14021.25
885.095	14748.28
885.275	14432.89
885.456	14078.59
885.636	13578.89
885.817	14209.66
885.997	14092.93
886.178	13728.39
886.358	13949.57
886.538	14064.25
886.719	14926.45
886.899	13574.79
887.08	14264.96
887.26	14338.68
887.44	13722.24
887.621	14013.06
887.801	14019.2
887.981	14998.13
888.161	14363.26
888.342	14080.64
888.522	13890.18
888.702	14379.64
888.882	14637.69
889.062	14080.64
889.242	13656.71
889.423	14412.41
889.603	14305.92
889.783	14154.37
889.963	14039.68
890.143	14457.46
890.323	14457.46
890.503	13892.23
890.683	14111.36
890.863	14279.29
891.043	14418.55
891.223	14076.54
891.403	14062.21
891.583	14119.55
891.763	13941.38
891.943	13787.78
892.122	13800.07
892.302	14232.19
892.482	13902.47
892.662	13902.47
892.842	13648.52
893.022	14072.45
893.201	13945.47
893.381	14058.11
893.561	13982.34
893.741	14168.7
893.92	14207.61
894.1	13779.59
894.28	14045.82
894.459	14301.82
894.639	14127.74
894.819	13929.09
894.998	14015.1
895.178	14393.98
895.357	14224
895.537	13763.2
895.716	13759.11
895.896	14228.09
896.075	14416.51
896.255	13845.12
896.434	13660.8
896.614	14404.22
896.793	14176.89
896.973	13871.75
897.152	13531.78
897.331	13937.28
897.511	14209.66
897.69	13554.31
897.87	13714.05
898.049	14043.78
898.228	14146.17
898.407	13712
898.587	13582.98
898.766	13597.32
898.945	13795.97
899.124	13535.88
899.304	13695.62
899.483	13654.66
899.662	13910.66
899.841	13357.71
900.02	13058.7
900.199	13724.29
900.378	13531.78
900.557	13314.7
900.737	12702.36
900.916	13433.48
901.095	13558.41
901.274	13249.16
901.453	12806.8
901.632	12765.84
901.811	13111.95
901.989	12884.62
902.168	12559
902.347	13333.13
902.526	12966.54
902.705	12583.57
902.884	12741.27
903.063	13200.01
903.242	13107.85
903.42	12493.46
903.599	12669.59
903.778	13064.85
903.957	12890.77
904.135	12681.88
904.314	12499.61
904.493	12724.88
904.672	12622.48
904.85	12321.43
905.029	12366.49
905.207	12401.3
905.386	13218.44
905.565	12042.91
905.743	12151.45
905.922	12012.19
906.1	12522.13
906.279	11774.63
906.457	11629.22
906.636	12075.68
906.814	11917.98
906.993	11694.75
907.171	11549.35
907.35	11999.9
907.528	12083.87
907.707	11745.95
907.885	11369.13
908.063	11928.22
908.242	11569.83
908.42	11410.09
908.598	11113.13
908.777	11530.92
908.955	11467.43
909.133	11449
909.311	11078.32
909.49	11545.25
909.668	11580.07
909.846	11479.72
910.024	11098.8
910.202	11674.28
910.38	11731.62
910.559	11106.99
910.737	11504.29
910.915	11874.98
911.093	11881.12
911.271	11532.97
911.449	11754.15
911.627	12012.19
911.805	12309.15
911.983	11661.99
912.161	11606.69
912.339	12108.44
912.517	12515.99
912.695	11891.36
912.872	11797.15
913.05	11950.75
913.228	11907.74
913.406	11713.19
913.584	11541.16
913.762	12243.61
913.939	11905.7
914.117	11842.21
914.295	11793.06
914.473	12233.37
914.65	12126.88
914.828	11788.96
915.006	11664.04
915.184	11737.76
915.361	12114.59
915.539	11901.6
915.716	11879.07
915.894	12214.94
916.072	12102.3
916.249	11784.87
916.427	11920.03
916.604	11846.3
916.782	11999.9
916.959	11514.53
917.137	11733.67
917.314	11864.74
917.492	12085.92
917.669	11815.59
917.847	11694.75
918.024	11866.78
918.201	11371.18
918.379	11537.06
918.556	11455.14
918.733	11981.47
918.911	11590.31
919.088	11602.6
919.265	11483.81
919.442	11680.42
919.62	11502.25
919.797	11356.84
919.974	11203.24
920.151	11563.68
920.328	11434.66
920.506	11186.86
920.683	11549.35
920.86	11215.53
921.037	11276.97
921.214	11156.14
921.391	11164.33
921.568	11678.37
921.745	11090.6
921.922	11127.47
922.099	11053.74
922.276	11635.36
922.453	11274.92
922.63	11113.13
922.807	11160.24
922.984	11139.76
923.161	10738.35
923.338	10842.8
923.514	10758.83
923.691	11125.42
923.868	11184.81
924.045	10824.37
924.222	10926.77
924.399	10803.89
924.575	11199.15
924.752	10595
924.929	10709.68
925.105	11156.14
925.282	10537.65
925.459	10427.06
925.635	10595
925.812	10734.26
925.989	10752.69
926.165	10535.6
926.342	10441.4
926.518	10355.38
926.695	10578.61
926.871	10447.54
927.048	10156.73
927.224	10832.56
927.401	10463.93
927.577	10361.53
927.754	10089.15
927.93	10689.2
928.107	10517.17
928.283	10156.73
928.459	10353.34
928.636	10451.64
928.812	10470.07
928.988	9982.65
929.165	9788.1
929.341	10193.59
929.517	10263.22
929.693	10134.2
929.87	9730.75
930.046	10031.8
930.222	9982.65
930.398	9743.04
930.574	9910.97
930.751	9839.3
930.927	9720.51
931.103	9714.37
931.279	9767.62
931.455	9583.3
931.631	9892.54
931.807	9056.97
931.983	9505.48
932.159	9341.64
932.335	9679.55
932.511	9519.81
932.687	9407.17
932.863	9558.72
933.039	9169.61
933.215	9091.79
933.391	8968.91
933.566	9269.96
933.742	9243.34
933.918	8860.37
934.094	8620.75
934.27	9147.08
934.445	9042.64
934.621	8700.62
934.797	8446.68
934.973	8903.37
935.148	8717.01
935.324	8262.36
935.5	7944.92
935.675	8610.51
935.851	8262.36
936.027	7875.29
936.202	7873.25
936.378	8073.95
936.553	7930.59
936.729	8028.89
936.904	7547.62
937.08	7351.01
937.255	7346.92
937.431	7064.3
937.606	7146.22
937.782	6968.04
937.957	7142.12
938.133	6929.13
938.308	6587.12
938.483	6914.8
938.659	6343.41
938.834	6535.92
939.009	6318.84
939.185	6376.18
939.36	6187.77
939.535	5901.05
939.71	6220.53
939.886	6501.11
940.061	6155
940.236	5907.2
940.411	5966.59
940.586	6222.58
940.761	6152.95
940.937	5956.35
941.112	5497.6
941.287	5845.76
941.462	5667.58
941.637	5432.07
941.812	5372.68
941.987	5640.96
942.162	5567.23
942.337	5417.73
942.512	5323.52
942.687	5790.46
942.862	5669.63
943.037	5180.17
943.212	4764.43
943.386	5233.41
943.561	5313.28
943.736	5440.26
943.911	5413.63
944.086	5643.01
944.26	5368.58
944.435	5212.93
944.61	5247.75
944.785	5616.38
944.959	5690.11
945.134	5122.82
945.309	4973.32
945.483	5176.07
945.658	5583.62
945.833	4856.59
946.007	5024.52
946.182	5724.93
946.357	5124.87
946.531	5245.7
946.706	5094.15
946.88	4934.41
947.055	5556.99
947.229	5059.34
947.404	5151.49
947.578	5686.01
947.752	5309.19
947.927	5032.71
948.101	4983.56
948.276	5464.83
948.45	5503.75
948.624	5491.46
948.799	5149.45
948.973	5726.97
949.147	5176.07
949.321	5522.18
949.496	5311.24
949.67	5825.28
949.844	5565.18
950.018	5460.74
950.193	5360.39
950.367	5987.07
950.541	5542.66
950.715	5552.9
950.889	5581.57
951.063	5583.62
951.237	5964.54
951.411	5323.52
951.585	5157.64
951.759	5708.54
951.933	5589.76
952.107	5384.96
952.281	5473.03
952.455	5956.35
952.629	6126.33
952.803	5634.82
952.977	5436.16
953.151	5946.11
953.325	5927.67
953.499	5800.7
953.672	5362.44
953.846	5671.68
954.02	5892.86
954.194	5495.55
954.368	5606.14
954.541	5933.82
954.715	5714.69
954.889	5815.04
955.062	5534.46
955.236	6062.84
955.41	5892.86
955.583	5917.44
955.757	5542.66
955.93	5888.76
956.104	5698.3
956.278	5860.09
956.451	5810.94
956.625	6103.8
956.798	6445.81
956.972	6044.41
957.145	5708.54
957.319	6185.72
957.492	6105.85
957.665	5954.3
957.839	5942.01
958.012	5950.2
958.185	5909.24
958.359	5827.32
958.532	6130.42
958.705	6179.58
958.879	6238.97
959.052	5937.91
959.225	5681.92
959.398	6099.7
959.572	6109.94
959.745	5864.19
959.918	6079.22
960.091	6054.65
960.264	6236.92
960.438	5647.1
960.611	5749.5
960.784	6355.7
960.957	5858.04
961.13	6292.21
961.303	5812.99
961.476	6068.98
961.649	6146.81
961.822	5835.52
961.995	5970.68
962.168	6083.32
962.341	6222.58
962.514	5847.8
962.686	5726.97
962.859	6003.45
963.032	6234.87
963.205	5843.71
963.378	5626.62
963.551	6001.4
963.723	5962.49
963.896	5802.75
964.069	5858.04
964.242	6163.19
964.414	6155
964.587	5847.8
964.76	5815.04
964.932	6128.38
965.105	6005.5
965.278	5896.96
965.45	5919.48
965.623	5876.48
965.795	6220.53
965.968	5722.88
966.14	5741.31
966.313	5878.52
966.485	5880.57
966.658	5640.96
966.83	5579.52
967.003	6245.11
967.175	6060.79
967.348	5753.6
967.52	5735.17
967.692	6392.56
967.865	6042.36
968.037	5798.65
968.209	5808.89
968.382	6030.07
968.554	6130.42
968.726	5802.75
968.898	5585.66
969.071	5939.96
969.243	5858.04
969.415	5649.15
969.587	5733.12
969.759	6472.43
969.932	5851.9
970.104	5511.94
970.276	5239.56
970.448	5452.55
970.62	5784.32
970.792	5647.1
970.964	5606.14
971.136	6343.41
971.308	5858.04
971.48	5466.88
971.652	5509.89
971.824	6175.48
971.996	5542.66
972.168	5612.29
972.339	5614.34
972.511	6032.12
972.683	5606.14
972.855	5755.65
973.027	5294.85
973.199	5622.53
973.37	5673.73
973.542	5538.56
973.714	5520.13
973.886	5563.14
974.057	5860.09
974.229	5298.95
974.401	5356.29
974.572	5245.7
974.744	5020.42
974.915	5286.66
975.087	5176.07
975.259	5804.8
975.43	5546.75
975.602	5151.49
975.773	4934.41
975.945	5204.74
976.116	5665.53
976.288	5167.88
976.459	5427.97
976.63	5315.33
976.802	5430.02
976.973	5137.16
977.145	5235.46
977.316	5845.76
977.487	5753.6
977.659	5303.04
977.83	5141.25
978.001	5595.9
978.172	5430.02
978.344	5061.38
978.515	5214.98
978.686	5200.65
978.857	5565.18
979.028	4995.85
979.2	4954.89
979.371	5538.56
979.542	5229.32
979.713	5049.1
979.884	4498.19
980.055	5030.66
980.226	5311.24
980.397	4823.82
980.568	4576.02
980.739	5436.16
980.91	5008.14
981.081	4956.94
981.252	4844.3
981.423	5251.85
981.594	5481.22
981.765	4766.48
981.936	4928.27
982.106	5141.25
982.277	5378.82
982.448	4766.48
982.619	5001.99
982.79	4905.74
982.96	5202.69
983.131	4733.71
983.302	4469.52
983.472	4805.39
983.643	4893.45
983.814	4774.67
983.984	4590.35
984.155	4698.89
984.326	5161.73
984.496	4756.24
984.667	4516.62
984.837	4684.56
985.008	5098.25
985.178	4627.21
985.349	4567.82
985.519	4754.19
985.69	4629.26
985.86	4565.78
986.031	4283.16
986.201	4557.58
986.371	4813.58
986.542	4340.5
986.712	4244.24
986.882	4586.26
987.053	4774.67
987.223	4274.96
987.393	4406.03
987.563	4377.36
987.734	4702.99
987.904	4553.49
988.074	4385.55
988.244	4518.67
988.414	4436.75
988.585	4182.81
988.755	4236.05
988.925	4418.32
989.095	4653.84
989.265	4209.43
989.435	4246.29
989.605	4498.19
989.775	4463.38
989.945	4514.58
990.115	3910.43
990.285	4262.68
990.455	4311.83
990.625	4102.93
990.795	3990.3
990.965	4516.62
991.134	3926.81
991.304	4037.4
991.474	3881.75
991.644	4150.04
991.814	4471.57
991.984	3808.03
992.153	3863.32
992.323	3994.39
992.493	3992.34
992.662	3541.79
992.832	4025.11
993.002	4176.66
993.171	4031.26
993.341	3623.71
993.511	3935
993.68	3838.75
993.85	4021.02
994.019	3603.23
994.189	3713.82
994.358	4037.4
994.528	3836.7
994.697	3521.31
994.867	3605.28
995.036	4010.78
995.206	3975.96
995.375	3525.41
995.544	3744.54
995.714	3887.9
995.883	3713.82
996.052	3660.57
996.222	3361.57
996.391	4223.76
996.56	3715.87
996.73	3375.91
996.899	3386.15
997.068	3967.77
997.237	3633.95
997.406	3384.1
997.576	3334.95
997.745	3756.83
997.914	3650.33
998.083	3203.88
998.252	3267.36
998.421	3519.26
998.59	3316.51
998.759	3253.03
998.928	3068.71
999.097	3867.42
999.266	3613.47
999.435	3250.98
999.604	3050.28
999.773	3961.62
999.942	3425.06
1000.111	3048.23
1000.28	2972.46
1000.448	3203.88
1000.617	3132.2
1000.786	3179.3
1000.955	2986.79
1001.124	3521.31
1001.292	3918.62
1001.461	2992.94
1001.63	3025.7
1001.798	3662.62
1001.967	3584.8
1002.136	2724.65
1002.304	2816.81
1002.473	3521.31
1002.642	3289.89
1002.81	3029.8
1002.979	2935.59
1003.147	3384.1
1003.316	3789.6
1003.484	2894.63
1003.653	2812.71
1003.821	3402.53
1003.99	3158.82
1004.158	3048.23
1004.327	2884.39
1004.495	3341.09
1004.663	2933.54
1004.832	2937.64
1005	2704.17
1005.168	3197.73
1005.337	3013.42
1005.505	2605.87
1005.673	2949.93
1005.842	3126.05
1006.01	3216.16
1006.178	2646.83
1006.346	2786.09
1006.514	2956.07
1006.683	3197.73
1006.851	2605.87
1007.019	2675.5
1007.187	2714.41
1007.355	2472.75
1007.523	2554.67
1007.691	2460.46
1007.859	2476.85
1008.027	3164.97
1008.195	2519.85
1008.363	2421.55
1008.531	2984.74
1008.699	2532.14
1008.867	2442.03
1009.035	2468.66
1009.203	2968.36
1009.37	2855.72
1009.538	2364.21
1009.706	2786.09
1009.874	2810.67
1010.042	2618.16
1010.209	2173.75
1010.377	2245.43
1010.545	2913.06
1010.713	2698.03
1010.88	2280.24
1011.048	2384.69
1011.216	2468.66
1011.383	2906.92
1011.551	2210.61
1011.718	2310.96
1011.886	2747.18
1012.054	2485.04
1012.221	2097.97
1012.389	2149.17
1012.556	2622.25
1012.724	2941.74
1012.891	2216.76
1013.058	2028.34
1013.226	2612.01
1013.393	2724.65
1013.561	2081.59
1013.728	1891.13
1013.895	2597.68
1014.063	2446.13
1014.23	1866.55
1014.397	2024.25
1014.565	2501.42
1014.732	2177.84
1014.899	1809.21
1015.066	1850.17
1015.233	2370.35
1015.401	2407.22
1015.568	2067.25
1015.735	2091.83
1015.902	2190.13
1016.069	2347.83
1016.236	1973.05
1016.403	1927.99
1016.57	2052.92
1016.737	2308.91
1016.904	2001.72
1017.071	1676.09
1017.238	1997.62
1017.405	2394.93
1017.572	1854.27
1017.739	2026.29
1017.906	2169.65
1018.073	2198.32
1018.24	1663.8
1018.407	1815.35
1018.573	2401.07
1018.74	2020.15
1018.907	1829.69
1019.074	1588.03
1019.241	2188.08
1019.407	2044.73
1019.574	1676.09
1019.741	1643.32
1019.907	2034.49
1020.074	2173.75
1020.241	1403.71
1020.407	1481.53
1020.574	2177.84
1020.74	2071.35
1020.907	1657.66
1021.073	1489.73
1021.24	2249.52
1021.406	2214.71
1021.573	1420.1
1021.739	1633.08
1021.906	2001.72
1022.072	1813.31
1022.239	1532.73
1022.405	1604.41
1022.571	1952.57
1022.738	1622.84
1022.904	1467.2
1023.07	1557.31
1023.237	1774.39
1023.403	2063.16
1023.569	1495.87
1023.735	1520.45
1023.902	1848.12
1024.068	1909.56
1024.234	1372.99
1024.4	1477.44
1024.566	1985.34
1024.732	1977.14
1024.898	1399.62
1025.065	1278.79
1025.231	1758.01
1025.397	1698.62
1025.563	1426.24
1025.729	1362.75
1025.895	1321.79
1026.061	1551.17
1026.227	1196.87
1026.392	1438.53
1026.558	1848.12
1026.724	1731.39
1026.89	1266.5
1027.056	1403.71
1027.222	1776.44
1027.388	1571.65
1027.553	1291.07
1027.719	1055.56
1027.885	2048.82
1028.051	1772.35
1028.216	1182.53
1028.382	1241.92
1028.548	1717.05
1028.713	1563.45
1028.879	1172.29
1029.045	1368.9
1029.21	1977.14
1029.376	1766.2
1029.541	1370.94
1029.707	1301.31
1029.873	1694.52
1030.038	1735.48
1030.204	1211.2
1030.369	1252.16
1030.534	1635.13
1030.7	1446.72
1030.865	1229.63
1031.031	1043.27
1031.196	1588.03
1031.361	1532.73
1031.527	1123.14
1031.692	1073.99
1031.857	1176.39
1032.023	1708.86
1032.188	1047.37
1032.353	1133.38
1032.518	1872.7
1032.684	1432.38
1032.849	920.39
1033.014	1219.39
1033.179	1635.13
1033.344	1635.13
1033.509	1145.67
1033.674	1020.74
1033.839	1680.19
1034.004	1573.69
1034.17	1059.65
1034.335	922.44
1034.5	1379.14
1034.664	1209.15
1034.829	983.88
1034.994	1084.23
1035.159	1436.48
1035.324	1370.94
1035.489	1057.61
1035.654	967.49
1035.819	1678.14
1035.984	1440.58
1036.148	1121.09
1036.313	959.3
1036.478	1600.32
1036.643	1364.8
1036.807	869.19
1036.972	846.66
1037.137	1628.99
1037.301	1264.45
1037.466	820.04
1037.631	957.25
1037.795	1489.73
1037.96	1364.8
1038.124	1241.92
1038.289	791.37
1038.454	1352.51
1038.618	1254.21
1038.783	928.58
1038.947	1018.69
1039.111	1272.64
1039.276	1233.73
1039.44	834.38
1039.605	1342.27
1039.769	1190.72
1039.933	1133.38
1040.098	887.62
1040.262	1049.41
1040.426	1338.18
1040.591	1336.13
1040.755	754.51
1040.919	809.8
1041.083	1274.69
1041.248	1108.8
1041.412	676.68
1041.576	740.17
1041.74	1053.51
1041.904	1329.99
1042.068	742.22
1042.232	899.91
1042.397	1291.07
1042.561	1248.07
1042.725	506.7
1042.889	990.02
1043.053	1362.75
1043.217	1248.07
1043.381	828.23
1043.544	635.72
1043.708	1370.94
1043.872	832.33
1044.036	451.41
1044.2	566.09
1044.364	1198.92
1044.528	1407.81
1044.691	3846.94
1044.855	523.09
1045.019	1299.27
1045.183	1211.2
1045.346	811.85
1045.51	602.96
1045.674	1184.58
1045.837	1133.38
1046.001	629.58
1046.165	588.62
1046.328	1628.99
1046.492	1127.24
1046.655	867.14
1046.819	709.45
1046.983	918.34
1047.146	1125.19
1047.31	785.23
1047.473	443.21
1047.636	1055.56
1047.8	777.03
1047.963	717.64
1048.127	451.41
1048.29	803.66
