Data from Hydrogel_Ink_Intensity_Test_1_USB4F045381__7__00007.txt Node

Date: Mon Jul 31 10:36:30 EDT 2023
User: mmckonesweet
Spectrometer: USB4F04538
Trigger mode: 4
Integration Time (sec): 9.000000E-1
Scans to average: 1
Electric dark correction enabled: true
Nonlinearity correction enabled: false
Boxcar width: 0
XAxis mode: Wavelengths
Number of Pixels in Spectrum: 3648
>>>>>Begin Spectral Data<<<<<
345.52	-882.33
345.736	-882.33
345.952	-882.33
346.168	-1017.5
346.384	-870.05
346.6	-93.87
346.816	-298.66
347.032	-206.5
347.248	244.05
347.464	-54.95
347.68	-93.87
347.896	31.06
348.112	366.93
348.328	-71.34
348.544	-30.38
348.76	-77.48
348.975	285.01
349.191	-181.93
349.407	-91.82
349.623	108.88
349.839	41.3
350.055	61.78
350.27	133.46
350.486	242
350.702	475.47
350.918	325.97
351.133	-83.63
351.349	231.76
351.565	387.41
351.781	-124.58
351.996	137.56
352.212	463.18
352.428	-1.71
352.644	-20.14
352.859	-116.39
353.075	348.5
353.291	35.16
353.506	74.07
353.722	-77.48
353.938	117.08
354.153	461.13
354.369	194.9
354.584	-65.19
354.8	409.94
355.016	-239.27
355.231	-77.48
355.447	-22.19
355.662	196.95
355.878	962.89
356.093	-233.13
356.309	29.01
356.524	-145.06
356.74	311.63
356.955	16.73
357.171	45.4
357.386	225.62
357.602	-85.67
357.817	98.64
358.033	-48.81
358.248	475.47
358.464	276.82
358.679	-20.14
358.895	-122.54
359.11	47.44
359.325	393.55
359.541	323.92
359.756	172.37
359.972	-226.98
360.187	268.63
360.402	-50.86
360.618	-77.48
360.833	1005.89
361.048	198.99
361.264	-122.54
361.479	96.6
361.694	94.55
361.909	287.06
362.125	-61.1
362.34	80.21
362.555	428.37
362.77	231.76
362.986	-81.58
363.201	-9.9
363.416	258.39
363.631	137.56
363.847	55.64
364.062	-108.2
364.277	209.23
364.492	248.15
364.707	-57
364.922	-192.17
365.138	375.12
365.353	444.75
365.568	-110.25
365.783	16.73
365.998	182.61
366.213	680.27
366.428	-32.43
366.643	219.47
366.858	538.96
367.073	221.52
367.288	82.26
367.503	-147.11
367.718	207.19
367.933	409.94
368.148	-120.49
368.363	139.6
368.578	108.88
368.793	516.43
369.008	-1.71
369.223	-104.11
369.438	295.25
369.653	598.35
369.868	-110.25
370.083	-50.86
370.298	289.1
370.513	481.61
370.728	264.53
370.943	55.64
371.157	-57
371.372	653.64
371.587	-91.82
371.802	-106.15
372.017	305.49
372.232	545.1
372.446	123.22
372.661	-116.39
372.876	442.7
373.091	352.59
373.306	108.88
373.52	22.87
373.735	43.35
373.95	588.11
374.165	141.65
374.379	12.63
374.594	4.44
374.809	192.85
375.023	233.81
375.238	37.2
375.453	475.47
375.667	29.01
375.882	100.69
376.097	4.44
376.311	285.01
376.526	135.51
376.741	-44.71
376.955	364.88
377.17	797
377.384	667.98
377.599	100.69
377.813	-38.57
378.028	678.22
378.242	401.74
378.457	260.43
378.672	-143.02
378.886	346.45
379.101	233.81
379.315	-106.15
379.53	86.36
379.744	422.22
379.958	375.12
380.173	115.03
380.387	123.22
380.602	332.11
380.816	84.31
381.031	82.26
381.245	248.15
381.459	434.51
381.674	2609.45
381.888	49.49
382.103	352.59
382.317	41.3
382.531	774.47
382.746	196.95
382.96	115.03
383.174	192.85
383.388	622.92
383.603	297.3
383.817	78.16
384.031	416.08
384.246	717.13
384.46	285.01
384.674	487.76
384.888	274.77
385.103	274.77
385.317	18.77
385.531	325.97
385.745	608.59
385.959	620.88
386.174	188.75
386.388	45.4
386.602	317.78
386.816	151.89
387.03	229.71
387.244	268.63
387.458	385.36
387.672	667.98
387.887	110.93
388.101	4.44
388.315	729.42
388.529	454.99
388.743	254.29
388.957	121.17
389.171	618.83
389.385	127.32
389.599	278.87
389.813	420.17
390.027	416.08
390.241	930.12
390.455	270.67
390.669	360.78
390.883	362.83
391.097	715.08
391.311	381.26
391.525	133.46
391.738	485.71
391.952	536.91
392.166	346.45
392.38	215.38
392.594	721.23
392.808	684.36
393.022	317.78
393.236	344.4
393.449	610.64
393.663	530.77
393.877	137.56
394.091	356.69
394.305	303.44
394.518	235.86
394.732	133.46
394.946	274.77
395.16	915.78
395.373	471.37
395.587	270.67
395.801	301.39
396.015	674.12
396.228	674.12
396.442	188.75
396.656	145.75
396.869	747.85
397.083	784.71
397.297	426.32
397.51	352.59
397.724	825.67
397.938	631.12
398.151	203.09
398.365	272.72
398.578	692.55
398.792	923.98
399.005	467.28
399.219	414.03
399.433	688.46
399.646	700.75
399.86	547.15
400.073	520.53
400.287	713.03
400.5	528.72
400.714	551.24
400.927	473.42
401.141	706.89
401.354	1573.18
401.567	733.51
401.781	289.1
401.994	809.29
402.208	1151.3
402.421	506.19
402.635	500.05
402.848	612.68
403.061	807.24
403.275	627.02
403.488	403.79
403.701	1079.62
403.915	842.06
404.128	608.59
404.341	500.05
404.555	715.08
404.768	508.24
404.981	737.61
405.195	483.66
405.408	1079.62
405.621	850.25
405.834	661.84
406.048	506.19
406.261	1034.57
406.474	1108.29
406.687	502.09
406.9	690.51
407.114	651.6
407.327	880.97
407.54	493.9
407.753	428.37
407.966	598.35
408.179	971.08
408.392	581.96
408.605	553.29
408.819	919.88
409.032	860.49
409.245	586.06
409.458	876.87
409.671	887.11
409.884	1085.76
410.097	481.61
410.31	809.29
410.523	887.11
410.736	778.57
410.949	663.88
411.162	680.27
411.375	1225.03
411.588	1128.77
411.801	901.45
412.014	571.72
412.227	868.68
412.44	799.05
412.653	645.45
412.865	827.72
413.078	1032.52
413.291	960.84
413.504	803.15
413.717	715.08
413.93	944.45
414.143	797
414.356	776.52
414.568	586.06
414.781	1120.58
414.994	1061.19
415.207	860.49
415.42	803.15
415.632	1175.88
415.845	1478.97
416.058	682.31
416.271	667.98
416.483	1020.23
416.696	1433.92
416.909	719.18
417.121	751.95
417.334	1112.39
417.547	1468.73
417.759	819.53
417.972	856.39
418.185	1075.52
418.397	1206.59
418.61	803.15
418.823	846.15
419.035	1505.6
419.248	1114.44
419.46	930.12
419.673	1112.39
419.885	1153.35
420.098	1020.23
420.311	989.51
420.523	846.15
420.736	1270.08
420.948	1225.03
421.161	944.45
421.373	825.67
421.586	1204.55
421.798	1050.95
422.01	840.01
422.223	1149.25
422.435	1022.28
422.648	1368.38
422.86	1003.85
423.073	962.89
423.285	1493.31
423.497	964.93
423.71	1057.09
423.922	1102.15
424.134	1468.73
424.347	1542.46
424.559	1376.58
424.771	1476.93
424.984	1165.64
425.196	1356.1
425.408	876.87
425.621	1040.71
425.833	1614.14
426.045	1714.49
426.257	1110.34
426.47	1169.73
426.682	1442.11
426.894	1476.93
427.106	1349.95
427.318	1306.95
427.531	1233.22
427.743	1587.52
427.955	1290.56
428.167	1626.43
428.379	1605.95
428.591	1395.01
428.804	1356.1
429.016	1218.88
429.228	1409.34
429.44	1589.57
429.652	1511.74
429.864	1102.15
430.076	1530.17
430.288	1497.41
430.5	1354.05
430.712	1589.57
430.924	1737.02
431.136	1585.47
431.348	1190.21
431.56	1421.63
431.772	1534.27
431.984	1538.37
432.196	1460.54
432.408	1575.23
432.62	1614.14
432.832	1777.98
433.044	1786.17
433.256	1663.29
433.468	1847.61
433.679	1444.16
433.891	1560.89
434.103	1816.89
434.315	2095.41
434.527	1892.66
434.739	1593.66
434.95	1771.83
435.162	2115.89
435.374	1747.26
435.586	1605.95
435.798	1724.73
436.009	1542.46
436.221	1902.9
436.433	1696.06
436.645	1763.64
436.856	1741.11
437.068	2163
437.28	1751.35
437.491	1982.78
437.703	2271.54
437.915	2015.54
438.126	1882.42
438.338	2087.22
438.55	2128.18
438.761	2197.81
438.973	1941.82
439.184	1851.71
439.396	2050.36
439.608	2234.68
439.819	1847.61
440.031	1999.16
440.242	2302.26
440.454	2171.19
440.665	2177.33
440.877	1999.16
441.088	2210.1
441.3	1980.73
441.511	1847.61
441.723	2029.88
441.934	2203.96
442.146	2343.22
442.357	2187.57
442.569	2314.55
442.78	2265.39
442.991	2720.04
443.203	2339.12
443.414	2023.73
443.626	2535.73
443.837	2074.93
444.048	2066.74
444.26	1943.86
444.471	2206
444.682	2464.05
444.894	1890.62
445.105	2015.54
445.316	2660.65
445.528	2478.38
445.739	2218.29
445.95	2289.97
446.161	2433.33
446.373	2703.66
446.584	2146.61
446.795	2187.57
447.006	2634.03
447.217	2756.91
447.429	2093.37
447.64	2173.24
447.851	2701.61
448.062	2586.93
448.273	2265.39
448.484	2289.97
448.695	2640.17
448.907	2398.51
449.118	2552.11
449.329	2570.54
449.54	2462
449.751	2382.13
449.962	2423.09
450.173	2416.94
450.384	2908.46
450.595	3029.29
450.806	2545.97
451.017	2554.16
451.228	2945.32
451.439	3029.29
451.65	2562.35
451.861	2335.03
452.072	2619.69
452.283	2851.11
452.494	2859.31
452.705	2640.17
452.915	3182.88
453.126	3113.25
453.337	2681.13
453.548	2687.28
453.759	3086.63
453.97	3367.2
454.181	2857.26
454.391	2750.76
454.602	3090.73
454.813	3170.6
455.024	2973.99
455.235	2844.97
455.445	3004.71
455.656	3324.19
455.867	3090.73
456.078	2953.51
456.288	2935.08
456.499	3375.39
456.71	2855.21
456.921	3254.56
457.131	3387.68
457.342	3336.48
457.553	3168.55
457.763	3158.31
457.974	3608.86
458.184	3543.33
458.395	3006.76
458.606	3197.22
458.816	3578.14
459.027	3918.11
459.237	3526.94
459.448	3156.26
459.659	3799.32
459.869	4026.65
460.08	3293.48
460.29	3596.57
460.501	4036.89
460.711	3707.16
460.922	3354.91
461.132	3645.73
461.343	4204.82
461.553	3596.57
461.764	3621.15
461.974	3602.72
462.184	4057.37
462.395	3895.58
462.605	3838.23
462.816	3545.38
463.026	3997.98
463.236	4370.71
463.447	3717.4
463.657	3901.72
463.867	4344.08
464.078	4215.06
464.288	4186.39
464.498	4251.92
464.709	4391.19
464.919	4294.93
465.129	4219.16
465.339	4258.07
465.55	4469.01
465.76	4686.09
465.97	4268.31
466.18	4178.2
466.391	4931.85
466.601	4864.27
466.811	4598.03
467.021	4442.39
467.231	5091.59
467.441	5062.92
467.651	4720.91
467.862	4571.41
468.072	5003.53
468.282	5329.16
468.492	4923.66
468.702	5026.06
468.912	5267.72
469.122	5851.39
469.332	5478.66
469.542	5091.59
469.752	5763.33
469.962	5458.18
470.172	5314.82
470.382	5374.21
470.592	5873.92
470.802	5943.55
471.012	5406.98
471.222	5538.05
471.432	6125.82
471.642	5972.22
471.852	6047.99
472.062	5835
472.272	6119.67
472.482	5714.17
472.691	5923.07
472.901	5730.56
473.111	6131.96
473.321	6959.34
473.531	6136.06
473.741	6316.28
473.95	6764.78
474.16	6742.25
474.37	6570.23
474.58	6529.27
474.79	7295.21
474.999	7196.9
475.209	6668.53
475.419	6854.89
475.628	7262.44
475.838	7567.59
476.048	7059.69
476.258	7141.61
476.467	7686.37
476.677	7475.43
476.886	7764.19
477.096	7770.33
477.306	7543.01
477.515	8028.38
477.725	7729.38
477.935	7672.03
478.144	8429.78
478.354	7903.45
478.563	8079.58
478.773	8192.22
478.982	8360.15
479.192	8667.35
479.401	8431.83
479.611	8173.78
479.82	8335.57
480.03	8624.34
480.239	8673.49
480.449	8581.33
480.658	9377.99
480.868	8878.29
481.077	8956.11
481.287	8921.29
481.496	9511.11
481.705	9711.81
481.915	9459.91
482.124	9552.07
482.333	9650.37
482.543	10080.44
482.752	9607.36
482.961	9810.11
483.171	10217.66
483.38	9959.61
483.589	10150.07
483.799	9918.65
484.008	10258.62
484.217	10592.44
484.426	10361.02
484.636	10209.47
484.845	10416.31
485.054	10279.1
485.263	10883.25
485.472	10612.92
485.682	11366.57
485.891	10883.25
486.1	10537.14
486.309	10879.15
486.518	11167.91
486.727	11565.22
486.936	11010.22
487.146	11184.3
487.355	11729.06
487.564	11278.51
487.773	11403.43
487.982	11391.14
488.191	11677.86
488.4	11999.39
488.609	11638.95
488.818	12026.01
489.027	12658.84
489.236	12558.49
489.445	12007.58
489.654	11888.8
489.863	12699.8
490.072	12509.33
490.281	12851.35
490.49	12552.34
490.698	13068.43
490.907	13158.54
491.116	12685.46
491.325	12673.17
491.534	13402.25
491.743	13011.09
491.952	12581.01
492.16	13228.17
492.369	13478.02
492.578	13650.05
492.787	13406.34
492.996	13455.5
493.204	13373.58
493.413	14114.94
493.622	13219.98
493.831	13363.34
494.039	14164.09
494.248	13535.37
494.457	13820.03
494.665	13860.99
494.874	14262.4
495.083	14694.52
495.291	14084.22
495.5	14047.36
495.709	14690.42
495.917	14366.84
496.126	14495.86
496.335	14415.99
496.543	14573.69
496.752	14618.74
496.96	14887.03
497.169	14618.74
497.377	14751.86
497.586	15462.51
497.794	14927.99
498.003	14659.7
498.211	15059.06
498.42	15773.8
498.628	15118.45
498.837	15210.61
499.045	15569
499.254	15474.79
499.462	15284.33
499.671	15695.97
499.879	16109.66
500.087	15882.34
500.296	15630.44
500.504	15933.54
500.713	15904.87
500.921	16693.33
501.129	15710.31
501.338	15904.87
501.546	16242.78
501.754	16334.94
501.962	15954.02
502.171	16035.94
502.379	16666.71
502.587	16652.38
502.795	16437.34
503.004	16130.14
503.212	16760.92
503.42	16920.66
503.628	16705.62
503.837	16666.71
504.045	17043.54
504.253	17420.36
504.461	17125.46
504.669	16447.58
504.877	17242.19
505.085	17680.46
505.294	17053.78
505.502	17156.18
505.71	17240.14
505.918	17469.51
506.126	17094.74
506.334	17166.42
506.542	17809.48
506.75	17735.75
506.958	17498.19
507.166	17682.5
507.374	17500.23
507.582	18571.32
507.79	17952.84
507.998	17946.69
508.206	18182.21
508.414	18190.4
508.622	17866.82
508.83	17967.17
509.037	18634.81
509.245	18044.99
509.453	18159.68
509.661	18022.47
509.869	18608.19
510.077	18194.5
510.285	18479.16
510.492	18288.7
510.7	19187.76
510.908	18516.03
511.116	18722.87
511.324	18415.68
511.531	18778.17
511.739	18776.12
511.947	18903.09
512.155	19337.26
512.362	18868.28
512.57	18591.8
512.778	18821.17
512.985	18892.85
513.193	19417.13
513.401	19492.91
513.608	18917.43
513.816	19079.22
514.024	19345.45
514.231	19521.58
514.439	18980.92
514.646	19386.41
514.854	19583.02
515.061	19572.78
515.269	19380.27
515.477	19687.46
515.684	19449.9
515.892	19941.41
516.099	19650.6
516.307	19535.92
516.514	20054.05
516.722	20312.1
516.929	19937.32
517.136	19671.08
517.344	20279.33
517.551	20037.67
517.759	19957.8
517.966	20289.57
518.173	19965.99
518.381	20353.05
518.588	19998.76
518.796	20105.25
519.003	20750.36
519.21	20609.05
519.418	20299.81
519.625	20394.01
519.832	20938.77
520.039	21086.23
520.247	20283.42
520.454	20303.9
520.661	21485.58
520.868	21123.09
521.076	21098.52
521.283	21016.6
521.49	21839.88
521.697	21446.67
521.904	21184.53
522.112	20992.02
522.319	21688.33
522.526	21178.39
522.733	21465.1
522.94	21313.55
523.147	21438.48
523.354	21905.42
523.561	21526.54
523.768	21755.91
523.975	22298.63
524.183	21975.05
524.39	21966.85
524.597	21827.59
524.804	22124.55
525.011	22016.01
525.218	21878.79
525.425	22016.01
525.632	22560.77
525.838	22597.63
526.045	22403.07
526.252	21970.95
526.459	23658.48
526.666	23341.04
526.873	22589.44
527.08	22231.04
527.287	23107.57
527.494	22966.26
527.701	22622.2
527.907	22587.39
528.114	23162.87
528.321	22999.03
528.528	22874.1
528.735	22953.98
528.941	22941.69
529.148	22556.67
529.355	23160.82
529.562	22796.28
529.768	23334.9
529.975	22925.3
530.182	23220.21
530.388	22933.5
530.595	23799.79
530.802	23265.27
531.008	23777.26
531.215	23541.74
531.422	24244.2
531.628	24647.65
531.835	23556.08
532.042	23703.53
532.248	24147.94
532.455	24164.32
532.661	23693.29
532.868	24205.28
533.074	24193
533.281	24448.99
533.487	24074.21
533.694	23904.23
533.9	24293.35
534.107	24350.69
534.313	24494.05
534.52	24334.31
534.726	24569.82
534.933	25272.28
535.139	24518.62
535.345	24410.08
535.552	25012.18
535.758	25063.38
535.965	24664.03
536.171	24604.64
536.377	25378.77
536.584	25501.65
536.79	25036.76
536.996	25055.19
537.203	25188.31
537.409	25518.03
537.615	25223.12
537.821	25419.73
538.028	26124.23
538.234	25343.95
538.44	25317.33
538.646	25278.42
538.853	26030.02
539.059	25790.41
539.265	26011.59
539.471	25229.27
539.677	25714.64
539.883	26150.85
540.09	25733.07
540.296	26453.95
540.502	26384.32
540.708	26083.27
540.914	26335.17
541.12	26279.88
541.326	26924.99
541.532	26554.3
541.738	26466.24
541.944	26298.31
542.15	27447.22
542.356	26892.22
542.562	26908.6
542.768	26513.34
542.974	27879.34
543.18	27705.26
543.386	27142.07
543.592	26898.36
543.798	27666.35
544.004	27615.15
544.21	27185.08
544.415	27131.83
544.621	27709.36
544.827	27391.92
545.033	27516.85
545.239	27570.1
545.445	27647.92
545.651	27701.17
545.856	27385.78
546.062	27398.07
546.268	27535.28
546.474	28024.75
546.679	27432.88
546.885	27342.77
547.091	27807.66
547.297	28002.22
547.502	27813.8
547.708	27588.53
547.914	27873.2
548.119	28426.15
548.325	27908.01
548.531	27426.74
548.736	28661.66
548.942	27871.15
549.147	27543.47
549.353	28258.21
549.559	28893.08
549.764	28168.1
549.97	28110.76
550.175	27766.7
550.381	28655.52
550.586	28018.6
550.792	28401.57
550.997	28544.93
551.203	28921.76
551.408	28948.38
551.614	28589.99
551.819	28700.58
552.025	29538.19
552.23	29687.7
552.435	28923.8
552.641	29697.94
552.846	29341.59
553.052	29761.42
553.257	29605.78
553.462	29216.66
553.668	29456.28
553.873	29978.51
554.078	29439.89
554.283	29460.37
554.489	30087.05
554.694	30007.18
554.899	29591.44
555.105	30138.25
555.31	29998.99
555.515	30218.12
555.72	29937.55
555.925	29616.02
556.131	30171.02
556.336	29687.7
556.541	30080.91
556.746	29822.86
556.951	30257.03
557.156	30523.27
557.361	30441.35
557.567	30576.51
557.772	30906.24
557.977	30492.55
558.182	29833.1
558.387	30148.49
558.592	30410.63
558.797	30586.75
559.002	30738.3
559.207	30578.56
559.412	30640
559.617	30793.6
559.822	30740.35
560.027	30631.81
560.232	30967.68
560.437	31321.98
560.642	30601.09
560.847	30992.25
561.051	31035.26
561.256	31053.69
561.461	30932.86
561.666	30889.85
561.871	31186.81
562.076	31545.2
562.281	31158.14
562.485	30617.47
562.69	31510.39
562.895	31358.84
563.1	31059.84
563.305	30807.94
563.509	31528.82
563.714	32223.08
563.919	31469.43
564.123	31176.57
564.328	31262.58
564.533	32087.92
564.737	31305.59
564.942	31180.67
565.147	32165.74
565.351	32399.21
565.556	31639.41
565.761	31854.45
565.965	32286.57
566.17	32055.15
566.374	31364.98
566.579	31991.66
566.784	31678.32
566.988	31913.84
567.193	31817.58
567.397	31645.55
567.602	32126.83
567.806	31829.87
568.011	31592.31
568.215	31948.65
568.42	32370.54
568.624	32489.32
568.828	32186.22
569.033	32184.17
569.237	32694.11
569.442	32853.86
569.646	31545.2
569.85	32366.44
570.055	33007.45
570.259	32816.99
570.463	32759.65
570.668	32325.48
570.872	32083.82
571.076	32960.35
571.281	32491.37
571.485	32735.07
571.689	33152.86
571.893	33281.88
572.098	32720.74
572.302	32982.88
572.506	33431.38
572.71	32958.3
572.914	32898.91
573.119	33060.7
573.323	33466.2
573.527	33316.7
573.731	33062.75
573.935	33013.6
574.139	33447.77
574.343	32982.88
574.547	33107.8
574.751	33890.13
574.955	33945.42
575.159	34084.69
575.364	33271.64
575.568	33548.12
575.772	33795.92
575.976	34205.52
576.18	33369.94
576.383	33871.7
576.587	34144.08
576.791	34051.92
576.995	33759.06
577.199	33582.93
577.403	33976.14
577.607	34711.36
577.811	34117.45
578.015	34148.17
578.219	34250.57
578.422	34574.15
578.626	33906.51
578.83	34576.2
579.034	34477.9
579.238	34510.66
579.442	34467.66
579.645	34539.33
579.849	34729.8
580.053	34944.83
580.257	34393.93
580.46	34983.74
580.664	35149.63
580.868	34840.39
581.071	34680.64
581.275	34830.15
581.479	34438.98
581.682	34910.02
581.886	34686.79
582.09	34799.43
582.293	35254.08
582.497	35497.78
582.7	35190.59
582.904	35329.85
583.107	34891.58
583.311	34821.95
583.515	35579.7
583.718	35051.33
583.922	35051.33
584.125	36001.58
584.329	34862.91
584.532	35460.92
584.735	36116.27
584.939	35753.78
585.142	34858.82
585.346	35428.15
585.549	35936.05
585.753	35837.75
585.956	35503.93
586.159	35905.33
586.363	36421.42
586.566	36460.33
586.769	35712.82
586.973	35733.3
587.176	36130.61
587.379	36542.25
587.582	36480.81
587.786	36298.54
587.989	36405.03
588.192	37041.95
588.395	36400.94
588.599	36699.94
588.802	36570.92
589.005	36738.85
589.208	36179.76
589.411	36507.43
589.615	36669.22
589.818	37357.34
590.021	37115.68
590.224	36499.24
590.427	36951.84
590.63	37064.48
590.833	36497.19
591.036	36728.61
591.239	37099.3
591.442	36878.11
591.645	37646.1
591.848	36912.93
592.051	37506.84
592.254	37611.29
592.457	37578.52
592.66	37197.6
592.863	37400.35
593.066	37666.58
593.269	37779.22
593.472	37488.41
593.675	38110.99
593.878	38047.5
594.081	37672.73
594.284	37394.2
594.486	37965.59
594.689	38377.23
594.892	37809.94
595.095	38240.01
595.298	38248.21
595.5	37943.06
595.703	38414.09
595.906	38424.33
596.109	38639.37
596.311	39083.78
596.514	37900.05
596.717	38465.29
596.92	39124.74
597.122	38498.06
597.325	37383.96
597.528	38457.1
597.73	39180.03
597.933	37955.35
598.136	38620.94
598.338	38201.1
598.541	38866.69
598.743	39796.47
598.946	38649.61
599.148	38780.68
599.351	39165.7
599.554	39393.02
599.756	38190.86
599.959	38754.05
600.161	39259.9
600.363	39755.51
600.566	38823.68
600.768	38579.98
600.971	39474.94
601.173	39014.15
601.376	39214.85
601.578	39182.08
601.78	39583.48
601.983	40011.51
602.185	39182.08
602.388	39167.74
602.59	39200.51
602.792	39452.41
602.995	39423.74
603.197	38641.42
603.399	39923.44
603.601	39837.43
603.804	39083.78
604.006	39581.43
604.208	39440.12
604.41	39286.53
604.613	39313.15
604.815	39329.53
605.017	40257.26
605.219	39603.96
605.421	39718.65
605.623	39782.13
605.826	40503.02
606.028	40320.75
606.23	39653.11
606.432	39411.45
606.634	40396.52
606.836	40199.92
607.038	39810.81
607.24	40021.75
607.442	40060.66
607.644	40363.76
607.846	40044.27
608.048	39970.55
608.25	40263.41
608.452	40062.71
608.654	40437.48
608.856	39565.05
609.058	40195.82
609.26	40685.29
609.462	40031.99
609.664	40173.3
609.866	40718.06
610.067	40648.43
610.269	40447.72
610.471	39905.01
610.673	40105.71
610.875	40519.4
611.077	40072.95
611.278	39991.03
611.48	40115.95
611.682	40744.68
611.884	40558.31
612.085	39765.75
612.287	40482.54
612.489	40683.24
612.69	40253.17
612.892	40318.7
613.094	40941.28
613.295	40099.57
613.497	40232.69
613.699	40357.61
613.9	40963.81
614.102	40591.08
614.304	40054.51
614.505	39882.48
614.707	40988.39
614.908	40629.99
615.11	39876.34
615.311	40445.68
615.513	40548.07
615.714	40799.97
615.916	40525.55
616.117	40754.92
616.319	40656.62
616.52	41035.49
616.722	40421.1
616.923	40541.93
617.124	41324.25
617.326	40799.97
617.527	40689.38
617.729	40533.74
617.93	40613.61
618.131	41017.06
618.333	40230.64
618.534	40773.35
618.735	40969.96
618.937	41271.01
619.138	40242.93
619.339	40230.64
619.54	40720.1
619.742	40787.69
619.943	40679.14
620.144	40756.97
620.345	41154.27
620.546	41342.69
620.748	40918.76
620.949	40900.33
621.15	41068.26
621.351	40955.62
621.552	40941.28
621.753	41103.07
621.954	41236.19
622.155	41357.02
622.356	40521.45
622.558	40904.42
622.759	41158.37
622.96	41346.78
623.161	41080.55
623.362	40906.47
623.563	41354.97
623.764	40890.09
623.965	41455.32
624.166	41549.53
624.366	40711.91
624.567	41008.87
624.768	40650.47
624.969	40644.33
625.17	41279.2
625.371	41590.49
625.572	41168.61
625.773	40875.75
625.973	41805.53
626.174	41418.46
626.375	41187.04
626.576	41406.17
626.777	41567.96
626.977	42282.7
627.178	41516.76
627.379	41479.9
627.58	41408.22
627.78	41402.08
627.981	41129.7
628.182	41985.75
628.382	41799.38
628.583	41600.73
628.784	41660.12
628.984	40998.63
629.185	41733.85
629.386	41850.58
629.586	41563.87
629.787	41373.41
629.987	42141.39
630.188	41750.23
630.388	41731.8
630.589	40931.04
630.79	42417.87
630.99	41623.26
631.191	41733.85
631.391	41561.82
631.591	41733.85
631.792	42155.73
631.992	42094.29
632.193	41735.9
632.393	41725.66
632.594	42090.2
632.794	41289.44
632.994	41748.18
633.195	42180.31
633.395	41905.88
633.595	41635.55
633.796	41948.89
633.996	42049.24
634.196	42485.45
634.397	42290.9
634.597	41756.38
634.797	41957.08
634.997	42407.63
635.198	42217.17
635.398	41660.12
635.598	42436.3
635.798	42604.24
635.998	42131.15
636.199	42178.26
636.399	42456.78
636.599	41828.06
636.799	42454.73
636.999	42456.78
637.199	42651.34
637.399	42860.23
637.599	42282.7
637.799	42096.34
637.999	42387.15
638.199	43046.6
638.399	42096.34
638.599	42368.72
638.799	42643.15
638.999	43237.06
639.199	42563.28
639.399	42907.33
639.599	43124.42
639.799	42239.7
639.999	42276.56
640.199	42036.95
640.399	42796.74
640.599	41705.18
640.799	42913.48
640.998	43169.47
641.198	42854.09
641.398	42841.8
641.598	43306.69
641.798	42774.22
641.997	43810.49
642.197	42915.53
642.397	43034.31
642.597	42860.23
642.796	43437.76
642.996	44084.92
643.196	42903.24
643.395	42387.15
643.595	43271.87
643.795	42837.7
643.994	42827.46
644.194	43013.83
644.394	43572.92
644.593	43112.13
644.793	43185.86
644.992	43374.27
645.192	43564.73
645.392	43329.22
645.591	43394.75
645.791	43110.08
645.99	43476.67
646.19	43192
646.389	43239.11
646.589	42964.68
646.788	43445.95
646.987	43431.61
647.187	43562.68
647.386	43816.63
647.586	43286.21
647.785	43923.13
647.984	43192
648.184	43103.94
648.383	43480.77
648.582	43349.7
648.782	43529.92
648.981	43456.19
649.18	43292.35
649.38	43833.02
649.579	43640.51
649.778	43636.41
649.977	43978.42
650.177	44162.74
650.376	43482.81
650.575	43030.21
650.774	43894.46
650.973	43644.6
651.173	43202.24
651.372	43636.41
651.571	43802.3
651.77	44197.55
651.969	43525.82
652.168	43456.19
652.367	44095.16
652.566	43411.13
652.765	43558.59
652.964	43949.75
653.163	44265.14
653.362	44189.36
653.561	43394.75
653.76	43718.33
653.959	44060.34
654.158	45090.47
654.357	44142.26
654.556	43650.75
654.755	44248.75
654.954	44060.34
655.153	43484.86
655.352	44275.38
655.551	44529.33
655.749	44254.9
655.948	43626.17
656.147	44396.21
656.346	44740.27
656.545	44271.28
656.743	44058.29
656.942	43968.18
657.141	44297.91
657.34	44291.76
657.538	44097.2
657.737	44439.22
657.936	44598.96
658.135	44768.94
658.333	44265.14
658.532	44150.45
658.731	44766.89
658.929	44576.43
659.128	44631.72
659.326	44551.85
659.525	44947.11
659.724	44134.07
659.922	44125.88
660.121	44013.24
660.319	44084.92
660.518	44050.1
660.716	43681.47
660.915	44398.26
661.113	44914.34
661.312	44226.23
661.51	44476.08
661.709	44076.72
661.907	44809.9
662.105	44754.6
662.304	44502.7
662.502	44660.4
662.701	45272.74
662.899	44314.29
663.097	44242.61
663.296	44220.08
663.494	44838.57
663.692	44938.92
663.891	44453.55
664.089	44019.38
664.287	44404.4
664.485	44734.12
664.684	44678.83
664.882	44543.66
665.08	44992.17
665.278	44953.26
665.476	44605.1
665.675	44940.97
665.873	45074.09
666.071	44918.44
666.269	44605.1
666.467	44486.32
666.665	44717.74
666.863	44101.3
667.061	44361.39
667.259	44310.19
667.457	44711.6
667.655	44678.83
667.853	44168.88
668.051	44492.46
668.249	44369.58
668.447	44813.99
668.645	43986.61
668.843	44799.66
669.041	44363.44
669.239	44117.68
669.437	44297.91
669.635	44775.08
669.833	44308.15
670.031	44336.82
670.229	44121.78
670.426	44979.88
670.624	44478.13
670.822	44342.96
671.02	44125.88
671.218	44510.89
671.415	43902.65
671.613	44580.53
671.811	44598.96
672.009	44619.44
672.206	44656.3
672.404	44562.09
672.602	44275.38
672.799	44568.24
672.997	44746.41
673.195	44813.99
673.392	44586.67
673.59	43896.5
673.788	44240.56
673.985	43378.37
674.183	44064.44
674.38	44129.97
674.578	44730.03
674.775	44181.17
674.973	43953.85
675.17	44195.51
675.368	44426.93
675.565	44443.31
675.763	43853.5
675.96	43847.35
676.158	44398.26
676.355	43617.98
676.553	44056.25
676.75	43454.14
676.947	44527.28
677.145	44228.27
677.342	44175.03
677.539	43871.93
677.737	44185.27
677.934	44396.21
678.131	43828.92
678.329	43947.7
678.526	43835.06
678.723	44299.95
678.92	43994.81
679.118	43200.19
679.315	43445.95
679.512	44127.92
679.709	43849.4
679.906	43851.45
680.104	44314.29
680.301	44064.44
680.498	43179.71
680.695	43400.9
680.892	43632.32
681.089	43187.91
681.286	43626.17
681.483	43230.91
681.68	43542.2
681.877	44101.3
682.075	43202.24
682.272	43630.27
682.469	43265.73
682.665	43370.18
682.862	43280.06
683.059	43007.69
683.256	43706.04
683.453	43667.13
683.65	43638.46
683.847	43732.67
684.044	43226.82
684.241	42979.01
684.438	43790.01
684.635	42682.06
684.831	44281.52
685.028	43855.54
685.225	43003.59
685.422	43179.71
685.619	43339.46
685.815	42995.4
686.012	42897.09
686.209	42677.96
686.405	43243.2
686.602	43603.64
686.799	42634.95
686.996	43030.21
687.192	43097.8
687.389	43579.07
687.586	42839.75
687.782	43296.45
687.979	43609.79
688.175	43101.89
688.372	43085.51
688.568	42677.96
688.765	42913.48
688.962	42909.38
689.158	42858.18
689.355	42778.31
689.551	42976.97
689.748	42366.67
689.944	42364.62
690.14	42329.81
690.337	42407.63
690.533	42698.44
690.73	42393.29
690.926	42852.04
691.123	42180.31
691.319	42608.33
691.515	42196.69
691.712	42628.81
691.908	42733.26
692.104	43005.64
692.301	42362.57
692.497	42329.81
692.693	42675.91
692.889	42946.25
693.086	42278.61
693.282	41842.39
693.478	42430.16
693.674	42800.84
693.87	42460.88
694.067	42233.55
694.263	42510.03
694.459	41893.59
694.655	42340.05
694.851	42381.01
695.047	42237.65
695.243	42550.99
695.439	41914.07
695.635	41897.69
695.831	42163.92
696.027	41668.31
696.224	42059.48
696.42	42008.28
696.615	42579.66
696.811	42227.41
697.007	41774.81
697.203	41373.41
697.399	41828.06
697.595	41850.58
697.791	41418.46
697.987	41522.91
698.183	41742.04
698.379	41537.24
698.575	41672.41
698.77	41340.64
698.966	41658.07
699.162	42303.18
699.358	41332.45
699.554	41549.53
699.749	41995.99
699.945	42008.28
700.141	41101.03
700.337	41391.84
700.532	41406.17
700.728	41496.28
700.924	41258.72
701.119	41211.62
701.315	41565.92
701.511	41529.05
701.706	41594.59
701.902	40945.38
702.097	41047.78
702.293	41565.92
702.489	40877.8
702.684	41551.58
702.88	41191.14
703.075	41283.3
703.271	40890.09
703.466	40826.6
703.662	41170.66
703.857	41307.87
704.053	41201.38
704.248	41049.83
704.443	41432.8
704.639	41275.1
704.834	40873.7
705.03	41211.62
705.225	41141.99
705.42	41311.97
705.616	40804.07
705.811	40388.33
706.006	40830.69
706.202	40910.57
706.397	40660.71
706.592	40912.61
706.787	40980.2
706.983	40464.11
707.178	41365.21
707.373	41004.77
707.568	41346.78
707.763	41127.65
707.959	40822.5
708.154	40586.99
708.349	40607.47
708.544	41205.47
708.739	40824.55
708.934	40316.65
709.129	40703.72
709.324	40974.05
709.519	40830.69
709.714	40111.86
709.909	41340.64
710.104	40736.49
710.299	40107.76
710.494	41051.87
710.689	40972
710.884	40492.78
711.079	40261.36
711.274	40240.88
711.469	40726.25
711.664	40642.28
711.859	40091.38
712.054	40662.76
712.249	40423.15
712.443	40546.03
712.638	40212.21
712.833	40015.6
713.028	40634.09
713.223	40218.35
713.417	40388.33
713.612	40351.47
713.807	41090.79
714.002	40900.33
714.196	40478.44
714.391	40527.59
714.586	40445.68
714.78	40056.56
714.975	40109.81
715.17	40056.56
715.364	40128.24
715.559	40371.95
715.754	39419.64
715.948	39511.8
716.143	40206.06
716.337	39546.62
716.532	40244.98
716.726	40277.74
716.921	39993.08
717.115	40294.13
717.31	39653.11
717.504	40169.2
717.699	39806.71
717.893	39552.76
718.088	39255.81
718.282	39542.52
718.476	39679.74
718.671	39278.33
718.865	39292.67
719.059	39079.68
719.254	39264
719.448	39692.02
719.642	40109.81
719.837	38600.46
720.031	39210.75
720.225	39450.36
720.419	39266.05
720.614	39026.43
720.808	39669.5
721.002	39167.74
721.196	38893.32
721.39	38776.58
721.585	39278.33
721.779	39124.74
721.973	39079.68
722.167	38893.32
722.361	38776.58
722.555	39010.05
722.749	38768.39
722.943	38973.19
723.137	38829.83
723.331	39036.67
723.525	38610.7
723.719	38608.65
723.913	38911.75
724.107	38586.12
724.301	38477.58
724.495	38436.62
724.689	38891.27
724.883	39108.35
725.077	38350.6
725.271	39024.39
725.465	38741.77
725.659	39204.61
725.853	38780.68
726.046	38680.33
726.24	38012.69
726.434	38739.72
726.628	38424.33
726.822	38479.63
727.015	39253.76
727.209	38852.36
727.403	38455.05
727.596	38680.33
727.79	38780.68
727.984	38649.61
728.177	38803.21
728.371	38850.31
728.565	38450.95
728.758	38442.76
728.952	38338.32
729.146	38702.85
729.339	39143.17
729.533	38754.05
729.726	38223.63
729.92	38358.8
730.113	39161.6
730.307	38500.11
730.5	38582.02
730.694	38188.81
730.887	38369.04
731.081	38782.73
731.274	38006.55
731.468	38057.74
731.661	38487.82
731.854	38547.21
732.048	38035.22
732.241	38135.57
732.435	38360.84
732.628	38135.57
732.821	38663.94
733.014	38477.58
733.208	38260.49
733.401	38907.65
733.594	37973.78
733.788	38414.09
733.981	38471.43
734.174	38758.15
734.367	38135.57
734.56	38600.46
734.754	38688.52
734.947	39091.97
735.14	38078.22
735.333	38520.59
735.526	38774.53
735.719	38113.04
735.912	37967.63
736.105	38129.42
736.298	38108.94
736.491	37891.86
736.684	38219.53
736.877	37992.21
737.07	38016.79
737.263	38430.47
737.456	37932.82
737.649	38049.55
737.842	38246.16
738.035	38315.79
738.228	37959.44
738.421	37576.47
738.614	38399.76
738.807	38242.06
739	37379.87
739.192	37433.11
739.385	38018.83
739.578	38039.31
739.771	38002.45
739.964	37328.67
740.156	38127.38
740.349	37510.94
740.542	37922.58
740.735	37510.94
740.927	37625.62
741.12	37508.89
741.313	37508.89
741.505	38080.27
741.698	37611.29
741.891	37535.51
742.083	37535.51
742.276	37443.35
742.468	37549.85
742.661	37265.18
742.854	37945.11
743.046	37156.64
743.239	37764.89
743.431	37629.72
743.624	37216.03
743.816	37343
744.009	37674.77
744.201	37674.77
744.393	37416.73
744.586	37527.32
744.778	37752.6
744.971	37144.35
745.163	37056.29
745.355	37236.51
745.548	37420.83
745.74	37060.38
745.932	37027.62
746.125	37115.68
746.317	37797.65
746.509	37111.58
746.702	37500.7
746.894	37302.04
747.086	37015.33
747.278	37642.01
747.471	37459.74
747.663	37240.61
747.855	36976.42
748.047	37400.35
748.239	37426.97
748.431	37033.76
748.623	38127.38
748.815	37482.27
749.008	37359.39
749.2	37078.82
749.392	37605.14
749.584	37287.71
749.776	37494.55
749.968	36951.84
750.16	37957.39
750.352	36716.33
750.544	36765.48
750.736	36695.85
750.928	37130.01
751.12	36843.3
751.311	36325.16
751.503	36740.9
751.695	37109.54
751.887	36695.85
752.079	36513.58
752.271	36609.83
752.463	38199.05
752.654	37256.99
752.846	36546.34
753.038	36849.44
753.23	37203.74
753.421	37228.32
753.613	36558.63
753.805	36882.21
753.997	36540.2
754.188	36945.7
754.38	36439.85
754.572	36290.35
754.763	36722.47
754.955	36335.4
755.146	36560.68
755.338	35938.1
755.53	36341.55
755.721	36347.69
755.913	35591.99
756.104	35632.95
756.296	36286.25
756.487	36265.77
756.679	35923.76
756.87	35692.34
757.062	35639.09
757.253	36788
757.445	35630.9
757.636	35862.32
757.827	35798.84
758.019	37105.44
758.21	35219.26
758.401	35413.82
758.593	36319.02
758.784	35966.77
758.975	35067.71
759.167	35340.09
759.358	35520.31
759.549	35704.63
759.74	35092.29
759.932	35043.13
760.123	35665.72
760.314	35579.7
760.505	35221.31
760.696	35123.01
760.888	35872.56
761.079	35080
761.27	35116.86
761.461	35067.71
761.652	35577.65
761.843	34858.82
762.034	34914.11
762.225	34973.5
762.416	35098.43
762.607	34862.91
762.798	34871.11
762.989	34680.64
763.18	35897.14
763.371	34512.71
763.562	34565.96
763.753	34668.36
763.944	35282.75
764.135	34703.17
764.326	34991.94
764.517	34301.77
764.708	34690.88
764.899	34469.7
765.089	34023.25
765.28	34240.33
765.471	34324.3
765.662	34049.87
765.853	34244.43
766.043	33589.08
766.234	34514.76
766.425	34273.1
766.615	34242.38
766.806	34217.8
766.997	34430.79
767.187	34180.94
767.378	33707.86
767.569	33509.21
767.759	34002.77
767.95	33937.23
768.141	33908.56
768.331	33525.59
768.522	33601.36
768.712	34101.07
768.903	33879.89
769.093	33451.86
769.284	33955.66
769.474	33734.48
769.665	33380.18
769.855	33122.14
770.046	33599.32
770.236	33566.55
770.426	33199.96
770.617	33091.42
770.807	33271.64
770.998	33263.45
771.188	33126.24
771.378	33025.89
771.569	33269.59
771.759	33245.02
771.949	32470.89
772.139	32595.81
772.33	32919.39
772.52	33322.84
772.71	32561
772.9	32585.57
773.09	33179.48
773.281	33066.84
773.471	32333.67
773.661	32446.31
773.851	32532.32
774.041	32165.74
774.231	32409.45
774.421	32270.18
774.611	32698.21
774.802	32284.52
774.992	32448.36
775.182	32337.77
775.372	32411.49
775.562	32773.99
775.752	32558.95
775.942	31756.14
776.131	32644.96
776.321	32384.87
776.511	31868.78
776.701	31717.23
776.891	32233.32
777.081	31987.57
777.271	31528.82
777.461	31649.65
777.651	32323.43
777.84	32171.88
778.03	31514.48
778.22	31405.94
778.41	31698.8
778.599	31356.79
778.789	31299.45
778.979	31475.57
779.169	31741.81
779.358	31651.7
779.548	31715.19
779.738	31059.84
779.927	31735.67
780.117	31375.22
780.307	31162.23
780.496	30703.49
780.686	31229.82
780.875	31461.24
781.065	31321.98
781.254	31125.37
781.444	31620.98
781.633	31158.14
781.823	30957.44
782.012	30818.18
782.202	31078.27
782.391	30893.95
782.581	30521.22
782.77	30840.7
782.96	31524.72
783.149	30308.23
783.338	30406.53
783.528	30412.68
783.717	31106.94
783.906	31080.32
784.096	30572.42
784.285	30328.71
784.474	30132.11
784.663	30502.79
784.853	30498.69
785.042	30377.86
785.231	30388.1
785.42	30889.85
785.61	30248.84
785.799	30039.95
785.988	30224.26
786.177	29941.64
786.366	30275.46
786.555	30351.24
786.744	30361.48
786.933	30015.37
787.122	29837.2
787.312	29835.15
787.501	29581.2
787.69	29943.69
787.879	29759.38
788.068	29468.56
788.257	29386.64
788.445	29562.77
788.634	29611.92
788.823	29439.89
789.012	30097.29
789.201	30052.23
789.39	29429.65
789.579	29360.02
789.768	29646.74
789.957	29546.39
790.145	29314.97
790.334	29476.76
790.523	29319.06
790.712	29456.28
790.9	29376.41
791.089	29196.18
791.278	29525.91
791.467	29427.6
791.655	29462.42
791.844	29374.36
792.033	29267.86
792.221	28991.39
792.41	29153.18
792.599	28747.68
792.787	29011.87
792.976	29437.84
793.164	28970.91
793.353	28716.96
793.541	29165.46
793.73	29015.96
793.918	28983.2
794.107	28426.15
794.295	28899.23
794.484	28493.73
794.672	28544.93
794.861	28825.5
795.049	28964.76
795.238	28975
795.426	28729.25
795.614	28471.2
795.803	28641.18
795.991	28944.28
796.179	28299.17
796.368	28260.26
796.556	29218.71
796.744	28188.58
796.932	28495.78
797.121	28243.88
797.309	28311.46
797.497	28645.28
797.685	28346.28
797.874	28495.78
798.062	28721.06
798.25	28643.23
798.438	28536.74
798.626	28217.25
798.814	28864.41
799.002	28762.01
799.19	28282.79
799.378	27766.7
799.566	28450.72
799.755	28278.69
799.943	28581.79
800.131	28071.85
800.318	28209.06
800.506	28632.99
800.694	27862.96
800.882	28356.52
801.07	28901.28
801.258	28159.91
801.446	28450.72
801.634	28020.65
801.822	28153.77
802.01	28434.34
802.197	28286.89
802.385	28067.75
802.573	28364.71
802.761	28106.66
802.949	27842.48
803.136	27850.67
803.324	28979.1
803.512	28266.41
803.699	28243.88
803.887	28315.56
804.075	28993.43
804.262	28618.66
804.45	28075.94
804.638	28053.42
804.825	28186.54
805.013	28157.86
805.201	28368.8
805.388	28391.33
805.576	28350.37
805.763	29300.63
805.951	28164.01
806.138	28463.01
806.326	29231
806.513	28424.1
806.701	28352.42
806.888	28546.98
807.075	28469.15
807.263	28929.95
807.45	28112.81
807.638	28110.76
807.825	29120.41
808.012	28667.81
808.2	28618.66
808.387	28696.48
808.574	28825.5
808.761	28866.46
808.949	28514.21
809.136	28161.96
809.323	28491.68
809.51	28622.75
809.698	28573.6
809.885	28774.3
810.072	29044.63
810.259	29077.4
810.446	28471.2
810.633	28641.18
810.82	29003.67
811.008	29386.64
811.195	28686.24
811.382	28882.84
811.569	29151.13
811.756	28534.69
811.943	28719.01
812.13	28823.45
812.317	28940.19
812.504	28608.42
812.691	28733.34
812.878	28372.9
813.064	29329.3
813.251	29124.5
813.438	28893.08
813.625	28485.54
813.812	28684.19
813.999	28784.54
814.186	28991.39
814.372	28671.9
814.559	29222.81
814.746	28805.02
814.933	28598.18
815.12	28995.48
815.306	28856.22
815.493	28348.32
815.68	28739.49
815.866	28422.05
816.053	29112.22
816.24	29427.6
816.426	28743.58
816.613	28522.4
816.799	29155.22
816.986	29271.96
817.173	28639.14
817.359	28637.09
817.546	28798.88
817.732	28297.13
817.919	28145.58
818.105	28637.09
818.292	28540.83
818.478	28749.73
818.665	28569.51
818.851	28422.05
819.037	29134.74
819.224	28729.25
819.41	28333.99
819.597	28092.33
819.783	29024.15
819.969	28880.8
820.156	28471.2
820.342	28368.8
820.528	29302.68
820.714	28549.03
820.901	28737.44
821.087	28290.98
821.273	28911.52
821.459	28440.48
821.646	28133.29
821.832	28067.75
822.018	28465.06
822.204	28405.67
822.39	28241.83
822.576	28086.18
822.762	28587.94
822.948	28383.14
823.134	28387.24
823.32	27627.44
823.507	27756.46
823.693	28198.82
823.879	28262.31
824.065	27991.98
824.25	28030.89
824.436	27969.45
824.622	27506.61
824.808	27699.12
824.994	27887.53
825.18	27473.84
825.366	27377.59
825.552	27602.86
825.738	27897.77
825.923	28114.86
826.109	27572.14
826.295	27142.07
826.481	27406.26
826.667	27529.14
826.852	27531.19
827.038	27201.46
827.224	27719.6
827.409	27848.62
827.595	27158.45
827.781	27441.07
827.966	27713.45
828.152	27457.46
828.338	27310
828.523	27080.63
828.709	27361.2
828.894	27738.03
829.08	27123.64
829.266	26922.94
829.451	27039.67
829.637	27518.9
829.822	27398.07
830.008	27164.6
830.193	27148.22
830.378	27766.7
830.564	27148.22
830.749	26982.33
830.935	27226.04
831.12	27084.73
831.305	26724.29
831.491	26806.2
831.676	26302.4
831.861	27199.41
832.047	26412.99
832.232	26439.62
832.417	27004.86
832.602	26572.74
832.788	26767.29
832.973	26812.35
833.158	26558.4
833.343	26752.96
833.528	26695.61
833.714	26838.97
833.899	26767.29
834.084	27066.3
834.269	26566.59
834.454	26460.1
834.639	26980.28
834.824	26318.79
835.009	26419.14
835.194	25927.63
835.379	26433.47
835.564	26406.85
835.749	26230.73
835.934	25952.2
836.119	26294.21
836.304	26116.04
836.489	26099.66
836.674	25999.3
836.859	25898.95
837.044	26509.25
837.228	26007.5
837.413	25696.21
837.598	26351.56
837.783	26353.6
837.968	25814.99
838.152	25784.27
838.337	25628.62
838.522	26474.43
838.707	26146.76
838.891	25855.95
839.076	26245.06
839.261	26150.85
839.445	25522.13
839.63	25716.68
839.815	26013.64
839.999	25622.48
840.184	25417.68
840.368	25350.1
840.553	25509.84
840.737	25634.77
840.922	24971.22
841.106	25335.76
841.291	25296.85
841.475	25518.03
841.66	25014.23
841.844	25204.69
842.029	25874.38
842.213	25372.63
842.397	24971.22
842.582	24653.79
842.766	25669.58
842.951	25456.59
843.135	25036.76
843.319	24793.05
843.504	24866.78
843.688	25268.18
843.872	24645.6
844.056	25266.13
844.241	25364.43
844.425	24737.76
844.609	24778.72
844.793	24373.22
844.977	24948.7
845.161	24752.09
845.346	24264.68
845.53	24485.86
845.714	24850.39
845.898	25212.88
846.082	24143.84
846.266	24354.79
846.45	24487.9
846.634	24750.04
846.818	24600.54
847.002	24465.38
847.186	24391.65
847.37	24145.89
847.554	23949.29
847.738	24000.49
847.922	24358.88
848.106	24453.09
848.29	24027.11
848.473	24123.37
848.657	24248.29
848.841	24475.62
849.025	24086.5
849.209	23908.33
849.392	24244.2
849.576	23990.25
849.76	23521.26
849.944	23922.66
850.127	24276.96
850.311	23617.52
850.495	23545.84
850.678	23482.35
850.862	24176.61
851.046	24369.12
851.229	23664.62
851.413	23474.16
851.596	23660.52
851.78	23836.65
851.964	23842.79
852.147	23455.73
852.331	24160.23
852.514	23898.09
852.698	23638
852.881	23197.68
853.065	23713.77
853.248	23425.01
853.431	23566.32
853.615	22953.98
853.798	24193
853.982	23334.9
854.165	23343.09
854.348	23185.4
854.532	23238.64
854.715	23175.16
854.898	22968.31
855.081	23039.99
855.265	23713.77
855.448	23504.88
855.631	22661.12
855.814	22820.86
855.997	23412.72
856.181	22892.54
856.364	22904.82
856.547	22628.35
856.73	22716.41
856.913	23119.86
857.096	22528
857.279	22814.71
857.462	22798.33
857.645	23330.8
857.828	22652.92
858.011	22638.59
858.194	22466.56
858.377	22966.26
858.56	22263.81
858.743	22546.43
858.926	22499.33
859.109	22540.29
859.292	22355.97
859.475	22083.59
859.658	22857.72
859.841	22358.02
860.023	22171.65
860.206	22194.18
860.389	22456.32
860.572	22511.61
860.755	21594.12
860.937	21909.51
861.12	21782.54
861.303	21811.21
861.486	21966.85
861.668	21925.89
861.851	21956.61
862.034	22194.18
862.216	21917.7
862.399	21434.38
862.581	21678.09
862.764	22065.16
862.947	21516.3
863.129	21751.82
863.312	21444.62
863.494	21901.32
863.677	21483.53
863.859	21297.17
864.042	21952.52
864.224	22087.68
864.406	21389.33
864.589	20811.8
864.771	21413.9
864.954	21372.94
865.136	21329.94
865.318	20793.37
865.501	21329.94
865.683	20826.14
865.865	20836.38
866.048	21080.08
866.23	20981.78
866.412	20867.09
866.594	20742.17
866.777	20877.33
866.959	21309.46
867.141	20697.11
867.323	20688.92
867.505	20992.02
867.687	20629.53
867.869	20723.74
868.052	20185.12
868.234	20467.74
868.416	20889.62
868.598	21178.39
868.78	20570.14
868.962	20508.7
869.144	21082.13
869.326	21022.74
869.508	20463.65
869.69	20764.7
869.872	20527.13
870.054	20795.42
870.236	20588.57
870.417	20578.33
870.599	20508.7
870.781	20971.54
870.963	20404.25
871.145	20504.6
871.327	20387.87
871.508	20643.87
871.69	20394.01
871.872	20338.72
872.054	20504.6
872.235	20783.13
872.417	20117.54
872.599	20047.91
872.78	20957.21
872.962	20650.01
873.144	20281.38
873.325	20256.8
873.507	21053.46
873.689	20129.83
873.87	20115.49
874.052	20459.55
874.233	20467.74
874.415	20570.14
874.596	20613.15
874.778	20348.96
874.959	20406.3
875.141	21047.32
875.322	20207.65
875.503	20150.31
875.685	20738.07
875.866	19902.5
876.048	20000.8
876.229	20363.29
876.41	20576.28
876.592	20504.6
876.773	20138.02
876.954	20135.97
877.136	20840.47
877.317	20291.62
877.498	20103.2
877.679	20314.14
877.86	20224.03
878.042	20439.07
878.223	20176.93
878.404	20580.38
878.585	20629.53
878.766	21041.17
878.947	20822.04
879.128	20641.82
879.309	21055.51
879.49	21280.78
879.672	20510.75
879.853	20535.32
880.034	20520.99
880.215	20887.57
880.396	20494.36
880.576	20776.98
880.757	20926.49
880.938	20795.42
881.119	20918.29
881.3	20690.97
881.481	20865.05
881.662	21907.46
881.843	20707.35
882.023	20623.39
882.204	21098.52
882.385	21157.91
882.566	21092.37
882.747	20883.48
882.927	21477.39
883.108	21141.52
883.289	21059.6
883.469	21307.41
883.65	21104.66
883.831	21129.23
884.011	21065.75
884.192	21139.47
884.373	21444.62
884.553	21557.26
884.734	21764.11
884.914	21504.01
885.095	22030.34
885.275	21889.03
885.456	21606.41
885.636	21313.55
885.817	21688.33
885.997	21495.82
886.178	21717
886.358	21753.87
886.538	21917.7
886.719	22366.21
886.899	21172.24
887.08	21843.98
887.26	21753.87
887.44	21303.31
887.621	21536.78
887.801	21389.33
887.981	22347.78
888.161	21946.37
888.342	21610.51
888.522	21858.31
888.702	22241.28
888.882	22415.36
889.062	21876.74
889.242	21782.54
889.423	22253.57
889.603	22452.22
889.783	21829.64
889.963	21524.49
890.143	22501.37
890.323	21938.18
890.503	21809.16
890.683	21581.84
890.863	22202.37
891.043	22073.35
891.223	21983.24
891.403	22136.84
891.583	22083.59
891.763	22059.01
891.943	21731.34
892.122	21483.53
892.302	22157.32
892.482	21772.3
892.662	21823.5
892.842	21860.36
893.022	21870.6
893.201	21880.84
893.381	21764.11
893.561	21729.29
893.741	21970.95
893.92	21960.71
894.1	21475.34
894.28	21313.55
894.459	21493.77
894.639	21532.68
894.819	21112.85
894.998	21473.29
895.178	21897.22
895.357	21712.91
895.537	21219.35
895.716	21256.21
895.896	21579.79
896.075	21835.78
896.255	21235.73
896.434	21024.79
896.614	21876.74
896.793	22329.34
896.973	21610.51
897.152	21227.54
897.331	21489.68
897.511	21630.99
897.69	20625.43
897.87	21331.98
898.049	21506.06
898.228	21514.25
898.407	20992.02
898.587	21254.16
898.766	21178.39
898.945	21313.55
899.124	20897.81
899.304	20787.22
899.483	21579.79
899.662	21239.83
899.841	20633.63
900.02	20475.93
900.199	21082.13
900.378	20819.99
900.557	20508.7
900.737	20602.91
900.916	20953.11
901.095	21096.47
901.274	20527.13
901.453	20260.9
901.632	20482.08
901.811	20320.29
901.989	20123.68
902.168	19955.75
902.347	20555.8
902.526	20369.44
902.705	19898.41
902.884	19902.5
903.063	20490.27
903.242	20459.55
903.42	19558.44
903.599	19769.38
903.778	20000.8
903.957	20105.25
904.135	19679.27
904.314	19312.69
904.493	19738.66
904.672	19656.75
904.85	19085.36
905.029	19394.61
905.207	19437.61
905.386	19943.46
905.565	18579.51
905.743	18837.56
905.922	18946.1
906.1	19013.68
906.279	18575.42
906.457	18352.19
906.636	18532.41
906.814	18278.46
906.993	18036.8
907.171	18288.7
907.35	18563.13
907.528	18438.2
907.707	18225.22
907.885	17727.56
908.063	18266.17
908.242	17864.77
908.42	17762.37
908.598	17565.77
908.777	17981.51
908.955	17979.46
909.133	17825.86
909.311	17418.32
909.49	17727.56
909.668	17813.57
909.846	17647.69
910.024	17539.15
910.202	17875.01
910.38	18167.87
910.559	17891.4
910.737	17629.26
910.915	18112.58
911.093	18051.14
911.271	17944.64
911.449	18153.54
911.627	18505.79
911.805	18716.73
911.983	17803.33
912.161	18139.2
912.339	18735.16
912.517	18847.8
912.695	18323.52
912.872	18513.98
913.05	18260.03
913.228	18937.91
913.406	18493.5
913.584	18686.01
913.762	18593.85
913.939	18133.06
914.117	18595.9
914.295	18227.26
914.473	18702.39
914.65	18870.33
914.828	18225.22
915.006	18251.84
915.184	18548.79
915.361	18896.95
915.539	18499.64
915.716	18319.42
915.894	18536.51
916.072	18780.21
916.249	18614.33
916.427	18217.02
916.604	18227.26
916.782	18499.64
916.959	18094.15
917.137	17907.78
917.314	18636.86
917.492	18395.2
917.669	17868.87
917.847	18303.04
918.024	17985.6
918.201	17731.65
918.379	17932.36
918.556	17887.3
918.733	18556.99
918.911	17956.93
919.088	17991.75
919.265	17745.99
919.442	18008.13
919.62	17727.56
919.797	17745.99
919.974	17705.03
920.151	17920.07
920.328	17961.03
920.506	17244.24
920.683	17664.07
920.86	17530.95
921.037	17637.45
921.214	17190.99
921.391	17610.82
921.568	17715.27
921.745	17346.64
921.922	17428.56
922.099	17270.86
922.276	17619.02
922.453	17477.71
922.63	17078.35
922.807	17492.04
922.984	17352.78
923.161	17104.98
923.338	17156.18
923.514	17113.17
923.691	17190.99
923.868	17197.13
924.045	17160.27
924.222	16883.8
924.399	17229.9
924.575	17285.2
924.752	16926.8
924.929	16937.04
925.105	17104.98
925.282	16879.7
925.459	16660.57
925.635	16601.18
925.812	16830.55
925.989	16291.93
926.165	16580.7
926.342	16033.89
926.518	16248.93
926.695	16629.85
926.871	16336.99
927.048	16029.79
927.224	16605.27
927.401	16205.92
927.577	15888.48
927.754	15863.91
927.93	16543.83
928.107	16031.84
928.283	15677.54
928.459	16017.5
928.636	16105.57
928.812	15712.36
928.988	15341.68
929.165	15503.46
929.341	15794.28
929.517	15616.1
929.693	15675.49
929.87	14901.36
930.046	15593.58
930.222	15544.42
930.398	15302.76
930.574	15310.96
930.751	15339.63
930.927	15077.49
931.103	15108.21
931.279	14889.07
931.455	14872.69
931.631	15347.82
931.807	14502.01
931.983	14704.76
932.159	14409.85
932.335	14735.48
932.511	14749.81
932.687	14446.71
932.863	14411.9
933.039	14350.46
933.215	14217.34
933.391	13942.91
933.566	14127.23
933.742	14391.42
933.918	13879.43
934.094	13602.95
934.27	13713.54
934.445	13826.18
934.621	13678.72
934.797	13168.78
934.973	13500.55
935.148	13389.96
935.324	12998.8
935.5	12544.15
935.675	13043.85
935.851	12744.85
936.027	12318.87
936.202	12247.19
936.378	12370.07
936.553	12159.13
936.729	12261.53
936.904	11688.1
937.08	11391.14
937.255	11286.7
937.431	11268.27
937.606	10752.18
937.782	11002.03
937.957	10999.98
938.133	10801.33
938.308	10293.43
938.483	10608.82
938.659	10133.69
938.834	10004.67
939.009	9969.85
939.185	9969.85
939.36	9621.7
939.535	9099.47
939.71	9535.68
939.886	9867.45
940.061	9676.99
940.236	9165
940.411	9160.91
940.586	9365.7
940.761	9226.44
940.937	8956.11
941.112	8599.76
941.287	8767.7
941.462	8915.15
941.637	8442.07
941.812	8442.07
941.987	8552.66
942.162	8526.04
942.337	8325.33
942.512	8192.22
942.687	8777.94
942.862	8550.61
943.037	8034.52
943.212	7837.92
943.386	8296.66
943.561	8149.21
943.736	8329.43
943.911	8378.58
944.086	8106.2
944.26	8153.3
944.435	8036.57
944.61	8134.87
944.785	8464.6
944.959	8614.1
945.134	7995.61
945.309	8167.64
945.483	8093.91
945.658	8358.1
945.833	7567.59
946.007	7870.69
946.182	8607.95
946.357	8085.72
946.531	7915.74
946.706	7901.4
946.88	7618.79
947.055	8147.16
947.229	8030.43
947.404	8024.28
947.578	8431.83
947.752	7930.08
947.927	8046.81
948.101	8106.2
948.276	8419.54
948.45	8294.61
948.624	8319.19
948.799	8120.54
948.973	8583.38
949.147	7954.65
949.321	8403.16
949.496	8257.75
949.67	8636.63
949.844	8427.73
950.018	8368.34
950.193	8534.23
950.367	8861.9
950.541	8530.13
950.715	8532.18
950.889	8536.28
951.063	8802.51
951.237	8769.74
951.411	8333.53
951.585	8360.15
951.759	8954.06
951.933	8796.37
952.107	8681.68
952.281	8900.81
952.455	9275.59
952.629	9150.67
952.803	8636.63
952.977	8603.86
953.151	9074.89
953.325	8884.43
953.499	8909.01
953.672	8571.09
953.846	8849.61
954.02	8986.83
954.194	8702.16
954.368	8794.32
954.541	9117.9
954.715	8999.12
954.889	8980.68
955.062	8560.85
955.236	9218.25
955.41	8947.92
955.583	9103.56
955.757	8882.38
955.93	8866
956.104	9025.74
956.278	9146.57
956.451	9068.75
956.625	9394.37
956.798	9865.41
956.972	9330.89
957.145	8917.2
957.319	9111.75
957.492	9165
957.665	9027.79
957.839	9298.12
958.012	9273.54
958.185	8992.97
958.359	9216.2
958.532	9205.96
958.705	9257.16
958.879	9453.77
959.052	9144.52
959.225	8982.73
959.398	9341.13
959.572	9341.13
959.745	8978.64
959.918	9095.37
960.091	9175.24
960.264	9339.08
960.438	9044.17
960.611	8962.25
960.784	9566.4
960.957	9318.6
961.13	9537.73
961.303	9017.55
961.476	9310.41
961.649	9388.23
961.822	8734.93
961.995	9214.15
962.168	9468.1
962.341	9244.87
962.514	9103.56
962.686	8909.01
962.859	9494.72
963.032	9371.85
963.205	9005.26
963.378	8970.44
963.551	9482.44
963.723	9222.34
963.896	9019.6
964.069	8906.96
964.242	9105.61
964.414	9408.71
964.587	9062.6
964.76	9007.31
964.932	9175.24
965.105	8988.88
965.278	9027.79
965.45	8974.54
965.623	9119.95
965.795	9355.46
965.968	9058.51
966.14	8972.49
966.313	8990.92
966.485	9322.7
966.658	8739.02
966.83	8685.78
967.003	9363.65
967.175	9367.75
967.348	8870.09
967.52	8898.77
967.692	9353.41
967.865	9148.62
968.037	8966.35
968.209	9203.91
968.382	9175.24
968.554	9263.3
968.726	8634.58
968.898	8825.04
969.071	9050.32
969.243	8960.2
969.415	8794.32
969.587	8782.03
969.759	9464
969.932	9089.23
970.104	8696.02
970.276	8528.08
970.448	8763.6
970.62	8636.63
970.792	8894.67
970.964	8698.06
971.136	9212.1
971.308	9052.36
971.48	8630.48
971.652	8444.12
971.824	9150.67
971.996	8521.94
972.168	8505.56
972.339	8542.42
972.511	8898.77
972.683	8556.75
972.855	8599.76
973.027	8272.09
973.199	8599.76
973.37	8657.11
973.542	8370.39
973.714	8294.61
973.886	8685.78
974.057	8749.26
974.229	8098.01
974.401	8095.96
974.572	8124.63
974.744	7631.07
974.915	8024.28
975.087	7930.08
975.259	8454.36
975.43	8089.82
975.602	7983.32
975.773	7774.43
975.945	7979.23
976.116	8192.22
976.288	7983.32
976.459	8196.31
976.63	7889.12
976.802	8179.93
976.973	7919.84
977.145	8159.45
977.316	8450.26
977.487	8431.83
977.659	7987.42
977.83	7760.09
978.001	8532.18
978.172	8167.64
978.344	7620.83
978.515	7692.51
978.686	7991.52
978.857	8218.84
979.028	7702.75
979.2	7590.11
979.371	7958.75
979.542	7778.53
979.713	7772.38
979.884	7100.65
980.055	7489.76
980.226	7721.18
980.397	7579.87
980.568	7534.82
980.739	7940.32
980.91	7575.78
981.081	7794.91
981.252	7307.49
981.423	7698.66
981.594	7796.96
981.765	7377.12
981.936	7387.36
982.106	7692.51
982.277	7758.05
982.448	7346.41
982.619	7659.74
982.79	7540.96
982.96	7895.26
983.131	7319.78
983.302	7172.33
983.472	7338.21
983.643	7592.16
983.814	7553.25
983.984	7340.26
984.155	7250.15
984.326	7672.03
984.496	7112.94
984.667	7211.24
984.837	7239.91
985.008	7551.2
985.178	7121.13
985.349	6875.37
985.519	6822.13
985.69	6893.8
985.86	6707.44
986.031	6889.71
986.201	6998.25
986.371	6957.29
986.542	6648.05
986.712	6535.41
986.882	6992.11
987.053	6963.44
987.223	6586.61
987.393	6588.66
987.563	6631.66
987.734	6830.32
987.904	6932.72
988.074	6609.14
988.244	6873.32
988.414	6578.42
988.585	6398.2
988.755	6686.96
988.925	6547.7
989.095	6889.71
989.265	6406.39
989.435	6494.45
989.605	6795.5
989.775	6682.86
989.945	6715.63
990.115	6338.8
990.285	6566.13
990.455	6570.23
990.625	6279.41
990.795	6093.05
990.965	6594.8
991.134	6320.37
991.304	6254.84
991.474	6125.82
991.644	6521.07
991.814	6633.71
991.984	5964.03
992.153	5892.35
992.323	6330.61
992.493	6209.78
992.662	5847.29
992.832	6189.3
993.002	6269.17
993.171	6236.41
993.341	5710.08
993.511	6058.23
993.68	5943.55
993.85	6213.88
994.019	5646.59
994.189	5533.95
994.358	6066.42
994.528	5966.07
994.697	5472.51
994.867	5712.13
995.036	6179.06
995.206	5744.89
995.375	5579.01
995.544	5783.81
995.714	5777.66
995.883	5779.71
996.052	5632.26
996.222	5202.18
996.391	6293.75
996.56	5687.55
996.73	5431.55
996.899	5388.55
997.068	5923.07
997.237	5572.86
997.406	5247.24
997.576	5251.33
997.745	5630.21
997.914	5757.18
998.083	5095.69
998.252	5110.02
998.421	5548.29
998.59	5339.4
998.759	4958.47
998.928	4894.99
999.097	5576.96
999.266	5372.16
999.435	5357.83
999.604	4927.75
999.773	5777.66
999.942	5136.65
1000.111	4774.16
1000.28	4589.84
1000.448	4899.08
1000.617	4962.57
1000.786	5120.26
1000.955	4831.5
1001.124	5116.17
1001.292	5810.43
1001.461	4827.4
1001.63	4725.01
1001.798	5443.84
1001.967	5187.85
1002.136	4649.23
1002.304	4790.54
1002.473	4960.52
1002.642	4983.05
1002.81	4757.77
1002.979	4520.21
1003.147	4989.19
1003.316	5427.46
1003.484	4624.65
1003.653	4503.82
1003.821	5181.7
1003.99	4806.92
1004.158	4708.62
1004.327	4483.34
1004.495	4774.16
1004.663	4485.39
1004.832	4649.23
1005	4317.46
1005.168	4665.61
1005.337	4620.56
1005.505	4190.49
1005.673	4561.17
1005.842	4679.95
1006.01	4612.37
1006.178	4217.11
1006.346	4272.4
1006.514	4595.98
1006.683	4598.03
1006.851	4083.99
1007.019	4122.9
1007.187	4102.42
1007.355	3981.59
1007.523	3795.23
1007.691	3907.87
1007.859	3969.3
1008.027	4682
1008.195	4030.74
1008.363	3963.16
1008.531	4563.22
1008.699	4170.01
1008.867	3805.47
1009.035	3965.21
1009.203	4342.04
1009.37	4213.01
1009.538	3954.97
1009.706	4227.35
1009.874	4219.16
1010.042	4047.13
1010.209	3563.81
1010.377	3803.42
1010.545	4296.98
1010.713	4057.37
1010.88	3703.07
1011.048	3813.66
1011.216	3868.95
1011.383	4124.95
1011.551	3647.77
1011.718	3539.23
1011.886	4061.46
1012.054	3819.8
1012.221	3445.02
1012.389	3479.84
1012.556	3723.55
1012.724	4202.77
1012.891	3615.01
1013.058	3369.25
1013.226	3813.66
1013.393	3838.23
1013.561	3174.69
1013.728	3113.25
1013.895	3727.64
1014.063	3811.61
1014.23	3266.85
1014.397	3238.18
1014.565	3709.21
1014.732	3399.97
1014.899	3203.36
1015.066	3189.03
1015.233	3469.6
1015.401	3432.74
1015.568	3203.36
1015.735	3117.35
1015.902	3342.63
1016.069	3385.63
1016.236	3074.34
1016.403	3051.81
1016.57	3125.54
1016.737	3447.07
1016.904	2992.42
1017.071	2869.55
1017.238	3103.01
1017.405	3340.58
1017.572	2935.08
1017.739	3170.6
1017.906	3234.08
1018.073	3418.4
1018.24	2705.71
1018.407	2863.4
1018.573	3416.35
1018.74	3178.79
1018.907	2863.4
1019.074	2724.14
1019.241	3287.33
1019.407	3178.79
1019.574	2599.21
1019.741	2609.45
1019.907	3232.04
1020.074	3160.36
1020.241	2578.73
1020.407	2568.49
1020.574	3103.01
1020.74	3084.58
1020.907	2591.02
1021.073	2539.82
1021.24	3287.33
1021.406	3293.48
1021.573	2486.58
1021.739	2562.35
1021.906	3072.29
1022.072	2752.81
1022.239	2566.45
1022.405	2574.64
1022.571	2775.34
1022.738	2580.78
1022.904	2478.38
1023.07	2470.19
1023.237	2779.43
1023.403	2971.94
1023.569	2470.19
1023.735	2363.7
1023.902	2775.34
1024.068	2646.32
1024.234	2316.59
1024.4	2390.32
1024.566	2742.57
1024.732	2892.07
1024.898	2294.07
1025.065	2158.9
1025.231	2797.87
1025.397	2502.96
1025.563	2390.32
1025.729	2220.34
1025.895	2183.48
1026.061	2240.82
1026.227	2134.32
1026.392	2296.11
1026.558	2791.72
1026.724	2756.91
1026.89	2126.13
1027.056	2253.11
1027.222	2625.84
1027.388	2296.11
1027.553	2113.85
1027.719	2111.8
1027.885	2836.78
1028.051	2527.53
1028.216	1974.58
1028.382	2019.64
1028.548	2677.04
1028.713	2330.93
1028.879	1990.97
1029.045	2251.06
1029.21	2640.17
1029.376	2513.2
1029.541	2027.83
1029.707	1995.06
1029.873	2441.52
1030.038	2429.23
1030.204	1974.58
1030.369	1937.72
1030.534	2527.53
1030.7	2095.41
1030.865	2015.54
1031.031	1904.95
1031.196	2337.07
1031.361	2249.01
1031.527	1876.28
1031.692	1700.16
1031.857	1786.17
1032.023	2253.11
1032.188	1845.56
1032.353	1827.13
1032.518	2513.2
1032.684	2210.1
1032.849	1755.45
1033.014	1900.86
1033.179	2330.93
1033.344	2146.61
1033.509	1786.17
1033.674	1780.03
1033.839	2263.35
1034.004	2144.56
1034.17	1792.31
1034.335	1687.87
1034.5	2029.88
1034.664	1855.8
1034.829	1663.29
1034.994	1593.66
1035.159	2115.89
1035.324	1945.91
1035.489	1808.7
1035.654	1712.44
1035.819	2156.85
1035.984	2097.46
1036.148	1610.04
1036.313	1696.06
1036.478	2240.82
1036.643	1866.04
1036.807	1534.27
1036.972	1536.32
1037.137	2189.62
1037.301	1855.8
1037.466	1489.21
1037.631	1519.93
1037.795	2177.33
1037.96	1880.38
1038.124	1702.2
1038.289	1399.1
1038.454	2009.4
1038.618	1859.9
1038.783	1521.98
1038.947	1542.46
1039.111	1829.18
1039.276	1704.25
1039.44	1409.34
1039.605	1767.74
1039.769	1737.02
1039.933	1829.18
1040.098	1552.7
1040.262	1655.1
1040.426	1876.28
1040.591	1855.8
1040.755	1464.64
1040.919	1493.31
1041.083	1673.53
1041.248	1634.62
1041.412	1118.53
1041.576	1261.89
1041.74	1640.76
1041.904	1866.04
1042.068	1237.31
1042.232	1386.82
1042.397	1810.75
1042.561	1655.1
1042.725	1136.96
1042.889	1454.4
1043.053	1732.92
1043.217	1669.44
1043.381	1321.28
1043.544	1009.99
1043.708	1866.04
1043.872	1442.11
1044.036	995.65
1044.2	1163.59
1044.364	1747.26
1044.528	1913.14
1044.691	5474.56
1044.855	1116.48
1045.019	1896.76
1045.183	1536.32
1045.346	1220.93
1045.51	1040.71
1045.674	1605.95
1045.837	1651
1046.001	1020.23
1046.165	1100.1
1046.328	1845.56
1046.492	1564.99
1046.655	1218.88
1046.819	1128.77
1046.983	1306.95
1047.146	1433.92
1047.31	1087.81
1047.473	938.31
1047.636	1419.58
1047.8	1196.36
1047.963	1077.57
1048.127	958.79
1048.29	1106.24
