Data from Ink_Intensity_USB4F045381__162__00162.txt Node

Date: Mon Jul 17 11:34:40 EDT 2023
User: mmckonesweet
Spectrometer: USB4F04538
Trigger mode: 4
Integration Time (sec): 9.000000E-1
Scans to average: 1
Electric dark correction enabled: true
Nonlinearity correction enabled: false
Boxcar width: 0
XAxis mode: Wavelengths
Number of Pixels in Spectrum: 3648
>>>>>Begin Spectral Data<<<<<
345.52	-1017.16
345.736	-1017.16
345.952	-1017.16
346.168	-957.77
346.384	-955.72
346.6	-132.44
346.816	-197.97
347.032	-179.54
347.248	301.73
347.464	-251.22
347.68	-185.68
347.896	164.52
348.112	414.37
348.328	-83.28
348.544	-87.38
348.76	-1.37
348.975	238.25
349.191	-234.83
349.407	-177.49
349.623	-44.37
349.839	-58.71
350.055	-193.87
350.27	-5.46
350.486	199.34
350.702	332.45
350.918	248.49
351.133	-173.39
351.349	166.57
351.565	410.28
351.781	-243.03
351.996	2.73
352.212	240.3
352.428	-183.63
352.644	-210.26
352.859	-185.68
353.075	240.3
353.291	135.85
353.506	-111.96
353.722	-249.17
353.938	-68.95
354.153	455.33
354.369	160.42
354.584	-292.18
354.8	221.86
355.016	-406.86
355.231	-267.6
355.447	-142.68
355.662	88.75
355.878	772.77
356.093	-386.38
356.309	-30.04
356.524	-236.88
356.74	197.29
356.955	-193.87
357.171	-103.76
357.386	213.67
357.602	-167.25
357.817	-50.52
358.033	-226.64
358.248	330.41
358.464	156.33
358.679	-218.45
358.895	-308.56
359.11	-25.94
359.325	303.78
359.541	19.11
359.756	19.11
359.972	-257.36
360.187	152.23
360.402	-177.49
360.618	-136.53
360.833	963.23
361.048	94.89
361.264	-161.11
361.479	-60.76
361.694	-58.71
361.909	176.81
362.125	-310.61
362.34	-122.2
362.555	260.77
362.77	47.79
362.986	-294.22
363.201	-191.83
363.416	223.91
363.631	-25.94
363.847	-226.64
364.062	-202.07
364.277	170.66
364.492	101.03
364.707	-216.4
364.922	-402.77
365.138	182.95
365.353	354.98
365.568	-263.51
365.783	-175.44
365.998	90.79
366.213	516.77
366.428	-238.93
366.643	8.87
366.858	219.82
367.073	238.25
367.288	-116.05
367.503	-255.31
367.718	103.08
367.933	338.6
368.148	-308.56
368.363	-38.23
368.578	25.26
368.793	379.56
369.008	-154.96
369.223	-202.07
369.438	211.62
369.653	291.49
369.868	-296.27
370.083	-247.12
370.298	39.59
370.513	361.13
370.728	15.02
370.943	-238.93
371.157	-236.88
371.372	449.19
371.587	-259.41
371.802	-226.64
372.017	45.74
372.232	422.56
372.446	-77.14
372.661	-267.6
372.876	76.46
373.091	232.1
373.306	-40.28
373.52	-372.05
373.735	-167.25
373.95	404.13
374.165	-181.59
374.379	-144.72
374.594	-181.59
374.809	166.57
375.023	-64.85
375.238	-273.75
375.453	244.39
375.667	-324.94
375.882	-193.87
376.097	-208.21
376.311	-25.94
376.526	-23.89
376.741	-222.55
376.955	72.36
377.17	488.1
377.384	539.3
377.599	-114
377.813	-292.18
378.028	549.54
378.242	109.22
378.457	-111.96
378.672	-380.24
378.886	21.16
379.101	-73.04
379.315	-382.29
379.53	-204.11
379.744	189.1
379.958	197.29
380.173	-103.76
380.387	-200.02
380.602	117.42
380.816	-148.82
381.031	-224.59
381.245	-245.07
381.459	121.51
381.674	2626.18
381.888	-273.75
382.103	-19.8
382.317	-283.99
382.531	529.06
382.746	-146.77
382.96	-271.7
383.174	-93.52
383.388	400.04
383.603	35.5
383.817	-374.1
384.031	152.23
384.246	434.85
384.46	-46.42
384.674	344.74
384.888	72.36
385.103	-50.52
385.317	-294.22
385.531	-17.75
385.745	316.07
385.959	252.58
386.174	-296.27
386.388	-316.75
386.602	51.88
386.816	-136.53
387.03	-206.16
387.244	-95.57
387.458	49.83
387.672	311.97
387.887	-363.86
388.101	-302.42
388.315	404.13
388.529	80.55
388.743	-144.72
388.957	-247.12
389.171	293.54
389.385	-152.91
389.599	-150.87
389.813	19.11
390.027	187.05
390.241	696.99
390.455	-152.91
390.669	-191.83
390.883	-71
391.097	338.6
391.311	68.27
391.525	-234.83
391.738	217.77
391.952	119.46
392.166	-64.85
392.38	-288.08
392.594	225.96
392.808	330.41
393.022	-146.77
393.236	-161.11
393.449	168.62
393.663	105.13
393.877	-290.13
394.091	-140.63
394.305	-161.11
394.518	-157.01
394.732	-296.27
394.946	-191.83
395.16	342.69
395.373	111.27
395.587	-220.5
395.801	-195.92
396.015	287.4
396.228	101.03
396.442	-365.9
396.656	-456.01
396.869	260.77
397.083	383.65
397.297	-144.72
397.51	-91.48
397.724	332.45
397.938	101.03
398.151	-347.47
398.365	-300.37
398.578	178.86
398.792	371.36
399.005	-3.41
399.219	-226.64
399.433	133.8
399.646	211.62
399.86	-46.42
400.073	17.07
400.287	144.04
400.5	-11.61
400.714	-15.7
400.927	-77.14
401.141	236.2
401.354	1067.67
401.567	178.86
401.781	-259.41
401.994	228.01
402.208	567.97
402.421	-21.85
402.635	-187.73
402.848	-1.37
403.061	344.74
403.275	-34.13
403.488	-193.87
403.701	512.67
403.915	271.01
404.128	-42.32
404.341	-157.01
404.555	82.6
404.768	-50.52
404.981	-5.46
405.195	-185.68
405.408	428.71
405.621	160.42
405.834	-5.46
406.048	-249.17
406.261	350.89
406.474	395.94
406.687	-183.63
406.9	-19.8
407.114	58.03
407.327	182.95
407.54	-286.03
407.753	-372.05
407.966	-148.82
408.179	187.05
408.392	-216.4
408.605	-361.81
408.819	131.75
409.032	187.05
409.245	-202.07
409.458	-11.61
409.671	219.82
409.884	285.35
410.097	-298.32
410.31	64.17
410.523	250.53
410.736	33.45
410.949	-157.01
411.162	-93.52
411.375	377.51
411.588	193.19
411.801	47.79
412.014	-177.49
412.227	-58.71
412.44	-21.85
412.653	-126.29
412.865	-111.96
413.078	189.1
413.291	139.94
413.504	-148.82
413.717	-257.36
413.93	209.58
414.143	-169.3
414.356	-146.77
414.568	-300.37
414.781	289.45
414.994	123.56
415.207	-79.19
415.42	-132.44
415.632	242.34
415.845	559.78
416.058	-343.38
416.271	-306.51
416.483	60.07
416.696	512.67
416.909	-275.79
417.121	-202.07
417.334	236.2
417.547	467.62
417.759	-220.5
417.972	-183.63
418.185	-75.09
418.397	187.05
418.61	-216.4
418.823	-181.59
419.035	266.92
419.248	98.99
419.46	-93.52
419.673	-120.15
419.885	109.22
420.098	-9.56
420.311	-152.91
420.523	-400.72
420.736	234.15
420.948	64.17
421.161	-249.17
421.373	-355.66
421.586	144.04
421.798	-136.53
422.01	-355.66
422.223	-140.63
422.435	-103.76
422.648	180.9
422.86	-187.73
423.073	-281.94
423.285	322.21
423.497	-243.03
423.71	-224.59
423.922	-265.55
424.134	96.94
424.347	404.13
424.559	51.88
424.771	141.99
424.984	15.02
425.196	182.95
425.408	-322.9
425.621	-408.91
425.833	232.1
426.045	348.84
426.257	-376.14
426.47	-173.39
426.682	82.6
426.894	98.99
427.106	-144.72
427.318	-238.93
427.531	-183.63
427.743	240.3
427.955	-283.99
428.167	213.67
428.379	228.01
428.591	-13.65
428.804	-46.42
429.016	-283.99
429.228	10.92
429.44	180.9
429.652	-48.47
429.864	-419.15
430.076	-30.04
430.288	-66.9
430.5	-187.73
430.712	-124.24
430.924	234.15
431.136	-19.8
431.348	-353.62
431.56	-236.88
431.772	6.83
431.984	-38.23
432.196	-337.23
432.408	-179.54
432.62	-103.76
432.832	137.9
433.044	101.03
433.256	-130.39
433.468	119.46
433.679	-245.07
433.891	-331.09
434.103	-13.65
434.315	393.89
434.527	156.33
434.739	-169.3
434.95	-169.3
435.162	215.72
435.374	-116.05
435.586	-210.26
435.798	-169.3
436.009	-265.55
436.221	-34.13
436.433	-218.45
436.645	-62.8
436.856	-122.2
437.068	281.25
437.28	-265.55
437.491	62.12
437.703	137.9
437.915	105.13
438.126	-238.93
438.338	125.61
438.55	-32.08
438.761	164.52
438.973	-206.16
439.184	-195.92
439.396	82.6
439.608	238.25
439.819	-226.64
440.031	-148.82
440.242	197.29
440.454	221.86
440.665	-202.07
440.877	-120.15
441.088	182.95
441.3	-60.76
441.511	-367.95
441.723	-206.16
441.934	225.96
442.146	27.31
442.357	-122.2
442.569	121.51
442.78	80.55
442.991	449.19
443.203	117.42
443.414	-361.81
443.626	332.45
443.837	-130.39
444.048	-308.56
444.26	-353.62
444.471	135.85
444.682	277.16
444.894	-361.81
445.105	-406.86
445.316	172.71
445.528	125.61
445.739	-116.05
445.95	-200.02
446.161	121.51
446.373	230.06
446.584	-202.07
446.795	-267.6
447.006	250.53
447.217	412.32
447.429	-339.28
447.64	-283.99
447.851	250.53
448.062	51.88
448.273	-435.53
448.484	-300.37
448.695	133.8
448.907	-77.14
449.118	-111.96
449.329	-38.23
449.54	-17.75
449.751	-128.34
449.962	-251.22
450.173	-220.5
450.384	277.16
450.595	363.17
450.806	-259.41
451.017	-191.83
451.228	365.22
451.439	305.83
451.65	-216.4
451.861	-460.11
452.072	-253.27
452.283	49.83
452.494	-44.37
452.705	-208.21
452.915	334.5
453.126	86.7
453.337	-126.29
453.548	-114
453.759	248.49
453.97	471.72
454.181	-7.51
454.391	-157.01
454.602	58.03
454.813	162.47
455.024	-171.35
455.235	-154.96
455.445	31.4
455.656	23.21
455.867	-132.44
456.078	-189.78
456.288	-120.15
456.499	154.28
456.71	-316.75
456.921	68.27
457.131	119.46
457.342	68.27
457.553	-122.2
457.763	-218.45
457.974	144.04
458.184	158.38
458.395	-359.76
458.606	-331.09
458.816	273.06
459.027	479.91
459.237	-58.71
459.448	-415.06
459.659	338.6
459.869	629.41
460.08	-462.16
460.29	-169.3
460.501	453.28
460.711	-152.91
460.922	-283.99
461.132	-232.79
461.343	723.62
461.553	-271.7
461.764	-378.19
461.974	-214.35
462.184	246.44
462.395	119.46
462.605	-138.58
462.816	-318.8
463.026	43.69
463.236	295.59
463.447	-343.38
463.657	-206.16
463.867	154.28
464.078	-103.76
464.288	-144.72
464.498	-200.02
464.709	-1.37
464.919	-25.94
465.129	-181.59
465.339	-275.79
465.55	150.18
465.76	246.44
465.97	-218.45
466.18	-353.62
466.391	291.49
466.601	170.66
466.811	-97.62
467.021	-324.94
467.231	-11.61
467.441	297.64
467.651	-202.07
467.862	-435.53
468.072	-1.37
468.282	371.36
468.492	-290.13
468.702	-202.07
468.912	0.68
469.122	567.97
469.332	101.03
469.542	-281.94
469.752	279.21
469.962	53.93
470.172	-290.13
470.382	-306.51
470.592	256.68
470.802	303.78
471.012	-77.14
471.222	-288.08
471.432	152.23
471.642	248.49
471.852	-157.01
472.062	-308.56
472.272	-68.95
472.482	-263.51
472.691	-384.34
472.901	-324.94
473.111	72.36
473.321	418.47
473.531	-288.08
473.741	-157.01
473.95	144.04
474.16	217.77
474.37	-148.82
474.58	-333.14
474.79	424.61
474.999	234.15
475.209	-316.75
475.419	-283.99
475.628	-48.47
475.838	273.06
476.048	-185.68
476.258	-404.82
476.467	301.73
476.677	-54.61
476.886	-75.09
477.096	-206.16
477.306	-165.2
477.515	287.4
477.725	-206.16
477.935	-165.2
478.144	412.32
478.354	-46.42
478.563	-267.6
478.773	-255.31
478.982	160.42
479.192	240.3
479.401	-202.07
479.611	-296.27
479.82	-111.96
480.03	76.46
480.239	-333.14
480.449	-390.48
480.658	379.56
480.868	-126.29
481.077	-167.25
481.287	-300.37
481.496	86.7
481.705	363.17
481.915	-27.99
482.124	51.88
482.333	92.84
482.543	389.8
482.752	-181.59
482.961	-296.27
483.171	152.23
483.38	-32.08
483.589	-202.07
483.799	-314.7
484.008	-27.99
484.217	236.2
484.426	-189.78
484.636	-386.38
484.845	51.88
485.054	-271.7
485.263	41.64
485.472	-216.4
485.682	395.94
485.891	31.4
486.1	-456.01
486.309	-210.26
486.518	217.77
486.727	365.22
486.936	-374.1
487.146	-95.57
487.355	381.6
487.564	-193.87
487.773	-191.83
487.982	-238.93
488.191	-146.77
488.4	-54.61
488.609	-292.18
488.818	-255.31
489.027	559.78
489.236	285.35
489.445	-220.5
489.654	-275.79
489.863	135.85
490.072	35.5
490.281	101.03
490.49	-220.5
490.698	371.36
490.907	346.79
491.116	-220.5
491.325	-347.47
491.534	375.46
491.743	80.55
491.952	-161.11
492.16	-154.96
492.369	109.22
492.578	236.2
492.787	-251.22
492.996	-288.08
493.204	-75.09
493.413	432.8
493.622	-435.53
493.831	-470.35
494.039	449.19
494.248	-263.51
494.457	-210.26
494.665	-324.94
494.874	178.86
495.083	565.92
495.291	-173.39
495.5	-302.42
495.709	254.63
495.917	113.32
496.126	-114
496.335	-275.79
496.543	-50.52
496.752	37.55
496.96	78.51
497.169	-443.73
497.377	101.03
497.586	316.07
497.794	-152.91
498.003	-490.83
498.211	31.4
498.42	365.22
498.628	-116.05
498.837	-320.85
499.045	115.37
499.254	43.69
499.462	-302.42
499.671	-279.89
499.879	408.23
500.087	182.95
500.296	-277.84
500.504	-161.11
500.713	39.59
500.921	551.59
501.129	-306.51
501.338	-263.51
501.546	66.22
501.754	6.83
501.962	-275.79
502.171	-349.52
502.379	101.03
502.587	416.42
502.795	-154.96
503.004	-249.17
503.212	70.31
503.42	250.53
503.628	-247.12
503.837	-169.3
504.045	172.71
504.253	424.61
504.461	-292.18
504.669	-447.82
504.877	80.55
505.085	422.56
505.294	-337.23
505.502	-46.42
505.71	101.03
505.918	172.71
506.126	-300.37
506.334	-283.99
506.542	-62.8
506.75	39.59
506.958	-105.81
507.166	-230.74
507.374	-21.85
507.582	527.01
507.79	-83.28
507.998	-316.75
508.206	121.51
508.414	129.7
508.622	-359.76
508.83	-152.91
509.037	387.75
509.245	-56.66
509.453	-249.17
509.661	-279.89
509.869	135.85
510.077	8.87
510.285	-120.15
510.492	-507.21
510.7	537.25
510.908	-85.33
511.116	-251.22
511.324	-283.99
511.531	-21.85
511.739	29.35
511.947	-99.67
512.155	15.02
512.362	107.18
512.57	-267.6
512.778	-316.75
512.985	-415.06
513.193	297.64
513.401	432.8
513.608	-191.83
513.816	-296.27
514.024	217.77
514.231	297.64
514.439	-243.03
514.646	-228.69
514.854	187.05
515.061	334.5
515.269	-257.36
515.477	-275.79
515.684	-152.91
515.892	307.88
516.099	-353.62
516.307	-466.25
516.514	217.77
516.722	383.65
516.929	-292.18
517.136	-273.75
517.344	344.74
517.551	178.86
517.759	-382.29
517.966	-265.55
518.173	-85.33
518.381	-11.61
518.588	-181.59
518.796	-279.89
519.003	211.62
519.21	-38.23
519.418	-322.9
519.625	-36.18
519.832	23.21
520.039	158.38
520.247	-431.44
520.454	-185.68
520.661	207.53
520.868	162.47
521.076	-222.55
521.283	-152.91
521.49	656.03
521.697	121.51
521.904	-200.02
522.112	-150.87
522.319	268.97
522.526	197.29
522.733	-322.9
522.94	-304.46
523.147	-5.46
523.354	244.39
523.561	-308.56
523.768	-185.68
523.975	264.87
524.183	31.4
524.39	-275.79
524.597	-431.44
524.804	-7.51
525.011	-214.35
525.218	-267.6
525.425	-255.31
525.632	393.89
525.838	-122.2
526.045	-326.99
526.252	-329.04
526.459	1077.91
526.666	821.92
526.873	-265.55
527.08	-308.56
527.287	404.13
527.494	168.62
527.701	-351.57
527.907	-275.79
528.114	203.43
528.321	-23.89
528.528	-259.41
528.735	-279.89
528.941	-17.75
529.148	-140.63
529.355	-224.59
529.562	-259.41
529.768	357.03
529.975	-75.09
530.182	-142.68
530.388	-283.99
530.595	281.25
530.802	-222.55
531.008	-97.62
531.215	-304.46
531.422	469.67
531.628	780.96
531.835	-159.06
532.042	-271.7
532.248	-107.86
532.455	-56.66
532.661	-210.26
532.868	-310.61
533.074	141.99
533.281	191.14
533.487	-247.12
533.694	-320.85
533.9	-177.49
534.107	180.9
534.313	-298.32
534.52	-335.18
534.726	232.1
534.933	441
535.139	-372.05
535.345	-433.49
535.552	123.56
535.758	-62.8
535.965	-236.88
536.171	-263.51
536.377	201.38
536.584	293.54
536.79	-281.94
536.996	-83.28
537.203	41.64
537.409	250.53
537.615	-300.37
537.821	-206.16
538.028	297.64
538.234	176.81
538.44	-259.41
538.646	-128.34
538.853	174.76
539.059	-46.42
539.265	80.55
539.471	-578.89
539.677	342.69
539.883	10.92
540.09	-365.9
540.296	162.47
540.502	-68.95
540.708	-103.76
540.914	-159.06
541.12	-259.41
541.326	148.14
541.532	31.4
541.738	-87.38
541.944	-216.4
542.15	238.25
542.356	21.16
542.562	-365.9
542.768	-107.86
542.974	694.94
543.18	529.06
543.386	-197.97
543.592	-544.08
543.798	354.98
544.004	350.89
544.21	-267.6
544.415	-144.72
544.621	127.66
544.827	303.78
545.033	-339.28
545.239	-71
545.445	-181.59
545.651	150.18
545.856	-300.37
546.062	-257.36
546.268	-44.37
546.474	72.36
546.679	-191.83
546.885	-157.01
547.091	-83.28
547.297	576.16
547.502	-136.53
547.708	-337.23
547.914	-93.52
548.119	207.53
548.325	-337.23
548.531	-306.51
548.736	430.76
548.942	-134.48
549.147	-240.98
549.353	-5.46
549.559	293.54
549.764	193.19
549.97	-275.79
550.175	-206.16
550.381	215.72
550.586	-38.23
550.792	-224.59
550.997	-181.59
551.203	152.23
551.408	230.06
551.614	-308.56
551.819	-316.75
552.025	481.96
552.23	510.63
552.435	-343.38
552.641	-85.33
552.846	-152.91
553.052	334.5
553.257	-107.86
553.462	-179.54
553.668	-142.68
553.873	254.63
554.078	-253.27
554.283	-292.18
554.489	88.75
554.694	12.97
554.899	-359.76
555.105	-17.75
555.31	141.99
555.515	144.04
555.72	-179.54
555.925	-279.89
556.131	135.85
556.336	-3.41
556.541	-263.51
556.746	-304.46
556.951	389.8
557.156	447.14
557.361	-136.53
557.567	-136.53
557.772	529.06
557.977	289.45
558.182	-294.22
558.387	-257.36
558.592	-50.52
558.797	432.8
559.002	-148.82
559.207	-120.15
559.412	72.36
559.617	508.58
559.822	-255.31
560.027	-267.6
560.232	62.12
560.437	334.5
560.642	-390.48
560.847	-353.62
561.051	109.22
561.256	219.82
561.461	-177.49
561.666	-357.71
561.871	107.18
562.076	160.42
562.281	-204.11
562.485	-349.52
562.69	283.3
562.895	275.11
563.1	-234.83
563.305	-320.85
563.509	402.08
563.714	582.31
563.919	-292.18
564.123	-249.17
564.328	70.31
564.533	365.22
564.737	-197.97
564.942	-177.49
565.147	506.53
565.351	563.87
565.556	-116.05
565.761	-202.07
565.965	144.04
566.17	-85.33
566.374	-179.54
566.579	-326.99
566.784	31.4
566.988	-34.13
567.193	-394.58
567.397	-230.74
567.602	-222.55
567.806	35.5
568.011	-255.31
568.215	-152.91
568.42	35.5
568.624	19.11
568.828	-208.21
569.033	-21.85
569.237	213.67
569.442	168.62
569.646	-390.48
569.85	-216.4
570.055	168.62
570.259	144.04
570.463	-46.42
570.668	-118.1
570.872	111.27
571.076	47.79
571.281	-91.48
571.485	-101.72
571.689	121.51
571.893	199.34
572.098	-58.71
572.302	-167.25
572.506	248.49
572.71	70.31
572.914	-236.88
573.119	-177.49
573.323	477.86
573.527	350.89
573.731	-208.21
573.935	-263.51
574.139	191.14
574.343	-66.9
574.547	-251.22
574.751	-173.39
574.955	434.85
575.159	373.41
575.364	-259.41
575.568	-361.81
575.772	103.08
575.976	348.84
576.18	-292.18
576.383	-357.71
576.587	428.71
576.791	273.06
576.995	-435.53
577.199	-370
577.403	365.22
577.607	264.87
577.811	-329.04
578.015	-111.96
578.219	129.7
578.422	258.73
578.626	-83.28
578.83	-54.61
579.034	404.13
579.238	174.76
579.442	-267.6
579.645	207.53
579.849	98.99
580.053	141.99
580.257	-142.68
580.46	-169.3
580.664	342.69
580.868	238.25
581.071	-32.08
581.275	-85.33
581.479	-175.44
581.682	295.59
581.886	-204.11
582.09	-95.57
582.293	262.82
582.497	195.24
582.7	-13.65
582.904	-281.94
583.107	127.66
583.311	90.79
583.515	-116.05
583.718	-66.9
583.922	252.58
584.125	481.96
584.329	-220.5
584.532	-30.04
584.735	438.95
584.939	193.19
585.142	-304.46
585.346	-173.39
585.549	150.18
585.753	35.5
585.956	-109.91
586.159	-54.61
586.363	518.82
586.566	180.9
586.769	-191.83
586.973	-173.39
587.176	256.68
587.379	322.21
587.582	166.57
587.786	60.07
587.989	31.4
588.192	721.57
588.395	-132.44
588.599	160.42
588.802	207.53
589.005	303.78
589.208	-210.26
589.411	-140.63
589.615	354.98
589.818	524.96
590.021	111.27
590.224	-52.56
590.427	381.6
590.63	291.49
590.833	-359.76
591.036	-200.02
591.239	31.4
591.442	17.07
591.645	96.94
591.848	-281.94
592.051	234.15
592.254	361.13
592.457	-66.9
592.66	-124.24
592.863	203.43
593.066	307.88
593.269	-138.58
593.472	-85.33
593.675	-124.24
593.878	371.36
594.081	-42.32
594.284	-277.84
594.486	260.77
594.689	129.7
594.892	-32.08
595.095	-52.56
595.298	332.45
595.5	90.79
595.703	-48.47
595.906	-38.23
596.109	488.1
596.311	352.93
596.514	-464.21
596.717	-85.33
596.92	459.43
597.122	266.92
597.325	-300.37
597.528	-193.87
597.73	406.18
597.933	187.05
598.136	-79.19
598.338	-382.29
598.541	260.77
598.743	381.6
598.946	-165.2
599.148	-165.2
599.351	463.52
599.554	371.36
599.756	6.83
599.959	-111.96
600.161	441
600.363	750.24
600.566	117.42
600.768	-46.42
600.971	567.97
601.173	348.84
601.376	-81.24
601.578	-54.61
601.78	211.62
601.983	742.05
602.185	-191.83
602.388	60.07
602.59	250.53
602.792	45.74
602.995	39.59
603.197	-87.38
603.399	420.52
603.601	293.54
603.804	-120.15
604.006	-202.07
604.208	154.28
604.41	-224.59
604.613	150.18
604.815	-85.33
605.017	740
605.219	12.97
605.421	211.62
605.623	-189.78
605.826	498.34
606.028	576.16
606.23	-19.8
606.432	-42.32
606.634	608.93
606.836	520.87
607.038	-152.91
607.24	156.33
607.442	273.06
607.644	264.87
607.846	-7.51
608.048	-126.29
608.25	447.14
608.452	166.57
608.654	-44.37
608.856	-290.13
609.058	121.51
609.26	256.68
609.462	-9.56
609.664	-13.65
609.866	703.14
610.067	514.72
610.269	168.62
610.471	-50.52
610.673	113.32
610.875	430.76
611.077	-259.41
611.278	15.02
611.48	203.43
611.682	649.89
611.884	-52.56
612.085	-85.33
612.287	-34.13
612.489	334.5
612.69	-294.22
612.892	51.88
613.094	549.54
613.295	221.86
613.497	-79.19
613.699	-87.38
613.9	594.59
614.102	445.09
614.304	-52.56
614.505	-200.02
614.707	238.25
614.908	191.14
615.11	-109.91
615.311	-38.23
615.513	383.65
615.714	449.19
615.916	-185.68
616.117	39.59
616.319	240.3
616.52	408.23
616.722	-87.38
616.923	-99.67
617.124	539.3
617.326	309.93
617.527	-9.56
617.729	191.14
617.93	348.84
618.131	475.81
618.333	-25.94
618.534	-17.75
618.735	45.74
618.937	649.89
619.138	-134.48
619.339	-109.91
619.54	334.5
619.742	172.71
619.943	119.46
620.144	53.93
620.345	457.38
620.546	504.48
620.748	-89.43
620.949	33.45
621.15	234.15
621.351	311.97
621.552	-97.62
621.753	-87.38
621.954	-136.53
622.155	690.85
622.356	-157.01
622.558	162.47
622.759	133.8
622.96	742.05
623.161	15.02
623.362	-1.37
623.563	250.53
623.764	285.35
623.965	2.73
624.166	197.29
624.366	158.38
624.567	297.64
624.768	-263.51
624.969	-15.7
625.17	82.6
625.371	463.52
625.572	72.36
625.773	-95.57
625.973	477.86
626.174	531.11
626.375	109.22
626.576	162.47
626.777	447.14
626.977	860.83
627.178	-9.56
627.379	125.61
627.58	258.73
627.78	285.35
627.981	135.85
628.182	158.38
628.382	551.59
628.583	-13.65
628.784	-116.05
628.984	94.89
629.185	445.09
629.386	422.56
629.586	101.03
629.787	-107.86
629.987	520.87
630.188	328.36
630.388	53.93
630.589	21.16
630.79	846.49
630.99	318.12
631.191	105.13
631.391	133.8
631.591	481.96
631.792	725.66
631.992	162.47
632.193	37.55
632.393	690.85
632.594	303.78
632.794	47.79
632.994	78.51
633.195	254.63
633.395	309.93
633.595	68.27
633.796	402.08
633.996	82.6
634.196	598.69
634.397	-157.01
634.597	156.33
634.797	178.86
634.997	733.86
635.198	297.64
635.398	-44.37
635.598	410.28
635.798	690.85
635.998	361.13
636.199	-21.85
636.399	199.34
636.599	68.27
636.799	109.22
636.999	248.49
637.199	506.53
637.399	600.74
637.599	76.46
637.799	182.95
637.999	170.66
638.199	719.52
638.399	29.35
638.599	119.46
638.799	512.67
638.999	830.11
639.199	273.06
639.399	205.48
639.599	752.29
639.799	133.8
639.999	-21.85
640.199	35.5
640.399	432.8
640.599	559.78
640.799	170.66
640.998	252.58
641.198	729.76
641.398	541.35
641.598	215.72
641.798	135.85
641.997	1305.24
642.197	381.6
642.397	236.2
642.597	74.41
642.796	506.53
642.996	701.09
643.196	311.97
643.395	101.03
643.595	504.48
643.795	62.12
643.994	121.51
644.194	221.86
644.394	608.93
644.593	408.23
644.793	19.11
644.992	213.67
645.192	473.76
645.392	-34.13
645.591	299.69
645.791	189.1
645.99	557.73
646.19	305.83
646.389	287.4
646.589	211.62
646.788	561.83
646.987	580.26
647.187	395.94
647.386	373.41
647.586	422.56
647.785	549.54
647.984	223.91
648.184	248.49
648.383	336.55
648.582	293.54
648.782	154.28
648.981	322.21
649.18	262.82
649.38	496.29
649.579	187.05
649.778	92.84
649.977	567.97
650.177	404.13
650.376	150.18
650.575	178.86
650.774	803.49
650.973	182.95
651.173	49.83
651.372	324.26
651.571	498.34
651.77	670.37
651.969	242.34
652.168	383.65
652.367	137.9
652.566	473.76
652.765	117.42
652.964	578.21
653.163	971.42
653.362	475.81
653.561	258.73
653.76	246.44
653.959	393.89
654.158	576.16
654.357	432.8
654.556	238.25
654.755	551.59
654.954	637.6
655.153	309.93
655.352	322.21
655.551	731.81
655.749	275.11
655.948	236.2
656.147	342.69
656.346	541.35
656.545	422.56
656.743	305.83
656.942	416.42
657.141	496.29
657.34	248.49
657.538	342.69
657.737	211.62
657.936	375.46
658.135	635.55
658.333	195.24
658.532	350.89
658.731	899.74
658.929	764.57
659.128	533.15
659.326	207.53
659.525	797.34
659.724	430.76
659.922	64.17
660.121	137.9
660.319	537.25
660.518	289.45
660.716	154.28
660.915	228.01
661.113	813.73
661.312	279.21
661.51	305.83
661.709	199.34
661.907	742.05
662.105	912.03
662.304	258.73
662.502	273.06
662.701	846.49
662.899	459.43
663.097	543.39
663.296	139.94
663.494	791.2
663.692	895.64
663.891	244.39
664.089	199.34
664.287	598.69
664.485	817.82
664.684	297.64
664.882	316.07
665.08	551.59
665.278	498.34
665.476	135.85
665.675	527.01
665.873	1002.14
666.071	877.21
666.269	264.87
666.467	504.48
666.665	543.39
666.863	445.09
667.061	410.28
667.259	254.63
667.457	496.29
667.655	826.01
667.853	187.05
668.051	449.19
668.249	352.93
668.447	821.92
668.645	209.58
668.843	578.21
669.041	633.5
669.239	486.05
669.437	357.03
669.635	406.18
669.833	424.61
670.031	725.66
670.229	445.09
670.426	395.94
670.624	500.39
670.822	430.76
671.02	305.83
671.218	340.65
671.415	314.02
671.613	559.78
671.811	383.65
672.009	363.17
672.206	817.82
672.404	570.02
672.602	555.68
672.799	441
672.997	707.23
673.195	893.6
673.392	402.08
673.59	223.91
673.788	852.64
673.985	86.7
674.183	434.85
674.38	453.28
674.578	803.49
674.775	471.72
674.973	314.02
675.17	281.25
675.368	985.76
675.565	696.99
675.763	352.93
675.96	248.49
676.158	871.07
676.355	586.4
676.553	379.56
676.75	416.42
676.947	537.25
677.145	606.88
677.342	524.96
677.539	461.48
677.737	658.08
677.934	1104.54
678.131	664.22
678.329	328.36
678.526	1071.77
678.723	748.19
678.92	432.8
679.118	430.76
679.315	445.09
679.512	993.95
679.709	373.41
679.906	463.52
680.104	830.11
680.301	735.9
680.498	309.93
680.695	297.64
680.892	535.2
681.089	539.3
681.286	510.63
681.483	350.89
681.68	774.81
681.877	871.07
682.075	430.76
682.272	678.56
682.469	760.48
682.665	574.11
682.862	432.8
683.059	236.2
683.256	711.33
683.453	631.46
683.65	600.74
683.847	430.76
684.044	653.98
684.241	500.39
684.438	570.02
684.635	436.9
684.831	1127.07
685.028	1141.4
685.225	414.37
685.422	574.11
685.619	711.33
685.815	651.94
686.012	514.72
686.209	488.1
686.405	461.48
686.602	821.92
686.799	320.17
686.996	404.13
687.192	412.32
687.389	1204.89
687.586	332.45
687.782	471.72
687.979	1036.95
688.175	938.65
688.372	590.5
688.568	492.2
688.765	514.72
688.962	1010.33
689.158	602.79
689.355	301.73
689.551	846.49
689.748	502.43
689.944	541.35
690.14	387.75
690.337	909.98
690.533	608.93
690.73	686.75
690.926	537.25
691.123	840.35
691.319	692.9
691.515	397.99
691.712	641.7
691.908	879.26
692.104	834.21
692.301	600.74
692.497	342.69
692.693	936.6
692.889	862.88
693.086	727.71
693.282	283.3
693.478	793.25
693.674	1184.41
693.87	516.77
694.067	357.03
694.263	856.73
694.459	649.89
694.655	658.08
694.851	721.57
695.047	795.29
695.243	924.32
695.439	676.51
695.635	385.7
695.831	881.31
696.027	752.29
696.224	455.33
696.42	842.4
696.615	1088.15
696.811	961.18
697.007	453.28
697.203	469.67
697.399	742.05
697.595	1077.91
697.791	471.72
697.987	586.4
698.183	445.09
698.379	606.88
698.575	467.62
698.77	608.93
698.966	955.04
699.162	1055.39
699.358	631.46
699.554	606.88
699.749	897.69
699.945	969.37
700.141	680.61
700.337	631.46
700.532	803.49
700.728	592.55
700.924	381.6
701.119	397.99
701.315	973.47
701.511	717.47
701.706	701.09
701.902	338.6
702.097	764.57
702.293	948.89
702.489	549.54
702.684	522.91
702.88	791.2
703.075	621.22
703.271	551.59
703.466	416.42
703.662	744.1
703.857	961.18
704.053	504.48
704.248	563.87
704.443	996
704.639	975.52
704.834	594.59
705.03	508.58
705.225	1026.71
705.42	1108.63
705.616	774.81
705.811	543.39
706.006	705.18
706.202	672.42
706.397	758.43
706.592	463.52
706.787	758.43
706.983	858.78
707.178	901.79
707.373	715.42
707.568	1051.29
707.763	1055.39
707.959	625.31
708.154	561.83
708.349	897.69
708.544	998.04
708.739	850.59
708.934	494.24
709.129	1045.15
709.324	1174.17
709.519	486.05
709.714	494.24
709.909	1108.63
710.104	1028.76
710.299	613.03
710.494	635.55
710.689	1024.67
710.884	864.93
711.079	694.94
711.274	834.21
711.469	1034.91
711.664	899.74
711.859	629.41
712.054	787.1
712.249	1006.24
712.443	1157.78
712.638	535.2
712.833	586.4
713.028	895.64
713.223	797.34
713.417	899.74
713.612	588.45
713.807	1032.86
714.002	1372.82
714.196	793.25
714.391	576.16
714.586	1139.35
714.78	826.01
714.975	662.18
715.17	574.11
715.364	864.93
715.559	1178.26
715.754	391.84
715.948	635.55
716.143	1346.2
716.337	957.08
716.532	961.18
716.726	670.37
716.921	1057.43
717.115	1333.91
717.31	535.2
717.504	1145.5
717.699	778.91
717.893	1096.35
718.088	535.2
718.282	506.53
718.476	1039
718.671	1041.05
718.865	563.87
719.059	756.38
719.254	858.78
719.448	1235.61
719.642	2075.27
719.837	445.09
720.031	1139.35
720.225	1125.02
720.419	840.35
720.614	758.43
720.808	1122.97
721.002	907.93
721.196	619.17
721.39	707.23
721.585	1251.99
721.779	977.56
721.973	731.81
722.167	557.73
722.361	1129.11
722.555	1172.12
722.749	674.46
722.943	750.24
723.137	764.57
723.331	965.28
723.525	744.1
723.719	832.16
723.913	1018.52
724.107	1247.9
724.301	711.33
724.495	871.07
724.689	1348.25
724.883	1290.9
725.077	631.46
725.271	742.05
725.465	1288.86
725.659	973.47
725.853	715.42
726.046	606.88
726.24	891.55
726.434	1268.38
726.628	670.37
726.822	746.14
727.015	1225.37
727.209	1247.9
727.403	664.22
727.596	600.74
727.79	1184.41
727.984	1141.4
728.177	731.81
728.371	783.01
728.565	1268.38
728.758	694.94
728.952	744.1
729.146	682.66
729.339	1213.08
729.533	1006.24
729.726	746.14
729.92	553.63
730.113	1360.53
730.307	1088.15
730.5	666.27
730.694	733.86
730.887	979.61
731.081	1190.55
731.274	647.84
731.468	852.64
731.661	993.95
731.854	883.36
732.048	832.16
732.241	707.23
732.435	881.31
732.628	1204.89
732.821	846.49
733.014	699.04
733.208	811.68
733.401	1075.87
733.594	727.71
733.788	813.73
733.981	1485.46
734.174	1108.63
734.367	750.24
734.56	852.64
734.754	1295
734.947	1075.87
735.14	805.53
735.333	934.56
735.526	1305.24
735.719	897.69
735.912	774.81
736.105	660.13
736.298	1041.05
736.491	983.71
736.684	752.29
736.877	805.53
737.07	1030.81
737.263	1495.7
737.456	811.68
737.649	731.81
737.842	922.27
738.035	1104.54
738.228	914.08
738.421	909.98
738.614	1421.97
738.807	1331.86
739	709.28
739.192	694.94
739.385	1239.7
739.578	1325.72
739.771	1071.77
739.964	797.34
740.156	1213.08
740.349	963.23
740.542	1020.57
740.735	723.62
740.927	762.53
741.12	858.78
741.313	727.71
741.505	930.46
741.698	1200.79
741.891	1157.78
742.083	1008.28
742.276	778.91
742.468	1059.48
742.661	1006.24
742.854	901.79
743.046	789.15
743.239	1507.99
743.431	1075.87
743.624	920.22
743.816	723.62
744.009	1108.63
744.201	1280.66
744.393	1100.44
744.586	797.34
744.778	1311.38
744.971	1174.17
745.163	983.71
745.355	989.85
745.548	1139.35
745.74	989.85
745.932	897.69
746.125	899.74
746.317	1716.88
746.509	1206.94
746.702	969.37
746.894	897.69
747.086	1170.07
747.278	1456.79
747.471	1051.29
747.663	967.32
747.855	1151.64
748.047	1503.89
748.239	875.17
748.431	856.73
748.623	1581.71
748.815	1473.17
749.008	789.15
749.2	858.78
749.392	1327.77
749.584	1444.5
749.776	998.04
749.968	1014.43
750.16	1518.23
750.352	1151.64
750.544	959.13
750.736	856.73
750.928	1241.75
751.12	1133.21
751.311	961.18
751.503	969.37
751.695	1239.7
751.887	1307.29
752.079	805.53
752.271	971.42
752.463	2009.74
752.654	1399.45
752.846	1024.67
753.038	899.74
753.23	1026.71
753.421	1338.01
753.613	1006.24
753.805	1065.63
753.997	1432.21
754.188	1395.35
754.38	887.45
754.572	901.79
754.763	1075.87
754.955	1280.66
755.146	924.32
755.338	1051.29
755.53	1354.39
755.721	1170.07
755.913	830.11
756.104	869.02
756.296	1157.78
756.487	1387.16
756.679	823.97
756.87	903.84
757.062	1194.65
757.253	1266.33
757.445	1059.48
757.636	1184.41
757.827	1149.59
758.019	1854.09
758.21	860.83
758.401	977.56
758.593	1682.06
758.784	1657.49
758.975	774.81
759.167	887.45
759.358	1194.65
759.549	1477.27
759.74	936.6
759.932	1010.33
760.123	1462.93
760.314	1034.91
760.505	1116.83
760.696	924.32
760.888	1573.52
761.079	1129.11
761.27	901.79
761.461	772.77
761.652	1550.99
761.843	1122.97
762.034	944.8
762.225	1227.42
762.416	1303.19
762.607	1090.2
762.798	1010.33
762.989	873.12
763.18	2005.64
763.371	1075.87
763.562	1020.57
763.753	1026.71
763.944	1469.08
764.135	1520.28
764.326	1100.44
764.517	1002.14
764.708	1258.14
764.899	1444.5
765.089	1032.86
765.28	842.4
765.471	1157.78
765.662	1383.06
765.853	1108.63
766.043	912.03
766.234	1479.32
766.425	1411.73
766.615	985.76
766.806	875.17
766.997	1499.8
767.187	1346.2
767.378	909.98
767.569	858.78
767.759	1383.06
767.95	1338.01
768.141	1122.97
768.331	924.32
768.522	1272.47
768.712	1442.45
768.903	864.93
769.093	987.8
769.284	1641.11
769.474	1307.29
769.665	748.19
769.855	770.72
770.046	1356.44
770.236	1204.89
770.426	1192.6
770.617	942.75
770.807	1432.21
770.998	1364.63
771.188	1309.33
771.378	979.61
771.569	1430.16
771.759	1473.17
771.949	916.12
772.139	756.38
772.33	1362.58
772.52	1624.72
772.71	920.22
772.9	875.17
773.09	1600.15
773.281	1641.11
773.471	1065.63
773.661	985.76
773.851	1507.99
774.041	1184.41
774.231	975.52
774.421	1069.72
774.611	1655.44
774.802	1237.66
774.992	1147.55
775.182	955.04
775.372	1344.15
775.562	1536.66
775.752	957.08
775.942	1010.33
776.131	1616.53
776.321	1514.13
776.511	942.75
776.701	940.7
776.891	1477.27
777.081	1057.43
777.271	1092.25
777.461	938.65
777.651	1467.03
777.84	1499.8
778.03	1100.44
778.22	936.6
778.41	1632.91
778.599	1104.54
778.789	1084.06
778.979	905.88
779.169	1348.25
779.358	1370.77
779.548	1237.66
779.738	877.21
779.927	1446.55
780.117	1108.63
780.307	1002.14
780.496	754.34
780.686	1462.93
780.875	1782.42
781.065	1108.63
781.254	1036.95
781.444	1362.58
781.633	1401.49
781.823	973.47
782.012	832.16
782.202	1141.4
782.391	1284.76
782.581	936.6
782.77	1338.01
782.96	1475.22
783.149	1231.51
783.338	1026.71
783.528	828.06
783.717	1583.76
783.906	1520.28
784.096	1133.21
784.285	932.51
784.474	1313.43
784.663	1211.03
784.853	1112.73
785.042	1063.58
785.231	1225.37
785.42	1505.94
785.61	1108.63
785.799	987.8
785.988	1268.38
786.177	1270.42
786.366	1118.87
786.555	1155.74
786.744	1569.43
786.933	1321.62
787.122	932.51
787.312	830.11
787.501	1086.11
787.69	1495.7
787.879	1024.67
788.068	1098.39
788.257	1079.96
788.445	1165.98
788.634	1026.71
788.823	805.53
789.012	1919.63
789.201	1665.68
789.39	1120.92
789.579	971.42
789.768	1323.67
789.957	1307.29
790.145	1039
790.334	862.88
790.523	1272.47
790.712	1299.09
790.9	1153.69
791.089	891.55
791.278	1561.23
791.467	1180.31
791.655	1315.48
791.844	1536.66
792.033	1235.61
792.221	1251.99
792.41	1092.25
792.599	1049.24
792.787	1550.99
792.976	1479.32
793.164	912.03
793.353	1094.3
793.541	1507.99
793.73	1364.63
793.918	1165.98
794.107	1022.62
794.295	1270.42
794.484	1381.01
794.672	1139.35
794.861	1051.29
795.049	1407.64
795.238	1698.45
795.426	938.65
795.614	1206.94
795.803	1401.49
795.991	1825.42
796.179	1014.43
796.368	1067.67
796.556	1714.83
796.744	1084.06
796.932	1000.09
797.121	944.8
797.309	1321.62
797.497	1538.71
797.685	1198.74
797.874	1028.76
798.062	1280.66
798.25	1594
798.438	1004.19
798.626	1112.73
798.814	1499.8
799.002	1895.05
799.19	1235.61
799.378	1192.6
799.566	1610.39
799.755	1690.26
799.943	1266.33
800.131	1102.49
800.318	1419.92
800.506	1405.59
800.694	1116.83
800.882	1180.31
801.07	1630.87
801.258	1323.67
801.446	1157.78
801.634	1057.43
801.822	1409.69
802.01	1426.07
802.197	1071.77
802.385	1268.38
802.573	1348.25
802.761	1159.83
802.949	1100.44
803.136	1010.33
803.324	1641.11
803.512	1335.96
803.699	1227.42
803.887	977.56
804.075	1708.69
804.262	1299.09
804.45	998.04
804.638	1215.13
804.825	1266.33
805.013	1311.38
805.201	1233.56
805.388	1059.48
805.576	1460.88
805.763	1794.7
805.951	1122.97
806.138	1256.09
806.326	1913.49
806.513	1604.24
806.701	1157.78
806.888	998.04
807.075	1464.98
807.263	1907.34
807.45	1170.07
807.638	1266.33
807.825	1983.12
808.012	1600.15
808.2	1227.42
808.387	1401.49
808.574	1653.39
808.761	1776.27
808.949	1120.92
809.136	1313.43
809.323	1446.55
809.51	1430.16
809.698	1514.13
809.885	1378.97
810.072	1550.99
810.259	1665.68
810.446	1272.47
810.633	1180.31
810.82	1829.52
811.008	1782.42
811.195	1469.08
811.382	1237.66
811.569	1452.69
811.756	1182.36
811.943	1303.19
812.13	1395.35
812.317	1426.07
812.504	1383.06
812.691	1405.59
812.878	1426.07
813.064	1817.23
813.251	1561.23
813.438	1163.93
813.625	1510.04
813.812	1438.36
813.999	1462.93
814.186	1288.86
814.372	1233.56
814.559	1526.42
814.746	1839.76
814.933	1315.48
815.12	1428.12
815.306	1448.6
815.493	1397.4
815.68	1239.7
815.866	1358.49
816.053	1970.83
816.24	2120.33
816.426	1258.14
816.613	1168.02
816.799	1809.04
816.986	1901.2
817.173	1313.43
817.359	1227.42
817.546	1645.2
817.732	1305.24
817.919	1039
818.105	1333.91
818.292	1460.88
818.478	1684.11
818.665	1471.12
818.851	1270.42
819.037	2122.38
819.224	1606.29
819.41	1342.1
819.597	1282.71
819.783	2040.46
819.969	1704.59
820.156	1325.72
820.342	1278.62
820.528	2308.74
820.714	1491.6
820.901	1538.71
821.087	1329.81
821.273	1948.3
821.459	1594
821.646	1217.18
821.832	1264.28
822.018	1630.87
822.204	1600.15
822.39	1333.91
822.576	1176.22
822.762	1723.02
822.948	1614.48
823.134	1510.04
823.32	1284.76
823.507	1440.4
823.693	1641.11
823.879	1755.79
824.065	1364.63
824.25	1624.72
824.436	1450.64
824.622	1430.16
824.808	1264.28
824.994	1452.69
825.18	1419.92
825.366	1141.4
825.552	1313.43
825.738	1565.33
825.923	1739.41
826.109	1618.58
826.295	1260.18
826.481	1493.65
826.667	1413.78
826.852	1452.69
827.038	1350.29
827.224	1804.94
827.409	2060.94
827.595	1206.94
827.781	1528.47
827.966	1716.88
828.152	1878.67
828.338	1299.09
828.523	1272.47
828.709	1372.82
828.894	1839.76
829.08	1325.72
829.266	1184.41
829.451	1415.83
829.637	1710.74
829.822	1446.55
830.008	1290.9
830.193	1919.63
830.378	1974.92
830.564	1469.08
830.749	1243.8
830.935	1632.91
831.12	1882.77
831.305	1266.33
831.491	1411.73
831.676	1346.2
831.861	1784.46
832.047	1399.45
832.232	1092.25
832.417	1878.67
832.602	1661.59
832.788	1305.24
832.973	1215.13
833.158	1604.24
833.343	1569.43
833.528	1374.87
833.714	1493.65
833.899	1632.91
834.084	2103.95
834.269	1424.02
834.454	1415.83
834.639	1784.46
834.824	1677.97
835.009	1550.99
835.194	1606.29
835.379	1772.18
835.564	1989.26
835.749	1514.13
835.934	1348.25
836.119	1837.71
836.304	1559.19
836.489	1415.83
836.674	1567.38
836.859	1452.69
837.044	1882.77
837.228	1407.64
837.413	1208.98
837.598	1608.34
837.783	1888.91
837.968	1338.01
838.152	1270.42
838.337	1260.18
838.522	1895.05
838.707	1766.03
838.891	1577.62
839.076	1839.76
839.261	1862.29
839.445	1399.45
839.63	1505.94
839.815	1997.45
839.999	1589.91
840.184	1397.4
840.368	1473.17
840.553	1800.85
840.737	1792.66
840.922	1305.24
841.106	1186.46
841.291	1430.16
841.475	1637.01
841.66	1335.96
841.844	1247.9
842.029	2368.13
842.213	1387.16
842.397	1385.11
842.582	1174.17
842.766	1874.57
842.951	1845.9
843.135	1473.17
843.319	1391.25
843.504	1817.23
843.688	1847.95
843.872	1284.76
844.056	1309.33
844.241	1841.81
844.425	1686.16
844.609	1575.57
844.793	1292.95
844.977	1870.48
845.161	1837.71
845.346	1350.29
845.53	1456.79
845.714	1573.52
845.898	1962.64
846.082	1184.41
846.266	1413.78
846.45	1755.79
846.634	1735.31
846.818	1266.33
847.002	1524.37
847.186	1809.04
847.37	1450.64
847.554	1264.28
847.738	1563.28
847.922	1817.23
848.106	1718.93
848.29	1264.28
848.473	1397.4
848.657	1895.05
848.841	1665.68
849.025	1350.29
849.209	1202.84
849.392	1841.81
849.576	1579.67
849.76	1055.39
849.944	1374.87
850.127	1905.29
850.311	1370.77
850.495	1198.74
850.678	1231.51
850.862	1886.86
851.046	1929.87
851.229	1704.59
851.413	1227.42
851.596	1696.4
851.78	1698.45
851.964	1516.18
852.147	1378.97
852.331	2345.61
852.514	2001.55
852.698	1497.75
852.881	1190.55
853.065	1778.32
853.248	1628.82
853.431	1600.15
853.615	1516.18
853.798	2118.28
853.982	1751.7
854.165	1542.8
854.348	1366.68
854.532	1514.13
854.715	1452.69
854.898	1505.94
855.081	1399.45
855.265	2003.6
855.448	2001.55
855.631	1346.2
855.814	1448.6
855.997	1878.67
856.181	1618.58
856.364	1499.8
856.547	1249.94
856.73	1870.48
856.913	1610.39
857.096	1272.47
857.279	1428.12
857.462	1563.28
857.645	1893.01
857.828	1495.7
858.011	1452.69
858.194	1553.04
858.377	1831.57
858.56	1315.48
858.743	1501.84
858.926	1464.98
859.109	1878.67
859.292	1288.86
859.475	1335.96
859.658	1946.25
859.841	1768.08
860.023	1358.49
860.206	1239.7
860.389	1739.41
860.572	1933.97
860.755	1440.4
860.937	1376.92
861.12	1647.25
861.303	1630.87
861.486	1370.77
861.668	1260.18
861.851	1821.33
862.034	1688.21
862.216	1534.61
862.399	1182.36
862.581	1733.26
862.764	1991.31
862.947	1405.59
863.129	1376.92
863.312	1432.21
863.494	1903.25
863.677	1651.35
863.859	1149.59
864.042	1847.95
864.224	1995.4
864.406	1442.45
864.589	1194.65
864.771	1704.59
864.954	1407.64
865.136	1331.86
865.318	1125.02
865.501	1723.02
865.683	1217.18
865.865	1278.62
866.048	1383.06
866.23	1729.17
866.412	1626.77
866.594	1211.03
866.777	1395.35
866.959	1747.6
867.141	1559.19
867.323	1677.97
867.505	1501.84
867.687	1596.05
867.869	1628.82
868.052	1430.16
868.234	1247.9
868.416	1577.62
868.598	1804.94
868.78	1385.11
868.962	1286.81
869.144	1899.15
869.326	1815.18
869.508	1307.29
869.69	1258.14
869.872	1493.65
870.054	1811.09
870.236	1200.79
870.417	1323.67
870.599	1602.19
870.781	1940.11
870.963	1393.3
871.145	1274.52
871.327	1446.55
871.508	1819.28
871.69	1346.2
871.872	1350.29
872.054	1622.67
872.235	1723.02
872.417	1366.68
872.599	1258.14
872.78	1962.64
872.962	1624.72
873.144	1213.08
873.325	1460.88
873.507	2058.89
873.689	1837.71
873.87	1198.74
874.052	1501.84
874.233	1507.99
874.415	1911.44
874.596	1462.93
874.778	1219.22
874.959	1634.96
875.141	1903.25
875.322	1479.32
875.503	1342.1
875.685	1751.7
875.866	1313.43
876.048	1303.19
876.229	1342.1
876.41	1594
876.592	1712.78
876.773	1389.21
876.954	1366.68
877.136	1966.73
877.317	1616.53
877.498	1208.98
877.679	1436.31
877.86	1682.06
878.042	1608.34
878.223	1256.09
878.404	1608.34
878.585	1917.58
878.766	2044.56
878.947	1763.98
879.128	1559.19
879.309	1702.54
879.49	1987.21
879.672	1481.36
879.853	1501.84
880.034	1344.15
880.215	1620.63
880.396	1559.19
880.576	1376.92
880.757	1563.28
880.938	2030.22
881.119	1405.59
881.3	1399.45
881.481	1591.95
881.662	2544.26
881.843	1364.63
882.023	1370.77
882.204	1749.65
882.385	1698.45
882.566	1489.56
882.747	1329.81
882.927	1708.69
883.108	1739.41
883.289	1383.06
883.469	1675.92
883.65	1589.91
883.831	1819.28
884.011	1632.91
884.192	1460.88
884.373	2087.56
884.553	1974.92
884.734	1684.11
884.914	1776.27
885.095	2570.88
885.275	2194.06
885.456	2001.55
885.636	1338.01
885.817	1735.31
885.997	1827.47
886.178	1522.32
886.358	1454.74
886.538	1819.28
886.719	2814.59
886.899	1464.98
887.08	1637.01
887.26	2091.66
887.44	1471.12
887.621	1329.81
887.801	1620.63
887.981	2370.18
888.161	2022.03
888.342	1618.58
888.522	1616.53
888.702	1956.49
888.882	2153.1
889.062	1665.68
889.242	1331.86
889.423	2255.5
889.603	1987.21
889.783	1854.09
889.963	1659.54
890.143	2017.93
890.323	2155.15
890.503	1577.62
890.683	1708.69
890.863	1929.87
891.043	1876.62
891.223	1780.37
891.403	1919.63
891.583	1936.01
891.763	1944.2
891.943	1774.22
892.122	1682.06
892.302	1888.91
892.482	1768.08
892.662	1833.61
892.842	1755.79
893.022	2056.84
893.201	1829.52
893.381	1890.96
893.561	1587.86
893.741	2089.61
893.92	2019.98
894.1	1743.5
894.28	1751.7
894.459	2034.32
894.639	1948.3
894.819	1686.16
894.998	1907.34
895.178	1993.36
895.357	2124.43
895.537	1708.69
895.716	1473.17
895.896	1907.34
896.075	2271.88
896.255	1745.55
896.434	1534.61
896.614	2222.73
896.793	2259.59
896.973	1981.07
897.152	1790.61
897.331	2036.36
897.511	2296.46
897.69	1530.52
897.87	1755.79
898.049	2239.11
898.228	1944.2
898.407	1944.2
898.587	1893.01
898.766	1847.95
898.945	2046.6
899.124	1905.29
899.304	1858.19
899.483	2161.29
899.662	2454.15
899.841	1706.64
900.02	1641.11
900.199	2206.34
900.378	2120.33
900.557	1585.81
900.737	1692.3
900.916	2083.47
901.095	2151.05
901.274	1927.82
901.453	1630.87
901.632	1759.89
901.811	1790.61
901.989	1706.64
902.168	1714.83
902.347	2095.75
902.526	1903.25
902.705	1768.08
902.884	1813.13
903.063	2271.88
903.242	2341.51
903.42	1661.59
903.599	1946.25
903.778	2243.21
903.957	2239.11
904.135	1833.61
904.314	1784.46
904.493	2005.64
904.672	2126.47
904.85	1759.89
905.029	1471.12
905.207	2062.99
905.386	2624.13
905.565	1690.26
905.743	1591.95
905.922	1940.11
906.1	2224.78
906.279	1604.24
906.457	1571.47
906.636	1839.76
906.814	1852.05
906.993	1839.76
907.171	1645.2
907.35	2265.74
907.528	2146.95
907.707	1874.57
907.885	1561.23
908.063	2411.14
908.242	1862.29
908.42	1794.7
908.598	1575.57
908.777	2200.2
908.955	1909.39
909.133	1800.85
909.311	1606.29
909.49	1854.09
909.668	1852.05
909.846	1698.45
910.024	1553.04
910.202	2007.69
910.38	2009.74
910.559	1505.94
910.737	1596.05
910.915	2009.74
911.093	1940.11
911.271	1612.43
911.449	1972.88
911.627	2005.64
911.805	2398.85
911.983	1628.82
912.161	1518.23
912.339	1993.36
912.517	2210.44
912.695	1802.9
912.872	1677.97
913.05	1682.06
913.228	2079.37
913.406	1657.49
913.584	1534.61
913.762	2069.13
913.939	1782.42
914.117	1591.95
914.295	1536.66
914.473	2038.41
914.65	2005.64
914.828	1528.47
915.006	1673.87
915.184	1602.19
915.361	2009.74
915.539	1716.88
915.716	1686.16
915.894	1972.88
916.072	2183.82
916.249	1888.91
916.427	1833.61
916.604	1591.95
916.782	1952.4
916.959	1536.66
917.137	1596.05
917.314	1960.59
917.492	1876.62
917.669	1698.45
917.847	1630.87
918.024	1850
918.201	1745.55
918.379	1706.64
918.556	1706.64
918.733	2157.19
918.911	1743.5
919.088	1651.35
919.265	1555.09
919.442	1675.92
919.62	1710.74
919.797	1544.85
919.974	1520.28
920.151	1729.17
920.328	1669.78
920.506	1550.99
920.683	1763.98
920.86	1499.8
921.037	1612.43
921.214	1559.19
921.391	1616.53
921.568	1936.01
921.745	1628.82
921.922	1591.95
922.099	1460.88
922.276	1997.45
922.453	1862.29
922.63	1391.25
922.807	1692.3
922.984	1823.37
923.161	1637.01
923.338	1622.67
923.514	1424.02
923.691	1667.73
923.868	1788.56
924.045	1530.52
924.222	1350.29
924.399	1815.18
924.575	1954.44
924.752	1637.01
924.929	1643.15
925.105	1890.96
925.282	1555.09
925.459	1393.3
925.635	1454.74
925.812	1735.31
925.989	1608.34
926.165	1477.27
926.342	1225.37
926.518	1401.49
926.695	1567.38
926.871	1419.92
927.048	1198.74
927.224	1915.53
927.401	1550.99
927.577	1497.75
927.754	1256.09
927.93	1944.2
928.107	1749.65
928.283	1348.25
928.459	1469.08
928.636	1741.46
928.812	1395.35
928.988	1325.72
929.165	1186.46
929.341	1610.39
929.517	1614.48
929.693	1544.85
929.87	1174.17
930.046	1792.66
930.222	1456.79
930.398	1286.81
930.574	1411.73
930.751	1542.8
930.927	1460.88
931.103	1321.62
931.279	1331.86
931.455	1399.45
931.631	1428.12
931.807	1112.73
931.983	1100.44
932.159	1151.64
932.335	1526.42
932.511	1208.98
932.687	1159.83
932.863	1538.71
933.039	1432.21
933.215	1157.78
933.391	1069.72
933.566	1436.31
933.742	1462.93
933.918	1225.37
934.094	1053.34
934.27	1391.25
934.445	1393.3
934.621	1292.95
934.797	1036.95
934.973	1600.15
935.148	1344.15
935.324	1018.52
935.5	946.84
935.675	1677.97
935.851	1381.01
936.027	1047.19
936.202	1135.26
936.378	1419.92
936.553	1182.36
936.729	1430.16
936.904	957.08
937.08	938.65
937.255	1067.67
937.431	930.46
937.606	768.67
937.782	1116.83
937.957	1153.69
938.133	969.37
938.308	735.9
938.483	985.76
938.659	854.69
938.834	942.75
939.009	711.33
939.185	948.89
939.36	821.92
939.535	565.92
939.71	885.41
939.886	1305.24
940.061	1137.31
940.236	991.9
940.411	776.86
940.586	1049.24
940.761	1165.98
940.937	684.7
941.112	674.46
941.287	852.64
941.462	946.84
941.637	565.92
941.812	678.56
941.987	1067.67
942.162	907.93
942.337	848.54
942.512	649.89
942.687	1149.59
942.862	1120.92
943.037	527.01
943.212	465.57
943.386	832.16
943.561	893.6
943.736	801.44
943.911	955.04
944.086	967.32
944.26	916.12
944.435	713.38
944.61	707.23
944.785	1168.02
944.959	1387.16
945.134	703.14
945.309	580.26
945.483	658.08
945.658	1051.29
945.833	277.16
946.007	514.72
946.182	1309.33
946.357	625.31
946.531	537.25
946.706	477.86
946.88	432.8
947.055	907.93
947.229	522.91
947.404	486.05
947.578	948.89
947.752	668.32
947.927	451.24
948.101	393.89
948.276	823.97
948.45	881.31
948.624	746.14
948.799	453.28
948.973	948.89
949.147	619.17
949.321	647.84
949.496	539.3
949.67	1057.43
949.844	780.96
950.018	641.7
950.193	604.83
950.367	1225.37
950.541	838.3
950.715	672.42
950.889	785.05
951.063	787.1
951.237	1010.33
951.411	395.94
951.585	348.84
951.759	895.64
951.933	727.71
952.107	561.83
952.281	774.81
952.455	1266.33
952.629	1004.19
952.803	670.37
952.977	602.79
953.151	918.17
953.325	936.6
953.499	819.87
953.672	395.94
953.846	676.51
954.02	737.95
954.194	619.17
954.368	615.07
954.541	1010.33
954.715	682.66
954.889	746.14
955.062	535.2
955.236	830.11
955.41	680.61
955.583	803.49
955.757	512.67
955.93	711.33
956.104	545.44
956.278	484
956.451	572.07
956.625	918.17
956.798	1319.57
956.972	805.53
957.145	402.08
957.319	840.35
957.492	801.44
957.665	690.85
957.839	502.43
958.012	928.41
958.185	619.17
958.359	613.03
958.532	758.43
958.705	1079.96
958.879	871.07
959.052	740
959.225	377.51
959.398	803.49
959.572	838.3
959.745	539.3
959.918	557.73
960.091	764.57
960.264	1057.43
960.438	461.48
960.611	477.86
960.784	1006.24
960.957	744.1
961.13	881.31
961.303	596.64
961.476	756.38
961.649	1014.43
961.822	567.97
961.995	596.64
962.168	828.06
962.341	875.17
962.514	610.98
962.686	547.49
962.859	873.12
963.032	952.99
963.205	625.31
963.378	400.04
963.551	860.83
963.723	889.5
963.896	748.19
964.069	600.74
964.242	744.1
964.414	1036.95
964.587	555.68
964.76	756.38
964.932	930.46
965.105	799.39
965.278	613.03
965.45	502.43
965.623	758.43
965.795	893.6
965.968	506.53
966.14	531.11
966.313	699.04
966.485	701.09
966.658	520.87
966.83	514.72
967.003	1020.57
967.175	967.32
967.348	508.58
967.52	547.49
967.692	1161.88
967.865	879.26
968.037	531.11
968.209	862.88
968.382	699.04
968.554	946.84
968.726	500.39
968.898	535.2
969.071	742.05
969.243	914.08
969.415	623.27
969.587	567.97
969.759	1346.2
969.932	957.08
970.104	549.54
970.276	352.93
970.448	662.18
970.62	625.31
970.792	588.45
970.964	649.89
971.136	1186.46
971.308	893.6
971.48	586.4
971.652	475.81
971.824	1239.7
971.996	690.85
972.168	653.98
972.339	637.6
972.511	1018.52
972.683	723.62
972.855	780.96
973.027	600.74
973.199	746.14
973.37	1004.19
973.542	615.07
973.714	727.71
973.886	789.15
974.057	1098.39
974.229	510.63
974.401	520.87
974.572	496.29
974.744	322.21
974.915	502.43
975.087	379.56
975.259	1157.78
975.43	551.59
975.602	584.35
975.773	553.63
975.945	647.84
976.116	899.74
976.288	457.38
976.459	692.9
976.63	664.22
976.802	952.99
976.973	475.81
977.145	686.75
977.316	1217.18
977.487	1159.83
977.659	664.22
977.83	561.83
978.001	1217.18
978.172	778.91
978.344	494.24
978.515	576.16
978.686	787.1
978.857	1034.91
979.028	465.57
979.2	387.75
979.371	926.36
979.542	756.38
979.713	666.27
979.884	125.61
980.055	598.69
980.226	649.89
980.397	477.86
980.568	445.09
980.739	920.22
980.91	703.14
981.081	715.42
981.252	510.63
981.423	873.12
981.594	887.45
981.765	379.56
981.936	617.12
982.106	744.1
982.277	998.04
982.448	463.52
982.619	553.63
982.79	619.17
982.96	912.03
983.131	572.07
983.302	318.12
983.472	703.14
983.643	793.25
983.814	584.35
983.984	547.49
984.155	713.38
984.326	967.32
984.496	543.39
984.667	488.1
984.837	635.55
985.008	1034.91
985.178	633.5
985.349	484
985.519	686.75
985.69	576.16
985.86	486.05
986.031	334.5
986.201	858.78
986.371	772.77
986.542	418.47
986.712	299.69
986.882	783.01
987.053	840.35
987.223	309.93
987.393	653.98
987.563	459.43
987.734	737.95
987.904	799.39
988.074	465.57
988.244	758.43
988.414	635.55
988.585	279.21
988.755	549.54
988.925	649.89
989.095	989.85
989.265	326.31
989.435	424.61
989.605	772.77
989.775	776.86
989.945	723.62
990.115	305.83
990.285	633.5
990.455	754.34
990.625	502.43
990.795	344.74
990.965	1036.95
991.134	510.63
991.304	361.13
991.474	359.08
991.644	770.72
991.814	1004.19
991.984	260.77
992.153	359.08
992.323	690.85
992.493	670.37
992.662	176.81
992.832	522.91
993.002	740
993.171	748.19
993.341	244.39
993.511	563.87
993.68	488.1
993.85	715.42
994.019	187.05
994.189	307.88
994.358	694.94
994.528	453.28
994.697	113.32
994.867	299.69
995.036	883.36
995.206	488.1
995.375	307.88
995.544	463.52
995.714	559.78
995.883	639.65
996.052	590.5
996.222	139.94
996.391	1159.83
996.56	594.59
996.73	168.62
996.899	105.13
997.068	950.94
997.237	596.64
997.406	322.21
997.576	137.9
997.745	606.88
997.914	537.25
998.083	156.33
998.252	328.36
998.421	637.6
998.59	285.35
998.759	252.58
998.928	144.04
999.097	864.93
999.266	668.32
999.435	510.63
999.604	178.86
999.773	1194.65
999.942	547.49
1000.111	51.88
1000.28	133.8
1000.448	375.46
1000.617	350.89
1000.786	465.57
1000.955	156.33
1001.124	688.8
1001.292	1223.32
1001.461	264.87
1001.63	185
1001.798	979.61
1001.967	940.7
1002.136	135.85
1002.304	182.95
1002.473	637.6
1002.642	658.08
1002.81	223.91
1002.979	174.76
1003.147	711.33
1003.316	1086.11
1003.484	152.23
1003.653	160.42
1003.821	858.78
1003.99	570.02
1004.158	344.74
1004.327	219.82
1004.495	758.43
1004.663	371.36
1004.832	334.5
1005	129.7
1005.168	608.93
1005.337	582.31
1005.505	113.32
1005.673	469.67
1005.842	649.89
1006.01	625.31
1006.178	164.52
1006.346	283.3
1006.514	561.83
1006.683	760.48
1006.851	236.2
1007.019	39.59
1007.187	379.56
1007.355	37.55
1007.523	2.73
1007.691	92.84
1007.859	221.86
1008.027	805.53
1008.195	207.53
1008.363	88.75
1008.531	817.82
1008.699	367.27
1008.867	4.78
1009.035	160.42
1009.203	821.92
1009.37	588.45
1009.538	141.99
1009.706	488.1
1009.874	578.21
1010.042	441
1010.209	15.02
1010.377	55.98
1010.545	664.22
1010.713	455.33
1010.88	70.31
1011.048	230.06
1011.216	422.56
1011.383	752.29
1011.551	197.29
1011.718	60.07
1011.886	762.53
1012.054	412.32
1012.221	80.55
1012.389	39.59
1012.556	424.61
1012.724	940.7
1012.891	162.47
1013.058	-19.8
1013.226	512.67
1013.393	647.84
1013.561	-17.75
1013.728	-38.23
1013.895	617.12
1014.063	553.63
1014.23	94.89
1014.397	60.07
1014.565	740
1014.732	412.32
1014.899	35.5
1015.066	25.26
1015.233	527.01
1015.401	666.27
1015.568	125.61
1015.735	195.24
1015.902	475.81
1016.069	537.25
1016.236	88.75
1016.403	125.61
1016.57	182.95
1016.737	645.79
1016.904	158.38
1017.071	-101.72
1017.238	283.3
1017.405	580.26
1017.572	113.32
1017.739	336.55
1017.906	559.78
1018.073	658.08
1018.24	105.13
1018.407	180.9
1018.573	668.32
1018.74	426.66
1018.907	139.94
1019.074	-38.23
1019.241	694.94
1019.407	461.48
1019.574	0.68
1019.741	-32.08
1019.907	496.29
1020.074	592.55
1020.241	-93.52
1020.407	-19.8
1020.574	662.18
1020.74	570.02
1020.907	53.93
1021.073	53.93
1021.24	967.32
1021.406	795.29
1021.573	8.87
1021.739	109.22
1021.906	666.27
1022.072	320.17
1022.239	152.23
1022.405	74.41
1022.571	436.9
1022.738	264.87
1022.904	111.27
1023.07	156.33
1023.237	486.05
1023.403	633.5
1023.569	109.22
1023.735	78.51
1023.902	422.56
1024.068	545.44
1024.234	-11.61
1024.4	27.31
1024.566	627.36
1024.732	572.07
1024.898	-7.51
1025.065	-144.72
1025.231	520.87
1025.397	326.31
1025.563	109.22
1025.729	-19.8
1025.895	0.68
1026.061	133.8
1026.227	-218.45
1026.392	43.69
1026.558	647.84
1026.724	561.83
1026.89	45.74
1027.056	160.42
1027.222	551.59
1027.388	281.25
1027.553	-42.32
1027.719	82.6
1027.885	676.51
1028.051	486.05
1028.216	-157.01
1028.382	70.31
1028.548	621.22
1028.713	295.59
1028.879	-83.28
1029.045	156.33
1029.21	748.19
1029.376	574.11
1029.541	96.94
1029.707	109.22
1029.873	508.58
1030.038	514.72
1030.204	-50.52
1030.369	103.08
1030.534	572.07
1030.7	277.16
1030.865	101.03
1031.031	-83.28
1031.196	559.78
1031.361	406.18
1031.527	29.35
1031.692	-56.66
1031.857	-52.56
1032.023	539.3
1032.188	-44.37
1032.353	27.31
1032.518	688.8
1032.684	397.99
1032.849	-152.91
1033.014	80.55
1033.179	533.15
1033.344	467.62
1033.509	80.55
1033.674	41.64
1033.839	555.68
1034.004	484
1034.17	92.84
1034.335	-79.19
1034.5	361.13
1034.664	199.34
1034.829	-62.8
1034.994	53.93
1035.159	451.24
1035.324	354.98
1035.489	-17.75
1035.654	-60.76
1035.819	690.85
1035.984	469.67
1036.148	88.75
1036.313	-1.37
1036.478	559.78
1036.643	406.18
1036.807	-21.85
1036.972	-120.15
1037.137	613.03
1037.301	334.5
1037.466	-154.96
1037.631	76.46
1037.795	543.39
1037.96	346.79
1038.124	158.38
1038.289	-173.39
1038.454	408.23
1038.618	424.61
1038.783	68.27
1038.947	39.59
1039.111	410.28
1039.276	271.01
1039.44	-21.85
1039.605	361.13
1039.769	287.4
1039.933	346.79
1040.098	-5.46
1040.262	199.34
1040.426	567.97
1040.591	537.25
1040.755	-126.29
1040.919	-40.28
1041.083	461.48
1041.248	387.75
1041.412	-171.35
1041.576	-136.53
1041.74	295.59
1041.904	469.67
1042.068	-97.62
1042.232	43.69
1042.397	596.64
1042.561	357.03
1042.725	-339.28
1042.889	-5.46
1043.053	430.76
1043.217	461.48
1043.381	43.69
1043.544	-197.97
1043.708	555.68
1043.872	107.18
1044.036	-255.31
1044.2	-257.36
1044.364	567.97
1044.528	715.42
1044.691	2822.78
1044.855	-206.16
1045.019	522.91
1045.183	514.72
1045.346	41.64
1045.51	-103.76
1045.674	531.11
1045.837	428.71
1046.001	-9.56
1046.165	-9.56
1046.328	862.88
1046.492	375.46
1046.655	113.32
1046.819	-58.71
1046.983	185
1047.146	416.42
1047.31	-79.19
1047.473	-277.84
1047.636	338.6
1047.8	189.1
1047.963	-21.85
1048.127	-175.44
1048.29	94.89
