Data from Ink_Intensity_USB4F045381__148__00148.txt Node

Date: Mon Jul 17 11:27:32 EDT 2023
User: mmckonesweet
Spectrometer: USB4F04538
Trigger mode: 4
Integration Time (sec): 9.000000E-1
Scans to average: 1
Electric dark correction enabled: true
Nonlinearity correction enabled: false
Boxcar width: 0
XAxis mode: Wavelengths
Number of Pixels in Spectrum: 3648
>>>>>Begin Spectral Data<<<<<
345.52	-976.03
345.736	-976.03
345.952	-976.03
346.168	-937.12
346.384	-1008.8
346.6	-144.55
346.816	-238.76
347.032	-189.61
347.248	271.19
347.464	-220.33
347.68	-107.69
347.896	56.15
348.112	375.63
348.328	-44.2
348.544	-93.35
348.76	121.68
348.975	213.84
349.191	-242.85
349.407	-205.99
349.623	97.11
349.839	-33.96
350.055	-130.22
350.27	60.24
350.486	213.84
350.702	387.92
350.918	238.42
351.133	-165.03
351.349	191.31
351.565	404.3
351.781	-222.38
351.996	-9.39
352.212	252.75
352.428	-87.21
352.644	-203.94
352.859	-212.14
353.075	314.19
353.291	99.16
353.506	-95.4
353.722	-205.99
353.938	-46.25
354.153	402.26
354.369	2.9
354.584	-128.17
354.8	185.17
355.016	-337.06
355.231	-212.14
355.447	-103.59
355.662	187.22
355.878	889.67
356.093	-421.03
356.309	37.72
356.524	-189.61
356.74	262.99
356.955	-222.38
357.171	-33.96
357.386	224.08
357.602	-156.84
357.817	-140.46
358.033	-154.79
358.248	355.15
358.464	115.54
358.679	-181.42
358.895	-296.1
359.11	-1.19
359.325	318.29
359.541	27.48
359.756	7
359.972	-218.28
360.187	148.31
360.402	-154.79
360.618	-122.02
360.833	1051.46
361.048	164.69
361.264	-175.27
361.479	-44.2
361.694	-58.54
361.909	197.46
362.125	-253.09
362.34	-160.94
362.555	265.04
362.77	88.92
362.986	-267.43
363.201	-97.45
363.416	140.12
363.631	33.62
363.847	-238.76
364.062	-167.08
364.277	162.64
364.492	76.63
364.707	-222.38
364.922	-443.56
365.138	254.8
365.353	297.81
365.568	-332.97
365.783	-169.13
365.998	58.2
366.213	514.89
366.428	-154.79
366.643	93.01
366.858	217.94
367.073	293.71
367.288	-54.44
367.503	-292.01
367.718	109.4
367.933	283.47
368.148	-261.29
368.363	-95.4
368.578	33.62
368.793	469.84
369.008	-181.42
369.223	-208.04
369.438	222.03
369.653	408.4
369.868	-249
370.083	-195.75
370.298	187.22
370.513	260.95
370.728	86.87
370.943	-210.09
371.157	-146.6
371.372	547.66
371.587	-234.66
371.802	-285.86
372.017	191.31
372.232	475.98
372.446	-93.35
372.661	-269.48
372.876	252.75
373.091	88.92
373.306	0.85
373.52	-222.38
373.735	-134.31
373.95	404.3
374.165	-68.78
374.379	-154.79
374.594	-140.46
374.809	174.93
375.023	76.63
375.238	-242.85
375.453	232.27
375.667	-251.05
375.882	-193.7
376.097	-183.46
376.311	13.14
376.526	-31.91
376.741	-236.71
376.955	37.72
377.17	588.62
377.384	635.72
377.599	-79.02
377.813	-296.1
378.028	598.86
378.242	232.27
378.457	-9.39
378.672	-279.72
378.886	66.39
379.101	68.44
379.315	-353.45
379.53	-119.98
379.744	80.72
379.958	166.74
380.173	-167.08
380.387	-185.51
380.602	117.59
380.816	-134.31
381.031	-128.17
381.245	-130.22
381.459	166.74
381.674	809.8
381.888	-242.85
382.103	25.43
382.317	-187.56
382.531	449.36
382.746	-42.15
382.96	-138.41
383.174	-91.31
383.388	449.36
383.603	4.95
383.817	-269.48
384.031	187.22
384.246	484.17
384.46	-27.82
384.674	279.38
384.888	76.63
385.103	121.68
385.317	-173.22
385.531	-64.68
385.745	379.73
385.959	371.54
386.174	-165.03
386.388	-308.39
386.602	68.44
386.816	-54.44
387.03	-38.06
387.244	-115.88
387.458	-54.44
387.672	396.11
387.887	-218.28
388.101	-302.25
388.315	375.63
388.529	158.55
388.743	-79.02
388.957	-300.2
389.171	301.9
389.385	-205.99
389.599	-136.36
389.813	31.57
390.027	195.41
390.241	656.2
390.455	-173.22
390.669	-124.07
390.883	-70.83
391.097	371.54
391.311	-5.29
391.525	-193.7
391.738	191.31
391.952	287.57
392.166	-9.39
392.38	-246.95
392.594	199.51
392.808	363.34
393.022	-136.36
393.236	-91.31
393.449	224.08
393.663	201.55
393.877	-222.38
394.091	-142.5
394.305	17.24
394.518	-79.02
394.732	-281.77
394.946	-119.98
395.16	369.49
395.373	154.45
395.587	-216.23
395.801	-175.27
396.015	217.94
396.228	197.46
396.442	-232.62
396.656	-300.2
396.869	373.58
397.083	506.7
397.297	-89.26
397.51	-244.9
397.724	428.88
397.938	82.77
398.151	-287.91
398.365	-218.28
398.578	162.64
398.792	424.78
399.005	-42.15
399.219	-160.94
399.433	150.36
399.646	224.08
399.86	76.63
400.073	-15.53
400.287	187.22
400.5	54.1
400.714	-50.35
400.927	-62.63
401.141	183.12
401.354	1047.37
401.567	242.51
401.781	-255.14
401.994	326.48
402.208	637.77
402.421	-140.46
402.635	-122.02
402.848	37.72
403.061	328.53
403.275	-36.01
403.488	-228.52
403.701	492.37
403.915	228.18
404.128	66.39
404.341	-193.7
404.555	117.59
404.768	-1.19
404.981	43.86
405.195	-117.93
405.408	518.99
405.621	224.08
405.834	-33.96
406.048	-197.8
406.261	420.69
406.474	473.93
406.687	-177.32
406.9	-33.96
407.114	23.38
407.327	172.88
407.54	-312.49
407.753	-289.96
407.966	-150.7
408.179	289.62
408.392	-201.9
408.605	-242.85
408.819	205.65
409.032	205.65
409.245	-236.71
409.458	23.38
409.671	252.75
409.884	295.76
410.097	-242.85
410.31	-19.63
410.523	195.41
410.736	-13.48
410.949	-44.2
411.162	-97.45
411.375	414.54
411.588	385.87
411.801	68.44
412.014	-132.26
412.227	88.92
412.44	31.57
412.653	-171.18
412.865	15.19
413.078	310.1
413.291	297.81
413.504	-60.59
413.717	-193.7
413.93	217.94
414.143	-85.16
414.356	-124.07
414.568	-277.67
414.781	277.33
414.994	115.54
415.207	-11.43
415.42	-148.65
415.632	246.61
415.845	490.32
416.058	-212.14
416.271	-193.7
416.483	35.67
416.696	500.56
416.909	-218.28
417.121	-226.47
417.334	230.23
417.547	482.13
417.759	-191.66
417.972	-232.62
418.185	7
418.397	219.99
418.61	-160.94
418.823	-212.14
419.035	441.17
419.248	82.77
419.46	-95.4
419.673	15.19
419.885	234.32
420.098	17.24
420.311	-148.65
420.523	-353.45
420.736	228.18
420.948	11.09
421.161	-119.98
421.373	-287.91
421.586	111.44
421.798	-72.87
422.01	-304.29
422.223	-97.45
422.435	-66.73
422.648	242.51
422.86	-124.07
423.073	-189.61
423.285	293.71
423.497	-265.38
423.71	-173.22
423.922	-162.98
424.134	170.83
424.347	379.73
424.559	-17.58
424.771	129.88
424.984	-7.34
425.196	181.07
425.408	-279.72
425.621	-210.09
425.833	303.95
426.045	363.34
426.257	-177.32
426.47	-189.61
426.682	121.68
426.894	232.27
427.106	-76.97
427.318	-152.74
427.531	-162.98
427.743	170.83
427.955	-222.38
428.167	203.6
428.379	154.45
428.591	-17.58
428.804	-44.2
429.016	-263.33
429.228	-44.2
429.44	185.17
429.652	68.44
429.864	-298.15
430.076	31.57
430.288	43.86
430.5	-117.93
430.712	-72.87
430.924	269.14
431.136	58.2
431.348	-300.2
431.56	-205.99
431.772	0.85
431.984	-46.25
432.196	-212.14
432.408	-230.57
432.62	37.72
432.832	105.3
433.044	-21.67
433.256	-117.93
433.468	197.46
433.679	-261.29
433.891	-113.83
434.103	29.52
434.315	324.43
434.527	168.79
434.739	-85.16
434.95	-158.89
435.162	254.8
435.374	-23.72
435.586	-83.11
435.798	-177.32
436.009	-119.98
436.221	-33.96
436.433	-185.51
436.645	-105.64
436.856	-68.78
437.068	371.54
437.28	-230.57
437.491	123.73
437.703	174.93
437.915	160.59
438.126	-138.41
438.338	52.05
438.55	76.63
438.761	127.83
438.973	-171.18
439.184	-195.75
439.396	-31.91
439.608	222.03
439.819	-214.18
440.031	-25.77
440.242	260.95
440.454	219.99
440.665	-136.36
440.877	-91.31
441.088	236.37
441.3	50
441.511	-271.53
441.723	-257.19
441.934	219.99
442.146	72.53
442.357	4.95
442.569	64.34
442.78	39.76
442.991	516.94
443.203	105.3
443.414	-208.04
443.626	414.54
443.837	-40.11
444.048	-257.19
444.26	-283.81
444.471	117.59
444.682	322.38
444.894	-373.92
445.105	-332.97
445.316	281.43
445.528	162.64
445.739	-132.26
445.95	-167.08
446.161	183.12
446.373	308.05
446.584	-134.31
446.795	-128.17
447.006	240.47
447.217	410.45
447.429	-312.49
447.64	-195.75
447.851	338.77
448.062	86.87
448.273	-349.35
448.484	-165.03
448.695	205.65
448.907	74.58
449.118	-31.91
449.329	41.81
449.54	-42.15
449.751	-89.26
449.962	-181.42
450.173	-134.31
450.384	355.15
450.595	404.3
450.806	-222.38
451.017	-130.22
451.228	351.06
451.439	174.93
451.65	-122.02
451.861	-394.4
452.072	-152.74
452.283	39.76
452.494	52.05
452.705	-259.24
452.915	381.78
453.126	248.66
453.337	-220.33
453.548	-228.52
453.759	349.01
453.97	535.37
454.181	76.63
454.391	-119.98
454.602	123.73
454.813	207.7
455.024	-70.83
455.235	-228.52
455.445	82.77
455.656	228.18
455.867	-5.29
456.078	-201.9
456.288	-11.43
456.499	115.54
456.71	-249
456.921	115.54
457.131	232.27
457.342	2.9
457.553	-97.45
457.763	-132.26
457.974	265.04
458.184	283.47
458.395	-240.81
458.606	-275.62
458.816	322.38
459.027	498.51
459.237	-42.15
459.448	-410.79
459.659	271.19
459.869	596.81
460.08	-302.25
460.29	-111.78
460.501	543.57
460.711	-89.26
460.922	-353.45
461.132	-240.81
461.343	666.44
461.553	-234.66
461.764	-226.47
461.974	-183.46
462.184	277.33
462.395	113.49
462.605	-146.6
462.816	-273.57
463.026	123.73
463.236	357.2
463.447	-249
463.657	-242.85
463.867	338.77
464.078	-52.39
464.288	-156.84
464.498	-244.9
464.709	23.38
464.919	39.76
465.129	-183.46
465.339	-275.62
465.55	193.36
465.76	285.52
465.97	-185.51
466.18	-265.38
466.391	230.23
466.601	195.41
466.811	-136.36
467.021	-263.33
467.231	144.21
467.441	357.2
467.651	-236.71
467.862	-418.98
468.072	99.16
468.282	359.25
468.492	-203.94
468.702	-91.31
468.912	37.72
469.122	596.81
469.332	80.72
469.542	-312.49
469.752	224.08
469.962	162.64
470.172	-255.14
470.382	-187.56
470.592	279.38
470.802	342.86
471.012	-23.72
471.222	-181.42
471.432	277.33
471.642	224.08
471.852	-97.45
472.062	-312.49
472.272	-23.72
472.482	-208.04
472.691	-275.62
472.901	-328.87
473.111	146.26
473.321	584.52
473.531	-279.72
473.741	-156.84
473.95	201.55
474.16	236.37
474.37	-27.82
474.58	-236.71
474.79	412.5
474.999	275.28
475.209	-283.81
475.419	-230.57
475.628	31.57
475.838	342.86
476.048	-97.45
476.258	-283.81
476.467	355.15
476.677	-62.63
476.886	-87.21
477.096	-146.6
477.306	-87.21
477.515	363.34
477.725	-154.79
477.935	-255.14
478.144	385.87
478.354	-74.92
478.563	-160.94
478.773	-302.25
478.982	154.45
479.192	340.82
479.401	-62.63
479.611	-218.28
479.82	-113.83
480.03	117.59
480.239	-257.19
480.449	-296.1
480.658	369.49
480.868	-109.74
481.077	-124.07
481.287	-134.31
481.496	199.51
481.705	344.91
481.915	31.57
482.124	74.58
482.333	111.44
482.543	414.54
482.752	-169.13
482.961	-261.29
483.171	222.03
483.38	56.15
483.589	-117.93
483.799	-236.71
484.008	72.53
484.217	244.56
484.426	-181.42
484.636	-285.86
484.845	72.53
485.054	-160.94
485.263	76.63
485.472	-134.31
485.682	490.32
485.891	119.64
486.1	-337.06
486.309	-175.27
486.518	248.66
486.727	342.86
486.936	-267.43
487.146	0.85
487.355	502.61
487.564	-165.03
487.773	-189.61
487.982	-253.09
488.191	13.14
488.4	23.38
488.609	-263.33
488.818	-220.33
489.027	596.81
489.236	414.54
489.445	-173.22
489.654	-197.8
489.863	359.25
490.072	211.79
490.281	105.3
490.49	-220.33
490.698	355.15
490.907	412.5
491.116	-169.13
491.325	-343.21
491.534	402.26
491.743	148.31
491.952	-74.92
492.16	-222.38
492.369	166.74
492.578	299.86
492.787	-27.82
492.996	-310.44
493.204	-70.83
493.413	424.78
493.622	-431.27
493.831	-386.21
494.039	396.11
494.248	-181.42
494.457	-255.14
494.665	-318.63
494.874	211.79
495.083	562
495.291	-148.65
495.5	-203.94
495.709	340.82
495.917	56.15
496.126	-122.02
496.335	-279.72
496.543	31.57
496.752	219.99
496.96	101.2
497.169	-402.6
497.377	78.68
497.586	357.2
497.794	-23.72
498.003	-404.64
498.211	68.44
498.42	400.21
498.628	-160.94
498.837	-392.36
499.045	156.5
499.254	97.11
499.462	-287.91
499.671	-246.95
499.879	461.65
500.087	318.29
500.296	-214.18
500.504	-124.07
500.713	133.97
500.921	615.24
501.129	-199.85
501.338	-140.46
501.546	170.83
501.754	164.69
501.962	-251.05
502.171	-214.18
502.379	47.96
502.587	498.51
502.795	-128.17
503.004	-259.24
503.212	74.58
503.42	338.77
503.628	-199.85
503.837	-64.68
504.045	269.14
504.253	478.03
504.461	-298.15
504.669	-371.88
504.877	211.79
505.085	490.32
505.294	-265.38
505.502	-27.82
505.71	136.02
505.918	285.52
506.126	-222.38
506.334	-308.39
506.542	39.76
506.75	127.83
506.958	-76.97
507.166	-165.03
507.374	66.39
507.582	523.09
507.79	-48.3
507.998	-251.05
508.206	232.27
508.414	215.89
508.622	-226.47
508.83	-148.65
509.037	439.12
509.245	80.72
509.453	-263.33
509.661	-281.77
509.869	226.13
510.077	52.05
510.285	-58.54
510.492	-523.43
510.7	617.29
510.908	15.19
511.116	-220.33
511.324	-263.33
511.531	-1.19
511.739	82.77
511.947	-105.64
512.155	150.36
512.362	113.49
512.57	-124.07
512.778	-242.85
512.985	-375.97
513.193	293.71
513.401	392.02
513.608	-208.04
513.816	-203.94
514.024	267.09
514.231	416.59
514.439	-212.14
514.646	-222.38
514.854	289.62
515.061	420.69
515.269	-197.8
515.477	-175.27
515.684	-210.09
515.892	394.06
516.099	-361.64
516.307	-314.53
516.514	285.52
516.722	512.85
516.929	-197.8
517.136	-294.05
517.344	428.88
517.551	205.65
517.759	-275.62
517.966	-216.23
518.173	-17.58
518.381	90.96
518.588	-46.25
518.796	-292.01
519.003	310.1
519.21	56.15
519.418	-292.01
519.625	138.07
519.832	0.85
520.039	179.03
520.247	-423.08
520.454	-277.67
520.661	353.1
520.868	172.88
521.076	-222.38
521.283	-124.07
521.49	650.06
521.697	228.18
521.904	-210.09
522.112	-185.51
522.319	244.56
522.526	238.42
522.733	-189.61
522.94	-312.49
523.147	199.51
523.354	301.9
523.561	-378.02
523.768	-126.12
523.975	408.4
524.183	97.11
524.39	-156.84
524.597	-294.05
524.804	121.68
525.011	-89.26
525.218	-183.46
525.425	-179.37
525.632	465.74
525.838	-15.53
526.045	-212.14
526.252	-218.28
526.459	1225.54
526.666	846.66
526.873	-253.09
527.08	-150.7
527.287	387.92
527.494	273.23
527.701	-259.24
527.907	-246.95
528.114	232.27
528.321	-9.39
528.528	-148.65
528.735	-226.47
528.941	0.85
529.148	-68.78
529.355	-68.78
529.562	-220.33
529.768	654.16
529.975	29.52
530.182	-89.26
530.388	-222.38
530.595	322.38
530.802	-138.41
531.008	-70.83
531.215	-208.04
531.422	523.09
531.628	828.23
531.835	-101.55
532.042	-99.5
532.248	-83.11
532.455	109.4
532.661	-187.56
532.868	-318.63
533.074	211.79
533.281	363.34
533.487	-74.92
533.694	-220.33
533.9	-191.66
534.107	295.76
534.313	-279.72
534.52	-304.29
534.726	314.19
534.933	549.71
535.139	-263.33
535.345	-265.38
535.552	215.89
535.758	205.65
535.965	-111.78
536.171	-160.94
536.377	375.63
536.584	416.59
536.79	-259.24
536.996	-122.02
537.203	158.55
537.409	262.99
537.615	-158.89
537.821	-101.55
538.028	320.34
538.234	344.91
538.44	-195.75
538.646	-169.13
538.853	357.2
539.059	111.44
539.265	127.83
539.471	-361.64
539.677	332.62
539.883	-29.87
540.09	-146.6
540.296	191.31
540.502	129.88
540.708	15.19
540.914	-13.48
541.12	-152.74
541.326	287.57
541.532	66.39
541.738	-54.44
541.944	-158.89
542.15	379.73
542.356	47.96
542.562	-193.7
542.768	-124.07
542.974	697.16
543.18	619.34
543.386	-257.19
543.592	-244.9
543.798	406.35
544.004	435.02
544.21	-214.18
544.415	-64.68
544.621	146.26
544.827	387.92
545.033	-218.28
545.239	45.91
545.445	-115.88
545.651	215.89
545.856	-205.99
546.062	-156.84
546.268	-62.63
546.474	174.93
546.679	-187.56
546.885	-62.63
547.091	23.38
547.297	621.39
547.502	-191.66
547.708	-326.82
547.914	23.38
548.119	379.73
548.325	-238.76
548.531	-257.19
548.736	516.94
548.942	23.38
549.147	-165.03
549.353	56.15
549.559	394.06
549.764	230.23
549.97	-83.11
550.175	-66.73
550.381	291.66
550.586	-33.96
550.792	-95.4
550.997	-124.07
551.203	189.27
551.408	367.44
551.614	-236.71
551.819	-197.8
552.025	469.84
552.23	555.85
552.435	-271.53
552.641	97.11
552.846	-15.53
553.052	459.6
553.257	-87.21
553.462	-128.17
553.668	58.2
553.873	453.45
554.078	-185.51
554.283	-251.05
554.489	162.64
554.694	199.51
554.899	-292.01
555.105	29.52
555.31	314.19
555.515	289.62
555.72	-42.15
555.925	-242.85
556.131	338.77
556.336	72.53
556.541	-122.02
556.746	-205.99
556.951	496.46
557.156	482.13
557.361	-79.02
557.567	-19.63
557.772	658.25
557.977	344.91
558.182	-64.68
558.387	-160.94
558.592	-11.43
558.797	449.36
559.002	-56.49
559.207	27.48
559.412	158.55
559.617	662.35
559.822	-74.92
560.027	-193.7
560.232	250.71
560.437	314.19
560.642	-289.96
560.847	-171.18
561.051	205.65
561.256	250.71
561.461	-87.21
561.666	-234.66
561.871	156.5
562.076	342.86
562.281	-103.59
562.485	-265.38
562.69	416.59
562.895	457.55
563.1	-105.64
563.305	-140.46
563.509	449.36
563.714	746.31
563.919	-81.07
564.123	-193.7
564.328	199.51
564.533	486.22
564.737	19.29
564.942	-74.92
565.147	605
565.351	635.72
565.556	41.81
565.761	-1.19
565.965	283.47
566.17	29.52
566.374	-107.69
566.579	-201.9
566.784	232.27
566.988	125.78
567.193	-150.7
567.397	-113.83
567.602	-62.63
567.806	181.07
568.011	-119.98
568.215	-64.68
568.42	164.69
568.624	117.59
568.828	-68.78
569.033	74.58
569.237	387.92
569.442	281.43
569.646	-300.2
569.85	-54.44
570.055	183.12
570.259	346.96
570.463	131.92
570.668	-7.34
570.872	174.93
571.076	119.64
571.281	29.52
571.485	-36.01
571.689	203.6
571.893	404.3
572.098	52.05
572.302	-74.92
572.506	297.81
572.71	187.22
572.914	0.85
573.119	-85.16
573.323	549.71
573.527	512.85
573.731	-72.87
573.935	-165.03
574.139	318.29
574.343	31.57
574.547	-29.87
574.751	-72.87
574.955	605
575.159	482.13
575.364	-1.19
575.568	-173.22
575.772	183.12
575.976	553.8
576.18	-76.97
576.383	-199.85
576.587	461.65
576.791	379.73
576.995	-226.47
577.199	-234.66
577.403	478.03
577.607	527.18
577.811	-156.84
578.015	31.57
578.219	203.6
578.422	467.79
578.626	-42.15
578.83	131.92
579.034	473.93
579.238	269.14
579.442	-19.63
579.645	418.64
579.849	213.84
580.053	224.08
580.257	-46.25
580.46	138.07
580.664	420.69
580.868	424.78
581.071	201.55
581.275	39.76
581.479	50
581.682	418.64
581.886	-85.16
582.09	97.11
582.293	402.26
582.497	504.65
582.7	213.84
582.904	-54.44
583.107	267.09
583.311	211.79
583.515	99.16
583.718	58.2
583.922	371.54
584.125	686.92
584.329	-25.77
584.532	45.91
584.735	486.22
584.939	336.72
585.142	-179.37
585.346	-79.02
585.549	371.54
585.753	195.41
585.956	84.82
586.159	123.73
586.363	725.83
586.566	344.91
586.769	-74.92
586.973	-66.73
587.176	490.32
587.379	518.99
587.582	408.4
587.786	256.85
587.989	254.8
588.192	1026.89
588.395	168.79
588.599	365.39
588.802	346.96
589.005	488.27
589.208	-31.91
589.411	19.29
589.615	607.05
589.818	662.35
590.021	336.72
590.224	176.98
590.427	529.23
590.63	465.74
590.833	-50.35
591.036	15.19
591.239	226.13
591.442	226.13
591.645	312.14
591.848	33.62
592.051	404.3
592.254	574.28
592.457	107.35
592.66	138.07
592.863	289.62
593.066	463.69
593.269	2.9
593.472	158.55
593.675	168.79
593.878	584.52
594.081	205.65
594.284	-46.25
594.486	490.32
594.689	449.36
594.892	199.51
595.095	136.02
595.298	533.33
595.5	242.51
595.703	140.12
595.906	207.7
596.109	645.96
596.311	564.04
596.514	-171.18
596.717	152.4
596.92	766.79
597.122	457.55
597.325	-103.59
597.528	7
597.73	697.16
597.933	314.19
598.136	172.88
598.338	-171.18
598.541	516.94
598.743	715.59
598.946	123.73
599.148	215.89
599.351	600.91
599.554	605
599.756	211.79
599.959	90.96
600.161	602.96
600.363	951.11
600.566	400.21
600.768	41.81
600.971	783.18
601.173	559.95
601.376	166.74
601.578	197.46
601.78	498.51
601.983	1059.65
602.185	140.12
602.388	308.05
602.59	482.13
602.792	306
602.995	359.25
603.197	152.4
603.399	617.29
603.601	551.76
603.804	140.12
604.006	107.35
604.208	389.97
604.41	-5.29
604.613	486.22
604.815	152.4
605.017	1022.79
605.219	338.77
605.421	596.81
605.623	162.64
605.826	736.07
606.028	834.38
606.23	115.54
606.432	123.73
606.634	824.14
606.836	809.8
607.038	19.29
607.24	363.34
607.442	435.02
607.644	461.65
607.846	375.63
608.048	99.16
608.25	772.94
608.452	283.47
608.654	303.95
608.856	-42.15
609.058	547.66
609.26	514.89
609.462	410.45
609.664	164.69
609.866	1008.45
610.067	711.5
610.269	389.97
610.471	248.66
610.673	418.64
610.875	666.44
611.077	170.83
611.278	365.39
611.48	574.28
611.682	942.92
611.884	387.92
612.085	320.34
612.287	328.53
612.489	580.43
612.69	133.97
612.892	293.71
613.094	822.09
613.295	596.81
613.497	113.49
613.699	242.51
613.9	895.82
614.102	729.93
614.304	240.47
614.505	109.4
614.707	494.41
614.908	572.24
615.11	64.34
615.311	277.33
615.513	662.35
615.714	815.94
615.916	219.99
616.117	265.04
616.319	473.93
616.52	729.93
616.722	289.62
616.923	262.99
617.124	828.23
617.326	691.02
617.527	408.4
617.729	457.55
617.93	756.55
618.131	789.32
618.333	283.47
618.534	375.63
618.735	416.59
618.937	949.06
619.138	56.15
619.339	236.37
619.54	631.63
619.742	461.65
619.943	387.92
620.144	310.1
620.345	768.84
620.546	795.47
620.748	248.66
620.949	318.29
621.15	596.81
621.351	678.73
621.552	349.01
621.753	111.44
621.954	299.86
622.155	1043.27
622.356	187.22
622.558	457.55
622.759	529.23
622.96	1049.41
623.161	269.14
623.362	371.54
623.563	514.89
623.764	658.25
623.965	340.82
624.166	492.37
624.366	625.48
624.567	758.6
624.768	88.92
624.969	400.21
625.17	498.51
625.371	807.75
625.572	398.16
625.773	287.57
625.973	846.66
626.174	719.69
626.375	508.75
626.576	506.7
626.777	748.36
626.977	1133.38
627.178	381.78
627.379	494.41
627.58	588.62
627.78	777.03
627.981	428.88
628.182	457.55
628.382	899.91
628.583	346.96
628.784	306
628.984	572.24
629.185	875.34
629.386	809.8
629.586	412.5
629.787	295.76
629.987	842.57
630.188	701.26
630.388	443.21
630.589	494.41
630.79	1229.63
630.99	727.88
631.191	439.12
631.391	527.18
631.591	918.34
631.792	1049.41
631.992	529.23
632.193	484.17
632.393	1121.09
632.594	781.13
632.794	387.92
632.994	664.4
633.195	760.65
633.395	801.61
633.595	275.28
633.796	701.26
633.996	492.37
634.196	1106.76
634.397	342.86
634.597	596.81
634.797	584.52
634.997	1125.19
635.198	746.31
635.398	367.44
635.598	795.47
635.798	1030.98
635.998	832.33
636.199	367.44
636.399	570.19
636.599	504.65
636.799	531.28
636.999	811.85
637.199	942.92
637.399	985.93
637.599	387.92
637.799	512.85
637.999	504.65
638.199	1205.06
638.399	410.45
638.599	564.04
638.799	940.87
638.999	1188.68
639.199	789.32
639.399	676.68
639.599	1026.89
639.799	625.48
639.999	473.93
640.199	336.72
640.399	924.49
640.599	811.85
640.799	625.48
640.998	721.74
641.198	1065.8
641.398	1008.45
641.598	637.77
641.798	584.52
641.997	1710.91
642.197	813.9
642.397	627.53
642.597	580.43
642.796	953.16
642.996	1063.75
643.196	711.5
643.395	523.09
643.595	967.49
643.795	432.97
643.994	547.66
644.194	623.44
644.394	969.54
644.593	781.13
644.793	467.79
644.992	717.64
645.192	891.72
645.392	496.46
645.591	731.98
645.791	545.61
645.99	1028.93
646.19	762.7
646.389	635.72
646.589	629.58
646.788	955.21
646.987	955.21
647.187	926.54
647.386	774.99
647.586	822.09
647.785	1096.52
647.984	570.19
648.184	715.59
648.383	736.07
648.582	793.42
648.782	668.49
648.981	777.03
649.18	686.92
649.38	924.49
649.579	650.06
649.778	598.86
649.977	901.96
650.177	998.21
650.376	578.38
650.575	545.61
650.774	1334.08
650.973	779.08
651.173	506.7
651.372	740.17
651.571	963.4
651.77	1092.42
651.969	625.48
652.168	785.23
652.367	668.49
652.566	1010.5
652.765	650.06
652.964	959.3
653.163	1362.75
653.362	904.01
653.561	645.96
653.76	734.03
653.959	824.14
654.158	1121.09
654.357	955.21
654.556	721.74
654.755	1131.33
654.954	1100.61
655.153	752.46
655.352	715.59
655.551	1256.26
655.749	836.42
655.948	766.79
656.147	809.8
656.346	1121.09
656.545	959.3
656.743	791.37
656.942	854.86
657.141	1080.13
657.34	793.42
657.538	746.31
657.737	863.05
657.936	838.47
658.135	1088.32
658.333	750.41
658.532	836.42
658.731	1461.06
658.929	1252.16
659.128	1096.52
659.326	727.88
659.525	1477.44
659.724	1088.32
659.922	518.99
660.121	627.53
660.319	1063.75
660.518	822.09
660.716	701.26
660.915	637.77
661.113	1440.58
661.312	711.5
661.51	916.3
661.709	660.3
661.907	1254.21
662.105	1389.38
662.304	785.23
662.502	916.3
662.701	1383.23
662.899	998.21
663.097	1227.59
663.296	680.78
663.494	1370.94
663.692	1446.72
663.891	875.34
664.089	820.04
664.287	1145.67
664.485	1463.1
664.684	854.86
664.882	1063.75
665.08	1094.47
665.278	1117
665.476	809.8
665.675	1014.6
665.873	1571.65
666.071	1342.27
666.269	801.61
666.467	1151.81
666.665	1215.3
666.863	1045.32
667.061	959.3
667.259	893.77
667.457	1049.41
667.655	1264.45
667.853	695.11
668.051	912.2
668.249	959.3
668.447	1295.17
668.645	789.32
668.843	1080.13
669.041	1248.07
669.239	1024.84
669.437	983.88
669.635	1082.18
669.833	1014.6
670.031	1340.22
670.229	1057.61
670.426	1057.61
670.624	1051.46
670.822	998.21
671.02	947.01
671.218	1061.7
671.415	955.21
671.613	1180.48
671.811	1092.42
672.009	944.97
672.206	1309.51
672.404	1174.34
672.602	1141.57
672.799	1045.32
672.997	1274.69
673.195	1456.96
673.392	1155.91
673.59	901.96
673.788	1473.34
673.985	779.08
674.183	1067.85
674.38	1018.69
674.578	1456.96
674.775	1059.65
674.973	908.1
675.17	967.49
675.368	1567.55
675.565	1215.3
675.763	875.34
675.96	957.25
676.158	1588.03
676.355	1203.01
676.553	990.02
676.75	983.88
676.947	1297.22
677.145	1203.01
677.342	1088.32
677.539	1145.67
677.737	1258.31
677.934	1801.02
678.131	1164.1
678.329	1073.99
678.526	1641.28
678.723	1393.47
678.92	1147.72
679.118	1092.42
679.315	975.69
679.512	1649.47
679.709	1051.46
679.906	1096.52
680.104	1524.54
680.301	1137.48
680.498	967.49
680.695	895.82
680.892	1229.63
681.089	1123.14
681.286	1160
681.483	924.49
681.68	1481.53
681.877	1612.6
682.075	1170.24
682.272	1278.79
682.469	1467.2
682.665	1186.63
682.862	973.64
683.059	920.39
683.256	1348.42
683.453	1358.66
683.65	1289.03
683.847	1157.96
684.044	1387.33
684.241	1147.72
684.438	1133.38
684.635	955.21
684.831	1780.54
685.028	1745.72
685.225	1131.33
685.422	1198.92
685.619	1246.02
685.815	1297.22
686.012	1272.64
686.209	1153.86
686.405	1186.63
686.602	1528.64
686.799	1133.38
686.996	983.88
687.192	1164.1
687.389	1889.08
687.586	1071.94
687.782	1123.14
687.979	1786.68
688.175	1575.74
688.372	1213.25
688.568	1215.3
688.765	1229.63
688.962	1678.14
689.158	1260.35
689.355	1008.45
689.551	1588.03
689.748	1289.03
689.944	1268.55
690.14	1045.32
690.337	1514.3
690.533	1233.73
690.73	1403.71
690.926	1221.44
691.123	1502.01
691.319	1442.62
691.515	1078.08
691.712	1266.5
691.908	1588.03
692.104	1454.91
692.301	1432.38
692.497	1162.05
692.693	1659.71
692.889	1680.19
693.086	1260.35
693.282	1100.61
693.478	1481.53
693.674	1829.69
693.87	1229.63
694.067	1035.08
694.263	1463.1
694.459	1260.35
694.655	1422.14
694.851	1264.45
695.047	1579.84
695.243	1540.93
695.439	1317.7
695.635	1143.62
695.831	1524.54
696.027	1596.22
696.224	1237.83
696.42	1598.27
696.615	1858.36
696.811	1583.93
697.007	1078.08
697.203	1297.22
697.399	1547.07
697.595	1764.15
697.791	1155.91
697.987	1360.7
698.183	1262.4
698.379	1340.22
698.575	1260.35
698.77	1223.49
698.966	1755.96
699.162	1774.39
699.358	1317.7
699.554	1262.4
699.749	1643.32
699.945	1667.9
700.141	1342.27
700.337	1375.04
700.532	1436.48
700.728	1397.57
700.924	1248.07
701.119	1229.63
701.315	1579.84
701.511	1553.21
701.706	1381.18
701.902	1276.74
702.097	1450.82
702.293	1751.87
702.489	1389.38
702.684	1293.12
702.88	1559.36
703.075	1418.05
703.271	1354.56
703.466	1174.34
703.662	1532.73
703.857	1682.24
704.053	1248.07
704.248	1221.44
704.443	1661.76
704.639	1659.71
704.834	1321.79
705.03	1260.35
705.225	1796.92
705.42	1866.55
705.616	1481.53
705.811	1289.03
706.006	1487.68
706.202	1483.58
706.397	1395.52
706.592	1350.46
706.787	1698.62
706.983	1555.26
707.178	1663.8
707.373	1418.05
707.568	1835.83
707.763	1825.59
707.959	1416
708.154	1366.85
708.349	1581.89
708.544	1704.76
708.739	1594.17
708.934	1303.36
709.129	1721.15
709.324	1846.07
709.519	1329.99
709.714	1420.1
709.909	1895.22
710.104	1737.53
710.299	1442.62
710.494	1516.35
710.689	1778.49
710.884	1661.76
711.079	1592.13
711.274	1553.21
711.469	1614.65
711.664	1764.15
711.859	1301.31
712.054	1524.54
712.249	1686.33
712.443	1827.64
712.638	1399.62
712.833	1399.62
713.028	1655.61
713.223	1631.04
713.417	1792.83
713.612	1461.06
713.807	1936.18
714.002	2294.58
714.196	1616.7
714.391	1385.28
714.586	1778.49
714.78	1694.52
714.975	1379.14
715.17	1397.57
715.364	1645.37
715.559	2001.72
715.754	1235.78
715.948	1438.53
716.143	2042.68
716.337	1698.62
716.532	1776.44
716.726	1418.05
716.921	1936.18
717.115	2087.73
717.31	1329.99
717.504	2044.73
717.699	1678.14
717.893	1913.66
718.088	1397.57
718.282	1332.03
718.476	1727.29
718.671	1948.47
718.865	1403.71
719.059	1555.26
719.254	1700.67
719.448	2014.01
719.642	2839.34
719.837	1311.55
720.031	1874.74
720.225	1956.66
720.419	1522.49
720.614	1403.71
720.808	2001.72
721.002	1682.24
721.196	1407.81
721.39	1413.95
721.585	2028.34
721.779	1768.25
721.973	1559.36
722.167	1309.51
722.361	1772.35
722.555	1985.34
722.749	1528.64
722.943	1512.25
723.137	1489.73
723.331	1846.07
723.525	1444.67
723.719	1559.36
723.913	1919.8
724.107	2128.69
724.301	1493.82
724.495	1526.59
724.689	2313.01
724.883	1915.7
725.077	1407.81
725.271	1401.66
725.465	2069.3
725.659	1710.91
725.853	1624.89
726.046	1436.48
726.24	1653.56
726.434	2095.93
726.628	1567.55
726.822	1620.8
727.015	2145.08
727.209	2143.03
727.403	1481.53
727.596	1452.86
727.79	2079.54
727.984	2116.41
728.177	1579.84
728.371	1661.76
728.565	2181.94
728.758	1614.65
728.952	1514.3
729.146	1665.85
729.339	2018.1
729.533	1747.77
729.726	1624.89
729.92	1493.82
730.113	2104.12
730.307	1850.17
730.5	1604.41
730.694	1604.41
730.887	1827.64
731.081	1989.43
731.274	1471.29
731.468	1680.19
731.661	1817.4
731.854	1768.25
732.048	1581.89
732.241	1536.83
732.435	1618.75
732.628	1854.27
732.821	1768.25
733.014	1602.36
733.208	1694.52
733.401	2067.25
733.594	1803.07
733.788	1563.45
733.981	2227
734.174	1950.52
734.367	1755.96
734.56	1735.48
734.754	2083.64
734.947	1936.18
735.14	1499.97
735.333	1655.61
735.526	2042.68
735.719	1801.02
735.912	1530.69
736.105	1577.79
736.298	1915.7
736.491	1854.27
736.684	1612.6
736.877	1641.28
737.07	1987.38
737.263	2280.24
737.456	1680.19
737.649	1579.84
737.842	1866.55
738.035	1944.38
738.228	1790.78
738.421	1844.03
738.614	2247.48
738.807	2069.3
739	1514.3
739.192	1583.93
739.385	1930.04
739.578	2151.22
739.771	1895.22
739.964	1669.95
740.156	2005.81
740.349	1946.42
740.542	1956.66
740.735	1571.65
740.927	1682.24
741.12	1768.25
741.313	1626.94
741.505	1741.63
741.698	2161.46
741.891	2089.78
742.083	1854.27
742.276	1895.22
742.468	2030.39
742.661	1977.14
742.854	1817.4
743.046	1751.87
743.239	2464.56
743.431	1870.65
743.624	1872.7
743.816	1647.42
744.009	1917.75
744.201	2073.4
744.393	1938.23
744.586	1743.67
744.778	2190.13
744.971	1966.9
745.163	1833.79
745.355	1891.13
745.548	2057.01
745.74	1901.37
745.932	1846.07
746.125	1739.58
746.317	2579.25
746.509	2104.12
746.702	1772.35
746.894	1837.88
747.086	2118.45
747.278	2360.11
747.471	2022.2
747.663	1866.55
747.855	1985.34
748.047	2425.65
748.239	1735.48
748.431	1786.68
748.623	2378.55
748.815	2296.63
749.008	1710.91
749.2	1680.19
749.392	2097.97
749.584	2179.89
749.776	1893.18
749.968	1796.92
750.16	2546.48
750.352	2026.29
750.544	1858.36
750.736	1751.87
750.928	2319.15
751.12	2079.54
751.311	1821.5
751.503	1874.74
751.695	2167.6
751.887	2112.31
752.079	1639.23
752.271	1866.55
752.463	2976.55
752.654	2231.09
752.846	1856.31
753.038	1825.59
753.23	2048.82
753.421	2345.78
753.613	1827.64
753.805	2106.17
753.997	2288.43
754.188	2415.41
754.38	1788.73
754.572	1934.14
754.763	2063.16
754.955	2227
755.146	1964.86
755.338	1858.36
755.53	2220.85
755.721	2057.01
755.913	1755.96
756.104	1710.91
756.296	2061.11
756.487	2310.96
756.679	1702.72
756.87	1841.98
757.062	1983.29
757.253	2302.77
757.445	1737.53
757.636	1942.33
757.827	2145.08
758.019	2685.74
758.21	1753.91
758.401	1782.59
758.593	2599.73
758.784	2521.9
758.975	1823.55
759.167	1829.69
759.358	2118.45
759.549	2374.45
759.74	1850.17
759.932	1821.5
760.123	2431.79
760.314	1927.99
760.505	2097.97
760.696	1907.51
760.888	2718.51
761.079	2054.97
761.27	2016.05
761.461	1637.18
761.652	2599.73
761.843	1997.62
762.034	1938.23
762.225	2067.25
762.416	2061.11
762.607	2024.25
762.798	1833.79
762.989	1827.64
763.18	2890.54
763.371	2155.32
763.562	1927.99
763.753	1866.55
763.944	2468.66
764.135	2341.68
764.326	2173.75
764.517	1889.08
764.708	2276.15
764.899	2300.72
765.089	1962.81
765.28	1852.22
765.471	2196.28
765.662	2341.68
765.853	1893.18
766.043	1813.31
766.234	2321.2
766.425	2444.08
766.615	2007.86
766.806	1739.58
766.997	2458.42
767.187	2155.32
767.378	1833.79
767.569	1796.92
767.759	2237.24
767.95	2177.84
768.141	2128.69
768.331	1858.36
768.522	2095.93
768.712	2343.73
768.903	1973.05
769.093	1940.28
769.284	2642.73
769.474	2278.19
769.665	1647.42
769.855	1647.42
770.046	2302.77
770.236	2083.64
770.426	2134.84
770.617	1844.03
770.807	2220.85
770.998	2018.1
771.188	2030.39
771.378	1901.37
771.569	2343.73
771.759	2294.58
771.949	1727.29
772.139	1569.6
772.33	2317.11
772.52	2589.49
772.71	1897.27
772.9	1803.07
773.09	2468.66
773.281	2493.23
773.471	1930.04
773.661	1952.57
773.851	2374.45
774.041	2063.16
774.231	1858.36
774.421	2046.77
774.611	2644.78
774.802	2190.13
774.992	1997.62
775.182	1764.15
775.372	2145.08
775.562	2288.43
775.752	2005.81
775.942	1858.36
776.131	2595.63
776.321	2392.88
776.511	1954.62
776.701	1758.01
776.891	2495.28
777.081	2018.1
777.271	2151.22
777.461	1698.62
777.651	2384.69
777.84	2538.29
778.03	2093.88
778.22	1946.42
778.41	2460.46
778.599	1946.42
778.789	1997.62
778.979	1913.66
779.169	2224.95
779.358	2095.93
779.548	2216.76
779.738	1817.4
779.927	2206.52
780.117	1975.1
780.307	2014.01
780.496	1792.83
780.686	2296.63
780.875	2661.16
781.065	1813.31
781.254	1782.59
781.444	2210.61
781.633	2249.52
781.823	1962.81
782.012	1813.31
782.202	2112.31
782.391	2149.17
782.581	1866.55
782.77	2120.5
782.96	2446.13
783.149	2270
783.338	1887.03
783.528	1706.81
783.717	2433.84
783.906	2513.71
784.096	2194.23
784.285	1872.7
784.474	2157.36
784.663	1968.95
784.853	1950.52
785.042	1993.53
785.231	2177.84
785.42	2575.15
785.61	2200.37
785.799	1872.7
785.988	2200.37
786.177	2186.04
786.366	2026.29
786.555	2224.95
786.744	2327.35
786.933	2194.23
787.122	1796.92
787.312	1786.68
787.501	1983.29
787.69	2323.25
787.879	1971
788.068	1911.61
788.257	1870.65
788.445	2097.97
788.634	2063.16
788.823	1737.53
789.012	2894.63
789.201	2501.42
789.39	1993.53
789.579	1909.56
789.768	2214.71
789.957	2257.71
790.145	2022.2
790.334	1690.43
790.523	2061.11
790.712	2192.18
790.9	2065.21
791.089	1915.7
791.278	2325.3
791.467	2214.71
791.655	2138.93
791.844	2360.11
792.033	1954.62
792.221	2157.36
792.41	2022.2
792.599	1749.82
792.787	2376.5
792.976	2386.74
793.164	1835.83
793.353	2026.29
793.541	2405.17
793.73	2366.26
793.918	2075.45
794.107	1811.26
794.295	2222.9
794.484	2190.13
794.672	1989.43
794.861	1801.02
795.049	2317.11
795.238	2675.5
795.426	1811.26
795.614	2054.97
795.803	2194.23
795.991	2577.2
796.179	1860.41
796.368	1919.8
796.556	2433.84
796.744	2083.64
796.932	1909.56
797.121	1854.27
797.309	2200.37
797.497	2509.62
797.685	2009.91
797.874	1876.79
798.062	2130.74
798.25	2554.67
798.438	2014.01
798.626	2046.77
798.814	2466.61
799.002	2743.08
799.19	2050.87
799.378	2042.68
799.566	2542.38
799.755	2546.48
799.943	2218.8
800.131	1975.1
800.318	2319.15
800.506	2396.98
800.694	2032.44
800.882	2157.36
801.07	2708.27
801.258	2370.35
801.446	1913.66
801.634	2030.39
801.822	2206.52
802.01	2351.92
802.197	2044.73
802.385	2036.53
802.573	2362.16
802.761	2202.42
802.949	2059.06
803.136	1901.37
803.324	2460.46
803.512	2405.17
803.699	2143.03
803.887	1850.17
804.075	2698.03
804.262	2274.1
804.45	1989.43
804.638	2100.02
804.825	2208.56
805.013	2247.48
805.201	2001.72
805.388	1981.24
805.576	2378.55
805.763	2751.28
805.951	2108.21
806.138	2317.11
806.326	2781.99
806.513	2575.15
806.701	2163.51
806.888	2081.59
807.075	2372.4
807.263	2779.95
807.45	1962.81
807.638	2313.01
807.825	2890.54
808.012	2677.55
808.2	2349.87
808.387	2235.19
808.574	2652.97
808.761	2882.35
808.949	2100.02
809.136	2198.32
809.323	2399.02
809.51	2315.06
809.698	2444.08
809.885	2255.67
810.072	2566.96
810.259	2648.88
810.446	2192.18
810.633	2220.85
810.82	2677.55
811.008	2927.4
811.195	2286.39
811.382	2341.68
811.569	2442.03
811.756	2173.75
811.943	2278.19
812.13	2024.25
812.317	2347.83
812.504	2485.04
812.691	2306.87
812.878	2493.23
813.064	2937.64
813.251	2583.34
813.438	2118.45
813.625	2528.05
813.812	2485.04
813.999	2407.22
814.186	2188.08
814.372	2349.87
814.559	2456.37
814.746	2913.06
814.933	2272.05
815.12	2435.89
815.306	2251.57
815.493	2325.3
815.68	2368.31
815.866	2280.24
816.053	2831.15
816.24	3083.05
816.426	2415.41
816.613	2112.31
816.799	2595.63
816.986	2865.96
817.173	2198.32
817.359	2202.42
817.546	2724.65
817.732	2202.42
817.919	2030.39
818.105	2409.26
818.292	2427.7
818.478	2763.56
818.665	2519.85
818.851	2362.16
819.037	3130.15
819.224	2634.54
819.41	2214.71
819.597	2247.48
819.783	3033.9
819.969	2775.85
820.156	2442.03
820.342	2235.19
820.528	3273.51
820.714	2552.62
820.901	2591.53
821.087	2282.29
821.273	2970.41
821.459	2523.95
821.646	2280.24
821.832	2249.52
822.018	2589.49
822.204	2624.3
822.39	2249.52
822.576	2245.43
822.762	2689.84
822.948	2622.25
823.134	2501.42
823.32	2345.78
823.507	2421.55
823.693	2675.5
823.879	2669.36
824.065	2284.34
824.25	2644.78
824.436	2386.74
824.622	2304.82
824.808	2263.86
824.994	2579.25
825.18	2382.64
825.366	2192.18
825.552	2290.48
825.738	2532.14
825.923	2890.54
826.109	2532.14
826.295	2194.23
826.481	2403.12
826.667	2622.25
826.852	2501.42
827.038	2319.15
827.224	2874.15
827.409	3054.37
827.595	2116.41
827.781	2552.62
827.966	2886.44
828.152	2861.87
828.338	2485.04
828.523	2304.82
828.709	2376.5
828.894	2927.4
829.08	2368.31
829.266	2327.35
829.451	2433.84
829.637	2720.56
829.822	2513.71
830.008	2224.95
830.193	2741.04
830.378	2890.54
830.564	2431.79
830.749	2272.05
830.935	2757.42
831.12	2659.12
831.305	2218.8
831.491	2411.31
831.676	2304.82
831.861	2827.05
832.047	2292.53
832.232	2280.24
832.417	2882.35
832.602	2566.96
832.788	2313.01
832.973	2276.15
833.158	2691.88
833.343	2624.3
833.528	2376.5
833.714	2335.54
833.899	2698.03
834.084	2980.65
834.269	2532.14
834.454	2253.62
834.639	2720.56
834.824	2687.79
835.009	2396.98
835.194	2542.38
835.379	2757.42
835.564	2980.65
835.749	2431.79
835.934	2179.89
836.119	2792.23
836.304	2636.59
836.489	2306.87
836.674	2726.7
836.859	2396.98
837.044	2978.6
837.228	2433.84
837.413	2157.36
837.598	2599.73
837.783	2851.63
837.968	2347.83
838.152	2296.63
838.337	2169.65
838.522	2935.59
838.707	2784.04
838.891	2505.52
839.076	2624.3
839.261	2831.15
839.445	2288.43
839.63	2405.17
839.815	3025.7
839.999	2630.45
840.184	2298.67
840.368	2325.3
840.553	2884.39
840.737	2911.02
840.922	2302.77
841.106	2265.91
841.291	2292.53
841.475	2575.15
841.66	2222.9
841.844	2325.3
842.029	3267.36
842.213	2298.67
842.397	2421.55
842.582	2302.77
842.766	2954.02
842.951	2657.07
843.135	2396.98
843.319	2317.11
843.504	2646.83
843.688	2857.77
843.872	2038.58
844.056	2278.19
844.241	2843.43
844.425	2571.05
844.609	2456.37
844.793	2220.85
844.977	2880.3
845.161	2665.26
845.346	2229.04
845.53	2296.63
845.714	2575.15
845.898	3017.51
846.082	2071.35
846.266	2235.19
846.45	2718.51
846.634	2634.54
846.818	2253.62
847.002	2427.7
847.186	2763.56
847.37	2372.4
847.554	2235.19
847.738	2368.31
847.922	2614.06
848.106	2820.91
848.29	2177.84
848.473	2259.76
848.657	2736.94
848.841	2450.22
849.025	2231.09
849.209	2128.69
849.392	2812.71
849.576	2575.15
849.76	2104.12
849.944	2347.83
850.127	2964.26
850.311	2343.73
850.495	2251.57
850.678	2216.76
850.862	2763.56
851.046	2990.89
851.229	2523.95
851.413	2231.09
851.596	2482.99
851.78	2454.32
851.964	2380.59
852.147	2358.07
852.331	3343.14
852.514	2841.39
852.698	2376.5
852.881	2206.52
853.065	2728.75
853.248	2472.75
853.431	2472.75
853.615	2313.01
853.798	3152.68
853.982	2634.54
854.165	2468.66
854.348	2294.58
854.532	2423.6
854.715	2394.93
854.898	2261.81
855.081	2288.43
855.265	2902.83
855.448	2997.03
855.631	2167.6
855.814	2282.29
855.997	2702.12
856.181	2566.96
856.364	2253.62
856.547	2122.55
856.73	2652.97
856.913	2624.3
857.096	1995.57
857.279	2288.43
857.462	2474.8
857.645	2825
857.828	2562.86
858.011	2468.66
858.194	2480.94
858.377	2671.4
858.56	2102.07
858.743	2292.53
858.926	2345.78
859.109	2661.16
859.292	2304.82
859.475	2190.13
859.658	2788.14
859.841	2652.97
860.023	2007.86
860.206	2194.23
860.389	2573.1
860.572	2771.76
860.755	2229.04
860.937	2278.19
861.12	2480.94
861.303	2470.7
861.486	2337.59
861.668	2097.97
861.851	2657.07
862.034	2655.02
862.216	2411.31
862.399	2026.29
862.581	2575.15
862.764	2884.39
862.947	2343.73
863.129	2038.58
863.312	2222.9
863.494	2970.41
863.677	2485.04
863.859	1915.7
864.042	2732.84
864.224	2847.53
864.406	2394.93
864.589	2024.25
864.771	2675.5
864.954	2308.91
865.136	2132.79
865.318	2040.63
865.501	2714.41
865.683	2020.15
865.865	2212.66
866.048	2114.36
866.23	2616.11
866.412	2444.08
866.594	2063.16
866.777	2310.96
866.959	2646.83
867.141	2353.97
867.323	2472.75
867.505	2347.83
867.687	2456.37
867.869	2458.42
868.052	2204.47
868.234	2079.54
868.416	2489.14
868.598	2583.34
868.78	2169.65
868.962	2069.3
869.144	2773.8
869.326	2706.22
869.508	2272.05
869.69	2143.03
869.872	2263.86
870.054	2718.51
870.236	1915.7
870.417	2153.27
870.599	2407.22
870.781	2798.38
870.963	2210.61
871.145	1966.9
871.327	2138.93
871.508	2777.9
871.69	2093.88
871.872	2290.48
872.054	2349.87
872.235	2648.88
872.417	2308.91
872.599	2130.74
872.78	2880.3
872.962	2591.53
873.144	2067.25
873.325	2140.98
873.507	2931.5
873.689	2628.4
873.87	2100.02
874.052	2308.91
874.233	2482.99
874.415	2833.19
874.596	2288.43
874.778	2179.89
874.959	2499.38
875.141	2788.14
875.322	2331.44
875.503	2095.93
875.685	2556.72
875.866	2190.13
876.048	2243.38
876.229	2114.36
876.41	2425.65
876.592	2659.12
876.773	2243.38
876.954	2181.94
877.136	2988.84
877.317	2452.27
877.498	2128.69
877.679	2347.83
877.86	2583.34
878.042	2523.95
878.223	2212.66
878.404	2546.48
878.585	2710.32
878.766	3078.95
878.947	2562.86
879.128	2493.23
879.309	2804.52
879.49	2894.63
879.672	2288.43
879.853	2341.68
880.034	2407.22
880.215	2534.19
880.396	2372.4
880.576	2386.74
880.757	2429.74
880.938	2943.78
881.119	2290.48
881.3	2181.94
881.481	2503.47
881.662	3498.78
881.843	2374.45
882.023	2327.35
882.204	2681.64
882.385	2718.51
882.566	2392.88
882.747	2323.25
882.927	2722.6
883.108	2675.5
883.289	2480.94
883.469	2626.35
883.65	2534.19
883.831	2865.96
884.011	2579.25
884.192	2431.79
884.373	3128.1
884.553	2806.57
884.734	2593.58
884.914	2566.96
885.095	3347.23
885.275	3119.91
885.456	2726.7
885.636	2235.19
885.817	2671.4
885.997	2755.37
886.178	2284.34
886.358	2579.25
886.538	2763.56
886.719	3787.55
886.899	2376.5
887.08	2652.97
887.26	3052.33
887.44	2362.16
887.621	2341.68
887.801	2573.1
887.981	3283.75
888.161	3031.85
888.342	2491.18
888.522	2675.5
888.702	3072.81
888.882	3046.18
889.062	2652.97
889.242	2386.74
889.423	3189.54
889.603	2919.21
889.783	2710.32
889.963	2462.51
890.143	2984.74
890.323	3162.92
890.503	2530.09
890.683	2616.11
890.863	3031.85
891.043	2900.78
891.223	2845.48
891.403	2794.28
891.583	2976.55
891.763	2857.77
891.943	2659.12
892.122	2540.33
892.302	2976.55
892.482	2847.53
892.662	2695.98
892.842	2718.51
893.022	2929.45
893.201	2657.07
893.381	2710.32
893.561	2583.34
893.741	3140.39
893.92	3027.75
894.1	2702.12
894.28	2765.61
894.459	2997.03
894.639	3025.7
894.819	2642.73
894.998	2632.49
895.178	2976.55
895.357	3009.32
895.537	2704.17
895.716	2417.46
895.896	2997.03
896.075	3328.8
896.255	2734.89
896.434	2495.28
896.614	3193.64
896.793	3150.63
896.973	2882.35
897.152	2757.42
897.331	2972.46
897.511	3142.44
897.69	2487.09
897.87	2650.92
898.049	3015.46
898.228	2906.92
898.407	2984.74
898.587	2884.39
898.766	2779.95
898.945	3205.92
899.124	3042.09
899.304	2718.51
899.483	3072.81
899.662	3423.01
899.841	2614.06
900.02	2724.65
900.199	3154.73
900.378	3101.48
900.557	2566.96
900.737	2622.25
900.916	3138.34
901.095	3035.94
901.274	2939.69
901.453	2646.83
901.632	2724.65
901.811	2829.1
901.989	2648.88
902.168	2540.33
902.347	3259.17
902.526	2818.86
902.705	2693.93
902.884	2681.64
903.063	3162.92
903.242	3363.62
903.42	2521.9
903.599	2806.57
903.778	2999.08
903.957	3130.15
904.135	2906.92
904.314	2726.7
904.493	2925.35
904.672	3072.81
904.85	2798.38
905.029	2652.97
905.207	3169.06
905.386	3562.27
905.565	2595.63
905.743	2550.57
905.922	2865.96
906.1	3050.28
906.279	2468.66
906.457	2624.3
906.636	2859.82
906.814	2853.67
906.993	2421.55
907.171	2509.62
907.35	3132.2
907.528	3193.64
907.707	2992.94
907.885	2626.35
908.063	3324.71
908.242	2652.97
908.42	2669.36
908.598	2540.33
908.777	3062.57
908.955	2605.87
909.133	2716.46
909.311	2399.02
909.49	2648.88
909.668	2968.36
909.846	2603.82
910.024	2491.18
910.202	2863.91
910.38	2921.26
910.559	2442.03
910.737	2399.02
910.915	2939.69
911.093	3115.81
911.271	2470.7
911.449	2771.76
911.627	3013.42
911.805	3318.56
911.983	2501.42
912.161	2558.77
912.339	3054.37
912.517	3205.92
912.695	2681.64
912.872	2472.75
913.05	2462.51
913.228	3037.99
913.406	2448.18
913.584	2425.65
913.762	2804.52
913.939	2646.83
914.117	2505.52
914.295	2464.56
914.473	2738.99
914.65	2894.63
914.828	2464.56
915.006	2403.12
915.184	2501.42
915.361	2775.85
915.539	2601.77
915.716	2710.32
915.894	2763.56
916.072	2913.06
916.249	2773.8
916.427	2585.39
916.604	2519.85
916.782	2896.68
916.959	2288.43
917.137	2507.57
917.314	2724.65
917.492	2886.44
917.669	2536.24
917.847	2536.24
918.024	2794.28
918.201	2605.87
918.379	2425.65
918.556	2421.55
918.733	2859.82
918.911	2437.94
919.088	2464.56
919.265	2407.22
919.442	2661.16
919.62	2714.41
919.797	2339.63
919.974	2243.38
920.151	2759.47
920.328	2741.04
920.506	2325.3
920.683	2566.96
920.86	2409.26
921.037	2509.62
921.214	2462.51
921.391	2247.48
921.568	2792.23
921.745	2415.41
921.922	2259.76
922.099	2163.51
922.276	2687.79
922.453	2771.76
922.63	2267.95
922.807	2640.69
922.984	2480.94
923.161	2435.89
923.338	2308.91
923.514	2165.56
923.691	2503.47
923.868	2499.38
924.045	2329.39
924.222	2175.8
924.399	2515.76
924.575	2636.59
924.752	2472.75
924.929	2300.72
925.105	2476.85
925.282	2313.01
925.459	2208.56
925.635	2196.28
925.812	2532.14
925.989	2300.72
926.165	2292.53
926.342	1932.09
926.518	2274.1
926.695	2380.59
926.871	2063.16
927.048	1997.62
927.224	2544.43
927.401	2224.95
927.577	2179.89
927.754	2071.35
927.93	2673.45
928.107	2464.56
928.283	1991.48
928.459	2251.57
928.636	2419.5
928.812	2376.5
928.988	2022.2
929.165	2075.45
929.341	2202.42
929.517	2433.84
929.693	2423.6
929.87	1735.48
930.046	2456.37
930.222	2136.88
930.398	1983.29
930.574	2046.77
930.751	2233.14
930.927	2186.04
931.103	2120.5
931.279	1962.81
931.455	2036.53
931.631	2339.63
931.807	1821.5
931.983	1747.77
932.159	1913.66
932.335	2249.52
932.511	1946.42
932.687	1927.99
932.863	2159.41
933.039	2065.21
933.215	1805.11
933.391	1688.38
933.566	2005.81
933.742	2071.35
933.918	1786.68
934.094	1712.96
934.27	2095.93
934.445	2075.45
934.621	1907.51
934.797	1704.76
934.973	2120.5
935.148	2122.55
935.324	1649.47
935.5	1448.77
935.675	2155.32
935.851	1993.53
936.027	1526.59
936.202	1612.6
936.378	1903.42
936.553	1723.2
936.729	1973.05
936.904	1579.84
937.08	1499.97
937.255	1563.45
937.431	1364.8
937.606	1377.09
937.782	1604.41
937.957	1727.29
938.133	1520.45
938.308	1260.35
938.483	1643.32
938.659	1334.08
938.834	1403.71
939.009	1180.48
939.185	1489.73
939.36	1203.01
939.535	1016.65
939.71	1272.64
939.886	1686.33
940.061	1526.59
940.236	1356.61
940.411	1155.91
940.586	1514.3
940.761	1542.97
940.937	1000.26
941.112	1016.65
941.287	1342.27
941.462	1325.89
941.637	967.49
941.812	1114.95
941.987	1411.9
942.162	1254.21
942.337	1133.38
942.512	1067.85
942.687	1473.34
942.862	1450.82
943.037	846.66
943.212	699.21
943.386	1127.24
943.561	1264.45
943.736	1096.52
943.911	1350.46
944.086	1334.08
944.26	1329.99
944.435	1028.93
944.61	1157.96
944.785	1592.13
944.959	1495.87
945.134	1004.36
945.309	846.66
945.483	953.16
945.658	1473.34
945.833	691.02
946.007	887.62
946.182	1469.25
946.357	1014.6
946.531	932.68
946.706	875.34
946.88	762.7
947.055	1182.53
947.229	914.25
947.404	844.62
947.578	1327.94
947.752	1063.75
947.927	828.23
948.101	756.55
948.276	1372.99
948.45	1317.7
948.624	1145.67
948.799	885.58
948.973	1188.68
949.147	910.15
949.321	949.06
949.496	969.54
949.67	1391.42
949.844	1129.28
950.018	928.58
950.193	916.3
950.367	1604.41
950.541	1151.81
950.715	1092.42
950.889	1149.76
951.063	1110.85
951.237	1368.9
951.411	740.17
951.585	768.84
951.759	1348.42
951.933	1139.52
952.107	777.03
952.281	1172.29
952.455	1485.63
952.629	1307.46
952.803	928.58
952.977	983.88
953.151	1293.12
953.325	1243.97
953.499	1117
953.672	764.75
953.846	944.97
954.02	1006.41
954.194	904.01
954.368	920.39
954.541	1256.26
954.715	977.73
954.889	1039.17
955.062	889.67
955.236	1190.72
955.41	1033.03
955.583	1067.85
955.757	727.88
955.93	1117
956.104	904.01
956.278	965.45
956.451	990.02
956.625	1299.27
956.798	1590.08
956.972	1172.29
957.145	856.9
957.319	1219.39
957.492	1090.37
957.665	1035.08
957.839	916.3
958.012	1356.61
958.185	1094.47
958.359	901.96
958.532	1198.92
958.705	1317.7
958.879	1219.39
959.052	981.83
959.225	781.13
959.398	1110.85
959.572	1198.92
959.745	809.8
959.918	1022.79
960.091	1137.48
960.264	1276.74
960.438	744.27
960.611	822.09
960.784	1317.7
960.957	944.97
961.13	1256.26
961.303	781.13
961.476	1182.53
961.649	1276.74
961.822	793.42
961.995	949.06
962.168	1211.2
962.341	1205.06
962.514	930.63
962.686	768.84
962.859	1180.48
963.032	1227.59
963.205	813.9
963.378	676.68
963.551	1231.68
963.723	1065.8
963.896	899.91
964.069	1020.74
964.242	1092.42
964.414	1459.01
964.587	908.1
964.76	1024.84
964.932	1141.57
965.105	1135.43
965.278	897.86
965.45	711.5
965.623	1114.95
965.795	1225.54
965.968	863.05
966.14	1030.98
966.313	1053.51
966.485	1211.2
966.658	871.24
966.83	824.14
967.003	1305.41
967.175	1362.75
967.348	762.7
967.52	746.31
967.692	1489.73
967.865	1219.39
968.037	842.57
968.209	1200.96
968.382	1121.09
968.554	1299.27
968.726	926.54
968.898	811.85
969.071	1270.59
969.243	1168.2
969.415	910.15
969.587	897.86
969.759	1659.71
969.932	1276.74
970.104	893.77
970.276	613.2
970.448	1073.99
970.62	1049.41
970.792	932.68
970.964	912.2
971.136	1518.4
971.308	1153.86
971.48	793.42
971.652	934.73
971.824	1434.43
971.996	850.76
972.168	824.14
972.339	926.54
972.511	1272.64
972.683	1000.26
972.855	994.12
973.027	854.86
973.199	1069.89
973.37	1297.22
973.542	1004.36
973.714	1020.74
973.886	1073.99
974.057	1358.66
974.229	863.05
974.401	781.13
974.572	881.48
974.744	639.82
974.915	691.02
975.087	774.99
975.259	1432.38
975.43	887.62
975.602	850.76
975.773	736.07
975.945	910.15
976.116	1301.31
976.288	820.04
976.459	906.06
976.63	879.43
976.802	1248.07
976.973	940.87
977.145	1088.32
977.316	1567.55
977.487	1346.37
977.659	1033.03
977.83	881.48
978.001	1397.57
978.172	1123.14
978.344	785.23
978.515	785.23
978.686	836.42
978.857	1385.28
979.028	791.37
979.2	738.12
979.371	1362.75
979.542	899.91
979.713	961.35
979.884	387.92
980.055	936.78
980.226	973.64
980.397	678.73
980.568	795.47
980.739	1260.35
980.91	944.97
981.081	1014.6
981.252	760.65
981.423	1151.81
981.594	1217.35
981.765	639.82
981.936	832.33
982.106	1010.5
982.277	1286.98
982.448	740.17
982.619	987.97
982.79	971.59
982.96	1200.96
983.131	809.8
983.302	584.52
983.472	793.42
983.643	959.3
983.814	762.7
983.984	711.5
984.155	895.82
984.326	1231.68
984.496	774.99
984.667	838.47
984.837	858.95
985.008	1284.93
985.178	901.96
985.349	715.59
985.519	883.53
985.69	813.9
985.86	705.35
986.031	764.75
986.201	1043.27
986.371	1149.76
986.542	590.67
986.712	545.61
986.882	1125.19
987.053	975.69
987.223	598.86
987.393	881.48
987.563	756.55
987.734	1141.57
987.904	990.02
988.074	707.4
988.244	957.25
988.414	836.42
988.585	635.72
988.755	846.66
988.925	838.47
989.095	1305.41
989.265	590.67
989.435	699.21
989.605	1071.94
989.775	1117
989.945	1045.32
990.115	619.34
990.285	811.85
990.455	1026.89
990.625	680.78
990.795	701.26
990.965	1231.68
991.134	693.07
991.304	631.63
991.474	596.81
991.644	901.96
991.814	1272.64
991.984	508.75
992.153	535.37
992.323	932.68
992.493	930.63
992.662	416.59
992.832	807.75
993.002	965.45
993.171	854.86
993.341	523.09
993.511	760.65
993.68	736.07
993.85	1000.26
994.019	555.85
994.189	584.52
994.358	938.82
994.528	674.64
994.697	400.21
994.867	445.26
995.036	1137.48
995.206	740.17
995.375	549.71
995.544	740.17
995.714	1014.6
995.883	889.67
996.052	729.93
996.222	402.26
996.391	1336.13
996.56	918.34
996.73	445.26
996.899	422.73
997.068	1260.35
997.237	867.14
997.406	527.18
997.576	414.54
997.745	885.58
997.914	944.97
998.083	400.21
998.252	506.7
998.421	809.8
998.59	627.53
998.759	451.41
998.928	387.92
999.097	1117
999.266	932.68
999.435	691.02
999.604	340.82
999.773	1329.99
999.942	809.8
1000.111	355.15
1000.28	330.58
1000.448	543.57
1000.617	428.88
1000.786	711.5
1000.955	461.65
1001.124	885.58
1001.292	1434.43
1001.461	523.09
1001.63	389.97
1001.798	1153.86
1001.967	1090.37
1002.136	355.15
1002.304	371.54
1002.473	877.38
1002.642	768.84
1002.81	518.99
1002.979	377.68
1003.147	924.49
1003.316	1375.04
1003.484	453.45
1003.653	371.54
1003.821	1078.08
1003.99	686.92
1004.158	596.81
1004.327	537.42
1004.495	867.14
1004.663	637.77
1004.832	615.24
1005	301.9
1005.168	959.3
1005.337	764.75
1005.505	328.53
1005.673	559.95
1005.842	785.23
1006.01	924.49
1006.178	293.71
1006.346	369.49
1006.514	793.42
1006.683	979.78
1006.851	394.06
1007.019	199.51
1007.187	500.56
1007.355	246.61
1007.523	95.06
1007.691	152.4
1007.859	306
1008.027	1067.85
1008.195	355.15
1008.363	293.71
1008.531	858.95
1008.699	518.99
1008.867	271.19
1009.035	387.92
1009.203	1047.37
1009.37	678.73
1009.538	326.48
1009.706	760.65
1009.874	756.55
1010.042	582.48
1010.209	273.23
1010.377	324.43
1010.545	803.66
1010.713	660.3
1010.88	205.65
1011.048	318.29
1011.216	582.48
1011.383	1026.89
1011.551	205.65
1011.718	228.18
1011.886	887.62
1012.054	584.52
1012.221	277.33
1012.389	226.13
1012.556	533.33
1012.724	1051.46
1012.891	418.64
1013.058	133.97
1013.226	680.78
1013.393	785.23
1013.561	201.55
1013.728	133.97
1013.895	906.06
1014.063	752.46
1014.23	234.32
1014.397	219.99
1014.565	852.81
1014.732	574.28
1014.899	267.09
1015.066	195.41
1015.233	674.64
1015.401	805.71
1015.568	351.06
1015.735	334.67
1015.902	529.23
1016.069	785.23
1016.236	228.18
1016.403	154.45
1016.57	387.92
1016.737	822.09
1016.904	211.79
1017.071	119.64
1017.238	533.33
1017.405	785.23
1017.572	326.48
1017.739	387.92
1017.906	760.65
1018.073	879.43
1018.24	113.49
1018.407	336.72
1018.573	920.39
1018.74	572.24
1018.907	234.32
1019.074	64.34
1019.241	850.76
1019.407	738.12
1019.574	207.7
1019.741	107.35
1019.907	731.98
1020.074	834.38
1020.241	-23.72
1020.407	232.27
1020.574	578.38
1020.74	662.35
1020.907	246.61
1021.073	21.33
1021.24	1065.8
1021.406	973.64
1021.573	160.59
1021.739	213.84
1021.906	856.9
1022.072	385.87
1022.239	301.9
1022.405	250.71
1022.571	531.28
1022.738	334.67
1022.904	131.92
1023.07	367.44
1023.237	510.8
1023.403	746.31
1023.569	258.9
1023.735	187.22
1023.902	596.81
1024.068	617.29
1024.234	72.53
1024.4	158.55
1024.566	588.62
1024.732	721.74
1024.898	115.54
1025.065	-50.35
1025.231	736.07
1025.397	457.55
1025.563	176.98
1025.729	105.3
1025.895	211.79
1026.061	187.22
1026.227	60.24
1026.392	136.02
1026.558	691.02
1026.724	523.09
1026.89	72.53
1027.056	230.23
1027.222	686.92
1027.388	535.37
1027.553	123.73
1027.719	62.29
1027.885	805.71
1028.051	598.86
1028.216	-117.93
1028.382	158.55
1028.548	744.27
1028.713	455.5
1028.879	80.72
1029.045	256.85
1029.21	727.88
1029.376	715.59
1029.541	189.27
1029.707	113.49
1029.873	686.92
1030.038	652.11
1030.204	101.2
1030.369	193.36
1030.534	656.2
1030.7	326.48
1030.865	72.53
1031.031	11.09
1031.196	625.48
1031.361	531.28
1031.527	103.25
1031.692	45.91
1031.857	90.96
1032.023	660.3
1032.188	43.86
1032.353	76.63
1032.518	789.32
1032.684	478.03
1032.849	-7.34
1033.014	121.68
1033.179	566.09
1033.344	578.38
1033.509	207.7
1033.674	103.25
1033.839	650.06
1034.004	625.48
1034.17	-5.29
1034.335	43.86
1034.5	412.5
1034.664	306
1034.829	80.72
1034.994	95.06
1035.159	555.85
1035.324	441.17
1035.489	154.45
1035.654	60.24
1035.819	744.27
1035.984	439.12
1036.148	146.26
1036.313	93.01
1036.478	678.73
1036.643	533.33
1036.807	58.2
1036.972	27.48
1037.137	813.9
1037.301	510.8
1037.466	-66.73
1037.631	170.83
1037.795	783.18
1037.96	441.17
1038.124	258.9
1038.289	-31.91
1038.454	637.77
1038.618	496.46
1038.783	21.33
1038.947	136.02
1039.111	521.04
1039.276	316.24
1039.44	13.14
1039.605	541.52
1039.769	326.48
1039.933	428.88
1040.098	170.83
1040.262	279.38
1040.426	686.92
1040.591	566.09
1040.755	-7.34
1040.919	56.15
1041.083	539.47
1041.248	449.36
1041.412	-83.11
1041.576	-44.2
1041.74	482.13
1041.904	588.62
1042.068	-64.68
1042.232	17.24
1042.397	654.16
1042.561	426.83
1042.725	-148.65
1042.889	205.65
1043.053	570.19
1043.217	566.09
1043.381	203.6
1043.544	-70.83
1043.708	691.02
1043.872	193.36
1044.036	-117.93
1044.2	-107.69
1044.364	633.68
1044.528	748.36
1044.691	1485.63
1044.855	-66.73
1045.019	627.53
1045.183	588.62
1045.346	109.4
1045.51	-38.06
1045.674	537.42
1045.837	527.18
1046.001	-29.87
1046.165	-29.87
1046.328	961.35
1046.492	494.41
1046.655	150.36
1046.819	150.36
1046.983	303.95
1047.146	502.61
1047.31	80.72
1047.473	-91.31
1047.636	373.58
1047.8	101.2
1047.963	117.59
1048.127	-9.39
1048.29	256.85
