Data from Ink_Intensity_USB4F045381__22__00022.txt Node

Date: Mon Jul 17 09:43:30 EDT 2023
User: mmckonesweet
Spectrometer: USB4F04538
Trigger mode: 4
Integration Time (sec): 9.000000E-1
Scans to average: 1
Electric dark correction enabled: true
Nonlinearity correction enabled: false
Boxcar width: 0
XAxis mode: Wavelengths
Number of Pixels in Spectrum: 3648
>>>>>Begin Spectral Data<<<<<
345.52	-902.64
345.736	-902.64
345.952	-902.64
346.168	-974.32
346.384	-992.75
346.6	-159.23
346.816	-261.63
347.032	-128.51
347.248	238.08
347.464	-165.37
347.68	-60.93
347.896	88.57
348.112	346.62
348.328	-7.68
348.544	-128.51
348.76	-40.45
348.975	279.04
349.191	-278.01
349.407	-93.69
349.623	-9.73
349.839	-46.59
350.055	-130.56
350.27	115.2
350.486	182.78
350.702	354.81
350.918	219.64
351.133	-204.28
351.349	158.21
351.565	389.63
351.781	-140.8
351.996	-3.58
352.212	287.23
352.428	-185.85
352.644	-179.71
352.859	-161.28
353.075	252.41
353.291	-87.55
353.506	-110.08
353.722	-251.39
353.938	-79.36
354.153	444.92
354.369	49.66
354.584	-196.09
354.8	219.64
355.016	-282.11
355.231	-181.76
355.447	6.66
355.662	20.99
355.878	829.94
356.093	-321.02
356.309	-7.68
356.524	-232.96
356.74	160.25
356.955	-130.56
357.171	12.8
357.386	82.43
357.602	-224.76
357.817	-81.41
358.033	-202.24
358.248	389.63
358.464	141.82
358.679	-134.65
358.895	-341.5
359.11	31.23
359.325	303.61
359.541	180.73
359.756	-42.5
359.972	-312.83
360.187	205.31
360.402	-187.9
360.618	-177.66
360.833	831.99
361.048	143.87
361.264	-173.57
361.479	-42.5
361.694	-79.36
361.909	203.26
362.125	-144.89
362.34	-83.45
362.555	117.25
362.77	68.09
362.986	-185.85
363.201	-146.94
363.416	170.49
363.631	-56.83
363.847	-173.57
364.062	-128.51
364.277	133.63
364.492	80.38
364.707	-155.13
364.922	-331.26
365.138	256.51
365.353	342.52
365.568	-163.33
365.783	-62.98
365.998	-22.02
366.213	575.99
366.428	-204.28
366.643	6.66
366.858	272.89
367.073	164.35
367.288	-85.5
367.503	-263.68
367.718	211.45
367.933	311.8
368.148	-298.49
368.363	-17.92
368.578	12.8
368.793	401.91
369.008	-128.51
369.223	-173.57
369.438	223.74
369.653	393.72
369.868	-232.96
370.083	-214.52
370.298	66.05
370.513	416.25
370.728	53.76
370.943	-85.5
371.157	-144.89
371.372	537.08
371.587	-187.9
371.802	-271.87
372.017	66.05
372.232	471.54
372.446	-30.21
372.661	-183.81
372.876	238.08
373.091	111.1
373.306	-105.98
373.52	-224.76
373.735	-228.86
373.95	373.24
374.165	-142.85
374.379	-83.45
374.594	-75.26
374.809	49.66
375.023	55.81
375.238	-155.13
375.453	219.64
375.667	-200.19
375.882	-110.08
376.097	-280.06
376.311	-79.36
376.526	-32.26
376.741	-267.77
376.955	119.29
377.17	442.87
377.384	492.02
377.599	-5.63
377.813	-247.29
378.028	578.04
378.242	215.55
378.457	-24.06
378.672	-409.08
378.886	76.29
379.101	-67.07
379.315	-321.02
379.53	-232.96
379.744	180.73
379.958	121.34
380.173	-108.03
380.387	-212.48
380.602	115.2
380.816	-228.86
381.031	-153.09
381.245	-65.02
381.459	143.87
381.674	2480.6
381.888	-216.57
382.103	86.53
382.317	-79.36
382.531	457.21
382.746	-34.3
382.96	-81.41
383.174	-157.18
383.388	344.57
383.603	145.92
383.817	-232.96
384.031	90.62
384.246	465.4
384.46	20.99
384.674	317.95
384.888	35.33
385.103	-34.3
385.317	-306.68
385.531	-36.35
385.745	305.66
385.959	354.81
386.174	-169.47
386.388	-292.35
386.602	39.42
386.816	-151.04
387.03	12.8
387.244	-65.02
387.458	25.09
387.672	328.19
387.887	-222.72
388.101	-263.68
388.315	391.67
388.529	119.29
388.743	-126.46
388.957	-165.37
389.171	322.04
389.385	-214.52
389.599	-30.21
389.813	64
390.027	119.29
390.241	659.96
390.455	-112.13
390.669	-183.81
390.883	-99.84
391.097	313.85
391.311	53.76
391.525	-169.47
391.738	188.93
391.952	137.73
392.166	-15.87
392.38	-196.09
392.594	248.32
392.808	217.6
393.022	-26.11
393.236	-67.07
393.449	104.96
393.663	111.1
393.877	-333.31
394.091	-116.22
394.305	-69.12
394.518	-220.67
394.732	-253.44
394.946	-126.46
395.16	453.11
395.373	76.29
395.587	-247.29
395.801	-179.71
396.015	217.6
396.228	193.02
396.442	-275.96
396.656	-327.16
396.869	356.86
397.083	389.63
397.297	-13.82
397.51	-130.56
397.724	334.33
397.938	10.75
398.151	-267.77
398.365	-251.39
398.578	276.99
398.792	428.54
399.005	45.57
399.219	-144.89
399.433	131.58
399.646	166.4
399.86	66.05
400.073	6.66
400.287	219.64
400.5	-13.82
400.714	49.66
400.927	20.99
401.141	223.74
401.354	1104.37
401.567	203.26
401.781	-140.8
401.994	309.76
402.208	588.28
402.421	-142.85
402.635	-7.68
402.848	45.57
403.061	324.09
403.275	-7.68
403.488	-179.71
403.701	502.26
403.915	244.22
404.128	45.57
404.341	-54.78
404.555	100.86
404.768	0.51
404.981	78.33
405.195	-130.56
405.408	471.54
405.621	158.21
405.834	94.72
406.048	-153.09
406.261	446.97
406.474	410.11
406.687	-161.28
406.9	90.62
407.114	92.67
407.327	143.87
407.54	-255.48
407.753	-259.58
407.966	-50.69
408.179	262.65
408.392	-167.42
408.605	-237.05
408.819	88.57
409.032	233.98
409.245	-173.57
409.458	147.97
409.671	252.41
409.884	301.56
410.097	-226.81
410.31	100.86
410.523	123.39
410.736	-9.73
410.949	23.04
411.162	-48.64
411.375	467.45
411.588	281.08
411.801	59.9
412.014	-116.22
412.227	55.81
412.44	-34.3
412.653	-108.03
412.865	70.14
413.078	244.22
413.291	231.93
413.504	8.7
413.717	-130.56
413.93	272.89
414.143	-73.21
414.356	-75.26
414.568	-247.29
414.781	313.85
414.994	223.74
415.207	-73.21
415.42	-58.88
415.632	371.19
415.845	461.3
416.058	-155.13
416.271	-189.95
416.483	111.1
416.696	449.02
416.909	-87.55
417.121	-36.35
417.334	248.32
417.547	610.81
417.759	-153.09
417.972	-171.52
418.185	-77.31
418.397	287.23
418.61	-34.3
418.823	-110.08
419.035	526.84
419.248	76.29
419.46	14.85
419.673	80.38
419.885	283.13
420.098	57.86
420.311	-48.64
420.523	-282.11
420.736	219.64
420.948	45.57
421.161	18.94
421.373	-263.68
421.586	197.12
421.798	-69.12
422.01	-228.86
422.223	59.9
422.435	37.38
422.648	240.12
422.86	-69.12
423.073	-67.07
423.285	403.96
423.497	-91.65
423.71	-71.17
423.922	-175.61
424.134	252.41
424.347	387.58
424.559	72.19
424.771	170.49
424.984	43.52
425.196	293.37
425.408	-214.52
425.621	-159.23
425.833	416.25
426.045	416.25
426.257	-175.61
426.47	-116.22
426.682	264.7
426.894	262.65
427.106	2.56
427.318	20.99
427.531	76.29
427.743	299.52
427.955	-116.22
428.167	291.32
428.379	291.32
428.591	41.47
428.804	84.48
429.016	-42.5
429.228	31.23
429.44	252.41
429.652	199.16
429.864	-134.65
430.076	57.86
430.288	166.4
430.5	23.04
430.712	-1.54
430.924	397.82
431.136	227.84
431.348	-169.47
431.56	-58.88
431.772	117.25
431.984	121.34
432.196	-13.82
432.408	-11.78
432.62	49.66
432.832	190.97
433.044	258.56
433.256	133.63
433.468	299.52
433.679	-171.52
433.891	-126.46
434.103	170.49
434.315	481.78
434.527	317.95
434.739	100.86
434.95	12.8
435.162	463.35
435.374	12.8
435.586	-36.35
435.798	-69.12
436.009	-144.89
436.221	117.25
436.433	-91.65
436.645	0.51
436.856	158.21
437.068	430.59
437.28	-56.83
437.491	287.23
437.703	279.04
437.915	272.89
438.126	12.8
438.338	174.59
438.55	123.39
438.761	348.67
438.973	84.48
439.184	29.18
439.396	211.45
439.608	440.83
439.819	-81.41
440.031	45.57
440.242	387.58
440.454	289.28
440.665	84.48
440.877	109.05
441.088	285.18
441.3	123.39
441.511	-146.94
441.723	37.38
441.934	344.57
442.146	289.28
442.357	150.01
442.569	193.02
442.78	233.98
442.991	598.52
443.203	326.14
443.414	-105.98
443.626	492.02
443.837	143.87
444.048	12.8
444.26	-17.92
444.471	180.73
444.682	453.11
444.894	-175.61
445.105	-177.66
445.316	348.67
445.528	268.8
445.739	158.21
445.95	70.14
446.161	330.23
446.373	541.18
446.584	76.29
446.795	-26.11
447.006	354.81
447.217	596.47
447.429	-134.65
447.64	49.66
447.851	438.78
448.062	184.83
448.273	-89.6
448.484	39.42
448.695	363
448.907	107.01
449.118	100.86
449.329	213.5
449.54	207.36
449.751	0.51
449.962	94.72
450.173	20.99
450.384	434.68
450.595	512.5
450.806	78.33
451.017	145.92
451.228	532.98
451.439	524.79
451.65	39.42
451.861	-140.8
452.072	59.9
452.283	168.45
452.494	268.8
452.705	104.96
452.915	662.01
453.126	330.23
453.337	160.25
453.548	-34.3
453.759	518.65
453.97	756.21
454.181	375.29
454.391	143.87
454.602	317.95
454.813	455.16
455.024	150.01
455.235	96.77
455.445	350.71
455.656	356.86
455.867	219.64
456.078	160.25
456.288	211.45
456.499	408.06
456.71	74.24
456.921	311.8
457.131	438.78
457.342	408.06
457.553	193.02
457.763	102.91
457.974	446.97
458.184	641.53
458.395	82.43
458.606	6.66
458.816	598.52
459.027	807.41
459.237	350.71
459.448	-1.54
459.659	537.08
459.869	797.17
460.08	-28.16
460.29	326.14
460.501	844.28
460.711	195.07
460.922	4.61
461.132	162.3
461.343	958.96
461.553	57.86
461.764	100.86
461.974	115.2
462.184	543.22
462.395	440.83
462.605	256.51
462.816	45.57
463.026	563.7
463.236	647.67
463.447	145.92
463.657	225.79
463.867	621.05
464.078	371.19
464.288	262.65
464.498	305.66
464.709	449.02
464.919	500.22
465.129	293.37
465.339	164.35
465.55	530.94
465.76	619
465.97	283.13
466.18	131.58
466.391	748.02
466.601	444.92
466.811	365.05
467.021	102.91
467.231	639.48
467.441	692.73
467.651	387.58
467.862	76.29
468.072	444.92
468.282	842.23
468.492	254.46
468.702	322.04
468.912	516.6
469.122	1079.79
469.332	600.57
469.542	297.47
469.752	768.5
469.962	651.77
470.172	328.19
470.382	346.62
470.592	776.69
470.802	846.32
471.012	485.88
471.222	373.24
471.432	750.07
471.642	754.16
471.852	457.21
472.062	426.49
472.272	526.84
472.482	342.52
472.691	334.33
472.901	262.65
473.111	735.73
473.321	1200.62
473.531	428.54
473.741	575.99
473.95	788.98
474.16	862.71
474.37	602.61
474.58	438.78
474.79	1061.36
474.999	868.85
475.209	465.4
475.419	512.5
475.628	788.98
475.838	1133.04
476.048	678.39
476.258	459.26
476.467	1063.41
476.677	686.58
476.886	780.79
477.096	748.02
477.306	631.29
477.515	1118.7
477.725	719.35
477.935	741.88
478.144	1139.18
478.354	635.38
478.563	659.96
478.773	739.83
478.982	1106.42
479.192	1047.02
479.401	864.75
479.611	696.82
479.82	696.82
480.03	893.43
480.239	735.73
480.449	653.81
480.658	1329.64
480.868	891.38
481.077	879.09
481.287	899.57
481.496	1171.95
481.705	1354.22
481.915	1126.89
482.124	987.63
482.333	1012.21
482.543	1323.5
482.752	881.14
482.961	840.18
483.171	1251.82
483.38	993.78
483.589	889.33
483.799	803.32
484.008	1096.18
484.217	1305.07
484.426	909.81
484.636	676.34
484.845	1073.65
485.054	887.28
485.263	1194.48
485.472	985.58
485.682	1642.98
485.891	1237.49
486.1	840.18
486.309	977.39
486.518	1282.54
486.727	1501.67
486.936	860.66
487.146	1151.47
487.355	1587.69
487.564	987.63
487.773	1042.93
487.982	1077.74
488.191	1202.67
488.4	1321.45
488.609	1081.84
488.818	1071.6
489.027	1935.84
489.236	1651.17
489.445	1120.75
489.654	1126.89
489.863	1638.89
490.072	1405.42
490.281	1495.53
490.49	1219.05
490.698	1661.41
490.907	1685.99
491.116	1147.37
491.325	1128.94
491.534	1767.91
491.743	1499.63
491.952	1352.17
492.16	1309.16
492.369	1536.49
492.578	1776.1
492.787	1393.13
492.996	1329.64
493.204	1505.77
493.413	1995.23
493.622	1174
493.831	1079.79
494.039	1944.03
494.248	1270.25
494.457	1315.31
494.665	1223.15
494.874	1718.76
495.083	1888.74
495.291	1432.04
495.5	1274.35
495.709	1729
495.917	1759.72
496.126	1497.58
496.335	1411.56
496.543	1622.5
496.752	1724.9
496.96	1606.12
497.169	1364.46
497.377	1696.23
497.586	2013.67
497.794	1665.51
498.003	1374.7
498.211	1540.58
498.42	2054.62
498.628	1649.13
498.837	1403.37
499.045	1849.83
499.254	1753.57
499.462	1501.67
499.671	1524.2
499.879	2193.89
500.087	1913.31
500.296	1630.7
500.504	1657.32
500.713	1944.03
500.921	2277.85
501.129	1597.93
501.338	1688.04
501.546	1989.09
501.754	1782.24
501.962	1634.79
502.171	1554.92
502.379	1978.85
502.587	2456.03
502.795	1821.16
503.004	1604.07
503.212	1831.4
503.42	2185.69
503.628	1651.17
503.837	1765.86
504.045	2091.49
504.253	2271.71
504.461	1608.17
504.669	1628.65
504.877	2238.94
505.085	2288.09
505.294	1647.08
505.502	2025.95
505.71	2083.3
505.918	2300.38
506.126	1790.44
506.334	1868.26
506.542	2064.86
506.75	2130.4
506.958	1952.23
507.166	1831.4
507.374	2009.57
507.582	2505.18
507.79	1980.9
507.998	1726.95
508.206	2146.78
508.414	2230.75
508.622	1911.27
508.83	1948.13
509.037	2462.17
509.245	2154.98
509.453	1925.6
509.661	1956.32
509.869	2443.74
510.077	2193.89
510.285	2077.15
510.492	1767.91
510.7	2714.07
510.908	2040.29
511.116	2103.78
511.324	2097.63
511.531	2099.68
511.739	2275.81
511.947	2206.17
512.155	2269.66
512.362	2222.56
512.57	1972.71
512.778	2036.19
512.985	1853.92
513.193	2492.89
513.401	2583
513.608	1880.55
513.816	2091.49
514.024	2460.12
514.231	2476.51
514.439	2114.02
514.646	2163.17
514.854	2464.22
515.061	2652.63
515.269	2179.55
515.477	2126.3
515.684	2216.41
515.892	2607.58
516.099	2011.62
516.307	2050.53
516.514	2589.14
516.722	2738.65
516.929	2142.69
517.136	2083.3
517.344	2656.73
517.551	2664.92
517.759	2193.89
517.966	2290.14
518.173	2308.57
518.381	2462.17
518.588	2234.85
518.796	2191.84
519.003	2709.97
519.21	2542.04
519.418	2320.86
519.625	2470.36
519.832	2345.44
520.039	2642.39
520.247	2173.41
520.454	2306.52
520.661	2775.51
520.868	2691.54
521.076	2400.73
521.283	2376.16
521.49	3191.25
521.697	2683.35
521.904	2392.54
522.112	2392.54
522.319	2857.43
522.526	2671.06
522.733	2445.79
522.94	2521.56
523.147	2662.87
523.354	2861.52
523.561	2410.97
523.768	2572.76
523.975	2863.57
524.183	2660.82
524.39	2603.48
524.597	2378.2
524.804	2769.37
525.011	2449.88
525.218	2388.44
525.425	2486.75
525.632	2886.1
525.838	2685.4
526.045	2574.81
526.252	2402.78
526.459	3850.69
526.666	3520.97
526.873	2468.31
527.08	2607.58
527.287	3131.86
527.494	2918.87
527.701	2511.32
527.907	2451.93
528.114	3015.12
528.321	2922.96
528.528	2679.26
528.735	2591.19
528.941	2742.74
529.148	2712.02
529.355	2879.96
529.562	2644.44
529.768	3287.5
529.975	2871.76
530.182	2824.66
530.388	2660.82
530.595	3250.64
530.802	2703.83
531.008	2869.72
531.215	2664.92
531.422	3725.77
531.628	3703.24
531.835	2927.06
532.042	2841.04
532.248	2898.39
532.455	2955.73
532.661	2832.85
532.868	2841.04
533.074	3068.37
533.281	3275.21
533.487	2886.1
533.694	2701.78
533.9	3045.84
534.107	3178.96
534.313	2826.71
534.52	2910.68
534.726	3242.45
534.933	3631.56
535.139	2793.94
535.345	2728.41
535.552	3295.69
535.758	3181.01
535.965	2984.4
536.171	2939.35
536.377	3320.27
536.584	3584.46
536.79	2826.71
536.996	3154.38
537.203	3318.22
537.409	3394
537.615	3072.47
537.821	3162.58
538.028	3373.52
538.234	3520.97
538.44	2972.11
538.646	3129.81
538.853	3443.15
539.059	3269.07
539.265	3619.27
539.471	2816.47
539.677	3404.24
539.883	3316.17
540.09	3121.62
540.296	3611.08
540.502	3445.2
540.708	3258.83
540.914	3416.52
541.12	3250.64
541.326	3490.25
541.532	3490.25
541.738	3244.49
541.944	3176.91
542.15	3742.15
542.356	3412.43
542.562	3226.06
542.768	3242.45
542.974	4075.97
543.18	3946.95
543.386	3191.25
543.592	3119.57
543.798	3721.67
544.004	3703.24
544.21	3289.55
544.415	3500.49
544.621	3682.76
544.827	3836.36
545.033	3252.69
545.239	3602.89
545.445	3340.75
545.651	3654.09
545.856	3514.83
546.062	3426.76
546.268	3656.14
546.474	3598.79
546.679	3451.34
546.885	3420.62
547.091	3537.35
547.297	4047.3
547.502	3588.55
547.708	3348.94
547.914	3600.84
548.119	3852.74
548.325	3377.61
548.531	3359.18
548.736	4088.26
548.942	3559.88
549.147	3443.15
549.353	3764.68
549.559	4196.8
549.764	3774.92
549.97	3516.87
550.175	3518.92
550.381	3918.28
550.586	3742.15
550.792	3516.87
550.997	3537.35
551.203	3957.19
551.408	4037.06
551.614	3545.55
551.819	3619.27
552.025	4168.13
552.23	4295.1
552.435	3555.79
552.641	3789.25
552.846	3781.06
553.052	4209.09
553.257	3920.32
553.462	3746.25
553.668	3807.69
553.873	4080.07
554.078	3766.73
554.283	3869.12
554.489	4094.4
554.694	4086.21
554.899	3736.01
555.105	3969.48
555.31	4225.47
555.515	4164.03
555.72	4024.77
555.925	3797.45
556.131	4106.69
556.336	4002.24
556.541	3822.02
556.746	3889.6
556.951	4344.25
557.156	4438.46
557.361	3981.76
557.567	3975.62
557.772	4737.46
557.977	4184.51
558.182	3871.17
558.387	3879.36
558.592	4131.26
558.797	4401.6
559.002	4178.37
559.207	4071.87
559.412	4278.72
559.617	4499.9
559.822	3918.28
560.027	3828.17
560.232	4389.31
560.437	4491.71
560.642	4026.82
560.847	3901.89
561.051	4209.09
561.256	4258.24
561.461	4100.55
561.666	3934.66
561.871	4374.97
562.076	4399.55
562.281	4051.39
562.485	3983.81
562.69	4432.32
562.895	4557.24
563.1	4067.78
563.305	4229.57
563.509	4612.54
563.714	4915.64
563.919	4200.9
564.123	4090.31
564.328	4305.34
564.533	4579.77
564.737	4188.61
564.942	4331.97
565.147	4817.33
565.351	5087.67
565.556	4143.55
565.761	4440.51
565.965	4346.3
566.17	4256.19
566.374	4088.26
566.579	4041.15
566.784	4420.03
566.988	4239.81
567.193	4024.77
567.397	4307.39
567.602	4176.32
567.806	4526.52
568.011	4295.1
568.215	4329.92
568.42	4481.47
568.624	4563.39
568.828	4338.11
569.033	4360.64
569.237	4800.95
569.442	4614.59
569.646	4069.83
569.85	4475.32
570.055	4555.19
570.259	4710.84
570.463	4639.16
570.668	4381.12
570.872	4602.3
571.076	4614.59
571.281	4608.44
571.485	4555.19
571.689	4616.63
571.893	4850.1
572.098	4596.15
572.302	4405.69
572.506	4753.85
572.71	4682.17
572.914	4469.18
573.119	4518.33
573.323	5177.78
573.527	5116.34
573.731	4665.78
573.935	4581.82
574.139	4889.01
574.343	4848.05
574.547	4489.66
574.751	4497.85
574.955	5214.64
575.159	5214.64
575.364	4663.74
575.568	4565.43
575.772	4952.5
575.976	5269.94
576.18	4540.86
576.383	4479.42
576.587	5149.11
576.791	5091.76
576.995	4364.73
577.199	4342.21
577.403	5134.77
577.607	5284.27
577.811	4604.35
578.015	4925.88
578.219	4905.4
578.422	5075.38
578.626	4784.57
578.83	4807.09
579.034	5278.13
579.238	4929.97
579.442	4839.86
579.645	5108.15
579.849	4993.46
580.053	5122.48
580.257	4878.77
580.46	4925.88
580.664	5259.7
580.868	5179.82
581.071	5097.91
581.275	4964.79
581.479	4983.22
581.682	5386.67
581.886	4891.06
582.09	4868.53
582.293	5382.57
582.497	5335.47
582.7	5169.59
582.904	5093.81
583.107	5175.73
583.311	5169.59
583.515	4977.08
583.718	4946.36
583.922	5302.7
584.125	5597.61
584.329	4966.84
584.532	5202.35
584.735	5468.59
584.939	5339.57
585.142	4764.09
585.346	5036.47
585.549	5511.6
585.753	5116.34
585.956	5108.15
586.159	5204.4
586.363	5695.91
586.566	5392.81
586.769	5052.85
586.973	4968.88
587.176	5386.67
587.379	5577.13
587.582	5521.84
587.786	5245.36
587.989	5396.91
588.192	5951.91
588.395	5263.79
588.599	5392.81
588.802	5466.54
589.005	5482.92
589.208	5190.06
589.411	5204.4
589.615	5738.92
589.818	5869.99
590.021	5388.72
590.224	5216.69
590.427	5620.14
590.63	5773.74
590.833	5140.91
591.036	5249.46
591.239	5349.81
591.442	5431.73
591.645	5407.15
591.848	5323.18
592.051	5521.84
592.254	5816.74
592.457	5491.12
592.66	5409.2
592.863	5466.54
593.066	5732.78
593.269	5290.42
593.472	5579.18
593.675	5616.04
593.878	5843.37
594.081	5657
594.284	5454.25
594.486	5927.33
594.689	5738.92
594.892	5609.9
595.095	5454.25
595.298	5898.66
595.5	5632.43
595.703	5761.45
595.906	5794.22
596.109	6111.65
596.311	6058.4
596.514	5269.94
596.717	5581.23
596.92	6111.65
597.122	5900.71
597.325	5327.28
597.528	5648.81
597.73	6097.31
597.933	5814.7
598.136	5464.49
598.338	5321.13
598.541	6003.11
598.743	6353.31
598.946	5700.01
599.148	5630.38
599.351	6115.75
599.554	5980.58
599.756	5849.51
599.959	5732.78
600.161	6162.85
600.363	6474.14
600.566	6005.16
600.768	5786.02
600.971	6547.87
601.173	6130.08
601.376	5794.22
601.578	5863.85
601.78	6109.6
601.983	6576.54
602.185	5824.94
602.388	5966.24
602.59	6162.85
602.792	6013.35
602.995	6199.71
603.197	5722.54
603.399	6390.17
603.601	6275.49
603.804	5894.57
604.006	5872.04
604.208	6095.27
604.41	5726.63
604.613	6140.32
604.815	5910.95
605.017	6605.21
605.219	6052.26
605.421	6056.36
605.623	5872.04
605.826	6601.12
606.028	6584.73
606.23	5859.75
606.432	5908.9
606.634	6670.75
606.836	6490.52
607.038	5888.42
607.24	6275.49
607.442	6257.06
607.644	6238.62
607.846	6128.03
608.048	5917.09
608.25	6486.43
608.452	6349.22
608.654	6093.22
608.856	5796.26
609.058	6199.71
609.26	6341.02
609.462	6181.28
609.664	6212
609.866	6879.64
610.067	6640.03
610.269	6363.55
610.471	6230.43
610.673	6267.3
610.875	6504.86
611.077	6134.18
611.278	6250.91
611.48	6402.46
611.682	6922.65
611.884	6295.97
612.085	6238.62
612.287	6308.26
612.489	6455.71
612.69	5931.43
612.892	6334.88
613.094	6726.04
613.295	6343.07
613.497	6078.88
613.699	6482.33
613.9	6836.63
614.102	6760.86
614.304	6191.52
614.505	6134.18
614.707	6472.09
614.908	6336.93
615.11	6029.73
615.311	6005.16
615.513	6486.43
615.714	6482.33
615.916	6191.52
616.117	6304.16
616.319	6457.76
616.52	6691.23
616.722	6377.89
616.923	6232.48
617.124	6635.93
617.326	6386.08
617.527	6375.84
617.729	6482.33
617.93	6791.58
618.131	6646.17
618.333	6238.62
618.534	6361.5
618.735	6324.64
618.937	6957.46
619.138	6134.18
619.339	6136.23
619.54	6609.31
619.742	6500.76
619.943	6560.16
620.144	6474.14
620.345	6678.94
620.546	6961.56
620.748	6361.5
620.949	6304.16
621.15	6767
621.351	6803.86
621.552	6334.88
621.753	6308.26
621.954	6123.94
622.155	6877.59
622.356	5939.62
622.558	6674.84
622.759	6736.28
622.96	7207.31
623.161	6453.66
623.362	6455.71
623.563	6680.99
623.764	6586.78
623.965	6568.35
624.166	6711.71
624.366	6603.16
624.567	6820.25
624.768	6277.54
624.969	6394.27
625.17	6590.88
625.371	6932.89
625.572	6617.5
625.773	6326.69
625.973	7031.19
626.174	6996.37
626.375	6599.07
626.576	6506.91
626.777	6992.28
626.977	7174.55
627.178	6474.14
627.379	6676.89
627.58	6519.2
627.78	6830.49
627.981	6695.32
628.182	6650.27
628.382	7029.14
628.583	6617.5
628.784	6414.75
628.984	6502.81
629.185	7039.38
629.386	6863.26
629.586	6625.69
629.787	6490.52
629.987	6961.56
630.188	6707.61
630.388	6656.41
630.589	6742.43
630.79	7580.04
630.99	6939.03
631.191	6680.99
631.391	6865.3
631.591	6926.74
631.792	7322
631.992	6775.19
632.193	6822.3
632.393	7373.2
632.594	7000.47
632.794	6799.77
632.994	6990.23
633.195	6994.33
633.395	6982.04
633.595	6767
633.796	7113.11
633.996	6785.43
634.196	7309.71
634.397	6742.43
634.597	6969.75
634.797	6709.66
634.997	7354.77
635.198	6957.46
635.398	6810.01
635.598	7092.63
635.798	7434.64
635.998	7293.33
636.199	6740.38
636.399	7008.66
636.599	6830.49
636.799	6785.43
636.999	7203.22
637.199	7207.31
637.399	7307.66
637.599	6889.88
637.799	7092.63
637.999	7053.72
638.199	7315.86
638.399	6748.57
638.599	6883.73
638.799	7231.89
638.999	7702.92
639.199	6986.13
639.399	7025.04
639.599	7719.31
639.799	6920.6
639.999	6955.41
640.199	6840.73
640.399	7219.6
640.599	7068.05
640.799	7088.53
640.998	7238.03
641.198	7424.4
641.398	7293.33
641.598	7324.05
641.798	7295.38
641.997	8270.21
642.197	7281.04
642.397	7152.02
642.597	7213.46
642.796	7350.67
642.996	7573.9
643.196	7178.64
643.395	6945.17
643.595	7227.79
643.795	6932.89
643.994	7125.4
644.194	7096.72
644.394	7442.83
644.593	7381.39
644.793	6871.45
644.992	7266.71
645.192	7524.75
645.392	7082.39
645.591	7420.3
645.791	7299.47
645.99	7483.79
646.19	7221.65
646.389	7207.31
646.589	7121.3
646.788	7629.2
646.987	7534.99
647.187	7557.52
647.386	7393.68
647.586	7475.6
647.785	7549.32
647.984	7178.64
648.184	7379.34
648.383	7379.34
648.582	7551.37
648.782	7109.01
648.981	7334.29
649.18	7262.61
649.38	7420.3
649.579	7438.73
649.778	7209.36
649.977	7569.8
650.177	7557.52
650.376	7207.31
650.575	7125.4
650.774	7997.83
650.973	7350.67
651.173	7127.44
651.372	7356.82
651.571	7518.61
651.77	7805.32
651.969	7424.4
652.168	7537.04
652.367	7246.23
652.566	7780.75
652.765	7336.34
652.964	7733.64
653.163	8077.7
653.362	7520.65
653.561	7518.61
653.76	7242.13
653.959	7311.76
654.158	7764.36
654.357	7545.23
654.556	7461.26
654.755	7911.82
654.954	7729.55
655.153	7203.22
655.352	7381.39
655.551	8089.99
655.749	7541.13
655.948	7670.15
656.147	7723.4
656.346	7885.19
656.545	7606.67
656.743	7496.08
656.942	7715.21
657.141	7848.33
657.34	7383.44
657.538	7653.77
657.737	7487.89
657.936	7666.06
658.135	7913.86
658.333	7571.85
658.532	7747.98
658.731	8137.09
658.929	8001.93
659.128	7770.51
659.326	7479.69
659.525	8065.41
659.724	7747.98
659.922	7137.68
660.121	7649.68
660.319	7784.84
660.518	7369.1
660.716	7281.04
660.915	7551.37
661.113	7924.1
661.312	7563.66
661.51	7815.56
661.709	7498.13
661.907	7924.1
662.105	8286.59
662.304	7494.03
662.502	7790.99
662.701	8327.55
662.899	7727.5
663.097	7983.49
663.296	7428.49
663.494	8055.17
663.692	8202.63
663.891	7467.41
664.089	7514.51
664.287	7948.68
664.485	8092.04
664.684	7489.93
664.882	7670.15
665.08	7913.86
665.278	7887.24
665.476	7442.83
665.675	8155.52
665.873	8440.19
666.071	8188.29
666.269	7616.91
666.467	7704.97
666.665	7864.71
666.863	7594.38
667.061	7883.14
667.259	7606.67
667.457	7829.9
667.655	7891.34
667.853	7547.28
668.051	7819.66
668.249	7649.68
668.447	7840.14
668.645	7592.33
668.843	7973.25
669.041	8016.26
669.239	7924.1
669.437	7862.66
669.635	7903.62
669.833	7881.1
670.031	8128.9
670.229	7883.14
670.426	7897.48
670.624	7827.85
670.822	7778.7
671.02	7680.39
671.218	7889.29
671.415	7518.61
671.613	7874.95
671.811	7932.29
672.009	7770.51
672.206	8231.3
672.404	7973.25
672.602	8110.47
672.799	8044.93
672.997	8137.09
673.195	8061.32
673.392	7856.52
673.59	7717.26
673.788	8190.34
673.985	7510.41
674.183	7786.89
674.38	7838.09
674.578	8210.82
674.775	7733.64
674.973	7623.05
675.17	7704.97
675.368	8352.13
675.565	8010.12
675.763	7752.07
675.96	7700.87
676.158	8188.29
676.355	7793.03
676.553	7702.92
676.75	7670.15
676.947	8116.61
677.145	7784.84
677.342	7852.42
677.539	7778.7
677.737	7829.9
677.934	8388.99
678.131	7762.31
678.329	7539.08
678.526	8249.73
678.723	8319.36
678.92	7844.23
679.118	7666.06
679.315	7657.87
679.512	8399.23
679.709	7776.65
679.906	7926.15
680.104	8278.4
680.301	8204.67
680.498	7672.2
680.695	7635.34
680.892	7831.94
681.089	8040.84
681.286	7702.92
681.483	7713.16
681.68	8227.2
681.877	8311.17
682.075	7836.04
682.272	7971.21
682.469	8057.22
682.665	7766.41
682.862	7926.15
683.059	7637.39
683.256	7934.34
683.453	7967.11
683.65	7842.18
683.847	7803.27
684.044	7774.6
684.241	7598.48
684.438	7825.8
684.635	7553.42
684.831	8450.43
685.028	8475.01
685.225	7696.78
685.422	7631.24
685.619	7889.29
685.815	7979.4
686.012	7735.69
686.209	7655.82
686.405	7588.24
686.602	8069.51
686.799	7580.04
686.996	7674.25
687.192	7698.83
687.389	8479.1
687.586	7682.44
687.782	7754.12
687.979	8200.58
688.175	8159.62
688.372	7672.2
688.568	7610.76
688.765	7817.61
688.962	8155.52
689.158	7895.43
689.355	7596.43
689.551	8139.14
689.748	7788.94
689.944	7821.7
690.14	7414.16
690.337	8053.13
690.533	7846.28
690.73	7866.76
690.926	7946.63
691.123	7903.62
691.319	7639.44
691.515	7555.47
691.712	7870.86
691.908	7989.64
692.104	8001.93
692.301	7768.46
692.497	7737.74
692.693	8098.18
692.889	7969.16
693.086	7831.94
693.282	7588.24
693.478	7870.86
693.674	8196.48
693.87	7616.91
694.067	7719.31
694.263	8020.36
694.459	7833.99
694.655	7788.94
694.851	7774.6
695.047	8071.56
695.243	7979.4
695.439	7717.26
695.635	7639.44
695.831	8014.21
696.027	7915.91
696.224	7598.48
696.42	7895.43
696.615	8231.3
696.811	7958.92
697.007	7352.72
697.203	7672.2
697.399	7860.62
697.595	8255.87
697.791	7467.41
697.987	7700.87
698.183	7498.13
698.379	7741.83
698.575	7915.91
698.77	7684.49
698.966	8032.65
699.162	8092.04
699.358	7694.73
699.554	7731.59
699.749	7946.63
699.945	8022.41
700.141	7758.22
700.337	7704.97
700.532	7670.15
700.728	7780.75
700.924	7530.89
701.119	7446.93
701.315	7788.94
701.511	7614.86
701.706	7911.82
701.902	7483.79
702.097	7688.59
702.293	8061.32
702.489	7719.31
702.684	7565.71
702.88	7764.36
703.075	7725.45
703.271	7459.21
703.466	7387.54
703.662	7920.01
703.857	8040.84
704.053	7561.61
704.248	7614.86
704.443	8053.13
704.639	7825.8
704.834	7506.32
705.03	7410.06
705.225	7854.47
705.42	8059.27
705.616	7811.46
705.811	7512.46
706.006	7797.13
706.202	7831.94
706.397	7657.87
706.592	7430.54
706.787	8077.7
706.983	7897.48
707.178	7942.53
707.373	7887.24
707.568	7889.29
707.763	7901.58
707.959	7592.33
708.154	7551.37
708.349	7772.55
708.544	7915.91
708.739	7674.25
708.934	7491.98
709.129	7684.49
709.324	8057.22
709.519	7506.32
709.714	7465.36
709.909	8071.56
710.104	7698.83
710.299	7477.65
710.494	7434.64
710.689	7772.55
710.884	7702.92
711.079	7817.61
711.274	7766.41
711.469	7954.82
711.664	7702.92
711.859	7569.8
712.054	7594.38
712.249	7956.87
712.443	7938.44
712.638	7645.58
712.833	7430.54
713.028	7725.45
713.223	7684.49
713.417	7676.3
713.612	7465.36
713.807	8014.21
714.002	8345.98
714.196	7823.75
714.391	7563.66
714.586	7874.95
714.78	7481.74
714.975	7377.3
715.17	7461.26
715.364	7508.37
715.559	7790.99
715.754	7254.42
715.948	7594.38
716.143	8018.31
716.337	7659.92
716.532	7823.75
716.726	7430.54
716.921	7973.25
717.115	8165.76
717.31	7274.9
717.504	8012.17
717.699	7604.62
717.893	8057.22
718.088	7616.91
718.282	7383.44
718.476	7694.73
718.671	7788.94
718.865	7395.73
719.059	7477.65
719.254	7715.21
719.448	7809.42
719.642	7516.56
719.837	7188.88
720.031	7963.01
720.225	7874.95
720.419	7528.85
720.614	7291.28
720.808	7928.2
721.002	7588.24
721.196	7549.32
721.39	7354.77
721.585	7862.66
721.779	7643.53
721.973	7334.29
722.167	7358.86
722.361	7590.28
722.555	7905.67
722.749	7352.72
722.943	7444.88
723.137	7311.76
723.331	7590.28
723.525	7332.24
723.719	7252.37
723.913	7696.78
724.107	7862.66
724.301	7281.04
724.495	7301.52
724.689	7973.25
724.883	7891.34
725.077	7182.74
725.271	7340.43
725.465	7848.33
725.659	7534.99
725.853	7227.79
726.046	7278.99
726.24	7395.73
726.434	7682.44
726.628	7147.92
726.822	7451.02
727.015	7819.66
727.209	7725.45
727.403	7457.17
727.596	7221.65
727.79	7801.22
727.984	7786.89
728.177	7264.66
728.371	7561.61
728.565	7723.4
728.758	7180.69
728.952	7160.21
729.146	7408.01
729.339	7676.3
729.533	7338.38
729.726	7264.66
729.92	7276.94
730.113	7907.72
730.307	7672.2
730.5	7414.16
730.694	7104.92
730.887	7578
731.081	7678.35
731.274	7401.87
731.468	7307.66
731.661	7715.21
731.854	7350.67
732.048	7305.62
732.241	7199.12
732.435	7545.23
732.628	7573.9
732.821	7405.97
733.014	7457.17
733.208	7281.04
733.401	7868.81
733.594	7297.42
733.788	7512.46
733.981	7721.35
734.174	7702.92
734.367	7301.52
734.56	7383.44
734.754	7760.27
734.947	7465.36
735.14	7115.16
735.333	7432.59
735.526	7842.18
735.719	7412.11
735.912	7289.23
736.105	7287.18
736.298	7584.14
736.491	7336.34
736.684	7096.72
736.877	7229.84
737.07	7571.85
737.263	7745.93
737.456	7383.44
737.649	7213.46
737.842	7248.27
738.035	7444.88
738.228	7240.08
738.421	7489.93
738.614	7819.66
738.807	7707.02
739	7252.37
739.192	7219.6
739.385	7680.39
739.578	7729.55
739.771	7608.72
739.964	7248.27
740.156	7713.16
740.349	7627.15
740.542	7690.63
740.735	7229.84
740.927	7203.22
741.12	7080.34
741.313	7158.16
741.505	7446.93
741.698	7623.05
741.891	7377.3
742.083	7399.82
742.276	7160.21
742.468	7391.63
742.661	7278.99
742.854	7334.29
743.046	7190.93
743.239	7827.85
743.431	7391.63
743.624	7342.48
743.816	7135.64
744.009	7408.01
744.201	7553.42
744.393	7534.99
744.586	7127.44
744.778	7795.08
744.971	7418.25
745.163	7381.39
745.355	7348.62
745.548	7342.48
745.74	7252.37
745.932	7258.51
746.125	7285.14
746.317	8036.74
746.509	7477.65
746.702	7149.97
746.894	7459.21
747.086	7451.02
747.278	7778.7
747.471	7180.69
747.663	7289.23
747.855	7360.91
748.047	7844.23
748.239	7104.92
748.431	7121.3
748.623	7817.61
748.815	7686.54
749.008	7074.2
749.2	7029.14
749.392	7582.09
749.584	7569.8
749.776	7209.36
749.968	7252.37
750.16	7926.15
750.352	7127.44
750.544	7117.2
750.736	7152.02
750.928	7453.07
751.12	7547.28
751.311	7260.56
751.503	7043.48
751.695	7383.44
751.887	7516.56
752.079	6779.29
752.271	7158.16
752.463	8198.53
752.654	7481.74
752.846	7287.18
753.038	7149.97
753.23	7121.3
753.421	7461.26
753.613	7123.35
753.805	7283.09
753.997	7526.8
754.188	7526.8
754.38	7100.82
754.572	7184.79
754.763	7348.62
754.955	7451.02
755.146	7209.36
755.338	7121.3
755.53	7465.36
755.721	7143.83
755.913	6781.34
756.104	6885.78
756.296	7215.51
756.487	7387.54
756.679	6947.22
756.87	6902.17
757.062	7014.8
757.253	7377.3
757.445	7063.96
757.636	7250.32
757.827	7059.86
758.019	7543.18
758.21	7037.33
758.401	6908.31
758.593	7735.69
758.784	7362.96
758.975	6887.83
759.167	6920.6
759.358	7283.09
759.549	7655.82
759.74	6810.01
759.932	6912.41
760.123	7299.47
760.314	6816.15
760.505	6936.98
760.696	6990.23
760.888	7604.62
761.079	7057.81
761.27	6668.7
761.461	6762.9
761.652	7567.76
761.843	6885.78
762.034	6883.73
762.225	7061.91
762.416	7039.38
762.607	7012.76
762.798	6730.14
762.989	6793.62
763.18	7653.77
763.371	6855.06
763.562	6818.2
763.753	7061.91
763.944	7229.84
764.135	7227.79
764.326	7043.48
764.517	6701.47
764.708	6820.25
764.899	7092.63
765.089	6767
765.28	6689.18
765.471	7080.34
765.662	7086.48
765.853	6693.27
766.043	6609.31
766.234	7131.54
766.425	7063.96
766.615	6822.3
766.806	6367.65
766.997	7164.31
767.187	6920.6
767.378	6558.11
767.569	6465.95
767.759	6959.51
767.95	6988.18
768.141	6859.16
768.331	6699.42
768.522	6756.76
768.712	7106.96
768.903	6623.64
769.093	6531.48
769.284	7172.5
769.474	6934.93
769.665	6537.63
769.855	6572.44
770.046	7041.43
770.236	6570.4
770.426	6744.47
770.617	6680.99
770.807	7000.47
770.998	6855.06
771.188	6635.93
771.378	6635.93
771.569	6830.49
771.759	7023
771.949	6394.27
772.139	6310.3
772.33	6832.54
772.52	7235.99
772.71	6353.31
772.9	6365.6
773.09	7135.64
773.281	7225.75
773.471	6381.98
773.661	6439.33
773.851	6775.19
774.041	6678.94
774.231	6418.85
774.421	6646.17
774.611	7014.8
774.802	6746.52
774.992	6662.55
775.182	6422.94
775.372	6590.88
775.562	6896.02
775.752	6457.76
775.942	6236.58
776.131	6900.12
776.321	6871.45
776.511	6402.46
776.701	6347.17
776.891	6783.38
777.081	6271.39
777.271	6420.89
777.461	6420.89
777.651	6832.54
777.84	6799.77
778.03	6513.05
778.22	6248.86
778.41	6760.86
778.599	6324.64
778.789	6279.58
778.979	6160.8
779.169	6525.34
779.358	6613.4
779.548	6605.21
779.738	6322.59
779.927	6549.92
780.117	6220.19
780.307	6109.6
780.496	5984.68
780.686	6594.97
780.875	6910.36
781.065	6427.04
781.254	6214.05
781.444	6580.64
781.633	6447.52
781.823	6117.79
782.012	6166.95
782.202	6330.78
782.391	6377.89
782.581	6158.75
782.77	6232.48
782.96	6502.81
783.149	6287.78
783.338	6142.37
783.528	5894.57
783.717	6756.76
783.906	6674.84
784.096	6181.28
784.285	6197.67
784.474	6222.24
784.663	6244.77
784.853	6195.62
785.042	5970.34
785.231	6177.19
785.42	6539.68
785.61	6099.36
785.799	5835.17
785.988	5996.96
786.177	6168.99
786.366	6060.45
786.555	6261.15
786.744	6474.14
786.933	6109.6
787.122	5888.42
787.312	5851.56
787.501	6060.45
787.69	6353.31
787.879	5968.29
788.068	5990.82
788.257	5933.48
788.445	6021.54
788.634	5988.77
788.823	5857.7
789.012	6924.69
789.201	6562.2
789.39	6076.84
789.579	5798.31
789.768	6207.91
789.957	6281.63
790.145	5849.51
790.334	5874.09
790.523	6123.94
790.712	6095.27
790.9	6048.16
791.089	5867.94
791.278	6547.87
791.467	6209.95
791.655	6162.85
791.844	6656.41
792.033	6025.64
792.221	5851.56
792.41	5978.53
792.599	5847.46
792.787	6371.74
792.976	6281.63
793.164	5886.37
793.353	5728.68
793.541	6316.45
793.73	6304.16
793.918	5831.08
794.107	5706.15
794.295	6236.58
794.484	6228.38
794.672	5970.34
794.861	5732.78
795.049	6193.57
795.238	6345.12
795.426	5839.27
795.614	5910.95
795.803	6087.08
795.991	6252.96
796.179	5730.73
796.368	5568.94
796.556	6302.11
796.744	5769.64
796.932	5767.59
797.121	5491.12
797.309	5974.44
797.497	6134.18
797.685	5900.71
797.874	5671.34
798.062	5829.03
798.25	6250.91
798.438	5683.63
798.626	5775.78
798.814	6173.09
799.002	6703.51
799.19	5839.27
799.378	5888.42
799.566	6316.45
799.755	6326.69
799.943	5886.37
800.131	5659.05
800.318	6121.89
800.506	6166.95
800.694	5802.41
800.882	5996.96
801.07	6570.4
801.258	5794.22
801.446	5882.28
801.634	5718.44
801.822	6044.07
802.01	5986.72
802.197	5902.76
802.385	5896.61
802.573	6011.3
802.761	5859.75
802.949	5978.53
803.136	5759.4
803.324	6347.17
803.512	6119.84
803.699	5900.71
803.887	5751.21
804.075	6424.99
804.262	5937.57
804.45	5691.82
804.638	5833.13
804.825	5960.1
805.013	5849.51
805.201	6052.26
805.388	5935.53
805.576	5999.01
805.763	6584.73
805.951	5851.56
806.138	6050.21
806.326	6693.27
806.513	6216.1
806.701	5960.1
806.888	5921.19
807.075	6140.32
807.263	6511
807.45	5706.15
807.638	6130.08
807.825	6494.62
808.012	6515.1
808.2	5994.92
808.387	6150.56
808.574	6111.65
808.761	6482.33
808.949	5810.6
809.136	5982.63
809.323	6111.65
809.51	6052.26
809.698	6314.4
809.885	6070.69
810.072	6246.82
810.259	6482.33
810.446	5990.82
810.633	5974.44
810.82	6572.44
811.008	6525.34
811.195	6187.43
811.382	6003.11
811.569	6048.16
811.756	5978.53
811.943	6019.49
812.13	5953.96
812.317	6044.07
812.504	6091.17
812.691	6216.1
812.878	6248.86
813.064	6478.24
813.251	6406.56
813.438	5919.14
813.625	6214.05
813.812	6142.37
813.999	6175.14
814.186	6105.51
814.372	5968.29
814.559	6154.66
814.746	6562.2
814.933	6150.56
815.12	6334.88
815.306	6101.41
815.493	6050.21
815.68	6039.97
815.866	5921.19
816.053	6730.14
816.24	6840.73
816.426	6097.31
816.613	5841.32
816.799	6400.41
816.986	6472.09
817.173	6033.83
817.359	5966.24
817.546	6330.78
817.732	5845.41
817.919	5732.78
818.105	6062.5
818.292	6207.91
818.478	6281.63
818.665	6156.71
818.851	6115.75
819.037	6885.78
819.224	6261.15
819.41	5876.13
819.597	5966.24
819.783	6635.93
819.969	6347.17
820.156	6035.88
820.342	5888.42
820.528	6916.5
820.714	6091.17
820.901	6179.23
821.087	5845.41
821.273	6746.52
821.459	5962.15
821.646	5872.04
821.832	5943.72
822.018	6115.75
822.204	6171.04
822.39	6021.54
822.576	5857.7
822.762	6293.92
822.948	6369.69
823.134	6119.84
823.32	5859.75
823.507	5939.62
823.693	6050.21
823.879	6168.99
824.065	5894.57
824.25	6287.78
824.436	5833.13
824.622	5826.98
824.808	5874.09
824.994	5865.89
825.18	5779.88
825.366	5691.82
825.552	5800.36
825.738	5843.37
825.923	6363.55
826.109	5927.33
826.295	5570.99
826.481	5869.99
826.667	5962.15
826.852	5710.25
827.038	5374.38
827.224	6246.82
827.409	6400.41
827.595	5487.02
827.781	5810.6
827.966	6058.4
828.152	6338.98
828.338	5706.15
828.523	5478.83
828.709	5767.59
828.894	6295.97
829.08	5755.3
829.266	5691.82
829.451	5777.83
829.637	5929.38
829.822	5831.08
830.008	5642.67
830.193	6015.4
830.378	6195.62
830.564	5851.56
830.749	5505.45
830.935	5982.63
831.12	5970.34
831.305	5751.21
831.491	5777.83
831.676	5814.7
831.861	6125.99
832.047	5849.51
832.232	5532.08
832.417	6005.16
832.602	5816.74
832.788	5601.71
832.973	5538.22
833.158	5804.46
833.343	5628.33
833.528	5464.49
833.714	5687.72
833.899	5892.52
834.084	6076.84
834.269	5716.39
834.454	5679.53
834.639	5956.01
834.824	5812.65
835.009	5679.53
835.194	5753.26
835.379	5988.77
835.564	6214.05
835.749	5581.23
835.934	5519.79
836.119	6134.18
836.304	5685.67
836.489	5605.8
836.674	5642.67
836.859	5536.17
837.044	6220.19
837.228	5601.71
837.413	5403.05
837.598	5798.31
837.783	5937.57
837.968	5591.47
838.152	5249.46
838.337	5212.59
838.522	5794.22
838.707	5761.45
838.891	5523.88
839.076	5638.57
839.261	5808.55
839.445	5517.74
839.63	5378.48
839.815	5953.96
839.999	5364.14
840.184	5372.33
840.368	5437.87
840.553	5800.36
840.737	5853.61
840.922	5317.04
841.106	5489.07
841.291	5478.83
841.475	5595.56
841.66	5274.03
841.844	5308.85
842.029	6248.86
842.213	5235.12
842.397	5120.43
842.582	5036.47
842.766	5900.71
842.951	5636.52
843.135	5421.49
843.319	5314.99
843.504	5601.71
843.688	5679.53
843.872	5147.06
844.056	5218.74
844.241	5659.05
844.425	5343.66
844.609	5433.77
844.793	5355.95
844.977	5530.03
845.161	5466.54
845.346	5128.63
845.53	5118.39
845.714	5491.12
845.898	5706.15
846.082	5196.21
846.266	5102
846.45	5403.05
846.634	5439.92
846.818	5079.47
847.002	5470.64
847.186	5573.03
847.37	5163.44
847.554	4946.36
847.738	5120.43
847.922	5355.95
848.106	5312.94
848.29	5052.85
848.473	5269.94
848.657	5444.01
848.841	5317.04
849.025	5198.26
849.209	4876.73
849.392	5478.83
849.576	5188.02
849.76	4829.62
849.944	5517.74
850.127	5706.15
850.311	5036.47
850.495	4925.88
850.678	4911.54
850.862	5597.61
851.046	5777.83
851.229	5337.52
851.413	5028.28
851.596	5298.61
851.78	5188.02
851.964	5235.12
852.147	5001.65
852.331	5962.15
852.514	5261.74
852.698	5007.8
852.881	4823.48
853.065	5497.26
853.248	5151.15
853.431	5079.47
853.615	5140.91
853.798	5626.28
853.982	5335.47
854.165	5239.22
854.348	4946.36
854.532	4882.87
854.715	5067.19
854.898	4993.46
855.081	4940.21
855.265	5491.12
855.448	5470.64
855.631	4841.91
855.814	4741.56
855.997	5284.27
856.181	5063.09
856.364	4999.6
856.547	4680.12
856.73	5175.73
856.913	5081.52
857.096	4753.85
857.279	4944.31
857.462	4907.45
857.645	5245.36
857.828	5050.8
858.011	4907.45
858.194	4913.59
858.377	5056.95
858.56	4792.76
858.743	4696.5
858.926	4882.87
859.109	5335.47
859.292	4848.05
859.475	4524.47
859.658	5280.18
859.841	5198.26
860.023	4676.02
860.206	4712.89
860.389	5087.67
860.572	5290.42
860.755	4780.47
860.937	4708.79
861.12	4962.74
861.303	4872.63
861.486	5050.8
861.668	4866.49
861.851	5020.08
862.034	5097.91
862.216	4829.62
862.399	4577.72
862.581	5151.15
862.764	5220.78
862.947	4610.49
863.129	4491.71
863.312	4651.45
863.494	5212.59
863.677	4987.32
863.859	4479.42
864.042	4772.28
864.224	5292.46
864.406	4647.35
864.589	4434.36
864.771	4872.63
864.954	4383.17
865.136	4479.42
865.318	4344.25
865.501	4944.31
865.683	4407.74
865.865	4426.17
866.048	4407.74
866.23	4807.09
866.412	4807.09
866.594	4409.79
866.777	4549.05
866.959	4874.68
867.141	4516.28
867.323	4684.22
867.505	4557.24
867.687	4608.44
867.869	4803
868.052	4567.48
868.234	4270.53
868.416	4686.26
868.598	4886.97
868.78	4561.34
868.962	4379.07
869.144	4950.45
869.326	4866.49
869.508	4444.6
869.69	4415.93
869.872	4499.9
870.054	4956.6
870.236	4299.2
870.417	4432.32
870.599	4657.59
870.781	5032.37
870.963	4561.34
871.145	4530.62
871.327	4520.38
871.508	4934.07
871.69	4415.93
871.872	4352.45
872.054	4653.5
872.235	4753.85
872.417	4362.69
872.599	4323.77
872.78	4975.03
872.962	4534.71
873.144	4198.85
873.325	4579.77
873.507	5114.29
873.689	4786.61
873.87	4295.1
874.052	4518.33
874.233	4575.67
874.415	4932.02
874.596	4573.63
874.778	4411.84
874.959	4645.31
875.141	4985.27
875.322	4643.26
875.503	4475.32
875.685	4747.7
875.866	4385.21
876.048	4313.53
876.229	4274.62
876.41	4579.77
876.592	4657.59
876.773	4434.36
876.954	4278.72
877.136	5163.44
877.317	4512.19
877.498	4233.66
877.679	4540.86
877.86	4831.67
878.042	4557.24
878.223	4438.46
878.404	4700.6
878.585	4792.76
878.766	5077.43
878.947	4626.87
879.128	4624.83
879.309	4829.62
879.49	4803
879.672	4465.08
879.853	4512.19
880.034	4393.4
880.215	4702.65
880.396	4614.59
880.576	4520.38
880.757	4596.15
880.938	5038.52
881.119	4399.55
881.3	4401.6
881.481	4614.59
881.662	5466.54
881.843	4448.7
882.023	4319.68
882.204	4805.05
882.385	4708.79
882.566	4514.24
882.747	4399.55
882.927	4766.14
883.108	4637.11
883.289	4487.61
883.469	4706.74
883.65	4678.07
883.831	4909.49
884.011	4667.83
884.192	4606.39
884.373	5067.19
884.553	4983.22
884.734	4794.81
884.914	4893.11
885.095	5317.04
885.275	5200.3
885.456	4897.21
885.636	4651.45
885.817	4874.68
885.997	4901.3
886.178	4618.68
886.358	4747.7
886.538	5005.75
886.719	5663.15
886.899	4751.8
887.08	4903.35
887.26	5208.5
887.44	4485.56
887.621	4499.9
887.801	4706.74
887.981	5587.37
888.161	4954.55
888.342	4719.03
888.522	4733.37
888.702	5155.25
888.882	5151.15
889.062	4944.31
889.242	4626.87
889.423	5239.22
889.603	5034.42
889.783	4811.19
889.963	4735.42
890.143	5011.89
890.323	5151.15
890.503	4667.83
890.683	4598.2
890.863	4856.25
891.043	5085.62
891.223	4708.79
891.403	5032.37
891.583	5253.55
891.763	5085.62
891.943	4913.59
892.122	4739.51
892.302	5124.53
892.482	4921.78
892.662	4962.74
892.842	4841.91
893.022	4919.73
893.201	4796.85
893.381	4874.68
893.561	4825.53
893.741	5073.33
893.92	5015.99
894.1	4831.67
894.28	4856.25
894.459	5142.96
894.639	5120.43
894.819	4714.94
894.998	4934.07
895.178	5042.61
895.357	5112.24
895.537	4764.09
895.716	4673.98
895.896	4975.03
896.075	5423.53
896.255	4764.09
896.434	4557.24
896.614	5185.97
896.793	5323.18
896.973	4956.6
897.152	4741.56
897.331	5099.95
897.511	5288.37
897.69	4577.72
897.87	4764.09
898.049	5159.35
898.228	5018.04
898.407	4872.63
898.587	4860.34
898.766	4817.33
898.945	5102
899.124	4979.12
899.304	4854.2
899.483	5097.91
899.662	5349.81
899.841	4704.7
900.02	4823.48
900.199	5077.43
900.378	5136.82
900.557	4745.66
900.737	4493.76
900.916	5108.15
901.095	5147.06
901.274	4852.15
901.453	4633.02
901.632	4794.81
901.811	4731.32
901.989	4610.49
902.168	4553.15
902.347	5120.43
902.526	4815.29
902.705	4641.21
902.884	4819.38
903.063	5321.13
903.242	5114.29
903.42	4612.54
903.599	4661.69
903.778	5104.05
903.957	5286.32
904.135	4780.47
904.314	4759.99
904.493	4970.93
904.672	4972.98
904.85	4620.73
905.029	4733.37
905.207	4837.81
905.386	5654.95
905.565	4444.6
905.743	4737.46
905.922	4663.74
906.1	5003.7
906.279	4460.99
906.457	4514.24
906.636	4661.69
906.814	4538.81
906.993	4399.55
907.171	4393.4
907.35	4794.81
907.528	4829.62
907.707	4749.75
907.885	4405.69
908.063	5142.96
908.242	4712.89
908.42	4557.24
908.598	4215.23
908.777	4831.67
908.955	4659.64
909.133	4438.46
909.311	4352.45
909.49	4481.47
909.668	4712.89
909.846	4526.52
910.024	4139.46
910.202	4661.69
910.38	4774.33
910.559	4295.1
910.737	4248
910.915	4776.38
911.093	4659.64
911.271	4405.69
911.449	4716.98
911.627	4655.54
911.805	4966.84
911.983	4270.53
912.161	4356.54
912.339	4837.81
912.517	4876.73
912.695	4473.28
912.872	4250.05
913.05	4110.79
913.228	4508.09
913.406	4254.14
913.584	4159.94
913.762	4571.58
913.939	4272.57
914.117	4147.65
914.295	3891.65
914.473	4426.17
914.65	4446.65
914.828	4329.92
915.006	4164.03
915.184	4422.08
915.361	4391.36
915.539	4151.74
915.716	4309.44
915.894	4495.8
916.072	4508.09
916.249	4395.45
916.427	4168.13
916.604	4032.96
916.782	4477.37
916.959	4018.63
917.137	4000.19
917.314	4323.77
917.492	4401.6
917.669	4123.07
917.847	3994.05
918.024	4346.3
918.201	4043.2
918.379	4073.92
918.556	4043.2
918.733	4250.05
918.911	3992
919.088	4207.04
919.265	3910.08
919.442	4295.1
919.62	4090.31
919.797	3969.48
919.974	3768.77
920.151	4211.14
920.328	4014.53
920.506	3893.7
920.683	3860.93
920.86	3862.98
921.037	3772.87
921.214	3779.01
921.391	3674.57
921.568	4192.7
921.745	3840.45
921.922	3731.91
922.099	3547.59
922.276	4233.66
922.453	4057.54
922.63	3762.63
922.807	4051.39
922.984	4067.78
923.161	3768.77
923.338	3799.49
923.514	3506.63
923.691	3787.21
923.868	3926.47
924.045	3543.5
924.222	3482.06
924.399	3842.5
924.575	4137.41
924.752	3590.6
924.929	3742.15
925.105	3815.88
925.282	3617.22
925.459	3598.79
925.635	3563.98
925.812	3725.77
925.989	3369.42
926.165	3574.22
926.342	3344.84
926.518	3449.29
926.695	3658.18
926.871	3426.76
927.048	3289.55
927.224	3862.98
927.401	3453.39
927.577	3551.69
927.754	3295.69
927.93	3912.13
928.107	3772.87
928.283	3275.21
928.459	3432.91
928.636	3705.29
928.812	3451.34
928.988	3307.98
929.165	3183.06
929.341	3525.07
929.517	3412.43
929.693	3635.66
929.87	3049.94
930.046	3453.39
930.222	3369.42
930.398	3189.2
930.574	3357.13
930.751	3379.66
930.927	3379.66
931.103	3240.4
931.279	3267.02
931.455	3189.2
931.631	3359.18
931.807	2900.44
931.983	3094.99
932.159	2951.63
932.335	3338.7
932.511	3148.24
932.687	2965.97
932.863	3260.88
933.039	3111.38
933.215	2732.5
933.391	2927.06
933.566	3131.86
933.742	2990.55
933.918	2763.22
934.094	2669.02
934.27	3076.56
934.445	3006.93
934.621	3002.83
934.797	2691.54
934.973	3176.91
935.148	3000.79
935.324	2652.63
935.5	2453.98
935.675	3045.84
935.851	2871.76
936.027	2544.09
936.202	2597.34
936.378	2824.66
936.553	2691.54
936.729	2853.33
936.904	2318.81
937.08	2157.02
937.255	2357.72
937.431	2191.84
937.606	2060.77
937.782	2208.22
937.957	2404.83
938.133	2136.54
938.308	2036.19
938.483	2152.93
938.659	1974.75
938.834	1989.09
939.009	1939.94
939.185	2068.96
939.36	1927.65
939.535	1616.36
939.71	1907.17
939.886	2322.91
940.061	2116.06
940.236	2036.19
940.411	1763.81
940.586	2109.92
940.761	2019.81
940.937	1772
941.112	1706.47
941.287	1978.85
941.462	1968.61
941.637	1511.91
941.812	1671.65
941.987	1909.22
942.162	1706.47
942.337	1673.7
942.512	1610.22
942.687	1915.36
942.862	1929.7
943.037	1372.65
943.212	1241.58
943.386	1634.79
943.561	1683.94
943.736	1683.94
943.911	1712.61
944.086	1632.74
944.26	1665.51
944.435	1550.82
944.61	1567.21
944.785	2064.86
944.959	2101.73
945.134	1454.57
945.309	1384.94
945.483	1403.37
945.658	1907.17
945.833	1208.81
946.007	1264.11
946.182	2013.67
946.357	1425.9
946.531	1346.03
946.706	1378.79
946.88	1268.2
947.055	1561.06
947.229	1450.47
947.404	1432.04
947.578	1896.93
947.752	1554.92
947.927	1247.72
948.101	1239.53
948.276	1661.41
948.45	1628.65
948.624	1499.63
948.799	1382.89
948.973	1577.45
949.147	1284.59
949.321	1448.43
949.496	1479.15
949.67	1837.54
949.844	1530.34
950.018	1493.48
950.193	1407.47
950.367	2005.47
950.541	1423.85
950.715	1647.08
950.889	1599.98
951.063	1526.25
951.237	1733.09
951.411	1159.66
951.585	1296.88
951.759	1591.78
951.933	1608.17
952.107	1456.62
952.281	1464.81
952.455	2044.38
952.629	1876.45
952.803	1325.55
952.977	1423.85
953.151	1804.77
953.325	1595.88
953.499	1501.67
953.672	1292.78
953.846	1296.88
954.02	1456.62
954.194	1305.07
954.368	1339.88
954.541	1645.03
954.715	1497.58
954.889	1450.47
955.062	1348.08
955.236	1567.21
955.41	1415.66
955.583	1462.76
955.757	1284.59
955.93	1411.56
956.104	1382.89
956.278	1448.43
956.451	1395.18
956.625	1628.65
956.798	2103.78
956.972	1679.85
957.145	1288.68
957.319	1661.41
957.492	1604.07
957.665	1427.95
957.839	1262.06
958.012	1706.47
958.185	1579.5
958.359	1415.66
958.532	1554.92
958.705	1792.48
958.879	1616.36
959.052	1460.71
959.225	1161.71
959.398	1505.77
959.572	1583.59
959.745	1325.55
959.918	1346.03
960.091	1442.28
960.264	1669.61
960.438	1282.54
960.611	1288.68
960.784	1651.17
960.957	1429.99
961.13	1720.81
961.303	1255.92
961.476	1397.23
961.649	1741.29
961.822	1229.29
961.995	1313.26
962.168	1630.7
962.341	1636.84
962.514	1380.84
962.686	1260.01
962.859	1532.39
963.032	1759.72
963.205	1233.39
963.378	1219.05
963.551	1573.35
963.723	1556.97
963.896	1374.7
964.069	1479.15
964.242	1511.91
964.414	1585.64
964.587	1364.46
964.76	1346.03
964.932	1589.74
965.105	1348.08
965.278	1438.19
965.45	1268.2
965.623	1509.86
965.795	1602.02
965.968	1300.97
966.14	1284.59
966.313	1415.66
966.485	1559.02
966.658	1266.16
966.83	1239.53
967.003	1679.85
967.175	1708.52
967.348	1257.96
967.52	1262.06
967.692	1823.2
967.865	1567.21
968.037	1335.79
968.209	1526.25
968.382	1546.73
968.554	1649.13
968.726	1266.16
968.898	1251.82
969.071	1485.29
969.243	1632.74
969.415	1315.31
969.587	1370.6
969.759	1991.14
969.932	1729
970.104	1401.32
970.276	1042.93
970.448	1452.52
970.62	1362.41
970.792	1380.84
970.964	1380.84
971.136	1786.34
971.308	1552.87
971.48	1210.86
971.652	1198.57
971.824	1741.29
971.996	1276.4
972.168	1268.2
972.339	1300.97
972.511	1645.03
972.683	1360.36
972.855	1417.71
973.027	1333.74
973.199	1307.12
973.37	1477.1
973.542	1401.32
973.714	1411.56
973.886	1464.81
974.057	1688.04
974.229	1049.07
974.401	1182.19
974.572	1151.47
974.744	987.63
974.915	1059.31
975.087	1077.74
975.259	1712.61
975.43	1192.43
975.602	1198.57
975.773	1096.18
975.945	1157.61
976.116	1389.03
976.288	1079.79
976.459	1317.36
976.63	1225.2
976.802	1429.99
976.973	1061.36
977.145	1296.88
977.316	1731.05
977.487	1389.03
977.659	1409.51
977.83	1180.14
978.001	1737.19
978.172	1321.45
978.344	1055.22
978.515	1165.81
978.686	1274.35
978.857	1571.3
979.028	1264.11
979.2	1053.17
979.371	1567.21
979.542	1446.38
979.713	1237.49
979.884	737.78
980.055	1018.35
980.226	1245.68
980.397	1112.56
980.568	868.85
980.739	1571.3
980.91	1210.86
981.081	1208.81
981.252	899.57
981.423	1360.36
981.594	1477.1
981.765	958.96
981.936	1194.48
982.106	1411.56
982.277	1567.21
982.448	1079.79
982.619	1188.33
982.79	1094.13
982.96	1565.16
983.131	1022.45
983.302	817.65
983.472	1096.18
983.643	1294.83
983.814	1141.23
983.984	930.29
984.155	1137.13
984.326	1378.79
984.496	1122.8
984.667	969.2
984.837	1069.55
985.008	1411.56
985.178	1186.29
985.349	1038.83
985.519	1208.81
985.69	1077.74
985.86	1077.74
986.031	911.86
986.201	1227.25
986.371	1401.32
986.542	883.19
986.712	874.99
986.882	1419.75
987.053	1294.83
987.223	926.19
987.393	1139.18
987.563	1128.94
987.734	1268.2
987.904	1260.01
988.074	956.91
988.244	1286.64
988.414	983.54
988.585	922.1
988.755	1079.79
988.925	1184.24
989.095	1604.07
989.265	905.71
989.435	1087.98
989.605	1331.69
989.775	1200.62
989.945	1198.57
990.115	838.13
990.285	1098.22
990.455	1194.48
990.625	915.95
990.795	776.69
990.965	1438.19
991.134	958.96
991.304	831.99
991.474	934.39
991.644	1313.26
991.814	1372.65
991.984	836.08
992.153	852.47
992.323	1012.21
992.493	1032.69
992.662	625.14
992.832	993.78
993.002	1075.7
993.171	1243.63
993.341	702.97
993.511	1028.59
993.68	907.76
993.85	1239.53
994.019	750.07
994.189	846.32
994.358	1071.6
994.528	891.38
994.697	606.71
994.867	815.6
995.036	1219.05
995.206	915.95
995.375	856.56
995.544	987.63
995.714	1047.02
995.883	940.53
996.052	991.73
996.222	645.62
996.391	1552.87
996.56	1128.94
996.73	721.4
996.899	659.96
997.068	1278.44
997.237	946.67
997.406	756.21
997.576	633.33
997.745	1071.6
997.914	1096.18
998.083	596.47
998.252	846.32
998.421	1014.26
998.59	811.51
998.759	588.28
998.928	504.31
999.097	1292.78
999.266	1018.35
999.435	795.12
999.604	621.05
999.773	1509.86
999.942	907.76
1000.111	532.98
1000.28	588.28
1000.448	805.36
1000.617	662.01
1000.786	784.88
1000.955	657.91
1001.124	973.3
1001.292	1534.44
1001.461	592.37
1001.63	590.33
1001.798	1249.77
1001.967	1221.1
1002.136	514.55
1002.304	588.28
1002.473	969.2
1002.642	956.91
1002.81	651.77
1002.979	557.56
1003.147	1047.02
1003.316	1450.47
1003.484	567.8
1003.653	561.66
1003.821	1159.66
1003.99	920.05
1004.158	711.16
1004.327	717.3
1004.495	985.58
1004.663	748.02
1004.832	705.01
1005	465.4
1005.168	989.68
1005.337	985.58
1005.505	444.92
1005.673	743.92
1005.842	977.39
1006.01	956.91
1006.178	543.22
1006.346	522.74
1006.514	983.54
1006.683	1067.5
1006.851	504.31
1007.019	449.02
1007.187	532.98
1007.355	354.81
1007.523	424.44
1007.691	459.26
1007.859	494.07
1008.027	1214.96
1008.195	543.22
1008.363	440.83
1008.531	1122.8
1008.699	668.15
1008.867	500.22
1009.035	549.37
1009.203	1032.69
1009.37	760.31
1009.538	627.19
1009.706	889.33
1009.874	756.21
1010.042	700.92
1010.209	406.01
1010.377	442.87
1010.545	993.78
1010.713	733.68
1010.88	489.98
1011.048	532.98
1011.216	651.77
1011.383	1047.02
1011.551	401.91
1011.718	371.19
1011.886	1028.59
1012.054	637.43
1012.221	494.07
1012.389	420.35
1012.556	713.21
1012.724	1141.23
1012.891	479.74
1013.058	344.57
1013.226	879.09
1013.393	854.51
1013.561	305.66
1013.728	262.65
1013.895	969.2
1014.063	924.15
1014.23	371.19
1014.397	422.39
1014.565	942.58
1014.732	723.44
1014.899	352.76
1015.066	330.23
1015.233	772.6
1015.401	881.14
1015.568	375.29
1015.735	528.89
1015.902	758.26
1016.069	780.79
1016.236	506.36
1016.403	342.52
1016.57	451.07
1016.737	788.98
1016.904	483.83
1017.071	330.23
1017.238	600.57
1017.405	940.53
1017.572	479.74
1017.739	573.94
1017.906	739.83
1018.073	911.86
1018.24	297.47
1018.407	401.91
1018.573	934.39
1018.74	666.1
1018.907	391.67
1019.074	133.63
1019.241	770.55
1019.407	680.44
1019.574	350.71
1019.741	188.93
1019.907	682.49
1020.074	791.03
1020.241	150.01
1020.407	250.36
1020.574	700.92
1020.74	731.64
1020.907	317.95
1021.073	332.28
1021.24	1182.19
1021.406	979.44
1021.573	242.17
1021.739	268.8
1021.906	829.94
1022.072	532.98
1022.239	291.32
1022.405	383.48
1022.571	606.71
1022.738	461.3
1022.904	227.84
1023.07	266.75
1023.237	522.74
1023.403	848.37
1023.569	260.6
1023.735	303.61
1023.902	678.39
1024.068	635.38
1024.234	238.08
1024.4	330.23
1024.566	707.06
1024.732	733.68
1024.898	274.94
1025.065	174.59
1025.231	764.4
1025.397	510.46
1025.563	344.57
1025.729	184.83
1025.895	74.24
1026.061	399.87
1026.227	68.09
1026.392	307.71
1026.558	885.23
1026.724	637.43
1026.89	166.4
1027.056	279.04
1027.222	707.06
1027.388	471.54
1027.553	133.63
1027.719	221.69
1027.885	971.25
1028.051	739.83
1028.216	20.99
1028.382	268.8
1028.548	698.87
1028.713	502.26
1028.879	129.53
1029.045	399.87
1029.21	831.99
1029.376	813.56
1029.541	264.7
1029.707	107.01
1029.873	694.77
1030.038	743.92
1030.204	231.93
1030.369	236.03
1030.534	752.12
1030.7	385.53
1030.865	223.74
1031.031	150.01
1031.196	653.81
1031.361	444.92
1031.527	186.88
1031.692	123.39
1031.857	43.52
1032.023	559.61
1032.188	117.25
1032.353	201.21
1032.518	805.36
1032.684	588.28
1032.849	49.66
1033.014	190.97
1033.179	739.83
1033.344	592.37
1033.509	358.91
1033.674	258.56
1033.839	766.45
1034.004	645.62
1034.17	131.58
1034.335	96.77
1034.5	506.36
1034.664	360.95
1034.829	53.76
1034.994	156.16
1035.159	557.56
1035.324	555.51
1035.489	133.63
1035.654	180.73
1035.819	815.6
1035.984	565.75
1036.148	238.08
1036.313	121.34
1036.478	741.88
1036.643	455.16
1036.807	139.77
1036.972	29.18
1037.137	848.37
1037.301	432.63
1037.466	27.14
1037.631	178.69
1037.795	684.53
1037.96	567.8
1038.124	303.61
1038.289	-69.12
1038.454	645.62
1038.618	541.18
1038.783	74.24
1038.947	268.8
1039.111	522.74
1039.276	289.28
1039.44	68.09
1039.605	590.33
1039.769	391.67
1039.933	477.69
1040.098	236.03
1040.262	397.82
1040.426	629.24
1040.591	598.52
1040.755	74.24
1040.919	170.49
1041.083	473.59
1041.248	379.39
1041.412	-1.54
1041.576	96.77
1041.74	455.16
1041.904	606.71
1042.068	-28.16
1042.232	111.1
1042.397	563.7
1042.561	494.07
1042.725	-75.26
1042.889	205.31
1043.053	612.85
1043.217	514.55
1043.381	279.04
1043.544	-30.21
1043.708	680.44
1043.872	152.06
1044.036	-151.04
1044.2	39.42
1044.364	588.28
1044.528	797.17
1044.691	4401.6
1044.855	33.28
1045.019	690.68
1045.183	662.01
1045.346	154.11
1045.51	-36.35
1045.674	453.11
1045.837	610.81
1046.001	109.05
1046.165	53.76
1046.328	973.3
1046.492	459.26
1046.655	264.7
1046.819	143.87
1046.983	320
1047.146	537.08
1047.31	127.49
1047.473	-167.42
1047.636	356.86
1047.8	117.25
1047.963	113.15
1048.127	-26.11
1048.29	205.31
