Data from Ink_Intensity_USB4F045381__12__00012.txt Node

Date: Mon Jul 17 09:35:48 EDT 2023
User: mmckonesweet
Spectrometer: USB4F04538
Trigger mode: 4
Integration Time (sec): 9.000000E-1
Scans to average: 1
Electric dark correction enabled: true
Nonlinearity correction enabled: false
Boxcar width: 0
XAxis mode: Wavelengths
Number of Pixels in Spectrum: 3648
>>>>>Begin Spectral Data<<<<<
345.52	-936.26
345.736	-936.26
345.952	-936.26
346.168	-989.51
346.384	-866.63
346.6	-129.36
346.816	-194.9
347.032	-186.71
347.248	364.2
347.464	-256.34
347.68	-86.36
347.896	108.2
348.112	396.96
348.328	-88.4
348.544	-139.6
348.76	3.75
348.975	208.55
349.191	-233.81
349.407	-115.03
349.623	40.62
349.839	-12.63
350.055	-78.16
350.27	81.58
350.486	229.03
350.702	364.2
350.918	171.69
351.133	-164.18
351.349	128.68
351.565	306.85
351.781	-219.47
351.996	69.29
352.212	302.76
352.428	-149.84
352.644	-110.93
352.859	-194.9
353.075	296.61
353.291	-49.49
353.506	-65.88
353.722	-135.51
353.938	-12.63
354.153	452.26
354.369	42.67
354.584	-164.18
354.8	272.04
355.016	-366.93
355.231	-168.27
355.447	-33.11
355.662	77.48
355.878	886.43
356.093	-282.96
356.309	1.71
356.524	-272.72
356.74	245.41
356.955	-235.86
357.171	79.53
357.386	239.27
357.602	-254.29
357.817	30.38
358.033	-145.75
358.248	380.58
358.464	91.82
358.679	-104.79
358.895	-371.02
359.11	67.24
359.325	294.57
359.541	259.75
359.756	52.91
359.972	-282.96
360.187	108.2
360.402	-153.94
360.618	-147.8
360.833	902.81
361.048	132.78
361.264	-117.08
361.479	-49.49
361.694	59.05
361.909	147.11
362.125	-102.74
362.34	-115.03
362.555	181.93
362.77	73.39
362.986	-198.99
363.201	-100.69
363.416	167.59
363.631	16.04
363.847	-123.22
364.062	-59.73
364.277	145.06
364.492	87.72
364.707	-108.88
364.922	-328.02
365.138	192.17
365.353	245.41
365.568	-217.43
365.783	-106.84
365.998	-0.34
366.213	515.75
366.428	-282.96
366.643	61.1
366.858	278.18
367.073	175.78
367.288	-67.92
367.503	-219.47
367.718	85.67
367.933	302.76
368.148	-246.1
368.363	-10.58
368.578	-53.59
368.793	452.26
369.008	-67.92
369.223	-203.09
369.438	143.02
369.653	474.79
369.868	-231.76
370.083	-133.46
370.298	-26.96
370.513	349.86
370.728	48.81
370.943	-108.88
371.157	-151.89
371.372	517.79
371.587	-250.19
371.802	-186.71
372.017	50.86
372.232	356.01
372.446	104.11
372.661	-272.72
372.876	251.56
373.091	128.68
373.306	-12.63
373.52	-174.42
373.735	-209.23
373.95	450.21
374.165	1.71
374.379	-149.84
374.594	-43.35
374.809	32.43
375.023	20.14
375.238	-244.05
375.453	214.7
375.667	-186.71
375.882	-33.11
376.097	-108.88
376.311	-0.34
376.526	-67.92
376.741	-158.03
376.955	79.53
377.17	534.18
377.384	468.64
377.599	-12.63
377.813	-131.41
378.028	530.08
378.242	194.22
378.457	-47.44
378.672	-414.03
378.886	169.64
379.101	-10.58
379.315	-278.87
379.53	-141.65
379.744	208.55
379.958	177.83
380.173	-135.51
380.387	-121.17
380.602	181.93
380.816	-108.88
381.031	-35.16
381.245	-65.88
381.459	175.78
381.674	2350.73
381.888	-149.84
382.103	83.63
382.317	-131.41
382.531	454.31
382.746	-16.73
382.96	-45.4
383.174	-82.26
383.388	425.64
383.603	102.06
383.817	-188.75
384.031	192.17
384.246	499.36
384.46	36.52
384.674	390.82
384.888	91.82
385.103	73.39
385.317	-211.28
385.531	34.47
385.745	310.95
385.959	304.81
386.174	-96.6
386.388	-176.47
386.602	69.29
386.816	-51.54
387.03	-53.59
387.244	-26.96
387.458	57
387.672	356.01
387.887	-254.29
388.101	-127.32
388.315	376.48
388.529	108.2
388.743	-14.68
388.957	-119.12
389.171	399.01
389.385	-112.98
389.599	18.09
389.813	100.01
390.027	200.36
390.241	587.43
390.455	-8.53
390.669	9.9
390.883	24.23
391.097	419.49
391.311	216.74
391.525	-35.16
391.738	194.22
391.952	155.3
392.166	9.9
392.38	-67.92
392.594	333.48
392.808	347.81
393.022	-29.01
393.236	-112.98
393.449	296.61
393.663	220.84
393.877	-182.61
394.091	26.28
394.305	-63.83
394.518	-129.36
394.732	-100.69
394.946	-88.4
395.16	564.9
395.373	128.68
395.587	-78.16
395.801	-104.79
396.015	325.29
396.228	349.86
396.442	-166.23
396.656	-160.08
396.869	374.44
397.083	476.84
397.297	-0.34
397.51	-65.88
397.724	456.36
397.938	104.11
398.151	-133.46
398.365	-94.55
398.578	267.94
398.792	325.29
399.005	120.49
399.219	26.28
399.433	126.63
399.646	239.27
399.86	112.3
400.073	167.59
400.287	298.66
400.5	24.23
400.714	167.59
400.927	61.1
401.141	247.46
401.354	1123.99
401.567	335.53
401.781	-119.12
401.994	370.34
402.208	560.8
402.421	22.19
402.635	46.76
402.848	114.34
403.061	464.55
403.275	50.86
403.488	-24.92
403.701	548.51
403.915	302.76
404.128	140.97
404.341	9.9
404.555	282.28
404.768	118.44
404.981	147.11
405.195	1.71
405.408	587.43
405.621	298.66
405.834	122.54
406.048	28.33
406.261	511.65
406.474	630.43
406.687	71.34
406.9	188.07
407.114	198.31
407.327	231.08
407.54	-135.51
407.753	-127.32
407.966	34.47
408.179	360.1
408.392	32.43
408.605	-201.04
408.819	261.8
409.032	274.09
409.245	-86.36
409.458	192.17
409.671	323.24
409.884	386.72
410.097	-39.25
410.31	177.83
410.523	386.72
410.736	118.44
410.949	175.78
411.162	50.86
411.375	636.58
411.588	480.93
411.801	212.65
412.014	-4.44
412.227	214.7
412.44	151.21
412.653	13.99
412.865	145.06
413.078	376.48
413.291	265.89
413.504	102.06
413.717	22.19
413.93	407.2
414.143	100.01
414.356	106.15
414.568	-72.02
414.781	437.92
414.994	161.45
415.207	151.21
415.42	151.21
415.632	501.41
415.845	583.33
416.058	-53.59
416.271	-67.92
416.483	206.5
416.696	632.48
416.909	22.19
417.121	30.38
417.334	431.78
417.547	802.46
417.759	20.14
417.972	57
418.185	116.39
418.397	579.23
418.61	73.39
418.823	48.81
419.035	530.08
419.248	233.13
419.46	190.12
419.673	284.33
419.885	437.92
420.098	147.11
420.311	48.81
420.523	-55.64
420.736	396.96
420.948	218.79
421.161	140.97
421.373	-37.2
421.586	341.67
421.798	140.97
422.01	-22.87
422.223	171.69
422.435	206.5
422.648	427.68
422.86	32.43
423.073	67.24
423.285	599.71
423.497	20.14
423.71	40.62
423.922	-6.49
424.134	442.02
424.347	573.09
424.559	347.81
424.771	433.83
424.984	224.94
425.196	390.82
425.408	-8.53
425.621	69.29
425.833	564.9
426.045	644.77
426.257	112.3
426.47	183.98
426.682	495.27
426.894	431.78
427.106	138.92
427.318	206.5
427.531	214.7
427.743	499.36
427.955	130.73
428.167	509.6
428.379	511.65
428.591	243.37
428.804	267.94
429.016	118.44
429.228	323.24
429.44	429.73
429.652	360.1
429.864	59.05
430.076	216.74
430.288	308.9
430.5	253.61
430.712	239.27
430.924	677.54
431.136	427.68
431.348	3.75
431.56	110.25
431.772	415.4
431.984	325.29
432.196	118.44
432.408	265.89
432.62	298.66
432.832	532.13
433.044	548.51
433.256	347.81
433.468	583.33
433.679	130.73
433.891	159.4
434.103	470.69
434.315	786.08
434.527	605.86
434.739	366.25
434.95	257.7
435.162	671.39
435.374	274.09
435.586	310.95
435.798	323.24
436.009	276.13
436.221	388.77
436.433	253.61
436.645	296.61
436.856	327.33
437.068	655.01
437.28	308.9
437.491	618.15
437.703	534.18
437.915	548.51
438.126	374.44
438.338	472.74
438.55	495.27
438.761	675.49
438.973	288.42
439.184	384.68
439.396	587.43
439.608	896.67
439.819	204.46
440.031	511.65
440.242	614.05
440.454	652.96
440.665	442.02
440.877	489.12
441.088	585.38
441.3	528.03
441.511	231.08
441.723	253.61
441.934	558.75
442.146	493.22
442.357	509.6
442.569	585.38
442.78	458.4
442.991	935.58
443.203	691.87
443.414	298.66
443.626	902.81
443.837	351.91
444.048	347.81
444.26	331.43
444.471	585.38
444.682	734.88
444.894	267.94
445.105	317.09
445.316	814.75
445.528	720.54
445.739	550.56
445.95	427.68
446.161	530.08
446.373	886.43
446.584	425.64
446.795	382.63
447.006	775.84
447.217	943.77
447.429	325.29
447.64	360.1
447.851	800.41
448.062	632.48
448.273	243.37
448.484	439.97
448.695	710.3
448.907	587.43
449.118	603.81
449.329	691.87
449.54	515.75
449.751	437.92
449.962	523.94
450.173	423.59
450.384	951.96
450.595	1033.88
450.806	429.73
451.017	511.65
451.228	915.1
451.439	960.16
451.65	460.45
451.861	339.62
452.072	458.4
452.283	749.22
452.494	720.54
452.705	462.5
452.915	1005.21
453.126	843.42
453.337	489.12
453.548	476.84
453.759	1031.83
453.97	1341.08
454.181	792.22
454.391	691.87
454.602	736.93
454.813	816.8
455.024	695.97
455.235	691.87
455.445	767.65
455.656	810.65
455.867	814.75
456.078	538.27
456.288	716.45
456.499	814.75
456.71	591.52
456.921	865.95
457.131	859.81
457.342	880.29
457.553	730.78
457.763	620.19
457.974	986.78
458.184	1048.22
458.395	556.71
458.606	571.04
458.816	1093.27
459.027	1363.61
459.237	915.1
459.448	597.67
459.659	1095.32
459.869	1461.91
460.08	652.96
460.29	931.48
460.501	1349.27
460.711	777.89
460.922	605.86
461.132	730.78
461.343	1664.66
461.553	759.46
461.764	808.61
461.974	829.09
462.184	1189.53
462.395	1238.68
462.605	1005.21
462.816	804.51
463.026	1128.09
463.236	1410.71
463.447	888.48
463.657	902.81
463.867	1285.78
464.078	994.97
464.288	1009.31
464.498	988.83
464.709	1140.38
464.919	1160.86
465.129	1060.51
465.339	927.39
465.55	1226.39
465.76	1392.28
465.97	1021.6
466.18	1089.18
466.391	1359.51
466.601	1293.97
466.811	1236.63
467.021	1019.55
467.231	1408.66
467.441	1504.92
467.651	1167
467.862	956.06
468.072	1285.78
468.282	1562.26
468.492	1121.95
468.702	1316.5
468.912	1394.33
469.122	1945.23
469.332	1543.83
469.542	1167
469.752	1584.79
469.962	1463.96
470.172	1181.34
470.382	1214.1
470.592	1660.56
470.802	1740.43
471.012	1480.34
471.222	1271.45
471.432	1838.73
471.642	1703.57
471.852	1558.16
472.062	1308.31
472.272	1539.73
472.482	1361.56
472.691	1461.91
472.901	1463.96
473.111	1707.66
473.321	2229.9
473.531	1564.31
473.741	1584.79
473.95	1955.47
474.16	1941.13
474.37	1676.95
474.58	1705.62
474.79	2268.81
474.999	2113.16
475.209	1627.79
475.419	1752.72
475.628	1887.89
475.838	2297.48
476.048	1799.82
476.258	1783.44
476.467	2305.67
476.677	1967.76
476.886	2021
477.096	2012.81
477.306	1924.75
477.515	2387.59
477.725	2043.53
477.935	2012.81
478.144	2567.81
478.354	2152.07
478.563	2021
478.773	2006.67
478.982	2434.69
479.192	2586.24
479.401	2201.23
479.611	2180.75
479.82	2229.9
480.03	2428.55
480.239	2289.29
480.449	2074.25
480.658	2870.91
480.868	2537.09
481.077	2406.02
481.287	2410.12
481.496	2825.86
481.705	2973.31
481.915	2592.39
482.124	2788.99
482.333	2801.28
482.543	3028.6
482.752	2635.39
482.961	2582.15
483.171	3042.94
483.38	2797.18
483.589	2694.79
483.799	2539.14
484.008	2743.94
484.217	3065.47
484.426	2811.52
484.636	2733.7
484.845	2963.07
485.054	2573.96
485.263	3212.92
485.472	2938.49
485.682	3509.88
485.891	3073.66
486.1	2852.48
486.309	2926.21
486.518	3346.04
486.727	3571.32
486.936	3073.66
487.146	3155.58
487.355	3507.83
487.564	3204.73
487.773	3057.28
487.982	3255.93
488.191	3282.55
488.4	3346.04
488.609	3118.72
488.818	3202.68
489.027	4017.77
489.236	3839.6
489.445	3311.22
489.654	3329.66
489.863	3841.65
490.072	3565.17
490.281	3683.95
490.49	3317.37
490.698	3982.96
490.907	3989.1
491.116	3518.07
491.325	3417.72
491.534	4050.54
491.743	3874.42
491.952	3679.86
492.16	3638.9
492.369	4017.77
492.578	3993.2
492.787	3726.96
492.996	3733.11
493.204	3632.76
493.413	4453.99
493.622	3532.4
493.831	3673.71
494.039	4447.85
494.248	3835.5
494.457	3843.7
494.665	3798.64
494.874	4130.41
495.083	4574.82
495.291	4021.87
495.5	3931.76
495.709	4343.4
495.917	4179.56
496.126	4167.28
496.335	3913.33
496.543	4206.19
496.752	4279.91
496.96	4349.54
497.169	3985.01
497.377	4277.87
497.586	4685.41
497.794	4148.84
498.003	3987.05
498.211	4519.53
498.42	4787.81
498.628	4318.82
498.837	4259.43
499.045	4664.93
499.254	4660.84
499.462	4232.81
499.671	4343.4
499.879	4855.39
500.087	4896.35
500.296	4429.42
500.504	4456.04
500.713	4709.99
500.921	5271.13
501.129	4429.42
501.338	4523.62
501.546	4834.91
501.754	4957.79
501.962	4673.12
502.171	4709.99
502.379	5004.89
502.587	5316.19
502.795	4836.96
503.004	4712.03
503.212	4791.91
503.42	5138.01
503.628	4720.23
503.837	4892.26
504.045	5080.67
504.253	5312.09
504.461	4574.82
504.669	4757.09
504.877	5299.8
505.085	5541.46
505.294	4802.15
505.502	5019.23
505.71	5197.4
505.918	5254.75
506.126	5039.71
506.334	5084.77
506.542	5086.81
506.75	5092.96
506.958	4929.12
507.166	5138.01
507.374	5115.48
507.582	5774.93
507.79	5043.81
507.998	5140.06
508.206	5557.85
508.414	5457.5
508.622	5307.99
508.83	5203.55
509.037	5822.03
509.245	5176.92
509.453	5314.14
509.661	5228.12
509.869	5719.64
510.077	5437.02
510.285	5471.83
510.492	4982.37
510.7	6239.82
510.908	5582.42
511.116	5391.96
511.324	5377.62
511.531	5525.08
511.739	5551.7
511.947	5590.61
512.155	5709.4
512.362	5742.16
512.57	5566.04
512.778	5416.54
512.985	5289.56
513.193	6114.89
513.401	6200.91
513.608	5609.05
513.816	5541.46
514.024	5811.79
514.231	5951.06
514.439	5541.46
514.646	5869.14
514.854	6223.44
515.061	6180.43
515.269	5795.41
515.477	5713.49
515.684	5791.31
515.892	6268.49
516.099	5586.52
516.307	5621.33
516.514	6293.07
516.722	6297.16
516.929	5893.71
517.136	5897.81
517.344	6350.41
517.551	6329.93
517.759	5998.16
517.966	5914.19
518.173	6053.45
518.381	6190.67
518.588	6041.17
518.796	5971.54
519.003	6489.67
519.21	6248.01
519.418	6039.12
519.625	6270.54
519.832	6270.54
520.039	6518.34
520.247	6063.69
520.454	6235.72
520.661	6706.76
520.868	6590.02
521.076	6157.9
521.283	6295.11
521.49	6960.7
521.697	6678.08
521.904	6458.95
522.112	6295.11
522.319	6991.42
522.526	6598.21
522.733	6555.21
522.94	6284.87
523.147	6614.6
523.354	6706.76
523.561	6370.89
523.768	6692.42
523.975	6899.27
524.183	6829.63
524.39	6633.03
524.597	6592.07
524.804	6800.96
525.011	6741.57
525.218	6653.51
525.425	6776.39
525.632	7306.81
525.838	6796.87
526.045	6792.77
526.252	6870.59
526.459	8048.18
526.666	7589.43
526.873	6768.2
527.08	6854.21
527.287	7333.43
527.494	7323.19
527.701	6970.94
527.907	6913.6
528.114	7337.53
528.321	7210.56
528.528	6936.13
528.735	7042.62
528.941	7224.89
529.148	6987.33
529.355	7159.36
529.562	7005.76
529.768	7783.99
529.975	7239.23
530.182	7226.94
530.388	7157.31
530.595	7587.38
530.802	7245.37
531.008	7466.55
531.215	7222.84
531.422	7919.15
531.628	8181.29
531.835	7349.82
532.042	7571
532.248	7624.25
532.455	7599.67
532.661	7292.48
532.868	7317.05
533.074	7847.47
533.281	7984.69
533.487	7773.75
533.694	7376.44
533.9	7601.72
534.107	7761.46
534.313	7587.38
534.52	7380.54
534.726	8142.38
534.933	8259.12
535.139	7530.04
535.345	7556.66
535.552	7974.45
535.758	8062.51
535.965	7931.44
536.171	7870
536.377	8230.45
536.584	8300.08
536.79	7759.41
536.996	8050.22
537.203	8246.83
537.409	8087.09
537.615	8091.18
537.821	7949.87
538.028	8359.47
538.234	8295.98
538.44	8064.56
538.646	8179.25
538.853	8324.65
539.059	8107.57
539.265	8365.61
539.471	7708.21
539.677	8588.84
539.883	8465.96
540.09	8220.21
540.296	8635.94
540.502	8558.12
540.708	8384.04
540.914	8343.08
541.12	8517.16
541.326	8672.81
541.532	8625.7
541.738	8599.08
541.944	8396.33
542.15	8754.73
542.356	8791.59
542.562	8459.82
542.768	8664.61
542.974	9405.98
543.18	9305.63
543.386	8681
543.592	8646.18
543.798	9014.82
544.004	9113.12
544.21	8666.66
544.415	8846.88
544.621	9043.49
544.827	8912.42
545.033	8654.37
545.239	9027.1
545.445	8943.14
545.651	9168.41
545.856	8836.64
546.062	8994.34
546.268	8934.95
546.474	9149.98
546.679	8859.17
546.885	8902.18
547.091	9104.93
547.297	9633.3
547.502	8803.88
547.708	8943.14
547.914	9098.78
548.119	9575.96
548.325	8853.03
548.531	8840.74
548.736	9559.58
548.942	9127.46
549.147	9035.3
549.353	9283.1
549.559	9731.61
549.764	9127.46
549.97	9125.41
550.175	9010.72
550.381	9616.92
550.586	9215.52
550.792	9281.05
550.997	9369.12
551.203	9537.05
551.408	9606.68
551.614	9203.23
551.819	9242.14
552.025	9844.24
552.23	10190.35
552.435	9264.67
552.641	9850.39
552.846	9508.38
553.052	10057.23
553.257	9747.99
553.462	9678.36
553.668	9524.76
553.873	10112.53
554.078	9618.97
554.283	9674.26
554.489	10020.37
554.694	9971.22
554.899	9637.4
555.105	9862.68
555.31	10106.38
555.515	10274.32
555.72	10042.9
555.925	9680.41
556.131	10280.46
556.336	9889.3
556.541	9829.91
556.746	9823.76
556.951	10438.16
557.156	10518.03
557.361	10128.91
557.567	10163.73
557.772	10954.24
557.977	10284.56
558.182	9911.83
558.387	9975.31
558.592	10120.72
558.797	10294.8
559.002	10200.59
559.207	10393.1
559.412	10333.71
559.617	10933.76
559.822	10081.81
560.027	9909.78
560.232	10350.09
560.437	10683.91
560.642	10163.73
560.847	10024.47
561.051	10587.66
561.256	10489.35
561.461	10296.85
561.666	10196.5
561.871	10558.99
562.076	10552.84
562.281	10268.17
562.485	10243.6
562.69	10665.48
562.895	10937.86
563.1	10415.63
563.305	10350.09
563.509	10870.28
563.714	11376.13
563.919	10608.14
564.123	10593.8
564.328	10771.97
564.533	10915.33
564.737	10335.76
564.942	10642.95
565.147	11243.01
565.351	11298.3
565.556	10739.21
565.761	10759.69
565.965	10876.42
566.17	10534.41
566.374	10634.76
566.579	10491.4
566.784	10941.96
566.988	10964.48
567.193	10585.61
567.397	10595.85
567.602	10862.08
567.806	10911.24
568.011	10862.08
568.215	10974.72
568.42	10991.11
568.624	11032.07
568.828	11013.63
569.033	11128.32
569.237	11226.62
569.442	11402.75
569.646	10645
569.85	10880.52
570.055	11144.7
570.259	11431.42
570.463	11355.65
570.668	11208.19
570.872	11437.56
571.076	11462.14
571.281	11169.28
571.485	11572.73
571.689	11466.24
571.893	11683.32
572.098	11378.17
572.302	11101.7
572.506	11666.94
572.71	11529.72
572.914	11312.64
573.119	11195.9
573.323	11679.22
573.527	11668.98
573.731	11269.63
573.935	11529.72
574.139	11765.24
574.343	11415.04
574.547	11580.92
574.751	11380.22
574.955	11869.69
575.159	12019.19
575.364	11392.51
575.568	11378.17
575.772	11793.91
575.976	11972.08
576.18	11562.49
576.383	11689.46
576.587	11984.37
576.791	11927.03
576.995	11326.97
577.199	11582.97
577.403	12291.57
577.607	12043.76
577.811	11830.77
578.015	11771.38
578.219	12000.76
578.422	12097.01
578.626	12084.72
578.83	11978.23
579.034	12176.88
579.238	11853.3
579.442	11990.52
579.645	12197.36
579.849	12170.74
580.053	12236.27
580.257	11986.42
580.46	12158.45
580.664	12520.94
580.868	12340.72
581.071	12273.14
581.275	12238.32
581.479	11945.46
581.682	12473.84
581.886	12117.49
582.09	12176.88
582.293	12723.69
582.497	12789.22
582.7	12250.61
582.904	12316.14
583.107	12649.96
583.311	12346.86
583.515	12281.33
583.718	12379.63
583.922	12637.67
584.125	12903.91
584.329	12451.31
584.532	12547.56
584.735	13057.51
584.939	12715.5
585.142	12494.32
585.346	12668.39
585.549	12768.74
585.753	12604.91
585.956	12537.32
586.159	12641.77
586.363	13473.25
586.566	13137.38
586.769	12578.28
586.973	12576.23
587.176	13047.27
587.379	13022.69
587.582	13104.61
587.786	12887.53
587.989	12930.53
588.192	13737.43
588.395	12801.51
588.599	12973.54
588.802	13082.08
589.005	13082.08
589.208	12996.07
589.411	12805.61
589.615	13417.95
589.818	13725.15
590.021	13207.01
590.224	13198.82
590.427	13643.23
590.63	13565.4
590.833	13065.7
591.036	13022.69
591.239	13346.27
591.442	13219.3
591.645	13268.45
591.848	13243.87
592.051	13721.05
592.254	13651.42
592.457	13051.36
592.66	13260.26
592.863	13632.99
593.066	13800.92
593.269	13272.54
593.472	13608.41
593.675	13563.36
593.878	13772.25
594.081	13606.36
594.284	13333.98
594.486	13884.89
594.689	13964.76
594.892	13678.04
595.095	13706.71
595.298	13731.29
595.5	13921.75
595.703	14110.16
595.906	13946.33
596.109	14241.23
596.311	14022.1
596.514	13510.11
596.717	13929.94
596.92	14450.13
597.122	14101.97
597.325	13510.11
597.528	13972.95
597.73	14360.02
597.933	14233.04
598.136	14087.64
598.338	13643.23
598.541	14458.32
598.743	14532.04
598.946	13923.8
599.148	14089.68
599.351	14378.45
599.554	14654.92
599.756	14292.43
599.959	14282.19
600.161	14460.37
600.363	15001.03
600.566	14644.68
600.768	14032.34
600.971	14839.24
601.173	14783.95
601.376	14362.06
601.578	14204.37
601.78	14779.85
601.983	14943.69
602.185	14278.1
602.388	14663.11
602.59	14392.78
602.792	14597.58
602.995	14509.52
603.197	14499.28
603.399	15064.52
603.601	14642.64
603.804	14169.55
604.006	14618.06
604.208	14599.63
604.41	14583.24
604.613	14652.88
604.815	14411.21
605.017	15422.91
605.219	14544.33
605.421	14611.92
605.623	14484.94
605.826	15232.45
606.028	15107.52
606.23	14390.74
606.432	14448.08
606.634	15226.31
606.836	15164.87
607.038	14683.59
607.24	14781.9
607.442	14652.88
607.644	14947.78
607.846	14736.84
608.048	14560.72
608.25	15134.15
608.452	14785.99
608.654	14943.69
608.856	14603.72
609.058	14761.42
609.26	14988.74
609.462	14953.93
609.664	14638.54
609.866	15287.75
610.067	15246.79
610.269	15029.7
610.471	14822.86
610.673	14923.21
610.875	15285.7
611.077	14986.69
611.278	15056.32
611.48	15193.54
611.682	15564.22
611.884	15175.11
612.085	14955.97
612.287	14943.69
612.489	15644.09
612.69	14990.79
612.892	15099.33
613.094	15187.39
613.295	14927.3
613.497	14986.69
613.699	15195.59
613.9	15709.63
614.102	15601.08
614.304	14890.44
614.505	14859.72
614.707	15394.24
614.908	15113.67
615.11	14962.12
615.311	14968.26
615.513	15390.14
615.714	15541.69
615.916	15095.24
616.117	15209.92
616.319	15291.84
616.52	15732.15
616.722	15138.24
616.923	15228.35
617.124	15621.56
617.326	15453.63
617.527	15281.6
617.729	15570.37
617.93	15795.64
618.131	15658.43
618.333	15113.67
618.534	15185.35
618.735	15476.16
618.937	15963.58
619.138	15263.17
619.339	14890.44
619.54	15726.01
619.742	15287.75
619.943	15609.28
620.144	15384
620.345	15769.02
620.546	15861.18
620.748	15539.65
620.949	15447.49
621.15	15726.01
621.351	15478.21
621.552	15388.1
621.753	15295.94
621.954	15498.69
622.155	15957.43
622.356	15293.89
622.558	15568.32
622.759	15775.16
622.96	15922.62
623.161	15476.16
623.362	15586.75
623.563	15676.86
623.764	15769.02
623.965	15631.8
624.166	15879.61
624.366	15838.65
624.567	15844.79
624.768	15646.14
624.969	15474.11
625.17	15822.27
625.371	16047.54
625.572	15701.44
625.773	15558.08
625.973	16006.58
626.174	16088.5
626.375	15859.13
626.576	15881.66
626.777	15953.34
626.977	16494
627.178	15912.38
627.379	15941.05
627.58	16059.83
627.78	16430.51
627.981	15955.38
628.182	16188.85
628.382	16276.91
628.583	15676.86
628.784	15816.12
628.984	15779.26
629.185	16344.5
629.386	16121.27
629.586	16100.79
629.787	15879.61
629.987	16379.31
630.188	15982.01
630.388	15771.07
630.589	15836.6
630.79	16854.44
630.99	16178.61
631.191	16141.75
631.391	16494
631.591	16358.83
631.792	16545.2
631.992	16254.39
632.193	16137.65
632.393	16790.95
632.594	16213.43
632.794	16020.92
632.994	16477.62
633.195	16225.72
633.395	16694.7
633.595	16133.56
633.796	16283.06
633.996	16387.5
634.196	16745.9
634.397	16186.8
634.597	16256.43
634.797	16375.22
634.997	16905.64
635.198	16551.34
635.398	16258.48
635.598	16907.69
635.798	16674.22
635.998	16750
636.199	16070.07
636.399	16618.93
636.599	16741.8
636.799	16203.19
636.999	16489.9
637.199	16723.37
637.399	16934.31
637.599	16383.41
637.799	16381.36
637.999	16467.38
638.199	17089.96
638.399	16338.35
638.599	16629.16
638.799	16526.77
638.999	17223.08
639.199	16555.44
639.399	16784.81
639.599	17419.68
639.799	16582.06
639.999	16559.53
640.199	16494
640.399	16852.39
640.599	16635.31
640.799	16700.84
640.998	16981.42
641.198	17059.24
641.398	16993.7
641.598	16913.83
641.798	16979.37
641.997	17722.78
642.197	16778.67
642.397	16991.66
642.597	16819.63
642.796	17182.12
642.996	17290.66
643.196	16952.74
643.395	16575.92
643.595	17368.48
643.795	16909.74
643.994	16745.9
644.194	16715.18
644.394	17161.64
644.593	16934.31
644.793	16719.28
644.992	17302.95
645.192	17005.99
645.392	16498.09
645.591	17231.27
645.791	17194.4
645.99	17458.59
646.19	17300.9
646.389	17163.68
646.589	17360.29
646.788	17442.21
646.987	17589.66
647.187	17421.73
647.386	17491.36
647.586	17517.98
647.785	17843.61
647.984	17169.83
648.184	17251.75
648.383	17466.78
648.582	17196.45
648.782	17253.8
648.981	17415.58
649.18	17016.23
649.38	17556.89
649.579	17354.15
649.778	17063.33
649.977	17683.87
650.177	17436.06
650.376	17270.18
650.575	17157.54
650.774	17835.42
650.973	17253.8
651.173	17073.57
651.372	17098.15
651.571	17606.05
651.77	17917.34
651.969	17384.87
652.168	17520.03
652.367	17313.19
652.566	17372.58
652.765	17509.79
652.964	17837.47
653.163	18005.4
653.362	17681.82
653.561	17329.57
653.76	17548.7
653.959	17618.33
654.158	17632.67
654.357	17526.18
654.556	17376.67
654.755	17927.58
654.954	17960.34
655.153	17759.64
655.352	17819.03
655.551	18199.96
655.749	17706.4
655.948	17520.03
656.147	17907.1
656.346	18029.98
656.545	17814.94
656.743	17831.32
656.942	17753.5
657.141	17806.75
657.34	17710.49
657.538	17548.7
657.737	17757.6
657.936	17958.3
658.135	18011.54
658.333	17317.28
658.532	17790.36
658.731	18488.72
658.929	18273.68
659.128	17964.44
659.326	17647.01
659.525	18392.47
659.724	18163.09
659.922	17681.82
660.121	17604
660.319	18109.85
660.518	17571.23
660.716	17700.25
660.915	18120.09
661.113	18574.74
661.312	17558.94
661.51	18214.29
661.709	17661.34
661.907	18216.34
662.105	18384.27
662.304	18062.74
662.502	17980.82
662.701	18445.71
662.899	17864.09
663.097	18134.42
663.296	17644.96
663.494	18486.67
663.692	18455.95
663.891	18161.05
664.089	17878.43
664.287	18070.93
664.485	18541.97
664.684	17941.91
664.882	18113.94
665.08	18122.13
665.278	18072.98
665.476	18036.12
665.675	18247.06
665.873	18734.48
666.071	18757
666.269	17882.52
666.467	18095.51
666.665	18398.61
666.863	18177.43
667.061	18363.79
667.259	17851.8
667.457	18269.59
667.655	18191.77
667.853	17943.96
668.051	18099.61
668.249	18095.51
668.447	18380.18
668.645	17821.08
668.843	18470.29
669.041	18615.69
669.239	18046.36
669.437	18314.64
669.635	18300.31
669.833	18142.61
670.031	18498.96
670.229	17964.44
670.426	18058.65
670.624	18130.33
670.822	18017.69
671.02	18062.74
671.218	18367.89
671.415	18101.65
671.613	18361.75
671.811	18439.57
672.009	18242.96
672.206	18392.47
672.404	18320.79
672.602	18187.67
672.799	17925.53
672.997	18331.03
673.195	18503.06
673.392	18324.88
673.59	17898.91
673.788	18277.78
673.985	17552.8
674.183	18134.42
674.38	18154.9
674.578	18611.6
674.775	18099.61
674.973	17632.67
675.17	17888.67
675.368	18453.91
675.565	18320.79
675.763	18093.46
675.96	17905.05
676.158	18419.09
676.355	18165.14
676.553	18519.44
676.75	18142.61
676.947	18494.86
677.145	18257.3
677.342	18115.99
677.539	18242.96
677.737	18290.07
677.934	18879.88
678.131	18214.29
678.329	18161.05
678.526	18398.61
678.723	18470.29
678.92	18189.72
679.118	18007.45
679.315	18023.83
679.512	18742.67
679.709	18175.38
679.906	18189.72
680.104	18546.06
680.301	18443.67
680.498	17776.03
680.695	17943.96
680.892	18126.23
681.089	18177.43
681.286	18435.47
681.483	17851.8
681.68	18402.71
681.877	18525.58
682.075	18171.29
682.272	18349.46
682.469	18544.02
682.665	18148.76
682.862	17864.09
683.059	18062.74
683.256	18347.41
683.453	18341.27
683.65	18105.75
683.847	18118.04
684.044	18091.41
684.241	18197.91
684.438	18251.16
684.635	17835.42
684.831	18570.64
685.028	18845.07
685.225	18027.93
685.422	18003.35
685.619	18298.26
685.815	17857.95
686.012	17978.78
686.209	17728.92
686.405	17751.45
686.602	18263.44
686.799	17773.98
686.996	17931.67
687.192	17864.09
687.389	18322.84
687.586	17763.74
687.782	17814.94
687.979	18359.7
688.175	18480.53
688.372	18046.36
688.568	17982.87
688.765	18009.5
688.962	18509.2
689.158	17884.57
689.355	17634.72
689.551	18075.03
689.748	17937.82
689.944	17952.15
690.14	17806.75
690.337	18089.37
690.533	17921.43
690.73	18083.22
690.926	18009.5
691.123	17911.19
691.319	18079.13
691.515	17497.5
691.712	17823.13
691.908	17847.71
692.104	17894.81
692.301	17800.6
692.497	17546.65
692.693	18169.24
692.889	18130.33
693.086	17763.74
693.282	17614.24
693.478	17835.42
693.674	18353.55
693.87	17841.56
694.067	17718.68
694.263	18101.65
694.459	17718.68
694.655	18032.02
694.851	17935.77
695.047	18169.24
695.243	18191.77
695.439	17812.89
695.635	17737.12
695.831	18300.31
696.027	17972.63
696.224	17606.05
696.42	18036.12
696.615	18374.03
696.811	18253.2
697.007	17749.4
697.203	17651.1
697.399	17966.49
697.595	18070.93
697.791	17542.56
697.987	17833.37
698.183	17517.98
698.379	17618.33
698.575	17733.02
698.77	17960.34
698.966	17892.76
699.162	17849.75
699.358	17649.05
699.554	17628.57
699.749	17814.94
699.945	18068.89
700.141	17728.92
700.337	17606.05
700.532	17876.38
700.728	17540.51
700.924	17546.65
701.119	17384.87
701.315	17821.08
701.511	17919.39
701.706	17720.73
701.902	17382.82
702.097	17767.84
702.293	17943.96
702.489	17339.81
702.684	17438.11
702.88	17464.74
703.075	17444.26
703.271	17151.4
703.466	17489.31
703.662	17835.42
703.857	18066.84
704.053	17391.01
704.248	17288.61
704.443	17538.46
704.639	17804.7
704.834	17489.31
705.03	17229.22
705.225	17870.23
705.42	17935.77
705.616	17597.85
705.811	17339.81
706.006	17622.43
706.202	17446.3
706.397	17534.37
706.592	16879.02
706.787	17511.84
706.983	17589.66
707.178	17552.8
707.373	17311.14
707.568	17962.39
707.763	17620.38
707.959	17288.61
708.154	17374.63
708.349	17546.65
708.544	17608.09
708.739	17694.11
708.934	17386.91
709.129	17569.18
709.324	17587.61
709.519	17397.15
709.714	17411.49
709.909	17761.69
710.104	17534.37
710.299	17261.99
710.494	17581.47
710.689	17591.71
710.884	17489.31
711.079	17690.01
711.274	17782.17
711.469	17755.55
711.664	17796.51
711.859	17376.67
712.054	17481.12
712.249	17735.07
712.443	17759.64
712.638	16936.36
712.833	16852.39
713.028	17638.81
713.223	17378.72
713.417	17319.33
713.612	17647.01
713.807	17782.17
714.002	17986.97
714.196	17413.54
714.391	17132.97
714.586	17479.07
714.78	17380.77
714.975	17413.54
715.17	17012.14
715.364	17270.18
715.559	17821.08
715.754	16983.46
715.948	16868.78
716.143	17556.89
716.337	17288.61
716.532	17446.3
716.726	17098.15
716.921	17257.89
717.115	17581.47
717.31	16813.48
717.504	17503.65
717.699	17151.4
717.893	17296.8
718.088	17204.64
718.282	16952.74
718.476	17216.93
718.671	17311.14
718.865	16889.26
719.059	16872.87
719.254	17116.58
719.448	17556.89
719.642	17282.47
719.837	16645.55
720.031	17495.46
720.225	17372.58
720.419	17028.52
720.614	16541.1
720.808	17147.3
721.002	16983.46
721.196	16997.8
721.39	16698.8
721.585	17368.48
721.779	16942.5
721.973	17112.49
722.167	16588.21
722.361	16795.05
722.555	17237.41
722.749	16952.74
722.943	16655.79
723.137	16852.39
723.331	16764.33
723.525	16795.05
723.719	16813.48
723.913	17042.85
724.107	17153.44
724.301	16610.73
724.495	16889.26
724.689	17331.62
724.883	17382.82
725.077	16649.64
725.271	16803.24
725.465	17296.8
725.659	17112.49
725.853	16991.66
726.046	16588.21
726.24	16524.72
726.434	17036.71
726.628	16516.53
726.822	16575.92
727.015	17239.46
727.209	17061.29
727.403	16692.65
727.596	16844.2
727.79	17145.25
727.984	17116.58
728.177	16809.39
728.371	16872.87
728.565	17102.25
728.758	16651.69
728.952	16401.84
729.146	16825.77
729.339	16960.94
729.533	17085.86
729.726	16655.79
729.92	16793
730.113	16829.87
730.307	17196.45
730.5	16647.6
730.694	16762.28
730.887	16598.45
731.081	17104.29
731.274	16672.17
731.468	16741.8
731.661	16821.67
731.854	17044.9
732.048	16745.9
732.241	16618.93
732.435	16629.16
732.628	16932.26
732.821	16778.67
733.014	16375.22
733.208	16577.97
733.401	16848.3
733.594	16682.41
733.788	16539.05
733.981	16934.31
734.174	16709.04
734.367	16479.66
734.56	16883.11
734.754	16565.68
734.947	16758.19
735.14	16577.97
735.333	16743.85
735.526	16930.22
735.719	16657.84
735.912	16537.01
736.105	16602.54
736.298	16817.58
736.491	16596.4
736.684	16356.79
736.877	16580.01
737.07	16932.26
737.263	17100.2
737.456	16313.78
737.649	16588.21
737.842	16547.25
738.035	16727.47
738.228	16739.76
738.421	16872.87
738.614	17071.53
738.807	17065.38
739	16084.41
739.192	16446.9
739.385	16797.1
739.578	16948.65
739.771	16676.27
739.964	16696.75
740.156	16819.63
740.349	16760.23
740.542	16987.56
740.735	16416.18
740.927	16260.53
741.12	16577.97
741.313	16475.57
741.505	16694.7
741.698	16815.53
741.891	16805.29
742.083	16547.25
742.276	16567.73
742.468	16911.78
742.661	16582.06
742.854	16313.78
743.046	16537.01
743.239	17061.29
743.431	16483.76
743.624	16358.83
743.816	16235.95
744.009	16450.99
744.201	16852.39
744.393	16565.68
744.586	16268.72
744.778	16840.11
744.971	16461.23
745.163	16303.54
745.355	16430.51
745.548	16625.07
745.74	16604.59
745.932	16661.93
746.125	16479.66
746.317	17409.44
746.509	16604.59
746.702	16725.42
746.894	16481.71
747.086	16756.14
747.278	16774.57
747.471	16373.17
747.663	16301.49
747.855	16385.46
748.047	16883.11
748.239	16311.73
748.431	16430.51
748.623	17204.64
748.815	16690.6
749.008	16139.7
749.2	16242.1
749.392	16899.5
749.584	16848.3
749.776	16356.79
749.968	16442.8
750.16	17022.37
750.352	16426.42
750.544	16127.41
750.736	16184.76
750.928	16651.69
751.12	16399.79
751.311	15939
751.503	16377.26
751.695	16346.55
751.887	16244.15
752.079	16113.08
752.271	15900.09
752.463	17145.25
752.654	16338.35
752.846	16033.21
753.038	16313.78
753.23	16311.73
753.421	16338.35
753.613	16022.97
753.805	16299.44
753.997	16321.97
754.188	16514.48
754.38	15783.35
754.572	16162.23
754.763	16342.45
754.955	16399.79
755.146	15973.81
755.338	16076.21
755.53	16192.95
755.721	16293.3
755.913	16031.16
756.104	15551.93
756.296	15916.47
756.487	16014.77
756.679	15984.05
756.87	15613.37
757.062	15908.28
757.253	16412.08
757.445	15957.43
757.636	15898.04
757.827	15994.29
758.019	16324.02
758.21	15812.03
758.401	15799.74
758.593	16205.24
758.784	16311.73
758.975	15650.24
759.167	15713.72
759.358	15850.94
759.549	16043.45
759.74	15558.08
759.932	15668.67
760.123	16014.77
760.314	15769.02
760.505	15787.45
760.696	15519.17
760.888	16020.92
761.079	15658.43
761.27	15592.89
761.461	15345.09
761.652	16070.07
761.843	15601.08
762.034	15717.82
762.225	15562.17
762.416	15691.2
762.607	15289.79
762.798	15396.29
762.989	15357.38
763.18	16211.38
763.371	15572.41
763.562	15418.82
763.753	15295.94
763.944	15613.37
764.135	15570.37
764.326	15613.37
764.517	14986.69
764.708	15228.35
764.899	15687.1
765.089	15318.46
765.28	15234.5
765.471	15510.97
765.662	15568.32
765.853	15343.04
766.043	15119.81
766.234	15719.87
766.425	15402.43
766.615	14972.36
766.806	15078.85
766.997	15658.43
767.187	15136.2
767.378	15254.98
767.569	14855.62
767.759	15248.83
767.95	15175.11
768.141	14931.4
768.331	15025.61
768.522	15003.08
768.712	15482.3
768.903	15226.31
769.093	14937.54
769.284	15556.03
769.474	15111.62
769.665	14884.3
769.855	14669.26
770.046	15363.52
770.236	14933.45
770.426	14939.59
770.617	14714.31
770.807	15308.23
770.998	14972.36
771.188	15115.72
771.378	14624.2
771.569	15285.7
771.759	15105.48
771.949	14509.52
772.139	14962.12
772.33	15050.18
772.52	15451.58
772.71	14521.81
772.9	14480.85
773.09	15300.03
773.281	15095.24
773.471	14667.21
773.661	14632.4
773.851	14892.49
774.041	14661.07
774.231	14560.72
774.421	14542.28
774.611	14837.19
774.802	14751.18
774.992	14355.92
775.182	14497.23
775.372	14616.01
775.562	14671.31
775.752	14718.41
775.942	14296.53
776.131	14986.69
776.321	14603.72
776.511	14611.92
776.701	14165.46
776.891	14648.78
777.081	14323.15
777.271	14460.37
777.461	14280.14
777.651	14501.33
777.84	14779.85
778.03	14431.69
778.22	14018
778.41	14593.48
778.599	14179.79
778.789	14398.93
778.979	14480.85
779.169	14470.61
779.358	14355.92
779.548	14562.76
779.738	14067.16
779.927	14323.15
780.117	14237.14
780.307	14142.93
780.496	13813.21
780.686	14452.17
780.875	14650.83
781.065	13962.71
781.254	13905.37
781.444	14171.6
781.633	14177.75
781.823	13786.58
782.012	13540.83
782.202	13962.71
782.391	14120.4
782.581	13813.21
782.77	14001.62
782.96	14364.11
783.149	13985.24
783.338	13770.2
783.528	13534.68
783.717	14161.36
783.906	14419.41
784.096	13813.21
784.285	13479.39
784.474	13731.29
784.663	13747.67
784.853	13575.64
785.042	13729.24
785.231	13551.07
785.42	13964.76
785.61	13546.97
785.799	13661.66
785.988	13704.67
786.177	13735.39
786.366	13913.56
786.555	13962.71
786.744	13977.05
786.933	13780.44
787.122	13606.36
787.312	13329.89
787.501	13381.09
787.69	14026.2
787.879	13407.71
788.068	13280.74
788.257	13454.81
788.445	13731.29
788.634	13606.36
788.823	13379.04
789.012	14321.1
789.201	13727.19
789.39	13338.08
789.579	13452.77
789.768	13465.05
789.957	13782.49
790.145	13409.76
790.334	13204.96
790.523	13338.08
790.712	13391.33
790.9	13456.86
791.089	13123.04
791.278	13923.8
791.467	13231.58
791.655	13432.29
791.844	13725.15
792.033	13497.82
792.221	13563.36
792.41	13288.93
792.599	13092.32
792.787	13759.96
792.976	13831.64
793.164	12989.92
793.353	13188.58
793.541	13542.88
793.73	13641.18
793.918	13192.67
794.107	13182.43
794.295	13211.11
794.484	13333.98
794.672	12899.81
794.861	13057.51
795.049	13243.87
795.238	13575.64
795.426	12846.57
795.614	13080.04
795.803	13463.01
795.991	13508.06
796.179	12938.73
796.368	12959.2
796.556	13397.47
796.744	12959.2
796.932	12994.02
797.121	12807.66
797.309	13096.42
797.497	13374.94
797.685	13233.63
797.874	12873.19
798.062	13125.09
798.25	13383.13
798.438	13014.5
798.626	12873.19
798.814	13196.77
799.002	13712.86
799.19	13118.95
799.378	12852.71
799.566	13352.41
799.755	13409.76
799.943	12998.12
800.131	12865
800.318	12959.2
800.506	13143.52
800.694	12627.43
800.882	12910.05
801.07	13585.88
801.258	13071.84
801.446	12963.3
801.634	12760.55
801.822	13098.47
802.01	13135.33
802.197	12895.72
802.385	13182.43
802.573	13207.01
802.761	12932.58
802.949	13120.99
803.136	12797.42
803.324	13288.93
803.512	13247.97
803.699	13172.19
803.887	12821.99
804.075	13497.82
804.262	13137.38
804.45	13014.5
804.638	13141.47
804.825	12948.97
805.013	13006.31
805.201	13352.41
805.388	12748.26
805.576	13207.01
805.763	13792.73
805.951	13116.9
806.138	13327.84
806.326	13778.39
806.513	13237.73
806.701	13010.4
806.888	13444.57
807.075	13698.52
807.263	13737.43
807.45	13084.13
807.638	13436.38
807.825	13850.07
808.012	13659.61
808.2	13065.7
808.387	13305.31
808.574	13393.37
808.761	13626.84
808.949	13221.34
809.136	13327.84
809.323	13196.77
809.51	13399.52
809.698	13573.6
809.885	13174.24
810.072	13567.45
810.259	13925.85
810.446	13016.55
810.633	13391.33
810.82	13723.1
811.008	13684.19
811.195	13313.5
811.382	13432.29
811.569	13600.22
811.756	13340.13
811.943	13350.37
812.13	13344.22
812.317	13503.96
812.504	13675.99
812.691	13698.52
812.878	13788.63
813.064	13841.88
813.251	13417.95
813.438	13307.36
813.625	13454.81
813.812	13690.33
813.999	13454.81
814.186	13403.61
814.372	13508.06
814.559	13661.66
814.746	13929.94
814.933	13321.7
815.12	13585.88
815.306	13317.6
815.493	12959.2
815.68	13262.3
815.866	13231.58
816.053	13856.22
816.24	14187.99
816.426	13342.18
816.613	13559.26
816.799	13612.51
816.986	13831.64
817.173	13315.55
817.359	13432.29
817.546	13522.4
817.732	13192.67
817.919	13125.09
818.105	13630.94
818.292	13333.98
818.478	13635.03
818.665	13383.13
818.851	13233.63
819.037	13934.04
819.224	13204.96
819.41	13217.25
819.597	13172.19
819.783	13868.5
819.969	13653.47
820.156	13309.41
820.342	12901.86
820.528	14140.88
820.714	13389.28
820.901	13362.65
821.087	13254.11
821.273	13637.08
821.459	13282.78
821.646	13247.97
821.832	13100.51
822.018	13444.57
822.204	13131.23
822.39	13071.84
822.576	13192.67
822.762	13469.15
822.948	13209.06
823.134	13235.68
823.32	12965.35
823.507	12862.95
823.693	13213.15
823.879	13325.79
824.065	12862.95
824.25	13213.15
824.436	12711.4
824.622	12926.44
824.808	12803.56
824.994	13102.56
825.18	12772.84
825.366	12662.25
825.552	12559.85
825.738	13090.27
825.923	13348.32
826.109	13190.63
826.295	12482.03
826.481	12746.22
826.667	12584.43
826.852	12647.91
827.038	12670.44
827.224	13182.43
827.409	13499.87
827.595	12756.46
827.781	12844.52
827.966	13014.5
828.152	13147.62
828.338	12695.02
828.523	12516.84
828.709	13102.56
828.894	13200.87
829.08	12674.54
829.266	12465.64
829.451	12512.75
829.637	13034.98
829.822	12510.7
830.008	12617.19
830.193	13069.8
830.378	12948.97
830.564	12682.73
830.749	12467.69
830.935	12897.77
831.12	12985.83
831.305	12551.66
831.491	12475.88
831.676	12281.33
831.861	12801.51
832.047	12434.92
832.232	12408.3
832.417	12856.81
832.602	12717.54
832.788	12262.9
832.973	12414.45
833.158	12303.85
833.343	12441.07
833.528	12488.17
833.714	12330.48
833.899	12633.58
834.084	13045.22
834.269	12385.77
834.454	12193.26
834.639	12705.26
834.824	12344.81
835.009	12434.92
835.194	12430.83
835.379	12606.95
835.564	12850.66
835.749	12303.85
835.934	12168.69
836.119	12613.1
836.304	12195.31
836.489	12144.11
836.674	12385.77
836.859	12426.73
837.044	12770.79
837.228	12465.64
837.413	12082.67
837.598	12269.04
837.783	12314.09
837.968	12125.68
838.152	11826.68
838.337	11675.13
838.522	12469.74
838.707	12467.69
838.891	12019.19
839.076	12127.73
839.261	12350.96
839.445	12246.51
839.63	11965.94
839.815	12578.28
839.999	12123.63
840.184	11857.4
840.368	11908.6
840.553	12221.94
840.737	12189.17
840.922	11851.25
841.106	11912.69
841.291	11972.08
841.475	12271.09
841.66	11767.29
841.844	11582.97
842.029	12652.01
842.213	11683.32
842.397	11798.01
842.582	11517.43
842.766	12453.36
842.951	12275.18
843.135	11740.66
843.319	11580.92
843.504	12117.49
843.688	12043.76
843.872	11447.8
844.056	11437.56
844.241	11871.73
844.425	11806.2
844.609	11589.11
844.793	11304.45
844.977	12049.91
845.161	11832.82
845.346	11245.06
845.53	11607.55
845.714	11742.71
845.898	11845.11
846.082	11085.31
846.266	11349.5
846.45	11349.5
846.634	11632.12
846.818	11339.26
847.002	11415.04
847.186	11838.97
847.37	11281.92
847.554	11374.08
847.738	11449.85
847.922	11548.15
848.106	11703.8
848.29	11073.03
848.473	11392.51
848.657	11392.51
848.841	11507.2
849.025	11308.54
849.209	10989.06
849.392	11480.57
849.576	11195.9
849.76	10802.69
849.944	11163.14
850.127	11777.53
850.311	11232.77
850.495	11204.1
850.678	10839.56
850.862	11580.92
851.046	11529.72
851.229	11220.48
851.413	11087.36
851.596	11292.16
851.78	11212.29
851.964	11314.69
852.147	11169.28
852.331	11826.68
852.514	11552.25
852.698	11083.27
852.881	10776.07
853.065	11484.67
853.248	11326.97
853.431	11077.12
853.615	11015.68
853.798	11427.32
853.982	11111.94
854.165	11007.49
854.348	10995.2
854.532	10935.81
854.715	11089.41
854.898	10737.16
855.081	10714.63
855.265	11171.33
855.448	11453.95
855.631	10571.27
855.814	10802.69
855.997	11345.41
856.181	11015.68
856.364	10827.27
856.547	10601.99
856.73	11175.42
856.913	10984.96
857.096	10749.45
857.279	10784.26
857.462	10614.28
857.645	11265.53
857.828	10679.82
858.011	10800.65
858.194	10702.34
858.377	10849.8
858.56	10659.34
858.743	10769.93
858.926	10755.59
859.109	10817.03
859.292	10622.47
859.475	10169.87
859.658	10995.2
859.841	10741.25
860.023	10464.78
860.206	10391.05
860.389	10696.2
860.572	10704.39
860.755	10366.48
860.937	10522.12
861.12	10526.22
861.303	10374.67
861.486	10317.33
861.668	10288.65
861.851	10880.52
862.034	10763.78
862.216	10405.39
862.399	9803.29
862.581	10626.57
862.764	10737.16
862.947	10137.1
863.129	10143.25
863.312	10018.32
863.494	10550.79
863.677	10395.15
863.859	10030.61
864.042	10356.24
864.224	10759.69
864.406	10090
864.589	9834
864.771	10311.18
864.954	10059.28
865.136	10046.99
865.318	9651.74
865.501	10186.26
865.683	9674.26
865.865	9946.64
866.048	9680.41
866.23	10350.09
866.412	9926.16
866.594	9741.85
866.777	10055.19
866.959	10028.56
867.141	9901.59
867.323	10020.37
867.505	10094.1
867.687	10139.15
867.869	10069.52
868.052	9956.88
868.234	9610.78
868.416	9983.51
868.598	10159.63
868.78	9608.73
868.962	10063.38
869.144	10130.96
869.326	10239.5
869.508	9764.37
869.69	9815.57
869.872	10016.27
870.054	10214.93
870.236	9448.99
870.417	9993.75
870.599	9750.04
870.781	10423.82
870.963	10012.18
871.145	9602.58
871.327	9461.27
871.508	10180.11
871.69	9408.03
871.872	9561.62
872.054	10180.11
872.235	9940.5
872.417	9440.79
872.599	9438.75
872.78	10288.65
872.962	9881.11
873.144	9631.26
873.325	9535
873.507	9930.26
873.689	10028.56
873.87	9418.27
874.052	9766.42
874.233	9565.72
874.415	9938.45
874.596	9610.78
874.778	9631.26
874.959	9756.18
875.141	10057.23
875.322	9621.02
875.503	9535
875.685	9860.63
875.866	9252.38
876.048	9405.98
876.229	9426.46
876.41	9567.77
876.592	9967.12
876.773	9668.12
876.954	9436.7
877.136	10165.78
877.317	9825.81
877.498	9494.04
877.679	9747.99
877.86	10042.9
878.042	10075.66
878.223	9684.5
878.404	10108.43
878.585	10176.02
878.766	10407.44
878.947	9938.45
879.128	9758.23
879.309	10155.54
879.49	10155.54
879.672	9825.81
879.853	9711.13
880.034	9795.09
880.215	9831.96
880.396	9868.82
880.576	9704.98
880.757	9688.6
880.938	10399.24
881.119	9825.81
881.3	9758.23
881.481	10135.06
881.662	10878.47
881.843	9913.88
882.023	9989.65
882.204	10386.96
882.385	10083.86
882.566	9965.07
882.747	9950.74
882.927	10059.28
883.108	10229.26
883.289	10114.58
883.469	10331.66
883.65	10112.53
883.831	10122.77
884.011	10102.29
884.192	10155.54
884.373	10493.45
884.553	10450.44
884.734	10208.78
884.914	10577.42
885.095	11126.27
885.275	10776.07
885.456	10452.49
885.636	10061.33
885.817	10335.76
885.997	10532.36
886.178	10255.89
886.358	10282.51
886.538	10571.27
886.719	11443.71
886.899	10186.26
887.08	10638.86
887.26	10655.24
887.44	10350.09
887.621	10253.84
887.801	10384.91
887.981	11136.51
888.161	10708.49
888.342	10337.8
888.522	10472.97
888.702	10819.08
888.882	10845.7
889.062	10698.25
889.242	10247.69
889.423	10825.22
889.603	10663.43
889.783	10683.91
889.963	10241.55
890.143	10812.93
890.323	10655.24
890.503	10370.57
890.683	10554.89
890.863	10698.25
891.043	10716.68
891.223	10561.03
891.403	10661.38
891.583	10731.01
891.763	10726.92
891.943	10579.47
892.122	10475.02
892.302	10716.68
892.482	10595.85
892.662	10630.66
892.842	10434.06
893.022	10890.76
893.201	10595.85
893.381	10589.71
893.561	10671.62
893.741	10921.48
893.92	10909.19
894.1	10593.8
894.28	10712.58
894.459	10929.67
894.639	10929.67
894.819	10630.66
894.998	10741.25
895.178	11113.99
895.357	10667.53
895.537	10556.94
895.716	10057.23
895.896	10618.38
896.075	11021.83
896.255	10520.07
896.434	10339.85
896.614	11034.11
896.793	11128.32
896.973	10751.49
897.152	10522.12
897.331	10802.69
897.511	10939.91
897.69	10190.35
897.87	10653.19
898.049	10720.78
898.228	10372.62
898.407	10505.74
898.587	10380.81
898.766	10520.07
898.945	10837.51
899.124	10350.09
899.304	10384.91
899.483	10647.05
899.662	10835.46
899.841	10171.92
900.02	10135.06
900.199	10774.02
900.378	10763.78
900.557	10346
900.737	10272.27
900.916	10827.27
901.095	10677.77
901.274	10464.78
901.453	10118.67
901.632	10188.3
901.811	10114.58
901.989	10321.42
902.168	9997.84
902.347	10475.02
902.526	10108.43
902.705	10071.57
902.884	10171.92
903.063	10731.01
903.242	10503.69
903.42	9674.26
903.599	10114.58
903.778	10624.52
903.957	10792.45
904.135	10352.14
904.314	10145.3
904.493	10409.48
904.672	10419.72
904.85	10014.23
905.029	9928.21
905.207	10292.75
905.386	10866.18
905.565	9881.11
905.743	9881.11
905.922	9883.16
906.1	10253.84
906.279	9649.69
906.457	9793.05
906.636	10100.24
906.814	9917.97
906.993	9711.13
907.171	9799.19
907.35	10010.13
907.528	10489.35
907.707	10243.6
907.885	9883.16
908.063	10401.29
908.242	9772.57
908.42	9848.34
908.598	9676.31
908.777	9823.76
908.955	9836.05
909.133	9702.93
909.311	9391.64
909.49	9590.3
909.668	9561.62
909.846	9412.12
910.024	9190.94
910.202	9664.02
910.38	9709.08
910.559	9156.13
910.737	9242.14
910.915	9692.69
911.093	9614.87
911.271	9616.92
911.449	9834
911.627	9412.12
911.805	9866.77
911.983	9422.36
912.161	9217.57
912.339	9596.44
912.517	9987.6
912.695	9377.31
912.872	9344.54
913.05	9233.95
913.228	9309.72
913.406	9195.04
913.584	9158.17
913.762	9444.89
913.939	8969.76
914.117	9082.4
914.295	8889.89
914.473	9561.62
914.65	9455.13
914.828	8883.75
915.006	9033.25
915.184	8728.1
915.361	9244.19
915.539	9113.12
915.716	8961.57
915.894	9127.46
916.072	9233.95
916.249	8900.13
916.427	8936.99
916.604	8850.98
916.782	9121.31
916.959	8826.4
917.137	8846.88
917.314	9084.45
917.492	8969.76
917.669	8619.56
917.847	8709.67
918.024	8832.55
918.201	8605.22
918.379	8605.22
918.556	8580.65
918.733	8869.41
918.911	8644.13
919.088	8812.07
919.265	8611.37
919.442	8746.53
919.62	8498.73
919.797	8353.32
919.974	8496.68
920.151	8670.76
920.328	8578.6
920.506	8388.14
920.683	8572.46
920.86	8275.5
921.037	8312.36
921.214	8314.41
921.391	8252.97
921.568	8648.23
921.745	8431.15
921.922	8134.19
922.099	7956.02
922.276	8613.42
922.453	8320.56
922.63	8121.9
922.807	8308.27
922.984	8130.09
923.161	7996.98
923.338	8011.31
923.514	7687.73
923.691	8054.32
923.868	7999.02
924.045	7751.22
924.222	7874.1
924.399	8054.32
924.575	8085.04
924.752	8078.9
924.929	7906.87
925.105	8074.8
925.282	7679.54
925.459	7802.42
925.635	7718.45
925.812	7902.77
925.989	7509.56
926.165	7654.97
926.342	7444.03
926.518	7450.17
926.695	7390.78
926.871	7425.59
927.048	7018.05
927.224	7679.54
927.401	7407.16
927.577	7210.56
927.754	7153.21
927.93	7622.2
928.107	7628.34
928.283	7173.69
928.459	7140.93
928.636	7657.01
928.812	7206.46
928.988	7071.29
929.165	7142.97
929.341	7243.32
929.517	7116.35
929.693	7202.36
929.87	6901.31
930.046	7280.19
930.222	6942.27
930.398	6864.45
930.574	6870.59
930.751	7181.89
930.927	7005.76
931.103	6929.98
931.279	6651.46
931.455	6778.44
931.631	6786.63
931.807	6530.63
931.983	6446.66
932.159	6415.94
932.335	6708.8
932.511	6700.61
932.687	6602.31
932.863	6725.19
933.039	6549.06
933.215	6340.17
933.391	6143.56
933.566	6469.19
933.742	6297.16
933.918	6178.38
934.094	5731.92
934.27	6266.44
934.445	6225.48
934.621	6037.07
934.797	5885.52
934.973	6366.79
935.148	6082.13
935.324	5547.61
935.5	5441.11
935.675	5985.87
935.851	5774.93
936.027	5607
936.202	5424.73
936.378	5584.47
936.553	5459.54
936.729	5570.13
936.904	5031.52
937.08	4996.7
937.255	4937.31
937.431	4814.43
937.606	4599.4
937.782	4724.32
937.957	4890.21
938.133	4652.64
938.308	4535.91
938.483	4562.53
938.659	4443.75
938.834	4372.07
939.009	4304.49
939.185	4402.79
939.36	4163.18
939.535	3757.68
939.71	4134.51
939.886	4396.65
940.061	4357.74
940.236	3972.72
940.411	3950.19
940.586	4216.43
940.761	4034.16
940.937	3810.93
941.112	3618.42
941.287	3978.86
941.462	3806.83
941.637	3503.73
941.812	3673.71
941.987	3716.72
942.162	3751.54
942.337	3593.84
942.512	3532.4
942.687	3761.78
942.862	3626.61
943.037	3212.92
943.212	3124.86
943.386	3460.73
943.561	3649.14
943.736	3391.09
943.911	3614.32
944.086	3704.43
944.26	3522.16
944.435	3292.79
944.61	3391.09
944.785	3819.12
944.959	3790.45
945.134	3425.91
945.309	3151.48
945.483	3251.83
945.658	3634.8
945.833	3085.95
946.007	3051.13
946.182	3792.5
946.357	3106.43
946.531	3239.55
946.706	3247.74
946.88	2934.4
947.055	3307.13
947.229	3212.92
947.404	3059.32
947.578	3563.12
947.752	3188.35
947.927	3231.35
948.101	3090.04
948.276	3325.56
948.45	3382.9
948.624	3206.78
948.799	3057.28
948.973	3376.76
949.147	3227.26
949.321	3325.56
949.496	3145.34
949.67	3526.26
949.844	3235.45
950.018	3174.01
950.193	3114.62
950.367	3769.97
950.541	3255.93
950.715	3323.51
950.889	3288.7
951.063	3505.78
951.237	3423.86
951.411	3073.66
951.585	3004.03
951.759	3346.04
951.933	3210.87
952.107	3139.19
952.281	3329.66
952.455	3733.11
952.629	3495.54
952.803	3016.32
952.977	3114.62
953.151	3444.34
953.325	3415.67
953.499	3288.7
953.672	3112.57
953.846	2973.31
954.02	3282.55
954.194	2954.88
954.368	3024.51
954.541	3532.4
954.715	3118.72
954.889	3288.7
955.062	3114.62
955.236	3354.23
955.41	3313.27
955.583	3335.8
955.757	2883.2
955.93	3139.19
956.104	3044.99
956.278	3040.89
956.451	3079.8
956.625	3384.95
956.798	3653.23
956.972	3417.72
957.145	3077.76
957.319	3223.16
957.492	3198.59
957.665	3174.01
957.839	3055.23
958.012	3393.14
958.185	3030.65
958.359	3141.24
958.532	3264.12
958.705	3651.19
958.879	3278.46
959.052	3032.7
959.225	2860.67
959.398	3040.89
959.572	3325.56
959.745	3051.13
959.918	3143.29
960.091	3088
960.264	3319.42
960.438	2770.56
960.611	2901.63
960.784	3487.35
960.957	2987.65
961.13	3315.32
961.303	2793.09
961.476	3071.61
961.649	3473.01
961.822	2938.49
961.995	3098.24
962.168	3368.57
962.341	3196.54
962.514	3012.22
962.686	2801.28
962.859	3143.29
963.032	3286.65
963.205	2961.02
963.378	2786.94
963.551	3182.2
963.723	3206.78
963.896	3083.9
964.069	3100.28
964.242	3065.47
964.414	3174.01
964.587	2905.73
964.76	3081.85
964.932	3192.44
965.105	3014.27
965.278	2983.55
965.45	2803.33
965.623	3030.65
965.795	3274.36
965.968	2942.59
966.14	2877.05
966.313	2961.02
966.485	3186.3
966.658	2862.72
966.83	2674.31
967.003	3300.98
967.175	3221.11
967.348	2721.41
967.52	2922.11
967.692	3348.09
967.865	3042.94
968.037	2803.33
968.209	2913.92
968.382	2918.01
968.554	3083.9
968.726	2764.42
968.898	2840.19
969.071	3055.23
969.243	3143.29
969.415	2832
969.587	2909.82
969.759	3532.4
969.932	3151.48
970.104	2862.72
970.276	2520.71
970.448	2866.81
970.62	2745.98
970.792	2838.14
970.964	2870.91
971.136	3384.95
971.308	2987.65
971.48	2612.87
971.652	2700.93
971.824	3288.7
971.996	2739.84
972.168	2651.78
972.339	2756.22
972.511	3110.52
972.683	2678.4
972.855	2877.05
973.027	2590.34
973.199	2782.85
973.37	2805.38
973.542	2666.11
973.714	2834.05
973.886	2877.05
974.057	2973.31
974.229	2356.87
974.401	2571.91
974.572	2551.43
974.744	2256.52
974.915	2623.11
975.087	2475.65
975.259	3174.01
975.43	2690.69
975.602	2657.92
975.773	2469.51
975.945	2686.59
976.116	2909.82
976.288	2514.56
976.459	2778.75
976.63	2659.97
976.802	2778.75
976.973	2440.84
977.145	2600.58
977.316	3116.67
977.487	2610.82
977.659	2637.44
977.83	2637.44
978.001	2983.55
978.172	2659.97
978.344	2590.34
978.515	2674.31
978.686	2616.96
978.857	3083.9
979.028	2616.96
979.2	2533
979.371	2967.17
979.542	2702.98
979.713	2594.44
979.884	2029.2
980.055	2385.54
980.226	2643.59
980.397	2514.56
980.568	2311.82
980.739	2991.74
980.91	2461.32
981.081	2561.67
981.252	2371.21
981.423	2770.56
981.594	2741.89
981.765	2393.73
981.936	2522.76
982.106	2690.69
982.277	2776.7
982.448	2381.45
982.619	2465.41
982.79	2395.78
982.96	2745.98
983.131	2406.02
983.302	2168.46
983.472	2344.58
983.643	2682.5
983.814	2475.65
983.984	2414.21
984.155	2461.32
984.326	2827.9
984.496	2348.68
984.667	2229.9
984.837	2258.57
985.008	2741.89
985.178	2440.84
985.349	2360.97
985.519	2500.23
985.69	2305.67
985.86	2238.09
986.031	2127.5
986.201	2539.14
986.371	2680.45
986.542	2170.51
986.712	2059.92
986.882	2526.85
987.053	2504.32
987.223	2104.97
987.393	2320.01
987.563	2231.94
987.734	2504.32
987.904	2524.8
988.074	2154.12
988.244	2410.12
988.414	2250.38
988.585	2158.22
988.755	2199.18
988.925	2262.66
989.095	2637.44
989.265	2154.12
989.435	2205.32
989.605	2496.13
989.775	2467.46
989.945	2367.11
990.115	1885.84
990.285	2268.81
990.455	2375.3
990.625	2174.6
990.795	2131.59
990.965	2543.24
991.134	2023.05
991.304	2049.68
991.474	2100.87
991.644	2375.3
991.814	2643.59
991.984	1887.89
992.153	2004.62
992.323	2045.58
992.493	2129.55
992.662	1879.69
992.832	2156.17
993.002	2248.33
993.171	2328.2
993.341	1846.93
993.511	2078.35
993.68	2012.81
993.85	2266.76
994.019	1787.54
994.189	1791.63
994.358	2182.79
994.528	2002.57
994.697	1689.23
994.867	1767.06
995.036	2322.06
995.206	2068.11
995.375	1873.55
995.544	1980.04
995.714	2068.11
995.883	1941.13
996.052	1861.26
996.222	1613.46
996.391	2713.22
996.56	2123.4
996.73	1744.53
996.899	1678.99
997.068	2434.69
997.237	2043.53
997.406	1930.89
997.576	1851.02
997.745	2117.26
997.914	2045.58
998.083	1541.78
998.252	1801.87
998.421	1963.66
998.59	1834.64
998.759	1750.67
998.928	1570.45
999.097	2272.9
999.266	2084.49
999.435	1957.52
999.604	1695.38
999.773	2559.62
999.942	1877.65
1000.111	1609.36
1000.28	1599.12
1000.448	1717.9
1000.617	1670.8
1000.786	1828.49
1000.955	1519.25
1001.124	1990.28
1001.292	2600.58
1001.461	1541.78
1001.63	1592.98
1001.798	2303.62
1001.967	2172.55
1002.136	1568.4
1002.304	1513.11
1002.473	1908.37
1002.642	1787.54
1002.81	1756.82
1002.979	1416.85
1003.147	1947.28
1003.316	2377.35
1003.484	1572.5
1003.653	1572.5
1003.821	2072.2
1003.99	1803.92
1004.158	1676.95
1004.327	1722
1004.495	1945.23
1004.663	1552.02
1004.832	1707.66
1005	1461.91
1005.168	1914.51
1005.337	1695.38
1005.505	1470.1
1005.673	1629.84
1005.842	1785.49
1006.01	1881.74
1006.178	1420.95
1006.346	1371.8
1006.514	1664.66
1006.683	1877.65
1006.851	1429.14
1007.019	1357.46
1007.187	1541.78
1007.355	1199.77
1007.523	1240.73
1007.691	1283.74
1007.859	1476.24
1008.027	1969.8
1008.195	1494.68
1008.363	1267.35
1008.531	1844.88
1008.699	1509.01
1008.867	1246.87
1009.035	1318.55
1009.203	1812.11
1009.37	1568.4
1009.538	1271.45
1009.706	1738.38
1009.874	1611.41
1010.042	1466
1010.209	1148.57
1010.377	1183.38
1010.545	1760.91
1010.713	1586.83
1010.88	1246.87
1011.048	1361.56
1011.216	1351.32
1011.383	1908.37
1011.551	1193.62
1011.718	1148.57
1011.886	1814.16
1012.054	1459.86
1012.221	1236.63
1012.389	1164.95
1012.556	1382.04
1012.724	1887.89
1012.891	1361.56
1013.058	1058.46
1013.226	1457.81
1013.393	1648.27
1013.561	986.78
1013.728	1115.8
1013.895	1689.23
1014.063	1539.73
1014.23	1042.07
1014.397	1095.32
1014.565	1642.13
1014.732	1414.81
1014.899	1177.24
1015.066	1044.12
1015.233	1502.87
1015.401	1529.49
1015.568	1195.67
1015.735	1234.58
1015.902	1414.81
1016.069	1515.16
1016.236	1154.71
1016.403	982.68
1016.57	1201.82
1016.737	1662.61
1016.904	1197.72
1017.071	1007.26
1017.238	1126.04
1017.405	1576.59
1017.572	1066.65
1017.739	1318.55
1017.906	1447.57
1018.073	1533.59
1018.24	958.11
1018.407	1107.61
1018.573	1435.28
1018.74	1316.5
1018.907	1060.51
1019.074	902.81
1019.241	1601.17
1019.407	1330.84
1019.574	1027.74
1019.741	849.57
1019.907	1463.96
1020.074	1453.72
1020.241	820.89
1020.407	859.81
1020.574	1341.08
1020.74	1355.41
1020.907	954.01
1021.073	915.1
1021.24	1662.61
1021.406	1586.83
1021.573	898.72
1021.739	956.06
1021.906	1359.51
1022.072	1189.53
1022.239	927.39
1022.405	923.29
1022.571	1138.33
1022.738	1052.31
1022.904	843.42
1023.07	894.62
1023.237	1115.8
1023.403	1334.93
1023.569	878.24
1023.735	911
1023.902	1232.54
1024.068	1275.54
1024.234	886.43
1024.4	857.76
1024.566	1271.45
1024.732	1320.6
1024.898	921.24
1025.065	794.27
1025.231	1279.64
1025.397	1134.23
1025.563	863.9
1025.729	804.51
1025.895	671.39
1026.061	890.53
1026.227	659.1
1026.392	841.37
1026.558	1406.61
1026.724	1199.77
1026.89	839.33
1027.056	923.29
1027.222	1216.15
1027.388	1083.03
1027.553	771.74
1027.719	747.17
1027.885	1396.37
1028.051	1183.38
1028.216	650.91
1028.382	755.36
1028.548	1158.81
1028.713	913.05
1028.879	718.5
1029.045	927.39
1029.21	1455.76
1029.376	1246.87
1029.541	779.93
1029.707	837.28
1029.873	1189.53
1030.038	1179.29
1030.204	640.67
1030.369	868
1030.534	1250.97
1030.7	900.76
1030.865	714.4
1031.031	626.34
1031.196	1101.47
1031.361	1083.03
1031.527	691.87
1031.692	597.67
1031.857	552.61
1032.023	1197.72
1032.188	548.51
1032.353	712.35
1032.518	1365.65
1032.684	1003.16
1032.849	587.43
1033.014	724.64
1033.179	1179.29
1033.344	992.92
1033.509	757.41
1033.674	644.77
1033.839	1091.23
1034.004	1138.33
1034.17	624.29
1034.335	509.6
1034.5	870.05
1034.664	743.07
1034.829	521.89
1034.994	655.01
1035.159	1048.22
1035.324	1011.36
1035.489	587.43
1035.654	571.04
1035.819	1095.32
1035.984	976.54
1036.148	685.73
1036.313	542.37
1036.478	1189.53
1036.643	753.31
1036.807	485.03
1036.972	464.55
1037.137	1273.5
1037.301	906.91
1037.466	366.25
1037.631	568.99
1037.795	1210.01
1037.96	917.15
1038.124	673.44
1038.289	437.92
1038.454	976.54
1038.618	888.48
1038.783	468.64
1038.947	618.15
1039.111	845.47
1039.276	771.74
1039.44	485.03
1039.605	911
1039.769	816.8
1039.933	759.46
1040.098	497.32
1040.262	775.84
1040.426	968.35
1040.591	984.73
1040.755	478.88
1040.919	495.27
1041.083	868
1041.248	802.46
1041.412	343.72
1041.576	419.49
1041.74	749.22
1041.904	997.02
1042.068	388.77
1042.232	454.31
1042.397	962.2
1042.561	765.6
1042.725	351.91
1042.889	630.43
1043.053	855.71
1043.217	880.29
1043.381	564.9
1043.544	306.85
1043.708	1107.61
1043.872	515.75
1044.036	196.26
1044.2	298.66
1044.364	976.54
1044.528	1138.33
1044.691	3141.24
1044.855	339.62
1045.019	1005.21
1045.183	886.43
1045.346	409.25
1045.51	325.29
1045.674	771.74
1045.837	917.15
1046.001	517.79
1046.165	460.45
1046.328	1240.73
1046.492	849.57
1046.655	515.75
1046.819	356.01
1046.983	595.62
1047.146	841.37
1047.31	403.11
1047.473	241.32
1047.636	667.3
1047.8	458.4
1047.963	439.97
1048.127	304.81
1048.29	470.69
