Data from Ink_Intensity_USB4F045381__130__00130.txt Node

Date: Mon Jul 17 11:19:22 EDT 2023
User: mmckonesweet
Spectrometer: USB4F04538
Trigger mode: 4
Integration Time (sec): 9.000000E-1
Scans to average: 1
Electric dark correction enabled: true
Nonlinearity correction enabled: false
Boxcar width: 0
XAxis mode: Wavelengths
Number of Pixels in Spectrum: 3648
>>>>>Begin Spectral Data<<<<<
345.52	-977.73
345.736	-977.73
345.952	-977.73
346.168	-1014.6
346.384	-971.59
346.6	-113.49
346.816	-277.33
347.032	-183.12
347.248	302.25
347.464	-244.56
347.68	-105.3
347.896	105.64
348.112	367.78
348.328	-148.31
348.544	17.58
348.76	-25.43
348.975	304.29
349.191	-70.48
349.407	-117.59
349.623	54.44
349.839	-31.57
350.055	-80.72
350.27	13.48
350.486	244.9
350.702	300.2
350.918	165.03
351.133	-213.84
351.349	189.61
351.565	347.3
351.781	-197.46
351.996	-9.05
352.212	343.21
352.428	-25.43
352.644	-123.73
352.859	-183.12
353.075	337.06
353.291	160.94
353.506	-66.39
353.722	-187.22
353.938	1.19
354.153	509.09
354.369	119.98
354.584	-236.37
354.8	285.86
355.016	-303.95
355.231	-230.23
355.447	68.78
355.662	179.37
355.878	832.67
356.093	-265.04
356.309	-52.05
356.524	-101.2
356.74	380.07
356.955	-174.93
357.171	-99.16
357.386	240.81
357.602	-152.4
357.817	-80.72
358.033	-183.12
358.248	390.31
358.464	136.36
358.679	-62.29
358.895	-248.66
359.11	54.44
359.325	240.81
359.541	46.25
359.756	-9.05
359.972	-207.7
360.187	165.03
360.402	-187.22
360.618	-78.68
360.833	1035.42
361.048	230.57
361.264	-152.4
361.479	-43.86
361.694	70.83
361.909	181.42
362.125	-172.88
362.34	-90.96
362.555	275.62
362.77	175.27
362.986	-222.03
363.201	-156.5
363.416	171.18
363.631	58.54
363.847	-35.67
364.062	-123.73
364.277	234.66
364.492	167.08
364.707	-140.12
364.922	-310.1
365.138	298.15
365.353	392.36
365.568	-289.62
365.783	-80.72
365.998	167.08
366.213	593.06
366.428	-211.79
366.643	54.44
366.858	199.85
367.073	255.14
367.288	-99.16
367.503	-166.74
367.718	117.93
367.933	382.12
368.148	-242.51
368.363	-27.48
368.578	44.2
368.793	455.84
369.008	-117.59
369.223	-226.13
369.438	193.7
369.653	476.32
369.868	-121.68
370.083	-199.51
370.298	214.18
370.513	494.76
370.728	74.92
370.943	-168.79
371.157	-170.83
371.372	545.95
371.587	-207.7
371.802	-181.07
372.017	89.26
372.232	468.13
372.446	-2.9
372.661	-207.7
372.876	308.39
373.091	212.14
373.306	-41.81
373.52	-320.34
373.735	-121.68
373.95	369.83
374.165	-138.07
374.379	-133.97
374.594	-97.11
374.809	205.99
375.023	119.98
375.238	-158.55
375.453	320.68
375.667	-236.37
375.882	-166.74
376.097	-174.93
376.311	33.96
376.526	87.21
376.741	-248.66
376.955	97.45
377.17	515.23
377.384	574.63
377.599	-64.34
377.813	-193.36
378.028	601.25
378.242	146.6
378.457	-162.64
378.672	-271.19
378.886	138.41
379.101	-41.81
379.315	-289.62
379.53	-148.31
379.744	226.47
379.958	197.8
380.173	-172.88
380.387	-148.31
380.602	146.6
380.816	-41.81
381.031	-148.31
381.245	-166.74
381.459	189.61
381.674	2610.31
381.888	-228.18
382.103	58.54
382.317	-133.97
382.531	541.86
382.746	38.06
382.96	-105.3
383.174	-72.53
383.388	408.74
383.603	54.44
383.817	-232.27
384.031	187.56
384.246	439.46
384.46	79.02
384.674	345.25
384.888	85.16
385.103	99.5
385.317	-256.85
385.531	-76.63
385.745	453.8
385.959	320.68
386.174	-187.22
386.388	-195.41
386.602	81.07
386.816	-93.01
387.03	-144.21
387.244	-72.53
387.458	203.94
387.672	373.92
387.887	-172.88
388.101	-269.14
388.315	320.68
388.529	218.28
388.743	-176.98
388.957	-140.12
389.171	373.92
389.385	-138.07
389.599	-105.3
389.813	140.46
390.027	187.56
390.241	638.11
390.455	-107.35
390.669	-101.2
390.883	-39.76
391.097	494.76
391.311	46.25
391.525	-111.44
391.738	269.48
391.952	181.42
392.166	-50
392.38	-211.79
392.594	283.81
392.808	361.64
393.022	-7
393.236	-90.96
393.449	193.7
393.663	109.74
393.877	-166.74
394.091	-45.91
394.305	31.91
394.518	-140.12
394.732	-252.75
394.946	-39.76
395.16	392.36
395.373	124.07
395.587	-193.36
395.801	-166.74
396.015	330.92
396.228	191.66
396.442	-273.23
396.656	-324.43
396.869	361.64
397.083	437.41
397.297	5.29
397.51	-74.58
397.724	406.69
397.938	111.78
398.151	-232.27
398.365	-156.5
398.578	212.14
398.792	414.88
399.005	-27.48
399.219	-129.88
399.433	244.9
399.646	267.43
399.86	126.12
400.073	-0.85
400.287	257.19
400.5	40.11
400.714	-7
400.927	-150.36
401.141	226.47
401.354	1146.01
401.567	197.8
401.781	-222.03
401.994	306.34
402.208	648.35
402.421	-123.73
402.635	-13.14
402.848	36.01
403.061	269.48
403.275	-23.38
403.488	-170.83
403.701	525.47
403.915	296.1
404.128	50.35
404.341	-95.06
404.555	267.43
404.768	-11.09
404.981	85.16
405.195	-123.73
405.408	484.52
405.621	400.55
405.834	1.19
406.048	-164.69
406.261	478.37
406.474	570.53
406.687	-164.69
406.9	-15.19
407.114	64.68
407.327	160.94
407.54	-236.37
407.753	-236.37
407.966	-142.16
408.179	345.25
408.392	-60.24
408.605	-262.99
408.819	275.62
409.032	201.9
409.245	-197.46
409.458	15.53
409.671	292.01
409.884	246.95
410.097	-88.92
410.31	27.82
410.523	263.33
410.736	-9.05
410.949	-64.34
411.162	-84.82
411.375	425.12
411.588	378.02
411.801	36.01
412.014	-246.61
412.227	44.2
412.44	-43.86
412.653	-273.23
412.865	70.83
413.078	277.67
413.291	249
413.504	-35.67
413.717	-146.26
413.93	279.72
414.143	-154.45
414.356	-121.68
414.568	-238.42
414.781	347.3
414.994	185.51
415.207	-95.06
415.42	-109.4
415.632	310.44
415.845	562.34
416.058	-246.61
416.271	-250.71
416.483	64.68
416.696	677.02
416.909	-162.64
417.121	-156.5
417.334	177.32
417.547	578.72
417.759	-70.48
417.972	-195.41
418.185	-68.44
418.397	289.96
418.61	-131.92
418.823	-174.93
419.035	474.28
419.248	27.82
419.46	-23.38
419.673	19.63
419.885	259.24
420.098	-27.48
420.311	-146.26
420.523	-334.67
420.736	316.58
420.948	132.26
421.161	-76.63
421.373	-320.34
421.586	195.75
421.798	-54.1
422.01	-256.85
422.223	-125.78
422.435	-47.96
422.648	205.99
422.86	-174.93
423.073	-162.64
423.285	425.12
423.497	-166.74
423.71	-168.79
423.922	-138.07
424.134	189.61
424.347	406.69
424.559	64.68
424.771	165.03
424.984	62.63
425.196	205.99
425.408	-301.9
425.621	-191.31
425.833	263.33
426.045	425.12
426.257	-211.79
426.47	-117.59
426.682	177.32
426.894	197.8
427.106	-107.35
427.318	-76.63
427.531	-27.48
427.743	277.67
427.955	-195.41
428.167	304.29
428.379	263.33
428.591	-2.9
428.804	-27.48
429.016	-156.5
429.228	-68.44
429.44	214.18
429.652	46.25
429.864	-271.19
430.076	-27.48
430.288	21.67
430.5	-78.68
430.712	-76.63
430.924	330.92
431.136	111.78
431.348	-283.47
431.56	-189.27
431.772	70.83
431.984	31.91
432.196	-215.89
432.408	-162.64
432.62	27.82
432.832	220.33
433.044	60.59
433.256	-68.44
433.468	255.14
433.679	-232.27
433.891	-246.61
434.103	1.19
434.315	496.8
434.527	269.48
434.739	-17.24
434.95	-148.31
435.162	351.4
435.374	-7
435.586	-133.97
435.798	-121.68
436.009	-213.84
436.221	70.83
436.433	-213.84
436.645	-133.97
436.856	-60.24
437.068	306.34
437.28	-136.02
437.491	185.51
437.703	210.09
437.915	115.88
438.126	-166.74
438.338	169.13
438.55	87.21
438.761	320.68
438.973	-101.2
439.184	-84.82
439.396	38.06
439.608	249
439.819	-166.74
440.031	-82.77
440.242	267.43
440.454	292.01
440.665	-70.48
440.877	-43.86
441.088	191.66
441.3	23.72
441.511	-267.09
441.723	-181.07
441.934	216.23
442.146	79.02
442.357	46.25
442.569	130.22
442.78	111.78
442.991	472.23
443.203	169.13
443.414	-189.27
443.626	433.32
443.837	-72.53
444.048	-226.13
444.26	-277.33
444.471	142.5
444.682	244.9
444.894	-310.1
445.105	-189.27
445.316	306.34
445.528	216.23
445.739	-50
445.95	-82.77
446.161	210.09
446.373	367.78
446.584	-56.15
446.795	-43.86
447.006	382.12
447.217	451.75
447.429	-306
447.64	-240.47
447.851	287.91
448.062	138.41
448.273	-254.8
448.484	-179.03
448.695	218.28
448.907	36.01
449.118	-25.43
449.329	76.97
449.54	-23.38
449.751	-93.01
449.962	-207.7
450.173	-262.99
450.384	392.36
450.595	404.64
450.806	-107.35
451.017	-183.12
451.228	418.98
451.439	390.31
451.65	-80.72
451.861	-312.14
452.072	-23.38
452.283	76.97
452.494	29.87
452.705	-193.36
452.915	449.7
453.126	265.38
453.337	-140.12
453.548	-254.8
453.759	359.59
453.97	560.29
454.181	107.69
454.391	-7
454.602	142.5
454.813	210.09
455.024	-39.76
455.235	-191.31
455.445	109.74
455.656	175.27
455.867	7.34
456.078	-150.36
456.288	124.07
456.499	177.32
456.71	-230.23
456.921	105.64
457.131	160.94
457.342	158.89
457.553	-138.07
457.763	-146.26
457.974	218.28
458.184	390.31
458.395	-318.29
458.606	-205.65
458.816	312.49
459.027	584.87
459.237	-7
459.448	-359.25
459.659	455.84
459.869	705.7
460.08	-260.95
460.29	-64.34
460.501	554.15
460.711	50.35
460.922	-172.88
461.132	-150.36
461.343	779.42
461.553	-203.6
461.764	-195.41
461.974	-185.17
462.184	363.69
462.395	148.65
462.605	-93.01
462.816	-150.36
463.026	111.78
463.236	474.28
463.447	-170.83
463.657	-93.01
463.867	281.77
464.078	89.26
464.288	-88.92
464.498	-191.31
464.709	99.5
464.919	146.6
465.129	-72.53
465.339	-209.75
465.55	205.99
465.76	345.25
465.97	-45.91
466.18	-207.7
466.391	300.2
466.601	181.42
466.811	-72.53
467.021	-252.75
467.231	183.46
467.441	478.37
467.651	-93.01
467.862	-418.64
468.072	68.78
468.282	378.02
468.492	-140.12
468.702	-35.67
468.912	95.4
469.122	652.45
469.332	33.96
469.542	-172.88
469.752	263.33
469.962	156.84
470.172	-256.85
470.382	-199.51
470.592	343.21
470.802	492.71
471.012	-17.24
471.222	-166.74
471.432	337.06
471.642	328.87
471.852	-82.77
472.062	-185.17
472.272	144.55
472.482	-45.91
472.691	-262.99
472.901	-236.37
473.111	251.05
473.321	652.45
473.531	-187.22
473.741	-140.12
473.95	232.62
474.16	373.92
474.37	-70.48
474.58	-191.31
474.79	531.62
474.999	431.27
475.209	-281.43
475.419	-97.11
475.628	15.53
475.838	427.17
476.048	-84.82
476.258	-215.89
476.467	382.12
476.677	-19.29
476.886	48.3
477.096	25.77
477.306	17.58
477.515	527.52
477.725	-88.92
477.935	-64.34
478.144	351.4
478.354	-11.09
478.563	-82.77
478.773	-140.12
478.982	425.12
479.192	468.13
479.401	-37.72
479.611	-236.37
479.82	-27.48
480.03	179.37
480.239	-234.32
480.449	-222.03
480.658	572.58
480.868	15.53
481.077	-7
481.287	-117.59
481.496	255.14
481.705	541.86
481.915	128.17
482.124	146.6
482.333	240.81
482.543	507.04
482.752	-45.91
482.961	-52.05
483.171	365.73
483.38	169.13
483.589	36.01
483.799	-90.96
484.008	158.89
484.217	337.06
484.426	1.19
484.636	-148.31
484.845	289.96
485.054	-133.97
485.263	279.72
485.472	17.58
485.682	611.49
485.891	226.47
486.1	-295.76
486.309	-76.63
486.518	320.68
486.727	447.65
486.936	-166.74
487.146	-58.2
487.355	492.71
487.564	-56.15
487.773	-21.33
487.982	-84.82
488.191	117.93
488.4	210.09
488.609	-41.81
488.818	-43.86
489.027	806.05
489.236	582.82
489.445	-66.39
489.654	-43.86
489.863	488.61
490.072	234.66
490.281	210.09
490.49	-43.86
490.698	611.49
490.907	677.02
491.116	46.25
491.325	-129.88
491.534	509.09
491.743	304.29
491.952	17.58
492.16	50.35
492.369	394.4
492.578	486.56
492.787	31.91
492.996	-131.92
493.204	91.31
493.413	677.02
493.622	-158.55
493.831	-222.03
494.039	541.86
494.248	11.43
494.457	-37.72
494.665	-109.4
494.874	433.32
495.083	730.27
495.291	97.45
495.5	-103.25
495.709	418.98
495.917	294.05
496.126	103.59
496.335	-43.86
496.543	97.45
496.752	355.49
496.96	160.94
497.169	-107.35
497.377	271.53
497.586	447.65
497.794	74.92
498.003	-121.68
498.211	191.66
498.42	656.54
498.628	105.64
498.837	-0.85
499.045	353.45
499.254	292.01
499.462	60.59
499.671	1.19
499.879	695.46
500.087	554.15
500.296	1.19
500.504	107.69
500.713	418.98
500.921	771.23
501.129	-58.2
501.338	-15.19
501.546	345.25
501.754	308.39
501.962	83.11
502.171	66.73
502.379	437.41
502.587	832.67
502.795	93.35
503.004	130.22
503.212	322.73
503.42	521.38
503.628	7.34
503.837	187.56
504.045	470.18
504.253	779.42
504.461	60.59
504.669	-86.87
504.877	476.32
505.085	650.4
505.294	-93.01
505.502	179.37
505.71	289.96
505.918	521.38
506.126	-50
506.334	50.35
506.542	349.35
506.75	361.64
506.958	212.14
507.166	68.78
507.374	267.43
507.582	726.18
507.79	68.78
507.998	-56.15
508.206	486.56
508.414	474.28
508.622	-19.29
508.83	46.25
509.037	701.6
509.245	320.68
509.453	-60.24
509.661	-27.48
509.869	576.67
510.077	197.8
510.285	197.8
510.492	-133.97
510.7	881.82
510.908	261.29
511.116	113.83
511.324	111.78
511.531	269.48
511.739	392.36
511.947	294.05
512.155	382.12
512.362	392.36
512.57	126.12
512.778	58.54
512.985	-68.44
513.193	627.87
513.401	746.66
513.608	140.46
513.816	76.97
514.024	513.19
514.231	726.18
514.439	128.17
514.646	140.46
514.854	582.82
515.061	595.11
515.269	64.68
515.477	167.08
515.684	263.33
515.892	562.34
516.099	-41.81
516.307	-19.29
516.514	582.82
516.722	844.96
516.929	124.07
517.136	115.88
517.344	728.22
517.551	482.47
517.759	167.08
517.966	205.99
518.173	410.79
518.381	437.41
518.588	251.05
518.796	56.49
519.003	595.11
519.21	378.02
519.418	146.6
519.625	445.6
519.832	535.71
520.039	490.66
520.247	9.39
520.454	152.74
520.661	703.65
520.868	648.35
521.076	191.66
521.283	355.49
521.49	1070.23
521.697	652.45
521.904	242.85
522.112	283.81
522.319	578.72
522.526	595.11
522.733	74.92
522.94	128.17
523.147	515.23
523.354	672.93
523.561	87.21
523.768	332.97
523.975	767.13
524.183	595.11
524.39	294.05
524.597	144.55
524.804	613.54
525.011	378.02
525.218	222.38
525.425	160.94
525.632	953.5
525.838	285.86
526.045	212.14
526.252	265.38
526.459	1701.01
526.666	1459.35
526.873	181.42
527.08	347.3
527.287	902.3
527.494	795.81
527.701	183.46
527.907	261.29
528.114	699.55
528.321	529.57
528.528	392.36
528.735	234.66
528.941	517.28
529.148	425.12
529.355	390.31
529.562	246.95
529.768	959.64
529.975	509.09
530.182	369.83
530.388	210.09
530.595	824.48
530.802	388.26
531.008	478.37
531.215	365.73
531.422	992.41
531.628	1334.42
531.835	394.4
532.042	447.65
532.248	511.14
532.455	715.94
532.661	361.64
532.868	300.2
533.074	693.41
533.281	890.01
533.487	361.64
533.694	320.68
533.9	421.03
534.107	799.9
534.313	273.57
534.52	205.99
534.726	912.54
534.933	1174.68
535.139	375.97
535.345	228.52
535.552	717.98
535.758	806.05
535.965	488.61
536.171	459.94
536.377	910.49
536.584	1045.66
536.79	386.21
536.996	504.99
537.203	730.27
537.409	820.38
537.615	515.23
537.821	500.9
538.028	834.72
538.234	883.87
538.44	431.27
538.646	439.46
538.853	804
539.059	658.59
539.265	871.58
539.471	171.18
539.677	939.16
539.883	689.31
540.09	351.4
540.296	881.82
540.502	752.8
540.708	644.26
540.914	631.97
541.12	529.57
541.326	914.59
541.532	744.61
541.738	586.91
541.944	597.15
542.15	933.02
542.356	744.61
542.562	418.98
542.768	599.2
542.974	1322.13
543.18	1377.43
543.386	539.81
543.592	310.44
543.798	1113.24
544.004	1088.67
544.21	478.37
544.415	574.63
544.621	881.82
544.827	1111.19
545.033	443.56
545.239	734.37
545.445	619.68
545.651	959.64
545.856	554.15
546.062	543.91
546.268	834.72
546.474	775.33
546.679	566.43
546.885	670.88
547.091	804
547.297	1391.77
547.502	677.02
547.708	398.5
547.914	668.83
548.119	973.98
548.325	539.81
548.531	457.89
548.736	1221.78
548.942	631.97
549.147	617.63
549.353	894.11
549.559	1178.78
549.764	1045.66
549.97	578.72
550.175	631.97
550.381	1039.51
550.586	785.57
550.792	693.41
550.997	701.6
551.203	1027.23
551.408	1078.43
551.614	566.43
551.819	685.22
552.025	1438.87
552.23	1471.64
552.435	656.54
552.641	910.49
552.846	779.42
553.052	1242.26
553.257	810.14
553.462	783.52
553.668	849.05
553.873	1236.12
554.078	697.5
554.283	646.3
554.489	1100.95
554.694	953.5
554.899	670.88
555.105	914.59
555.31	1172.63
555.515	1199.26
555.72	863.39
555.925	650.4
556.131	1332.37
556.336	892.06
556.541	746.66
556.746	685.22
556.951	1488.02
557.156	1488.02
557.361	988.32
557.567	859.29
557.772	1582.23
557.977	1301.65
558.182	728.22
558.387	775.33
558.592	1004.7
558.797	1430.68
559.002	826.53
559.207	894.11
559.412	1066.14
559.617	1561.75
559.822	808.09
560.027	810.14
560.232	1197.21
560.437	1389.72
560.642	660.64
560.847	773.28
561.051	1186.97
561.256	1166.49
561.461	943.26
561.666	685.22
561.871	1236.12
562.076	1279.13
562.281	1070.23
562.485	890.01
562.69	1397.91
562.895	1363.09
563.1	963.74
563.305	826.53
563.509	1459.35
563.714	1733.78
563.919	967.84
564.123	832.67
564.328	1111.19
564.533	1457.3
564.737	1027.23
564.942	867.49
565.147	1584.27
565.351	1721.49
565.556	1080.47
565.761	916.64
565.965	1272.98
566.17	1033.37
566.374	953.5
566.579	775.33
566.784	1422.48
566.988	1109.15
567.193	844.96
567.397	947.36
567.602	1053.85
567.806	1252.5
568.011	951.45
568.215	996.51
568.42	1201.3
568.624	1197.21
568.828	1074.33
569.033	1100.95
569.237	1488.02
569.442	1557.65
569.646	861.34
569.85	1062.04
570.055	1254.55
570.259	1528.98
570.463	1397.91
570.668	1066.14
570.872	1272.98
571.076	1254.55
571.281	1115.29
571.485	1143.96
571.689	1422.48
571.893	1537.17
572.098	1143.96
572.302	1096.86
572.506	1555.6
572.71	1406.1
572.914	1113.24
573.119	1160.34
573.323	1651.86
573.527	1778.83
573.731	1139.87
573.935	1139.87
574.139	1488.02
574.343	1287.32
574.547	1043.61
574.751	1215.64
574.955	1795.22
575.159	1766.54
575.364	1137.82
575.568	1055.9
575.772	1481.88
575.976	1760.4
576.18	1088.67
576.383	1086.62
576.587	1858.7
576.791	1645.71
576.995	1053.85
577.199	1115.29
577.403	1705.1
577.607	1821.84
577.811	1197.21
578.015	1209.5
578.219	1651.86
578.422	1709.2
578.626	1332.37
578.83	1508.5
579.034	1926.29
579.238	1571.99
579.442	1148.06
579.645	1698.96
579.849	1516.69
580.053	1619.09
580.257	1373.33
580.46	1406.1
580.664	1830.03
580.868	1801.36
581.071	1453.2
581.275	1500.31
581.479	1340.57
581.682	1758.35
581.886	1367.19
582.09	1488.02
582.293	1854.61
582.497	1883.28
582.7	1551.51
582.904	1305.75
583.107	1705.1
583.311	1688.72
583.515	1418.39
583.718	1453.2
583.922	1801.36
584.125	2233.48
584.329	1307.8
584.532	1660.05
584.735	1969.29
584.939	1778.83
585.142	1426.58
585.346	1442.96
585.549	1887.37
585.753	1576.08
585.956	1436.82
586.159	1750.16
586.363	2221.19
586.566	1873.04
586.769	1338.52
586.973	1406.1
587.176	1907.85
587.379	2090.12
587.582	1787.02
587.786	1596.56
587.989	1830.03
588.192	2346.12
588.395	1672.34
588.599	2036.88
588.802	2028.68
589.005	2010.25
589.208	1463.44
589.411	1483.92
589.615	2213
589.818	2129.03
590.021	1774.74
590.224	1832.08
590.427	2165.9
590.63	2081.93
590.833	1442.96
591.036	1483.92
591.239	1770.64
591.442	1733.78
591.645	1836.17
591.848	1578.13
592.051	1997.96
592.254	2268.3
592.457	1774.74
592.66	1645.71
592.863	1936.53
593.066	2065.55
593.269	1668.24
593.472	1873.04
593.675	1774.74
593.878	2241.67
594.081	1889.42
594.284	1606.8
594.486	2149.51
594.689	2049.16
594.892	1940.62
595.095	1866.89
595.298	2151.56
595.5	1950.86
595.703	1922.19
595.906	1942.67
596.109	2325.64
596.311	2288.78
596.514	1590.42
596.717	1928.33
596.92	2376.84
597.122	2321.54
597.325	1574.03
597.528	1766.54
597.73	2481.28
597.933	2219.14
598.136	1799.31
598.338	1672.34
598.541	2217.1
598.743	2430.09
598.946	1950.86
599.148	1942.67
599.351	2546.82
599.554	2413.7
599.756	2045.07
599.959	2104.46
600.161	2380.93
600.363	2804.86
600.566	2225.29
600.768	1877.13
600.971	2729.09
601.173	2387.08
601.376	1983.63
601.578	1942.67
601.78	2282.63
601.983	2856.06
602.185	2020.49
602.388	2141.32
602.59	2358.41
602.792	2143.37
602.995	2149.51
603.197	2112.65
603.399	2579.59
603.601	2434.18
603.804	2053.26
604.006	2065.55
604.208	2331.78
604.41	1930.38
604.613	2401.41
604.815	2114.7
605.017	2923.65
605.219	2256.01
605.421	2542.72
605.623	2163.85
605.826	2614.4
606.028	2694.27
606.23	2186.38
606.432	2225.29
606.634	2866.3
606.836	2692.23
607.038	2090.12
607.24	2299.02
607.442	2610.31
607.644	2464.9
607.846	2290.82
608.048	2055.31
608.25	2636.93
608.452	2395.27
608.654	2284.68
608.856	1893.52
609.058	2477.19
609.26	2604.16
609.462	2350.21
609.664	2276.49
609.866	2915.45
610.067	2829.44
610.269	2405.51
610.471	2282.63
610.673	2446.47
610.875	2649.22
611.077	2086.03
611.278	2378.89
611.48	2643.07
611.682	3011.71
611.884	2391.17
612.085	2460.81
612.287	2430.09
612.489	2745.47
612.69	2198.67
612.892	2436.23
613.094	2851.97
613.295	2708.61
613.497	2352.26
613.699	2405.51
613.9	2999.42
614.102	2899.07
614.304	2428.04
614.505	2190.47
614.707	2528.39
614.908	2667.65
615.11	2172.04
615.311	2409.61
615.513	2958.46
615.714	2976.89
615.916	2319.5
616.117	2507.91
616.319	2651.27
616.52	3026.04
616.722	2317.45
616.923	2462.85
617.124	2966.65
617.326	2892.93
617.527	2507.91
617.729	2741.38
617.93	2948.22
618.131	2985.09
618.333	2342.02
618.534	2632.83
618.735	2651.27
618.937	3204.22
619.138	2507.91
619.339	2471.04
619.54	2825.34
619.742	2870.4
619.943	2694.27
620.144	2604.16
620.345	3087.48
620.546	2972.8
620.748	2550.92
620.949	2600.07
621.15	2911.36
621.351	2985.09
621.552	2509.96
621.753	2432.13
621.954	2520.2
622.155	3349.62
622.356	2604.16
622.558	2878.59
622.759	2991.23
622.96	3345.53
623.161	2768
623.362	2614.4
623.563	2802.82
623.764	2954.37
623.965	2497.67
624.166	2901.12
624.366	2872.45
624.567	3005.56
624.768	2339.97
624.969	2702.47
625.17	3114.11
625.371	3105.92
625.572	2866.3
625.773	2759.81
625.973	3167.35
626.174	3030.14
626.375	2778.24
626.576	2724.99
626.777	3198.07
626.977	3636.34
627.178	2774.14
627.379	2970.75
627.58	3038.33
627.78	2954.37
627.981	2886.78
628.182	3052.67
628.382	3187.83
628.583	2770.05
628.784	2757.76
628.984	3107.96
629.185	3329.14
629.386	3273.85
629.586	2849.92
629.787	2788.48
629.987	3390.58
630.188	3075.2
630.388	3009.66
630.589	3007.61
630.79	3769.46
630.99	3159.16
631.191	3001.47
631.391	2966.65
631.591	3333.24
631.792	3544.18
631.992	3107.96
632.193	3060.86
632.393	3626.1
632.594	3406.97
632.794	2839.68
632.994	3120.25
633.195	3247.23
633.395	3275.9
633.595	2970.75
633.796	3255.42
633.996	3112.06
634.196	3695.73
634.397	2811.01
634.597	3169.4
634.797	3198.07
634.997	3685.49
635.198	3374.2
635.398	2825.34
635.598	3304.57
635.798	3785.84
635.998	3503.22
636.199	3064.96
636.399	3378.3
636.599	3169.4
636.799	3167.35
636.999	3349.62
637.199	3531.89
637.399	3560.56
637.599	3114.11
637.799	3312.76
637.999	3232.89
638.199	3744.88
638.399	3034.24
638.599	3259.51
638.799	3626.1
638.999	3921.01
639.199	3316.86
639.399	3392.63
639.599	3773.55
639.799	3310.71
639.999	3140.73
640.199	3241.08
640.399	3579
640.599	3662.96
640.799	3372.15
640.998	3388.53
641.198	3759.22
641.398	3847.28
641.598	3462.26
641.798	3347.58
641.997	4551.78
642.197	3626.1
642.397	3529.84
642.597	3437.69
642.796	3751.03
642.996	3916.91
643.196	3568.76
643.395	3226.75
643.595	3867.76
643.795	3169.4
643.994	3363.96
644.194	3511.41
644.394	3957.87
644.593	3863.66
644.793	3214.46
644.992	3656.82
645.192	3834.99
645.392	3320.95
645.591	3544.18
645.791	3585.14
645.99	3902.58
646.19	3718.26
646.389	3568.76
646.589	3570.8
646.788	4025.45
646.987	4025.45
647.187	3810.42
647.386	3685.49
647.586	3812.46
647.785	4045.93
647.984	3689.59
648.184	3585.14
648.383	3572.85
648.582	3785.84
648.782	3742.83
648.981	3662.96
649.18	3566.71
649.38	4002.93
649.579	3654.77
649.778	3605.62
649.977	4037.74
650.177	3904.62
650.376	3650.67
650.575	3585.14
650.774	4338.79
650.973	3740.79
651.173	3486.84
651.372	3708.02
651.571	4043.88
651.77	4201.58
651.969	3800.18
652.168	3787.89
652.367	3794.03
652.566	4060.27
652.765	3646.58
652.964	4181.1
653.163	4531.3
653.362	3994.73
653.561	3810.42
653.76	3744.88
653.959	3896.43
654.158	4183.15
654.357	4039.79
654.556	3869.81
654.755	4220.01
654.954	4140.14
655.153	3931.25
655.352	3957.87
655.551	4521.06
655.749	3959.92
655.948	3892.34
656.147	4189.29
656.346	4177
656.545	4117.61
656.743	4125.8
656.942	4148.33
657.141	4144.24
657.34	3951.73
657.538	3941.49
657.737	3961.97
657.936	4230.25
658.135	4183.15
658.333	3916.91
658.532	4232.3
658.731	4519.01
658.929	4457.57
659.128	4162.67
659.326	3908.72
659.525	4326.5
659.724	4301.93
659.922	3875.95
660.121	3865.71
660.319	4455.53
660.518	4023.41
660.716	4093.04
660.915	3859.57
661.113	4531.3
661.312	4129.9
661.51	4238.44
661.709	4033.65
661.907	4439.14
662.105	4648.04
662.304	4041.84
662.502	4279.4
662.701	4834.4
662.899	4433
663.097	4465.77
663.296	3898.48
663.494	4602.98
663.692	4732
663.891	4103.28
664.089	3966.06
664.287	4541.54
664.485	4744.29
664.684	4084.84
664.882	4346.98
665.08	4564.07
665.278	4576.36
665.476	4086.89
665.675	4488.29
665.873	5063.77
666.071	4596.84
666.269	4224.11
666.467	4430.95
666.665	4500.58
666.863	4445.29
667.061	4576.36
667.259	4109.42
667.457	4541.54
667.655	4748.39
667.853	4103.28
668.051	4408.42
668.249	4500.58
668.447	4582.5
668.645	4177
668.843	4519.01
669.041	4699.23
669.239	4508.77
669.437	4451.43
669.635	4471.91
669.833	4551.78
670.031	4713.57
670.229	4484.2
670.426	4441.19
670.624	4435.05
670.822	4555.88
671.02	4412.52
671.218	4547.69
671.415	4455.53
671.613	4678.76
671.811	4535.4
672.009	4453.48
672.206	4766.82
672.404	4641.89
672.602	4711.52
672.799	4643.94
672.997	4863.07
673.195	4969.57
673.392	4635.75
673.59	4308.07
673.788	4846.69
673.985	4117.61
674.183	4674.66
674.38	4596.84
674.578	5018.72
674.775	4541.54
674.973	4314.22
675.17	4506.73
675.368	5071.97
675.565	4867.17
675.763	4502.63
675.96	4471.91
676.158	5153.88
676.355	4645.99
676.553	4510.82
676.75	4605.03
676.947	4824.16
677.145	4854.88
677.342	4762.72
677.539	4701.28
677.737	5004.38
677.934	5334.11
678.131	4623.46
678.329	4605.03
678.526	5174.36
678.723	4926.56
678.92	4670.56
679.118	4551.78
679.315	4594.79
679.512	5117.02
679.709	4512.87
679.906	4412.52
680.104	5160.03
680.301	4949.09
680.498	4527.21
680.695	4506.73
680.892	4789.35
681.089	4650.08
681.286	4734.05
681.483	4543.59
681.68	5016.67
681.877	5012.57
682.075	4625.51
682.272	4981.85
682.469	5010.53
682.665	4789.35
682.862	4621.41
683.059	4490.34
683.256	5061.73
683.453	5123.16
683.65	4889.7
683.847	4699.23
684.044	5014.62
684.241	4674.66
684.438	4826.21
684.635	4545.64
684.831	5287
685.028	5510.23
685.225	4623.46
685.422	4744.29
685.619	4977.76
685.815	5031.01
686.012	4828.26
686.209	4598.88
686.405	4711.52
686.602	5170.27
686.799	4697.19
686.996	4752.48
687.192	4717.67
687.389	5524.57
687.586	4803.68
687.782	4914.27
687.979	5416.02
688.175	5358.68
688.372	4920.42
688.568	4748.39
688.765	4758.63
688.962	5459.03
689.158	4910.18
689.355	4691.04
689.551	5280.86
689.748	4912.22
689.944	4924.51
690.14	4584.55
690.337	5280.86
690.533	5086.3
690.73	5100.64
690.926	5143.64
691.123	5065.82
691.319	5084.25
691.515	4676.71
691.712	4992.09
691.908	5186.65
692.104	5178.46
692.301	5334.11
692.497	4910.18
692.693	5432.41
692.889	5422.17
693.086	5100.64
693.282	4885.6
693.478	5196.89
693.674	5657.68
693.87	5063.77
694.067	4914.27
694.263	5125.21
694.459	5135.45
694.655	5186.65
694.851	5170.27
695.047	5133.4
695.243	5493.85
695.439	5031.01
695.635	4953.18
695.831	5495.89
696.027	5270.62
696.224	4965.47
696.42	5172.32
696.615	5590.1
696.811	5381.21
697.007	4861.02
697.203	4947.04
697.399	5305.43
697.595	5614.68
697.791	4809.83
697.987	5157.98
698.183	5018.72
698.379	5198.94
698.575	5035.1
698.77	5043.29
698.966	5487.7
699.162	5463.13
699.358	5043.29
699.554	5127.26
699.749	5540.95
699.945	5579.86
700.141	5289.05
700.337	5194.84
700.532	5307.48
700.728	5127.26
700.924	4961.37
701.119	4883.55
701.315	5463.13
701.511	5291.1
701.706	5186.65
701.902	5026.91
702.097	5280.86
702.293	5534.81
702.489	5147.74
702.684	5043.29
702.88	5446.74
703.075	5387.35
703.271	5174.36
703.466	5090.4
703.662	5330.01
703.857	5469.27
704.053	5194.84
704.248	5082.21
704.443	5596.25
704.639	5590.1
704.834	5141.6
705.03	5203.04
705.225	5565.53
705.42	5696.6
705.616	5309.53
705.811	4936.8
706.006	5397.59
706.202	5221.47
706.397	5450.84
706.592	5139.55
706.787	5387.35
706.983	5596.25
707.178	5487.7
707.373	5301.34
707.568	5674.07
707.763	5604.44
707.959	5200.99
708.154	5266.52
708.349	5413.98
708.544	5598.29
708.739	5493.85
708.934	5090.4
709.129	5635.16
709.324	5624.92
709.519	5139.55
709.714	5182.56
709.909	5811.28
710.104	5567.57
710.299	5229.66
710.494	5444.7
710.689	5672.02
710.884	5536.85
711.079	5387.35
711.274	5645.4
711.469	5715.03
711.664	5602.39
711.859	5291.1
712.054	5497.94
712.249	5784.66
712.443	5796.95
712.638	5327.96
712.833	5252.19
713.028	5448.79
713.223	5315.67
713.417	5567.57
713.612	5299.29
713.807	5715.03
714.002	6118.48
714.196	5608.53
714.391	5198.94
714.586	5811.28
714.78	5643.35
714.975	5430.36
715.17	5160.03
715.364	5645.4
715.559	5968.98
715.754	5047.39
715.948	5235.8
716.143	6054.99
716.337	5606.49
716.532	5647.44
716.726	5309.53
716.921	5786.71
717.115	6005.84
717.31	5176.41
717.504	5903.44
717.699	5743.7
717.893	5860.43
718.088	5325.91
718.282	5297.24
718.476	5596.25
718.671	5684.31
718.865	5338.2
719.059	5473.37
719.254	5481.56
719.448	5971.02
719.642	6577.22
719.837	5162.08
720.031	5747.79
720.225	5755.99
720.419	5454.94
720.614	5416.02
720.808	5842
721.002	5583.96
721.196	5434.46
721.39	5336.15
721.585	5919.82
721.779	5602.39
721.973	5405.78
722.167	5291.1
722.361	5682.26
722.555	5866.58
722.749	5354.58
722.943	5422.17
723.137	5424.22
723.331	5706.84
723.525	5399.64
723.719	5418.07
723.913	5807.19
724.107	6054.99
724.301	5125.21
724.495	5420.12
724.689	5995.6
724.883	5854.29
725.077	5573.72
725.271	5418.07
725.465	5991.5
725.659	5704.79
725.853	5497.94
726.046	5354.58
726.24	5669.97
726.434	5907.54
726.628	5153.88
726.822	5516.37
727.015	5975.12
727.209	6059.09
727.403	5590.1
727.596	5186.65
727.79	5968.98
727.984	5932.11
728.177	5438.55
728.371	5543
728.565	5891.15
728.758	5594.2
728.952	5377.11
729.146	5448.79
729.339	6001.74
729.533	5704.79
729.726	5530.71
729.92	5246.04
730.113	6106.19
730.307	5751.89
730.5	5606.49
730.694	5436.5
730.887	5852.24
731.081	5985.36
731.274	5520.47
731.468	5608.53
731.661	5770.32
731.854	5749.84
732.048	5598.29
732.241	5559.38
732.435	5624.92
732.628	5850.19
732.821	5545.05
733.014	5573.72
733.208	5579.86
733.401	5950.54
733.594	5694.55
733.788	5436.5
733.981	6237.26
734.174	5966.93
734.367	5602.39
734.56	5794.9
734.754	6167.63
734.947	6048.85
735.14	5602.39
735.333	5968.98
735.526	6141
735.719	5850.19
735.912	5755.99
736.105	5655.64
736.298	6046.8
736.491	5903.44
736.684	5602.39
736.877	5600.34
737.07	6112.33
737.263	6251.6
737.456	5796.95
737.649	5715.03
737.842	5815.38
738.035	5987.41
738.228	5862.48
738.421	5755.99
738.614	6210.64
738.807	6227.02
739	5610.58
739.192	5506.13
739.385	6065.23
739.578	5950.54
739.771	6011.98
739.964	5647.44
740.156	6206.54
740.349	5878.86
740.542	5999.7
740.735	5678.16
740.927	6034.51
741.12	5915.73
741.313	5606.49
741.505	5831.76
741.698	6095.95
741.891	6259.79
742.083	6026.32
742.276	5801.04
742.468	5950.54
742.661	6059.09
742.854	5805.14
743.046	5821.52
743.239	6386.76
743.431	5958.74
743.624	5942.35
743.816	5620.82
744.009	5979.22
744.201	6298.7
744.393	6014.03
744.586	5708.88
744.778	6345.8
744.971	5979.22
745.163	5842
745.355	6003.79
745.548	6061.13
745.74	6093.9
745.932	5946.45
746.125	5862.48
746.317	6632.52
746.509	6061.13
746.702	5837.91
746.894	6149.2
747.086	6241.36
747.278	6304.84
747.471	5946.45
747.663	5897.3
747.855	6224.97
748.047	6538.31
748.239	5870.67
748.431	5731.41
748.623	6569.03
748.815	6415.43
749.008	5901.39
749.2	5794.9
749.392	6251.6
749.584	6347.85
749.776	6071.37
749.968	5930.06
750.16	6736.96
750.352	5983.31
750.544	5891.15
750.736	5901.39
750.928	6290.51
751.12	6059.09
751.311	5909.58
751.503	6034.51
751.695	6237.26
751.887	6339.66
752.079	5766.23
752.271	5958.74
752.463	6884.42
752.654	6372.43
752.846	5893.2
753.038	5870.67
753.23	6028.37
753.421	6489.16
753.613	5815.38
753.805	6239.31
753.997	6435.91
754.188	6427.72
754.38	5821.52
754.572	6044.75
754.763	6130.77
754.955	6415.43
755.146	5919.82
755.338	5811.28
755.53	6155.34
755.721	6116.43
755.913	5815.38
756.104	5944.4
756.296	6151.24
756.487	6466.63
756.679	5649.49
756.87	5919.82
757.062	6077.52
757.253	6128.72
757.445	5938.26
757.636	6134.86
757.827	6206.54
758.019	6865.99
758.21	5706.84
758.401	5921.87
758.593	6884.42
758.784	6607.94
758.975	5717.08
759.167	5776.47
759.358	6270.03
759.549	6347.85
759.74	5801.04
759.932	5944.4
760.123	6462.54
760.314	6071.37
760.505	6016.08
760.696	5911.63
760.888	6659.14
761.079	5964.88
761.27	5893.2
761.461	5872.72
761.652	6446.15
761.843	6034.51
762.034	6044.75
762.225	6165.58
762.416	6116.43
762.607	6200.4
762.798	5923.92
762.989	5925.97
763.18	6972.48
763.371	6098
763.562	5942.35
763.753	5796.95
763.944	6519.88
764.135	6353.99
764.326	5960.78
764.517	5880.91
764.708	6132.81
764.899	6347.85
765.089	5903.44
765.28	5811.28
765.471	6124.62
765.662	6474.82
765.853	5872.72
766.043	5788.75
766.234	6349.9
766.425	6433.86
766.615	5989.46
766.806	5784.66
766.997	6521.93
767.187	6034.51
767.378	5823.57
767.569	5674.07
767.759	6388.81
767.95	6059.09
768.141	5792.85
768.331	5925.97
768.522	6050.89
768.712	6302.79
768.903	5735.51
769.093	5760.08
769.284	6452.3
769.474	6190.16
769.665	5708.88
769.855	5753.94
770.046	6308.94
770.236	5928.02
770.426	6067.28
770.617	5667.92
770.807	6155.34
770.998	6120.53
771.188	6138.96
771.378	5694.55
771.569	6370.38
771.759	6353.99
771.949	5575.77
772.139	5540.95
772.33	6198.35
772.52	6431.82
772.71	5774.42
772.9	5547.09
773.09	6290.51
773.281	6571.08
773.471	5860.43
773.661	5715.03
773.851	6231.12
774.041	5807.19
774.231	5792.85
774.421	5952.59
774.611	6468.68
774.802	6120.53
774.992	5780.56
775.182	5749.84
775.372	5979.22
775.562	6161.48
775.752	5700.69
775.942	5717.08
776.131	6304.84
776.321	6313.03
776.511	5626.96
776.701	5686.36
776.891	6278.22
777.081	5831.76
777.271	5770.32
777.461	6050.89
777.651	6200.4
777.84	6261.84
778.03	5919.82
778.22	5755.99
778.41	6347.85
778.599	5676.12
778.789	5780.56
778.979	5846.1
779.169	6204.49
779.358	5956.69
779.548	6100.05
779.738	5512.28
779.927	6063.18
780.117	5899.34
780.307	5753.94
780.496	5543
780.686	6251.6
780.875	6454.34
781.065	5639.25
781.254	5676.12
781.444	6067.28
781.633	6093.9
781.823	5674.07
782.012	5461.08
782.202	5930.06
782.391	5772.37
782.581	5727.32
782.77	5878.86
782.96	6237.26
783.149	5839.95
783.338	5792.85
783.528	5493.85
783.717	6181.96
783.906	6190.16
784.096	5923.92
784.285	5534.81
784.474	5715.03
784.663	5702.74
784.853	5778.51
785.042	5725.27
785.231	5948.5
785.42	6202.44
785.61	5932.11
785.799	5626.96
785.988	5682.26
786.177	5811.28
786.366	5694.55
786.555	5928.02
786.744	6116.43
786.933	5983.31
787.122	5532.76
787.312	5440.6
787.501	5833.81
787.69	6132.81
787.879	5745.75
788.068	5565.53
788.257	5592.15
788.445	5733.46
788.634	5770.32
788.823	5588.05
789.012	6544.45
789.201	6161.48
789.39	5751.89
789.579	5567.57
789.768	6046.8
789.957	6102.09
790.145	5557.33
790.334	5524.57
790.523	5762.13
790.712	5921.87
790.9	5526.61
791.089	5543
791.278	6114.38
791.467	5944.4
791.655	5956.69
791.844	6161.48
792.033	5821.52
792.221	5674.07
792.41	5790.8
792.599	5514.33
792.787	6071.37
792.976	6042.7
793.164	5463.13
793.353	5676.12
793.541	6044.75
793.73	6110.29
793.918	5663.83
794.107	5569.62
794.295	5825.62
794.484	5973.07
794.672	5618.77
794.861	5629.01
795.049	5977.17
795.238	6261.84
795.426	5459.03
795.614	5833.81
795.803	5895.25
795.991	6216.78
796.179	5586.01
796.368	5647.44
796.556	6102.09
796.744	5749.84
796.932	5559.38
797.121	5440.6
797.309	5817.43
797.497	6009.93
797.685	5631.06
797.874	5629.01
798.062	5850.19
798.25	6261.84
798.438	5659.73
798.626	5794.9
798.814	6147.15
799.002	6511.69
799.19	5874.77
799.378	5657.68
799.566	6153.29
799.755	6274.12
799.943	5661.78
800.131	5674.07
800.318	5944.4
800.506	5948.5
800.694	5620.82
800.882	5788.75
801.07	6239.31
801.258	5850.19
801.446	5665.88
801.634	5653.59
801.822	5854.29
802.01	6114.38
802.197	5717.08
802.385	5944.4
802.573	6141
802.761	5940.3
802.949	5833.81
803.136	5641.3
803.324	6169.68
803.512	5977.17
803.699	5682.26
803.887	5661.78
804.075	6259.79
804.262	5919.82
804.45	5571.67
804.638	5788.75
804.825	5938.26
805.013	5944.4
805.201	5878.86
805.388	5680.21
805.576	6134.86
805.763	6663.24
805.951	5837.91
806.138	6130.77
806.326	6689.86
806.513	6206.54
806.701	6007.89
806.888	5852.24
807.075	6353.99
807.263	6659.14
807.45	5702.74
807.638	6020.17
807.825	6749.25
808.012	6329.42
808.2	6034.51
808.387	6235.21
808.574	6319.18
808.761	6493.26
808.949	5962.83
809.136	6020.17
809.323	6087.76
809.51	6173.77
809.698	6300.75
809.885	6095.95
810.072	6204.49
810.259	6714.44
810.446	5993.55
810.633	5936.21
810.82	6771.78
811.008	6577.22
811.195	6235.21
811.382	6134.86
811.569	6257.74
811.756	5872.72
811.943	6192.2
812.13	5993.55
812.317	6343.75
812.504	6263.88
812.691	6300.75
812.878	6134.86
813.064	6693.96
813.251	6421.58
813.438	5981.26
813.625	6286.41
813.812	6224.97
813.999	6394.95
814.186	6149.2
814.372	6196.3
814.559	6411.34
814.746	6685.76
814.933	6048.85
815.12	6339.66
815.306	6325.32
815.493	6245.45
815.68	6106.19
815.866	6032.46
816.053	6734.92
816.24	6878.27
816.426	6327.37
816.613	6128.72
816.799	6421.58
816.986	6794.31
817.173	6392.91
817.359	6034.51
817.546	6405.19
817.732	6165.58
817.919	5948.5
818.105	6216.78
818.292	6358.09
818.478	6425.67
818.665	6272.07
818.851	6282.31
819.037	6896.71
819.224	6571.08
819.41	6046.8
819.597	6171.72
819.783	6808.64
819.969	6507.59
820.156	6272.07
820.342	6120.53
820.528	7164.99
820.714	6349.9
820.901	6362.19
821.087	6194.25
821.273	6923.33
821.459	6403.14
821.646	6091.85
821.832	6106.19
822.018	6501.45
822.204	6405.19
822.39	6249.55
822.576	6229.07
822.762	6509.64
822.948	6509.64
823.134	6210.64
823.32	6081.61
823.507	6165.58
823.693	6442.06
823.879	6370.38
824.065	6120.53
824.25	6612.04
824.436	6349.9
824.622	6122.57
824.808	6186.06
824.994	6177.87
825.18	6001.74
825.366	6179.92
825.552	6085.71
825.738	6415.43
825.923	6788.16
826.109	6464.58
826.295	6147.15
826.481	6157.39
826.667	6325.32
826.852	6212.68
827.038	6157.39
827.224	6732.87
827.409	6845.51
827.595	5854.29
827.781	6124.62
827.966	6739.01
828.152	6548.55
828.338	6263.88
828.523	5944.4
828.709	6196.3
828.894	6665.28
829.08	6050.89
829.266	6106.19
829.451	6222.92
829.637	6429.77
829.822	6124.62
830.008	5948.5
830.193	6720.58
830.378	6859.84
830.564	6206.54
830.749	5968.98
830.935	6511.69
831.12	6509.64
831.305	6028.37
831.491	6141
831.676	6157.39
831.861	6513.74
832.047	6071.37
832.232	6026.32
832.417	6640.71
832.602	6497.35
832.788	5911.63
832.973	5932.11
833.158	6108.24
833.343	6274.12
833.528	6102.09
833.714	6120.53
833.899	6394.95
834.084	6771.78
834.269	6306.89
834.454	6046.8
834.639	6435.91
834.824	6368.33
835.009	6130.77
835.194	6128.72
835.379	6493.26
835.564	6509.64
835.749	6069.33
835.934	5885.01
836.119	6429.77
836.304	6370.38
836.489	6054.99
836.674	6224.97
836.859	6110.29
837.044	6601.8
837.228	6085.71
837.413	5770.32
837.598	6286.41
837.783	6378.57
837.968	5944.4
838.152	5823.57
838.337	5557.33
838.522	6556.74
838.707	6345.8
838.891	6184.01
839.076	6298.7
839.261	6603.85
839.445	6063.18
839.63	6181.96
839.815	6513.74
839.999	6251.6
840.184	5913.68
840.368	6003.79
840.553	6472.78
840.737	6233.16
840.922	5917.78
841.106	5758.03
841.291	5755.99
841.475	6077.52
841.66	5858.39
841.844	5831.76
842.029	6786.12
842.213	5880.91
842.397	5891.15
842.582	5700.69
842.766	6343.75
842.951	6382.67
843.135	5936.21
843.319	5940.3
843.504	6351.95
843.688	6448.2
843.872	5721.17
844.056	5708.88
844.241	6159.44
844.425	6087.76
844.609	6071.37
844.793	5706.84
844.977	6208.59
845.161	6124.62
845.346	5518.42
845.53	5856.34
845.714	6024.27
845.898	6392.91
846.082	5698.64
846.266	5842
846.45	6224.97
846.634	6054.99
846.818	5835.86
847.002	5952.59
847.186	6108.24
847.37	5743.7
847.554	5559.38
847.738	5770.32
847.922	6245.45
848.106	6141
848.29	5594.2
848.473	5698.64
848.657	6210.64
848.841	6026.32
849.025	5829.71
849.209	5356.63
849.392	6192.2
849.576	5964.88
849.76	5477.46
849.944	5968.98
850.127	6368.33
850.311	5590.1
850.495	5555.29
850.678	5606.49
850.862	6255.69
851.046	6313.03
851.229	5852.24
851.413	5567.57
851.596	6067.28
851.78	5905.49
851.964	5805.14
852.147	5751.89
852.331	6730.82
852.514	6233.16
852.698	5758.03
852.881	5452.89
853.065	6046.8
853.248	5897.3
853.431	5618.77
853.615	5665.88
853.798	6302.79
853.982	5979.22
854.165	5833.81
854.348	5600.34
854.532	5626.96
854.715	5688.4
854.898	5586.01
855.081	5659.73
855.265	6349.9
855.448	6308.94
855.631	5504.09
855.814	5622.87
855.997	6081.61
856.181	5710.93
856.364	5463.13
856.547	5493.85
856.73	5956.69
856.913	5796.95
857.096	5473.37
857.279	5739.6
857.462	5698.64
857.645	6132.81
857.828	5647.44
858.011	5710.93
858.194	5602.39
858.377	6132.81
858.56	5385.3
858.743	5547.09
858.926	5608.53
859.109	5897.3
859.292	5479.51
859.475	5399.64
859.658	5993.55
859.841	5889.1
860.023	5239.9
860.206	5461.08
860.389	5928.02
860.572	6200.4
860.755	5545.05
860.937	5424.22
861.12	5633.11
861.303	5825.62
861.486	5373.02
861.668	5131.36
861.851	5723.22
862.034	5688.4
862.216	5467.22
862.399	5139.55
862.581	5602.39
862.764	5833.81
862.947	5407.83
863.129	5375.06
863.312	5454.94
863.494	6046.8
863.677	5399.64
863.859	5182.56
864.042	5915.73
864.224	5966.93
864.406	5303.39
864.589	5243.99
864.771	5641.3
864.954	5196.89
865.136	5315.67
865.318	4990.05
865.501	5831.76
865.683	5272.67
865.865	5233.75
866.048	5172.32
866.23	5551.19
866.412	5438.55
866.594	5114.97
866.777	5354.58
866.959	5633.11
867.141	5520.47
867.323	5407.83
867.505	5663.83
867.687	5545.05
867.869	5555.29
868.052	5125.21
868.234	5258.33
868.416	5483.61
868.598	5782.61
868.78	5098.59
868.962	5205.08
869.144	5928.02
869.326	5672.02
869.508	5301.34
869.69	5139.55
869.872	5354.58
870.054	5721.17
870.236	4879.46
870.417	5108.83
870.599	5471.32
870.781	5839.95
870.963	5407.83
871.145	5045.34
871.327	5303.39
871.508	5770.32
871.69	5233.75
871.872	5200.99
872.054	5330.01
872.235	5579.86
872.417	5256.28
872.599	5217.37
872.78	5805.14
872.962	5657.68
873.144	5110.88
873.325	5442.65
873.507	5860.43
873.689	5538.9
873.87	5014.62
874.052	5268.57
874.233	5323.87
874.415	5735.51
874.596	5330.01
874.778	5143.64
874.959	5456.98
875.141	5745.75
875.322	5321.82
875.503	5151.84
875.685	5626.96
875.866	5383.26
876.048	5145.69
876.229	4973.66
876.41	5547.09
876.592	5629.01
876.773	5309.53
876.954	5157.98
877.136	5747.79
877.317	5348.44
877.498	5219.42
877.679	5379.16
877.86	5635.16
878.042	5319.77
878.223	5303.39
878.404	5659.73
878.585	5807.19
878.766	6249.55
878.947	5592.15
879.128	5424.22
879.309	5946.45
879.49	5864.53
879.672	5538.9
879.853	5323.87
880.034	5512.28
880.215	5719.12
880.396	5641.3
880.576	5426.26
880.757	5508.18
880.938	6126.67
881.119	5403.74
881.3	5506.13
881.481	5557.33
881.662	6554.69
881.843	5452.89
882.023	5338.2
882.204	5989.46
882.385	5876.82
882.566	5614.68
882.747	5522.52
882.927	5655.64
883.108	5932.11
883.289	5559.38
883.469	5559.38
883.65	5844.05
883.831	5938.26
884.011	5807.19
884.192	5471.32
884.373	6073.42
884.553	6005.84
884.734	5719.12
884.914	5952.59
885.095	6575.17
885.275	6216.78
885.456	5913.68
885.636	5332.06
885.817	5905.49
885.997	5958.74
886.178	5674.07
886.358	5676.12
886.538	6034.51
886.719	6974.53
886.899	5766.23
887.08	5727.32
887.26	6171.72
887.44	5913.68
887.621	5680.21
887.801	5663.83
887.981	6487.11
888.161	6227.02
888.342	5878.86
888.522	5909.58
888.702	6411.34
888.882	6327.37
889.062	6026.32
889.242	5659.73
889.423	6476.87
889.603	6263.88
889.783	6118.48
889.963	5684.31
890.143	6280.27
890.323	6276.17
890.503	5911.63
890.683	5885.01
890.863	6040.65
891.043	6321.23
891.223	6046.8
891.403	6063.18
891.583	6298.7
891.763	6181.96
891.943	6011.98
892.122	5901.39
892.302	6184.01
892.482	6159.44
892.662	6018.13
892.842	6026.32
893.022	6229.07
893.201	6077.52
893.381	6085.71
893.561	5889.1
893.741	6456.39
893.92	6206.54
894.1	6108.24
894.28	6184.01
894.459	6538.31
894.639	6501.45
894.819	5925.97
894.998	6063.18
895.178	6411.34
895.357	6310.99
895.537	6085.71
895.716	5923.92
895.896	6435.91
896.075	6700.1
896.255	5934.16
896.434	5827.67
896.614	6429.77
896.793	6704.2
896.973	6134.86
897.152	6206.54
897.331	6292.55
897.511	6560.84
897.69	5870.67
897.87	6126.67
898.049	6521.93
898.228	6315.08
898.407	6192.2
898.587	6280.27
898.766	6327.37
898.945	6392.91
899.124	6257.74
899.304	6091.85
899.483	6413.38
899.662	6687.81
899.841	6112.33
900.02	5887.06
900.199	6556.74
900.378	6276.17
900.557	5905.49
900.737	5835.86
900.916	6325.32
901.095	6499.4
901.274	6208.59
901.453	5837.91
901.632	6075.47
901.811	5944.4
901.989	5829.71
902.168	5911.63
902.347	6358.09
902.526	6048.85
902.705	5880.91
902.884	5952.59
903.063	6638.66
903.242	6487.11
903.42	5788.75
903.599	6034.51
903.778	6437.96
903.957	6554.69
904.135	6104.14
904.314	5751.89
904.493	6405.19
904.672	6274.12
904.85	5798.99
905.029	5852.24
905.207	6247.5
905.386	6816.83
905.565	5612.63
905.743	5932.11
905.922	5782.61
906.1	6235.21
906.279	5661.78
906.457	5747.79
906.636	6122.57
906.814	6014.03
906.993	5790.8
907.171	5829.71
907.35	6323.27
907.528	6282.31
907.707	6116.43
907.885	5692.5
908.063	6460.49
908.242	5731.41
908.42	5708.88
908.598	5606.49
908.777	6143.05
908.955	5842
909.133	5846.1
909.311	5485.65
909.49	6079.57
909.668	5997.65
909.846	5817.43
910.024	5483.61
910.202	5973.07
910.38	6022.22
910.559	5452.89
910.737	5473.37
910.915	6005.84
911.093	6014.03
911.271	5606.49
911.449	5629.01
911.627	5923.92
911.805	6382.67
911.983	5432.41
912.161	5450.84
912.339	6020.17
912.517	6290.51
912.695	5721.17
912.872	5549.14
913.05	5459.03
913.228	5776.47
913.406	5436.5
913.584	5370.97
913.762	5751.89
913.939	5461.08
914.117	5454.94
914.295	5323.87
914.473	5794.9
914.65	5672.02
914.828	5432.41
915.006	5223.51
915.184	5669.97
915.361	5631.06
915.539	5430.36
915.716	5518.42
915.894	5731.41
916.072	5770.32
916.249	5545.05
916.427	5563.48
916.604	5241.95
916.782	5792.85
916.959	5131.36
917.137	5149.79
917.314	5704.79
917.492	5641.3
917.669	5272.67
917.847	5332.06
918.024	5553.24
918.201	5250.14
918.379	5370.97
918.556	5262.43
918.733	5549.14
918.911	5352.54
919.088	5301.34
919.265	5047.39
919.442	5401.69
919.62	5397.59
919.797	5018.72
919.974	4981.85
920.151	5332.06
920.328	5317.72
920.506	5037.15
920.683	5250.14
920.86	5035.1
921.037	5174.36
921.214	5014.62
921.391	4922.46
921.568	5399.64
921.745	5172.32
921.922	4912.22
922.099	4791.39
922.276	5315.67
922.453	5248.09
922.63	4887.65
922.807	5135.45
922.984	5174.36
923.161	4815.97
923.338	4856.93
923.514	4725.86
923.691	5018.72
923.868	5125.21
924.045	4682.85
924.222	4678.76
924.399	5049.44
924.575	5074.01
924.752	4854.88
924.929	4830.3
925.105	5119.07
925.282	4684.9
925.459	4676.71
925.635	4623.46
925.812	4928.61
925.989	4676.71
926.165	4551.78
926.342	4418.66
926.518	4553.83
926.695	4756.58
926.871	4492.39
927.048	4533.35
927.224	4965.47
927.401	4535.4
927.577	4549.73
927.754	4498.53
927.93	4944.99
928.107	4883.55
928.283	4443.24
928.459	4613.22
928.636	4920.42
928.812	4543.59
928.988	4369.51
929.165	4238.44
929.341	4369.51
929.517	4523.11
929.693	4660.32
929.87	3978.35
930.046	4553.83
930.222	4336.74
930.398	4283.5
930.574	4289.64
930.751	4576.36
930.927	4353.13
931.103	4023.41
931.279	4217.96
931.455	4301.93
931.631	4480.1
931.807	3880.05
931.983	3929.2
932.159	4150.38
932.335	4121.71
932.511	4187.24
932.687	3994.73
932.863	4252.78
933.039	4232.3
933.215	3841.14
933.391	3644.53
933.566	4029.55
933.742	4011.12
933.918	3699.83
934.094	3601.52
934.27	3929.2
934.445	3951.73
934.621	3785.84
934.797	3619.96
934.973	4129.9
935.148	3867.76
935.324	3447.93
935.5	3355.77
935.675	3824.75
935.851	3867.76
936.027	3294.33
936.202	3206.27
936.378	3794.03
936.553	3411.06
936.729	3697.78
936.904	3208.31
937.08	3034.24
937.255	3206.27
937.431	2964.61
937.606	2901.12
937.782	3064.96
937.957	3357.82
938.133	2919.55
938.308	2772.1
938.483	3005.56
938.659	2813.06
938.834	2794.62
939.009	2729.09
939.185	2765.95
939.36	2503.81
939.535	2319.5
939.71	2663.55
939.886	2978.94
940.061	2897.02
940.236	2593.92
940.411	2518.15
940.586	2845.82
940.761	2872.45
940.937	2432.13
941.112	2337.93
941.287	2700.42
941.462	2473.09
941.637	2120.84
941.812	2307.21
941.987	2538.63
942.162	2434.18
942.337	2274.44
942.512	2169.99
942.687	2618.5
942.862	2608.26
943.037	2094.22
943.212	1957
943.386	2329.74
943.561	2495.62
943.736	2206.86
943.911	2440.33
944.086	2442.37
944.26	2405.51
944.435	2018.44
944.61	2151.56
944.785	2585.73
944.959	2661.51
945.134	2088.07
945.309	2083.98
945.483	2124.94
945.658	2464.9
945.833	1819.79
946.007	1854.61
946.182	2595.97
946.357	2090.12
946.531	1891.47
946.706	2004.11
946.88	1963.15
947.055	2235.53
947.229	1979.53
947.404	1926.29
947.578	2471.04
947.752	2090.12
947.927	1989.77
948.101	1803.41
948.276	2245.77
948.45	2262.15
948.624	2126.99
948.799	2153.61
948.973	2249.86
949.147	2069.64
949.321	2028.68
949.496	2043.02
949.67	2528.39
949.844	2192.52
950.018	1899.66
950.193	1995.92
950.367	2724.99
950.541	2169.99
950.715	2122.89
950.889	2266.25
951.063	2090.12
951.237	2425.99
951.411	1729.68
951.585	1752.21
951.759	2282.63
951.933	2213
952.107	1977.48
952.281	2167.95
952.455	2632.83
952.629	2358.41
952.803	1961.1
952.977	1969.29
953.151	2440.33
953.325	2221.19
953.499	2034.83
953.672	1916.05
953.846	2100.36
954.02	2047.12
954.194	1914
954.368	1942.67
954.541	2440.33
954.715	2157.71
954.889	2086.03
955.062	1899.66
955.236	2122.89
955.41	2157.71
955.583	2151.56
955.757	1711.25
955.93	2110.6
956.104	1907.85
956.278	1911.95
956.451	2040.97
956.625	2356.36
956.798	2659.46
956.972	2233.48
957.145	1911.95
957.319	2235.53
957.492	2253.96
957.665	2053.26
957.839	2049.16
958.012	2333.83
958.185	2194.57
958.359	1983.63
958.532	2065.55
958.705	2389.13
958.879	2360.45
959.052	2065.55
959.225	1776.78
959.398	2104.46
959.572	2223.24
959.745	1936.53
959.918	1997.96
960.091	2102.41
960.264	2311.3
960.438	1762.45
960.611	1883.28
960.784	2485.38
960.957	2073.74
961.13	2290.82
961.303	1868.94
961.476	2213
961.649	2311.3
961.822	1854.61
961.995	1995.92
962.168	2380.93
962.341	2270.34
962.514	1942.67
962.686	1903.76
962.859	2299.02
963.032	2352.26
963.205	1922.19
963.378	1807.5
963.551	2372.74
963.723	2184.33
963.896	2026.64
964.069	2135.18
964.242	2102.41
964.414	2374.79
964.587	2073.74
964.76	2016.4
964.932	2221.19
965.105	2221.19
965.278	1914
965.45	1918.09
965.623	2155.66
965.795	2317.45
965.968	1801.36
966.14	1827.98
966.313	2180.23
966.485	2155.66
966.658	1791.12
966.83	1791.12
967.003	2274.44
967.175	2256.01
967.348	1832.08
967.52	1903.76
967.692	2428.04
967.865	2292.87
968.037	1856.65
968.209	2145.42
968.382	2210.95
968.554	2286.73
968.726	1916.05
968.898	1864.85
969.071	2061.45
969.243	2213
969.415	2061.45
969.587	1909.9
969.759	2503.81
969.932	2174.09
970.104	1782.93
970.276	1578.13
970.448	1911.95
970.62	1873.04
970.792	1854.61
970.964	1899.66
971.136	2368.65
971.308	2110.6
971.48	1768.59
971.652	1799.31
971.824	2405.51
971.996	1834.13
972.168	1766.54
972.339	1852.56
972.511	2206.86
972.683	2002.06
972.855	2045.07
973.027	1827.98
973.199	1989.77
973.37	2221.19
973.542	1965.2
973.714	1889.42
973.886	1959.05
974.057	2141.32
974.229	1631.38
974.401	1729.68
974.572	1809.55
974.744	1582.23
974.915	1674.39
975.087	1653.91
975.259	2421.89
975.43	1815.69
975.602	1770.64
975.773	1576.08
975.945	1705.1
976.116	2131.08
976.288	1647.76
976.459	1789.07
976.63	1873.04
976.802	2086.03
976.973	1653.91
977.145	1907.85
977.316	2299.02
977.487	2233.48
977.659	1899.66
977.83	1631.38
978.001	2323.59
978.172	1922.19
978.344	1672.34
978.515	1686.67
978.686	1844.37
978.857	2237.58
979.028	1698.96
979.2	1610.9
979.371	2256.01
979.542	1909.9
979.713	1885.33
979.884	1193.11
980.055	1660.05
980.226	1746.06
980.397	1612.95
980.568	1569.94
980.739	2026.64
980.91	1834.13
981.081	1893.52
981.252	1438.87
981.423	2086.03
981.594	2094.22
981.765	1516.69
981.936	1643.67
982.106	1868.94
982.277	2067.6
982.448	1479.83
982.619	1682.58
982.79	1688.72
982.96	2016.4
983.131	1715.34
983.302	1391.77
983.472	1684.62
983.643	1860.75
983.814	1711.25
983.984	1592.47
984.155	1778.83
984.326	2036.88
984.496	1811.6
984.667	1520.79
984.837	1729.68
985.008	2047.12
985.178	1713.3
985.349	1571.99
985.519	1735.82
985.69	1744.02
985.86	1578.13
986.031	1451.16
986.201	1813.65
986.371	1860.75
986.542	1356.95
986.712	1262.74
986.882	1889.42
987.053	1909.9
987.223	1385.62
987.393	1676.43
987.563	1660.05
987.734	1701.01
987.904	1817.74
988.074	1449.11
988.244	1799.31
988.414	1660.05
988.585	1410.2
988.755	1514.64
988.925	1643.67
989.095	2034.83
989.265	1375.38
989.435	1514.64
989.605	1852.56
989.775	1834.13
989.945	1670.29
990.115	1213.59
990.285	1672.34
990.455	1612.95
990.625	1574.03
990.795	1326.23
990.965	2086.03
991.134	1340.57
991.304	1399.96
991.474	1379.48
991.644	1709.2
991.814	2102.41
991.984	1260.7
992.153	1309.85
992.323	1539.22
992.493	1612.95
992.662	1078.43
992.832	1666.19
993.002	1653.91
993.171	1645.71
993.341	1213.59
993.511	1481.88
993.68	1445.01
993.85	1748.11
994.019	1154.2
994.189	1277.08
994.358	1567.89
994.528	1496.21
994.697	1055.9
994.867	1119.39
995.036	1795.22
995.206	1531.03
995.375	1168.54
995.544	1371.29
995.714	1701.01
995.883	1465.49
996.052	1459.35
996.222	965.79
996.391	1981.58
996.56	1567.89
996.73	1090.71
996.899	1086.62
997.068	1905.81
997.237	1578.13
997.406	1172.63
997.576	1086.62
997.745	1543.32
997.914	1492.12
998.083	959.64
998.252	1070.23
998.421	1451.16
998.59	1262.74
998.759	1115.29
998.928	1062.04
999.097	1741.97
999.266	1660.05
999.435	1326.23
999.604	945.31
999.773	1916.05
999.942	1432.72
1000.111	941.21
1000.28	939.16
1000.448	1236.12
1000.617	1193.11
1000.786	1307.8
1000.955	1002.65
1001.124	1467.54
1001.292	2110.6
1001.461	1037.47
1001.63	1053.85
1001.798	1748.11
1001.967	1641.62
1002.136	1002.65
1002.304	1066.14
1002.473	1432.72
1002.642	1442.96
1002.81	1031.32
1002.979	1021.08
1003.147	1557.65
1003.316	2020.49
1003.484	1113.24
1003.653	922.78
1003.821	1655.95
1003.99	1410.2
1004.158	1158.3
1004.327	1162.39
1004.495	1420.44
1004.663	1119.39
1004.832	1162.39
1005	963.74
1005.168	1379.48
1005.337	1293.46
1005.505	838.81
1005.673	1123.48
1005.842	1404.05
1006.01	1481.88
1006.178	875.68
1006.346	980.12
1006.514	1352.85
1006.683	1553.55
1006.851	1014.94
1007.019	787.61
1007.187	1103
1007.355	838.81
1007.523	785.57
1007.691	763.04
1007.859	935.07
1008.027	1520.79
1008.195	941.21
1008.363	728.22
1008.531	1404.05
1008.699	1008.8
1008.867	707.74
1009.035	890.01
1009.203	1498.26
1009.37	1266.84
1009.538	918.68
1009.706	1250.46
1009.874	1281.18
1010.042	1178.78
1010.209	851.1
1010.377	847.01
1010.545	1473.68
1010.713	1289.37
1010.88	898.2
1011.048	916.64
1011.216	1154.2
1011.383	1547.41
1011.551	777.37
1011.718	746.66
1011.886	1430.68
1012.054	1170.58
1012.221	754.85
1012.389	695.46
1012.556	1113.24
1012.724	1598.61
1012.891	980.12
1013.058	683.17
1013.226	1205.4
1013.393	1315.99
1013.561	648.35
1013.728	574.63
1013.895	1361.05
1014.063	1219.74
1014.23	636.06
1014.397	634.02
1014.565	1277.08
1014.732	1076.38
1014.899	660.64
1015.066	711.84
1015.233	1203.35
1015.401	1287.32
1015.568	801.95
1015.735	890.01
1015.902	1109.15
1016.069	1254.55
1016.236	652.45
1016.403	652.45
1016.57	828.57
1016.737	1348.76
1016.904	746.66
1017.071	636.06
1017.238	918.68
1017.405	1193.11
1017.572	734.37
1017.739	904.35
1017.906	1135.77
1018.073	1240.22
1018.24	670.88
1018.407	763.04
1018.573	1262.74
1018.74	992.41
1018.907	726.18
1019.074	646.3
1019.241	1291.41
1019.407	965.79
1019.574	666.78
1019.741	591.01
1019.907	1047.71
1020.074	1131.67
1020.241	439.46
1020.407	644.26
1020.574	1086.62
1020.74	1168.54
1020.907	648.35
1021.073	609.44
1021.24	1565.84
1021.406	1238.17
1021.573	523.43
1021.739	597.15
1021.906	1189.02
1022.072	963.74
1022.239	664.74
1022.405	584.87
1022.571	1133.72
1022.738	810.14
1022.904	636.06
1023.07	773.28
1023.237	1000.6
1023.403	1189.02
1023.569	646.3
1023.735	683.17
1023.902	1062.04
1024.068	1014.94
1024.234	431.27
1024.4	582.82
1024.566	1021.08
1024.732	1119.39
1024.898	476.32
1025.065	464.04
1025.231	1113.24
1025.397	793.76
1025.563	588.96
1025.729	476.32
1025.895	433.32
1026.061	689.31
1026.227	347.3
1026.392	644.26
1026.558	1164.44
1026.724	963.74
1026.89	402.6
1027.056	597.15
1027.222	988.32
1027.388	709.79
1027.553	474.28
1027.719	425.12
1027.885	1158.3
1028.051	955.55
1028.216	273.57
1028.382	425.12
1028.548	1146.01
1028.713	760.99
1028.879	373.92
1029.045	621.73
1029.21	1180.82
1029.376	1076.38
1029.541	513.19
1029.707	543.91
1029.873	1023.13
1030.038	988.32
1030.204	402.6
1030.369	468.13
1030.534	1010.84
1030.7	781.47
1030.865	402.6
1031.031	355.49
1031.196	863.39
1031.361	816.29
1031.527	388.26
1031.692	349.35
1031.857	404.64
1032.023	976.03
1032.188	228.52
1032.353	396.45
1032.518	1139.87
1032.684	857.25
1032.849	298.15
1033.014	472.23
1033.179	849.05
1033.344	898.2
1033.509	429.22
1033.674	402.6
1033.839	922.78
1034.004	941.21
1034.17	371.88
1034.335	373.92
1034.5	636.06
1034.664	685.22
1034.829	277.67
1034.994	382.12
1035.159	722.08
1035.324	830.62
1035.489	435.36
1035.654	390.31
1035.819	1029.27
1035.984	717.98
1036.148	445.6
1036.313	357.54
1036.478	967.84
1036.643	738.46
1036.807	287.91
1036.972	251.05
1037.137	1027.23
1037.301	814.24
1037.466	218.28
1037.631	382.12
1037.795	1039.51
1037.96	793.76
1038.124	504.99
1038.289	310.44
1038.454	914.59
1038.618	926.88
1038.783	343.21
1038.947	453.8
1039.111	742.56
1039.276	558.24
1039.44	173.22
1039.605	777.37
1039.769	642.21
1039.933	621.73
1040.098	355.49
1040.262	562.34
1040.426	879.77
1040.591	801.95
1040.755	283.81
1040.919	279.72
1041.083	717.98
1041.248	652.45
1041.412	148.65
1041.576	218.28
1041.74	504.99
1041.904	799.9
1042.068	244.9
1042.232	296.1
1042.397	838.81
1042.561	750.75
1042.725	93.35
1042.889	476.32
1043.053	896.16
1043.217	797.85
1043.381	251.05
1043.544	89.26
1043.708	967.84
1043.872	369.83
1044.036	-27.48
1044.2	132.26
1044.364	1023.13
1044.528	922.78
1044.691	3284.09
1044.855	187.56
1045.019	937.12
1045.183	789.66
1045.346	343.21
1045.51	140.46
1045.674	789.66
1045.837	806.05
1046.001	218.28
1046.165	275.62
1046.328	1143.96
1046.492	828.57
1046.655	418.98
1046.819	416.93
1046.983	511.14
1047.146	687.26
1047.31	306.34
1047.473	54.44
1047.636	619.68
1047.8	400.55
1047.963	236.71
1048.127	185.51
1048.29	486.56
