Data from Ink_Intensity_USB4F045381__118__00118.txt Node

Date: Mon Jul 17 11:10:48 EDT 2023
User: mmckonesweet
Spectrometer: USB4F04538
Trigger mode: 4
Integration Time (sec): 9.000000E-1
Scans to average: 1
Electric dark correction enabled: true
Nonlinearity correction enabled: false
Boxcar width: 0
XAxis mode: Wavelengths
Number of Pixels in Spectrum: 3648
>>>>>Begin Spectral Data<<<<<
345.52	-998.9
345.736	-998.9
345.952	-998.9
346.168	-976.37
346.384	-1013.23
346.6	-155.13
346.816	-210.43
347.032	-259.58
347.248	219.64
347.464	-263.68
347.68	-77.31
347.896	137.73
348.112	399.87
348.328	14.85
348.544	-93.69
348.76	-5.63
348.975	293.37
349.191	-226.81
349.407	-161.28
349.623	-13.82
349.839	-101.89
350.055	-159.23
350.27	39.42
350.486	147.97
350.702	264.7
350.918	174.59
351.133	-189.95
351.349	164.35
351.565	412.15
351.781	-175.61
351.996	-5.63
352.212	346.62
352.428	-148.99
352.644	-202.24
352.859	-216.57
353.075	262.65
353.291	80.38
353.506	-101.89
353.722	-269.82
353.938	-19.97
354.153	457.21
354.369	100.86
354.584	-177.66
354.8	264.7
355.016	-300.54
355.231	-292.35
355.447	-32.26
355.662	94.72
355.878	811.51
356.093	-388.6
356.309	12.8
356.524	-226.81
356.74	223.74
356.955	-247.29
357.171	-67.07
357.386	88.57
357.602	-196.09
357.817	-73.21
358.033	-169.47
358.248	358.91
358.464	223.74
358.679	-116.22
358.895	-331.26
359.11	-116.22
359.325	260.6
359.541	74.24
359.756	31.23
359.972	-257.53
360.187	215.55
360.402	-118.27
360.618	-159.23
360.833	1036.78
361.048	150.01
361.264	-175.61
361.479	-32.26
361.694	-46.59
361.909	221.69
362.125	-173.57
362.34	-89.6
362.555	195.07
362.77	59.9
362.986	-339.45
363.201	-105.98
363.416	217.6
363.631	43.52
363.847	-185.85
364.062	-206.33
364.277	223.74
364.492	47.62
364.707	-112.13
364.922	-402.94
365.138	244.22
365.353	338.43
365.568	-312.83
365.783	-189.95
365.998	49.66
366.213	530.94
366.428	-239.1
366.643	43.52
366.858	297.47
367.073	98.81
367.288	-99.84
367.503	-261.63
367.718	139.77
367.933	365.05
368.148	-341.5
368.363	-136.7
368.578	23.04
368.793	391.67
369.008	-189.95
369.223	-259.58
369.438	223.74
369.653	438.78
369.868	-235
370.083	-192
370.298	111.1
370.513	346.62
370.728	25.09
370.943	-192
371.157	-206.33
371.372	600.57
371.587	-345.59
371.802	-237.05
372.017	14.85
372.232	446.97
372.446	2.56
372.661	-361.98
372.876	154.11
373.091	205.31
373.306	-122.37
373.52	-288.25
373.735	-224.76
373.95	377.34
374.165	-52.74
374.379	-108.03
374.594	-83.45
374.809	33.28
375.023	8.7
375.238	-239.1
375.453	221.69
375.667	-398.84
375.882	-126.46
376.097	-198.14
376.311	35.33
376.526	-103.93
376.741	-183.81
376.955	133.63
377.17	535.03
377.384	571.9
377.599	-69.12
377.813	-255.48
378.028	641.53
378.242	211.45
378.457	-85.5
378.672	-376.31
378.886	125.44
379.101	-17.92
379.315	-312.83
379.53	-108.03
379.744	236.03
379.958	168.45
380.173	-189.95
380.387	-169.47
380.602	190.97
380.816	-83.45
381.031	-218.62
381.245	-161.28
381.459	236.03
381.674	2621.91
381.888	-189.95
382.103	-19.97
382.317	-103.93
382.531	469.5
382.746	-75.26
382.96	-114.17
383.174	-46.59
383.388	393.72
383.603	39.42
383.817	-286.2
384.031	137.73
384.246	432.63
384.46	72.19
384.674	322.04
384.888	27.14
385.103	82.43
385.317	-235
385.531	-112.13
385.745	348.67
385.959	332.28
386.174	-230.91
386.388	-341.5
386.602	12.8
386.816	-87.55
387.03	-157.18
387.244	-116.22
387.458	47.62
387.672	320
387.887	-337.4
388.101	-282.11
388.315	233.98
388.529	195.07
388.743	-103.93
388.957	-278.01
389.171	410.11
389.385	-194.05
389.599	-155.13
389.813	47.62
390.027	150.01
390.241	596.47
390.455	-36.35
390.669	-77.31
390.883	-1.54
391.097	317.95
391.311	-50.69
391.525	-214.52
391.738	203.26
391.952	231.93
392.166	-79.36
392.38	-241.15
392.594	315.9
392.808	283.13
393.022	-87.55
393.236	-175.61
393.449	207.36
393.663	242.17
393.877	-333.31
394.091	-128.51
394.305	-79.36
394.518	-77.31
394.732	-275.96
394.946	-249.34
395.16	387.58
395.373	178.69
395.587	-249.34
395.801	-216.57
396.015	338.43
396.228	197.12
396.442	-271.87
396.656	-370.17
396.869	324.09
397.083	463.35
397.297	-103.93
397.51	-218.62
397.724	348.67
397.938	158.21
398.151	-321.02
398.365	-329.21
398.578	178.69
398.792	371.19
399.005	-62.98
399.219	-171.52
399.433	29.18
399.646	197.12
399.86	-62.98
400.073	64
400.287	207.36
400.5	6.66
400.714	39.42
400.927	-44.54
401.141	244.22
401.354	1067.5
401.567	176.64
401.781	-347.64
401.994	285.18
402.208	606.71
402.421	-130.56
402.635	-144.89
402.848	-9.73
403.061	268.8
403.275	-60.93
403.488	-263.68
403.701	440.83
403.915	256.51
404.128	-13.82
404.341	-157.18
404.555	98.81
404.768	37.38
404.981	55.81
405.195	-220.67
405.408	614.9
405.621	293.37
405.834	43.52
406.048	-179.71
406.261	408.06
406.474	436.73
406.687	-267.77
406.9	-32.26
407.114	6.66
407.327	246.27
407.54	-327.16
407.753	-267.77
407.966	-130.56
408.179	270.84
408.392	-171.52
408.605	-345.59
408.819	61.95
409.032	72.19
409.245	-198.14
409.458	45.57
409.671	197.12
409.884	248.32
410.097	-259.58
410.31	-44.54
410.523	164.35
410.736	-50.69
410.949	-36.35
411.162	-142.85
411.375	428.54
411.588	268.8
411.801	-1.54
412.014	-278.01
412.227	88.57
412.44	-99.84
412.653	-95.74
412.865	59.9
413.078	223.74
413.291	244.22
413.504	-58.88
413.717	-189.95
413.93	236.03
414.143	-146.94
414.356	-161.28
414.568	-329.21
414.781	287.23
414.994	115.2
415.207	-22.02
415.42	-48.64
415.632	211.45
415.845	498.17
416.058	-306.68
416.271	-337.4
416.483	64
416.696	565.75
416.909	-173.57
417.121	-253.44
417.334	168.45
417.547	469.5
417.759	-155.13
417.972	-226.81
418.185	-97.79
418.397	324.09
418.61	-179.71
418.823	-247.29
419.035	487.93
419.248	59.9
419.46	-75.26
419.673	-83.45
419.885	205.31
420.098	92.67
420.311	-173.57
420.523	-343.55
420.736	219.64
420.948	88.57
421.161	-146.94
421.373	-333.31
421.586	117.25
421.798	-120.32
422.01	-345.59
422.223	18.94
422.435	-42.5
422.648	246.27
422.86	-161.28
423.073	-161.28
423.285	281.08
423.497	-259.58
423.71	-230.91
423.922	-204.28
424.134	182.78
424.347	406.01
424.559	-58.88
424.771	121.34
424.984	59.9
425.196	174.59
425.408	-341.5
425.621	-310.78
425.833	274.94
426.045	416.25
426.257	-306.68
426.47	-173.57
426.682	119.29
426.894	150.01
427.106	-218.62
427.318	-124.41
427.531	-128.51
427.743	315.9
427.955	-151.04
428.167	293.37
428.379	172.54
428.591	-38.4
428.804	-7.68
429.016	-206.33
429.228	-75.26
429.44	178.69
429.652	16.9
429.864	-286.2
430.076	-42.5
430.288	0.51
430.5	-189.95
430.712	4.61
430.924	356.86
431.136	205.31
431.348	-290.3
431.56	-163.33
431.772	64
431.984	-46.59
432.196	-206.33
432.408	-214.52
432.62	51.71
432.832	178.69
433.044	86.53
433.256	-83.45
433.468	236.03
433.679	-388.6
433.891	-232.96
434.103	70.14
434.315	399.87
434.527	236.03
434.739	-85.5
434.95	-189.95
435.162	236.03
435.374	-87.55
435.586	-108.03
435.798	-169.47
436.009	-230.91
436.221	74.24
436.433	-171.52
436.645	-165.37
436.856	-89.6
437.068	322.04
437.28	-284.16
437.491	96.77
437.703	199.16
437.915	133.63
438.126	-83.45
438.338	59.9
438.55	121.34
438.761	133.63
438.973	-112.13
439.184	-108.03
439.396	64
439.608	260.6
439.819	-310.78
440.031	-105.98
440.242	225.79
440.454	201.21
440.665	-187.9
440.877	-38.4
441.088	172.54
441.3	-30.21
441.511	-341.5
441.723	-263.68
441.934	213.5
442.146	-17.92
442.357	102.91
442.569	154.11
442.78	31.23
442.991	473.59
443.203	221.69
443.414	-273.92
443.626	348.67
443.837	-124.41
444.048	-275.96
444.26	-284.16
444.471	72.19
444.682	264.7
444.894	-335.35
445.105	-280.06
445.316	270.84
445.528	221.69
445.739	-32.26
445.95	-124.41
446.161	125.44
446.373	289.28
446.584	-194.05
446.795	-198.14
447.006	227.84
447.217	389.63
447.429	-333.31
447.64	-263.68
447.851	301.56
448.062	47.62
448.273	-374.27
448.484	-321.02
448.695	233.98
448.907	-83.45
449.118	-136.7
449.329	25.09
449.54	-44.54
449.751	-189.95
449.962	-165.37
450.173	-140.8
450.384	256.51
450.595	385.53
450.806	-148.99
451.017	-146.94
451.228	383.48
451.439	266.75
451.65	-230.91
451.861	-351.74
452.072	-114.17
452.283	-15.87
452.494	-73.21
452.705	-220.67
452.915	526.84
453.126	240.12
453.337	-120.32
453.548	-208.38
453.759	291.32
453.97	598.52
454.181	64
454.391	-114.17
454.602	111.1
454.813	227.84
455.024	-103.93
455.235	-198.14
455.445	174.59
455.656	152.06
455.867	43.52
456.078	-189.95
456.288	-15.87
456.499	137.73
456.71	-275.96
456.921	109.05
457.131	133.63
457.342	174.59
457.553	-101.89
457.763	-161.28
457.974	287.23
458.184	242.17
458.395	-288.25
458.606	-296.44
458.816	342.52
459.027	598.52
459.237	107.01
459.448	-292.35
459.659	420.35
459.869	614.9
460.08	-314.88
460.29	-52.74
460.501	500.22
460.711	31.23
460.922	-296.44
461.132	-200.19
461.343	788.98
461.553	-173.57
461.764	-210.43
461.974	-140.8
462.184	297.47
462.395	231.93
462.605	-110.08
462.816	-275.96
463.026	186.88
463.236	410.11
463.447	-194.05
463.657	-222.72
463.867	391.67
464.078	61.95
464.288	-177.66
464.498	-165.37
464.709	162.3
464.919	45.57
465.129	-46.59
465.339	-171.52
465.55	236.03
465.76	295.42
465.97	-75.26
466.18	-165.37
466.391	270.84
466.601	231.93
466.811	-108.03
467.021	-259.58
467.231	231.93
467.441	440.83
467.651	-26.11
467.862	-429.56
468.072	98.81
468.282	498.17
468.492	-163.33
468.702	-52.74
468.912	72.19
469.122	692.73
469.332	147.97
469.542	-257.53
469.752	297.47
469.962	150.01
470.172	-148.99
470.382	-192
470.592	352.76
470.802	408.06
471.012	51.71
471.222	-142.85
471.432	317.95
471.642	389.63
471.852	27.14
472.062	-93.69
472.272	113.15
472.482	-65.02
472.691	-140.8
472.901	-235
473.111	207.36
473.321	672.25
473.531	-112.13
473.741	-22.02
473.95	305.66
474.16	408.06
474.37	-54.78
474.58	-261.63
474.79	596.47
474.999	309.76
475.209	-151.04
475.419	-24.06
475.628	147.97
475.838	455.16
476.048	0.51
476.258	-157.18
476.467	434.68
476.677	107.01
476.886	72.19
477.096	2.56
477.306	92.67
477.515	573.94
477.725	47.62
477.935	10.75
478.144	465.4
478.354	102.91
478.563	-36.35
478.773	-140.8
478.982	414.2
479.192	498.17
479.401	113.15
479.611	-103.93
479.82	-46.59
480.03	262.65
480.239	-34.3
480.449	-97.79
480.658	635.38
480.868	76.29
481.077	96.77
481.287	35.33
481.496	481.78
481.705	537.08
481.915	254.46
482.124	246.27
482.333	272.89
482.543	641.53
482.752	72.19
482.961	-54.78
483.171	397.82
483.38	215.55
483.589	104.96
483.799	10.75
484.008	256.51
484.217	506.36
484.426	-7.68
484.636	-60.93
484.845	379.39
485.054	-34.3
485.263	326.14
485.472	49.66
485.682	637.43
485.891	393.72
486.1	-112.13
486.309	76.29
486.518	543.22
486.727	733.68
486.936	39.42
487.146	248.32
487.355	604.66
487.564	121.34
487.773	72.19
487.982	88.57
488.191	256.51
488.4	313.85
488.609	68.09
488.818	49.66
489.027	821.75
489.236	764.4
489.445	170.49
489.654	43.52
489.863	631.29
490.072	485.88
490.281	508.41
490.49	92.67
490.698	719.35
490.907	821.75
491.116	104.96
491.325	2.56
491.534	645.62
491.743	489.98
491.952	279.04
492.16	231.93
492.369	508.41
492.578	764.4
492.787	184.83
492.996	6.66
493.204	254.46
493.413	915.95
493.622	-34.3
493.831	-36.35
494.039	817.65
494.248	203.26
494.457	164.35
494.665	-44.54
494.874	629.24
495.083	967.15
495.291	227.84
495.5	35.33
495.709	678.39
495.917	469.5
496.126	240.12
496.335	90.62
496.543	375.29
496.752	506.36
496.96	475.64
497.169	100.86
497.377	393.72
497.586	735.73
497.794	375.29
498.003	8.7
498.211	424.44
498.42	860.66
498.628	309.76
498.837	131.58
499.045	625.14
499.254	582.14
499.462	174.59
499.671	219.64
499.879	846.32
500.087	784.88
500.296	262.65
500.504	309.76
500.713	578.04
500.921	1008.11
501.129	227.84
501.338	219.64
501.546	637.43
501.754	592.37
501.962	311.8
502.171	178.69
502.379	608.76
502.587	1085.94
502.795	285.18
503.004	322.04
503.212	608.76
503.42	780.79
503.628	309.76
503.837	481.78
504.045	733.68
504.253	1044.98
504.461	330.23
504.669	78.33
504.877	645.62
505.085	979.44
505.294	127.49
505.502	528.89
505.71	733.68
505.918	762.36
506.126	260.6
506.334	344.57
506.542	600.57
506.75	741.88
506.958	532.98
507.166	449.02
507.374	508.41
507.582	1122.8
507.79	498.17
507.998	252.41
508.206	883.19
508.414	768.5
508.622	291.32
508.83	393.72
509.037	1110.51
509.245	653.81
509.453	328.19
509.661	229.88
509.869	815.6
510.077	616.95
510.285	565.75
510.492	129.53
510.7	1214.96
510.908	641.53
511.116	428.54
511.324	408.06
511.531	565.75
511.739	764.4
511.947	602.61
512.155	799.22
512.362	756.21
512.57	559.61
512.778	313.85
512.985	309.76
513.193	965.11
513.401	1006.06
513.608	444.92
513.816	494.07
514.024	854.51
514.231	1065.46
514.439	492.02
514.646	500.22
514.854	989.68
515.061	1006.06
515.269	532.98
515.477	436.73
515.684	608.76
515.892	1018.35
516.099	387.58
516.307	424.44
516.514	926.19
516.722	1229.29
516.929	444.92
517.136	457.21
517.344	1196.53
517.551	1016.3
517.759	403.96
517.966	600.57
518.173	840.18
518.381	840.18
518.588	643.57
518.796	551.42
519.003	1057.26
519.21	768.5
519.418	578.04
519.625	846.32
519.832	866.8
520.039	944.63
520.247	426.49
520.454	553.46
520.661	1149.42
520.868	1042.93
521.076	592.37
521.283	684.53
521.49	1587.69
521.697	1042.93
521.904	674.29
522.112	596.47
522.319	1210.86
522.526	1042.93
522.733	717.3
522.94	600.57
523.147	905.71
523.354	1102.32
523.561	494.07
523.768	813.56
523.975	1223.15
524.183	1020.4
524.39	850.42
524.597	506.36
524.804	950.77
525.011	834.04
525.218	784.88
525.425	750.07
525.632	1247.72
525.838	801.27
526.045	719.35
526.252	711.16
526.459	2109.92
526.666	1882.6
526.873	780.79
527.08	768.5
527.287	1442.28
527.494	1212.91
527.701	594.42
527.907	645.62
528.114	1186.29
528.321	1040.88
528.528	911.86
528.735	707.06
528.941	932.34
529.148	915.95
529.355	879.09
529.562	805.36
529.768	1524.2
529.975	1063.41
530.182	834.04
530.388	846.32
530.595	1454.57
530.802	846.32
531.008	1083.89
531.215	899.57
531.422	1563.11
531.628	2017.76
531.835	911.86
532.042	942.58
532.248	1096.18
532.455	1149.42
532.661	893.43
532.868	887.28
533.074	1290.73
533.281	1423.85
533.487	997.87
533.694	856.56
533.9	965.11
534.107	1339.88
534.313	868.85
534.52	834.04
534.726	1538.54
534.933	1735.14
535.139	870.9
535.345	811.51
535.552	1366.51
535.758	1237.49
535.965	956.91
536.171	1024.5
536.377	1432.04
536.584	1581.54
536.79	969.2
536.996	1047.02
537.203	1305.07
537.409	1393.13
537.615	1049.07
537.821	1067.5
538.028	1616.36
538.234	1507.82
538.44	981.49
538.646	1133.04
538.853	1425.9
539.059	1284.59
539.265	1427.95
539.471	797.17
539.677	1722.85
539.883	1219.05
540.09	1020.4
540.296	1460.71
540.502	1583.59
540.708	1214.96
540.914	1313.26
541.12	1219.05
541.326	1491.43
541.532	1360.36
541.738	1280.49
541.944	1264.11
542.15	1681.89
542.356	1452.52
542.562	1122.8
542.768	1188.33
542.974	1976.8
543.18	1964.51
543.386	1231.34
543.592	1137.13
543.798	1800.68
544.004	1821.16
544.21	1204.72
544.415	1235.44
544.621	1608.17
544.827	1888.74
545.033	1163.76
545.239	1473
545.445	1368.56
545.651	1776.1
545.856	1208.81
546.062	1292.78
546.268	1524.2
546.474	1614.31
546.679	1350.12
546.885	1444.33
547.091	1456.62
547.297	2040.29
547.502	1503.72
547.708	1188.33
547.914	1415.66
548.119	1763.81
548.325	1278.44
548.531	1210.86
548.736	1984.99
548.942	1501.67
549.147	1268.2
549.353	1585.64
549.559	1853.92
549.764	1608.17
549.97	1378.79
550.175	1464.81
550.381	1925.6
550.586	1563.11
550.792	1417.71
550.997	1360.36
551.203	1870.31
551.408	1786.34
551.614	1278.44
551.819	1450.47
552.025	2085.34
552.23	2292.19
552.435	1411.56
552.641	1724.9
552.846	1579.5
553.052	2142.69
553.257	1655.27
553.462	1561.06
553.668	1749.48
553.873	2140.64
554.078	1575.4
554.283	1470.95
554.489	2066.91
554.694	1866.21
554.899	1536.49
555.105	1800.68
555.31	1997.28
555.515	1888.74
555.72	1634.79
555.925	1536.49
556.131	2087.39
556.336	1694.18
556.541	1620.46
556.746	1434.09
556.951	2226.65
557.156	2281.95
557.361	1702.37
557.567	1806.82
557.772	2404.83
557.977	2116.06
558.182	1645.03
558.387	1608.17
558.592	1911.27
558.797	2329.05
559.002	1681.89
559.207	1831.4
559.412	2130.4
559.617	2488.79
559.822	1778.15
560.027	1653.22
560.232	2056.67
560.437	2284
560.642	1677.8
560.847	1755.62
561.051	2105.82
561.256	2050.53
561.461	1829.35
561.666	1718.76
561.871	2085.34
562.076	2251.23
562.281	1835.49
562.485	1755.62
562.69	2284
562.895	2398.68
563.1	1808.87
563.305	1737.19
563.509	2566.62
563.714	2726.36
563.919	1788.39
564.123	1909.22
564.328	2103.78
564.533	2511.32
564.737	2001.38
564.942	1858.02
565.147	2599.38
565.351	2587.1
565.556	2054.62
565.761	2068.96
565.965	2263.52
566.17	2087.39
566.374	2011.62
566.579	1925.6
566.784	2286.05
566.988	2177.5
567.193	1935.84
567.397	1898.98
567.602	2001.38
567.806	2271.71
568.011	1925.6
568.215	1972.71
568.42	2337.24
568.624	2243.04
568.828	2032.1
569.033	2171.36
569.237	2529.75
569.442	2574.81
569.646	1939.94
569.85	2140.64
570.055	2357.72
570.259	2398.68
570.463	2347.48
570.668	2175.45
570.872	2320.86
571.076	2427.35
571.281	2306.52
571.485	2169.31
571.689	2533.85
571.893	2603.48
572.098	2230.75
572.302	2216.41
572.506	2574.81
572.71	2427.35
572.914	2202.08
573.119	2187.74
573.323	2869.72
573.527	2791.89
573.731	2300.38
573.935	2128.35
574.139	2566.62
574.343	2345.44
574.547	2304.48
574.751	2361.82
574.955	2830.8
575.159	2679.26
575.364	2224.61
575.568	2054.62
575.772	2759.13
575.976	2906.58
576.18	2284
576.383	2216.41
576.587	2910.68
576.791	2779.61
576.995	1968.61
577.199	2275.81
577.403	2855.38
577.607	2974.16
577.811	2294.24
578.015	2525.66
578.219	2847.19
578.422	2888.15
578.626	2507.23
578.83	2572.76
579.034	3084.75
579.238	2730.45
579.442	2525.66
579.645	2793.94
579.849	2656.73
580.053	2826.71
580.257	2525.66
580.46	2583
580.664	3037.65
580.868	3045.84
581.071	2666.97
581.275	2757.08
581.479	2662.87
581.682	2988.5
581.886	2521.56
582.09	2679.26
582.293	3080.66
582.497	2877.91
582.7	2812.37
582.904	2564.57
583.107	2779.61
583.311	2865.62
583.515	2513.37
583.718	2734.55
583.922	3064.27
584.125	3340.75
584.329	2492.89
584.532	2816.47
584.735	3461.58
584.939	2992.59
585.142	2468.31
585.346	2695.64
585.549	3017.17
585.753	2986.45
585.956	3023.31
586.159	2742.74
586.363	3271.12
586.566	3119.57
586.769	2623.96
586.973	2822.61
587.176	3205.58
587.379	3340.75
587.582	3039.7
587.786	2912.72
587.989	3168.72
588.192	3834.31
588.395	3029.46
588.599	3373.52
588.802	3303.89
589.005	3367.37
589.208	3004.88
589.411	2890.2
589.615	3543.5
589.818	3516.87
590.021	3336.65
590.224	3258.83
590.427	3508.68
590.63	3322.32
590.833	2791.89
591.036	2992.59
591.239	3152.34
591.442	3129.81
591.645	3232.21
591.848	3211.73
592.051	3312.08
592.254	3520.97
592.457	2927.06
592.66	3189.2
592.863	3305.93
593.066	3480.01
593.269	3133.9
593.472	3144.14
593.675	3201.49
593.878	3582.41
594.081	3115.47
594.284	3107.28
594.486	3621.32
594.689	3563.98
594.892	3217.87
595.095	3228.11
595.298	3625.42
595.5	3340.75
595.703	3414.48
595.906	3412.43
596.109	3949
596.311	3742.15
596.514	3070.42
596.717	3240.4
596.92	3854.79
597.122	3598.79
597.325	3150.29
597.528	3273.17
597.73	3963.33
597.933	3598.79
598.136	3430.86
598.338	2998.74
598.541	3903.94
598.743	3869.12
598.946	3318.22
599.148	3418.57
599.351	3985.86
599.554	3936.71
599.756	3545.55
599.959	3535.31
600.161	4032.96
600.363	4254.14
600.566	3772.87
600.768	3457.48
600.971	4196.8
601.173	3981.76
601.376	3662.28
601.578	3621.32
601.78	3996.1
601.983	4430.27
602.185	3426.76
602.388	3748.29
602.59	3934.66
602.792	3688.9
602.995	3713.48
603.197	3574.22
603.399	4194.75
603.601	3916.23
603.804	3729.86
604.006	3742.15
604.208	3869.12
604.41	3635.66
604.613	3707.34
604.815	3668.42
605.017	4528.57
605.219	3709.38
605.421	4032.96
605.623	3662.28
605.826	4377.02
606.028	4440.51
606.23	3785.16
606.432	3725.77
606.634	4458.94
606.836	4327.87
607.038	3688.9
607.24	3955.14
607.442	3973.57
607.644	4127.17
607.846	3850.69
608.048	3725.77
608.25	4356.54
608.452	3889.6
608.654	3944.9
608.856	3633.61
609.058	4020.67
609.26	4319.68
609.462	4112.83
609.664	4008.39
609.866	4733.37
610.067	4354.49
610.269	4069.83
610.471	4016.58
610.673	4086.21
610.875	4393.4
611.077	3719.62
611.278	4032.96
611.48	4262.33
611.682	4708.79
611.884	4112.83
612.085	3934.66
612.287	4026.82
612.489	4438.46
612.69	3897.8
612.892	4014.53
613.094	4643.26
613.295	4374.97
613.497	3912.13
613.699	4100.55
613.9	4676.02
614.102	4454.84
614.304	4182.46
614.505	3885.51
614.707	4432.32
614.908	4399.55
615.11	3942.85
615.311	4032.96
615.513	4559.29
615.714	4698.55
615.916	3998.15
616.117	4331.97
616.319	4475.32
616.52	4725.18
616.722	4237.76
616.923	3979.72
617.124	4831.67
617.326	4661.69
617.527	4282.81
617.729	4393.4
617.93	4530.62
618.131	4698.55
618.333	4155.84
618.534	4254.14
618.735	4446.65
618.937	4917.68
619.138	4211.14
619.339	4342.21
619.54	4712.89
619.742	4426.17
619.943	4413.88
620.144	4383.17
620.345	4696.5
620.546	4712.89
620.748	4340.16
620.949	4540.86
621.15	4704.7
621.351	4569.53
621.552	4397.5
621.753	4069.83
621.954	4282.81
622.155	5083.57
622.356	4299.2
622.558	4479.42
622.759	4659.64
622.96	5136.82
623.161	4315.58
623.362	4426.17
623.563	4688.31
623.764	4759.99
623.965	4426.17
624.166	4651.45
624.366	4747.7
624.567	5015.99
624.768	4127.17
624.969	4493.76
625.17	4688.31
625.371	4870.58
625.572	4487.61
625.773	4358.59
625.973	5120.43
626.174	5020.08
626.375	4780.47
626.576	4780.47
626.777	4956.6
626.977	5419.44
627.178	4762.04
627.379	4712.89
627.58	4856.25
627.78	4774.33
627.981	4786.61
628.182	4839.86
628.382	5314.99
628.583	4686.26
628.784	4608.44
628.984	4854.2
629.185	5159.35
629.386	5218.74
629.586	4745.66
629.787	4639.16
629.987	5185.97
630.188	4934.07
630.388	4983.22
630.589	4792.76
630.79	5857.7
630.99	5069.23
631.191	4835.77
631.391	4874.68
631.591	5190.06
631.792	5530.03
631.992	5036.47
632.193	4999.6
632.393	5570.99
632.594	5241.26
632.794	4682.17
632.994	5110.19
633.195	5310.89
633.395	5401.01
633.595	4897.21
633.796	5155.25
633.996	5241.26
634.196	5501.36
634.397	4641.21
634.597	5040.56
634.797	5079.47
634.997	5552.56
635.198	5226.93
635.398	5038.52
635.598	5527.98
635.798	5673.39
635.998	5405.1
636.199	4991.41
636.399	5155.25
636.599	5095.86
636.799	5290.42
636.999	5364.14
637.199	5519.79
637.399	5740.97
637.599	5067.19
637.799	5302.7
637.999	5409.2
638.199	5820.84
638.399	5083.57
638.599	5032.37
638.799	5544.36
638.999	6173.09
639.199	5421.49
639.399	5558.7
639.599	5867.94
639.799	5460.4
639.999	5218.74
640.199	5093.81
640.399	5527.98
640.599	5573.03
640.799	5317.04
640.998	5489.07
641.198	5736.87
641.398	5816.74
641.598	5435.82
641.798	5552.56
641.997	6609.31
642.197	5566.89
642.397	5681.58
642.597	5388.72
642.796	5818.79
642.996	6035.88
643.196	5669.29
643.395	5335.47
643.595	5812.65
643.795	5366.19
643.994	5329.33
644.194	5511.6
644.394	6087.08
644.593	5896.61
644.793	5618.09
644.992	5642.67
645.192	5947.81
645.392	5380.53
645.591	5874.09
645.791	5726.63
645.99	6064.55
646.19	5826.98
646.389	5622.19
646.589	5685.67
646.788	6164.9
646.987	6105.51
647.187	5917.09
647.386	5685.67
647.586	5913
647.785	6060.45
647.984	5722.54
648.184	5697.96
648.383	5925.29
648.582	5970.34
648.782	5798.31
648.981	5884.33
649.18	5902.76
649.38	6113.7
649.579	5792.17
649.778	5745.06
649.977	6246.82
650.177	6191.52
650.376	5759.4
650.575	5808.55
650.774	6345.12
650.973	5855.65
651.173	5652.91
651.372	5820.84
651.571	6242.72
651.77	6451.61
651.969	5820.84
652.168	6027.68
652.367	5964.2
652.566	6154.66
652.765	5978.53
652.964	6236.58
653.163	6637.98
653.362	6070.69
653.561	5931.43
653.76	5908.9
653.959	6064.55
654.158	6289.82
654.357	6097.31
654.556	5933.48
654.755	6607.26
654.954	6371.74
655.153	5945.77
655.352	6209.95
655.551	6496.67
655.749	6115.75
655.948	6232.48
656.147	6189.47
656.346	6433.18
656.545	6328.74
656.743	6273.44
656.942	6277.54
657.141	6420.89
657.34	6277.54
657.538	6259.1
657.737	6242.72
657.936	6597.02
658.135	6646.17
658.333	6283.68
658.532	6384.03
658.731	7043.48
658.929	6898.07
659.128	6300.06
659.326	6203.81
659.525	6801.82
659.724	6504.86
659.922	6121.89
660.121	6168.99
660.319	6885.78
660.518	6379.93
660.716	6203.81
660.915	6318.5
661.113	6986.13
661.312	6355.36
661.51	6752.66
661.709	6511
661.907	6883.73
662.105	7123.35
662.304	6558.11
662.502	6537.63
662.701	7059.86
662.899	6564.25
663.097	6756.76
663.296	6343.07
663.494	6951.32
663.692	7201.17
663.891	6365.6
664.089	6273.44
664.287	6814.1
664.485	7156.11
664.684	6627.74
664.882	6773.14
665.08	6787.48
665.278	6758.81
665.476	6468
665.675	6871.45
665.873	7293.33
666.071	6994.33
666.269	6447.52
666.467	6740.38
666.665	6818.2
666.863	6777.24
667.061	6648.22
667.259	6699.42
667.457	6865.3
667.655	7172.5
667.853	6521.24
668.051	6736.28
668.249	6760.86
668.447	7035.28
668.645	6760.86
668.843	6836.63
669.041	7145.87
669.239	7086.48
669.437	6838.68
669.635	6971.8
669.833	7053.72
670.031	7162.26
670.229	6990.23
670.426	6871.45
670.624	6965.65
670.822	6764.95
671.02	6734.23
671.218	6779.29
671.415	6769.05
671.613	7129.49
671.811	6936.98
672.009	6824.34
672.206	7283.09
672.404	7043.48
672.602	6910.36
672.799	6965.65
672.997	7205.27
673.195	7319.95
673.392	7035.28
673.59	6674.84
673.788	7182.74
673.985	6699.42
674.183	7041.43
674.38	6910.36
674.578	7387.54
674.775	7035.28
674.973	6871.45
675.17	6822.3
675.368	7481.74
675.565	7289.23
675.763	7008.66
675.96	6818.2
676.158	7565.71
676.355	7049.62
676.553	7029.14
676.75	6789.53
676.947	7344.53
677.145	6996.37
677.342	7154.07
677.539	7109.01
677.737	7182.74
677.934	7651.72
678.131	7291.28
678.329	6920.6
678.526	7506.32
678.723	7235.99
678.92	7289.23
679.118	6971.8
679.315	7098.77
679.512	7704.97
679.709	6984.09
679.906	7094.68
680.104	7604.62
680.301	7203.22
680.498	6793.62
680.695	6932.89
680.892	7113.11
681.089	7125.4
681.286	7240.08
681.483	6920.6
681.68	7428.49
681.877	7709.07
682.075	7190.93
682.272	7346.58
682.469	7485.84
682.665	7225.75
682.862	6939.03
683.059	6975.89
683.256	7432.59
683.453	7295.38
683.65	7104.92
683.847	7342.48
684.044	7281.04
684.241	7115.16
684.438	7301.52
684.635	7002.52
684.831	8010.12
685.028	7840.14
685.225	7160.21
685.422	7338.38
685.619	7309.71
685.815	7502.22
686.012	7360.91
686.209	7213.46
686.405	7104.92
686.602	7565.71
686.799	7117.2
686.996	6994.33
687.192	7154.07
687.389	7874.95
687.586	7317.9
687.782	7367.06
687.979	7915.91
688.175	7868.81
688.372	7248.27
688.568	7143.83
688.765	7195.03
688.962	7776.65
689.158	7430.54
689.355	7152.02
689.551	7778.7
689.748	7358.86
689.944	7346.58
690.14	7014.8
690.337	7692.68
690.533	7403.92
690.73	7477.65
690.926	7358.86
691.123	7657.87
691.319	7473.55
691.515	7051.67
691.712	7389.58
691.908	7651.72
692.104	7893.38
692.301	7395.73
692.497	7246.23
692.693	7893.38
692.889	7854.47
693.086	7412.11
693.282	7278.99
693.478	7578
693.674	7903.62
693.87	7231.89
694.067	7217.55
694.263	7625.1
694.459	7621
694.655	7559.56
694.851	7534.99
695.047	7670.15
695.243	7778.7
695.439	7625.1
695.635	7539.08
695.831	7580.04
696.027	7592.33
696.224	7203.22
696.42	7629.2
696.615	8042.89
696.811	7737.74
697.007	7244.18
697.203	7479.69
697.399	7610.76
697.595	7987.59
697.791	7578
697.987	7545.23
698.183	7266.71
698.379	7453.07
698.575	7340.43
698.77	7252.37
698.966	7836.04
699.162	7928.2
699.358	7553.42
699.554	7575.95
699.749	7877
699.945	7963.01
700.141	7479.69
700.337	7661.96
700.532	7702.92
700.728	7494.03
700.924	7252.37
701.119	7371.15
701.315	7788.94
701.511	7686.54
701.706	7743.88
701.902	7324.05
702.097	7571.85
702.293	7780.75
702.489	7586.19
702.684	7733.64
702.88	7883.14
703.075	7674.25
703.271	7528.85
703.466	7451.02
703.662	7690.63
703.857	7909.77
704.053	7549.32
704.248	7600.52
704.443	8042.89
704.639	7838.09
704.834	7561.61
705.03	7526.8
705.225	7991.69
705.42	8200.58
705.616	7811.46
705.811	7573.9
706.006	7758.22
706.202	7682.44
706.397	7758.22
706.592	7526.8
706.787	7776.65
706.983	7889.29
707.178	7739.79
707.373	7582.09
707.568	8018.31
707.763	8110.47
707.959	7551.37
708.154	7766.41
708.349	7571.85
708.544	7770.51
708.739	7987.59
708.934	7504.27
709.129	7952.77
709.324	8157.57
709.519	7864.71
709.714	7715.21
709.909	8194.43
710.104	8055.17
710.299	7696.78
710.494	7747.98
710.689	8096.13
710.884	7770.51
711.079	7627.15
711.274	8022.41
711.469	8120.71
711.664	8108.42
711.859	7821.7
712.054	7711.11
712.249	7977.35
712.443	8198.53
712.638	7727.5
712.833	7518.61
713.028	8155.52
713.223	7960.97
713.417	7983.49
713.612	7659.92
713.807	8376.7
714.002	8632.7
714.196	8020.36
714.391	7850.38
714.586	8106.37
714.78	7934.34
714.975	7766.41
715.17	7868.81
715.364	7850.38
715.559	8311.17
715.754	7467.41
715.948	7682.44
716.143	8288.64
716.337	8216.96
716.532	8036.74
716.726	7809.42
716.921	8274.31
717.115	8458.62
717.31	7805.32
717.504	8415.62
717.699	8135.04
717.893	8239.49
718.088	7563.66
718.282	7756.17
718.476	8173.96
718.671	8194.43
718.865	7903.62
719.059	7764.36
719.254	7995.78
719.448	8388.99
719.642	9163.12
719.837	7516.56
720.031	8110.47
720.225	8182.15
720.419	7932.29
720.614	7668.11
720.808	8223.11
721.002	7936.39
721.196	7780.75
721.39	7842.18
721.585	8315.27
721.779	8014.21
721.973	7801.22
722.167	7594.38
722.361	7928.2
722.555	8288.64
722.749	7717.26
722.943	7739.79
723.137	7713.16
723.331	8067.46
723.525	7608.72
723.719	7594.38
723.913	8350.08
724.107	8384.9
724.301	7741.83
724.495	7727.5
724.689	8608.12
724.883	8241.54
725.077	7823.75
725.271	7784.84
725.465	8366.46
725.659	8083.84
725.853	7950.73
726.046	7747.98
726.24	8077.7
726.434	8204.67
726.628	7782.79
726.822	8022.41
727.015	8339.84
727.209	8339.84
727.403	7895.43
727.596	7590.28
727.79	8155.52
727.984	8311.17
728.177	8104.32
728.371	7997.83
728.565	8413.57
728.758	7997.83
728.952	7893.38
729.146	7903.62
729.339	8268.16
729.533	8241.54
729.726	7932.29
729.92	7901.58
730.113	8563.07
730.307	8307.07
730.5	8079.75
730.694	7788.94
730.887	7991.69
731.081	8307.07
731.274	8053.13
731.468	7999.88
731.661	8190.34
731.854	8065.41
732.048	7870.86
732.241	7924.1
732.435	8128.9
732.628	8333.7
732.821	8010.12
733.014	8055.17
733.208	8081.8
733.401	8546.69
733.594	7973.25
733.788	8069.51
733.981	8558.97
734.174	8370.56
734.367	8130.95
734.56	8051.08
734.754	8561.02
734.947	8243.59
735.14	8137.09
735.333	8094.08
735.526	8522.11
735.719	8053.13
735.912	8075.65
736.105	8075.65
736.298	8419.71
736.491	8216.96
736.684	7840.14
736.877	7981.45
737.07	8325.5
737.263	8550.78
737.456	8208.77
737.649	8149.38
737.842	8341.89
738.035	8417.66
738.228	8104.32
738.421	8153.48
738.614	8673.66
738.807	8577.41
739	7883.14
739.192	7942.53
739.385	8462.72
739.578	8651.13
739.771	8253.83
739.964	8147.33
740.156	8702.33
740.349	8345.98
740.542	8253.83
740.735	8137.09
740.927	8133
741.12	8153.48
741.313	8018.31
741.505	8268.16
741.698	8487.29
741.891	8528.25
742.083	8221.06
742.276	8350.08
742.468	8370.56
742.661	8442.24
742.854	8161.67
743.046	8411.52
743.239	8843.64
743.431	8348.03
743.624	8186.24
743.816	8108.42
744.009	8227.2
744.201	8538.49
744.393	8401.28
744.586	8096.13
744.778	8536.45
744.971	8567.17
745.163	8427.9
745.355	8370.56
745.548	8393.09
745.74	8415.62
745.932	8296.83
746.125	8313.22
746.317	8849.78
746.509	8395.14
746.702	8069.51
746.894	8247.68
747.086	8419.71
747.278	8712.57
747.471	8227.2
747.663	8288.64
747.855	8423.81
748.047	8698.24
748.239	8155.52
748.431	8128.9
748.623	8952.18
748.815	8577.41
749.008	8110.47
749.2	8008.07
749.392	8763.77
749.584	8735.1
749.776	8243.59
749.968	8280.45
750.16	8943.99
750.352	8413.57
750.544	8204.67
750.736	8216.96
750.928	8726.91
751.12	8509.82
751.311	8233.35
751.503	8255.87
751.695	8835.45
751.887	8501.63
752.079	7977.35
752.271	8319.36
752.463	9277.81
752.654	8593.79
752.846	8411.52
753.038	8348.03
753.23	8321.41
753.421	8745.34
753.613	8280.45
753.805	8634.75
753.997	8649.08
754.188	8802.68
754.38	8362.37
754.572	8368.51
754.763	8673.66
754.955	8700.28
755.146	8434.05
755.338	8452.48
755.53	8593.79
755.721	8522.11
755.913	8063.36
756.104	8026.5
756.296	8493.44
756.487	8612.22
756.679	8028.55
756.87	8239.49
757.062	8423.81
757.253	8411.52
757.445	8133
757.636	8155.52
757.827	8495.49
758.019	9165.17
758.21	7983.49
758.401	8124.8
758.593	8763.77
758.784	8937.85
758.975	7981.45
759.167	8077.7
759.358	8448.38
759.549	8571.26
759.74	8305.03
759.932	8341.89
760.123	8862.07
760.314	8214.91
760.505	8190.34
760.696	8169.86
760.888	8673.66
761.079	8333.7
761.27	8204.67
761.461	8137.09
761.652	8671.61
761.843	8495.49
762.034	8130.95
762.225	8495.49
762.416	8499.58
762.607	8124.8
762.798	8163.72
762.989	8118.66
763.18	9208.18
763.371	8225.15
763.562	8098.18
763.753	8010.12
763.944	8608.12
764.135	8628.6
764.326	8345.98
764.517	8157.57
764.708	8806.78
764.899	8792.44
765.089	7956.87
765.28	8020.36
765.471	8571.26
765.662	8438.14
765.853	8264.07
766.043	7868.81
766.234	8511.87
766.425	8651.13
766.615	8100.23
766.806	8161.67
766.997	8714.62
767.187	8286.59
767.378	8257.92
767.569	7899.53
767.759	8421.76
767.95	8331.65
768.141	8292.74
768.331	8006.02
768.522	8243.59
768.712	8415.62
768.903	8126.85
769.093	7795.08
769.284	8741.24
769.474	8448.38
769.665	7596.43
769.855	7831.94
770.046	8305.03
770.236	8259.97
770.426	8169.86
770.617	8003.97
770.807	8524.16
770.998	8216.96
771.188	8186.24
771.378	8016.26
771.569	8477.05
771.759	8345.98
771.949	7555.47
772.139	7942.53
772.33	8204.67
772.52	8333.7
772.71	7903.62
772.9	7870.86
773.09	8591.74
773.281	8589.69
773.471	7862.66
773.661	7991.69
773.851	8323.46
774.041	8087.94
774.231	8008.07
774.421	8219.01
774.611	8606.08
774.802	8210.82
774.992	8034.69
775.182	7874.95
775.372	8165.76
775.562	8370.56
775.752	7993.73
775.942	7877
776.131	8575.36
776.321	8370.56
776.511	8055.17
776.701	7862.66
776.891	8284.55
777.081	8030.6
777.271	7846.28
777.461	8012.17
777.651	8481.15
777.84	8345.98
778.03	7887.24
778.22	7920.01
778.41	8374.66
778.599	7977.35
778.789	7704.97
778.979	7668.11
779.169	8194.43
779.358	7946.63
779.548	8292.74
779.738	7657.87
779.927	8212.87
780.117	8010.12
780.307	7862.66
780.496	7647.63
780.686	8182.15
780.875	8526.21
781.065	7666.06
781.254	7707.02
781.444	8040.84
781.633	8061.32
781.823	7610.76
782.012	7635.34
782.202	7813.51
782.391	7911.82
782.581	7498.13
782.77	8120.71
782.96	8436.1
783.149	7920.01
783.338	7518.61
783.528	7534.99
783.717	8169.86
783.906	8272.26
784.096	7729.55
784.285	7668.11
784.474	7836.04
784.663	7891.34
784.853	7668.11
785.042	7907.72
785.231	8059.27
785.42	8208.77
785.61	7713.16
785.799	7422.35
785.988	7911.82
786.177	7807.37
786.366	7772.55
786.555	7797.13
786.744	8028.55
786.933	7737.74
787.122	7682.44
787.312	7453.07
787.501	7623.05
787.69	7858.57
787.879	7569.8
788.068	7614.86
788.257	7500.17
788.445	7920.01
788.634	7563.66
788.823	7522.7
789.012	8436.1
789.201	8204.67
789.39	7582.09
789.579	7485.84
789.768	7905.67
789.957	7928.2
790.145	7633.29
790.334	7432.59
790.523	7809.42
790.712	7887.24
790.9	7942.53
791.089	7410.06
791.278	8130.95
791.467	7946.63
791.655	8032.65
791.844	8130.95
792.033	7631.24
792.221	7833.99
792.41	7725.45
792.599	7420.3
792.787	8018.31
792.976	8227.2
793.164	7274.9
793.353	7457.17
793.541	8030.6
793.73	7977.35
793.918	7612.81
794.107	7465.36
794.295	7711.11
794.484	7778.7
794.672	7698.83
794.861	7539.08
795.049	8075.65
795.238	8325.5
795.426	7451.02
795.614	7471.5
795.803	8010.12
795.991	8051.08
796.179	7477.65
796.368	7465.36
796.556	7946.63
796.744	7520.65
796.932	7399.82
797.121	7469.45
797.309	7633.29
797.497	7897.48
797.685	7733.64
797.874	7514.51
798.062	7960.97
798.25	8114.56
798.438	7496.08
798.626	7522.7
798.814	7801.22
799.002	8366.46
799.19	7821.7
799.378	7473.55
799.566	7991.69
799.755	8272.26
799.943	7639.44
800.131	7686.54
800.318	7907.72
800.506	7899.53
800.694	7524.75
800.882	7645.58
801.07	8108.42
801.258	7905.67
801.446	7817.61
801.634	7588.24
801.822	7942.53
802.01	7860.62
802.197	7817.61
802.385	7674.25
802.573	7975.3
802.761	7647.63
802.949	7715.21
803.136	7520.65
803.324	8182.15
803.512	7901.58
803.699	7698.83
803.887	7608.72
804.075	8108.42
804.262	7704.97
804.45	7506.32
804.638	7645.58
804.825	7688.59
805.013	7805.32
805.201	7651.72
805.388	7788.94
805.576	7981.45
805.763	8575.36
805.951	7627.15
806.138	8053.13
806.326	8528.25
806.513	8419.71
806.701	7686.54
806.888	7600.52
807.075	8229.25
807.263	8520.06
807.45	7819.66
807.638	8065.41
807.825	8675.71
808.012	8432
808.2	7856.52
808.387	8364.42
808.574	8395.14
808.761	8567.17
808.949	7944.58
809.136	7995.78
809.323	8227.2
809.51	8380.8
809.698	8388.99
809.885	8155.52
810.072	8276.35
810.259	8518.01
810.446	8075.65
810.633	8167.81
810.82	8712.57
811.008	8538.49
811.195	8149.38
811.382	8075.65
811.569	8288.64
811.756	7958.92
811.943	8198.53
812.13	8026.5
812.317	8188.29
812.504	8454.53
812.691	8169.86
812.878	8141.19
813.064	8702.33
813.251	8407.42
813.438	8100.23
813.625	8356.22
813.812	8305.03
813.999	8321.41
814.186	8268.16
814.372	8280.45
814.559	8284.55
814.746	8632.7
814.933	8051.08
815.12	8354.18
815.306	8311.17
815.493	8198.53
815.68	8182.15
815.866	8313.22
816.053	8708.48
816.24	8835.45
816.426	8321.41
816.613	8006.02
816.799	8638.84
816.986	8620.41
817.173	8087.94
817.359	8251.78
817.546	8632.7
817.732	8102.28
817.919	7973.25
818.105	8200.58
818.292	8305.03
818.478	8710.52
818.665	8219.01
818.851	7963.01
819.037	9038.2
819.224	8706.43
819.41	7930.25
819.597	8042.89
819.783	8604.03
819.969	8708.48
820.156	8341.89
820.342	8073.6
820.528	8905.08
820.714	8528.25
820.901	8335.74
821.087	8126.85
821.273	8782.2
821.459	8378.75
821.646	8083.84
821.832	7901.58
822.018	8477.05
822.204	8323.46
822.39	7979.4
822.576	7907.72
822.762	8655.23
822.948	8266.11
823.134	8245.63
823.32	8071.56
823.507	7827.85
823.693	8360.32
823.879	8483.2
824.065	8182.15
824.25	8456.57
824.436	8014.21
824.622	8059.27
824.808	7889.29
824.994	8020.36
825.18	7993.73
825.366	7889.29
825.552	7950.73
825.738	8110.47
825.923	8542.59
826.109	8233.35
826.295	7854.47
826.481	8098.18
826.667	8194.43
826.852	8014.21
827.038	7887.24
827.224	8513.92
827.409	8831.35
827.595	7881.1
827.781	8173.96
827.966	8407.42
828.152	8374.66
828.338	7641.48
828.523	7696.78
828.709	7977.35
828.894	8440.19
829.08	7913.86
829.266	7815.56
829.451	8075.65
829.637	8194.43
829.822	8139.14
830.008	7823.75
830.193	8257.92
830.378	8464.77
830.564	8098.18
830.749	7641.48
830.935	8182.15
831.12	8216.96
831.305	7903.62
831.491	8042.89
831.676	7840.14
831.861	8186.24
832.047	8102.28
832.232	7694.73
832.417	8538.49
832.602	8067.46
832.788	7666.06
832.973	7647.63
833.158	8198.53
833.343	7901.58
833.528	7936.39
833.714	7877
833.899	8186.24
834.084	8483.2
834.269	7909.77
834.454	7848.33
834.639	8405.38
834.824	8051.08
835.009	7920.01
835.194	7838.09
835.379	8259.97
835.564	8370.56
835.749	7983.49
835.934	7528.85
836.119	8055.17
836.304	7950.73
836.489	7747.98
836.674	8014.21
836.859	7725.45
837.044	8243.59
837.228	7686.54
837.413	7598.48
837.598	7833.99
837.783	8159.62
837.968	7682.44
838.152	7502.22
838.337	7498.13
838.522	8272.26
838.707	8104.32
838.891	7801.22
839.076	7860.62
839.261	8388.99
839.445	7715.21
839.63	7668.11
839.815	8216.96
839.999	7813.51
840.184	7528.85
840.368	7651.72
840.553	8071.56
840.737	7973.25
840.922	7440.78
841.106	7743.88
841.291	7352.72
841.475	7850.38
841.66	7680.39
841.844	7580.04
842.029	8753.53
842.213	7672.2
842.397	7448.97
842.582	7389.58
842.766	8157.57
842.951	7774.6
843.135	7549.32
843.319	7477.65
843.504	7760.27
843.688	8012.17
843.872	7311.76
844.056	7446.93
844.241	7838.09
844.425	7752.07
844.609	7747.98
844.793	7322
844.977	8153.48
845.161	7838.09
845.346	7342.48
845.53	7455.12
845.714	7711.11
845.898	8001.93
846.082	7276.94
846.266	7395.73
846.45	7801.22
846.634	7686.54
846.818	7352.72
847.002	7485.84
847.186	7862.66
847.37	7362.96
847.554	7481.74
847.738	7379.34
847.922	7813.51
848.106	7694.73
848.29	7203.22
848.473	7356.82
848.657	7809.42
848.841	7621
849.025	7555.47
849.209	7100.82
849.392	7920.01
849.576	7860.62
849.76	7043.48
849.944	7496.08
850.127	7924.1
850.311	7344.53
850.495	7371.15
850.678	7133.59
850.862	7870.86
851.046	7866.76
851.229	7385.49
851.413	7162.26
851.596	7430.54
851.78	7629.2
851.964	7537.04
852.147	7147.92
852.331	8098.18
852.514	7639.44
852.698	7289.23
852.881	7125.4
853.065	7756.17
853.248	7379.34
853.431	7287.18
853.615	7358.86
853.798	8042.89
853.982	7469.45
854.165	7272.85
854.348	7070.1
854.532	7473.55
854.715	7358.86
854.898	7283.09
855.081	7029.14
855.265	7821.7
855.448	7903.62
855.631	7127.44
855.814	7088.53
855.997	7766.41
856.181	7379.34
856.364	7315.86
856.547	7037.33
856.73	7537.04
856.913	7350.67
857.096	6891.93
857.279	7166.35
857.462	7225.75
857.645	7559.56
857.828	7106.96
858.011	7149.97
858.194	7309.71
858.377	7498.13
858.56	6943.13
858.743	6945.17
858.926	7205.27
859.109	7524.75
859.292	6904.21
859.475	6723.99
859.658	7500.17
859.841	7475.6
860.023	6787.48
860.206	6875.54
860.389	7233.94
860.572	7512.46
860.755	6840.73
860.937	6623.64
861.12	7240.08
861.303	7055.76
861.486	6953.37
861.668	6799.77
861.851	7491.98
862.034	7260.56
862.216	6889.88
862.399	6789.53
862.581	7004.57
862.764	7438.73
862.947	6750.62
863.129	6668.7
863.312	6767
863.494	7565.71
863.677	6881.69
863.859	6455.71
864.042	7299.47
864.224	7352.72
864.406	6869.4
864.589	6537.63
864.771	6992.28
864.954	6857.11
865.136	6465.95
865.318	6486.43
865.501	7010.71
865.683	6625.69
865.865	6746.52
866.048	6566.3
866.23	6893.97
866.412	6805.91
866.594	6406.56
866.777	6834.58
866.959	7023
867.141	6711.71
867.323	7043.48
867.505	6764.95
867.687	6846.87
867.869	6908.31
868.052	6736.28
868.234	6642.07
868.416	6949.27
868.598	7209.36
868.78	6535.58
868.962	6685.08
869.144	7211.41
869.326	6830.49
869.508	6300.06
869.69	6709.66
869.872	6728.09
870.054	7121.3
870.236	6312.35
870.417	6455.71
870.599	6803.86
870.781	7176.59
870.963	6752.66
871.145	6506.91
871.327	6562.2
871.508	6986.13
871.69	6551.96
871.872	6644.12
872.054	6728.09
872.235	6898.07
872.417	6640.03
872.599	6623.64
872.78	7174.55
872.962	6951.32
873.144	6363.55
873.325	6635.93
873.507	7295.38
873.689	6887.83
873.87	6551.96
874.052	6814.1
874.233	6953.37
874.415	7080.34
874.596	6648.22
874.778	6513.05
874.959	6771.1
875.141	7174.55
875.322	6515.1
875.503	6410.65
875.685	7180.69
875.866	6445.47
876.048	6570.4
876.229	6394.27
876.41	6721.95
876.592	6984.09
876.773	6539.68
876.954	6398.37
877.136	7405.97
877.317	6760.86
877.498	6640.03
877.679	6822.3
877.86	6867.35
878.042	6840.73
878.223	6605.21
878.404	7047.57
878.585	7147.92
878.766	7365.01
878.947	7037.33
879.128	6848.92
879.309	7127.44
879.49	7244.18
879.672	6838.68
879.853	6703.51
880.034	6799.77
880.215	6975.89
880.396	6799.77
880.576	6777.24
880.757	6893.97
880.938	7561.61
881.119	6896.02
881.3	6664.6
881.481	7010.71
881.662	8006.02
881.843	6664.6
882.023	6658.46
882.204	7059.86
882.385	7248.27
882.566	6889.88
882.747	6832.54
882.927	7330.19
883.108	7149.97
883.289	6814.1
883.469	7188.88
883.65	7113.11
883.831	7180.69
884.011	7242.13
884.192	6928.79
884.373	7520.65
884.553	7319.95
884.734	7164.31
884.914	7195.03
885.095	8010.12
885.275	7829.9
885.456	7397.78
885.636	7014.8
885.817	7420.3
885.997	7311.76
886.178	7016.85
886.358	7256.47
886.538	7496.08
886.719	8450.43
886.899	7186.83
887.08	7301.52
887.26	7522.7
887.44	7063.96
887.621	7242.13
887.801	7491.98
887.981	8173.96
888.161	7721.35
888.342	7422.35
888.522	7199.12
888.702	7881.1
888.882	7940.49
889.062	7291.28
889.242	7109.01
889.423	8018.31
889.603	7520.65
889.783	7403.92
889.963	7393.68
890.143	7760.27
890.323	7694.73
890.503	7371.15
890.683	7518.61
890.863	7446.93
891.043	7641.48
891.223	7420.3
891.403	7455.12
891.583	7434.64
891.763	7567.76
891.943	7246.23
892.122	7285.14
892.302	7797.13
892.482	7463.31
892.662	7674.25
892.842	7301.52
893.022	7661.96
893.201	7463.31
893.381	7530.89
893.561	7166.35
893.741	7922.06
893.92	7786.89
894.1	7506.32
894.28	7451.02
894.459	7793.03
894.639	7721.35
894.819	7530.89
894.998	7387.54
895.178	7698.83
895.357	7723.4
895.537	7322
895.716	7258.51
895.896	7580.04
896.075	8184.2
896.255	7403.92
896.434	7334.29
896.614	7952.77
896.793	7956.87
896.973	7494.03
897.152	7326.1
897.331	7827.85
897.511	7987.59
897.69	7348.62
897.87	7729.55
898.049	7926.15
898.228	7674.25
898.407	7829.9
898.587	7580.04
898.766	7502.22
898.945	7717.26
899.124	7639.44
899.304	7543.18
899.483	7977.35
899.662	8006.02
899.841	7479.69
900.02	7350.67
900.199	8161.67
900.378	7500.17
900.557	7207.31
900.737	7233.94
900.916	7803.27
901.095	7727.5
901.274	7491.98
901.453	7356.82
901.632	7604.62
901.811	7461.26
901.989	7414.16
902.168	7057.81
902.347	7752.07
902.526	7289.23
902.705	7199.12
902.884	7440.78
903.063	7874.95
903.242	7979.4
903.42	7063.96
903.599	7307.66
903.778	7840.14
903.957	7977.35
904.135	7362.96
904.314	7410.06
904.493	7743.88
904.672	7793.03
904.85	7348.62
905.029	7471.5
905.207	7672.2
905.386	8284.55
905.565	7225.75
905.743	7184.79
905.922	7219.6
906.1	7504.27
906.279	7057.81
906.457	7088.53
906.636	7217.55
906.814	7307.66
906.993	7066
907.171	6996.37
907.35	7543.18
907.528	7655.82
907.707	7373.2
907.885	6951.32
908.063	7631.24
908.242	7330.19
908.42	7088.53
908.598	6904.21
908.777	7530.89
908.955	7250.32
909.133	7068.05
909.311	6853.02
909.49	7078.29
909.668	7047.57
909.846	6801.82
910.024	6691.23
910.202	7293.33
910.38	7207.31
910.559	6838.68
910.737	6910.36
910.915	7104.92
911.093	7244.18
911.271	6943.13
911.449	7057.81
911.627	7102.87
911.805	7541.13
911.983	6838.68
912.161	6807.96
912.339	7289.23
912.517	7285.14
912.695	6939.03
912.872	6869.4
913.05	6836.63
913.228	7100.82
913.406	6717.85
913.584	6799.77
913.762	7272.85
913.939	6936.98
914.117	6693.27
914.295	6627.74
914.473	7158.16
914.65	6965.65
914.828	6580.64
915.006	6562.2
915.184	6566.3
915.361	6893.97
915.539	6762.9
915.716	6683.03
915.894	6748.57
916.072	6955.41
916.249	6732.19
916.427	6730.14
916.604	6461.85
916.782	6844.82
916.959	6396.32
917.137	6506.91
917.314	6754.71
917.492	6654.36
917.669	6435.23
917.847	6470.05
918.024	6654.36
918.201	6375.84
918.379	6529.44
918.556	6271.39
918.733	6646.17
918.911	6588.83
919.088	6453.66
919.265	6449.57
919.442	6670.75
919.62	6654.36
919.797	6322.59
919.974	6150.56
920.151	6392.22
920.328	6484.38
920.506	6056.36
920.683	6404.51
920.86	5999.01
921.037	5970.34
921.214	6234.53
921.391	5931.43
921.568	6502.81
921.745	6035.88
921.922	5904.81
922.099	6021.54
922.276	6343.07
922.453	6193.57
922.63	5829.03
922.807	6187.43
922.984	6130.08
923.161	5927.33
923.338	5857.7
923.514	5839.27
923.691	6027.68
923.868	6093.22
924.045	5661.1
924.222	5632.43
924.399	6212
924.575	6252.96
924.752	5722.54
924.929	5804.46
925.105	5894.57
925.282	5829.03
925.459	5835.17
925.635	5708.2
925.812	5874.09
925.989	5593.51
926.165	5833.13
926.342	5482.92
926.518	5546.41
926.695	5919.14
926.871	5407.15
927.048	5415.34
927.224	5923.24
927.401	5714.34
927.577	5579.18
927.754	5462.44
927.93	5892.52
928.107	6054.31
928.283	5355.95
928.459	5446.06
928.636	5845.41
928.812	5519.79
928.988	5116.34
929.165	5079.47
929.341	5372.33
929.517	5587.37
929.693	5687.72
929.87	5102
930.046	5700.01
930.222	5306.8
930.398	5233.07
930.574	5331.37
930.751	5570.99
930.927	5325.23
931.103	5159.35
931.279	5013.94
931.455	4985.27
931.631	5245.36
931.807	4843.96
931.983	4866.49
932.159	4796.85
932.335	5353.9
932.511	4884.92
932.687	4749.75
932.863	5214.64
933.039	5118.39
933.215	4583.87
933.391	4512.19
933.566	4714.94
933.742	4913.59
933.918	4549.05
934.094	4395.45
934.27	4827.57
934.445	4743.61
934.621	4610.49
934.797	4383.17
934.973	5007.8
935.148	4731.32
935.324	4254.14
935.5	4075.97
935.675	4768.18
935.851	4432.32
936.027	4137.41
936.202	4200.9
936.378	4364.73
936.553	4270.53
936.729	4366.78
936.904	3840.45
937.08	3826.12
937.255	3793.35
937.431	3690.95
937.606	3541.45
937.782	3652.04
937.957	3770.82
938.133	3621.32
938.308	3277.26
938.483	3561.93
938.659	3408.33
938.834	3264.97
939.009	3189.2
939.185	3455.44
939.36	3021.27
939.535	2771.41
939.71	3172.82
939.886	3492.3
940.061	3504.59
940.236	3154.38
940.411	3119.57
940.586	3305.93
940.761	3305.93
940.937	2896.34
941.112	2689.49
941.287	3080.66
941.462	3045.84
941.637	2712.02
941.812	2736.6
941.987	3138
942.162	2925.01
942.337	2894.29
942.512	2648.54
942.687	2976.21
942.862	3150.29
943.037	2570.71
943.212	2339.29
943.386	2664.92
943.561	2793.94
943.736	2738.65
943.911	2709.97
944.086	2804.18
944.26	2800.09
944.435	2501.08
944.61	2701.78
944.785	3092.94
944.959	3152.34
945.134	2466.27
945.309	2404.83
945.483	2464.22
945.658	2927.06
945.833	2152.93
946.007	2447.83
946.182	3107.28
946.357	2417.12
946.531	2410.97
946.706	2406.88
946.88	2353.63
947.055	2787.8
947.229	2349.53
947.404	2398.68
947.578	2871.76
947.752	2542.04
947.927	2220.51
948.101	2222.56
948.276	2660.82
948.45	2558.42
948.624	2648.54
948.799	2423.26
948.973	2714.07
949.147	2269.66
949.321	2578.9
949.496	2453.98
949.67	2873.81
949.844	2583
950.018	2413.02
950.193	2367.96
950.367	3015.12
950.541	2617.82
950.715	2595.29
950.889	2507.23
951.063	2615.77
951.237	2873.81
951.411	2193.89
951.585	2304.48
951.759	2802.13
951.933	2714.07
952.107	2392.54
952.281	2533.85
952.455	2972.11
952.629	2804.18
952.803	2439.64
952.977	2230.75
953.151	2808.28
953.325	2763.22
953.499	2566.62
953.672	2234.85
953.846	2367.96
954.02	2548.19
954.194	2333.15
954.368	2359.77
954.541	2783.7
954.715	2505.18
954.889	2486.75
955.062	2324.96
955.236	2677.21
955.41	2709.97
955.583	2607.58
955.757	2173.41
955.93	2574.81
956.104	2388.44
956.278	2380.25
956.451	2437.59
956.625	2714.07
956.798	3125.71
956.972	2718.17
957.145	2284
957.319	2660.82
957.492	2658.78
957.665	2542.04
957.839	2316.76
958.012	2740.69
958.185	2408.92
958.359	2249.18
958.532	2552.28
958.705	2669.02
958.879	2589.14
959.052	2447.83
959.225	2234.85
959.398	2515.42
959.572	2732.5
959.745	2302.43
959.918	2331.1
960.091	2492.89
960.264	2873.81
960.438	2206.17
960.611	2216.41
960.784	2755.03
960.957	2275.81
961.13	2877.91
961.303	2265.57
961.476	2636.25
961.649	2771.41
961.822	2202.08
961.995	2390.49
962.168	2638.3
962.341	2654.68
962.514	2327
962.686	2193.89
962.859	2513.37
963.032	2638.3
963.205	2277.85
963.378	2222.56
963.551	2566.62
963.723	2509.27
963.896	2552.28
964.069	2363.87
964.242	2521.56
964.414	2738.65
964.587	2327
964.76	2404.83
964.932	2654.68
965.105	2533.85
965.278	2224.61
965.45	2208.22
965.623	2437.59
965.795	2714.07
965.968	2095.58
966.14	2181.6
966.313	2318.81
966.485	2478.55
966.658	2179.55
966.83	2157.02
967.003	2787.8
967.175	2517.47
967.348	2197.98
967.52	2240.99
967.692	2853.33
967.865	2615.77
968.037	2230.75
968.209	2410.97
968.382	2386.4
968.554	2556.38
968.726	2236.89
968.898	2134.5
969.071	2607.58
969.243	2566.62
969.415	2277.85
969.587	2294.24
969.759	2900.44
969.932	2648.54
970.104	2236.89
970.276	1915.36
970.448	2365.92
970.62	2236.89
970.792	2267.61
970.964	2216.41
971.136	2845.14
971.308	2494.94
971.48	2152.93
971.652	2071.01
971.824	2836.95
971.996	2294.24
972.168	2200.03
972.339	2148.83
972.511	2554.33
972.683	2277.85
972.855	2335.2
973.027	2228.7
973.199	2308.57
973.37	2417.12
973.542	2337.24
973.714	2226.65
973.886	2210.27
974.057	2501.08
974.229	1927.65
974.401	1950.18
974.572	2105.82
974.744	1808.87
974.915	1853.92
975.087	1941.99
975.259	2482.65
975.43	2085.34
975.602	1997.28
975.773	1839.59
975.945	1933.79
976.116	2359.77
976.288	1946.08
976.459	2359.77
976.63	2161.12
976.802	2486.75
976.973	1870.31
977.145	2173.41
977.316	2693.59
977.487	2595.29
977.659	2222.56
977.83	2062.82
978.001	2660.82
978.172	2243.04
978.344	1767.91
978.515	2052.58
978.686	2105.82
978.857	2576.86
979.028	2007.52
979.2	2083.3
979.371	2374.11
979.542	2288.09
979.713	2144.74
979.884	1614.31
980.055	2038.24
980.226	2146.78
980.397	1968.61
980.568	1878.5
980.739	2456.03
980.91	2212.32
981.081	2062.82
981.252	1831.4
981.423	2294.24
981.594	2410.97
981.765	1860.07
981.936	1882.6
982.106	2224.61
982.277	2449.88
982.448	1874.4
982.619	1903.07
982.79	2011.62
982.96	2496.99
983.131	1993.19
983.302	1638.89
983.472	2066.91
983.643	2177.5
983.814	2085.34
983.984	1825.25
984.155	1952.23
984.326	2329.05
984.496	1886.69
984.667	1923.55
984.837	1702.37
985.008	2349.53
985.178	1917.41
985.349	1915.36
985.519	2025.95
985.69	1952.23
985.86	1907.17
986.031	1640.93
986.201	2015.71
986.371	2245.09
986.542	1743.33
986.712	1665.51
986.882	2189.79
987.053	2136.54
987.223	1710.57
987.393	2048.48
987.563	1892.84
987.734	2163.17
987.904	2087.39
988.074	1716.71
988.244	2105.82
988.414	1878.5
988.585	1640.93
988.755	1825.25
988.925	1876.45
989.095	2374.11
989.265	1642.98
989.435	1778.15
989.605	2140.64
989.775	2118.11
989.945	1882.6
990.115	1556.97
990.285	1907.17
990.455	1997.28
990.625	1788.39
990.795	1696.23
990.965	2312.67
991.134	1759.72
991.304	1612.26
991.474	1702.37
991.644	1984.99
991.814	2214.37
991.984	1516.01
992.153	1636.84
992.323	1815.01
992.493	1894.88
992.662	1456.62
992.832	1726.95
993.002	1870.31
993.171	1925.6
993.341	1460.71
993.511	1745.38
993.68	1737.19
993.85	2005.47
994.019	1534.44
994.189	1552.87
994.358	1966.56
994.528	1694.18
994.697	1317.36
994.867	1487.34
995.036	1999.33
995.206	1731.05
995.375	1403.37
995.544	1622.5
995.714	1915.36
995.883	1673.7
996.052	1665.51
996.222	1337.84
996.391	2308.57
996.56	1786.34
996.73	1356.27
996.899	1397.23
997.068	2236.89
997.237	1817.06
997.406	1354.22
997.576	1227.25
997.745	1708.52
997.914	1860.07
998.083	1255.92
998.252	1391.08
998.421	1692.13
998.59	1528.3
998.759	1196.53
998.928	1243.63
999.097	1931.75
999.266	1784.29
999.435	1495.53
999.604	1104.37
999.773	2083.3
999.942	1620.46
1000.111	1149.42
1000.28	1223.15
1000.448	1489.39
1000.617	1503.72
1000.786	1432.04
1000.955	1229.29
1001.124	1737.19
1001.292	2324.96
1001.461	1307.12
1001.63	1352.17
1001.798	2048.48
1001.967	1978.85
1002.136	1094.13
1002.304	1214.96
1002.473	1669.61
1002.642	1616.36
1002.81	1288.68
1002.979	1350.12
1003.147	1735.14
1003.316	2091.49
1003.484	1264.11
1003.653	1180.14
1003.821	1858.02
1003.99	1518.06
1004.158	1473
1004.327	1321.45
1004.495	1696.23
1004.663	1305.07
1004.832	1331.69
1005	1030.64
1005.168	1667.56
1005.337	1653.22
1005.505	1104.37
1005.673	1366.51
1005.842	1622.5
1006.01	1608.17
1006.178	1075.7
1006.346	1104.37
1006.514	1554.92
1006.683	1642.98
1006.851	1100.27
1007.019	1067.5
1007.187	1204.72
1007.355	1083.89
1007.523	944.63
1007.691	1112.56
1007.859	1163.76
1008.027	1786.34
1008.195	1092.08
1008.363	989.68
1008.531	1651.17
1008.699	1276.4
1008.867	993.78
1009.035	1151.47
1009.203	1772
1009.37	1450.47
1009.538	1036.78
1009.706	1538.54
1009.874	1464.81
1010.042	1378.79
1010.209	1014.26
1010.377	1047.02
1010.545	1593.83
1010.713	1382.89
1010.88	1061.36
1011.048	1087.98
1011.216	1313.26
1011.383	1817.06
1011.551	1001.97
1011.718	915.95
1011.886	1593.83
1012.054	1339.88
1012.221	999.92
1012.389	934.39
1012.556	1333.74
1012.724	1708.52
1012.891	958.96
1013.058	692.73
1013.226	1419.75
1013.393	1454.57
1013.561	809.46
1013.728	803.32
1013.895	1548.78
1014.063	1384.94
1014.23	842.23
1014.397	899.57
1014.565	1591.78
1014.732	1167.85
1014.899	936.43
1015.066	868.85
1015.233	1276.4
1015.401	1407.47
1015.568	928.24
1015.735	920.05
1015.902	1333.74
1016.069	1292.78
1016.236	897.52
1016.403	823.8
1016.57	1034.74
1016.737	1493.48
1016.904	836.08
1017.071	793.08
1017.238	997.87
1017.405	1376.75
1017.572	766.45
1017.739	1053.17
1017.906	1264.11
1018.073	1245.68
1018.24	727.54
1018.407	858.61
1018.573	1380.84
1018.74	1190.38
1018.907	858.61
1019.074	637.43
1019.241	1468.91
1019.407	1231.34
1019.574	702.97
1019.741	637.43
1019.907	1219.05
1020.074	1260.01
1020.241	547.32
1020.407	713.21
1020.574	1251.82
1020.74	1286.64
1020.907	866.8
1021.073	774.64
1021.24	1612.26
1021.406	1370.6
1021.573	745.97
1021.739	727.54
1021.906	1417.71
1022.072	969.2
1022.239	711.16
1022.405	870.9
1022.571	1059.31
1022.738	870.9
1022.904	711.16
1023.07	727.54
1023.237	1042.93
1023.403	1157.61
1023.569	723.44
1023.735	711.16
1023.902	1100.27
1024.068	1061.36
1024.234	555.51
1024.4	563.7
1024.566	1157.61
1024.732	1225.2
1024.898	608.76
1025.065	494.07
1025.231	1194.48
1025.397	895.47
1025.563	686.58
1025.729	621.05
1025.895	563.7
1026.061	731.64
1026.227	518.65
1026.392	682.49
1026.558	1217.01
1026.724	1104.37
1026.89	610.81
1027.056	752.12
1027.222	1153.52
1027.388	821.75
1027.553	670.2
1027.719	541.18
1027.885	1305.07
1028.051	1157.61
1028.216	410.11
1028.382	580.09
1028.548	1120.75
1028.713	813.56
1028.879	412.15
1029.045	788.98
1029.21	1288.68
1029.376	1141.23
1029.541	629.24
1029.707	530.94
1029.873	1108.46
1030.038	1188.33
1030.204	637.43
1030.369	608.76
1030.534	1171.95
1030.7	840.18
1030.865	569.85
1031.031	453.11
1031.196	977.39
1031.361	995.82
1031.527	408.06
1031.692	481.78
1031.857	604.66
1032.023	1065.46
1032.188	322.04
1032.353	487.93
1032.518	1260.01
1032.684	977.39
1032.849	322.04
1033.014	567.8
1033.179	924.15
1033.344	1001.97
1033.509	573.94
1033.674	455.16
1033.839	1024.5
1034.004	1034.74
1034.17	467.45
1034.335	326.14
1034.5	809.46
1034.664	721.4
1034.829	459.26
1034.994	485.88
1035.159	797.17
1035.324	944.63
1035.489	522.74
1035.654	393.72
1035.819	1145.33
1035.984	903.67
1036.148	469.5
1036.313	494.07
1036.478	1075.7
1036.643	827.89
1036.807	332.28
1036.972	276.99
1037.137	1137.13
1037.301	825.84
1037.466	283.13
1037.631	530.94
1037.795	1083.89
1037.96	780.79
1038.124	559.61
1038.289	238.08
1038.454	1014.26
1038.618	975.35
1038.783	434.68
1038.947	586.23
1039.111	729.59
1039.276	698.87
1039.44	272.89
1039.605	838.13
1039.769	705.01
1039.933	827.89
1040.098	432.63
1040.262	580.09
1040.426	965.11
1040.591	940.53
1040.755	307.71
1040.919	289.28
1041.083	879.09
1041.248	745.97
1041.412	262.65
1041.576	268.8
1041.74	629.24
1041.904	874.99
1042.068	276.99
1042.232	317.95
1042.397	782.84
1042.561	885.23
1042.725	166.4
1042.889	457.21
1043.053	821.75
1043.217	788.98
1043.381	426.49
1043.544	252.41
1043.708	944.63
1043.872	422.39
1044.036	156.16
1044.2	201.21
1044.364	1018.35
1044.528	987.63
1044.691	5222.83
1044.855	285.18
1045.019	862.71
1045.183	813.56
1045.346	428.54
1045.51	209.4
1045.674	784.88
1045.837	811.51
1046.001	295.42
1046.165	276.99
1046.328	1227.25
1046.492	745.97
1046.655	487.93
1046.819	285.18
1046.983	608.76
1047.146	702.97
1047.31	358.91
1047.473	68.09
1047.636	657.91
1047.8	477.69
1047.963	313.85
1048.127	248.32
1048.29	496.12
