Data from Ink_Intensity_USB4F045381__72__00072.txt Node

Date: Mon Jul 17 10:39:57 EDT 2023
User: mmckonesweet
Spectrometer: USB4F04538
Trigger mode: 4
Integration Time (sec): 9.000000E-1
Scans to average: 1
Electric dark correction enabled: true
Nonlinearity correction enabled: false
Boxcar width: 0
XAxis mode: Wavelengths
Number of Pixels in Spectrum: 3648
>>>>>Begin Spectral Data<<<<<
345.52	-996.85
345.736	-996.85
345.952	-996.85
346.168	-1027.57
346.384	-1005.04
346.6	-181.76
346.816	-284.16
347.032	-210.43
347.248	209.4
347.464	-187.9
347.68	-130.56
347.896	86.53
348.112	483.83
348.328	-24.06
348.544	-77.31
348.76	31.23
348.975	285.18
349.191	-286.2
349.407	-206.33
349.623	6.66
349.839	-110.08
350.055	-101.89
350.27	-32.26
350.486	166.4
350.702	322.04
350.918	184.83
351.133	-120.32
351.349	125.44
351.565	381.43
351.781	-235
351.996	-56.83
352.212	287.23
352.428	-171.52
352.644	-253.44
352.859	-253.44
353.075	242.17
353.291	74.24
353.506	-169.47
353.722	-218.62
353.938	-28.16
354.153	363
354.369	18.94
354.584	-208.38
354.8	213.5
355.016	-273.92
355.231	-255.48
355.447	-56.83
355.662	-17.92
355.878	809.46
356.093	-384.51
356.309	-13.82
356.524	-257.53
356.74	326.14
356.955	-148.99
357.171	-56.83
357.386	188.93
357.602	-310.78
357.817	-99.84
358.033	-204.28
358.248	330.23
358.464	127.49
358.679	-124.41
358.895	-261.63
359.11	-73.21
359.325	287.23
359.541	61.95
359.756	-34.3
359.972	-226.81
360.187	186.88
360.402	-169.47
360.618	-239.1
360.833	883.19
361.048	170.49
361.264	-222.72
361.479	-44.54
361.694	-62.98
361.909	178.69
362.125	-189.95
362.34	-171.52
362.555	266.75
362.77	82.43
362.986	-269.82
363.201	-140.8
363.416	147.97
363.631	-40.45
363.847	-171.52
364.062	-132.61
364.277	201.21
364.492	43.52
364.707	-198.14
364.922	-374.27
365.138	209.4
365.353	338.43
365.568	-259.58
365.783	-185.85
365.998	20.99
366.213	522.74
366.428	-304.64
366.643	27.14
366.858	203.26
367.073	188.93
367.288	-163.33
367.503	-224.76
367.718	47.62
367.933	203.26
368.148	-312.83
368.363	-75.26
368.578	-1.54
368.793	352.76
369.008	-177.66
369.223	-292.35
369.438	160.25
369.653	352.76
369.868	-239.1
370.083	-220.67
370.298	70.14
370.513	358.91
370.728	82.43
370.943	-222.72
371.157	-189.95
371.372	496.12
371.587	-288.25
371.802	-284.16
372.017	55.81
372.232	391.67
372.446	-48.64
372.661	-206.33
372.876	266.75
373.091	201.21
373.306	-132.61
373.52	-282.11
373.735	-144.89
373.95	381.43
374.165	-214.52
374.379	-177.66
374.594	-132.61
374.809	2.56
375.023	0.51
375.238	-308.73
375.453	272.89
375.667	-241.15
375.882	-196.09
376.097	-194.05
376.311	23.04
376.526	-38.4
376.741	-300.54
376.955	117.25
377.17	510.46
377.384	516.6
377.599	-73.21
377.813	-247.29
378.028	604.66
378.242	92.67
378.457	-157.18
378.672	-372.22
378.886	74.24
379.101	-67.07
379.315	-327.16
379.53	-130.56
379.744	256.51
379.958	223.74
380.173	-179.71
380.387	-216.57
380.602	88.57
380.816	-69.12
381.031	-173.57
381.245	-151.04
381.459	84.48
381.674	2738.65
381.888	-337.4
382.103	90.62
382.317	-167.42
382.531	416.25
382.746	-108.03
382.96	-208.38
383.174	-101.89
383.388	401.91
383.603	-1.54
383.817	-294.4
384.031	137.73
384.246	383.48
384.46	68.09
384.674	225.79
384.888	4.61
385.103	115.2
385.317	-253.44
385.531	-48.64
385.745	229.88
385.959	260.6
386.174	-230.91
386.388	-294.4
386.602	29.18
386.816	-181.76
387.03	-148.99
387.244	-138.75
387.458	70.14
387.672	305.66
387.887	-304.64
388.101	-269.82
388.315	305.66
388.529	117.25
388.743	-83.45
388.957	-308.73
389.171	276.99
389.385	-204.28
389.599	-122.37
389.813	-3.58
390.027	152.06
390.241	666.1
390.455	-130.56
390.669	-171.52
390.883	-79.36
391.097	416.25
391.311	-5.63
391.525	-214.52
391.738	166.4
391.952	135.68
392.166	-144.89
392.38	-259.58
392.594	252.41
392.808	356.86
393.022	-155.13
393.236	-89.6
393.449	166.4
393.663	199.16
393.877	-259.58
394.091	-85.5
394.305	-36.35
394.518	-54.78
394.732	-370.17
394.946	-169.47
395.16	442.87
395.373	109.05
395.587	-243.2
395.801	-224.76
396.015	295.42
396.228	135.68
396.442	-382.46
396.656	-419.32
396.869	307.71
397.083	379.39
397.297	-52.74
397.51	-185.85
397.724	360.95
397.938	104.96
398.151	-376.31
398.365	-327.16
398.578	182.78
398.792	344.57
399.005	-22.02
399.219	-103.93
399.433	162.3
399.646	154.11
399.86	6.66
400.073	2.56
400.287	115.2
400.5	-17.92
400.714	-91.65
400.927	-146.94
401.141	213.5
401.354	1104.37
401.567	104.96
401.781	-263.68
401.994	152.06
402.208	565.75
402.421	-175.61
402.635	-161.28
402.848	0.51
403.061	252.41
403.275	-15.87
403.488	-239.1
403.701	369.15
403.915	266.75
404.128	-42.5
404.341	-165.37
404.555	113.15
404.768	80.38
404.981	6.66
405.195	-212.48
405.408	467.45
405.621	233.98
405.834	-30.21
406.048	-226.81
406.261	428.54
406.474	457.21
406.687	-198.14
406.9	-1.54
407.114	23.04
407.327	96.77
407.54	-288.25
407.753	-288.25
407.966	-204.28
408.179	221.69
408.392	-255.48
408.605	-364.03
408.819	154.11
409.032	211.45
409.245	-222.72
409.458	-13.82
409.671	301.56
409.884	188.93
410.097	-288.25
410.31	14.85
410.523	174.59
410.736	-48.64
410.949	-200.19
411.162	-83.45
411.375	428.54
411.588	371.19
411.801	20.99
412.014	-169.47
412.227	-71.17
412.44	-62.98
412.653	-261.63
412.865	-46.59
413.078	328.19
413.291	219.64
413.504	-34.3
413.717	-273.92
413.93	207.36
414.143	-114.17
414.356	-120.32
414.568	-314.88
414.781	297.47
414.994	96.77
415.207	-122.37
415.42	-124.41
415.632	217.6
415.845	428.54
416.058	-296.44
416.271	-304.64
416.483	47.62
416.696	453.11
416.909	-175.61
417.121	-265.72
417.334	127.49
417.547	555.51
417.759	-247.29
417.972	-232.96
418.185	-79.36
418.397	236.03
418.61	-259.58
418.823	-181.76
419.035	330.23
419.248	-7.68
419.46	-134.65
419.673	-95.74
419.885	215.55
420.098	-75.26
420.311	-132.61
420.523	-400.89
420.736	244.22
420.948	-15.87
421.161	-198.14
421.373	-382.46
421.586	133.63
421.798	-112.13
422.01	-329.21
422.223	-83.45
422.435	-155.13
422.648	219.64
422.86	-196.09
423.073	-206.33
423.285	281.08
423.497	-302.59
423.71	-181.76
423.922	-237.05
424.134	104.96
424.347	399.87
424.559	80.38
424.771	88.57
424.984	-54.78
425.196	90.62
425.408	-359.93
425.621	-269.82
425.833	238.08
426.045	248.32
426.257	-316.92
426.47	-214.52
426.682	90.62
426.894	156.16
427.106	-204.28
427.318	-226.81
427.531	-212.48
427.743	162.3
427.955	-189.95
428.167	123.39
428.379	80.38
428.591	-5.63
428.804	-71.17
429.016	-280.06
429.228	-91.65
429.44	174.59
429.652	-50.69
429.864	-286.2
430.076	-34.3
430.288	-3.58
430.5	-120.32
430.712	-140.8
430.924	188.93
431.136	53.76
431.348	-339.45
431.56	-171.52
431.772	14.85
431.984	-13.82
432.196	-165.37
432.408	-179.71
432.62	18.94
432.832	145.92
433.044	-65.02
433.256	-50.69
433.468	113.15
433.679	-235
433.891	-206.33
434.103	-52.74
434.315	276.99
434.527	180.73
434.739	-189.95
434.95	-163.33
435.162	240.12
435.374	-56.83
435.586	-134.65
435.798	-130.56
436.009	-153.09
436.221	-17.92
436.433	-269.82
436.645	-251.39
436.856	-126.46
437.068	334.33
437.28	-278.01
437.491	8.7
437.703	113.15
437.915	72.19
438.126	-214.52
438.338	39.42
438.55	-58.88
438.761	174.59
438.973	-208.38
439.184	-169.47
439.396	41.47
439.608	180.73
439.819	-292.35
440.031	-83.45
440.242	231.93
440.454	217.6
440.665	-202.24
440.877	-67.07
441.088	102.91
441.3	-40.45
441.511	-329.21
441.723	-288.25
441.934	195.07
442.146	68.09
442.357	-32.26
442.569	14.85
442.78	-7.68
442.991	422.39
443.203	162.3
443.414	-259.58
443.626	272.89
443.837	-159.23
444.048	-261.63
444.26	-361.98
444.471	29.18
444.682	176.64
444.894	-394.75
445.105	-335.35
445.316	227.84
445.528	109.05
445.739	-167.42
445.95	-181.76
446.161	59.9
446.373	262.65
446.584	-226.81
446.795	-218.62
447.006	115.2
447.217	385.53
447.429	-359.93
447.64	-343.55
447.851	266.75
448.062	-67.07
448.273	-355.83
448.484	-286.2
448.695	180.73
448.907	-1.54
449.118	-206.33
449.329	-13.82
449.54	-210.43
449.751	-228.86
449.962	-271.87
450.173	-228.86
450.384	285.18
450.595	418.3
450.806	-214.52
451.017	-210.43
451.228	438.78
451.439	150.01
451.65	-165.37
451.861	-415.23
452.072	-198.14
452.283	23.04
452.494	-32.26
452.705	-247.29
452.915	356.86
453.126	119.29
453.337	-206.33
453.548	-296.44
453.759	295.42
453.97	543.22
454.181	-83.45
454.391	-198.14
454.602	78.33
454.813	211.45
455.024	-183.81
455.235	-249.34
455.445	43.52
455.656	96.77
455.867	-38.4
456.078	-282.11
456.288	-81.41
456.499	100.86
456.71	-335.35
456.921	59.9
457.131	137.73
457.342	82.43
457.553	-157.18
457.763	-255.48
457.974	211.45
458.184	154.11
458.395	-312.83
458.606	-318.97
458.816	285.18
459.027	440.83
459.237	-157.18
459.448	-411.13
459.659	313.85
459.869	485.88
460.08	-333.31
460.29	-124.41
460.501	467.45
460.711	-110.08
460.922	-321.02
461.132	-269.82
461.343	657.91
461.553	-280.06
461.764	-196.09
461.974	-257.53
462.184	160.25
462.395	68.09
462.605	-153.09
462.816	-296.44
463.026	119.29
463.236	328.19
463.447	-284.16
463.657	-232.96
463.867	260.6
464.078	-32.26
464.288	-214.52
464.498	-372.22
464.709	0.51
464.919	6.66
465.129	-224.76
465.339	-331.26
465.55	133.63
465.76	252.41
465.97	-204.28
466.18	-308.73
466.391	195.07
466.601	39.42
466.811	-181.76
467.021	-300.54
467.231	92.67
467.441	285.18
467.651	-187.9
467.862	-456.19
468.072	47.62
468.282	342.52
468.492	-263.68
468.702	-198.14
468.912	-34.3
469.122	557.56
469.332	25.09
469.542	-337.4
469.752	184.83
469.962	55.81
470.172	-263.68
470.382	-312.83
470.592	158.21
470.802	229.88
471.012	-124.41
471.222	-271.87
471.432	264.7
471.642	199.16
471.852	-159.23
472.062	-253.44
472.272	-52.74
472.482	-253.44
472.691	-402.94
472.901	-339.45
473.111	14.85
473.321	578.04
473.531	-335.35
473.741	-181.76
473.95	53.76
474.16	201.21
474.37	-132.61
474.58	-388.6
474.79	403.96
474.999	207.36
475.209	-339.45
475.419	-241.15
475.628	-48.64
475.838	348.67
476.048	-235
476.258	-351.74
476.467	250.36
476.677	-54.78
476.886	-36.35
477.096	-163.33
477.306	-120.32
477.515	371.19
477.725	-214.52
477.935	-187.9
478.144	358.91
478.354	-163.33
478.563	-136.7
478.773	-388.6
478.982	225.79
479.192	360.95
479.401	-153.09
479.611	-329.21
479.82	-222.72
480.03	23.04
480.239	-300.54
480.449	-341.5
480.658	385.53
480.868	-175.61
481.077	-204.28
481.287	-210.43
481.496	78.33
481.705	285.18
481.915	-79.36
482.124	-17.92
482.333	41.47
482.543	389.63
482.752	-161.28
482.961	-278.01
483.171	219.64
483.38	-30.21
483.589	-255.48
483.799	-273.92
484.008	-44.54
484.217	178.69
484.426	-208.38
484.636	-368.12
484.845	66.05
485.054	-269.82
485.263	109.05
485.472	-194.05
485.682	449.02
485.891	6.66
486.1	-402.94
486.309	-275.96
486.518	141.82
486.727	256.51
486.936	-275.96
487.146	-75.26
487.355	352.76
487.564	-187.9
487.773	-222.72
487.982	-226.81
488.191	-81.41
488.4	-32.26
488.609	-247.29
488.818	-265.72
489.027	530.94
489.236	360.95
489.445	-224.76
489.654	-249.34
489.863	279.04
490.072	8.7
490.281	125.44
490.49	-204.28
490.698	416.25
490.907	315.9
491.116	-263.68
491.325	-407.03
491.534	332.28
491.743	90.62
491.952	-224.76
492.16	-200.19
492.369	76.29
492.578	303.61
492.787	-198.14
492.996	-183.81
493.204	-99.84
493.413	481.78
493.622	-409.08
493.831	-417.27
494.039	326.14
494.248	-214.52
494.457	-275.96
494.665	-392.7
494.874	141.82
495.083	514.55
495.291	-173.57
495.5	-353.79
495.709	137.73
495.917	76.29
496.126	-208.38
496.335	-294.4
496.543	-75.26
496.752	96.77
496.96	-95.74
497.169	-425.47
497.377	100.86
497.586	276.99
497.794	-202.24
498.003	-425.47
498.211	-28.16
498.42	350.71
498.628	-146.94
498.837	-331.26
499.045	68.09
499.254	115.2
499.462	-159.23
499.671	-308.73
499.879	422.39
500.087	266.75
500.296	-327.16
500.504	-239.1
500.713	70.14
500.921	575.99
501.129	-318.97
501.338	-179.71
501.546	31.23
501.754	121.34
501.962	-267.77
502.171	-349.69
502.379	150.01
502.587	365.05
502.795	-222.72
503.004	-263.68
503.212	16.9
503.42	350.71
503.628	-212.48
503.837	-181.76
504.045	203.26
504.253	379.39
504.461	-298.49
504.669	-458.23
504.877	236.03
505.085	379.39
505.294	-392.7
505.502	-42.5
505.71	47.62
505.918	258.56
506.126	-314.88
506.334	-343.55
506.542	-38.4
506.75	78.33
506.958	-157.18
507.166	-239.1
507.374	-56.83
507.582	340.47
507.79	-177.66
507.998	-253.44
508.206	190.97
508.414	135.68
508.622	-345.59
508.83	-208.38
509.037	375.29
509.245	-34.3
509.453	-302.59
509.661	-325.12
509.869	193.02
510.077	-26.11
510.285	-134.65
510.492	-550.39
510.7	545.27
510.908	-79.36
511.116	-247.29
511.324	-282.11
511.531	2.56
511.739	84.48
511.947	-206.33
512.155	-3.58
512.362	59.9
512.57	-228.86
512.778	-321.02
512.985	-421.37
513.193	289.28
513.401	297.47
513.608	-183.81
513.816	-253.44
514.024	172.54
514.231	274.94
514.439	-278.01
514.646	-265.72
514.854	162.3
515.061	254.46
515.269	-245.24
515.477	-343.55
515.684	-185.85
515.892	246.27
516.099	-382.46
516.307	-390.65
516.514	225.79
516.722	457.21
516.929	-304.64
517.136	-366.07
517.344	350.71
517.551	113.15
517.759	-288.25
517.966	-237.05
518.173	-54.78
518.381	-38.4
518.588	-226.81
518.796	-278.01
519.003	168.45
519.21	-1.54
519.418	-218.62
519.625	-15.87
519.832	18.94
520.039	66.05
520.247	-472.57
520.454	-331.26
520.661	201.21
520.868	186.88
521.076	-259.58
521.283	-302.59
521.49	565.75
521.697	133.63
521.904	-275.96
522.112	-366.07
522.319	190.97
522.526	164.35
522.733	-261.63
522.94	-337.4
523.147	64
523.354	188.93
523.561	-409.08
523.768	-136.7
523.975	199.16
524.183	47.62
524.39	-189.95
524.597	-400.89
524.804	0.51
525.011	-245.24
525.218	-343.55
525.425	-286.2
525.632	330.23
525.838	-83.45
526.045	-359.93
526.252	-337.4
526.459	1098.22
526.666	909.81
526.873	-257.53
527.08	-288.25
527.287	354.81
527.494	250.36
527.701	-343.55
527.907	-394.75
528.114	55.81
528.321	-50.69
528.528	-230.91
528.735	-327.16
528.941	-60.93
529.148	-148.99
529.355	-175.61
529.562	-353.79
529.768	385.53
529.975	-54.78
530.182	-265.72
530.388	-284.16
530.595	229.88
530.802	-226.81
531.008	-140.8
531.215	-294.4
531.422	612.85
531.628	735.73
531.835	-157.18
532.042	-155.13
532.248	-136.7
532.455	90.62
532.661	-267.77
532.868	-292.35
533.074	-42.5
533.281	123.39
533.487	-261.63
533.694	-267.77
533.9	-296.44
534.107	96.77
534.313	-329.21
534.52	-378.36
534.726	207.36
534.933	446.97
535.139	-402.94
535.345	-366.07
535.552	135.68
535.758	-5.63
535.965	-261.63
536.171	-353.79
536.377	207.36
536.584	438.78
536.79	-282.11
536.996	-214.52
537.203	41.47
537.409	186.88
537.615	-298.49
537.821	-132.61
538.028	195.07
538.234	172.54
538.44	-292.35
538.646	-237.05
538.853	72.19
539.059	-67.07
539.265	76.29
539.471	-486.9
539.677	279.04
539.883	-153.09
540.09	-269.82
540.296	150.01
540.502	-22.02
540.708	-140.8
540.914	-83.45
541.12	-327.16
541.326	127.49
541.532	-91.65
541.738	-93.69
541.944	-257.53
542.15	190.97
542.356	-5.63
542.562	-343.55
542.768	-243.2
542.974	580.09
543.18	461.3
543.386	-271.87
543.592	-396.79
543.798	352.76
544.004	264.7
544.21	-390.65
544.415	-179.71
544.621	59.9
544.827	258.56
545.033	-331.26
545.239	-34.3
545.445	-175.61
545.651	98.81
545.856	-286.2
546.062	-288.25
546.268	-122.37
546.474	-5.63
546.679	-308.73
546.885	-167.42
547.091	-198.14
547.297	428.54
547.502	-230.91
547.708	-361.98
547.914	-148.99
548.119	176.64
548.325	-376.31
548.531	-302.59
548.736	301.56
548.942	-181.76
549.147	-333.31
549.353	-118.27
549.559	258.56
549.764	113.15
549.97	-292.35
550.175	-271.87
550.381	154.11
550.586	-210.43
550.792	-214.52
550.997	-261.63
551.203	147.97
551.408	238.08
551.614	-423.42
551.819	-308.73
552.025	375.29
552.23	436.73
552.435	-335.35
552.641	-216.57
552.846	-122.37
553.052	285.18
553.257	-103.93
553.462	-321.02
553.668	-99.84
553.873	240.12
554.078	-296.44
554.283	-333.31
554.489	16.9
554.694	-38.4
554.899	-402.94
555.105	-110.08
555.31	121.34
555.515	264.7
555.72	-138.75
555.925	-361.98
556.131	211.45
556.336	-89.6
556.541	-325.12
556.746	-370.17
556.951	203.26
557.156	391.67
557.361	-181.76
557.567	-161.28
557.772	532.98
557.977	123.39
558.182	-341.5
558.387	-357.88
558.592	-83.45
558.797	254.46
559.002	-187.9
559.207	-239.1
559.412	-124.41
559.617	498.17
559.822	-243.2
560.027	-261.63
560.232	123.39
560.437	186.88
560.642	-368.12
560.847	-357.88
561.051	51.71
561.256	141.82
561.461	-222.72
561.666	-382.46
561.871	-30.21
562.076	164.35
562.281	-175.61
562.485	-382.46
562.69	92.67
562.895	258.56
563.1	-263.68
563.305	-341.5
563.509	289.28
563.714	541.18
563.919	-286.2
564.123	-290.3
564.328	16.9
564.533	227.84
564.737	-247.29
564.942	-253.44
565.147	465.4
565.351	514.55
565.556	-128.51
565.761	-136.7
565.965	27.14
566.17	-122.37
566.374	-331.26
566.579	-431.61
566.784	66.05
566.988	-65.02
567.193	-345.59
567.397	-296.44
567.602	-337.4
567.806	-17.92
568.011	-261.63
568.215	-265.72
568.42	-83.45
568.624	-1.54
568.828	-349.69
569.033	-177.66
569.237	25.09
569.442	123.39
569.646	-404.99
569.85	-226.81
570.055	-13.82
570.259	80.38
570.463	-71.17
570.668	-206.33
570.872	49.66
571.076	-26.11
571.281	-140.8
571.485	-185.85
571.689	-46.59
571.893	229.88
572.098	-169.47
572.302	-206.33
572.506	133.63
572.71	14.85
572.914	-245.24
573.119	-196.09
573.323	289.28
573.527	264.7
573.731	-337.4
573.935	-413.18
574.139	0.51
574.343	-161.28
574.547	-230.91
574.751	-325.12
574.955	272.89
575.159	334.33
575.364	-284.16
575.568	-376.31
575.772	-36.35
575.976	311.8
576.18	-312.83
576.383	-433.66
576.587	150.01
576.791	109.05
576.995	-402.94
577.199	-431.61
577.403	195.07
577.607	248.32
577.811	-392.7
578.015	-220.67
578.219	39.42
578.422	238.08
578.626	-294.4
578.83	-134.65
579.034	170.49
579.238	119.29
579.442	-304.64
579.645	39.42
579.849	23.04
580.053	-19.97
580.257	-243.2
580.46	-218.62
580.664	203.26
580.868	129.53
581.071	-67.07
581.275	-267.77
581.479	-357.88
581.682	145.92
581.886	-318.97
582.09	-218.62
582.293	221.69
582.497	197.12
582.7	-114.17
582.904	-384.51
583.107	31.23
583.311	-38.4
583.515	-169.47
583.718	-280.06
583.922	184.83
584.125	428.54
584.329	-304.64
584.532	-124.41
584.735	250.36
584.939	76.29
585.142	-413.18
585.346	-288.25
585.549	51.71
585.753	-157.18
585.956	-296.44
586.159	-161.28
586.363	410.11
586.566	190.97
586.769	-325.12
586.973	-333.31
587.176	182.78
587.379	258.56
587.582	64
587.786	-157.18
587.989	-36.35
588.192	586.23
588.395	-216.57
588.599	-34.3
588.802	41.47
589.005	150.01
589.208	-243.2
589.411	-247.29
589.615	285.18
589.818	379.39
590.021	-19.97
590.224	-255.48
590.427	205.31
590.63	127.49
590.833	-511.48
591.036	-314.88
591.239	-132.61
591.442	-22.02
591.645	-24.06
591.848	-284.16
592.051	92.67
592.254	203.26
592.457	-230.91
592.66	-228.86
592.863	-30.21
593.066	107.01
593.269	-263.68
593.472	-134.65
593.675	-157.18
593.878	322.04
594.081	-210.43
594.284	-337.4
594.486	180.73
594.689	33.28
594.892	-95.74
595.095	-200.19
595.298	125.44
595.5	-58.88
595.703	-148.99
595.906	-134.65
596.109	365.05
596.311	188.93
596.514	-513.53
596.717	-214.52
596.92	309.76
597.122	133.63
597.325	-472.57
597.528	-280.06
597.73	309.76
597.933	55.81
598.136	-329.21
598.338	-421.37
598.541	33.28
598.743	227.84
598.946	-290.3
599.148	-196.09
599.351	246.27
599.554	276.99
599.756	-194.05
599.959	-214.52
600.161	205.31
600.363	563.7
600.566	-67.07
600.768	-216.57
600.971	401.91
601.173	201.21
601.376	-339.45
601.578	-280.06
601.78	119.29
601.983	555.51
602.185	-304.64
602.388	-54.78
602.59	133.63
602.792	-103.93
602.995	-62.98
603.197	-286.2
603.399	254.46
603.601	80.38
603.804	-235
604.006	-304.64
604.208	31.23
604.41	-419.32
604.613	-71.17
604.815	-280.06
605.017	485.88
605.219	-103.93
605.421	39.42
605.623	-253.44
605.826	371.19
606.028	223.74
606.23	-198.14
606.432	-370.17
606.634	430.59
606.836	332.28
607.038	-323.07
607.24	-105.98
607.442	31.23
607.644	43.52
607.846	-87.55
608.048	-292.35
608.25	352.76
608.452	-206.33
608.654	-226.81
608.856	-388.6
609.058	-22.02
609.26	221.69
609.462	-65.02
609.664	-214.52
609.866	432.63
610.067	240.12
610.269	-108.03
610.471	-214.52
610.673	-173.57
610.875	141.82
611.077	-394.75
611.278	-144.89
611.48	78.33
611.682	496.12
611.884	-189.95
612.085	-187.9
612.287	-177.66
612.489	164.35
612.69	-333.31
612.892	-214.52
613.094	264.7
613.295	162.3
613.497	-331.26
613.699	-228.86
613.9	334.33
614.102	279.04
614.304	-134.65
614.505	-411.13
614.707	-13.82
614.908	14.85
615.11	-411.13
615.311	-202.24
615.513	281.08
615.714	254.46
615.916	-445.95
616.117	-95.74
616.319	-67.07
616.52	225.79
616.722	-241.15
616.923	-275.96
617.124	236.03
617.326	172.54
617.527	-175.61
617.729	-15.87
617.93	203.26
618.131	203.26
618.333	-224.76
618.534	-134.65
618.735	-155.13
618.937	379.39
619.138	-366.07
619.339	-282.11
619.54	135.68
619.742	-17.92
619.943	-26.11
620.144	-112.13
620.345	164.35
620.546	260.6
620.748	-325.12
620.949	-206.33
621.15	59.9
621.351	72.19
621.552	-255.48
621.753	-443.9
621.954	-343.55
622.155	561.66
622.356	-314.88
622.558	-83.45
622.759	-81.41
622.96	473.59
623.161	-140.8
623.362	-187.9
623.563	23.04
623.764	158.21
623.965	-204.28
624.166	-108.03
624.366	39.42
624.567	131.58
624.768	-462.33
624.969	-339.45
625.17	68.09
625.371	205.31
625.572	-169.47
625.773	-306.68
625.973	221.69
626.174	145.92
626.375	-171.52
626.576	-130.56
626.777	211.45
626.977	514.55
627.178	-329.21
627.379	-165.37
627.58	-28.16
627.78	100.86
627.981	-126.46
628.182	-226.81
628.382	313.85
628.583	-304.64
628.784	-411.13
628.984	-58.88
629.185	317.95
629.386	244.22
629.586	-206.33
629.787	-280.06
629.987	195.07
630.188	23.04
630.388	-140.8
630.589	-161.28
630.79	639.48
630.99	125.44
631.191	-196.09
631.391	-173.57
631.591	254.46
631.792	459.26
631.992	-116.22
632.193	-144.89
632.393	412.15
632.594	33.28
632.794	-196.09
632.994	-128.51
633.195	27.14
633.395	90.62
633.595	-243.2
633.796	-50.69
633.996	-56.83
634.196	346.62
634.397	-343.55
634.597	-146.94
634.797	-218.62
634.997	342.52
635.198	16.9
635.398	-318.97
635.598	154.11
635.798	377.34
635.998	215.55
636.199	-318.97
636.399	-54.78
636.599	-95.74
636.799	-235
636.999	61.95
637.199	182.78
637.399	317.95
637.599	-196.09
637.799	-93.69
637.999	-110.08
638.199	377.34
638.399	-351.74
638.599	-316.92
638.799	158.21
638.999	541.18
639.199	-134.65
639.399	-144.89
639.599	436.73
639.799	-148.99
639.999	-294.4
640.199	-296.44
640.399	141.82
640.599	104.96
640.799	-116.22
640.998	-22.02
641.198	365.05
641.398	129.53
641.598	-130.56
641.798	-198.14
641.997	907.76
642.197	96.77
642.397	-24.06
642.597	-116.22
642.796	205.31
642.996	379.39
643.196	-101.89
643.395	-306.68
643.595	195.07
643.795	-337.4
643.994	-196.09
644.194	-103.93
644.394	119.29
644.593	43.52
644.793	-374.27
644.992	-44.54
645.192	-1.54
645.392	-267.77
645.591	-67.07
645.791	-198.14
645.99	150.01
646.19	-32.26
646.389	-105.98
646.589	-163.33
646.788	211.45
646.987	188.93
647.187	43.52
647.386	-24.06
647.586	47.62
647.785	125.44
647.984	-163.33
648.184	-95.74
648.383	-85.5
648.582	-26.11
648.782	-196.09
648.981	-58.88
649.18	-40.45
649.38	92.67
649.579	-241.15
649.778	-198.14
649.977	137.73
650.177	143.87
650.376	-278.01
650.575	-255.48
650.774	367.1
650.973	-30.21
651.173	-337.4
651.372	-222.72
651.571	76.29
651.77	240.12
651.969	-124.41
652.168	-75.26
652.367	-337.4
652.566	195.07
652.765	-321.02
652.964	-26.11
653.163	586.23
653.362	-93.69
653.561	-157.18
653.76	-230.91
653.959	-60.93
654.158	86.53
654.357	2.56
654.556	-91.65
654.755	150.01
654.954	246.27
655.153	-95.74
655.352	-136.7
655.551	272.89
655.749	-89.6
655.948	-183.81
656.147	-75.26
656.346	156.16
656.545	-77.31
656.743	-169.47
656.942	-126.46
657.141	23.04
657.34	-99.84
657.538	-116.22
657.737	-189.95
657.936	-83.45
658.135	104.96
658.333	-253.44
658.532	-50.69
658.731	346.62
658.929	229.88
659.128	109.05
659.326	-351.74
659.525	342.52
659.724	57.86
659.922	-357.88
660.121	-316.92
660.319	90.62
660.518	-157.18
660.716	-292.35
660.915	-255.48
661.113	342.52
661.312	-155.13
661.51	-122.37
661.709	-316.92
661.907	190.97
662.105	424.44
662.304	-161.28
662.502	-179.71
662.701	360.95
662.899	-56.83
663.097	51.71
663.296	-216.57
663.494	309.76
663.692	391.67
663.891	-226.81
664.089	-261.63
664.287	160.25
664.485	338.43
664.684	-331.26
664.882	-99.84
665.08	0.51
665.278	51.71
665.476	-361.98
665.675	129.53
665.873	451.07
666.071	391.67
666.269	-220.67
666.467	0.51
666.665	64
666.863	-67.07
667.061	-30.21
667.259	-220.67
667.457	31.23
667.655	160.25
667.853	-331.26
668.051	-110.08
668.249	-169.47
668.447	129.53
668.645	-167.42
668.843	-28.16
669.041	150.01
669.239	-60.93
669.437	-134.65
669.635	-67.07
669.833	-52.74
670.031	258.56
670.229	-48.64
670.426	-85.5
670.624	-120.32
670.822	-95.74
671.02	-218.62
671.218	-140.8
671.415	-124.41
671.613	4.61
671.811	-62.98
672.009	-124.41
672.206	248.32
672.404	49.66
672.602	66.05
672.799	-146.94
672.997	145.92
673.195	293.37
673.392	-73.21
673.59	-257.53
673.788	326.14
673.985	-443.9
674.183	-185.85
674.38	-206.33
674.578	287.23
674.775	-56.83
674.973	-269.82
675.17	-239.1
675.368	293.37
675.565	190.97
675.763	-292.35
675.96	-302.59
676.158	350.71
676.355	6.66
676.553	-173.57
676.75	-153.09
676.947	127.49
677.145	-44.54
677.342	-62.98
677.539	-50.69
677.737	59.9
677.934	596.47
678.131	-1.54
678.329	-198.14
678.526	436.73
678.723	238.08
678.92	-165.37
679.118	-187.9
679.315	-192
679.512	401.91
679.709	-148.99
679.906	-128.51
680.104	254.46
680.301	59.9
680.498	-271.87
680.695	-218.62
680.892	-65.02
681.089	-140.8
681.286	-22.02
681.483	-337.4
681.68	188.93
681.877	117.25
682.075	-99.84
682.272	51.71
682.469	70.14
682.665	-62.98
682.862	-318.97
683.059	-329.21
683.256	125.44
683.453	76.29
683.65	-50.69
683.847	-189.95
684.044	92.67
684.241	-151.04
684.438	-48.64
684.635	-218.62
684.831	412.15
685.028	508.41
685.225	-97.79
685.422	-42.5
685.619	84.48
685.815	98.81
686.012	-36.35
686.209	-140.8
686.405	-202.24
686.602	246.27
686.799	-198.14
686.996	-259.58
687.192	-122.37
687.389	498.17
687.586	-192
687.782	-116.22
687.979	336.38
688.175	305.66
688.372	-48.64
688.568	-175.61
688.765	-50.69
688.962	391.67
689.158	6.66
689.355	-306.68
689.551	281.08
689.748	-95.74
689.944	-7.68
690.14	-327.16
690.337	240.12
690.533	-58.88
690.73	76.29
690.926	-99.84
691.123	162.3
691.319	86.53
691.515	-278.01
691.712	-73.21
691.908	195.07
692.104	150.01
692.301	-73.21
692.497	-284.16
692.693	231.93
692.889	199.16
693.086	4.61
693.282	-349.69
693.478	27.14
693.674	475.64
693.87	-175.61
694.067	-284.16
694.263	94.72
694.459	84.48
694.655	-28.16
694.851	-22.02
695.047	281.08
695.243	186.88
695.439	90.62
695.635	-187.9
695.831	276.99
696.027	-9.73
696.224	-116.22
696.42	117.25
696.615	350.71
696.811	254.46
697.007	-321.02
697.203	-140.8
697.399	164.35
697.595	389.63
697.791	-226.81
697.987	39.42
698.183	-222.72
698.379	-118.27
698.575	-103.93
698.77	-163.33
698.966	184.83
699.162	289.28
699.358	-153.09
699.554	-192
699.749	231.93
699.945	205.31
700.141	-17.92
700.337	-40.45
700.532	39.42
700.728	-60.93
700.924	-228.86
701.119	-245.24
701.315	274.94
701.511	6.66
701.706	-89.6
701.902	-245.24
702.097	121.34
702.293	199.16
702.489	-67.07
702.684	-138.75
702.88	49.66
703.075	55.81
703.271	-161.28
703.466	-241.15
703.662	47.62
703.857	205.31
704.053	-134.65
704.248	-126.46
704.443	209.4
704.639	276.99
704.834	-124.41
705.03	-120.32
705.225	276.99
705.42	332.28
705.616	-42.5
705.811	-202.24
706.006	-17.92
706.202	78.33
706.397	-99.84
706.592	-228.86
706.787	115.2
706.983	92.67
707.178	92.67
707.373	-91.65
707.568	260.6
707.763	330.23
707.959	-187.9
708.154	-255.48
708.349	96.77
708.544	205.31
708.739	86.53
708.934	-212.48
709.129	215.55
709.324	358.91
709.519	-247.29
709.714	-261.63
709.909	401.91
710.104	127.49
710.299	-177.66
710.494	-128.51
710.689	276.99
710.884	68.09
711.079	68.09
711.274	59.9
711.469	180.73
711.664	86.53
711.859	-224.76
712.054	-11.78
712.249	260.6
712.443	408.06
712.638	-312.83
712.833	-185.85
713.028	31.23
713.223	96.77
713.417	86.53
713.612	-185.85
713.807	281.08
714.002	582.14
714.196	107.01
714.391	-165.37
714.586	340.47
714.78	33.28
714.975	-208.38
715.17	-73.21
715.364	-40.45
715.559	270.84
715.754	-396.79
715.948	-138.75
716.143	483.83
716.337	170.49
716.532	166.4
716.726	-177.66
716.921	246.27
717.115	500.22
717.31	-271.87
717.504	356.86
717.699	-13.82
717.893	244.22
718.088	-259.58
718.282	-310.78
718.476	109.05
718.671	174.59
718.865	-71.17
719.059	-202.24
719.254	29.18
719.448	381.43
719.642	1303.02
719.837	-300.54
720.031	203.26
720.225	301.56
720.419	-50.69
720.614	-214.52
720.808	342.52
721.002	70.14
721.196	-230.91
721.39	-196.09
721.585	406.01
721.779	84.48
721.973	-75.26
722.167	-302.59
722.361	170.49
722.555	387.58
722.749	-91.65
722.943	-239.1
723.137	-97.79
723.331	162.3
723.525	-110.08
723.719	-192
723.913	254.46
724.107	385.53
724.301	-204.28
724.495	-91.65
724.689	522.74
724.883	457.21
725.077	-232.96
725.271	-196.09
725.465	340.47
725.659	109.05
725.853	-54.78
726.046	-284.16
726.24	-48.64
726.434	289.28
726.628	-206.33
726.822	-101.89
727.015	418.3
727.209	352.76
727.403	-67.07
727.596	-278.01
727.79	330.23
727.984	334.33
728.177	-200.19
728.371	-13.82
728.565	354.81
728.758	-192
728.952	-235
729.146	-167.42
729.339	244.22
729.533	94.72
729.726	-130.56
729.92	-261.63
730.113	348.67
730.307	127.49
730.5	-192
730.694	-226.81
730.887	0.51
731.081	186.88
731.274	-239.1
731.468	-134.65
731.661	37.38
731.854	107.01
732.048	-97.79
732.241	-306.68
732.435	-73.21
732.628	195.07
732.821	-157.18
733.014	-142.85
733.208	-179.71
733.401	285.18
733.594	-75.26
733.788	-239.1
733.981	375.29
734.174	195.07
734.367	-126.46
734.56	-38.4
734.754	248.32
734.947	104.96
735.14	-243.2
735.333	-175.61
735.526	354.81
735.719	-38.4
735.912	-251.39
736.105	-140.8
736.298	102.91
736.491	-91.65
736.684	-218.62
736.877	-173.57
737.07	231.93
737.263	367.1
737.456	-179.71
737.649	-194.05
737.842	-50.69
738.035	29.18
738.228	-85.5
738.421	-19.97
738.614	317.95
738.807	231.93
739	-210.43
739.192	-292.35
739.385	205.31
739.578	211.45
739.771	107.01
739.964	-167.42
740.156	133.63
740.349	68.09
740.542	8.7
740.735	-292.35
740.927	-157.18
741.12	-148.99
741.313	-226.81
741.505	-62.98
741.698	174.59
741.891	176.64
742.083	-24.06
742.276	-177.66
742.468	64
742.661	-7.68
742.854	-112.13
743.046	-196.09
743.239	389.63
743.431	74.24
743.624	-136.7
743.816	-316.92
744.009	-62.98
744.201	205.31
744.393	-3.58
744.586	-245.24
744.778	367.1
744.971	70.14
745.163	-142.85
745.355	-60.93
745.548	72.19
745.74	4.61
745.932	-50.69
746.125	-138.75
746.317	557.56
746.509	82.43
746.702	-89.6
746.894	-91.65
747.086	184.83
747.278	369.15
747.471	-69.12
747.663	-105.98
747.855	68.09
748.047	444.92
748.239	-202.24
748.431	-261.63
748.623	332.28
748.815	485.88
749.008	-308.73
749.2	-300.54
749.392	264.7
749.584	274.94
749.776	-159.23
749.968	-212.48
750.16	522.74
750.352	51.71
750.544	-83.45
750.736	-208.38
750.928	180.73
751.12	51.71
751.311	-136.7
751.503	-120.32
751.695	317.95
751.887	84.48
752.079	-316.92
752.271	-142.85
752.463	850.42
752.654	285.18
752.846	-116.22
753.038	-108.03
753.23	-54.78
753.421	260.6
753.613	-146.94
753.805	70.14
753.997	315.9
754.188	279.04
754.38	-275.96
754.572	-65.02
754.763	8.7
754.955	211.45
755.146	-105.98
755.338	-116.22
755.53	145.92
755.721	64
755.913	-329.21
756.104	-239.1
756.296	-26.11
756.487	264.7
756.679	-228.86
756.87	-155.13
757.062	-42.5
757.253	145.92
757.445	-177.66
757.636	-132.61
757.827	100.86
758.019	608.76
758.21	-261.63
758.401	-148.99
758.593	477.69
758.784	350.71
758.975	-304.64
759.167	-185.85
759.358	156.16
759.549	283.13
759.74	-208.38
759.932	-108.03
760.123	422.39
760.314	-91.65
760.505	-77.31
760.696	-249.34
760.888	643.57
761.079	-1.54
761.27	-280.06
761.461	-386.55
761.652	434.68
761.843	6.66
762.034	-140.8
762.225	127.49
762.416	16.9
762.607	82.43
762.798	-179.71
762.989	-179.71
763.18	881.14
763.371	-50.69
763.562	-151.04
763.753	-110.08
763.944	426.49
764.135	313.85
764.326	23.04
764.517	-81.41
764.708	133.63
764.899	213.5
765.089	-292.35
765.28	-218.62
765.471	84.48
765.662	299.52
765.853	2.56
766.043	-353.79
766.234	301.56
766.425	213.5
766.615	-157.18
766.806	-263.68
766.997	375.29
767.187	143.87
767.378	-243.2
767.569	-372.22
767.759	217.6
767.95	102.91
768.141	-36.35
768.331	-284.16
768.522	100.86
768.712	205.31
768.903	-202.24
769.093	-247.29
769.284	506.36
769.474	109.05
769.665	-361.98
769.855	-341.5
770.046	240.12
770.236	14.85
770.426	53.76
770.617	-230.91
770.807	223.74
770.998	12.8
771.188	2.56
771.378	-198.14
771.569	264.7
771.759	195.07
771.949	-310.78
772.139	-390.65
772.33	137.73
772.52	442.87
772.71	-239.1
772.9	-404.99
773.09	539.13
773.281	367.1
773.471	-247.29
773.661	-206.33
773.851	360.95
774.041	-32.26
774.231	-243.2
774.421	-1.54
774.611	424.44
774.802	117.25
774.992	-114.17
775.182	-290.3
775.372	-1.54
775.562	285.18
775.752	-151.04
775.942	-120.32
776.131	395.77
776.321	147.97
776.511	-138.75
776.701	-308.73
776.891	340.47
777.081	-89.6
777.271	-95.74
777.461	-255.48
777.651	285.18
777.84	354.81
778.03	10.75
778.22	-214.52
778.41	442.87
778.599	-112.13
778.789	-140.8
778.979	-251.39
779.169	186.88
779.358	66.05
779.548	35.33
779.738	-241.15
779.927	188.93
780.117	-128.51
780.307	-108.03
780.496	-318.97
780.686	129.53
780.875	496.12
781.065	-259.58
781.254	-103.93
781.444	145.92
781.633	176.64
781.823	-185.85
782.012	-239.1
782.202	41.47
782.391	115.2
782.581	-310.78
782.77	23.04
782.96	205.31
783.149	55.81
783.338	-251.39
783.528	-392.7
783.717	276.99
783.906	283.13
784.096	-65.02
784.285	-255.48
784.474	-40.45
784.663	-122.37
784.853	-124.41
785.042	-163.33
785.231	16.9
785.42	334.33
785.61	-85.5
785.799	-351.74
785.988	-67.07
786.177	29.18
786.366	-196.09
786.555	55.81
786.744	360.95
786.933	43.52
787.122	-261.63
787.312	-337.4
787.501	-189.95
787.69	123.39
787.879	-161.28
788.068	-267.77
788.257	-148.99
788.445	-28.16
788.634	-177.66
788.823	-288.25
789.012	702.97
789.201	432.63
789.39	-192
789.579	-292.35
789.768	72.19
789.957	39.42
790.145	-206.33
790.334	-398.84
790.523	-62.98
790.712	25.09
790.9	-140.8
791.089	-353.79
791.278	373.24
791.467	92.67
791.655	29.18
791.844	285.18
792.033	-81.41
792.221	-1.54
792.41	-140.8
792.599	-355.83
792.787	248.32
792.976	262.65
793.164	-273.92
793.353	-218.62
793.541	195.07
793.73	264.7
793.918	-163.33
794.107	-116.22
794.295	29.18
794.484	100.86
794.672	-169.47
794.861	-214.52
795.049	182.78
795.238	463.35
795.426	-308.73
795.614	-165.37
795.803	217.6
795.991	420.35
796.179	-136.7
796.368	-235
796.556	254.46
796.744	-171.52
796.932	-214.52
797.121	-280.06
797.309	78.33
797.497	231.93
797.685	-185.85
797.874	-155.13
798.062	-17.92
798.25	465.4
798.438	-259.58
798.626	-206.33
798.814	170.49
799.002	629.24
799.19	-19.97
799.378	-153.09
799.566	412.15
799.755	438.78
799.943	6.66
800.131	-259.58
800.318	139.77
800.506	240.12
800.694	-220.67
800.882	-28.16
801.07	297.47
801.258	72.19
801.446	-208.38
801.634	-194.05
801.822	20.99
802.01	6.66
802.197	-222.72
802.385	-40.45
802.573	174.59
802.761	-185.85
802.949	-99.84
803.136	-349.69
803.324	289.28
803.512	35.33
803.699	-93.69
803.887	-374.27
804.075	272.89
804.262	-26.11
804.45	-355.83
804.638	-187.9
804.825	-226.81
805.013	-87.55
805.201	-169.47
805.388	-411.13
805.576	51.71
805.763	440.83
805.951	-226.81
806.138	-79.36
806.326	518.65
806.513	227.84
806.701	-122.37
806.888	-337.4
807.075	137.73
807.263	487.93
807.45	-378.36
807.638	-62.98
807.825	547.32
808.012	309.76
808.2	-134.65
808.387	31.23
808.574	145.92
808.761	381.43
808.949	-237.05
809.136	-62.98
809.323	-157.18
809.51	2.56
809.698	92.67
809.885	-34.3
810.072	158.21
810.259	231.93
810.446	-155.13
810.633	-235
810.82	299.52
811.008	350.71
811.195	-15.87
811.382	-200.19
811.569	64
811.756	-179.71
811.943	-120.32
812.13	-222.72
812.317	-46.59
812.504	6.66
812.691	-116.22
812.878	-75.26
813.064	360.95
813.251	70.14
813.438	-361.98
813.625	2.56
813.812	12.8
813.999	4.61
814.186	-177.66
814.372	-169.47
814.559	64
814.746	410.11
814.933	-108.03
815.12	-126.46
815.306	-36.35
815.493	-116.22
815.68	-222.72
815.866	-185.85
816.053	322.04
816.24	575.99
816.426	-81.41
816.613	-325.12
816.799	215.55
816.986	317.95
817.173	-265.72
817.359	-259.58
817.546	86.53
817.732	-239.1
817.919	-476.66
818.105	-136.7
818.292	-91.65
818.478	88.57
818.665	-34.3
818.851	-247.29
819.037	528.89
819.224	82.43
819.41	-169.47
819.597	-255.48
819.783	457.21
819.969	145.92
820.156	-138.75
820.342	-271.87
820.528	764.4
820.714	86.53
820.901	90.62
821.087	-241.15
821.273	496.12
821.459	68.09
821.646	-310.78
821.832	-302.59
822.018	115.2
822.204	113.15
822.39	-169.47
822.576	-230.91
822.762	233.98
822.948	86.53
823.134	2.56
823.32	-179.71
823.507	-130.56
823.693	96.77
823.879	180.73
824.065	-214.52
824.25	76.29
824.436	-183.81
824.622	-284.16
824.808	-251.39
824.994	-7.68
825.18	-130.56
825.366	-345.59
825.552	-198.14
825.738	29.18
825.923	201.21
826.109	23.04
826.295	-210.43
826.481	-142.85
826.667	-52.74
826.852	-30.21
827.038	-329.21
827.224	356.86
827.409	481.78
827.595	-417.27
827.781	33.28
827.966	221.69
828.152	260.6
828.338	-189.95
828.523	-349.69
828.709	-165.37
828.894	416.25
829.08	-73.21
829.266	-280.06
829.451	-32.26
829.637	211.45
829.822	-99.84
830.008	-273.92
830.193	262.65
830.378	385.53
830.564	-140.8
830.749	-228.86
830.935	223.74
831.12	326.14
831.305	-210.43
831.491	-58.88
831.676	-112.13
831.861	211.45
832.047	-140.8
832.232	-341.5
832.417	297.47
832.602	61.95
832.788	-271.87
832.973	-202.24
833.158	2.56
833.343	109.05
833.528	-179.71
833.714	-142.85
833.899	244.22
834.084	537.08
834.269	-22.02
834.454	-126.46
834.639	272.89
834.824	88.57
835.009	-50.69
835.194	-13.82
835.379	303.61
835.564	461.3
835.749	-71.17
835.934	-288.25
836.119	297.47
836.304	131.58
836.489	-247.29
836.674	31.23
836.859	-134.65
837.044	379.39
837.228	-157.18
837.413	-210.43
837.598	162.3
837.783	371.19
837.968	-169.47
838.152	-345.59
838.337	-368.12
838.522	365.05
838.707	254.46
838.891	51.71
839.076	152.06
839.261	346.62
839.445	-200.19
839.63	-167.42
839.815	475.64
839.999	90.62
840.184	-179.71
840.368	-179.71
840.553	276.99
840.737	299.52
840.922	-304.64
841.106	-345.59
841.291	-177.66
841.475	47.62
841.66	-187.9
841.844	-267.77
842.029	768.5
842.213	-126.46
842.397	-192
842.582	-386.55
842.766	438.78
842.951	358.91
843.135	-89.6
843.319	-54.78
843.504	213.5
843.688	285.18
843.872	-376.31
844.056	-323.07
844.241	211.45
844.425	-15.87
844.609	-54.78
844.793	-337.4
844.977	285.18
845.161	184.83
845.346	-329.21
845.53	-226.81
845.714	39.42
845.898	457.21
846.082	-355.83
846.266	-204.28
846.45	57.86
846.634	186.88
846.818	-224.76
847.002	-7.68
847.186	293.37
847.37	-142.85
847.554	-255.48
847.738	-46.59
847.922	166.4
848.106	133.63
848.29	-286.2
848.473	-99.84
848.657	338.43
848.841	35.33
849.025	-130.56
849.209	-337.4
849.392	231.93
849.576	31.23
849.76	-411.13
849.944	-5.63
850.127	469.5
850.311	-130.56
850.495	-321.02
850.678	-290.3
850.862	418.3
851.046	465.4
851.229	115.2
851.413	-278.01
851.596	-34.3
851.78	18.94
851.964	47.62
852.147	-120.32
852.331	760.31
852.514	420.35
852.698	-89.6
852.881	-341.5
853.065	348.67
853.248	64
853.431	-105.98
853.615	-67.07
853.798	662.01
853.982	135.68
854.165	18.94
854.348	-136.7
854.532	-136.7
854.715	-62.98
854.898	-108.03
855.081	-146.94
855.265	387.58
855.448	567.8
855.631	-253.44
855.814	-161.28
855.997	352.76
856.181	2.56
856.364	-146.94
856.547	-222.72
856.73	102.91
856.913	147.97
857.096	-292.35
857.279	-153.09
857.462	-11.78
857.645	233.98
857.828	-65.02
858.011	-11.78
858.194	-32.26
858.377	287.23
858.56	-280.06
858.743	-91.65
858.926	-114.17
859.109	279.04
859.292	-235
859.475	-278.01
859.658	342.52
859.841	225.79
860.023	-185.85
860.206	-280.06
860.389	43.52
860.572	403.96
860.755	-194.05
860.937	-108.03
861.12	150.01
861.303	117.25
861.486	-48.64
861.668	-153.09
861.851	315.9
862.034	182.78
862.216	4.61
862.399	-278.01
862.581	334.33
862.764	465.4
862.947	-32.26
863.129	-245.24
863.312	-116.22
863.494	467.45
863.677	109.05
863.859	-318.97
864.042	287.23
864.224	510.46
864.406	-5.63
864.589	-300.54
864.771	166.4
864.954	-97.79
865.136	-241.15
865.318	-296.44
865.501	287.23
865.683	-222.72
865.865	-132.61
866.048	-214.52
866.23	96.77
866.412	119.29
866.594	-218.62
866.777	-110.08
866.959	326.14
867.141	-67.07
867.323	131.58
867.505	-30.21
867.687	137.73
867.869	141.82
868.052	-97.79
868.234	-196.09
868.416	92.67
868.598	297.47
868.78	-50.69
868.962	-312.83
869.144	311.8
869.326	289.28
869.508	-192
869.69	-185.85
869.872	39.42
870.054	291.32
870.236	-376.31
870.417	-173.57
870.599	-67.07
870.781	410.11
870.963	-3.58
871.145	-235
871.327	-136.7
871.508	313.85
871.69	-130.56
871.872	-138.75
872.054	53.76
872.235	195.07
872.417	-112.13
872.599	-210.43
872.78	514.55
872.962	107.01
873.144	-357.88
873.325	-200.19
873.507	426.49
873.689	172.54
873.87	-220.67
874.052	-58.88
874.233	12.8
874.415	322.04
874.596	-228.86
874.778	-267.77
874.959	145.92
875.141	309.76
875.322	-105.98
875.503	-185.85
875.685	270.84
875.866	-357.88
876.048	-220.67
876.229	-280.06
876.41	104.96
876.592	250.36
876.773	-163.33
876.954	-386.55
877.136	424.44
877.317	-13.82
877.498	-343.55
877.679	-87.55
877.86	178.69
878.042	39.42
878.223	-237.05
878.404	68.09
878.585	223.74
878.766	403.96
878.947	43.52
879.128	-91.65
879.309	242.17
879.49	424.44
879.672	-101.89
879.853	-155.13
880.034	-165.37
880.215	2.56
880.396	-138.75
880.576	-175.61
880.757	-50.69
880.938	336.38
881.119	-282.11
881.3	-239.1
881.481	-40.45
881.662	803.32
881.843	-235
882.023	-349.69
882.204	119.29
882.385	14.85
882.566	-212.48
882.747	-228.86
882.927	6.66
883.108	145.92
883.289	-181.76
883.469	-7.68
883.65	-15.87
883.831	18.94
884.011	-36.35
884.192	-183.81
884.373	274.94
884.553	166.4
884.734	-85.5
884.914	47.62
885.095	659.96
885.275	481.78
885.456	86.53
885.636	-255.48
885.817	16.9
885.997	129.53
886.178	-265.72
886.358	-120.32
886.538	150.01
886.719	1087.98
886.899	-257.53
887.08	-144.89
887.26	379.39
887.44	-222.72
887.621	-288.25
887.801	-19.97
887.981	563.7
888.161	231.93
888.342	-198.14
888.522	-189.95
888.702	250.36
888.882	256.51
889.062	-67.07
889.242	-333.31
889.423	373.24
889.603	174.59
889.783	-75.26
889.963	-185.85
890.143	139.77
890.323	311.8
890.503	-325.12
890.683	-235
890.863	96.77
891.043	107.01
891.223	-28.16
891.403	4.61
891.583	41.47
891.763	154.11
891.943	-218.62
892.122	-218.62
892.302	109.05
892.482	39.42
892.662	-54.78
892.842	-69.12
893.022	172.54
893.201	-17.92
893.381	-1.54
893.561	-210.43
893.741	223.74
893.92	231.93
894.1	-69.12
894.28	-173.57
894.459	236.03
894.639	133.63
894.819	-108.03
894.998	-32.26
895.178	233.98
895.357	240.12
895.537	-196.09
895.716	-361.98
895.896	111.1
896.075	414.2
896.255	-179.71
896.434	-304.64
896.614	334.33
896.793	313.85
896.973	-58.88
897.152	-7.68
897.331	293.37
897.511	244.22
897.69	-306.68
897.87	-103.93
898.049	248.32
898.228	39.42
898.407	72.19
898.587	-26.11
898.766	-161.28
898.945	367.1
899.124	125.44
899.304	-17.92
899.483	184.83
899.662	514.55
899.841	-124.41
900.02	-177.66
900.199	336.38
900.378	195.07
900.557	-216.57
900.737	-288.25
900.916	172.54
901.095	266.75
901.274	90.62
901.453	-280.06
901.632	-62.98
901.811	-77.31
901.989	-189.95
902.168	-259.58
902.347	293.37
902.526	-132.61
902.705	-103.93
902.884	-99.84
903.063	424.44
903.242	399.87
903.42	-278.01
903.599	-99.84
903.778	408.06
903.957	477.69
904.135	29.18
904.314	-48.64
904.493	184.83
904.672	217.6
904.85	-122.37
905.029	-194.05
905.207	244.22
905.386	782.84
905.565	-292.35
905.743	-151.04
905.922	18.94
906.1	358.91
906.279	-243.2
906.457	-185.85
906.636	-38.4
906.814	41.47
906.993	-99.84
907.171	-239.1
907.35	276.99
907.528	262.65
907.707	74.24
907.885	-271.87
908.063	582.14
908.242	-62.98
908.42	-112.13
908.598	-329.21
908.777	330.23
908.955	-26.11
909.133	6.66
909.311	-259.58
909.49	123.39
909.668	39.42
909.846	-50.69
910.024	-368.12
910.202	178.69
910.38	227.84
910.559	-243.2
910.737	-243.2
910.915	236.03
911.093	113.15
911.271	-99.84
911.449	121.34
911.627	211.45
911.805	539.13
911.983	-144.89
912.161	-163.33
912.339	182.78
912.517	317.95
912.695	27.14
912.872	-214.52
913.05	-89.6
913.228	121.34
913.406	-54.78
913.584	-224.76
913.762	350.71
913.939	-36.35
914.117	-243.2
914.295	-206.33
914.473	162.3
914.65	252.41
914.828	-91.65
915.006	-177.66
915.184	-187.9
915.361	229.88
915.539	18.94
915.716	117.25
915.894	184.83
916.072	219.64
916.249	137.73
916.427	31.23
916.604	-142.85
916.782	254.46
916.959	-243.2
917.137	-138.75
917.314	256.51
917.492	299.52
917.669	-7.68
917.847	-67.07
918.024	236.03
918.201	-17.92
918.379	-30.21
918.556	-97.79
918.733	270.84
918.911	88.57
919.088	31.23
919.265	-108.03
919.442	231.93
919.62	72.19
919.797	-198.14
919.974	-310.78
920.151	238.08
920.328	92.67
920.506	-151.04
920.683	76.29
920.86	-79.36
921.037	-28.16
921.214	-44.54
921.391	-71.17
921.568	324.09
921.745	-103.93
921.922	-48.64
922.099	-226.81
922.276	440.83
922.453	137.73
922.63	-116.22
922.807	195.07
922.984	94.72
923.161	47.62
923.338	-105.98
923.514	-175.61
923.691	102.91
923.868	211.45
924.045	-138.75
924.222	-165.37
924.399	162.3
924.575	393.72
924.752	-77.31
924.929	6.66
925.105	260.6
925.282	-15.87
925.459	-89.6
925.635	-54.78
925.812	119.29
925.989	68.09
926.165	6.66
926.342	-204.28
926.518	-177.66
926.695	113.15
926.871	-122.37
927.048	-269.82
927.224	264.7
927.401	14.85
927.577	-46.59
927.754	-196.09
927.93	442.87
928.107	367.1
928.283	-134.65
928.459	2.56
928.636	205.31
928.812	51.71
928.988	-185.85
929.165	-198.14
929.341	127.49
929.517	154.11
929.693	201.21
929.87	-304.64
930.046	209.4
930.222	45.57
930.398	-108.03
930.574	-22.02
930.751	152.06
930.927	-26.11
931.103	-95.74
931.279	-19.97
931.455	-112.13
931.631	98.81
931.807	-220.67
931.983	-192
932.159	-206.33
932.335	133.63
932.511	-22.02
932.687	-60.93
932.863	219.64
933.039	158.21
933.215	-298.49
933.391	-255.48
933.566	129.53
933.742	123.39
933.918	-95.74
934.094	-216.57
934.27	139.77
934.445	137.73
934.621	-75.26
934.797	-146.94
934.973	369.15
935.148	229.88
935.324	-222.72
935.5	-306.68
935.675	375.29
935.851	188.93
936.027	-56.83
936.202	-48.64
936.378	201.21
936.553	143.87
936.729	309.76
936.904	-163.33
937.08	-126.46
937.255	74.24
937.431	-206.33
937.606	-204.28
937.782	61.95
937.957	121.34
938.133	-101.89
938.308	-148.99
938.483	94.72
938.659	-60.93
938.834	-9.73
939.009	-235
939.185	51.71
939.36	-110.08
939.535	-454.14
939.71	-44.54
939.886	365.05
940.061	238.08
940.236	92.67
940.411	-112.13
940.586	317.95
940.761	199.16
940.937	-73.21
941.112	-153.09
941.287	68.09
941.462	174.59
941.637	-245.24
941.812	-114.17
941.987	240.12
942.162	131.58
942.337	-44.54
942.512	-99.84
942.687	373.24
942.862	219.64
943.037	-239.1
943.212	-409.08
943.386	4.61
943.561	168.45
943.736	4.61
943.911	113.15
944.086	221.69
944.26	293.37
944.435	-202.24
944.61	43.52
944.785	504.31
944.959	522.74
945.134	-128.51
945.309	-173.57
945.483	-99.84
945.658	285.18
945.833	-325.12
946.007	-261.63
946.182	559.61
946.357	-148.99
946.531	-138.75
946.706	-206.33
946.88	-316.92
947.055	195.07
947.229	-138.75
947.404	-224.76
947.578	334.33
947.752	41.47
947.927	-269.82
948.101	-255.48
948.276	174.59
948.45	96.77
948.624	18.94
948.799	-232.96
948.973	186.88
949.147	-208.38
949.321	-71.17
949.496	-206.33
949.67	395.77
949.844	20.99
950.018	-85.5
950.193	-187.9
950.367	524.79
950.541	-93.69
950.715	14.85
950.889	25.09
951.063	-5.63
951.237	190.97
951.411	-314.88
951.585	-396.79
951.759	172.54
951.933	23.04
952.107	-140.8
952.281	12.8
952.455	406.01
952.629	233.98
952.803	-153.09
952.977	-198.14
953.151	211.45
953.325	168.45
953.499	39.42
953.672	-374.27
953.846	-136.7
954.02	-75.26
954.194	-280.06
954.368	-181.76
954.541	182.78
954.715	-58.88
954.889	-56.83
955.062	-292.35
955.236	27.14
955.41	-75.26
955.583	-62.98
955.757	-357.88
955.93	-105.98
956.104	-185.85
956.278	-177.66
956.451	-93.69
956.625	172.54
956.798	528.89
956.972	76.29
957.145	-218.62
957.319	57.86
957.492	-60.93
957.665	-67.07
957.839	-116.22
958.012	176.64
958.185	-48.64
958.359	-71.17
958.532	2.56
958.705	244.22
958.879	162.3
959.052	-95.74
959.225	-314.88
959.398	43.52
959.572	131.58
959.745	-181.76
959.918	-58.88
960.091	6.66
960.264	186.88
960.438	-349.69
960.611	-204.28
960.784	197.12
960.957	-50.69
961.13	190.97
961.303	-155.13
961.476	66.05
961.649	256.51
961.822	-247.29
961.995	-89.6
962.168	209.4
962.341	61.95
962.514	-206.33
962.686	-239.1
962.859	41.47
963.032	182.78
963.205	-206.33
963.378	-361.98
963.551	281.08
963.723	113.15
963.896	-146.94
964.069	14.85
964.242	-19.97
964.414	248.32
964.587	-93.69
964.76	-116.22
964.932	201.21
965.105	68.09
965.278	-177.66
965.45	-189.95
965.623	45.57
965.795	184.83
965.968	-175.61
966.14	-194.05
966.313	-60.93
966.485	14.85
966.658	-110.08
966.83	-214.52
967.003	240.12
967.175	276.99
967.348	-183.81
967.52	-169.47
967.692	481.78
967.865	199.16
968.037	-79.36
968.209	197.12
968.382	35.33
968.554	215.55
968.726	-126.46
968.898	-259.58
969.071	195.07
969.243	236.03
969.415	-114.17
969.587	-108.03
969.759	498.17
969.932	248.32
970.104	-99.84
970.276	-445.95
970.448	-9.73
970.62	-11.78
970.792	-5.63
970.964	-67.07
971.136	498.17
971.308	221.69
971.48	-204.28
971.652	-138.75
971.824	440.83
971.996	2.56
972.168	-54.78
972.339	-187.9
972.511	287.23
972.683	18.94
972.855	74.24
973.027	-128.51
973.199	80.38
973.37	215.55
973.542	-50.69
973.714	-34.3
973.886	121.34
974.057	276.99
974.229	-294.4
974.401	-185.85
974.572	-140.8
974.744	-351.74
974.915	-245.24
975.087	-224.76
975.259	440.83
975.43	-110.08
975.602	-134.65
975.773	-243.2
975.945	-54.78
976.116	231.93
976.288	-323.07
976.459	33.28
976.63	6.66
976.802	152.06
976.973	-226.81
977.145	-62.98
977.316	465.4
977.487	436.73
977.659	-5.63
977.83	-91.65
978.001	449.02
978.172	170.49
978.344	-173.57
978.515	-134.65
978.686	-36.35
978.857	424.44
979.028	-116.22
979.2	-198.14
979.371	248.32
979.542	139.77
979.713	-54.78
979.884	-447.99
980.055	-42.5
980.226	-54.78
980.397	-155.13
980.568	-361.98
980.739	360.95
980.91	35.33
981.081	61.95
981.252	-214.52
981.423	264.7
981.594	295.42
981.765	-220.67
981.936	-34.3
982.106	66.05
982.277	360.95
982.448	-183.81
982.619	-38.4
982.79	14.85
982.96	252.41
983.131	-95.74
983.302	-333.31
983.472	-122.37
983.643	162.3
983.814	-9.73
983.984	-181.76
984.155	53.76
984.326	291.32
984.496	-46.59
984.667	-151.04
984.837	-34.3
985.008	440.83
985.178	84.48
985.349	-259.58
985.519	37.38
985.69	-48.64
985.86	-52.74
986.031	-228.86
986.201	184.83
986.371	229.88
986.542	-189.95
986.712	-282.11
986.882	164.35
987.053	223.74
987.223	-196.09
987.393	-11.78
987.563	-65.02
987.734	211.45
987.904	178.69
988.074	-157.18
988.244	131.58
988.414	-22.02
988.585	-235
988.755	-15.87
988.925	-7.68
989.095	420.35
989.265	-138.75
989.435	-130.56
989.605	203.26
989.775	186.88
989.945	57.86
990.115	-265.72
990.285	117.25
990.455	64
990.625	-46.59
990.795	-214.52
990.965	481.78
991.134	-179.71
991.304	-230.91
991.474	-216.57
991.644	127.49
991.814	387.58
991.984	-368.12
992.153	-216.57
992.323	-5.63
992.493	74.24
992.662	-402.94
992.832	-7.68
993.002	156.16
993.171	107.01
993.341	-343.55
993.511	-79.36
993.68	-124.41
993.85	195.07
994.019	-329.21
994.189	-235
994.358	53.76
994.528	-52.74
994.697	-439.8
994.867	-224.76
995.036	231.93
995.206	-17.92
995.375	-282.11
995.544	-65.02
995.714	125.44
995.883	10.75
996.052	-103.93
996.222	-368.12
996.391	557.56
996.56	37.38
996.73	-189.95
996.899	-327.16
997.068	467.45
997.237	51.71
997.406	-218.62
997.576	-323.07
997.745	131.58
997.914	61.95
998.083	-361.98
998.252	-294.4
998.421	100.86
998.59	-120.32
998.759	-333.31
998.928	-433.66
999.097	313.85
999.266	57.86
999.435	-122.37
999.604	-398.84
999.773	590.33
999.942	-9.73
1000.111	-337.4
1000.28	-464.38
1000.448	-163.33
1000.617	-146.94
1000.786	-83.45
1000.955	-353.79
1001.124	78.33
1001.292	633.33
1001.461	-251.39
1001.63	-337.4
1001.798	467.45
1001.967	309.76
1002.136	-407.03
1002.304	-288.25
1002.473	145.92
1002.642	102.91
1002.81	-187.9
1002.979	-273.92
1003.147	158.21
1003.316	563.7
1003.484	-226.81
1003.653	-386.55
1003.821	332.28
1003.99	14.85
1004.158	-173.57
1004.327	-173.57
1004.495	100.86
1004.663	-52.74
1004.832	-134.65
1005	-419.32
1005.168	188.93
1005.337	80.38
1005.505	-308.73
1005.673	-67.07
1005.842	199.16
1006.01	182.78
1006.178	-366.07
1006.346	-288.25
1006.514	268.8
1006.683	350.71
1006.851	-284.16
1007.019	-437.75
1007.187	-116.22
1007.355	-300.54
1007.523	-454.14
1007.691	-327.16
1007.859	-294.4
1008.027	449.02
1008.195	-183.81
1008.363	-433.66
1008.531	215.55
1008.699	-157.18
1008.867	-460.28
1009.035	-271.87
1009.203	352.76
1009.37	47.62
1009.538	-187.9
1009.706	68.09
1009.874	70.14
1010.042	35.33
1010.209	-431.61
1010.377	-339.45
1010.545	238.08
1010.713	82.43
1010.88	-288.25
1011.048	-245.24
1011.216	25.09
1011.383	457.21
1011.551	-261.63
1011.718	-390.65
1011.886	231.93
1012.054	8.7
1012.221	-402.94
1012.389	-388.6
1012.556	29.18
1012.724	434.68
1012.891	-292.35
1013.058	-396.79
1013.226	248.32
1013.393	219.64
1013.561	-370.17
1013.728	-400.89
1013.895	205.31
1014.063	188.93
1014.23	-345.59
1014.397	-318.97
1014.565	311.8
1014.732	2.56
1014.899	-316.92
1015.066	-372.22
1015.233	109.05
1015.401	223.74
1015.568	-208.38
1015.735	-146.94
1015.902	-24.06
1016.069	162.3
1016.236	-235
1016.403	-345.59
1016.57	-157.18
1016.737	172.54
1016.904	-296.44
1017.071	-390.65
1017.238	-89.6
1017.405	207.36
1017.572	-304.64
1017.739	-124.41
1017.906	209.4
1018.073	246.27
1018.24	-329.21
1018.407	-280.06
1018.573	272.89
1018.74	-36.35
1018.907	-263.68
1019.074	-425.47
1019.241	287.23
1019.407	72.19
1019.574	-347.64
1019.741	-458.23
1019.907	84.48
1020.074	227.84
1020.241	-478.71
1020.407	-413.18
1020.574	174.59
1020.74	188.93
1020.907	-202.24
1021.073	-335.35
1021.24	471.54
1021.406	430.59
1021.573	-280.06
1021.739	-366.07
1021.906	233.98
1022.072	16.9
1022.239	-292.35
1022.405	-286.2
1022.571	123.39
1022.738	-103.93
1022.904	-390.65
1023.07	-226.81
1023.237	154.11
1023.403	293.37
1023.569	-259.58
1023.735	-239.1
1023.902	141.82
1024.068	68.09
1024.234	-372.22
1024.4	-249.34
1024.566	172.54
1024.732	283.13
1024.898	-189.95
1025.065	-413.18
1025.231	190.97
1025.397	66.05
1025.563	-306.68
1025.729	-400.89
1025.895	-380.41
1026.061	-128.51
1026.227	-472.57
1026.392	-316.92
1026.558	297.47
1026.724	203.26
1026.89	-390.65
1027.056	-198.14
1027.222	180.73
1027.388	-26.11
1027.553	-263.68
1027.719	-312.83
1027.885	547.32
1028.051	174.59
1028.216	-499.19
1028.382	-230.91
1028.548	262.65
1028.713	23.04
1028.879	-355.83
1029.045	-206.33
1029.21	391.67
1029.376	322.04
1029.541	-232.96
1029.707	-214.52
1029.873	215.55
1030.038	324.09
1030.204	-269.82
1030.369	-261.63
1030.534	320
1030.7	-40.45
1030.865	-341.5
1031.031	-380.41
1031.196	252.41
1031.361	188.93
1031.527	-331.26
1031.692	-366.07
1031.857	-296.44
1032.023	219.64
1032.188	-374.27
1032.353	-247.29
1032.518	475.64
1032.684	154.11
1032.849	-400.89
1033.014	-241.15
1033.179	270.84
1033.344	326.14
1033.509	-161.28
1033.674	-284.16
1033.839	186.88
1034.004	233.98
1034.17	-265.72
1034.335	-353.79
1034.5	-34.3
1034.664	-15.87
1034.829	-323.07
1034.994	-218.62
1035.159	213.5
1035.324	199.16
1035.489	-263.68
1035.654	-361.98
1035.819	434.68
1035.984	178.69
1036.148	-251.39
1036.313	-290.3
1036.478	375.29
1036.643	94.72
1036.807	-263.68
1036.972	-382.46
1037.137	446.97
1037.301	102.91
1037.466	-421.37
1037.631	-165.37
1037.795	367.1
1037.96	209.4
1038.124	-112.13
1038.289	-341.5
1038.454	279.04
1038.618	231.93
1038.783	-218.62
1038.947	-214.52
1039.111	172.54
1039.276	33.28
1039.44	-251.39
1039.605	203.26
1039.769	-11.78
1039.933	49.66
1040.098	-265.72
1040.262	-58.88
1040.426	309.76
1040.591	334.33
1040.755	-321.02
1040.919	-278.01
1041.083	303.61
1041.248	64
1041.412	-361.98
1041.576	-298.49
1041.74	98.81
1041.904	344.57
1042.068	-302.59
1042.232	-323.07
1042.397	307.71
1042.561	180.73
1042.725	-423.42
1042.889	-42.5
1043.053	213.5
1043.217	227.84
1043.381	-110.08
1043.544	-368.12
1043.708	391.67
1043.872	-97.79
1044.036	-531.96
1044.2	-466.42
1044.364	428.54
1044.528	446.97
1044.691	3129.81
1044.855	-353.79
1045.019	338.43
1045.183	256.51
1045.346	-144.89
1045.51	-316.92
1045.674	291.32
1045.837	250.36
1046.001	-200.19
1046.165	-296.44
1046.328	694.77
1046.492	338.43
1046.655	-52.74
1046.819	-161.28
1046.983	27.14
1047.146	256.51
1047.31	-192
1047.473	-382.46
1047.636	152.06
1047.8	-122.37
1047.963	-235
1048.127	-269.82
1048.29	-65.02
