Data from Ink_Intensity_USB4F045381__127__00127.txt Node

Date: Mon Jul 17 11:18:18 EDT 2023
User: mmckonesweet
Spectrometer: USB4F04538
Trigger mode: 4
Integration Time (sec): 9.000000E-1
Scans to average: 1
Electric dark correction enabled: true
Nonlinearity correction enabled: false
Boxcar width: 0
XAxis mode: Wavelengths
Number of Pixels in Spectrum: 3648
>>>>>Begin Spectral Data<<<<<
345.52	-1036.1
345.736	-1036.1
345.952	-1036.1
346.168	-1001.29
346.384	-1027.91
346.6	-104.28
346.816	-239.44
347.032	-229.2
347.248	348.33
347.464	-216.91
347.68	-163.67
347.896	121
348.112	317.61
348.328	-87.89
348.544	-89.94
348.76	-40.79
348.975	385.19
349.191	-192.34
349.407	-192.34
349.623	59.56
349.839	-59.22
350.055	-98.13
350.27	41.13
350.486	258.21
350.702	407.72
350.918	266.41
351.133	-155.47
351.349	106.67
351.565	426.15
351.781	-186.19
351.996	-44.88
352.212	374.95
352.428	-151.38
352.644	-198.48
352.859	-278.35
353.075	221.35
353.291	127.14
353.506	-173.91
353.722	-266.07
353.938	-12.12
354.153	489.64
354.369	184.49
354.584	-237.39
354.8	245.93
355.016	-272.21
355.231	-206.67
355.447	-42.84
355.662	204.97
355.878	835.74
356.093	-288.59
356.309	2.22
356.524	-272.21
356.74	282.79
356.955	-167.76
357.171	-5.97
357.386	155.82
357.602	-202.58
357.817	-73.56
358.033	-159.57
358.248	311.46
358.464	168.1
358.679	-91.99
358.895	-268.11
359.11	37.03
359.325	307.37
359.541	65.71
359.756	-59.22
359.972	-296.78
360.187	209.06
360.402	-288.59
360.618	-130.9
360.833	944.28
361.048	209.06
361.264	-141.14
361.479	-71.51
361.694	12.46
361.909	209.06
362.125	-147.28
362.34	-130.9
362.555	186.54
362.77	114.86
362.986	-249.68
363.201	-104.28
363.416	164.01
363.631	-12.12
363.847	-151.38
364.062	-124.76
364.277	270.5
364.492	73.9
364.707	-173.91
364.922	-378.7
365.138	235.69
365.353	372.9
365.568	-270.16
365.783	-77.65
365.998	39.08
366.213	612.51
366.428	-221.01
366.643	14.51
366.858	209.06
367.073	260.26
367.288	-198.48
367.503	-276.31
367.718	88.23
367.933	301.22
368.148	-323.41
368.363	2.22
368.578	-77.65
368.793	444.58
369.008	-91.99
369.223	-270.16
369.438	213.16
369.653	405.67
369.868	-280.4
370.083	-329.55
370.298	102.57
370.513	417.96
370.728	20.65
370.943	-149.33
371.157	-118.61
371.372	532.64
371.587	-298.83
371.802	-333.65
372.017	71.85
372.232	471.2
372.446	-46.93
372.661	-311.12
372.876	164.01
373.091	184.49
373.306	-51.03
373.52	-247.63
373.735	-182.1
373.95	403.62
374.165	-106.32
374.379	-200.53
374.594	-149.33
374.809	131.24
375.023	6.31
375.238	-227.15
375.453	188.58
375.667	-241.49
375.882	-165.71
376.097	-196.43
376.311	92.33
376.526	6.31
376.741	-313.17
376.955	12.46
377.17	522.4
377.384	594.08
377.599	-53.08
377.813	-212.82
378.028	569.51
378.242	254.12
378.457	-120.66
378.672	-311.12
378.886	82.09
379.101	-20.31
379.315	-352.08
379.53	-229.2
379.744	178.34
379.958	211.11
380.173	-180.05
380.387	-206.67
380.602	145.58
380.816	-204.63
381.031	-218.96
381.245	-130.9
381.459	241.83
381.674	2715.78
381.888	-237.39
382.103	55.47
382.317	-175.95
382.531	475.3
382.746	-98.13
382.96	-173.91
383.174	-143.19
383.388	368.81
383.603	80.04
383.817	-298.83
384.031	180.39
384.246	528.55
384.46	-57.17
384.674	245.93
384.888	63.66
385.103	16.55
385.317	-206.67
385.531	-16.21
385.745	372.9
385.959	268.45
386.174	-239.44
386.388	-313.17
386.602	69.8
386.816	-126.8
387.03	-141.14
387.244	-112.47
387.458	6.31
387.672	405.67
387.887	-284.5
388.101	-259.92
388.315	215.21
388.529	135.34
388.743	-233.3
388.957	-214.87
389.171	327.85
389.385	-159.57
389.599	-198.48
389.813	41.13
390.027	186.54
390.241	606.37
390.455	-175.95
390.669	-73.56
390.883	57.51
391.097	405.67
391.311	69.8
391.525	-200.53
391.738	164.01
391.952	139.43
392.166	-73.56
392.38	-173.91
392.594	315.56
392.808	278.69
393.022	-81.75
393.236	-139.09
393.449	174.25
393.663	194.73
393.877	-335.7
394.091	-139.09
394.305	0.17
394.518	-110.42
394.732	-317.26
394.946	-118.61
395.16	516.26
395.373	159.91
395.587	-235.35
395.801	-225.11
396.015	342.18
396.228	155.82
396.442	-339.79
396.656	-358.22
396.869	309.41
397.083	499.88
397.297	-89.94
397.51	-218.96
397.724	348.33
397.938	125.1
398.151	-315.22
398.365	-321.36
398.578	233.64
398.792	356.52
399.005	-110.42
399.219	-137.04
399.433	86.19
399.646	229.54
399.86	26.79
400.073	47.27
400.287	190.63
400.5	-89.94
400.714	-51.03
400.927	-16.21
401.141	217.26
401.354	1151.13
401.567	237.74
401.781	-231.25
401.994	276.65
402.208	610.47
402.421	-114.52
402.635	-126.8
402.848	-24.4
403.061	258.21
403.275	-110.42
403.488	-198.48
403.701	544.93
403.915	297.13
404.128	80.04
404.341	-159.57
404.555	164.01
404.768	-53.08
404.981	-24.4
405.195	-173.91
405.408	530.59
405.621	290.98
405.834	-30.55
406.048	-294.74
406.261	407.72
406.474	417.96
406.687	-190.29
406.9	-73.56
407.114	49.32
407.327	114.86
407.54	-307.02
407.753	-356.18
407.966	-104.28
408.179	245.93
408.392	-178
408.605	-327.5
408.819	149.67
409.032	170.15
409.245	-233.3
409.458	28.84
409.671	180.39
409.884	209.06
410.097	-323.41
410.31	49.32
410.523	207.02
410.736	0.17
410.949	-44.88
411.162	-124.76
411.375	401.57
411.588	264.36
411.801	26.79
412.014	-225.11
412.227	24.75
412.44	-8.02
412.653	-196.43
412.865	20.65
413.078	274.6
413.291	225.45
413.504	-98.13
413.717	-282.45
413.93	299.17
414.143	-192.34
414.356	-104.28
414.568	-358.22
414.781	254.12
414.994	127.14
415.207	-85.84
415.42	-85.84
415.632	202.92
415.845	477.35
416.058	-266.07
416.271	-311.12
416.483	114.86
416.696	553.12
416.909	-118.61
417.121	-110.42
417.334	200.87
417.547	532.64
417.759	-255.83
417.972	-241.49
418.185	-3.93
418.397	233.64
418.61	-175.95
418.823	-245.59
419.035	417.96
419.248	51.37
419.46	-108.37
419.673	-53.08
419.885	176.3
420.098	16.55
420.311	-169.81
420.523	-440.14
420.736	286.89
420.948	118.95
421.161	-118.61
421.373	-347.98
421.586	192.68
421.798	-102.23
422.01	-380.75
422.223	-108.37
422.435	-126.8
422.648	250.02
422.86	-239.44
423.073	-221.01
423.285	379.04
423.497	-347.98
423.71	-241.49
423.922	-227.15
424.134	147.62
424.347	415.91
424.559	4.27
424.771	98.47
424.984	14.51
425.196	182.44
425.408	-321.36
425.621	-257.87
425.833	229.54
426.045	327.85
426.257	-335.7
426.47	-139.09
426.682	125.1
426.894	176.3
427.106	-151.38
427.318	-132.95
427.531	-53.08
427.743	235.69
427.955	-221.01
428.167	209.06
428.379	192.68
428.591	-63.32
428.804	-143.19
429.016	-227.15
429.228	-44.88
429.44	147.62
429.652	41.13
429.864	-276.31
430.076	4.27
430.288	71.85
430.5	-135
430.712	-26.45
430.924	260.26
431.136	243.88
431.348	-304.98
431.56	-241.49
431.772	73.9
431.984	-42.84
432.196	-307.02
432.408	-130.9
432.62	-100.18
432.832	135.34
433.044	112.81
433.256	-67.41
433.468	112.81
433.679	-323.41
433.891	-331.6
434.103	34.99
434.315	444.58
434.527	170.15
434.739	-10.07
434.95	-149.33
435.162	317.61
435.374	-132.95
435.586	-126.8
435.798	-175.95
436.009	-194.39
436.221	-12.12
436.433	-204.63
436.645	-229.2
436.856	12.46
437.068	221.35
437.28	-245.59
437.491	114.86
437.703	180.39
437.915	73.9
438.126	-147.28
438.338	110.76
438.55	10.41
438.761	262.31
438.973	-206.67
439.184	-171.86
439.396	-61.27
439.608	264.36
439.819	-237.39
440.031	-110.42
440.242	231.59
440.454	168.1
440.665	-120.66
440.877	-38.74
441.088	149.67
441.3	-114.52
441.511	-419.66
441.723	-264.02
441.934	192.68
442.146	65.71
442.357	14.51
442.569	149.67
442.78	32.94
442.991	592.03
443.203	182.44
443.414	-214.87
443.626	364.71
443.837	-30.55
444.048	-298.83
444.26	-319.31
444.471	75.95
444.682	217.26
444.894	-368.46
445.105	-313.17
445.316	215.21
445.528	209.06
445.739	-14.17
445.95	-116.56
446.161	164.01
446.373	237.74
446.584	-145.24
446.795	-216.91
447.006	295.08
447.217	446.63
447.429	-419.66
447.64	-315.22
447.851	401.57
448.062	61.61
448.273	-311.12
448.484	-206.67
448.695	168.1
448.907	-5.97
449.118	-57.17
449.329	73.9
449.54	-102.23
449.751	-135
449.962	-159.57
450.173	-165.71
450.384	282.79
450.595	356.52
450.806	-180.05
451.017	-61.27
451.228	481.44
451.439	211.11
451.65	-253.78
451.861	-520.01
452.072	-116.56
452.283	80.04
452.494	8.36
452.705	-200.53
452.915	463.01
453.126	143.53
453.337	-145.24
453.548	-153.43
453.759	260.26
453.97	655.52
454.181	102.57
454.391	-233.3
454.602	131.24
454.813	159.91
455.024	-190.29
455.235	-151.38
455.445	159.91
455.656	116.9
455.867	43.18
456.078	-294.74
456.288	12.46
456.499	166.06
456.71	-311.12
456.921	217.26
457.131	151.72
457.342	80.04
457.553	-110.42
457.763	-159.57
457.974	96.43
458.184	305.32
458.395	-239.44
458.606	-282.45
458.816	323.75
459.027	516.26
459.237	4.27
459.448	-339.79
459.659	381.09
459.869	575.65
460.08	-431.95
460.29	-137.04
460.501	467.11
460.711	-77.65
460.922	-282.45
461.132	-233.3
461.343	649.38
461.553	-231.25
461.764	-249.68
461.974	-194.39
462.184	243.88
462.395	258.21
462.605	-73.56
462.816	-290.64
463.026	145.58
463.236	348.33
463.447	-253.78
463.657	-159.57
463.867	241.83
464.078	-108.37
464.288	-135
464.498	-182.1
464.709	90.28
464.919	45.23
465.129	-132.95
465.339	-264.02
465.55	135.34
465.76	315.56
465.97	-110.42
466.18	-200.53
466.391	301.22
466.601	164.01
466.811	-126.8
467.021	-276.31
467.231	254.12
467.441	409.76
467.651	-48.98
467.862	-466.77
468.072	-12.12
468.282	229.54
468.492	-198.48
468.702	-169.81
468.912	57.51
469.122	612.51
469.332	98.47
469.542	-225.11
469.752	237.74
469.962	20.65
470.172	-282.45
470.382	-268.11
470.592	350.37
470.802	309.41
471.012	-40.79
471.222	-239.44
471.432	305.32
471.642	237.74
471.852	-151.38
472.062	-296.78
472.272	-5.97
472.482	-218.96
472.691	-298.83
472.901	-296.78
473.111	116.9
473.321	665.76
473.531	-241.49
473.741	-102.23
473.95	202.92
474.16	229.54
474.37	-40.79
474.58	-270.16
474.79	585.89
474.999	315.56
475.209	-182.1
475.419	-108.37
475.628	55.47
475.838	399.52
476.048	-85.84
476.258	-343.89
476.467	315.56
476.677	-40.79
476.886	49.32
477.096	-57.17
477.306	-79.7
477.515	399.52
477.725	-81.75
477.935	-118.61
478.144	442.53
478.354	49.32
478.563	-85.84
478.773	-149.33
478.982	286.89
479.192	446.63
479.401	-98.13
479.611	-276.31
479.82	-102.23
480.03	204.97
480.239	-135
480.449	-304.98
480.658	444.58
480.868	-85.84
481.077	37.03
481.287	-81.75
481.496	258.21
481.705	528.55
481.915	153.77
482.124	155.82
482.333	180.39
482.543	483.49
482.752	-61.27
482.961	-229.2
483.171	250.02
483.38	114.86
483.589	-36.69
483.799	-143.19
484.008	57.51
484.217	391.33
484.426	-77.65
484.636	-190.29
484.845	225.45
485.054	-202.58
485.263	207.02
485.472	-77.65
485.682	536.74
485.891	190.63
486.1	-214.87
486.309	-81.75
486.518	422.05
486.727	577.7
486.936	-225.11
487.146	63.66
487.355	440.48
487.564	-44.88
487.773	-32.6
487.982	2.22
488.191	-53.08
488.4	209.06
488.609	-28.5
488.818	-89.94
489.027	729.25
489.236	538.79
489.445	-53.08
489.654	-91.99
489.863	454.82
490.072	166.06
490.281	319.65
490.49	4.27
490.698	637.09
490.907	549.03
491.116	12.46
491.325	-192.34
491.534	596.13
491.743	233.64
491.952	102.57
492.16	49.32
492.369	448.68
492.578	514.21
492.787	131.24
492.996	-157.52
493.204	135.34
493.413	626.85
493.622	-233.3
493.831	-280.4
494.039	567.46
494.248	47.27
494.457	-89.94
494.665	-208.72
494.874	436.39
495.083	747.68
495.291	98.47
495.5	-114.52
495.709	411.81
495.917	231.59
496.126	39.08
496.335	-85.84
496.543	196.78
496.752	317.61
496.96	233.64
497.169	-147.28
497.377	243.88
497.586	544.93
497.794	143.53
498.003	-130.9
498.211	241.83
498.42	688.29
498.628	102.57
498.837	-8.02
499.045	381.09
499.254	352.42
499.462	67.75
499.671	-38.74
499.879	829.6
500.087	483.49
500.296	82.09
500.504	108.71
500.713	348.33
500.921	837.79
501.129	-1.88
501.338	6.31
501.546	362.66
501.754	377
501.962	123.05
502.171	-118.61
502.379	495.78
502.587	778.4
502.795	37.03
503.004	71.85
503.212	262.31
503.42	659.62
503.628	69.8
503.837	213.16
504.045	385.19
504.253	733.34
504.461	129.19
504.669	-135
504.877	522.4
505.085	741.54
505.294	-79.7
505.502	417.96
505.71	407.72
505.918	463.01
506.126	63.66
506.334	75.95
506.542	374.95
506.75	422.05
506.958	192.68
507.166	75.95
507.374	307.37
507.582	905.37
507.79	168.1
507.998	100.52
508.206	452.77
508.414	553.12
508.622	-3.93
508.83	139.43
509.037	733.34
509.245	344.23
509.453	53.42
509.661	22.7
509.869	618.66
510.077	393.38
510.285	260.26
510.492	-178
510.7	1093.79
510.908	303.27
511.116	143.53
511.324	73.9
511.531	268.45
511.739	426.15
511.947	368.81
512.155	432.29
512.362	483.49
512.57	157.86
512.778	24.75
512.985	6.31
513.193	671.9
513.401	895.13
513.608	241.83
513.816	102.57
514.024	571.55
514.231	723.1
514.439	116.9
514.646	157.86
514.854	680.1
515.061	745.63
515.269	227.5
515.477	190.63
515.684	278.69
515.892	743.58
516.099	43.18
516.307	22.7
516.514	610.47
516.722	868.51
516.929	178.34
517.136	159.91
517.344	845.98
517.551	659.62
517.759	184.49
517.966	303.27
518.173	467.11
518.381	506.02
518.588	243.88
518.796	184.49
519.003	712.86
519.21	463.01
519.418	192.68
519.625	489.64
519.832	506.02
520.039	546.98
520.247	75.95
520.454	286.89
520.661	757.92
520.868	659.62
521.076	241.83
521.283	336.04
521.49	1200.28
521.697	753.82
521.904	315.56
522.112	299.17
522.319	733.34
522.526	620.71
522.733	221.35
522.94	290.98
523.147	614.56
523.354	790.69
523.561	164.01
523.768	356.52
523.975	809.12
524.183	626.85
524.39	442.53
524.597	178.34
524.804	622.75
525.011	327.85
525.218	327.85
525.425	313.51
525.632	917.66
525.838	573.6
526.045	290.98
526.252	282.79
526.459	1859.73
526.666	1482.9
526.873	317.61
527.08	295.08
527.287	964.76
527.494	876.7
527.701	221.35
527.907	299.17
528.114	774.3
528.321	635.04
528.528	387.24
528.735	309.41
528.941	542.88
529.148	549.03
529.355	551.07
529.562	372.9
529.768	1013.92
529.975	585.89
530.182	475.3
530.388	288.93
530.595	934.04
530.802	377
531.008	587.94
531.215	368.81
531.422	1136.79
531.628	1437.84
531.835	503.97
532.042	518.31
532.248	575.65
532.455	778.4
532.661	522.4
532.868	391.33
533.074	776.35
533.281	1034.39
533.487	467.11
533.694	405.67
533.9	516.26
534.107	778.4
534.313	426.15
534.52	356.52
534.726	1036.44
534.933	1194.14
535.139	319.65
535.345	405.67
535.552	856.22
535.758	786.59
535.965	553.12
536.171	489.64
536.377	968.86
536.584	1089.69
536.79	463.01
536.996	637.09
537.203	891.04
537.409	909.47
537.615	577.7
537.821	704.67
538.028	999.58
538.234	907.42
538.44	542.88
538.646	688.29
538.853	954.52
539.059	843.93
539.265	809.12
539.471	295.08
539.677	1038.49
539.883	676
540.09	495.78
540.296	921.76
540.502	882.85
540.708	739.49
540.914	776.35
541.12	592.03
541.326	1011.87
541.532	762.02
541.738	700.58
541.944	667.81
542.15	1052.83
542.356	929.95
542.562	573.6
542.768	637.09
542.974	1527.96
543.18	1413.27
543.386	618.66
543.592	481.44
543.798	1314.97
544.004	1220.76
544.21	620.71
544.415	811.17
544.621	979.1
544.827	1200.28
545.033	583.84
545.239	946.33
545.445	716.96
545.651	1081.5
545.856	563.36
546.062	649.38
546.268	958.62
546.474	1020.06
546.679	727.2
546.885	833.69
547.091	860.32
547.297	1546.39
547.502	807.07
547.708	639.14
547.914	848.03
548.119	1136.79
548.325	655.52
548.531	587.94
548.736	1390.74
548.942	870.56
549.147	835.74
549.353	1011.87
549.559	1366.17
549.764	1296.53
549.97	798.88
550.175	790.69
550.381	1226.9
550.586	923.8
550.792	856.22
550.997	827.55
551.203	1228.95
551.408	1267.86
551.614	706.72
551.819	837.79
552.025	1478.8
552.23	1538.2
552.435	725.15
552.641	1052.83
552.846	1011.87
553.052	1491.09
553.257	960.67
553.462	952.48
553.668	958.62
553.873	1415.32
554.078	821.41
554.283	856.22
554.489	1357.97
554.694	1128.6
554.899	798.88
555.105	1061.02
555.31	1431.7
555.515	1341.59
555.72	966.81
555.925	798.88
556.131	1552.53
556.336	999.58
556.541	891.04
556.746	821.41
556.951	1497.24
557.156	1482.9
557.361	1093.79
557.567	1095.83
557.772	1745.04
557.977	1357.97
558.182	981.15
558.387	983.2
558.592	1212.57
558.797	1634.45
559.002	1069.21
559.207	1077.4
559.412	1308.82
559.617	1636.5
559.822	1116.31
560.027	915.61
560.232	1282.2
560.437	1482.9
560.642	977.05
560.847	960.67
561.051	1341.59
561.256	1462.42
561.461	993.44
561.666	868.51
561.871	1413.27
562.076	1495.19
562.281	1089.69
562.485	954.52
562.69	1501.33
562.895	1675.41
563.1	995.48
563.305	1032.35
563.509	1665.17
563.714	1886.35
563.919	1028.25
564.123	1077.4
564.328	1355.93
564.533	1724.56
564.737	1192.09
564.942	1212.57
565.147	1831.05
565.351	1806.48
565.556	1171.61
565.761	1163.42
565.965	1487
566.17	1278.1
566.374	1159.32
566.579	1036.44
566.784	1527.96
566.988	1380.5
567.193	1007.77
567.397	1114.27
567.602	1226.9
567.806	1450.13
568.011	1134.75
568.215	1294.49
568.42	1521.81
568.624	1536.15
568.828	1202.33
569.033	1343.64
569.237	1650.83
569.442	1640.59
569.646	1163.42
569.85	1249.43
570.055	1632.4
570.259	1581.2
570.463	1450.13
570.668	1259.67
570.872	1632.4
571.076	1505.43
571.281	1431.7
571.485	1390.74
571.689	1507.48
571.893	1835.15
572.098	1491.09
572.302	1306.77
572.506	1773.71
572.71	1595.54
572.914	1290.39
573.119	1337.49
573.323	2019.47
573.527	1953.93
573.731	1327.25
573.935	1263.77
574.139	1699.98
574.343	1357.97
574.547	1437.84
574.751	1468.56
574.955	1945.74
575.159	1908.88
575.364	1398.93
575.568	1274.01
575.772	1714.32
575.976	1845.39
576.18	1400.98
576.383	1353.88
576.587	2035.85
576.791	1900.69
576.995	1220.76
577.199	1282.2
577.403	2103.43
577.607	2109.58
577.811	1306.77
578.015	1497.24
578.219	1843.34
578.422	1962.12
578.626	1517.72
578.83	1628.31
579.034	1982.6
579.238	1831.05
579.442	1505.43
579.645	1876.11
579.849	1788.05
580.053	1953.93
580.257	1642.64
580.46	1632.4
580.664	2089.1
580.868	1976.46
581.071	1757.33
581.275	1718.42
581.479	1501.33
581.682	2015.37
581.886	1577.11
582.09	1699.98
582.293	2005.13
582.497	2158.73
582.7	1847.44
582.904	1570.96
583.107	2052.24
583.311	1841.29
583.515	1699.98
583.718	1753.23
583.922	2156.68
584.125	2447.49
584.329	1656.98
584.532	1970.32
584.735	2310.28
584.939	2027.66
585.142	1560.72
585.346	1616.02
585.549	2148.49
585.753	1890.45
585.956	1659.03
586.159	1937.55
586.363	2439.3
586.566	2203.79
586.769	1642.64
586.973	1618.07
587.176	2265.22
587.379	2316.42
587.582	2125.96
587.786	1966.22
587.989	1980.56
588.192	2705.54
588.395	1886.35
588.599	2138.25
588.802	2240.65
589.005	2318.47
589.208	1808.53
589.411	1818.77
589.615	2291.85
589.818	2414.73
590.021	2132.11
590.224	1882.25
590.427	2437.25
590.63	2431.11
590.833	1745.04
591.036	1921.17
591.239	2193.55
591.442	2103.43
591.645	2261.13
591.848	1818.77
592.051	2361.48
592.254	2531.46
592.457	2033.8
592.66	2080.91
592.863	2248.84
593.066	2338.95
593.269	1998.99
593.472	2203.79
593.675	2105.48
593.878	2422.92
594.081	2142.35
594.284	1851.53
594.486	2531.46
594.689	2304.14
594.892	2171.02
595.095	2109.58
595.298	2523.27
595.5	2304.14
595.703	2252.94
595.906	2283.66
596.109	2650.24
596.311	2689.15
596.514	1960.08
596.717	2279.56
596.92	2717.83
597.122	2429.06
597.325	1904.78
597.528	2179.21
597.73	2793.6
597.933	2486.4
598.136	2134.15
598.338	1955.98
598.541	2660.48
598.743	2689.15
598.946	2203.79
599.148	2293.9
599.351	2736.26
599.554	2799.74
599.756	2420.87
599.959	2316.42
600.161	2715.78
600.363	3180.67
600.566	2515.08
600.768	2365.57
600.971	2965.63
601.173	2637.95
601.376	2326.66
601.578	2324.62
601.78	2668.67
601.983	3272.82
602.185	2230.41
602.388	2537.6
602.59	2707.59
602.792	2543.75
602.995	2564.23
603.197	2375.81
603.399	2771.07
603.601	2781.31
603.804	2439.3
604.006	2209.93
604.208	2553.99
604.41	2201.74
604.613	2500.74
604.815	2216.07
605.017	3418.23
605.219	2461.83
605.421	2863.23
605.623	2515.08
605.826	3041.4
606.028	3106.94
606.23	2457.73
606.432	2543.75
606.634	3190.91
606.836	3035.26
607.038	2341
607.24	2781.31
607.442	2715.78
607.644	2861.18
607.846	2674.82
608.048	2541.7
608.25	3147.9
608.452	2580.61
608.654	2605.19
608.856	2265.22
609.058	2840.7
609.26	3051.64
609.462	2723.97
609.664	2578.56
609.866	3448.95
610.067	2998.4
610.269	2822.27
610.471	2611.33
610.673	2887.81
610.875	3035.26
611.077	2443.4
611.278	2771.07
611.48	3047.55
611.682	3410.04
611.884	2914.43
612.085	2826.37
612.287	2703.49
612.489	3039.36
612.69	2553.99
612.892	2820.22
613.094	3301.5
613.295	3094.65
613.497	2672.77
613.699	2814.08
613.9	3389.56
614.102	3188.86
614.304	2699.39
614.505	2502.79
614.707	3041.4
614.908	3108.99
615.11	2764.93
615.311	2771.07
615.513	3297.4
615.714	3440.76
615.916	2707.59
616.117	2812.03
616.319	3068.03
616.52	3344.5
616.722	2969.73
616.923	2842.75
617.124	3369.08
617.326	3373.18
617.527	2957.44
617.729	3145.85
617.93	3334.26
618.131	3352.7
618.333	2793.6
618.534	2975.87
618.735	2982.01
618.937	3543.16
619.138	2783.36
619.339	2873.47
619.54	3313.78
619.742	3022.97
619.943	3106.94
620.144	3117.18
620.345	3487.86
620.546	3428.47
620.748	2973.82
620.949	2979.97
621.15	3281.02
621.351	3186.81
621.552	2961.53
621.753	2758.78
621.954	3010.68
622.155	3723.38
622.356	2830.46
622.558	3166.33
622.759	3283.06
622.96	3723.38
623.161	3141.75
623.362	3086.46
623.563	3358.84
623.764	3330.17
623.965	3080.32
624.166	3305.59
624.366	3373.18
624.567	3379.32
624.768	2924.67
624.969	3006.59
625.17	3317.88
625.371	3702.9
625.572	3141.75
625.773	3063.93
625.973	3633.27
626.174	3670.13
626.375	3156.09
626.576	3244.15
626.777	3436.66
626.977	3831.92
627.178	3233.91
627.379	3303.54
627.58	3360.89
627.78	3588.21
627.981	3264.63
628.182	3407.99
628.382	3711.09
628.583	3219.58
628.784	3102.84
628.984	3453.05
629.185	3764.34
629.386	3846.26
629.586	3319.93
629.787	3254.39
629.987	3586.16
630.188	3543.16
630.388	3264.63
630.589	3483.77
630.79	4247.66
630.99	3760.24
631.191	3577.97
631.391	3506.29
631.591	3850.35
631.792	4112.49
631.992	3448.95
632.193	3426.42
632.393	3848.3
632.594	3586.16
632.794	3285.11
632.994	3494.01
633.195	3846.26
633.395	3750
633.595	3367.03
633.796	3700.85
633.996	3555.44
634.196	4089.96
634.397	3440.76
634.597	3688.56
634.797	3567.73
634.997	4098.16
635.198	3680.37
635.398	3383.42
635.598	3938.41
635.798	3864.69
635.998	4038.77
636.199	3487.86
636.399	3686.51
636.599	3631.22
636.799	3680.37
636.999	3790.96
637.199	4003.95
637.399	4124.78
637.599	3706.99
637.799	3754.1
637.999	3799.15
638.199	4130.92
638.399	3653.75
638.599	3543.16
638.799	4135.02
638.999	4401.26
639.199	3840.11
639.399	3836.02
639.599	4229.23
639.799	3819.63
639.999	3758.19
640.199	3645.56
640.399	4042.86
640.599	4003.95
640.799	3784.82
640.998	3993.71
641.198	4284.52
641.398	4194.41
641.598	3889.26
641.798	3799.15
641.997	4884.58
642.197	4008.05
642.397	3932.27
642.597	3844.21
642.796	4239.47
642.996	4386.92
643.196	3936.37
643.395	3711.09
643.595	4153.45
643.795	3612.79
643.994	3913.84
644.194	3932.27
644.394	4417.64
644.593	4182.12
644.793	3620.98
644.992	4161.64
645.192	4268.14
645.392	3706.99
645.591	4247.66
645.791	3909.74
645.99	4386.92
646.19	4163.69
646.389	4024.43
646.589	4038.77
646.788	4415.59
646.987	4526.18
647.187	4272.23
647.386	4235.37
647.586	4210.79
647.785	4513.89
647.984	4282.47
648.184	4051.05
648.383	4178.03
648.582	4225.13
648.782	4141.16
648.981	4272.23
649.18	4081.77
649.38	4354.15
649.579	4143.21
649.778	4141.16
649.977	4571.24
650.177	4737.12
650.376	4034.67
650.575	4124.78
650.774	4780.13
650.973	4259.95
651.173	3928.17
651.372	4190.31
651.571	4591.72
651.77	4714.59
651.969	4284.52
652.168	4155.5
652.367	4212.84
652.566	4452.45
652.765	4315.24
652.964	4567.14
653.163	5142.62
653.362	4522.09
653.561	4311.14
653.76	4313.19
653.959	4493.41
654.158	4620.39
654.357	4677.73
654.556	4309.1
654.755	4685.92
654.954	4851.81
655.153	4257.9
655.352	4409.45
655.551	4993.12
655.749	4558.95
655.948	4399.21
656.147	4542.57
656.346	4882.53
656.545	4665.44
656.743	4489.32
656.942	4434.02
657.141	4776.03
657.34	4483.17
657.538	4563.05
657.737	4477.03
657.936	4597.86
658.135	4851.81
658.333	4436.07
658.532	4823.14
658.731	5253.21
658.929	4960.35
659.128	4718.69
659.326	4474.98
659.525	4972.64
659.724	4847.71
659.922	4409.45
660.121	4401.26
660.319	4821.09
660.518	4640.87
660.716	4524.13
660.915	4417.64
661.113	5128.28
661.312	4565.09
661.51	4845.66
661.709	4606.05
661.907	5036.13
662.105	5357.66
662.304	4642.92
662.502	4700.26
662.701	5304.41
662.899	4886.62
663.097	5116
663.296	4409.45
663.494	5167.2
663.692	5410.9
663.891	4659.3
664.089	4632.68
664.287	5048.41
664.485	5288.03
664.684	4708.45
664.882	4857.95
665.08	5060.7
665.278	5011.55
665.476	4511.85
665.675	4968.54
665.873	5517.4
666.071	5253.21
666.269	4802.66
666.467	4952.16
666.665	4964.45
666.863	4900.96
667.061	4976.73
667.259	4827.23
667.457	4970.59
667.655	5267.55
667.853	4587.62
668.051	4862.05
668.249	4937.82
668.447	5245.02
668.645	4808.8
668.843	5001.31
669.041	5363.8
669.239	5050.46
669.437	4993.12
669.635	5138.52
669.833	5093.47
670.031	5302.36
670.229	5124.19
670.426	5079.13
670.624	5116
670.822	4984.93
671.02	4980.83
671.218	5103.71
671.415	5034.08
671.613	5271.64
671.811	5058.65
672.009	4962.4
672.206	5425.24
672.404	5183.58
672.602	5294.17
672.799	5267.55
672.997	5533.78
673.195	5380.18
673.392	5144.67
673.59	5099.61
673.788	5374.04
673.985	4792.42
674.183	5120.09
674.38	4954.21
674.578	5406.81
674.775	5144.67
674.973	4954.21
675.17	4866.14
675.368	5683.28
675.565	5468.25
675.763	5263.45
675.96	5015.65
676.158	5642.32
676.355	5302.36
676.553	5072.99
676.75	5089.37
676.947	5472.34
677.145	5374.04
677.342	5396.57
677.539	5159
677.737	5285.98
677.934	5918.8
678.131	5335.13
678.329	5025.89
678.526	5802.07
678.723	5748.82
678.92	5294.17
679.118	5091.42
679.315	5136.48
679.512	5791.83
679.709	5251.16
679.906	5298.27
680.104	5797.97
680.301	5462.1
680.498	5048.41
680.695	5165.15
680.892	5285.98
681.089	5206.11
681.286	5386.33
681.483	5148.76
681.68	5734.48
681.877	5660.76
682.075	5300.31
682.272	5591.13
682.469	5482.58
682.665	5392.47
682.862	5093.47
683.059	5070.94
683.256	5548.12
683.453	5642.32
683.65	5214.3
683.847	5183.58
684.044	5546.07
684.241	5441.62
684.438	5427.29
684.635	5263.45
684.831	5881.94
685.028	5988.43
685.225	5281.88
685.422	5603.41
685.619	5441.62
685.815	5566.55
686.012	5568.6
686.209	5279.83
686.405	5247.07
686.602	5773.39
686.799	5247.07
686.996	5283.93
687.192	5218.4
687.389	6211.66
687.586	5328.99
687.782	5589.08
687.979	6082.64
688.175	5931.09
688.372	5572.69
688.568	5513.3
688.765	5472.34
688.962	5914.7
689.158	5312.6
689.355	5316.7
689.551	5767.25
689.748	5697.62
689.944	5537.88
690.14	5247.07
690.337	5814.35
690.533	5685.33
690.73	5707.86
690.926	5570.65
691.123	5947.47
691.319	5785.68
691.515	5230.68
691.712	5591.13
691.908	5797.97
692.104	5664.85
692.301	5498.97
692.497	5462.1
692.693	5826.64
692.889	5843.03
693.086	5750.87
693.282	5476.44
693.478	5810.26
693.674	6066.25
693.87	5404.76
694.067	5365.85
694.263	5865.55
694.459	5496.92
694.655	5697.62
694.851	5703.76
695.047	5875.79
695.243	5941.33
695.439	5836.88
695.635	5511.25
695.831	5847.12
696.027	5984.34
696.224	5437.53
696.42	5867.6
696.615	6103.12
696.811	5705.81
697.007	5347.42
697.203	5574.74
697.399	5955.66
697.595	6037.58
697.791	5353.56
697.987	5722.2
698.183	5656.66
698.379	5535.83
698.575	5601.37
698.77	5795.92
698.966	5953.62
699.162	6058.06
699.358	5730.39
699.554	5660.76
699.749	6094.93
699.945	5910.61
700.141	5660.76
700.337	5840.98
700.532	5703.76
700.728	5830.74
700.924	5527.64
701.119	5464.15
701.315	5890.13
701.511	5795.92
701.706	5630.04
701.902	5494.87
702.097	5890.13
702.293	6017.1
702.489	5775.44
702.684	5697.62
702.88	5986.38
703.075	5707.86
703.271	5746.77
703.466	5771.35
703.662	5830.74
703.857	6090.83
704.053	5683.28
704.248	5836.88
704.443	6150.22
704.639	6086.73
704.834	5754.96
705.03	5828.69
705.225	6205.52
705.42	6228.04
705.616	6049.87
705.811	5638.23
706.006	5972.05
706.202	5898.32
706.397	5795.92
706.592	5781.59
706.787	5877.84
706.983	5935.18
707.178	6111.31
707.373	5806.16
707.568	6185.04
707.763	6246.48
707.959	5920.85
708.154	5623.89
708.349	5933.14
708.544	6219.85
708.739	5945.42
708.934	5632.08
709.129	6301.77
709.324	6252.62
709.519	5734.48
709.714	5660.76
709.909	6701.12
710.104	6182.99
710.299	5744.72
710.494	6013.01
710.689	6287.43
710.884	6127.69
711.079	5963.86
711.274	6287.43
711.469	6281.29
711.664	6174.8
711.859	5892.18
712.054	6066.25
712.249	6223.95
712.443	6432.84
712.638	5814.35
712.833	5886.03
713.028	6139.98
713.223	6242.38
713.417	6217.8
713.612	6019.15
713.807	6369.35
714.002	6824
714.196	6242.38
714.391	5896.27
714.586	6287.43
714.78	6219.85
714.975	5972.05
715.17	5929.04
715.364	6150.22
715.559	6381.64
715.754	5517.4
715.948	5894.22
716.143	6672.45
716.337	6254.67
716.532	6285.39
716.726	5967.95
716.921	6463.56
717.115	6694.98
717.31	5804.11
717.504	6361.16
717.699	6156.36
717.893	6373.45
718.088	5853.27
718.282	5808.21
718.476	6246.48
718.671	6293.58
718.865	6076.49
719.059	5976.14
719.254	6160.46
719.448	6701.12
719.642	7311.42
719.837	5699.67
720.031	6348.87
720.225	6387.79
720.419	6072.4
720.614	5924.94
720.808	6297.67
721.002	6166.6
721.196	5926.99
721.39	6006.86
721.585	6371.4
721.779	6377.55
721.973	5970
722.167	5724.24
722.361	6193.23
722.555	6518.86
722.749	6135.89
722.943	6062.16
723.137	5904.46
723.331	6373.45
723.525	6117.45
723.719	5865.55
723.913	6508.62
724.107	6617.16
724.301	6004.82
724.495	6164.56
724.689	6584.39
724.883	6572.1
725.077	6152.27
725.271	6238.28
725.465	6512.71
725.659	6385.74
725.853	6076.49
726.046	6043.73
726.24	6135.89
726.434	6348.87
726.628	6252.62
726.822	6072.4
727.015	6604.87
727.209	6772.8
727.403	6074.45
727.596	5986.38
727.79	6608.97
727.984	6654.02
728.177	6144.08
728.371	6119.5
728.565	6770.76
728.758	6228.04
728.952	6137.93
729.146	6090.83
729.339	6627.4
729.533	6209.61
729.726	6201.42
729.92	6010.96
730.113	6729.8
730.307	6238.28
730.5	6135.89
730.694	6142.03
730.887	6156.36
731.081	6504.52
731.274	6142.03
731.468	6326.35
731.661	6279.24
731.854	6256.72
732.048	6201.42
732.241	5978.19
732.435	6342.73
732.628	6481.99
732.821	6213.71
733.014	6182.99
733.208	6105.17
733.401	6766.66
733.594	6312.01
733.788	6232.14
733.981	6797.38
734.174	6592.58
734.367	6119.5
734.56	6438.98
734.754	6692.93
734.947	6467.66
735.14	6205.52
735.333	6348.87
735.526	6754.37
735.719	6393.93
735.912	6146.12
736.105	6250.57
736.298	6705.22
736.491	6379.59
736.684	6336.59
736.877	6182.99
737.07	6545.48
737.263	6797.38
737.456	6363.21
737.649	6096.97
737.842	6484.04
738.035	6570.05
738.228	6543.43
738.421	6453.32
738.614	6877.25
738.807	6692.93
739	6037.58
739.192	6246.48
739.385	6834.24
739.578	6832.19
739.771	6647.88
739.964	6148.17
740.156	6754.37
740.349	6504.52
740.542	6645.83
740.735	6262.86
740.927	6352.97
741.12	6436.94
741.313	6275.15
741.505	6631.49
741.698	6805.57
741.891	6901.83
742.083	6570.05
742.276	6318.15
742.468	6776.9
742.661	6582.34
742.854	6410.31
743.046	6295.63
743.239	6918.21
743.431	6574.15
743.624	6391.88
743.816	6406.22
744.009	6563.91
744.201	6668.36
744.393	6678.6
744.586	6271.05
744.778	6860.87
744.971	6623.3
745.163	6555.72
745.355	6559.81
745.548	6676.55
745.74	6578.25
745.932	6563.91
746.125	6678.6
746.317	7450.68
746.509	6889.54
746.702	6621.25
746.894	6619.21
747.086	6746.18
747.278	6930.5
747.471	6529.1
747.663	6393.93
747.855	6731.84
748.047	6961.22
748.239	6465.61
748.431	6410.31
748.623	7125.05
748.815	7114.81
749.008	6322.25
749.2	6438.98
749.392	6983.74
749.584	6920.26
749.776	6680.64
749.968	6735.94
750.16	7176.25
750.352	6807.62
750.544	6676.55
750.736	6598.73
750.928	6961.22
751.12	6772.8
751.311	6529.1
751.503	6543.43
751.695	6608.97
751.887	6760.52
752.079	6287.43
752.271	6475.85
752.463	7471.16
752.654	6799.43
752.846	6477.9
753.038	6404.17
753.23	6426.7
753.421	6809.67
753.613	6490.18
753.805	6836.29
753.997	6891.59
754.188	6895.68
754.38	6467.66
754.572	6535.24
754.763	6824
754.955	6807.62
755.146	6826.05
755.338	6651.97
755.53	6828.1
755.721	6789.19
755.913	6506.57
756.104	6416.46
756.296	6654.02
756.487	6930.5
756.679	6484.04
756.87	6537.29
757.062	6477.9
757.253	6993.98
757.445	6664.26
757.636	6625.35
757.827	6697.03
758.019	7354.43
758.21	6475.85
758.401	6572.1
758.593	7262.27
758.784	7071.81
758.975	6430.79
759.167	6438.98
759.358	6719.56
759.549	6910.02
759.74	6459.46
759.932	6531.14
760.123	7016.51
760.314	6561.86
760.505	6357.07
760.696	6377.55
760.888	7340.09
761.079	6826.05
761.27	6330.44
761.461	6238.28
761.652	7159.87
761.843	6666.31
762.034	6527.05
762.225	6686.79
762.416	6660.17
762.607	6658.12
762.798	6563.91
762.989	6377.55
763.18	7610.42
763.371	6670.4
763.562	6291.53
763.753	6475.85
763.944	6971.46
764.135	6854.72
764.326	6701.12
764.517	6600.77
764.708	6731.84
764.899	6815.81
765.089	6578.25
765.28	6221.9
765.471	6725.7
765.662	6893.63
765.853	6582.34
766.043	6293.58
766.234	6860.87
766.425	6869.06
766.615	6418.5
766.806	6142.03
766.997	7010.37
767.187	6553.67
767.378	6375.5
767.569	6211.66
767.759	6877.25
767.95	7018.56
768.141	6584.39
768.331	6510.66
768.522	6443.08
768.712	6955.07
768.903	6258.76
769.093	6381.64
769.284	7143.49
769.474	6740.04
769.665	6412.36
769.855	6363.21
770.046	6819.91
770.236	6580.29
770.426	6686.79
770.617	6367.31
770.807	6713.41
770.998	6627.4
771.188	6479.94
771.378	6250.57
771.569	6733.89
771.759	6873.15
771.949	6295.63
772.139	6137.93
772.33	6606.92
772.52	7065.66
772.71	6176.84
772.9	6209.61
773.09	7073.85
773.281	7147.58
773.471	6103.12
773.661	6367.31
773.851	6891.59
774.041	6520.9
774.231	6281.29
774.421	6269
774.611	6950.98
774.802	6660.17
774.992	6395.98
775.182	6254.67
775.372	6805.57
775.562	6742.08
775.752	6279.24
775.942	6352.97
776.131	6979.65
776.321	6877.25
776.511	6295.63
776.701	6340.68
776.891	6858.82
777.081	6469.7
777.271	6574.15
777.461	6375.5
777.651	6744.13
777.84	6879.3
778.03	6441.03
778.22	6344.78
778.41	6996.03
778.599	6432.84
778.789	6432.84
778.979	6309.96
779.169	6678.6
779.358	6699.08
779.548	6762.56
779.738	6172.75
779.927	6602.82
780.117	6414.41
780.307	6299.72
780.496	6252.62
780.686	6713.41
780.875	7159.87
781.065	6230.09
781.254	6232.14
781.444	6819.91
781.633	6520.9
781.823	6131.79
782.012	6211.66
782.202	6404.17
782.391	6606.92
782.581	6451.27
782.77	6596.68
782.96	6733.89
783.149	6492.23
783.338	6250.57
783.528	5929.04
783.717	6731.84
783.906	6811.71
784.096	6322.25
784.285	5951.57
784.474	6332.49
784.663	6352.97
784.853	6299.72
785.042	6363.21
785.231	6357.07
785.42	6826.05
785.61	6348.87
785.799	6236.24
785.988	6527.05
786.177	6504.52
786.366	6254.67
786.555	6475.85
786.744	6787.14
786.933	6451.27
787.122	6203.47
787.312	6066.25
787.501	6402.12
787.69	6645.83
787.879	6393.93
788.068	6160.46
788.257	6158.41
788.445	6410.31
788.634	6266.96
788.823	5875.79
789.012	7131.2
789.201	6641.73
789.39	6269
789.579	5912.66
789.768	6578.25
789.957	6434.89
790.145	6160.46
790.334	5898.32
790.523	6385.74
790.712	6432.84
790.9	6164.56
791.089	6004.82
791.278	6688.84
791.467	6469.7
791.655	6520.9
791.844	6676.55
792.033	6312.01
792.221	6213.71
792.41	6185.04
792.599	5822.55
792.787	6522.95
792.976	6656.07
793.164	6125.65
793.353	6164.56
793.541	6744.13
793.73	6746.18
793.918	6352.97
794.107	6226
794.295	6453.32
794.484	6549.57
794.672	6115.41
794.861	6172.75
795.049	6604.87
795.238	6817.86
795.426	5857.36
795.614	6219.85
795.803	6430.79
795.991	6848.58
796.179	5980.24
796.368	6115.41
796.556	6713.41
796.744	6131.79
796.932	6135.89
797.121	6082.64
797.309	6322.25
797.497	6654.02
797.685	6207.56
797.874	6197.32
798.062	6336.59
798.25	6670.4
798.438	6033.49
798.626	6172.75
798.814	6438.98
799.002	6901.83
799.19	6371.4
799.378	6070.35
799.566	6658.12
799.755	6819.91
799.943	6232.14
800.131	6008.91
800.318	6547.53
800.506	6375.5
800.694	6094.93
800.882	6201.42
801.07	6758.47
801.258	6389.83
801.446	6139.98
801.634	6389.83
801.822	6578.25
802.01	6533.19
802.197	6258.76
802.385	6363.21
802.573	6682.69
802.761	6385.74
802.949	6355.02
803.136	6164.56
803.324	6744.13
803.512	6715.46
803.699	6381.64
803.887	6049.87
804.075	6881.35
804.262	6365.26
804.45	6086.73
804.638	6393.93
804.825	6332.49
805.013	6336.59
805.201	6336.59
805.388	6195.28
805.576	6666.31
805.763	7278.65
805.951	6500.42
806.138	6494.28
806.326	7002.18
806.513	6828.1
806.701	6369.35
806.888	6352.97
807.075	6748.23
807.263	7180.35
807.45	6271.05
807.638	6639.69
807.825	7317.56
808.012	7114.81
808.2	6402.12
808.387	6834.24
808.574	7108.67
808.761	7127.1
808.949	6549.57
809.136	6711.36
809.323	6737.99
809.51	6658.12
809.698	6815.81
809.885	6531.14
810.072	6907.97
810.259	7041.09
810.446	6570.05
810.633	6627.4
810.82	7186.49
811.008	7260.22
811.195	6844.48
811.382	6492.23
811.569	6942.78
811.756	6635.59
811.943	6676.55
812.13	6656.07
812.317	6783.04
812.504	6737.99
812.691	6826.05
812.878	6639.69
813.064	7292.99
813.251	6883.39
813.438	6688.84
813.625	6887.49
813.812	6811.71
813.999	6914.11
814.186	6873.15
814.372	6721.6
814.559	6987.84
814.746	7247.93
814.933	6617.16
815.12	6946.88
815.306	6969.41
815.493	6748.23
815.68	6844.48
815.866	6662.21
816.053	7485.5
816.24	7297.08
816.426	6840.39
816.613	6465.61
816.799	7315.52
816.986	7335.99
817.173	6737.99
817.359	6783.04
817.546	7041.09
817.732	6711.36
817.919	6604.87
818.105	6770.76
818.292	6858.82
818.478	7094.33
818.665	6887.49
818.851	6664.26
819.037	7479.35
819.224	6848.58
819.41	6443.08
819.597	6697.03
819.783	7401.53
819.969	7067.71
820.156	6719.56
820.342	6664.26
820.528	7792.69
820.714	6889.54
820.901	6930.5
821.087	6785.09
821.273	7614.52
821.459	6766.66
821.646	6631.49
821.832	6619.21
822.018	7114.81
822.204	7100.48
822.39	6543.43
822.576	6699.08
822.762	7153.73
822.948	6803.52
823.134	6899.78
823.32	6907.97
823.507	6742.08
823.693	7012.42
823.879	7198.78
824.065	6713.41
824.25	6989.89
824.436	6709.32
824.622	6635.59
824.808	6592.58
824.994	6762.56
825.18	6772.8
825.366	6545.48
825.552	6520.9
825.738	6998.08
825.923	7254.08
826.109	6887.49
826.295	6623.3
826.481	6746.18
826.667	6778.95
826.852	6791.24
827.038	6479.94
827.224	7018.56
827.409	7376.95
827.595	6539.33
827.781	6803.52
827.966	7080
828.152	7098.43
828.338	6697.03
828.523	6387.79
828.709	6613.06
828.894	7209.02
829.08	6611.01
829.266	6365.26
829.451	6697.03
829.637	7057.47
829.822	6729.8
830.008	6592.58
830.193	6955.07
830.378	7321.66
830.564	6778.95
830.749	6381.64
830.935	6922.31
831.12	6889.54
831.305	6352.97
831.491	6658.12
831.676	6570.05
831.861	7133.25
832.047	6746.18
832.232	6336.59
832.417	7137.34
832.602	7034.94
832.788	6438.98
832.973	6645.83
833.158	6635.59
833.343	6897.73
833.528	6668.36
833.714	6633.54
833.899	6932.54
834.084	7311.42
834.269	6844.48
834.454	6219.85
834.639	7045.18
834.824	6852.67
835.009	6721.6
835.194	6598.73
835.379	7092.29
835.564	7174.21
835.749	6594.63
835.934	6516.81
836.119	6891.59
836.304	6672.45
836.489	6467.66
836.674	6709.32
836.859	6520.9
837.044	7055.42
837.228	6258.76
837.413	6330.44
837.598	6692.93
837.783	6862.91
837.968	6467.66
838.152	6150.22
838.337	6236.24
838.522	7080
838.707	6817.86
838.891	6496.33
839.076	6666.31
839.261	6950.98
839.445	6520.9
839.63	6504.52
839.815	6858.82
839.999	6674.5
840.184	6506.57
840.368	6438.98
840.553	6715.46
840.737	6656.07
840.922	6215.76
841.106	6258.76
841.291	6428.74
841.475	6592.58
841.66	6363.21
841.844	6500.42
842.029	7370.81
842.213	6226
842.397	6316.11
842.582	6123.6
842.766	6979.65
842.951	6766.66
843.135	6373.45
843.319	6348.87
843.504	6715.46
843.688	6838.34
843.872	6174.8
844.056	6389.83
844.241	6752.32
844.425	6600.77
844.609	6412.36
844.793	6148.17
844.977	6713.41
845.161	6711.36
845.346	6217.8
845.53	6279.24
845.714	6649.93
845.898	6867.01
846.082	6066.25
846.266	6158.41
846.45	6525
846.634	6582.34
846.818	6074.45
847.002	6469.7
847.186	6676.55
847.37	6348.87
847.554	6291.53
847.738	6387.79
847.922	6756.42
848.106	6561.86
848.29	6269
848.473	6316.11
848.657	6647.88
848.841	6361.16
849.025	6125.65
849.209	5869.65
849.392	6602.82
849.576	6312.01
849.76	5943.38
849.944	6332.49
850.127	6774.85
850.311	6129.74
850.495	5947.47
850.678	6219.85
850.862	6846.53
851.046	6971.46
851.229	6453.32
851.413	6072.4
851.596	6361.16
851.78	6430.79
851.964	6275.15
852.147	6269
852.331	7153.73
852.514	6746.18
852.698	6166.6
852.881	5922.9
853.065	6727.75
853.248	6299.72
853.431	6400.07
853.615	6127.69
853.798	6903.87
853.982	6459.46
854.165	6156.36
854.348	6066.25
854.532	6246.48
854.715	6236.24
854.898	6043.73
855.081	6021.2
855.265	6705.22
855.448	6684.74
855.631	5890.13
855.814	6076.49
855.997	6391.88
856.181	6076.49
856.364	6131.79
856.547	6000.72
856.73	6266.96
856.913	6217.8
857.096	5922.9
857.279	6010.96
857.462	5894.22
857.645	6692.93
857.828	6117.45
858.011	6273.1
858.194	6180.94
858.377	6348.87
858.56	5650.52
858.743	6043.73
858.926	6101.07
859.109	6381.64
859.292	5849.17
859.475	5838.93
859.658	6570.05
859.841	6326.35
860.023	5742.68
860.206	5838.93
860.389	6295.63
860.572	6619.21
860.755	6037.58
860.937	5834.83
861.12	6051.92
861.303	6271.05
861.486	5937.23
861.668	6031.44
861.851	6369.35
862.034	6314.06
862.216	5949.52
862.399	5734.48
862.581	6189.13
862.764	6309.96
862.947	6082.64
863.129	5732.44
863.312	5843.03
863.494	6361.16
863.677	6107.21
863.859	5496.92
864.042	6379.59
864.224	6309.96
864.406	5920.85
864.589	5605.46
864.771	6023.25
864.954	5812.31
865.136	5898.32
865.318	5476.44
865.501	6070.35
865.683	5521.49
865.865	5634.13
866.048	5748.82
866.23	6008.91
866.412	5746.77
866.594	5572.69
866.777	5836.88
866.959	6344.78
867.141	5761.11
867.323	5800.02
867.505	5783.63
867.687	5922.9
867.869	5998.67
868.052	5722.2
868.234	5527.64
868.416	5978.19
868.598	6352.97
868.78	5746.77
868.962	5724.24
869.144	6299.72
869.326	5865.55
869.508	5572.69
869.69	5591.13
869.872	5826.64
870.054	6309.96
870.236	5535.83
870.417	5580.89
870.599	5855.31
870.781	6424.65
870.963	5836.88
871.145	5566.55
871.327	5687.38
871.508	6076.49
871.69	5584.98
871.872	5767.25
872.054	5705.81
872.235	6008.91
872.417	5771.35
872.599	5439.58
872.78	6254.67
872.962	6045.77
873.144	5490.77
873.325	5595.22
873.507	6318.15
873.689	6084.69
873.87	5564.5
874.052	5775.44
874.233	5804.11
874.415	6121.55
874.596	5607.51
874.778	5470.3
874.959	5845.07
875.141	6250.57
875.322	5738.58
875.503	5480.54
875.685	6066.25
875.866	5687.38
876.048	5484.63
876.229	5582.93
876.41	5902.42
876.592	6131.79
876.773	5570.65
876.954	5783.63
877.136	6502.47
877.317	5951.57
877.498	5568.6
877.679	5857.36
877.86	6074.45
878.042	6191.18
878.223	5634.13
878.404	6150.22
878.585	6240.33
878.766	6565.96
878.947	6207.56
879.128	6008.91
879.309	6387.79
879.49	6398.03
879.672	5892.18
879.853	5988.43
880.034	6156.36
880.215	6176.84
880.396	5883.98
880.576	6029.39
880.757	6105.17
880.938	6475.85
881.119	5828.69
881.3	5824.59
881.481	6142.03
881.662	7008.32
881.843	5769.3
882.023	5853.27
882.204	6240.33
882.385	6287.43
882.566	5994.58
882.747	5951.57
882.927	6264.91
883.108	6393.93
883.289	5931.09
883.469	6197.32
883.65	6207.56
883.831	6365.26
884.011	6226
884.192	5963.86
884.373	6492.23
884.553	6629.45
884.734	6285.39
884.914	6262.86
885.095	6946.88
885.275	6824
885.456	6527.05
885.636	5918.8
885.817	6346.83
885.997	6600.77
886.178	6033.49
886.358	6281.29
886.538	6430.79
886.719	7295.04
886.899	6101.07
887.08	6334.54
887.26	6672.45
887.44	6322.25
887.621	6133.84
887.801	6295.63
887.981	7063.61
888.161	6787.14
888.342	6422.6
888.522	6330.44
888.702	6803.52
888.882	6877.25
889.062	6494.28
889.242	6062.16
889.423	6924.35
889.603	6801.47
889.783	6608.97
889.963	6303.82
890.143	6928.45
890.323	6963.26
890.503	6150.22
890.683	6467.66
890.863	6508.62
891.043	6639.69
891.223	6598.73
891.403	6619.21
891.583	6713.41
891.763	6674.5
891.943	6408.26
892.122	6379.59
892.302	6697.03
892.482	6557.77
892.662	6678.6
892.842	6561.86
893.022	6778.95
893.201	6699.08
893.381	6576.2
893.561	6402.12
893.741	6926.4
893.92	6772.8
894.1	6606.92
894.28	6463.56
894.459	6948.93
894.639	6889.54
894.819	6465.61
894.998	6465.61
895.178	6885.44
895.357	6869.06
895.537	6457.42
895.716	6379.59
895.896	6651.97
896.075	6985.79
896.255	6506.57
896.434	6348.87
896.614	6955.07
896.793	7028.8
896.973	6762.56
897.152	6565.96
897.331	6871.11
897.511	7016.51
897.69	6428.74
897.87	6596.68
898.049	6883.39
898.228	6819.91
898.407	6500.42
898.587	6678.6
898.766	6525
898.945	6805.57
899.124	6656.07
899.304	6694.98
899.483	6887.49
899.662	7149.63
899.841	6269
900.02	6297.67
900.199	7157.82
900.378	6660.17
900.557	6303.82
900.737	6289.48
900.916	6912.07
901.095	6934.59
901.274	6629.45
901.453	6242.38
901.632	6498.38
901.811	6535.24
901.989	6342.73
902.168	6307.91
902.347	6750.28
902.526	6598.73
902.705	6525
902.884	6406.22
903.063	7094.33
903.242	7004.22
903.42	6338.63
903.599	6543.43
903.778	6967.36
903.957	7104.57
904.135	6543.43
904.314	6537.29
904.493	6801.47
904.672	6928.45
904.85	6283.34
905.029	6324.3
905.207	6844.48
905.386	7430.2
905.565	6072.4
905.743	6283.34
905.922	6424.65
906.1	6672.45
906.279	6101.07
906.457	6264.91
906.636	6340.68
906.814	6371.4
906.993	6211.66
907.171	6170.7
907.35	6758.47
907.528	6737.99
907.707	6359.11
907.885	6121.55
908.063	6826.05
908.242	6197.32
908.42	6254.67
908.598	5972.05
908.777	6680.64
908.955	6279.24
909.133	6238.28
909.311	6076.49
909.49	6481.99
909.668	6242.38
909.846	6176.84
910.024	5892.18
910.202	6301.77
910.38	6441.03
910.559	6074.45
910.737	6080.59
910.915	6324.3
911.093	6418.5
911.271	6152.27
911.449	6256.72
911.627	6541.38
911.805	6809.67
911.983	6000.72
912.161	5998.67
912.339	6205.52
912.517	6303.82
912.695	6017.1
912.872	5959.76
913.05	5933.14
913.228	6297.67
913.406	5851.22
913.584	5877.84
913.762	6338.63
913.939	5939.28
914.117	5724.24
914.295	5777.49
914.473	6262.86
914.65	6344.78
914.828	5746.77
915.006	5800.02
915.184	5926.99
915.361	6301.77
915.539	5812.31
915.716	5609.56
915.894	5929.04
916.072	6295.63
916.249	5945.42
916.427	5881.94
916.604	5814.35
916.782	6199.37
916.959	5673.04
917.137	5681.24
917.314	6008.91
917.492	6148.17
917.669	5804.11
917.847	5779.54
918.024	6008.91
918.201	5632.08
918.379	5695.57
918.556	5619.8
918.733	6131.79
918.911	5709.91
919.088	5625.94
919.265	5492.82
919.442	5722.2
919.62	5771.35
919.797	5447.77
919.974	5193.82
920.151	5707.86
920.328	5486.68
920.506	5384.28
920.683	5787.73
920.86	5464.15
921.037	5402.71
921.214	5433.43
921.391	5251.16
921.568	5804.11
921.745	5103.71
921.922	5337.18
922.099	5308.51
922.276	5773.39
922.453	5765.2
922.63	5183.58
922.807	5507.16
922.984	5519.45
923.161	5402.71
923.338	5300.31
923.514	5099.61
923.691	5470.3
923.868	5593.17
924.045	5257.31
924.222	5120.09
924.399	5474.39
924.575	5537.88
924.752	5255.26
924.929	5169.24
925.105	5453.91
925.282	5298.27
925.459	5091.42
925.635	5136.48
925.812	5449.82
925.989	5029.98
926.165	5136.48
926.342	4773.99
926.518	4933.73
926.695	5210.2
926.871	4939.87
927.048	4857.95
927.224	5447.77
927.401	4950.11
927.577	4999.26
927.754	4663.4
927.93	5226.59
928.107	5302.36
928.283	4698.21
928.459	4952.16
928.636	5132.38
928.812	4857.95
928.988	4589.67
929.165	4538.47
929.341	4759.65
929.517	5009.5
929.693	4837.47
929.87	4395.11
930.046	4929.63
930.222	4771.94
930.398	4421.74
930.574	4515.94
930.751	4962.4
930.927	4796.51
931.103	4591.72
931.279	4464.74
931.455	4505.7
931.631	4816.99
931.807	4509.8
931.983	4391.02
932.159	4298.86
932.335	4759.65
932.511	4464.74
932.687	4292.71
932.863	4694.12
933.039	4468.84
933.215	4202.6
933.391	4042.86
933.566	4276.33
933.742	4446.31
933.918	4147.31
934.094	3962.99
934.27	4061.29
934.445	4214.89
934.621	4018.29
934.797	3811.44
934.973	4335.72
935.148	4194.41
935.324	3784.82
935.5	3500.15
935.675	4132.97
935.851	4141.16
936.027	3879.02
936.202	3700.85
936.378	3788.91
936.553	3727.47
936.729	3989.61
936.904	3235.96
937.08	3190.91
937.255	3371.13
937.431	3434.61
937.606	3186.81
937.782	3223.67
937.957	3479.67
938.133	3240.06
938.308	3104.89
938.483	3246.2
938.659	3047.55
938.834	3049.6
939.009	2855.04
939.185	3018.88
939.36	2801.79
939.535	2386.05
939.71	2902.14
939.886	3172.47
940.061	3016.83
940.236	2758.78
940.411	2494.6
940.586	3012.73
940.761	3108.99
940.937	2523.27
941.112	2381.96
941.287	2642.05
941.462	2650.24
941.637	2416.77
941.812	2535.56
941.987	2750.59
942.162	2556.04
942.337	2449.54
942.512	2338.95
942.687	2734.21
942.862	2719.87
943.037	2107.53
943.212	1953.93
943.386	2486.4
943.561	2601.09
943.736	2371.72
943.911	2527.36
944.086	2674.82
944.26	2594.95
944.435	2150.54
944.61	2392.2
944.785	2719.87
944.959	2967.68
945.134	2220.17
945.309	2160.78
945.483	2351.24
945.658	2556.04
945.833	1935.5
946.007	2060.43
946.182	2836.61
946.357	2263.18
946.531	2261.13
946.706	2023.56
946.88	2064.52
947.055	2613.38
947.229	2115.72
947.404	2203.79
947.578	2576.52
947.752	2343.05
947.927	2056.33
948.101	1869.97
948.276	2386.05
948.45	2324.62
948.624	2324.62
948.799	2128.01
948.973	2504.84
949.147	2076.81
949.321	2297.99
949.496	2197.64
949.67	2556.04
949.844	2400.39
950.018	2162.83
950.193	2058.38
950.367	3008.64
950.541	2234.5
950.715	2230.41
950.889	2164.87
951.063	2406.53
951.237	2564.23
951.411	1890.45
951.585	2125.96
951.759	2498.69
951.933	2429.06
952.107	2072.72
952.281	2386.05
952.455	2863.23
952.629	2701.44
952.803	2267.27
952.977	2160.78
953.151	2629.76
953.325	2502.79
953.499	2121.87
953.672	1949.84
953.846	2220.17
954.02	2199.69
954.194	2044.04
954.368	2236.55
954.541	2437.25
954.715	2259.08
954.889	2244.74
955.062	2039.95
955.236	2416.77
955.41	2363.53
955.583	2252.94
955.757	2019.47
955.93	2205.83
956.104	2085
956.278	2023.56
956.451	2199.69
956.625	2521.22
956.798	2830.46
956.972	2318.47
957.145	1990.8
957.319	2318.47
957.492	2332.81
957.665	2226.31
957.839	1982.6
958.012	2494.6
958.185	2132.11
958.359	2089.1
958.532	2316.42
958.705	2568.32
958.879	2388.1
959.052	2033.8
959.225	2013.32
959.398	2445.45
959.572	2467.97
959.745	2089.1
959.918	2207.88
960.091	2232.46
960.264	2322.57
960.438	2027.66
960.611	2060.43
960.784	2470.02
960.957	2181.26
961.13	2416.77
961.303	1898.64
961.476	2252.94
961.649	2474.12
961.822	1839.25
961.995	1996.94
962.168	2435.21
962.341	2308.23
962.514	2146.44
962.686	2017.42
962.859	2224.26
963.032	2381.96
963.205	1998.99
963.378	1851.53
963.551	2297.99
963.723	2160.78
963.896	2035.85
964.069	2111.63
964.242	2302.09
964.414	2490.5
964.587	2087.05
964.76	2263.18
964.932	2261.13
965.105	2232.46
965.278	2044.04
965.45	2015.37
965.623	2312.33
965.795	2451.59
965.968	2119.82
966.14	2015.37
966.313	2119.82
966.485	2291.85
966.658	1972.36
966.83	1980.56
967.003	2367.62
967.175	2406.53
967.348	1927.31
967.52	2007.18
967.692	2576.52
967.865	2381.96
968.037	2003.08
968.209	2312.33
968.382	2207.88
968.554	2420.87
968.726	2066.57
968.898	1917.07
969.071	2320.52
969.243	2201.74
969.415	1978.51
969.587	2123.91
969.759	2633.86
969.932	2312.33
970.104	2044.04
970.276	1716.37
970.448	2060.43
970.62	2042
970.792	2160.78
970.964	1986.7
971.136	2644.1
971.308	2365.57
971.48	1781.9
971.652	1970.32
971.824	2551.94
971.996	1994.89
972.168	1925.26
972.339	1931.41
972.511	2308.23
972.683	2070.67
972.855	2244.74
973.027	1912.97
973.199	2222.22
973.37	2234.5
973.542	2048.14
973.714	2015.37
973.886	2052.24
974.057	2283.66
974.229	1826.96
974.401	1888.4
974.572	1786
974.744	1620.11
974.915	1779.86
975.087	1775.76
975.259	2457.73
975.43	1900.69
975.602	1810.58
975.773	1646.74
975.945	1874.06
976.116	2228.36
976.288	1761.42
976.459	2027.66
976.63	1966.22
976.802	2121.87
976.973	1826.96
977.145	1800.34
977.316	2570.37
977.487	2488.45
977.659	1910.93
977.83	1734.8
978.001	2418.82
978.172	2224.26
978.344	1702.03
978.515	1806.48
978.686	2027.66
978.857	2283.66
979.028	1806.48
979.2	1638.55
979.371	2341
979.542	1927.31
979.713	1933.45
979.884	1446.04
980.055	1818.77
980.226	1968.27
980.397	1704.08
980.568	1577.11
980.739	2240.65
980.91	1917.07
981.081	1865.87
981.252	1820.81
981.423	2109.58
981.594	2193.55
981.765	1786
981.936	1749.14
982.106	1986.7
982.277	2189.45
982.448	1585.3
982.619	1814.67
982.79	1783.95
982.96	2248.84
983.131	1783.95
983.302	1439.89
983.472	1783.95
983.643	2015.37
983.814	1824.91
983.984	1648.79
984.155	1896.59
984.326	2054.28
984.496	1689.74
984.667	1630.35
984.837	1671.31
985.008	2101.39
985.178	1888.4
985.349	1685.65
985.519	1702.03
985.69	1798.29
985.86	1587.35
986.031	1517.72
986.201	1872.01
986.371	1822.86
986.542	1433.75
986.712	1398.93
986.882	1962.12
987.053	1867.92
987.223	1542.29
987.393	1607.83
987.563	1556.63
987.734	2019.47
987.904	1953.93
988.074	1513.62
988.244	1820.81
988.414	1671.31
988.585	1546.39
988.755	1593.49
988.925	1730.7
989.095	2203.79
989.265	1560.72
989.435	1558.67
989.605	1937.55
989.775	1849.49
989.945	1853.58
990.115	1429.65
990.285	1757.33
990.455	1773.71
990.625	1685.65
990.795	1470.61
990.965	2054.28
991.134	1507.48
991.304	1415.32
991.474	1339.54
991.644	1781.9
991.814	2087.05
991.984	1335.45
992.153	1331.35
992.323	1611.92
992.493	1751.18
992.662	1351.83
992.832	1513.62
993.002	1759.38
993.171	1829.01
993.341	1249.43
993.511	1558.67
993.68	1599.63
993.85	1843.34
994.019	1276.06
994.189	1155.23
994.358	1708.18
994.528	1523.86
994.697	1134.75
994.867	1226.9
995.036	1829.01
995.206	1400.98
995.375	1212.57
995.544	1507.48
995.714	1702.03
995.883	1466.52
996.052	1491.09
996.222	1155.23
996.391	2171.02
996.56	1683.6
996.73	1284.25
996.899	1218.71
997.068	1986.7
997.237	1616.02
997.406	1343.64
997.576	1056.92
997.745	1654.93
997.914	1595.54
998.083	1151.13
998.252	1171.61
998.421	1552.53
998.59	1228.95
998.759	1257.62
998.928	1020.06
999.097	1859.73
999.266	1648.79
999.435	1353.88
999.604	864.41
999.773	1978.51
999.942	1497.24
1000.111	1073.31
1000.28	1028.25
1000.448	1245.34
1000.617	1290.39
1000.786	1349.78
1000.955	1159.32
1001.124	1654.93
1001.292	2003.08
1001.461	1077.4
1001.63	1132.7
1001.798	1896.59
1001.967	1781.9
1002.136	1167.51
1002.304	1106.07
1002.473	1568.91
1002.642	1534.1
1002.81	1161.37
1002.979	1056.92
1003.147	1554.58
1003.316	1935.5
1003.484	1185.94
1003.653	1093.79
1003.821	1667.22
1003.99	1335.45
1004.158	1276.06
1004.327	1249.43
1004.495	1487
1004.663	1210.52
1004.832	1212.57
1005	905.37
1005.168	1499.28
1005.337	1538.2
1005.505	903.32
1005.673	1271.96
1005.842	1484.95
1006.01	1462.42
1006.178	895.13
1006.346	1077.4
1006.514	1398.93
1006.683	1681.55
1006.851	1015.96
1007.019	929.95
1007.187	1171.61
1007.355	866.46
1007.523	774.3
1007.691	997.53
1007.859	917.66
1008.027	1546.39
1008.195	962.72
1008.363	829.6
1008.531	1519.76
1008.699	1116.31
1008.867	895.13
1009.035	954.52
1009.203	1644.69
1009.37	1364.12
1009.538	997.53
1009.706	1417.37
1009.874	1413.27
1010.042	1288.34
1010.209	850.08
1010.377	932
1010.545	1577.11
1010.713	1259.67
1010.88	802.97
1011.048	950.43
1011.216	1040.54
1011.383	1519.76
1011.551	843.93
1011.718	733.34
1011.886	1441.94
1012.054	1159.32
1012.221	827.55
1012.389	903.32
1012.556	1187.99
1012.724	1616.02
1012.891	913.56
1013.058	567.46
1013.226	1314.97
1013.393	1431.7
1013.561	659.62
1013.728	637.09
1013.895	1290.39
1014.063	1187.99
1014.23	714.91
1014.397	809.12
1014.565	1306.77
1014.732	1116.31
1014.899	821.41
1015.066	745.63
1015.233	1140.89
1015.401	1310.87
1015.568	874.65
1015.735	927.9
1015.902	1126.55
1016.069	1243.29
1016.236	698.53
1016.403	688.29
1016.57	925.85
1016.737	1282.2
1016.904	802.97
1017.071	565.41
1017.238	942.24
1017.405	1314.97
1017.572	821.41
1017.739	1015.96
1017.906	1343.64
1018.073	1302.68
1018.24	733.34
1018.407	798.88
1018.573	1400.98
1018.74	1007.77
1018.907	768.16
1019.074	526.5
1019.241	1306.77
1019.407	1108.12
1019.574	659.62
1019.741	481.44
1019.907	1151.13
1020.074	1187.99
1020.241	514.21
1020.407	602.27
1020.574	1110.17
1020.74	1163.42
1020.907	665.76
1021.073	678.05
1021.24	1472.66
1021.406	1398.93
1021.573	483.49
1021.739	684.19
1021.906	1257.62
1022.072	952.48
1022.239	577.7
1022.405	581.79
1022.571	1042.59
1022.738	872.61
1022.904	663.71
1023.07	694.43
1023.237	1116.31
1023.403	1175.7
1023.569	651.42
1023.735	651.42
1023.902	962.72
1024.068	972.96
1024.234	499.88
1024.4	518.31
1024.566	1003.68
1024.732	1177.75
1024.898	557.22
1025.065	407.72
1025.231	1120.41
1025.397	862.37
1025.563	561.31
1025.729	477.35
1025.895	526.5
1026.061	772.25
1026.227	358.57
1026.392	596.13
1026.558	1128.6
1026.724	1048.73
1026.89	487.59
1027.056	528.55
1027.222	1020.06
1027.388	710.82
1027.553	475.3
1027.719	579.75
1027.885	1202.33
1028.051	1020.06
1028.216	342.18
1028.382	489.64
1028.548	1061.02
1028.713	708.77
1028.879	450.72
1029.045	596.13
1029.21	1134.75
1029.376	1171.61
1029.541	534.69
1029.707	434.34
1029.873	1013.92
1030.038	1018.01
1030.204	465.06
1030.369	503.97
1030.534	1030.3
1030.7	809.12
1030.865	526.5
1031.031	383.14
1031.196	913.56
1031.361	907.42
1031.527	499.88
1031.692	426.15
1031.857	475.3
1032.023	946.33
1032.188	485.54
1032.353	471.2
1032.518	1052.83
1032.684	827.55
1032.849	374.95
1033.014	501.92
1033.179	993.44
1033.344	950.43
1033.509	610.47
1033.674	440.48
1033.839	905.37
1034.004	960.67
1034.17	463.01
1034.335	280.74
1034.5	721.06
1034.664	553.12
1034.829	399.52
1034.994	333.99
1035.159	856.22
1035.324	794.78
1035.489	432.29
1035.654	387.24
1035.819	1030.3
1035.984	819.36
1036.148	420
1036.313	407.72
1036.478	997.53
1036.643	770.21
1036.807	290.98
1036.972	374.95
1037.137	1104.03
1037.301	749.73
1037.466	227.5
1037.631	456.87
1037.795	1048.73
1037.96	716.96
1038.124	577.7
1038.289	258.21
1038.454	927.9
1038.618	848.03
1038.783	336.04
1038.947	434.34
1039.111	700.58
1039.276	639.14
1039.44	303.27
1039.605	712.86
1039.769	563.36
1039.933	620.71
1040.098	415.91
1040.262	594.08
1040.426	948.38
1040.591	936.09
1040.755	260.26
1040.919	401.57
1041.083	837.79
1041.248	700.58
1041.412	235.69
1041.576	192.68
1041.74	692.38
1041.904	848.03
1042.068	266.41
1042.232	311.46
1042.397	856.22
1042.561	790.69
1042.725	65.71
1042.889	499.88
1043.053	768.16
1043.217	708.77
1043.381	327.85
1043.544	135.34
1043.708	1003.68
1043.872	409.76
1044.036	41.13
1044.2	100.52
1044.364	876.7
1044.528	972.96
1044.691	3272.82
1044.855	155.82
1045.019	860.32
1045.183	747.68
1045.346	327.85
1045.51	182.44
1045.674	673.95
1045.837	802.97
1046.001	282.79
1046.165	194.73
1046.328	1220.76
1046.492	692.38
1046.655	368.81
1046.819	315.56
1046.983	602.27
1047.146	762.02
1047.31	348.33
1047.473	131.24
1047.636	612.51
1047.8	463.01
1047.963	268.45
1048.127	166.06
1048.29	442.53
