Data from Ink_Intensity_USB4F045381__37__00037.txt Node

Date: Mon Jul 17 09:50:40 EDT 2023
User: mmckonesweet
Spectrometer: USB4F04538
Trigger mode: 4
Integration Time (sec): 9.000000E-1
Scans to average: 1
Electric dark correction enabled: true
Nonlinearity correction enabled: false
Boxcar width: 0
XAxis mode: Wavelengths
Number of Pixels in Spectrum: 3648
>>>>>Begin Spectral Data<<<<<
345.52	-954.87
345.736	-954.87
345.952	-954.87
346.168	-987.63
346.384	-989.68
346.6	-170.49
346.816	-301.56
347.032	-264.7
347.248	265.72
347.464	-150.01
347.68	-64
347.896	167.42
348.112	318.97
348.328	-47.62
348.544	-100.86
348.76	60.93
348.975	286.2
349.191	-188.93
349.407	-141.82
349.623	-39.42
349.839	-109.05
350.055	-143.87
350.27	62.98
350.486	181.76
350.702	275.96
350.918	220.67
351.133	-244.22
351.349	159.23
351.565	331.26
351.781	-248.32
351.996	-51.71
352.212	312.83
352.428	-182.78
352.644	-203.26
352.859	-225.79
353.075	224.76
353.291	-27.14
353.506	-59.9
353.722	-197.12
353.938	-2.56
354.153	419.32
354.369	46.59
354.584	-123.39
354.8	228.86
355.016	-377.34
355.231	-281.08
355.447	-76.29
355.662	-4.61
355.878	794.1
356.093	-369.15
356.309	-57.86
356.524	-209.4
356.74	204.28
356.955	-231.93
357.171	-64
357.386	81.41
357.602	-205.31
357.817	-80.38
358.033	-195.07
358.248	321.02
358.464	65.02
358.679	-199.16
358.895	-297.47
359.11	-0.51
359.325	318.97
359.541	321.02
359.756	7.68
359.972	-356.86
360.187	181.76
360.402	-96.77
360.618	-127.49
360.833	933.36
361.048	151.04
361.264	-127.49
361.479	-80.38
361.694	-31.23
361.909	157.18
362.125	-137.73
362.34	-178.69
362.555	112.13
362.77	1.54
362.986	-340.47
363.201	-172.54
363.416	167.42
363.631	19.97
363.847	-227.84
364.062	-252.41
364.277	210.43
364.492	75.26
364.707	-174.59
364.922	-373.24
365.138	171.52
365.353	355.83
365.568	-258.56
365.783	-205.31
365.998	124.41
366.213	519.67
366.428	-254.46
366.643	62.98
366.858	249.34
367.073	161.28
367.288	-160.25
367.503	-274.94
367.718	42.5
367.933	263.68
368.148	-365.05
368.363	-33.28
368.578	-74.24
368.793	372.22
369.008	-154.11
369.223	-180.73
369.438	153.09
369.653	347.64
369.868	-252.41
370.083	-186.88
370.298	38.4
370.513	386.55
370.728	24.06
370.943	-215.55
371.157	-203.26
371.372	488.95
371.587	-324.09
371.802	-330.23
372.017	71.17
372.232	345.59
372.446	-111.1
372.661	-213.5
372.876	177.66
373.091	42.5
373.306	-27.14
373.52	-268.8
373.735	-205.31
373.95	263.68
374.165	-135.68
374.379	-143.87
374.594	-170.49
374.809	77.31
375.023	36.35
375.238	-236.03
375.453	185.85
375.667	-295.42
375.882	-162.3
376.097	-150.01
376.311	15.87
376.526	-88.57
376.741	-160.25
376.955	101.89
377.17	470.52
377.384	417.27
377.599	-152.06
377.813	-272.89
378.028	503.29
378.242	181.76
378.457	-113.15
378.672	-291.32
378.886	22.02
379.101	-137.73
379.315	-336.38
379.53	-109.05
379.744	118.27
379.958	118.27
380.173	-162.3
380.387	-168.45
380.602	103.93
380.816	-160.25
381.031	-217.6
381.245	-152.06
381.459	202.24
381.674	2500.06
381.888	-236.03
382.103	81.41
382.317	-217.6
382.531	454.14
382.746	-66.05
382.96	-172.54
383.174	-166.4
383.388	349.69
383.603	5.63
383.817	-266.75
384.031	52.74
384.246	468.47
384.46	-51.71
384.674	220.67
384.888	32.26
385.103	48.64
385.317	-322.04
385.531	40.45
385.745	300.54
385.959	253.44
386.174	-168.45
386.388	-199.16
386.602	-90.62
386.816	-166.4
387.03	-43.52
387.244	-55.81
387.458	22.02
387.672	333.31
387.887	-188.93
388.101	-276.99
388.315	300.54
388.529	122.37
388.743	-158.21
388.957	-279.04
389.171	253.44
389.385	-180.73
389.599	-158.21
389.813	56.83
390.027	159.23
390.241	556.54
390.455	-180.73
390.669	-129.53
390.883	-82.43
391.097	284.16
391.311	93.69
391.525	-221.69
391.738	187.9
391.952	146.94
392.166	-92.67
392.38	-221.69
392.594	183.81
392.808	298.49
393.022	-57.86
393.236	-166.4
393.449	87.55
393.663	142.85
393.877	-279.04
394.091	-49.66
394.305	-115.2
394.518	-129.53
394.732	-299.52
394.946	-133.63
395.16	394.75
395.373	38.4
395.587	-201.21
395.801	-260.6
396.015	216.57
396.228	146.94
396.442	-360.95
396.656	-332.28
396.869	259.58
397.083	407.03
397.297	-59.9
397.51	-186.88
397.724	366.07
397.938	138.75
398.151	-363
398.365	-291.32
398.578	89.6
398.792	312.83
399.005	-66.05
399.219	-219.64
399.433	91.65
399.646	183.81
399.86	34.3
400.073	24.06
400.287	204.28
400.5	-14.85
400.714	-29.18
400.927	-76.29
401.141	179.71
401.354	1033.71
401.567	224.76
401.781	-301.56
401.994	224.76
402.208	515.58
402.421	-147.97
402.635	-80.38
402.848	-107.01
403.061	259.58
403.275	-29.18
403.488	-174.59
403.701	390.65
403.915	142.85
404.128	-64
404.341	-125.44
404.555	128.51
404.768	-72.19
404.981	-16.9
405.195	-61.95
405.408	515.58
405.621	218.62
405.834	17.92
406.048	-193.02
406.261	450.04
406.474	458.23
406.687	-174.59
406.9	-78.33
407.114	67.07
407.327	-47.62
407.54	-268.8
407.753	-281.08
407.966	-98.81
408.179	169.47
408.392	-221.69
408.605	-363
408.819	151.04
409.032	192
409.245	-135.68
409.458	7.68
409.671	128.51
409.884	216.57
410.097	-311.8
410.31	22.02
410.523	146.94
410.736	3.58
410.949	-41.47
411.162	-154.11
411.375	470.52
411.588	241.15
411.801	-31.23
412.014	-195.07
412.227	-33.28
412.44	-31.23
412.653	-195.07
412.865	60.93
413.078	237.05
413.291	202.24
413.504	-121.34
413.717	-293.37
413.93	179.71
414.143	-178.69
414.356	-111.1
414.568	-350.71
414.781	298.49
414.994	52.74
415.207	-109.05
415.42	-121.34
415.632	247.29
415.845	478.71
416.058	-303.61
416.271	-324.09
416.483	99.84
416.696	462.33
416.909	-260.6
417.121	-178.69
417.334	210.43
417.547	505.34
417.759	-197.12
417.972	-207.36
418.185	-94.72
418.397	271.87
418.61	-203.26
418.823	-199.16
419.035	396.79
419.248	3.58
419.46	-72.19
419.673	-57.86
419.885	206.33
420.098	17.92
420.311	-211.45
420.523	-320
420.736	196.09
420.948	-31.23
421.161	-188.93
421.373	-328.19
421.586	50.69
421.798	-203.26
422.01	-285.18
422.223	22.02
422.435	-125.44
422.648	126.46
422.86	-166.4
423.073	-190.97
423.285	267.77
423.497	-270.84
423.71	-141.82
423.922	-152.06
424.134	34.3
424.347	400.89
424.559	-33.28
424.771	101.89
424.984	-90.62
425.196	67.07
425.408	-309.76
425.621	-287.23
425.833	247.29
426.045	265.72
426.257	-309.76
426.47	-154.11
426.682	159.23
426.894	185.85
427.106	-166.4
427.318	-139.77
427.531	-84.48
427.743	185.85
427.955	-211.45
428.167	181.76
428.379	169.47
428.591	-117.25
428.804	-45.57
429.016	-225.79
429.228	-92.67
429.44	11.78
429.652	5.63
429.864	-293.37
430.076	-104.96
430.288	-53.76
430.5	-145.92
430.712	-127.49
430.924	251.39
431.136	87.55
431.348	-324.09
431.56	-211.45
431.772	-23.04
431.984	17.92
432.196	-227.84
432.408	-174.59
432.62	7.68
432.832	142.85
433.044	38.4
433.256	-70.14
433.468	95.74
433.679	-240.12
433.891	-305.66
434.103	-16.9
434.315	337.4
434.527	171.52
434.739	-125.44
434.95	-225.79
435.162	257.53
435.374	-156.16
435.586	-205.31
435.798	-258.56
436.009	-154.11
436.221	-25.09
436.433	-231.93
436.645	-211.45
436.856	-145.92
437.068	296.44
437.28	-180.73
437.491	101.89
437.703	81.41
437.915	75.26
438.126	-115.2
438.338	56.83
438.55	-41.47
438.761	226.81
438.973	-180.73
439.184	-141.82
439.396	15.87
439.608	292.35
439.819	-295.42
440.031	-84.48
440.242	114.17
440.454	173.57
440.665	-152.06
440.877	-147.97
441.088	210.43
441.3	-59.9
441.511	-344.57
441.723	-227.84
441.934	122.37
442.146	40.45
442.357	42.5
442.569	101.89
442.78	-35.33
442.991	370.17
443.203	103.93
443.414	-295.42
443.626	351.74
443.837	-156.16
444.048	-260.6
444.26	-317.95
444.471	-33.28
444.682	202.24
444.894	-363
445.105	-350.71
445.316	230.91
445.528	200.19
445.739	-49.66
445.95	-184.83
446.161	44.54
446.373	269.82
446.584	-131.58
446.795	-100.86
447.006	71.17
447.217	378.36
447.429	-352.76
447.64	-166.4
447.851	259.58
448.062	65.02
448.273	-328.19
448.484	-231.93
448.695	116.22
448.907	-74.24
449.118	-139.77
449.329	-29.18
449.54	-102.91
449.751	-289.28
449.962	-166.4
450.173	-160.25
450.384	271.87
450.595	251.39
450.806	-213.5
451.017	-180.73
451.228	308.73
451.439	194.05
451.65	-139.77
451.861	-403.96
452.072	-178.69
452.283	-10.75
452.494	58.88
452.705	-246.27
452.915	275.96
453.126	128.51
453.337	-156.16
453.548	-283.13
453.759	181.76
453.97	435.71
454.181	69.12
454.391	-203.26
454.602	28.16
454.813	151.04
455.024	-94.72
455.235	-203.26
455.445	3.58
455.656	75.26
455.867	-29.18
456.078	-236.03
456.288	-31.23
456.499	28.16
456.71	-274.94
456.921	38.4
457.131	56.83
457.342	-14.85
457.553	-150.01
457.763	-190.97
457.974	148.99
458.184	167.42
458.395	-248.32
458.606	-360.95
458.816	155.13
459.027	439.8
459.237	-94.72
459.448	-393.72
459.659	388.6
459.869	523.77
460.08	-360.95
460.29	-102.91
460.501	437.75
460.711	-131.58
460.922	-270.84
461.132	-211.45
461.343	605.69
461.553	-238.08
461.764	-209.4
461.974	-188.93
462.184	194.05
462.395	-35.33
462.605	-203.26
462.816	-231.93
463.026	13.82
463.236	341.5
463.447	-221.69
463.657	-272.89
463.867	159.23
464.078	-141.82
464.288	-150.01
464.498	-231.93
464.709	7.68
464.919	-84.48
465.129	-86.53
465.339	-262.65
465.55	87.55
465.76	169.47
465.97	-203.26
466.18	-213.5
466.391	192
466.601	81.41
466.811	-137.73
467.021	-336.38
467.231	118.27
467.441	222.72
467.651	-139.77
467.862	-401.91
468.072	1.54
468.282	329.21
468.492	-221.69
468.702	-205.31
468.912	-10.75
469.122	630.26
469.332	169.47
469.542	-311.8
469.752	204.28
469.962	9.73
470.172	-311.8
470.382	-215.55
470.592	153.09
470.802	333.31
471.012	-115.2
471.222	-152.06
471.432	249.34
471.642	161.28
471.852	-117.25
472.062	-215.55
472.272	-86.53
472.482	-162.3
472.691	-342.52
472.901	-342.52
473.111	52.74
473.321	601.59
473.531	-379.39
473.741	-223.74
473.95	79.36
474.16	87.55
474.37	-131.58
474.58	-369.15
474.79	409.08
474.999	288.25
475.209	-332.28
475.419	-227.84
475.628	-61.95
475.838	278.01
476.048	-227.84
476.258	-342.52
476.467	224.76
476.677	-195.07
476.886	-59.9
477.096	-225.79
477.306	-92.67
477.515	388.6
477.725	-123.39
477.935	-145.92
478.144	202.24
478.354	-131.58
478.563	-256.51
478.773	-264.7
478.982	206.33
479.192	210.43
479.401	-84.48
479.611	-350.71
479.82	-197.12
480.03	30.21
480.239	-231.93
480.449	-397.82
480.658	349.69
480.868	-197.12
481.077	-121.34
481.287	-162.3
481.496	189.95
481.705	380.41
481.915	95.74
482.124	103.93
482.333	69.12
482.543	265.72
482.752	-170.49
482.961	-219.64
483.171	146.94
483.38	-64
483.589	-100.86
483.799	-279.04
484.008	36.35
484.217	321.02
484.426	-193.02
484.636	-346.62
484.845	52.74
485.054	-227.84
485.263	85.5
485.472	-207.36
485.682	429.56
485.891	79.36
486.1	-307.71
486.309	-197.12
486.518	259.58
486.727	321.02
486.936	-227.84
487.146	-47.62
487.355	421.37
487.564	-240.12
487.773	-188.93
487.982	-244.22
488.191	-59.9
488.4	-6.66
488.609	-229.88
488.818	-164.35
489.027	548.34
489.236	419.32
489.445	-172.54
489.654	-266.75
489.863	200.19
490.072	-25.09
490.281	146.94
490.49	-211.45
490.698	366.07
490.907	386.55
491.116	-186.88
491.325	-276.99
491.534	323.07
491.743	136.7
491.952	-111.1
492.16	-168.45
492.369	192
492.578	226.81
492.787	-133.63
492.996	-147.97
493.204	-217.6
493.413	423.42
493.622	-397.82
493.831	-408.06
494.039	456.19
494.248	-236.03
494.457	-225.79
494.665	-328.19
494.874	202.24
495.083	454.14
495.291	-154.11
495.5	-258.56
495.709	241.15
495.917	30.21
496.126	-125.44
496.335	-186.88
496.543	-205.31
496.752	91.65
496.96	-25.09
497.169	-371.19
497.377	40.45
497.586	261.63
497.794	-14.85
498.003	-451.07
498.211	-68.09
498.42	374.27
498.628	-223.74
498.837	-328.19
499.045	134.65
499.254	105.98
499.462	-285.18
499.671	-283.13
499.879	470.52
500.087	318.97
500.296	-195.07
500.504	-270.84
500.713	30.21
500.921	572.92
501.129	-236.03
501.338	-174.59
501.546	73.21
501.754	38.4
501.962	-252.41
502.171	-340.47
502.379	99.84
502.587	431.61
502.795	-174.59
503.004	-213.5
503.212	-39.42
503.42	212.48
503.628	-229.88
503.837	-147.97
504.045	189.95
504.253	421.37
504.461	-236.03
504.669	-324.09
504.877	173.57
505.085	378.36
505.294	-381.43
505.502	-4.61
505.71	-12.8
505.918	273.92
506.126	-270.84
506.334	-301.56
506.542	-6.66
506.75	11.78
506.958	-119.29
507.166	-125.44
507.374	-64
507.582	480.76
507.79	-78.33
507.998	-240.12
508.206	93.69
508.414	26.11
508.622	-215.55
508.83	-186.88
509.037	478.71
509.245	-2.56
509.453	-283.13
509.661	-240.12
509.869	206.33
510.077	-72.19
510.285	-23.04
510.492	-547.32
510.7	685.56
510.908	-45.57
511.116	-150.01
511.324	-227.84
511.531	17.92
511.739	48.64
511.947	-78.33
512.155	140.8
512.362	153.09
512.57	-205.31
512.778	-182.78
512.985	-328.19
513.193	331.26
513.401	314.88
513.608	-109.05
513.816	-233.98
514.024	194.05
514.231	302.59
514.439	-186.88
514.646	-104.96
514.854	161.28
515.061	427.51
515.269	-229.88
515.477	-205.31
515.684	-205.31
515.892	228.86
516.099	-313.85
516.307	-373.24
516.514	196.09
516.722	415.23
516.929	-186.88
517.136	-301.56
517.344	417.27
517.551	247.29
517.759	-238.08
517.966	-166.4
518.173	-31.23
518.381	69.12
518.588	-143.87
518.796	-270.84
519.003	243.2
519.21	85.5
519.418	-174.59
519.625	42.5
519.832	26.11
520.039	165.37
520.247	-299.52
520.454	-170.49
520.661	321.02
520.868	108.03
521.076	-205.31
521.283	-66.05
521.49	597.49
521.697	134.65
521.904	-111.1
522.112	-225.79
522.319	280.06
522.526	175.61
522.733	-291.32
522.94	-199.16
523.147	-33.28
523.354	304.64
523.561	-367.1
523.768	-76.29
523.975	226.81
524.183	142.85
524.39	-72.19
524.597	-213.5
524.804	120.32
525.011	-170.49
525.218	-315.9
525.425	-209.4
525.632	323.07
525.838	-125.44
526.045	-107.01
526.252	-227.84
526.459	1021.42
526.666	810.48
526.873	-203.26
527.08	-236.03
527.287	433.66
527.494	261.63
527.701	-334.33
527.907	-242.17
528.114	255.48
528.321	-143.87
528.528	-168.45
528.735	-281.08
528.941	-37.38
529.148	-10.75
529.355	-117.25
529.562	-229.88
529.768	382.46
529.975	-6.66
530.182	-111.1
530.388	-197.12
530.595	312.83
530.802	-229.88
531.008	17.92
531.215	-209.4
531.422	777.72
531.628	816.63
531.835	-107.01
532.042	-125.44
532.248	-113.15
532.455	167.42
532.661	-143.87
532.868	-229.88
533.074	167.42
533.281	302.59
533.487	-90.62
533.694	-236.03
533.9	-164.35
534.107	140.8
534.313	-268.8
534.52	-307.71
534.726	267.77
534.933	472.57
535.139	-295.42
535.345	-270.84
535.552	116.22
535.758	65.02
535.965	-139.77
536.171	-125.44
536.377	278.01
536.584	376.31
536.79	-98.81
536.996	-51.71
537.203	81.41
537.409	159.23
537.615	-88.57
537.821	15.87
538.028	237.05
538.234	153.09
538.44	-262.65
538.646	-96.77
538.853	235
539.059	-25.09
539.265	218.62
539.471	-381.43
539.677	204.28
539.883	-49.66
540.09	-283.13
540.296	116.22
540.502	56.83
540.708	-2.56
540.914	-45.57
541.12	-215.55
541.326	261.63
541.532	62.98
541.738	-135.68
541.944	-109.05
542.15	192
542.356	-55.81
542.562	-190.97
542.768	-102.91
542.974	681.46
543.18	593.4
543.386	-160.25
543.592	-334.33
543.798	456.19
544.004	357.88
544.21	-205.31
544.415	-43.52
544.621	38.4
544.827	253.44
545.033	-238.08
545.239	67.07
545.445	-190.97
545.651	140.8
545.856	-207.36
546.062	-176.64
546.268	-139.77
546.474	46.59
546.679	-121.34
546.885	-150.01
547.091	-80.38
547.297	583.16
547.502	-96.77
547.708	-268.8
547.914	-129.53
548.119	173.57
548.325	-238.08
548.531	-279.04
548.736	538.1
548.942	-104.96
549.147	-209.4
549.353	79.36
549.559	349.69
549.764	196.09
549.97	-188.93
550.175	-160.25
550.381	259.58
550.586	-2.56
550.792	-123.39
550.997	-145.92
551.203	185.85
551.408	237.05
551.614	-227.84
551.819	-147.97
552.025	523.77
552.23	482.81
552.435	-338.43
552.641	11.78
552.846	-109.05
553.052	355.83
553.257	-37.38
553.462	-117.25
553.668	-98.81
553.873	339.45
554.078	-221.69
554.283	-219.64
554.489	157.18
554.694	24.06
554.899	-289.28
555.105	-45.57
555.31	198.14
555.515	259.58
555.72	-25.09
555.925	-258.56
556.131	280.06
556.336	-10.75
556.541	-205.31
556.746	-160.25
556.951	388.6
557.156	501.24
557.361	-72.19
557.567	-14.85
557.772	628.21
557.977	251.39
558.182	-143.87
558.387	-223.74
558.592	-6.66
558.797	411.13
559.002	22.02
559.207	-25.09
559.412	38.4
559.617	579.06
559.822	-223.74
560.027	-260.6
560.232	50.69
560.437	304.64
560.642	-242.17
560.847	-186.88
561.051	161.28
561.256	167.42
561.461	-84.48
561.666	-334.33
561.871	194.05
562.076	286.2
562.281	-131.58
562.485	-184.83
562.69	280.06
562.895	339.45
563.1	-190.97
563.305	-262.65
563.509	443.9
563.714	667.13
563.919	-211.45
564.123	-137.73
564.328	65.02
564.533	445.95
564.737	-57.86
564.942	-131.58
565.147	497.14
565.351	767.48
565.556	13.82
565.761	15.87
565.965	265.72
566.17	-59.9
566.374	-143.87
566.579	-223.74
566.784	122.37
566.988	120.32
567.193	-303.61
567.397	-215.55
567.602	-166.4
567.806	13.82
568.011	-82.43
568.215	-150.01
568.42	40.45
568.624	83.45
568.828	-172.54
569.033	36.35
569.237	187.9
569.442	218.62
569.646	-252.41
569.85	-41.47
570.055	95.74
570.259	183.81
570.463	110.08
570.668	-68.09
570.872	65.02
571.076	138.75
571.281	-8.7
571.485	-6.66
571.689	267.77
571.893	249.34
572.098	5.63
572.302	-137.73
572.506	275.96
572.71	87.55
572.914	-51.71
573.119	-47.62
573.323	437.75
573.527	464.38
573.731	-94.72
573.935	-256.51
574.139	210.43
574.343	-14.85
574.547	-49.66
574.751	-39.42
574.955	472.57
575.159	435.71
575.364	-113.15
575.568	-205.31
575.772	189.95
575.976	515.58
576.18	-152.06
576.383	-305.66
576.587	368.12
576.791	259.58
576.995	-252.41
577.199	-227.84
577.403	374.27
577.607	400.89
577.811	-184.83
578.015	26.11
578.219	157.18
578.422	372.22
578.626	22.02
578.83	-27.14
579.034	431.61
579.238	173.57
579.442	-78.33
579.645	300.54
579.849	167.42
580.053	249.34
580.257	17.92
580.46	-6.66
580.664	312.83
580.868	261.63
581.071	93.69
581.275	-39.42
581.479	-70.14
581.682	353.79
581.886	-111.1
582.09	-57.86
582.293	331.26
582.497	267.77
582.7	105.98
582.904	-193.02
583.107	116.22
583.311	140.8
583.515	15.87
583.718	5.63
583.922	323.07
584.125	622.07
584.329	-121.34
584.532	128.51
584.735	468.47
584.939	253.44
585.142	-190.97
585.346	-178.69
585.549	230.91
585.753	24.06
585.956	-68.09
586.159	-0.51
586.363	652.79
586.566	269.82
586.769	-98.81
586.973	-143.87
587.176	294.4
587.379	443.9
587.582	185.85
587.786	97.79
587.989	142.85
588.192	775.67
588.395	7.68
588.599	226.81
588.802	282.11
589.005	456.19
589.208	-45.57
589.411	-27.14
589.615	445.95
589.818	538.1
590.021	237.05
590.224	56.83
590.427	396.79
590.63	253.44
590.833	-123.39
591.036	-133.63
591.239	157.18
591.442	5.63
591.645	196.09
591.848	-80.38
592.051	251.39
592.254	380.41
592.457	52.74
592.66	28.16
592.863	165.37
593.066	300.54
593.269	-12.8
593.472	112.13
593.675	-41.47
593.878	325.12
594.081	52.74
594.284	-43.52
594.486	335.35
594.689	148.99
594.892	46.59
595.095	9.73
595.298	263.68
595.5	32.26
595.703	81.41
595.906	146.94
596.109	548.34
596.311	364.03
596.514	-223.74
596.717	-4.61
596.92	491
597.122	413.18
597.325	-221.69
597.528	-76.29
597.73	499.19
597.933	208.38
598.136	-45.57
598.338	-268.8
598.541	374.27
598.743	517.62
598.946	-43.52
599.148	44.54
599.351	488.95
599.554	431.61
599.756	128.51
599.959	91.65
600.161	439.8
600.363	792.05
600.566	267.77
600.768	13.82
600.971	611.83
601.173	370.17
601.376	67.07
601.578	22.02
601.78	378.36
601.983	761.33
602.185	-84.48
602.388	91.65
602.59	337.4
602.792	161.28
602.995	239.1
603.197	-41.47
603.399	417.27
603.601	288.25
603.804	62.98
604.006	-4.61
604.208	177.66
604.41	-92.67
604.613	286.2
604.815	81.41
605.017	822.77
605.219	116.22
605.421	351.74
605.623	-18.94
605.826	599.54
606.028	534.01
606.23	-14.85
606.432	5.63
606.634	636.41
606.836	523.77
607.038	-88.57
607.24	161.28
607.442	282.11
607.644	249.34
607.846	161.28
608.048	-64
608.25	538.1
608.452	79.36
608.654	22.02
608.856	-205.31
609.058	177.66
609.26	304.64
609.462	157.18
609.664	40.45
609.866	697.85
610.067	353.79
610.269	255.48
610.471	42.5
610.673	112.13
610.875	402.94
611.077	-188.93
611.278	161.28
611.48	339.45
611.682	697.85
611.884	83.45
612.085	83.45
612.287	56.83
612.489	431.61
612.69	-68.09
612.892	163.33
613.094	402.94
613.295	415.23
613.497	-111.1
613.699	75.26
613.9	681.46
614.102	486.9
614.304	15.87
614.505	-14.85
614.707	288.25
614.908	230.91
615.11	-133.63
615.311	155.13
615.513	411.13
615.714	523.77
615.916	-35.33
616.117	130.56
616.319	210.43
616.52	474.62
616.722	71.17
616.923	67.07
617.124	538.1
617.326	501.24
617.527	71.17
617.729	314.88
617.93	415.23
618.131	464.38
618.333	87.55
618.534	175.61
618.735	146.94
618.937	660.98
619.138	-98.81
619.339	38.4
619.54	390.65
619.742	202.24
619.943	214.52
620.144	103.93
620.345	421.37
620.546	626.17
620.748	-158.21
620.949	110.08
621.15	284.16
621.351	411.13
621.552	48.64
621.753	1.54
621.954	-80.38
622.155	695.8
622.356	-6.66
622.558	265.72
622.759	404.99
622.96	701.94
623.161	71.17
623.362	146.94
623.563	300.54
623.764	357.88
623.965	116.22
624.166	296.44
624.366	161.28
624.567	353.79
624.768	-156.16
624.969	60.93
625.17	331.26
625.371	472.57
625.572	148.99
625.773	-18.94
625.973	429.56
626.174	501.24
626.375	118.27
626.576	165.37
626.777	468.47
626.977	833.01
627.178	5.63
627.379	237.05
627.58	249.34
627.78	380.41
627.981	124.41
628.182	222.72
628.382	640.5
628.583	-84.48
628.784	26.11
628.984	280.06
629.185	509.43
629.386	474.62
629.586	136.7
629.787	28.16
629.987	505.34
630.188	308.73
630.388	165.37
630.589	181.76
630.79	806.39
630.99	353.79
631.191	187.9
631.391	235
631.591	488.95
631.792	882.16
631.992	208.38
632.193	155.13
632.393	800.24
632.594	398.84
632.794	60.93
632.994	259.58
633.195	372.22
633.395	443.9
633.595	148.99
633.796	370.17
633.996	120.32
634.196	675.32
634.397	-94.72
634.597	243.2
634.797	200.19
634.997	765.43
635.198	351.74
635.398	13.82
635.598	386.55
635.798	714.23
635.998	480.76
636.199	50.69
636.399	218.62
636.599	95.74
636.799	148.99
636.999	359.93
637.199	464.38
637.399	597.49
637.599	140.8
637.799	321.02
637.999	210.43
638.199	781.81
638.399	81.41
638.599	169.47
638.799	515.58
638.999	843.25
639.199	290.3
639.399	294.4
639.599	701.94
639.799	97.79
639.999	112.13
640.199	7.68
640.399	501.24
640.599	468.47
640.799	220.67
640.998	388.6
641.198	665.08
641.398	425.47
641.598	415.23
641.798	249.34
641.997	1273.32
642.197	374.27
642.397	181.76
642.597	122.37
642.796	574.97
642.996	757.24
643.196	376.31
643.395	93.69
643.595	472.57
643.795	-43.52
643.994	163.33
644.194	218.62
644.394	613.88
644.593	376.31
644.793	19.97
644.992	343.55
645.192	503.29
645.392	32.26
645.591	296.44
645.791	241.15
645.99	548.34
646.19	378.36
646.389	347.64
646.589	148.99
646.788	574.97
646.987	599.54
647.187	343.55
647.386	364.03
647.586	370.17
647.785	703.99
647.984	269.82
648.184	282.11
648.383	275.96
648.582	269.82
648.782	226.81
648.981	366.07
649.18	247.29
649.38	488.95
649.579	216.57
649.778	122.37
649.977	515.58
650.177	517.62
650.376	171.52
650.575	77.31
650.774	849.4
650.973	251.39
651.173	26.11
651.372	208.38
651.571	456.19
651.77	679.41
651.969	159.23
652.168	267.77
652.367	118.27
652.566	499.19
652.765	226.81
652.964	478.71
653.163	871.92
653.362	382.46
653.561	110.08
653.76	226.81
653.959	298.49
654.158	564.73
654.357	445.95
654.556	218.62
654.755	663.03
654.954	632.31
655.153	222.72
655.352	222.72
655.551	697.85
655.749	271.87
655.948	269.82
656.147	429.56
656.346	566.78
656.545	413.18
656.743	302.59
656.942	341.5
657.141	388.6
657.34	251.39
657.538	321.02
657.737	204.28
657.936	359.93
658.135	595.45
658.333	255.48
658.532	296.44
658.731	894.45
658.929	703.99
659.128	515.58
659.326	243.2
659.525	751.09
659.724	484.86
659.922	67.07
660.121	185.85
660.319	509.43
660.518	357.88
660.716	161.28
660.915	155.13
661.113	820.72
661.312	206.33
661.51	382.46
661.709	165.37
661.907	658.93
662.105	835.06
662.304	200.19
662.502	251.39
662.701	706.04
662.899	325.12
663.097	511.48
663.296	146.94
663.494	726.52
663.692	722.42
663.891	200.19
664.089	155.13
664.287	488.95
664.485	804.34
664.684	126.46
664.882	386.55
665.08	441.85
665.278	456.19
665.476	132.61
665.675	595.45
665.873	957.94
666.071	691.7
666.269	251.39
666.467	509.43
666.665	519.67
666.863	486.9
667.061	417.27
667.259	275.96
667.457	515.58
667.655	667.13
667.853	167.42
668.051	394.75
668.249	304.64
668.447	548.34
668.645	218.62
668.843	431.61
669.041	591.35
669.239	331.26
669.437	357.88
669.635	435.71
669.833	437.75
670.031	685.56
670.229	435.71
670.426	364.03
670.624	359.93
670.822	306.68
671.02	296.44
671.218	361.98
671.415	239.1
671.613	538.1
671.811	374.27
672.009	321.02
672.206	732.66
672.404	486.9
672.602	527.86
672.799	378.36
672.997	497.14
673.195	775.67
673.392	421.37
673.59	247.29
673.788	652.79
673.985	167.42
674.183	480.76
674.38	269.82
674.578	587.26
674.775	280.06
674.973	198.14
675.17	265.72
675.368	869.87
675.565	636.41
675.763	224.76
675.96	171.52
676.158	734.71
676.355	364.03
676.553	329.21
676.75	335.35
676.947	452.09
677.145	415.23
677.342	472.57
677.539	345.59
677.737	611.83
677.934	1000.94
678.131	431.61
678.329	318.97
678.526	880.11
678.723	675.32
678.92	298.49
679.118	202.24
679.315	216.57
679.512	914.93
679.709	364.03
679.906	402.94
680.104	755.19
680.301	677.37
680.498	202.24
680.695	206.33
680.892	390.65
681.089	314.88
681.286	452.09
681.483	140.8
681.68	757.24
681.877	714.23
682.075	321.02
682.272	542.2
682.469	620.02
682.665	329.21
682.862	282.11
683.059	140.8
683.256	691.7
683.453	493.05
683.65	425.47
683.847	312.83
684.044	460.28
684.241	318.97
684.438	415.23
684.635	292.35
684.831	921.07
685.028	939.51
685.225	325.12
685.422	480.76
685.619	484.86
685.815	538.1
686.012	370.17
686.209	425.47
686.405	345.59
686.602	804.34
686.799	230.91
686.996	218.62
687.192	249.34
687.389	812.53
687.586	310.78
687.782	353.79
687.979	822.77
688.175	773.62
688.372	411.13
688.568	413.18
688.765	386.55
688.962	921.07
689.158	480.76
689.355	165.37
689.551	695.8
689.748	372.22
689.944	431.61
690.14	177.66
690.337	767.48
690.533	402.94
690.73	574.97
690.926	423.42
691.123	699.89
691.319	554.49
691.515	316.92
691.712	394.75
691.908	656.89
692.104	593.4
692.301	527.86
692.497	212.48
692.693	683.51
692.889	773.62
693.086	458.23
693.282	159.23
693.478	472.57
693.674	923.12
693.87	284.16
694.067	284.16
694.263	654.84
694.459	439.8
694.655	488.95
694.851	529.91
695.047	706.04
695.243	783.86
695.439	574.97
695.635	355.83
695.831	763.38
696.027	593.4
696.224	304.64
696.42	587.26
696.615	882.16
696.811	695.8
697.007	232.96
697.203	429.56
697.399	685.56
697.595	812.53
697.791	292.35
697.987	597.49
698.183	364.03
698.379	431.61
698.575	392.7
698.77	429.56
698.966	599.54
699.162	794.1
699.358	407.03
699.554	407.03
699.749	673.27
699.945	833.01
700.141	583.16
700.337	521.72
700.532	484.86
700.728	370.17
700.924	374.27
701.119	251.39
701.315	697.85
701.511	534.01
701.706	454.14
701.902	200.19
702.097	566.78
702.293	769.52
702.489	361.98
702.684	325.12
702.88	577.02
703.075	484.86
703.271	441.85
703.466	259.58
703.662	550.39
703.857	658.93
704.053	316.92
704.248	374.27
704.443	757.24
704.639	730.61
704.834	417.27
705.03	409.08
705.225	757.24
705.42	867.83
705.616	546.3
705.811	304.64
706.006	509.43
706.202	534.01
706.397	534.01
706.592	316.92
706.787	677.37
706.983	574.97
707.178	617.97
707.373	499.19
707.568	751.09
707.763	833.01
707.959	353.79
708.154	323.07
708.349	634.36
708.544	620.02
708.739	654.84
708.934	235
709.129	716.28
709.324	906.74
709.519	382.46
709.714	278.01
709.909	876.02
710.104	665.08
710.299	394.75
710.494	484.86
710.689	718.33
710.884	554.49
711.079	460.28
711.274	689.65
711.469	656.89
711.664	697.85
711.859	378.36
712.054	497.14
712.249	730.61
712.443	919.03
712.638	335.35
712.833	302.59
713.028	515.58
713.223	454.14
713.417	712.18
713.612	376.31
713.807	767.48
714.002	1193.45
714.196	515.58
714.391	364.03
714.586	845.3
714.78	566.78
714.975	407.03
715.17	423.42
715.364	521.72
715.559	871.92
715.754	28.16
715.948	310.78
716.143	1048.05
716.337	681.46
716.532	630.26
716.726	261.63
716.921	865.78
717.115	1060.34
717.31	282.11
717.504	890.35
717.699	558.58
717.893	828.92
718.088	353.79
718.282	169.47
718.476	691.7
718.671	695.8
718.865	386.55
719.059	296.44
719.254	665.08
719.448	892.4
719.642	1701.35
719.837	226.81
720.031	822.77
720.225	857.59
720.419	476.66
720.614	290.3
720.808	802.29
721.002	558.58
721.196	392.7
721.39	411.13
721.585	896.5
721.779	738.8
721.973	499.19
722.167	292.35
722.361	640.5
722.555	902.64
722.749	382.46
722.943	382.46
723.137	370.17
723.331	687.61
723.525	390.65
723.719	355.83
723.913	749.04
724.107	976.37
724.301	308.73
724.495	521.72
724.689	1023.47
724.883	1037.81
725.077	380.41
725.271	493.05
725.465	921.07
725.659	554.49
725.853	497.14
726.046	271.87
726.24	550.39
726.434	837.11
726.628	439.8
726.822	394.75
727.015	882.16
727.209	953.84
727.403	521.72
727.596	259.58
727.79	820.72
727.984	798.2
728.177	417.27
728.371	386.55
728.565	847.35
728.758	353.79
728.952	374.27
729.146	464.38
729.339	871.92
729.533	603.64
729.726	527.86
729.92	390.65
730.113	937.46
730.307	716.28
730.5	361.98
730.694	396.79
730.887	601.59
731.081	673.27
731.274	325.12
731.468	419.32
731.661	593.4
731.854	427.51
732.048	415.23
732.241	327.16
732.435	447.99
732.628	669.17
732.821	495.1
733.014	368.12
733.208	374.27
733.401	775.67
733.594	355.83
733.788	398.84
733.981	921.07
734.174	681.46
734.367	433.66
734.56	519.67
734.754	861.68
734.947	552.44
735.14	321.02
735.333	476.66
735.526	716.28
735.719	515.58
735.912	366.07
736.105	341.5
736.298	658.93
736.491	527.86
736.684	368.12
736.877	290.3
737.07	626.17
737.263	933.36
737.456	491
737.649	265.72
737.842	447.99
738.035	599.54
738.228	464.38
738.421	589.3
738.614	869.87
738.807	779.76
739	220.67
739.192	339.45
739.385	742.9
739.578	830.96
739.771	624.12
739.964	353.79
740.156	718.33
740.349	593.4
740.542	577.02
740.735	298.49
740.927	345.59
741.12	353.79
741.313	325.12
741.505	564.73
741.698	677.37
741.891	720.37
742.083	634.36
742.276	460.28
742.468	628.21
742.661	548.34
742.854	478.71
743.046	386.55
743.239	1000.94
743.431	570.87
743.624	452.09
743.816	224.76
744.009	546.3
744.201	665.08
744.393	568.82
744.586	314.88
744.778	878.07
744.971	648.69
745.163	509.43
745.355	542.2
745.548	599.54
745.74	593.4
745.932	591.35
746.125	382.46
746.317	1125.87
746.509	568.82
746.702	419.32
746.894	560.63
747.086	744.95
747.278	837.11
747.471	613.88
747.663	431.61
747.855	638.45
748.047	1041.9
748.239	292.35
748.431	364.03
748.623	1035.76
748.815	1021.42
749.008	337.4
749.2	378.36
749.392	773.62
749.584	744.95
749.776	482.81
749.968	609.78
750.16	1119.73
750.352	570.87
750.544	517.62
750.736	413.18
750.928	851.44
751.12	714.23
751.311	415.23
751.503	519.67
751.695	691.7
751.887	636.41
752.079	198.14
752.271	546.3
752.463	1523.18
752.654	833.01
752.846	495.1
753.038	378.36
753.23	468.47
753.421	716.28
753.613	460.28
753.805	656.89
753.997	861.68
754.188	824.82
754.38	400.89
754.572	417.27
754.763	585.21
754.955	749.04
755.146	513.53
755.338	462.33
755.53	742.9
755.721	650.74
755.913	249.34
756.104	333.31
756.296	560.63
756.487	818.68
756.679	312.83
756.87	390.65
757.062	470.52
757.253	790
757.445	462.33
757.636	611.83
757.827	630.26
758.019	1207.79
758.21	339.45
758.401	460.28
758.593	1189.36
758.784	845.3
758.975	337.4
759.167	290.3
759.358	636.41
759.549	859.63
759.74	460.28
759.932	376.31
760.123	1074.67
760.314	447.99
760.505	542.2
760.696	413.18
760.888	984.56
761.079	540.15
761.27	415.23
761.461	251.39
761.652	1082.86
761.843	626.17
762.034	357.88
762.225	691.7
762.416	630.26
762.607	677.37
762.798	407.03
762.989	390.65
763.18	1381.87
763.371	624.12
763.562	411.13
763.753	439.8
763.944	824.82
764.135	783.86
764.326	531.96
764.517	429.56
764.708	624.12
764.899	695.8
765.089	491
765.28	265.72
765.471	712.18
765.662	720.37
765.853	458.23
766.043	425.47
766.234	845.3
766.425	851.44
766.615	466.42
766.806	292.35
766.997	982.51
767.187	589.3
767.378	421.37
767.569	290.3
767.759	740.85
767.95	740.85
768.141	583.16
768.331	357.88
768.522	650.74
768.712	802.29
768.903	343.55
769.093	243.2
769.284	1037.81
769.474	593.4
769.665	255.48
769.855	226.81
770.046	710.13
770.236	613.88
770.426	632.31
770.617	230.91
770.807	695.8
770.998	589.3
771.188	531.96
771.378	323.07
771.569	839.16
771.759	765.43
771.949	273.92
772.139	200.19
772.33	740.85
772.52	964.08
772.71	400.89
772.9	259.58
773.09	1146.35
773.281	992.75
773.471	318.97
773.661	398.84
773.851	943.6
774.041	493.05
774.231	333.31
774.421	484.86
774.611	953.84
774.802	665.08
774.992	527.86
775.182	333.31
775.372	554.49
775.562	814.58
775.752	413.18
775.942	400.89
776.131	878.07
776.321	726.52
776.511	486.9
776.701	263.68
776.891	937.46
777.081	378.36
777.271	488.95
777.461	331.26
777.651	757.24
777.84	931.31
778.03	476.66
778.22	372.22
778.41	929.27
778.599	409.08
778.789	427.51
778.979	398.84
779.169	669.17
779.358	632.31
779.548	751.09
779.738	259.58
779.927	624.12
780.117	419.32
780.307	474.62
780.496	140.8
780.686	763.38
780.875	994.8
781.065	357.88
781.254	378.36
781.444	626.17
781.633	730.61
781.823	306.68
782.012	345.59
782.202	491
782.391	626.17
782.581	343.55
782.77	501.24
782.96	730.61
783.149	599.54
783.338	361.98
783.528	185.85
783.717	871.92
783.906	1019.38
784.096	497.14
784.285	415.23
784.474	564.73
784.663	460.28
784.853	388.6
785.042	421.37
785.231	509.43
785.42	822.77
785.61	499.19
785.799	302.59
785.988	452.09
786.177	523.77
786.366	353.79
786.555	607.73
786.744	888.31
786.933	599.54
787.122	292.35
787.312	286.2
787.501	499.19
787.69	708.09
787.879	384.51
788.068	357.88
788.257	265.72
788.445	562.68
788.634	386.55
788.823	220.67
789.012	1187.31
789.201	824.82
789.39	517.62
789.579	226.81
789.768	726.52
789.957	654.84
790.145	347.64
790.334	153.09
790.523	556.54
790.712	636.41
790.9	433.66
791.089	228.86
791.278	798.2
791.467	644.6
791.655	583.16
791.844	796.15
792.033	431.61
792.221	507.38
792.41	423.42
792.599	249.34
792.787	703.99
792.976	697.85
793.164	216.57
793.353	273.92
793.541	730.61
793.73	654.84
793.918	439.8
794.107	423.42
794.295	579.06
794.484	611.83
794.672	452.09
794.861	441.85
795.049	624.12
795.238	970.23
795.426	210.43
795.614	468.47
795.803	660.98
795.991	873.97
796.179	378.36
796.368	325.12
796.556	904.69
796.744	404.99
796.932	310.78
797.121	302.59
797.309	538.1
797.497	796.15
797.685	421.37
797.874	357.88
798.062	593.4
798.25	937.46
798.438	306.68
798.626	275.96
798.814	724.47
799.002	1172.97
799.19	519.67
799.378	452.09
799.566	906.74
799.755	900.59
799.943	587.26
800.131	333.31
800.318	685.56
800.506	722.42
800.694	394.75
800.882	542.2
801.07	880.11
801.258	554.49
801.446	409.08
801.634	421.37
801.822	464.38
802.01	581.11
802.197	366.07
802.385	435.71
802.573	685.56
802.761	351.74
802.949	325.12
803.136	263.68
803.324	759.28
803.512	665.08
803.699	493.05
803.887	247.29
804.075	867.83
804.262	562.68
804.45	239.1
804.638	437.75
804.825	427.51
805.013	519.67
805.201	396.79
805.388	312.83
805.576	509.43
805.763	1025.52
805.951	339.45
806.138	603.64
806.326	1134.06
806.513	697.85
806.701	396.79
806.888	290.3
807.075	648.69
807.263	968.18
807.45	282.11
807.638	525.82
807.825	996.85
808.012	796.15
808.2	425.47
808.387	615.93
808.574	826.87
808.761	978.42
808.949	243.2
809.136	462.33
809.323	521.72
809.51	488.95
809.698	747
809.885	566.78
810.072	716.28
810.259	771.57
810.446	482.81
810.633	353.79
810.82	888.31
811.008	974.32
811.195	507.38
811.382	415.23
811.569	534.01
811.756	390.65
811.943	505.34
812.13	327.16
812.317	585.21
812.504	568.82
812.691	572.92
812.878	478.71
813.064	880.11
813.251	679.41
813.438	318.97
813.625	570.87
813.812	589.3
813.999	628.21
814.186	456.19
814.372	419.32
814.559	542.2
814.746	896.5
814.933	398.84
815.12	597.49
815.306	531.96
815.493	443.9
815.68	415.23
815.866	439.8
816.053	857.59
816.24	1172.97
816.426	443.9
816.613	364.03
816.799	790
816.986	925.17
817.173	329.21
817.359	351.74
817.546	669.17
817.732	390.65
817.919	165.37
818.105	550.39
818.292	585.21
818.478	738.8
818.665	505.34
818.851	343.55
819.037	1203.69
819.224	577.02
819.41	370.17
819.597	329.21
819.783	1050.1
819.969	839.16
820.156	491
820.342	316.92
820.528	1295.85
820.714	632.31
820.901	628.21
821.087	392.7
821.273	1097.2
821.459	605.69
821.646	382.46
821.832	290.3
822.018	593.4
822.204	646.65
822.39	409.08
822.576	263.68
822.762	869.87
822.948	642.55
823.134	650.74
823.32	433.66
823.507	435.71
823.693	771.57
823.879	738.8
824.065	355.83
824.25	697.85
824.436	452.09
824.622	384.51
824.808	337.4
824.994	529.91
825.18	425.47
825.366	296.44
825.552	376.31
825.738	531.96
825.923	775.67
826.109	644.6
826.295	427.51
826.481	450.04
826.667	552.44
826.852	521.72
827.038	282.11
827.224	951.79
827.409	1095.15
827.595	308.73
827.781	548.34
827.966	953.84
828.152	953.84
828.338	427.51
828.523	290.3
828.709	454.14
828.894	916.98
829.08	460.28
829.266	364.03
829.451	536.06
829.637	814.58
829.822	540.15
830.008	386.55
830.193	800.24
830.378	953.84
830.564	531.96
830.749	327.16
830.935	658.93
831.12	765.43
831.305	290.3
831.491	491
831.676	452.09
831.861	835.06
832.047	429.56
832.232	341.5
832.417	851.44
832.602	658.93
832.788	308.73
832.973	294.4
833.158	712.18
833.343	681.46
833.528	464.38
833.714	476.66
833.899	835.06
834.084	1011.18
834.269	509.43
834.454	450.04
834.639	886.26
834.824	603.64
835.009	484.86
835.194	511.48
835.379	738.8
835.564	1002.99
835.749	558.58
835.934	361.98
836.119	787.96
836.304	644.6
836.489	329.21
836.674	701.94
836.859	435.71
837.044	968.18
837.228	519.67
837.413	368.12
837.598	716.28
837.783	894.45
837.968	505.34
838.152	282.11
838.337	239.1
838.522	962.03
838.707	898.55
838.891	585.21
839.076	742.9
839.261	869.87
839.445	460.28
839.63	458.23
839.815	1056.24
839.999	558.58
840.184	488.95
840.368	460.28
840.553	851.44
840.737	859.63
840.922	280.06
841.106	329.21
841.291	396.79
841.475	615.93
841.66	351.74
841.844	425.47
842.029	1304.04
842.213	376.31
842.397	439.8
842.582	271.87
842.766	992.75
842.951	810.48
843.135	335.35
843.319	499.19
843.504	767.48
843.688	818.68
843.872	216.57
844.056	273.92
844.241	677.37
844.425	562.68
844.609	658.93
844.793	251.39
844.977	890.35
845.161	808.44
845.346	380.41
845.53	427.51
845.714	554.49
845.898	927.22
846.082	226.81
846.266	351.74
846.45	665.08
846.634	622.07
846.818	394.75
847.002	491
847.186	634.36
847.37	398.84
847.554	220.67
847.738	470.52
847.922	724.47
848.106	747
848.29	280.06
848.473	402.94
848.657	753.14
848.841	548.34
849.025	464.38
849.209	196.09
849.392	771.57
849.576	531.96
849.76	118.27
849.944	581.11
850.127	980.47
850.311	404.99
850.495	286.2
850.678	249.34
850.862	826.87
851.046	849.4
851.229	595.45
851.413	351.74
851.596	521.72
851.78	574.97
851.964	495.1
852.147	447.99
852.331	1322.48
852.514	927.22
852.698	538.1
852.881	312.83
853.065	884.21
853.248	581.11
853.431	478.71
853.615	456.19
853.798	1095.15
853.982	634.36
854.165	534.01
854.348	417.27
854.532	480.76
854.715	486.9
854.898	460.28
855.081	361.98
855.265	898.55
855.448	921.07
855.631	409.08
855.814	409.08
855.997	865.78
856.181	544.25
856.364	384.51
856.547	357.88
856.73	640.5
856.913	523.77
857.096	296.44
857.279	413.18
857.462	484.86
857.645	857.59
857.828	570.87
858.011	454.14
858.194	488.95
858.377	792.05
858.56	296.44
858.743	417.27
858.926	411.13
859.109	787.96
859.292	339.45
859.475	202.24
859.658	980.47
859.841	751.09
860.023	335.35
860.206	204.28
860.389	693.75
860.572	906.74
860.755	411.13
860.937	402.94
861.12	544.25
861.303	593.4
861.486	482.81
861.668	468.47
861.851	744.95
862.034	718.33
862.216	540.15
862.399	286.2
862.581	644.6
862.764	1056.24
862.947	482.81
863.129	278.01
863.312	386.55
863.494	953.84
863.677	742.9
863.859	226.81
864.042	880.11
864.224	1013.23
864.406	529.91
864.589	116.22
864.771	726.52
864.954	460.28
865.136	210.43
865.318	247.29
865.501	679.41
865.683	198.14
865.865	318.97
866.048	413.18
866.23	628.21
866.412	515.58
866.594	181.76
866.777	382.46
866.959	833.01
867.141	337.4
867.323	636.41
867.505	499.19
867.687	546.3
867.869	636.41
868.052	458.23
868.234	259.58
868.416	595.45
868.598	738.8
868.78	282.11
868.962	251.39
869.144	818.68
869.326	820.72
869.508	314.88
869.69	216.57
869.872	488.95
870.054	833.01
870.236	243.2
870.417	378.36
870.599	423.42
870.781	957.94
870.963	579.06
871.145	275.96
871.327	366.07
871.508	792.05
871.69	331.26
871.872	460.28
872.054	525.82
872.235	697.85
872.417	382.46
872.599	171.52
872.78	892.4
872.962	491
873.144	269.82
873.325	357.88
873.507	902.64
873.689	552.44
873.87	198.14
874.052	505.34
874.233	517.62
874.415	751.09
874.596	351.74
874.778	286.2
874.959	585.21
875.141	755.19
875.322	357.88
875.503	265.72
875.685	728.56
875.866	153.09
876.048	312.83
876.229	278.01
876.41	529.91
876.592	617.97
876.773	302.59
876.954	259.58
877.136	869.87
877.317	427.51
877.498	161.28
877.679	366.07
877.86	691.7
878.042	511.48
878.223	314.88
878.404	620.02
878.585	724.47
878.766	986.61
878.947	730.61
879.128	464.38
879.309	753.14
879.49	892.4
879.672	556.54
879.853	474.62
880.034	411.13
880.215	509.43
880.396	419.32
880.576	351.74
880.757	351.74
880.938	738.8
881.119	261.63
881.3	257.53
881.481	390.65
881.662	1347.05
881.843	220.67
882.023	280.06
882.204	728.56
882.385	656.89
882.566	357.88
882.747	284.16
882.927	542.2
883.108	609.78
883.289	321.02
883.469	642.55
883.65	597.49
883.831	589.3
884.011	507.38
884.192	327.16
884.373	802.29
884.553	609.78
884.734	445.95
884.914	675.32
885.095	1111.54
885.275	976.37
885.456	624.12
885.636	261.63
885.817	542.2
885.997	568.82
886.178	318.97
886.358	413.18
886.538	663.03
886.719	1549.8
886.899	308.73
887.08	388.6
887.26	884.21
887.44	484.86
887.621	235
887.801	527.86
887.981	1193.45
888.161	806.39
888.342	435.71
888.522	343.55
888.702	865.78
888.882	845.3
889.062	515.58
889.242	187.9
889.423	898.55
889.603	701.94
889.783	529.91
889.963	321.02
890.143	787.96
890.323	886.26
890.503	396.79
890.683	361.98
890.863	603.64
891.043	658.93
891.223	501.24
891.403	601.59
891.583	644.6
891.763	706.04
891.943	376.31
892.122	312.83
892.302	660.98
892.482	597.49
892.662	482.81
892.842	501.24
893.022	697.85
893.201	476.66
893.381	491
893.561	321.02
893.741	820.72
893.92	790
894.1	441.85
894.28	517.62
894.459	863.73
894.639	734.71
894.819	388.6
894.998	566.78
895.178	716.28
895.357	806.39
895.537	400.89
895.716	185.85
895.896	658.93
896.075	959.99
896.255	435.71
896.434	189.95
896.614	792.05
896.793	982.51
896.973	589.3
897.152	611.83
897.331	732.66
897.511	841.2
897.69	218.62
897.87	505.34
898.049	787.96
898.228	611.83
898.407	626.17
898.587	605.69
898.766	495.1
898.945	837.11
899.124	747
899.304	591.35
899.483	771.57
899.662	1148.4
899.841	349.69
900.02	396.79
900.199	910.83
900.378	740.85
900.557	329.21
900.737	241.15
900.916	775.67
901.095	841.2
901.274	648.69
901.453	286.2
901.632	368.12
901.811	546.3
901.989	380.41
902.168	325.12
902.347	781.81
902.526	505.34
902.705	468.47
902.884	501.24
903.063	970.23
903.242	910.83
903.42	298.49
903.599	552.44
903.778	828.92
903.957	1078.77
904.135	472.57
904.314	517.62
904.493	744.95
904.672	890.35
904.85	517.62
905.029	519.67
905.207	798.2
905.386	1467.88
905.565	341.5
905.743	443.9
905.922	513.53
906.1	949.75
906.279	458.23
906.457	370.17
906.636	513.53
906.814	622.07
906.993	368.12
907.171	327.16
907.35	771.57
907.528	853.49
907.707	749.04
907.885	351.74
908.063	1033.71
908.242	417.27
908.42	359.93
908.598	308.73
908.777	759.28
908.955	441.85
909.133	540.15
909.311	331.26
909.49	525.82
909.668	529.91
909.846	452.09
910.024	192
910.202	591.35
910.38	851.44
910.559	325.12
910.737	308.73
910.915	697.85
911.093	718.33
911.271	370.17
911.449	564.73
911.627	763.38
911.805	1066.48
911.983	484.86
912.161	355.83
912.339	724.47
912.517	968.18
912.695	628.21
912.872	452.09
913.05	497.14
913.228	708.09
913.406	488.95
913.584	230.91
913.762	779.76
913.939	540.15
914.117	390.65
914.295	337.4
914.473	732.66
914.65	626.17
914.828	366.07
915.006	419.32
915.184	339.45
915.361	673.27
915.539	493.05
915.716	613.88
915.894	693.75
916.072	794.1
916.249	521.72
916.427	529.91
916.604	404.99
916.782	849.4
916.959	222.72
917.137	388.6
917.314	644.6
917.492	810.48
917.669	427.51
917.847	431.61
918.024	730.61
918.201	452.09
918.379	478.71
918.556	558.58
918.733	820.72
918.911	519.67
919.088	689.65
919.265	476.66
919.442	697.85
919.62	615.93
919.797	437.75
919.974	259.58
920.151	683.51
920.328	695.8
920.506	452.09
920.683	554.49
920.86	484.86
921.037	415.23
921.214	366.07
921.391	335.35
921.568	761.33
921.745	419.32
921.922	464.38
922.099	306.68
922.276	931.31
922.453	581.11
922.63	275.96
922.807	611.83
922.984	552.44
923.161	417.27
923.338	417.27
923.514	321.02
923.691	511.48
923.868	638.45
924.045	417.27
924.222	235
924.399	591.35
924.575	767.48
924.752	407.03
924.929	454.14
925.105	796.15
925.282	376.31
925.459	407.03
925.635	329.21
925.812	503.29
925.989	466.42
926.165	411.13
926.342	230.91
926.518	353.79
926.695	597.49
926.871	349.69
927.048	286.2
927.224	669.17
927.401	513.53
927.577	441.85
927.754	216.57
927.93	808.44
928.107	708.09
928.283	284.16
928.459	441.85
928.636	679.41
928.812	458.23
928.988	235
929.165	185.85
929.341	534.01
929.517	556.54
929.693	601.59
929.87	194.05
930.046	683.51
930.222	441.85
930.398	214.52
930.574	419.32
930.751	556.54
930.927	384.51
931.103	402.94
931.279	323.07
931.455	296.44
931.631	511.48
931.807	126.46
931.983	169.47
932.159	263.68
932.335	491
932.511	306.68
932.687	304.64
932.863	574.97
933.039	470.52
933.215	196.09
933.391	122.37
933.566	396.79
933.742	484.86
933.918	343.55
934.094	48.64
934.27	476.66
934.445	480.76
934.621	450.04
934.797	196.09
934.973	734.71
935.148	556.54
935.324	159.23
935.5	-4.61
935.675	724.47
935.851	538.1
936.027	243.2
936.202	341.5
936.378	577.02
936.553	456.19
936.729	585.21
936.904	175.61
937.08	157.18
937.255	292.35
937.431	148.99
937.606	116.22
937.782	265.72
937.957	472.57
938.133	253.44
938.308	173.57
938.483	454.14
938.659	151.04
938.834	280.06
939.009	75.26
939.185	286.2
939.36	232.96
939.535	-131.58
939.71	372.22
939.886	599.54
940.061	511.48
940.236	310.78
940.411	171.52
940.586	488.95
940.761	466.42
940.937	255.48
941.112	-14.85
941.287	310.78
941.462	439.8
941.637	28.16
941.812	110.08
941.987	407.03
942.162	370.17
942.337	165.37
942.512	144.89
942.687	456.19
942.862	462.33
943.037	50.69
943.212	-193.02
943.386	230.91
943.561	335.35
943.736	292.35
943.911	314.88
944.086	308.73
944.26	423.42
944.435	134.65
944.61	218.62
944.785	687.61
944.959	744.95
945.134	222.72
945.309	69.12
945.483	202.24
945.658	624.12
945.833	-70.14
946.007	-33.28
946.182	740.85
946.357	71.17
946.531	52.74
946.706	42.5
946.88	-45.57
947.055	306.68
947.229	69.12
947.404	75.26
947.578	478.71
947.752	222.72
947.927	-47.62
948.101	-80.38
948.276	288.25
948.45	318.97
948.624	50.69
948.799	5.63
948.973	357.88
949.147	11.78
949.321	148.99
949.496	73.21
949.67	652.79
949.844	185.85
950.018	85.5
950.193	65.02
950.367	822.77
950.541	116.22
950.715	169.47
950.889	235
951.063	189.95
951.237	486.9
951.411	-113.15
951.585	-33.28
951.759	415.23
951.933	161.28
952.107	65.02
952.281	159.23
952.455	568.82
952.629	521.72
952.803	22.02
952.977	26.11
953.151	386.55
953.325	345.59
953.499	273.92
953.672	-57.86
953.846	19.97
954.02	245.24
954.194	-23.04
954.368	54.78
954.541	384.51
954.715	83.45
954.889	112.13
955.062	-51.71
955.236	235
955.41	148.99
955.583	97.79
955.757	-150.01
955.93	165.37
956.104	5.63
956.278	26.11
956.451	17.92
956.625	337.4
956.798	714.23
956.972	235
957.145	17.92
957.319	245.24
957.492	263.68
957.665	214.52
957.839	30.21
958.012	302.59
958.185	179.71
958.359	105.98
958.532	253.44
958.705	472.57
958.879	345.59
959.052	58.88
959.225	-172.54
959.398	253.44
959.572	321.02
959.745	-6.66
959.918	77.31
960.091	226.81
960.264	294.4
960.438	-49.66
960.611	-68.09
960.784	333.31
960.957	189.95
961.13	400.89
961.303	-51.71
961.476	167.42
961.649	433.66
961.822	-70.14
961.995	101.89
962.168	392.7
962.341	302.59
962.514	110.08
962.686	22.02
962.859	282.11
963.032	339.45
963.205	-14.85
963.378	-147.97
963.551	349.69
963.723	226.81
963.896	212.48
964.069	173.57
964.242	241.15
964.414	447.99
964.587	95.74
964.76	91.65
964.932	345.59
965.105	245.24
965.278	34.3
965.45	-33.28
965.623	241.15
965.795	327.16
965.968	44.54
966.14	75.26
966.313	218.62
966.485	314.88
966.658	19.97
966.83	58.88
967.003	460.28
967.175	374.27
967.348	28.16
967.52	103.93
967.692	609.78
967.865	327.16
968.037	116.22
968.209	382.46
968.382	206.33
968.554	419.32
968.726	81.41
968.898	56.83
969.071	247.29
969.243	286.2
969.415	9.73
969.587	157.18
969.759	804.34
969.932	488.95
970.104	73.21
970.276	-231.93
970.448	198.14
970.62	173.57
970.792	173.57
970.964	15.87
971.136	714.23
971.308	335.35
971.48	-8.7
971.652	-12.8
971.824	599.54
971.996	148.99
972.168	93.69
972.339	83.45
972.511	456.19
972.683	126.46
972.855	282.11
973.027	136.7
973.199	200.19
973.37	351.74
973.542	181.76
973.714	132.61
973.886	292.35
974.057	441.85
974.229	-45.57
974.401	-4.61
974.572	62.98
974.744	-203.26
974.915	-55.81
975.087	30.21
975.259	599.54
975.43	101.89
975.602	5.63
975.773	24.06
975.945	151.04
976.116	437.75
976.288	-104.96
976.459	304.64
976.63	220.67
976.802	280.06
976.973	5.63
977.145	173.57
977.316	597.49
977.487	544.25
977.659	161.28
977.83	52.74
978.001	630.26
978.172	290.3
978.344	30.21
978.515	38.4
978.686	163.33
978.857	593.4
979.028	122.37
979.2	36.35
979.371	466.42
979.542	323.07
979.713	232.96
979.884	-281.08
980.055	116.22
980.226	140.8
980.397	38.4
980.568	-10.75
980.739	493.05
980.91	185.85
981.081	144.89
981.252	58.88
981.423	370.17
981.594	536.06
981.765	-107.01
981.936	93.69
982.106	232.96
982.277	458.23
982.448	-64
982.619	169.47
982.79	108.03
982.96	554.49
983.131	91.65
983.302	-233.98
983.472	-20.99
983.643	359.93
983.814	157.18
983.984	-2.56
984.155	177.66
984.326	495.1
984.496	132.61
984.667	46.59
984.837	153.09
985.008	538.1
985.178	189.95
985.349	79.36
985.519	204.28
985.69	52.74
985.86	60.93
986.031	-35.33
986.201	163.33
986.371	255.48
986.542	-127.49
986.712	-102.91
986.882	265.72
987.053	308.73
987.223	-143.87
987.393	126.46
987.563	120.32
987.734	355.83
987.904	259.58
988.074	17.92
988.244	306.68
988.414	62.98
988.585	5.63
988.755	110.08
988.925	144.89
989.095	568.82
989.265	-55.81
989.435	93.69
989.605	382.46
989.775	290.3
989.945	275.96
990.115	-88.57
990.285	196.09
990.455	218.62
990.625	50.69
990.795	1.54
990.965	552.44
991.134	19.97
991.304	-70.14
991.474	-2.56
991.644	359.93
991.814	605.69
991.984	-90.62
992.153	-80.38
992.323	169.47
992.493	214.52
992.662	-184.83
992.832	157.18
993.002	316.92
993.171	335.35
993.341	-123.39
993.511	108.03
993.68	83.45
993.85	398.84
994.019	-178.69
994.189	-145.92
994.358	224.76
994.528	108.03
994.697	-268.8
994.867	-164.35
995.036	366.07
995.206	146.94
995.375	-70.14
995.544	79.36
995.714	376.31
995.883	165.37
996.052	56.83
996.222	-205.31
996.391	730.61
996.56	290.3
996.73	-100.86
996.899	-246.27
997.068	595.45
997.237	249.34
997.406	-139.77
997.576	-213.5
997.745	220.67
997.914	220.67
998.083	-330.23
998.252	-133.63
998.421	151.04
998.59	9.73
998.759	-156.16
998.928	-248.32
999.097	466.42
999.266	235
999.435	5.63
999.604	-285.18
999.773	644.6
999.942	122.37
1000.111	-348.67
1000.28	-246.27
1000.448	-68.09
1000.617	-57.86
1000.786	79.36
1000.955	-92.67
1001.124	177.66
1001.292	808.44
1001.461	-88.57
1001.63	-141.82
1001.798	509.43
1001.967	491
1002.136	-258.56
1002.304	-119.29
1002.473	247.29
1002.642	206.33
1002.81	-84.48
1002.979	-186.88
1003.147	302.59
1003.316	708.09
1003.484	-127.49
1003.653	-223.74
1003.821	470.52
1003.99	120.32
1004.158	30.21
1004.327	-59.9
1004.495	294.4
1004.663	-6.66
1004.832	3.58
1005	-281.08
1005.168	280.06
1005.337	288.25
1005.505	-248.32
1005.673	-12.8
1005.842	325.12
1006.01	339.45
1006.178	-227.84
1006.346	-107.01
1006.514	271.87
1006.683	361.98
1006.851	-135.68
1007.019	-346.62
1007.187	-166.4
1007.355	-272.89
1007.523	-322.04
1007.691	-379.39
1007.859	-246.27
1008.027	484.86
1008.195	-172.54
1008.363	-195.07
1008.531	343.55
1008.699	-14.85
1008.867	-242.17
1009.035	-170.49
1009.203	435.71
1009.37	165.37
1009.538	-168.45
1009.706	341.5
1009.874	140.8
1010.042	114.17
1010.209	-244.22
1010.377	-248.32
1010.545	351.74
1010.713	171.52
1010.88	-207.36
1011.048	-190.97
1011.216	26.11
1011.383	497.14
1011.551	-174.59
1011.718	-227.84
1011.886	321.02
1012.054	62.98
1012.221	-211.45
1012.389	-215.55
1012.556	95.74
1012.724	556.54
1012.891	-47.62
1013.058	-285.18
1013.226	335.35
1013.393	310.78
1013.561	-311.8
1013.728	-338.43
1013.895	224.76
1014.063	235
1014.23	-227.84
1014.397	-113.15
1014.565	327.16
1014.732	28.16
1014.899	-182.78
1015.066	-358.91
1015.233	136.7
1015.401	284.16
1015.568	-121.34
1015.735	-16.9
1015.902	122.37
1016.069	212.48
1016.236	-86.53
1016.403	-246.27
1016.57	-129.53
1016.737	409.08
1016.904	-64
1017.071	-248.32
1017.238	-84.48
1017.405	341.5
1017.572	-121.34
1017.739	-27.14
1017.906	265.72
1018.073	321.02
1018.24	-215.55
1018.407	-156.16
1018.573	472.57
1018.74	48.64
1018.907	-76.29
1019.074	-371.19
1019.241	321.02
1019.407	200.19
1019.574	-219.64
1019.741	-303.61
1019.907	241.15
1020.074	140.8
1020.241	-379.39
1020.407	-240.12
1020.574	237.05
1020.74	304.64
1020.907	-178.69
1021.073	-164.35
1021.24	695.8
1021.406	513.53
1021.573	-262.65
1021.739	-266.75
1021.906	323.07
1022.072	50.69
1022.239	-102.91
1022.405	-197.12
1022.571	95.74
1022.738	-72.19
1022.904	-145.92
1023.07	-119.29
1023.237	48.64
1023.403	345.59
1023.569	-102.91
1023.735	-145.92
1023.902	185.85
1024.068	181.76
1024.234	-287.23
1024.4	-154.11
1024.566	257.53
1024.732	288.25
1024.898	-86.53
1025.065	-381.43
1025.231	357.88
1025.397	-4.61
1025.563	-242.17
1025.729	-281.08
1025.895	-274.94
1026.061	-88.57
1026.227	-377.34
1026.392	-164.35
1026.558	390.65
1026.724	151.04
1026.89	-258.56
1027.056	-33.28
1027.222	255.48
1027.388	73.21
1027.553	-190.97
1027.719	-266.75
1027.885	488.95
1028.051	273.92
1028.216	-301.56
1028.382	-154.11
1028.548	325.12
1028.713	-57.86
1028.879	-274.94
1029.045	62.98
1029.21	427.51
1029.376	368.12
1029.541	-100.86
1029.707	-31.23
1029.873	261.63
1030.038	286.2
1030.204	-246.27
1030.369	-178.69
1030.534	273.92
1030.7	65.02
1030.865	-133.63
1031.031	-250.36
1031.196	161.28
1031.361	216.57
1031.527	-188.93
1031.692	-162.3
1031.857	-221.69
1032.023	296.44
1032.188	-268.8
1032.353	-96.77
1032.518	511.48
1032.684	148.99
1032.849	-330.23
1033.014	-180.73
1033.179	294.4
1033.344	296.44
1033.509	-104.96
1033.674	-137.73
1033.839	321.02
1034.004	359.93
1034.17	-215.55
1034.335	-236.03
1034.5	34.3
1034.664	9.73
1034.829	-244.22
1034.994	-168.45
1035.159	243.2
1035.324	210.43
1035.489	-209.4
1035.654	-147.97
1035.819	468.47
1035.984	183.81
1036.148	-127.49
1036.313	-102.91
1036.478	407.03
1036.643	194.05
1036.807	-188.93
1036.972	-272.89
1037.137	404.99
1037.301	110.08
1037.466	-291.32
1037.631	-154.11
1037.795	433.66
1037.96	255.48
1038.124	-39.42
1038.289	-320
1038.454	312.83
1038.618	323.07
1038.783	-135.68
1038.947	-139.77
1039.111	196.09
1039.276	60.93
1039.44	-205.31
1039.605	212.48
1039.769	-23.04
1039.933	30.21
1040.098	-102.91
1040.262	56.83
1040.426	364.03
1040.591	292.35
1040.755	-160.25
1040.919	-86.53
1041.083	169.47
1041.248	153.09
1041.412	-397.82
1041.576	-260.6
1041.74	87.55
1041.904	351.74
1042.068	-256.51
1042.232	-133.63
1042.397	341.5
1042.561	208.38
1042.725	-420.35
1042.889	44.54
1043.053	300.54
1043.217	284.16
1043.381	-107.01
1043.544	-301.56
1043.708	411.13
1043.872	-121.34
1044.036	-436.73
1044.2	-322.04
1044.364	417.27
1044.528	523.77
1044.691	3012.05
1044.855	-281.08
1045.019	331.26
1045.183	318.97
1045.346	-107.01
1045.51	-252.41
1045.674	278.01
1045.837	288.25
1046.001	-201.21
1046.165	-150.01
1046.328	730.61
1046.492	282.11
1046.655	-84.48
1046.819	-139.77
1046.983	46.59
1047.146	237.05
1047.31	-141.82
1047.473	-346.62
1047.636	179.71
1047.8	-14.85
1047.963	-152.06
1048.127	-205.31
1048.29	-37.38
