Data from Ink_Intensity_USB4F045381__27__00027.txt Node

Date: Mon Jul 17 09:46:24 EDT 2023
User: mmckonesweet
Spectrometer: USB4F04538
Trigger mode: 4
Integration Time (sec): 9.000000E-1
Scans to average: 1
Electric dark correction enabled: true
Nonlinearity correction enabled: false
Boxcar width: 0
XAxis mode: Wavelengths
Number of Pixels in Spectrum: 3648
>>>>>Begin Spectral Data<<<<<
345.52	-939.33
345.736	-939.33
345.952	-939.33
346.168	-914.76
346.384	-927.05
346.6	-136.53
346.816	-247.12
347.032	-204.11
347.248	234.15
347.464	-200.02
347.68	-77.14
347.896	27.31
348.112	375.46
348.328	45.74
348.544	-142.68
348.76	62.12
348.975	262.82
349.191	-148.82
349.407	-95.57
349.623	148.14
349.839	-116.05
350.055	-79.19
350.27	43.69
350.486	160.42
350.702	352.93
350.918	238.25
351.133	-193.87
351.349	109.22
351.565	354.98
351.781	-212.31
351.996	-32.08
352.212	332.45
352.428	-150.87
352.644	-79.19
352.859	-124.24
353.075	289.45
353.291	-38.23
353.506	-46.42
353.722	-226.64
353.938	-73.04
354.153	428.71
354.369	105.13
354.584	-181.59
354.8	318.12
355.016	-347.47
355.231	-236.88
355.447	-44.37
355.662	180.9
355.878	887.45
356.093	-255.31
356.309	-1.37
356.524	-238.93
356.74	207.53
356.955	-177.49
357.171	64.17
357.386	103.08
357.602	-183.63
357.817	-30.04
358.033	-163.15
358.248	395.94
358.464	76.46
358.679	-103.76
358.895	-314.7
359.11	6.83
359.325	342.69
359.541	252.58
359.756	-62.8
359.972	-243.03
360.187	101.03
360.402	-189.78
360.618	-154.96
360.833	887.45
361.048	117.42
361.264	-191.83
361.479	-50.52
361.694	-66.9
361.909	166.57
362.125	-181.59
362.34	-118.1
362.555	187.05
362.77	60.07
362.986	-320.85
363.201	-132.44
363.416	96.94
363.631	-9.56
363.847	-144.72
364.062	-128.34
364.277	156.33
364.492	105.13
364.707	-116.05
364.922	-302.42
365.138	268.97
365.353	275.11
365.568	-263.51
365.783	-97.62
365.998	150.18
366.213	541.35
366.428	-189.78
366.643	35.5
366.858	279.21
367.073	289.45
367.288	-81.24
367.503	-255.31
367.718	96.94
367.933	316.07
368.148	-302.42
368.363	-114
368.578	-91.48
368.793	404.13
369.008	-140.63
369.223	-144.72
369.438	111.27
369.653	465.57
369.868	-255.31
370.083	-208.21
370.298	51.88
370.513	332.45
370.728	76.46
370.943	-148.82
371.157	-124.24
371.372	387.75
371.587	-243.03
371.802	-191.83
372.017	39.59
372.232	363.17
372.446	-95.57
372.661	-185.68
372.876	209.58
373.091	144.04
373.306	-27.99
373.52	-236.88
373.735	-228.69
373.95	377.51
374.165	-89.43
374.379	-25.94
374.594	-152.91
374.809	88.75
375.023	17.07
375.238	-269.65
375.453	228.01
375.667	-134.48
375.882	-193.87
376.097	-159.06
376.311	-15.7
376.526	-54.61
376.741	-222.55
376.955	53.93
377.17	584.35
377.384	506.53
377.599	-77.14
377.813	-281.94
378.028	615.07
378.242	187.05
378.457	-71
378.672	-326.99
378.886	123.56
379.101	-89.43
379.315	-316.75
379.53	-107.86
379.744	92.84
379.958	195.24
380.173	-136.53
380.387	-218.45
380.602	94.89
380.816	-140.63
381.031	-218.45
381.245	-99.67
381.459	109.22
381.674	2460.29
381.888	-152.91
382.103	72.36
382.317	-134.48
382.531	522.91
382.746	-105.81
382.96	-122.2
383.174	-101.72
383.388	504.48
383.603	92.84
383.817	-253.27
384.031	199.34
384.246	475.81
384.46	27.31
384.674	248.49
384.888	39.59
385.103	117.42
385.317	-269.65
385.531	-21.84
385.745	359.08
385.959	375.46
386.174	-148.82
386.388	-259.41
386.602	-1.37
386.816	-124.24
387.03	-58.71
387.244	-50.52
387.458	12.97
387.672	318.12
387.887	-255.31
388.101	-255.31
388.315	293.54
388.529	92.84
388.743	-62.8
388.957	-183.63
389.171	244.39
389.385	-148.82
389.599	-15.7
389.813	60.07
390.027	162.47
390.241	555.68
390.455	-44.37
390.669	-120.15
390.883	-87.38
391.097	324.26
391.311	96.94
391.525	-142.68
391.738	258.73
391.952	115.37
392.166	39.59
392.38	-183.63
392.594	170.66
392.808	330.41
393.022	-71
393.236	-11.61
393.449	137.9
393.663	92.84
393.877	-206.16
394.091	-36.18
394.305	-122.2
394.518	-77.14
394.732	-302.42
394.946	-128.34
395.16	502.43
395.373	66.22
395.587	-173.39
395.801	-95.57
396.015	252.58
396.228	211.62
396.442	-163.15
396.656	-296.27
396.869	330.41
397.083	432.8
397.297	12.97
397.51	-126.29
397.724	365.22
397.938	66.22
398.151	-255.31
398.365	-286.03
398.578	141.99
398.792	385.7
399.005	-89.43
399.219	-154.96
399.433	148.14
399.646	115.37
399.86	43.69
400.073	72.36
400.287	197.29
400.5	-11.61
400.714	-3.41
400.927	-64.85
401.141	203.43
401.354	1024.67
401.567	150.18
401.781	-236.88
401.994	281.25
402.208	492.2
402.421	19.11
402.635	-38.23
402.848	43.69
403.061	324.26
403.275	4.78
403.488	-175.44
403.701	520.87
403.915	180.9
404.128	-21.84
404.341	-132.44
404.555	180.9
404.768	6.83
404.981	-17.75
405.195	-189.78
405.408	416.42
405.621	266.92
405.834	51.88
406.048	-163.15
406.261	369.32
406.474	469.67
406.687	-210.26
406.9	-21.84
407.114	101.03
407.327	49.83
407.54	-238.93
407.753	-228.69
407.966	-146.77
408.179	324.26
408.392	-195.92
408.605	-318.8
408.819	148.14
409.032	187.05
409.245	-195.92
409.458	27.31
409.671	154.28
409.884	217.77
410.097	-206.16
410.31	45.74
410.523	174.76
410.736	-50.52
410.949	-42.32
411.162	-54.61
411.375	400.04
411.588	262.82
411.801	123.56
412.014	-216.4
412.227	23.21
412.44	-85.33
412.653	-146.77
412.865	-44.37
413.078	322.21
413.291	115.37
413.504	-62.8
413.717	-132.44
413.93	221.86
414.143	-189.78
414.356	-138.58
414.568	-189.78
414.781	248.49
414.994	113.32
415.207	-124.24
415.42	-32.08
415.632	240.3
415.845	541.35
416.058	-222.55
416.271	-189.78
416.483	80.55
416.696	428.71
416.909	-68.95
417.121	-191.83
417.334	170.66
417.547	494.24
417.759	-187.73
417.972	-183.63
418.185	-116.05
418.397	234.15
418.61	-169.3
418.823	-132.44
419.035	441
419.248	94.89
419.46	-56.66
419.673	23.21
419.885	225.96
420.098	31.4
420.311	-75.09
420.523	-351.57
420.736	187.05
420.948	45.74
421.161	-120.15
421.373	-277.84
421.586	125.61
421.798	-87.38
422.01	-283.98
422.223	-111.96
422.435	-13.65
422.648	144.04
422.86	-58.71
423.073	-161.11
423.285	402.08
423.497	-230.74
423.71	-142.68
423.922	-179.54
424.134	94.89
424.347	369.32
424.559	101.03
424.771	162.47
424.984	-30.04
425.196	172.71
425.408	-322.9
425.621	-249.17
425.833	369.32
426.045	303.78
426.257	-247.12
426.47	-97.62
426.682	187.05
426.894	223.91
427.106	-138.58
427.318	-138.58
427.531	-87.38
427.743	246.44
427.955	-238.93
428.167	182.95
428.379	242.34
428.591	64.17
428.804	19.11
429.016	-144.72
429.228	-13.65
429.44	203.43
429.652	12.97
429.864	-234.83
430.076	64.17
430.288	96.94
430.5	-40.28
430.712	-44.37
430.924	299.69
431.136	133.8
431.348	-230.74
431.56	-132.44
431.772	113.32
431.984	4.78
432.196	-224.59
432.408	-136.53
432.62	17.07
432.832	80.55
433.044	137.9
433.256	-27.99
433.468	213.67
433.679	-210.26
433.891	-159.06
434.103	49.83
434.315	346.79
434.527	248.49
434.739	-111.96
434.95	-89.43
435.162	254.63
435.374	-34.13
435.586	-105.81
435.798	-99.67
436.009	-206.16
436.221	49.83
436.433	-93.52
436.645	-175.44
436.856	-46.42
437.068	342.69
437.28	-161.11
437.491	158.38
437.703	162.47
437.915	68.27
438.126	-77.14
438.338	43.69
438.55	64.17
438.761	230.06
438.973	-144.72
439.184	-122.2
439.396	101.03
439.608	273.06
439.819	-236.88
440.031	-30.04
440.242	178.86
440.454	260.77
440.665	-75.09
440.877	-7.51
441.088	131.75
441.3	-17.75
441.511	-286.03
441.723	-109.91
441.934	107.18
442.146	160.42
442.357	37.55
442.569	152.23
442.78	66.22
442.991	522.91
443.203	242.34
443.414	-283.98
443.626	350.89
443.837	-109.91
444.048	-208.21
444.26	-234.83
444.471	129.7
444.682	369.32
444.894	-304.46
445.105	-333.14
445.316	287.4
445.528	193.19
445.739	-17.75
445.95	-5.46
446.161	187.05
446.373	336.55
446.584	-101.72
446.795	-73.04
447.006	205.48
447.217	436.9
447.429	-255.31
447.64	-210.26
447.851	303.78
448.062	109.22
448.273	-300.37
448.484	-232.79
448.695	242.34
448.907	27.31
449.118	-75.09
449.329	117.42
449.54	-79.19
449.751	-111.96
449.962	-114
450.173	-81.24
450.384	391.84
450.595	344.74
450.806	-101.72
451.017	-152.91
451.228	469.67
451.439	209.58
451.65	-50.52
451.861	-296.27
452.072	-138.58
452.283	33.45
452.494	60.07
452.705	-177.49
452.915	445.09
453.126	55.98
453.337	-122.2
453.548	-226.64
453.759	221.86
453.97	549.54
454.181	35.5
454.391	-193.87
454.602	105.13
454.813	127.66
455.024	31.4
455.235	-185.68
455.445	164.52
455.656	191.14
455.867	12.97
456.078	-171.35
456.288	58.03
456.499	158.38
456.71	-183.63
456.921	154.28
457.131	203.43
457.342	191.14
457.553	-17.75
457.763	-107.86
457.974	232.1
458.184	240.3
458.395	-189.78
458.606	-206.16
458.816	451.24
459.027	457.38
459.237	-13.65
459.448	-318.8
459.659	328.36
459.869	586.4
460.08	-255.31
460.29	51.88
460.501	541.35
460.711	2.73
460.922	-210.26
461.132	-109.91
461.343	639.65
461.553	-169.3
461.764	-116.05
461.974	-103.76
462.184	283.3
462.395	119.46
462.605	-46.42
462.816	-146.77
463.026	148.14
463.236	428.71
463.447	-122.2
463.657	-124.24
463.867	352.93
464.078	-32.08
464.288	-23.89
464.498	-120.15
464.709	90.79
464.919	58.03
465.129	-109.91
465.339	-103.76
465.55	268.97
465.76	264.87
465.97	-21.84
466.18	-111.96
466.391	305.83
466.601	244.39
466.811	-38.23
467.021	-175.44
467.231	127.66
467.441	445.09
467.651	-34.13
467.862	-216.4
468.072	121.51
468.282	453.28
468.492	-83.28
468.702	64.17
468.912	172.71
469.122	627.36
469.332	191.14
469.542	-107.86
469.752	334.5
469.962	223.91
470.172	-140.63
470.382	-128.34
470.592	371.37
470.802	465.57
471.012	162.47
471.222	-91.48
471.432	324.26
471.642	340.65
471.852	96.94
472.062	-148.82
472.272	135.85
472.482	-36.18
472.691	-89.43
472.901	-230.74
473.111	283.3
473.321	686.75
473.531	-50.52
473.741	84.65
473.95	338.6
474.16	414.37
474.37	27.31
474.58	-81.24
474.79	596.64
474.999	291.49
475.209	-111.96
475.419	27.31
475.628	115.37
475.838	400.04
476.048	29.35
476.258	-175.44
476.467	498.34
476.677	82.6
476.886	137.9
477.096	58.03
477.306	78.51
477.515	606.88
477.725	117.42
477.935	70.31
478.144	600.74
478.354	117.42
478.563	39.59
478.773	-23.89
478.982	309.93
479.192	547.49
479.401	123.56
479.611	-77.14
479.82	27.31
480.03	248.49
480.239	-17.75
480.449	-132.44
480.658	514.72
480.868	133.8
481.077	180.9
481.287	25.26
481.496	352.93
481.705	633.51
481.915	309.93
482.124	297.64
482.333	328.36
482.543	633.51
482.752	105.13
482.961	29.35
483.171	391.84
483.38	309.93
483.589	127.66
483.799	0.68
484.008	203.43
484.217	535.2
484.426	131.75
484.636	-19.8
484.845	428.71
485.054	-58.71
485.263	311.97
485.472	158.38
485.682	699.04
485.891	287.4
486.1	-36.18
486.309	-17.75
486.518	484
486.727	621.22
486.936	39.59
487.146	248.49
487.355	666.27
487.564	96.94
487.773	123.56
487.982	129.7
488.191	221.86
488.4	406.18
488.609	131.75
488.818	144.04
489.027	826.01
489.236	645.79
489.445	80.55
489.654	209.58
489.863	664.22
490.072	375.46
490.281	557.73
490.49	195.24
490.698	817.82
490.907	651.94
491.116	170.66
491.325	53.93
491.534	696.99
491.743	494.24
491.952	307.88
492.16	219.82
492.369	584.35
492.578	524.96
492.787	182.95
492.996	189.1
493.204	203.43
493.413	838.3
493.622	29.35
493.831	-5.46
494.039	832.16
494.248	123.56
494.457	152.23
494.665	70.31
494.874	500.39
495.083	846.49
495.291	303.78
495.5	158.38
495.709	531.11
495.917	592.55
496.126	299.69
496.335	174.76
496.543	342.69
496.752	547.49
496.96	488.1
497.169	166.57
497.377	336.55
497.586	715.42
497.794	307.88
498.003	115.37
498.211	443.04
498.42	795.29
498.628	359.08
498.837	135.85
499.045	598.69
499.254	563.87
499.462	150.18
499.671	223.91
499.879	823.97
500.087	764.58
500.296	193.19
500.504	316.07
500.713	572.07
500.921	942.75
501.129	268.97
501.338	232.1
501.546	604.83
501.754	588.45
501.962	406.18
502.171	236.2
502.379	570.02
502.587	989.85
502.795	342.69
503.004	318.12
503.212	467.62
503.42	742.05
503.628	279.21
503.837	414.37
504.045	770.72
504.253	938.65
504.461	242.34
504.669	86.7
504.877	709.28
505.085	912.03
505.294	137.9
505.502	447.14
505.71	557.73
505.918	813.73
506.126	344.74
506.334	309.93
506.542	555.68
506.75	602.79
506.958	383.65
507.166	430.76
507.374	479.91
507.582	1014.43
507.79	471.72
507.998	303.78
508.206	660.13
508.414	694.94
508.622	340.65
508.83	336.55
509.037	948.89
509.245	514.72
509.453	342.69
509.661	354.98
509.869	783.01
510.077	527.01
510.285	502.43
510.492	123.56
510.7	1258.14
510.908	520.87
511.116	496.29
511.324	305.83
511.531	541.35
511.739	608.93
511.947	557.73
512.155	664.22
512.362	719.52
512.57	434.85
512.778	338.6
512.985	236.2
513.193	793.25
513.401	912.03
513.608	463.52
513.816	475.81
514.024	780.96
514.231	940.7
514.439	441
514.646	443.04
514.854	793.25
515.061	893.6
515.269	406.18
515.477	379.56
515.684	486.05
515.892	934.56
516.099	365.22
516.307	277.16
516.514	836.25
516.722	1088.15
516.929	475.81
517.136	320.17
517.344	916.12
517.551	735.9
517.759	426.66
517.966	547.49
518.173	668.32
518.381	756.38
518.588	561.83
518.796	471.72
519.003	826.01
519.21	625.31
519.418	477.86
519.625	821.92
519.832	754.34
520.039	838.3
520.247	338.6
520.454	512.67
520.661	1061.53
520.868	817.82
521.076	598.69
521.283	531.11
521.49	1268.38
521.697	871.07
521.904	594.59
522.112	551.59
522.319	950.94
522.526	832.16
522.733	481.96
522.94	443.04
523.147	676.51
523.354	1053.34
523.561	326.31
523.768	608.93
523.975	1063.58
524.183	699.04
524.39	748.19
524.597	488.1
524.804	858.78
525.011	533.15
525.218	479.91
525.425	498.34
525.632	1217.18
525.838	656.03
526.045	574.11
526.252	555.68
526.459	1850
526.666	1510.04
526.873	531.11
527.08	580.26
527.287	1178.26
527.494	936.6
527.701	400.04
527.907	531.11
528.114	1008.28
528.321	776.86
528.528	766.62
528.735	537.25
528.941	770.72
529.148	633.51
529.355	838.3
529.562	553.63
529.768	1190.55
529.975	645.79
530.182	783.01
530.388	570.02
530.595	1118.87
530.802	613.03
531.008	805.53
531.215	682.66
531.422	1591.95
531.628	1651.35
531.835	621.22
532.042	729.76
532.248	760.48
532.455	1041.05
532.661	678.56
532.868	680.61
533.074	938.65
533.281	1108.63
533.487	651.94
533.694	580.26
533.9	783.01
534.107	1133.21
534.313	631.46
534.52	701.09
534.726	1125.02
534.933	1346.2
535.139	676.51
535.345	592.55
535.552	991.9
535.758	893.6
535.965	715.42
536.171	721.57
536.377	1069.72
536.584	1254.04
536.79	731.81
536.996	719.52
537.203	1100.44
537.409	1100.44
537.615	785.05
537.821	883.36
538.028	1122.97
538.234	1258.14
538.44	699.04
538.646	844.45
538.853	1172.12
539.059	1032.86
539.265	1174.17
539.471	606.88
539.677	1292.95
539.883	944.8
540.09	701.09
540.296	1237.66
540.502	1057.43
540.708	860.83
540.914	1010.33
541.12	811.68
541.326	1198.74
541.532	1008.28
541.738	883.36
541.944	856.73
542.15	1360.53
542.356	1002.14
542.562	797.34
542.768	866.97
542.974	1718.93
543.18	1376.92
543.386	828.06
543.592	748.19
543.798	1325.72
544.004	1268.38
544.21	893.6
544.415	961.18
544.621	1194.65
544.827	1270.42
545.033	836.25
545.239	1090.2
545.445	934.56
545.651	1190.55
545.856	903.84
546.062	895.64
546.268	1110.68
546.474	983.71
546.679	907.93
546.885	1020.57
547.091	854.69
547.297	1667.73
547.502	993.95
547.708	842.4
547.914	1028.76
548.119	1217.18
548.325	772.77
548.531	715.42
548.736	1577.62
548.942	1077.91
549.147	879.26
549.353	1088.15
549.559	1460.88
549.764	1329.81
549.97	875.17
550.175	1045.15
550.381	1366.68
550.586	1118.87
550.792	1045.15
550.997	1032.86
551.203	1335.96
551.408	1319.57
551.614	852.64
551.819	914.08
552.025	1583.76
552.23	1618.58
552.435	914.08
552.641	1125.02
552.846	1057.43
553.052	1524.37
553.257	1118.87
553.462	1075.87
553.668	1020.57
553.873	1393.3
554.078	885.41
554.283	1022.62
554.489	1319.57
554.694	1112.73
554.899	918.17
555.105	1223.32
555.31	1516.18
555.515	1462.93
555.72	1147.55
555.925	969.37
556.131	1530.52
556.336	1149.59
556.541	1047.19
556.746	969.37
556.951	1626.77
557.156	1651.35
557.361	1186.46
557.567	1211.03
557.772	1694.35
557.977	1444.5
558.182	993.95
558.387	1114.78
558.592	1256.09
558.797	1514.13
559.002	1231.51
559.207	1229.46
559.412	1407.64
559.617	1768.08
559.822	1053.34
560.027	1034.91
560.232	1516.18
560.437	1665.68
560.642	1024.67
560.847	1026.72
561.051	1397.4
561.256	1362.58
561.461	1305.24
561.666	1008.28
561.871	1417.88
562.076	1467.03
562.281	1094.3
562.485	1039
562.69	1460.88
562.895	1624.72
563.1	1120.92
563.305	1059.48
563.509	1821.33
563.714	2007.69
563.919	1061.53
564.123	1174.17
564.328	1327.77
564.533	1626.77
564.737	1149.59
564.942	1108.63
565.147	1802.9
565.351	1970.83
565.556	1243.8
565.761	1280.66
565.965	1446.55
566.17	1313.43
566.374	1170.07
566.579	1104.54
566.784	1497.75
566.988	1346.2
567.193	1223.32
567.397	1153.69
567.602	1208.98
567.806	1385.11
568.011	1168.02
568.215	1262.23
568.42	1460.88
568.624	1512.08
568.828	1262.23
569.033	1344.15
569.237	1745.55
569.442	1563.28
569.646	1079.96
569.85	1213.08
570.055	1493.65
570.259	1583.76
570.463	1514.13
570.668	1301.14
570.872	1477.27
571.076	1434.26
571.281	1350.29
571.485	1403.54
571.689	1567.38
571.893	1665.68
572.098	1346.2
572.302	1309.33
572.506	1663.63
572.71	1649.3
572.914	1389.21
573.119	1403.54
573.323	1909.39
573.527	1763.98
573.731	1319.57
573.935	1264.28
574.139	1698.45
574.343	1385.11
574.547	1424.02
574.751	1395.35
574.955	1839.76
575.159	1895.05
575.364	1266.33
575.568	1223.32
575.772	1684.11
575.976	1862.29
576.18	1278.62
576.383	1274.52
576.587	1854.09
576.791	1798.8
576.995	1202.84
577.199	1264.28
577.403	1909.39
577.607	1782.42
577.811	1301.14
578.015	1493.65
578.219	1671.83
578.422	1860.24
578.626	1487.51
578.83	1491.6
579.034	1864.33
579.238	1694.35
579.442	1411.73
579.645	1817.23
579.849	1659.54
580.053	1712.78
580.257	1456.79
580.46	1507.99
580.664	1972.88
580.868	1809.04
581.071	1651.35
581.275	1548.95
581.479	1483.41
581.682	1903.25
581.886	1477.27
582.09	1600.15
582.293	1843.85
582.497	1825.42
582.7	1612.43
582.904	1444.5
583.107	1720.98
583.311	1698.45
583.515	1647.25
583.718	1608.34
583.922	1923.73
584.125	2116.23
584.329	1471.12
584.532	1651.35
584.735	2122.38
584.939	1841.81
585.142	1350.29
585.346	1579.67
585.549	1938.06
585.753	1669.78
585.956	1579.67
586.159	1682.07
586.363	2175.63
586.566	1845.9
586.769	1548.95
586.973	1475.22
587.176	1950.35
587.379	2120.33
587.582	1897.1
587.786	1819.28
587.989	1784.46
588.192	2405
588.395	1526.42
588.599	1835.66
588.802	2017.93
589.005	2054.8
589.208	1620.63
589.411	1669.78
589.615	2034.32
589.818	2239.11
590.021	1860.24
590.224	1747.6
590.427	2083.47
590.63	2089.61
590.833	1579.67
591.036	1702.54
591.239	1903.25
591.442	1835.66
591.645	1839.76
591.848	1571.47
592.051	1954.44
592.254	2056.84
592.457	1735.31
592.66	1804.94
592.863	1923.73
593.066	1962.64
593.269	1696.4
593.472	1843.85
593.675	1774.22
593.878	2257.54
594.081	1839.76
594.284	1649.3
594.486	2030.22
594.689	2079.37
594.892	1819.28
595.095	1897.1
595.298	2034.32
595.5	1878.67
595.703	1858.19
595.906	1981.07
596.109	2261.64
596.311	2151.05
596.514	1479.32
596.717	1882.77
596.92	2302.6
597.122	2210.44
597.325	1518.23
597.528	1768.08
597.73	2314.89
597.933	2196.11
598.136	1794.7
598.338	1657.49
598.541	2220.68
598.743	2388.61
598.946	1852.05
599.148	1800.85
599.351	2163.34
599.554	2419.33
599.756	1952.4
599.959	1919.63
600.161	2333.32
600.363	2699.91
600.566	2065.04
600.768	1858.19
600.971	2509.44
601.173	2245.26
601.376	1876.62
601.578	1952.4
601.78	2194.06
601.983	2609.79
602.185	1895.05
602.388	2114.19
602.59	2364.04
602.792	2151.05
602.995	2093.71
603.197	1854.09
603.399	2443.91
603.601	2167.43
603.804	1956.49
604.006	2003.6
604.208	2214.54
604.41	1831.57
604.613	2187.91
604.815	1964.68
605.017	2759.3
605.219	2011.79
605.421	2194.06
605.623	1989.26
605.826	2476.68
606.028	2593.41
606.23	1956.49
606.432	1872.53
606.634	2648.71
606.836	2431.62
607.038	1833.61
607.24	2103.95
607.442	2224.78
607.644	2099.85
607.846	2161.29
608.048	1976.97
608.25	2583.17
608.452	2019.98
608.654	2163.34
608.856	1761.94
609.058	2134.67
609.26	2316.94
609.462	2108.04
609.664	2017.93
609.866	2724.48
610.067	2468.48
610.269	2151.05
610.471	1991.31
610.673	2302.6
610.875	2439.81
611.077	1802.9
611.278	2251.4
611.48	2286.22
611.682	2716.29
611.884	2202.25
612.085	2050.7
612.287	2132.62
612.489	2445.96
612.69	1979.02
612.892	2171.53
613.094	2491.01
613.295	2364.04
613.497	1987.21
613.699	2132.62
613.9	2673.28
614.102	2607.75
614.304	2144.91
614.505	1972.88
614.707	2318.98
614.908	2255.5
615.11	2001.55
615.311	2046.6
615.513	2417.29
615.714	2525.83
615.916	1944.2
616.117	2257.54
616.319	2198.15
616.52	2622.08
616.722	2079.37
616.923	2050.7
617.124	2513.54
617.326	2361.99
617.527	2206.35
617.729	2484.87
617.93	2581.12
618.131	2521.73
618.333	2165.39
618.534	2237.06
618.735	2146.95
618.937	2849.41
619.138	2067.08
619.339	2093.71
619.54	2445.96
619.742	2398.85
619.943	2314.89
620.144	2216.58
620.345	2613.89
620.546	2710.15
620.748	2097.8
620.949	2124.43
621.15	2409.09
621.351	2415.24
621.552	2071.18
621.753	2026.12
621.954	2138.76
622.155	3000.96
622.356	2153.1
622.558	2368.13
622.759	2560.64
622.96	2826.88
623.161	2171.53
623.362	2351.75
623.563	2435.72
623.764	2525.83
623.965	2146.95
624.166	2517.64
624.366	2269.83
624.567	2673.28
624.768	2075.27
624.969	2265.74
625.17	2357.89
625.371	2546.31
625.572	2333.32
625.773	2222.73
625.973	2689.67
626.174	2785.92
626.375	2298.5
626.576	2349.7
626.777	2681.47
626.977	3023.48
627.178	2298.5
627.379	2400.9
627.58	2521.73
627.78	2605.7
627.981	2407.05
628.182	2286.22
628.382	2724.48
628.583	2103.95
628.784	2132.62
628.984	2556.55
629.185	2720.39
629.386	2693.76
629.586	2427.53
629.787	2263.69
629.987	2640.51
630.188	2517.64
630.388	2474.63
630.589	2372.23
630.79	3127.93
630.99	2544.26
631.191	2452.1
631.391	2550.4
631.591	2704
631.792	3117.69
631.992	2511.49
632.193	2374.28
632.393	2998.91
632.594	2615.94
632.794	2390.66
632.994	2591.36
633.195	2740.86
633.395	2577.03
633.595	2349.7
633.796	2577.03
633.996	2673.28
634.196	2906.75
634.397	2271.88
634.597	2622.08
634.797	2423.43
634.997	2988.67
635.198	2673.28
635.398	2355.85
635.598	2787.97
635.798	2974.33
635.998	2806.4
636.199	2486.92
636.399	2523.78
636.599	2495.11
636.799	2493.06
636.999	2806.4
637.199	2701.95
637.399	2894.46
637.599	2460.29
637.799	2636.42
637.999	2581.12
638.199	3138.17
638.399	2353.8
638.599	2544.26
638.799	2833.02
638.999	3150.46
639.199	2630.27
639.399	2560.64
639.599	3113.6
639.799	2413.19
639.999	2491.01
640.199	2484.87
640.399	2910.85
640.599	2730.62
640.799	2599.56
640.998	2822.78
641.198	2906.75
641.398	2886.27
641.598	2722.43
641.798	2597.51
641.997	3793.52
642.197	2757.25
642.397	2687.62
642.597	2624.13
642.796	3003
642.996	3021.44
643.196	2660.99
643.395	2591.36
643.595	2814.59
643.795	2396.81
643.994	2577.03
644.194	2607.75
644.394	2916.99
644.593	2910.85
644.793	2419.33
644.992	2851.46
645.192	2886.27
645.392	2361.99
645.591	2665.09
645.791	2675.33
645.99	2865.79
646.19	2806.4
646.389	2734.72
646.589	2638.47
646.788	3007.1
646.987	2982.53
647.187	2759.3
647.386	2785.92
647.586	2923.13
647.785	3005.05
647.984	2742.91
648.184	2667.14
648.383	2783.87
648.582	2759.3
648.782	2724.48
648.981	2837.12
649.18	2734.72
649.38	2980.48
649.579	2667.14
649.778	2644.61
649.977	3048.06
650.177	2902.65
650.376	2628.23
650.575	2628.23
650.774	3314.3
650.973	2718.34
651.173	2534.02
651.372	2687.62
651.571	3007.1
651.77	3242.62
651.969	2810.5
652.168	2820.74
652.367	2656.9
652.566	2957.95
652.765	2646.66
652.964	2953.85
653.163	3439.22
653.362	2970.24
653.561	2632.32
653.76	2808.45
653.959	2830.98
654.158	2972.29
654.357	3115.64
654.556	2880.13
654.755	3091.07
654.954	3148.41
655.153	2794.11
655.352	2886.27
655.551	3250.81
655.749	2835.07
655.948	2923.13
656.147	2773.63
656.346	3086.97
656.545	2888.32
656.743	2849.41
656.942	2966.14
657.141	3072.64
657.34	2796.16
657.538	2808.45
657.737	2943.61
657.936	2984.57
658.135	3166.84
658.333	2798.21
658.532	2939.52
658.731	3541.62
658.929	3209.85
659.128	3054.2
659.326	2839.17
659.525	3345.02
659.724	3003
659.922	2495.11
660.121	2701.95
660.319	3056.25
660.518	2769.54
660.716	2726.53
660.915	2779.78
661.113	3371.64
661.312	2882.17
661.51	3017.34
661.709	2734.72
661.907	3259
662.105	3541.62
662.304	2902.65
662.502	3039.87
662.701	3297.91
662.899	2933.37
663.097	3211.9
663.296	2683.52
663.494	3336.82
663.692	3437.17
663.891	2775.68
664.089	2876.03
664.287	3211.9
664.485	3428.98
664.684	2941.57
664.882	3043.96
665.08	3058.3
665.278	3154.55
665.476	2849.41
665.675	3336.82
665.873	3558
666.071	3410.55
666.269	2914.94
666.467	3129.98
666.665	3256.95
666.863	3209.85
667.061	3119.74
667.259	2990.72
667.457	3056.25
667.655	3201.66
667.853	2777.73
668.051	3033.72
668.249	3062.4
668.447	3406.45
668.645	2671.23
668.843	3097.21
669.041	3324.54
669.239	3150.46
669.437	3121.79
669.635	3136.12
669.833	3121.79
670.031	3394.17
670.229	3107.45
670.426	3029.63
670.624	3129.98
670.822	3056.25
671.02	3080.83
671.218	2908.8
671.415	3005.05
671.613	3191.42
671.811	3037.82
672.009	3115.64
672.206	3236.47
672.404	3207.8
672.602	3201.66
672.799	3093.12
672.997	3193.47
673.195	3486.33
673.392	3154.55
673.59	2916.99
673.788	3375.74
673.985	2890.37
674.183	3168.89
674.38	3054.2
674.578	3367.54
674.775	3029.63
674.973	3005.05
675.17	2892.41
675.368	3574.39
675.565	3340.92
675.763	2904.7
675.96	3009.15
676.158	3474.04
676.355	3213.95
676.553	2935.42
676.75	3029.63
676.947	3252.86
677.145	3193.47
677.342	3134.07
677.539	3162.75
677.737	3144.31
677.934	3617.4
678.131	3101.31
678.329	2931.33
678.526	3498.61
678.723	3580.53
678.92	3127.93
679.118	3039.87
679.315	2851.46
679.512	3592.82
679.709	2972.29
679.906	3084.92
680.104	3445.37
680.301	3566.2
680.498	2898.56
680.695	2943.61
680.892	2968.19
681.089	2976.38
681.286	3168.89
681.483	2878.08
681.68	3504.76
681.877	3445.37
682.075	3089.02
682.272	3273.34
682.469	3205.75
682.665	3189.37
682.862	2927.23
683.059	2763.39
683.256	3422.84
683.453	3320.44
683.65	3175.03
683.847	3101.31
684.044	3152.51
684.241	3072.64
684.438	3195.51
684.635	2937.47
684.831	3662.45
685.028	3754.61
685.225	3007.1
685.422	3132.03
685.619	3218.04
685.815	3285.62
686.012	3279.48
686.209	3011.2
686.405	2931.33
686.602	3474.04
686.799	2976.38
686.996	3000.96
687.192	2951.81
687.389	3670.64
687.586	3084.92
687.782	2982.53
687.979	3543.67
688.175	3611.25
688.372	3152.51
688.568	3023.48
688.765	3095.16
688.962	3617.4
689.158	3148.41
689.355	2937.47
689.551	3607.16
689.748	3089.02
689.944	3259
690.14	2853.5
690.337	3302.01
690.533	3113.6
690.73	3277.43
690.926	3156.6
691.123	3431.03
691.319	3244.67
691.515	2972.29
691.712	3172.99
691.908	3394.17
692.104	3433.08
692.301	3166.84
692.497	2888.32
692.693	3340.92
692.889	3455.61
693.086	3168.89
693.282	2957.95
693.478	3256.95
693.674	3754.61
693.87	3193.47
694.067	3052.16
694.263	3349.11
694.459	3283.58
694.655	3154.55
694.851	3146.36
695.047	3396.21
695.243	3512.95
695.439	3283.58
695.635	2982.53
695.831	3537.52
696.027	3220.09
696.224	3066.49
696.42	3383.93
696.615	3555.96
696.811	3486.33
697.007	2945.66
697.203	3187.32
697.399	3439.22
697.595	3637.88
697.791	2994.81
697.987	3224.19
698.183	2957.95
698.379	3281.53
698.575	3041.92
698.77	3199.61
698.966	3414.65
699.162	3494.52
699.358	3041.92
699.554	3177.08
699.749	3402.36
699.945	3506.81
700.141	3062.4
700.337	3195.51
700.532	3316.34
700.728	3009.15
700.924	3033.72
701.119	2792.06
701.315	3338.87
701.511	3209.85
701.706	3140.22
701.902	2837.12
702.097	3297.91
702.293	3521.14
702.489	3160.7
702.684	3089.02
702.88	3234.43
703.075	3172.99
703.271	3136.12
703.466	3046.01
703.662	3291.77
703.857	3373.69
704.053	3168.89
704.248	3164.79
704.443	3445.37
704.639	3420.79
704.834	3199.61
705.03	3086.97
705.225	3596.92
705.42	3545.72
705.616	3281.53
705.811	3070.59
706.006	3297.91
706.202	3060.35
706.397	3336.82
706.592	2912.89
706.787	3299.96
706.983	3252.86
707.178	3453.56
707.373	3148.41
707.568	3465.85
707.763	3598.96
707.959	3050.11
708.154	3093.12
708.349	3203.71
708.544	3418.74
708.739	3357.3
708.934	3033.72
709.129	3502.71
709.324	3537.52
709.519	3074.68
709.714	3086.97
709.909	3680.88
710.104	3494.52
710.299	3166.84
710.494	3213.95
710.689	3476.09
710.884	3345.02
711.079	3308.15
711.274	3385.98
711.469	3568.24
711.664	3408.5
711.859	3148.41
712.054	3308.15
712.249	3474.04
712.443	3564.15
712.638	3025.53
712.833	3023.48
713.028	3312.25
713.223	3361.4
713.417	3433.08
713.612	3199.61
713.807	3465.85
714.002	3910.26
714.196	3381.88
714.391	3019.39
714.586	3586.68
714.78	3318.39
714.975	3127.93
715.17	3230.33
715.364	3289.72
715.559	3492.47
715.754	2847.36
715.948	3103.36
716.143	3668.59
716.337	3398.26
716.532	3379.83
716.726	3046.01
716.921	3361.4
717.115	3697.27
717.31	2974.33
717.504	3588.72
717.699	3162.75
717.893	3568.24
718.088	3148.41
718.282	2996.86
718.476	3426.93
718.671	3332.73
718.865	3041.92
719.059	3136.12
719.254	3336.82
719.448	3574.39
719.642	4184.68
719.837	2890.37
720.031	3467.89
720.225	3627.64
720.419	3238.52
720.614	3154.55
720.808	3590.77
721.002	3277.43
721.196	3062.4
721.39	3236.47
721.585	3627.64
721.779	3504.76
721.973	3152.51
722.167	3000.96
722.361	3416.69
722.555	3435.13
722.749	3213.95
722.943	3070.59
723.137	2998.91
723.331	3363.45
723.525	3146.36
723.719	2945.66
723.913	3558
724.107	3625.59
724.301	2998.91
724.495	3211.9
724.689	3863.15
724.883	3687.03
725.077	2972.29
725.271	3017.34
725.465	3566.2
725.659	3238.52
725.853	3248.76
726.046	3093.12
726.24	3156.6
726.434	3390.07
726.628	3076.73
726.822	3099.26
727.015	3480.18
727.209	3574.39
727.403	3199.61
727.596	2955.9
727.79	3445.37
727.984	3498.61
728.177	3054.2
728.371	3195.51
728.565	3582.58
728.758	2990.72
728.952	2962.05
729.146	3132.03
729.339	3541.62
729.533	3254.9
729.726	3228.28
729.92	3175.03
730.113	3605.11
730.307	3357.3
730.5	3091.07
730.694	3009.15
730.887	3172.99
731.081	3322.49
731.274	3060.35
731.468	3113.6
731.661	3297.91
731.854	3232.38
732.048	3113.6
732.241	3056.25
732.435	3123.84
732.628	3355.26
732.821	3220.09
733.014	2835.07
733.208	3177.08
733.401	3564.15
733.594	3209.85
733.788	3185.27
733.981	3615.35
734.174	3373.69
734.367	3029.63
734.56	3357.3
734.754	3541.62
734.947	3318.39
735.14	2964.09
735.333	3129.98
735.526	3416.69
735.719	3070.59
735.912	3146.36
736.105	3095.16
736.298	3390.07
736.491	3367.54
736.684	3179.13
736.877	3021.44
737.07	3451.51
737.263	3594.87
737.456	3191.42
737.649	3052.16
737.842	3115.64
738.035	3320.44
738.228	3095.16
738.421	3381.88
738.614	3631.73
738.807	3662.45
739	2966.14
739.192	3027.58
739.385	3254.9
739.578	3598.96
739.771	3318.39
739.964	3119.74
740.156	3459.7
740.349	3299.96
740.542	3175.03
740.735	2900.61
740.927	3091.07
741.12	3132.03
741.313	3027.58
741.505	3265.14
741.698	3404.41
741.891	3457.65
742.083	3361.4
742.276	3205.75
742.468	3390.07
742.661	3312.25
742.854	3101.31
743.046	3160.7
743.239	3777.14
743.431	3220.09
743.624	2992.77
743.816	2910.85
744.009	3099.26
744.201	3312.25
744.393	3283.58
744.586	2935.42
744.778	3668.59
744.971	3326.58
745.163	3246.71
745.355	3201.66
745.548	3381.88
745.74	3228.28
745.932	3170.94
746.125	3218.04
746.317	3859.06
746.509	3404.41
746.702	3230.33
746.894	3213.95
747.086	3355.26
747.278	3549.81
747.471	3297.91
747.663	3283.58
747.855	3220.09
748.047	3707.51
748.239	3058.3
748.431	2978.43
748.623	3738.23
748.815	3586.68
749.008	3015.29
749.2	3025.53
749.392	3398.26
749.584	3379.83
749.776	3084.92
749.968	3179.13
750.16	3723.89
750.352	3240.57
750.544	3156.6
750.736	3031.68
750.928	3428.98
751.12	3295.86
751.311	3076.73
751.503	3254.9
751.695	3517.05
751.887	3410.55
752.079	2894.46
752.271	3234.43
752.463	4037.23
752.654	3535.48
752.846	3203.71
753.038	3060.35
753.23	3160.7
753.421	3465.85
753.613	3043.96
753.805	3361.4
753.997	3512.95
754.188	3455.61
754.38	3132.03
754.572	3181.18
754.763	3234.43
754.955	3322.49
755.146	3250.81
755.338	3316.34
755.53	3535.48
755.721	3259
755.913	2914.94
756.104	2910.85
756.296	3086.97
756.487	3474.04
756.679	2990.72
756.87	3056.25
757.062	3246.71
757.253	3445.37
757.445	2974.33
757.636	3277.43
757.827	3295.86
758.019	3967.6
758.21	3164.79
758.401	2998.91
758.593	3697.27
758.784	3664.5
758.975	2921.09
759.167	2857.6
759.358	3357.3
759.549	3543.67
759.74	3005.05
759.932	3009.15
760.123	3639.92
760.314	3148.41
760.505	3052.16
760.696	2904.7
760.888	3639.92
761.079	3213.95
761.27	3074.68
761.461	2916.99
761.652	3619.44
761.843	3046.01
762.034	3078.78
762.225	3383.93
762.416	3193.47
762.607	3265.14
762.798	3111.55
762.989	2888.32
763.18	4051.56
763.371	3033.72
763.562	2941.57
763.753	3021.44
763.944	3453.56
764.135	3379.83
764.326	3220.09
764.517	3017.34
764.708	3383.93
764.899	3373.69
765.089	2957.95
765.28	2865.79
765.471	3246.71
765.662	3306.1
765.853	3215.99
766.043	2955.9
766.234	3478.13
766.425	3396.21
766.615	3007.1
766.806	2822.78
766.997	3521.14
767.187	3197.56
767.378	2925.18
767.569	2824.83
767.759	3394.17
767.95	3373.69
768.141	3213.95
768.331	2902.65
768.522	3336.82
768.712	3412.6
768.903	2951.81
769.093	2949.76
769.284	3580.53
769.474	3265.14
769.665	2747.01
769.855	2763.39
770.046	3222.14
770.236	3127.93
770.426	3105.4
770.617	2767.49
770.807	3129.98
770.998	3154.55
771.188	3064.44
771.378	2943.61
771.569	3304.06
771.759	3267.19
771.949	2830.98
772.139	2579.08
772.33	3197.56
772.52	3478.13
772.71	2880.13
772.9	2886.27
773.09	3535.48
773.281	3441.27
773.471	2853.5
773.661	2892.41
773.851	3252.86
774.041	2986.62
774.231	2873.98
774.421	3021.44
774.611	3553.91
774.802	3109.5
774.992	2916.99
775.182	2701.95
775.372	2960
775.562	3209.85
775.752	2929.28
775.942	2839.17
776.131	3385.98
776.321	3191.42
776.511	2941.57
776.701	2783.87
776.891	3408.5
777.081	2837.12
777.271	2900.61
777.461	2837.12
777.651	3179.13
777.84	3381.88
778.03	3048.06
778.22	2777.73
778.41	3269.24
778.599	2818.69
778.789	2910.85
778.979	2722.43
779.169	3140.22
779.358	3099.26
779.548	3144.31
779.738	2740.86
779.927	3170.94
780.117	2824.83
780.307	2921.09
780.496	2697.86
780.686	2980.48
780.875	3375.74
781.065	2738.82
781.254	2734.72
781.444	3033.72
781.633	3091.07
781.823	2730.62
782.012	2892.41
782.202	2898.56
782.391	2884.22
782.581	2607.75
782.77	2861.69
782.96	3142.27
783.149	3052.16
783.338	2814.59
783.528	2613.89
783.717	3203.71
783.906	3254.9
784.096	2828.93
784.285	2550.4
784.474	2771.58
784.663	2820.74
784.853	2624.13
785.042	2847.36
785.231	2888.32
785.42	3246.71
785.61	2980.48
785.799	2665.09
785.988	2851.46
786.177	2935.42
786.366	2665.09
786.555	2894.46
786.744	3242.62
786.933	2919.04
787.122	2736.77
787.312	2572.93
787.501	2669.19
787.69	2990.72
787.879	2615.94
788.068	2519.68
788.257	2562.69
788.445	2876.03
788.634	2617.99
788.823	2538.12
789.012	3689.07
789.201	3097.21
789.39	2775.68
789.579	2546.31
789.768	2828.93
789.957	2906.75
790.145	2669.19
790.334	2431.62
790.523	2919.04
790.712	2900.61
790.9	2695.81
791.089	2564.74
791.278	3023.48
791.467	2839.17
791.655	2779.78
791.844	3076.73
792.033	2763.39
792.221	2716.29
792.41	2681.47
792.599	2550.4
792.787	3041.92
792.976	3152.51
793.164	2527.88
793.353	2564.74
793.541	2984.57
793.73	3025.53
793.918	2620.03
794.107	2667.14
794.295	2794.11
794.484	2892.41
794.672	2720.39
794.861	2581.12
795.049	2943.61
795.238	3297.91
795.426	2505.35
795.614	2708.1
795.803	2910.85
795.991	3170.94
796.179	2689.67
796.368	2691.71
796.556	3119.74
796.744	2558.6
796.932	2611.84
797.121	2519.68
797.309	2761.34
797.497	3031.68
797.685	2769.54
797.874	2607.75
798.062	2810.5
798.25	3060.35
798.438	2511.49
798.626	2548.36
798.814	3043.96
799.002	3480.18
799.19	2865.79
799.378	2720.39
799.566	3078.78
799.755	3132.03
799.943	2849.41
800.131	2622.08
800.318	2949.76
800.506	2923.13
800.694	2591.36
800.882	2790.02
801.07	3197.56
801.258	2757.25
801.446	2562.69
801.634	2595.46
801.822	2790.02
802.01	2871.93
802.197	2704
802.385	2755.2
802.573	2966.14
802.761	2658.95
802.949	2720.39
803.136	2464.39
803.324	3162.75
803.512	2933.37
803.699	2802.3
803.887	2468.48
804.075	3246.71
804.262	2759.3
804.45	2464.39
804.638	2697.86
804.825	2640.51
805.013	2810.5
805.201	2687.62
805.388	2683.52
805.576	2792.06
805.763	3201.66
805.951	2683.52
806.138	2925.18
806.326	3369.59
806.513	2902.65
806.701	2634.37
806.888	2620.03
807.075	3043.96
807.263	3435.13
807.45	2630.27
807.638	2779.78
807.825	3435.13
808.012	3201.66
808.2	2861.69
808.387	2873.98
808.574	2964.09
808.761	3342.97
808.949	2704
809.136	2847.36
809.323	2769.54
809.51	2923.13
809.698	3005.05
809.885	2835.07
810.072	3082.88
810.259	3193.47
810.446	2857.6
810.633	2691.71
810.82	3166.84
811.008	3308.15
811.195	3009.15
811.382	2763.39
811.569	3074.68
811.756	2640.51
811.943	2933.37
812.13	2759.3
812.317	2839.17
812.504	2923.13
812.691	2800.26
812.878	2935.42
813.064	3275.38
813.251	2960
813.438	2775.68
813.625	3031.68
813.812	3031.68
813.999	2943.61
814.186	2951.81
814.372	2677.38
814.559	3070.59
814.746	3439.22
814.933	2935.42
815.12	2960
815.306	3000.96
815.493	2775.68
815.68	2847.36
815.866	2847.36
816.053	3291.77
816.24	3596.92
816.426	2808.45
816.613	2736.77
816.799	3207.8
816.986	3392.12
817.173	2753.15
817.359	2835.07
817.546	3263.1
817.732	2675.33
817.919	2601.6
818.105	2923.13
818.292	2898.56
818.478	2945.66
818.665	2869.89
818.851	2697.86
819.037	3545.72
819.224	3129.98
819.41	2701.95
819.597	2667.14
819.783	3328.63
819.969	3132.03
820.156	2790.02
820.342	2560.64
820.528	3689.07
820.714	2882.17
820.901	3056.25
821.087	2964.09
821.273	3363.45
821.459	2994.81
821.646	2708.1
821.832	2648.71
822.018	2873.98
822.204	2939.52
822.39	2843.26
822.576	2646.66
822.762	3209.85
822.948	3025.53
823.134	2902.65
823.32	2785.92
823.507	2755.2
823.693	2972.29
823.879	3142.27
824.065	2871.93
824.25	2919.04
824.436	2802.3
824.622	2908.8
824.808	2660.99
824.994	2859.65
825.18	2636.42
825.366	2701.95
825.552	2681.47
825.738	2957.95
825.923	3017.34
826.109	3050.11
826.295	2665.09
826.481	2804.35
826.667	2880.13
826.852	2839.17
827.038	2681.47
827.224	3054.2
827.409	3328.63
827.595	2536.07
827.781	2761.34
827.966	3052.16
828.152	3177.08
828.338	2663.04
828.523	2593.41
828.709	2824.83
828.894	3150.46
829.08	2634.37
829.266	2570.88
829.451	2718.34
829.637	3091.07
829.822	2812.54
830.008	2601.6
830.193	3029.63
830.378	3246.71
830.564	2853.5
830.749	2503.3
830.935	2970.24
831.12	3103.36
831.305	2685.57
831.491	2820.74
831.676	2536.07
831.861	3074.68
832.047	2660.99
832.232	2589.32
832.417	3089.02
832.602	2943.61
832.788	2607.75
832.973	2564.74
833.158	2761.34
833.343	2839.17
833.528	2628.23
833.714	2738.82
833.899	3099.26
834.084	3256.95
834.269	2759.3
834.454	2632.32
834.639	2960
834.824	2878.08
835.009	2718.34
835.194	2923.13
835.379	2939.52
835.564	3070.59
835.749	2710.15
835.934	2560.64
836.119	3062.4
836.304	2804.35
836.489	2611.84
836.674	2802.3
836.859	2630.27
837.044	2970.24
837.228	2550.4
837.413	2554.5
837.598	2939.52
837.783	3121.79
837.968	2548.36
838.152	2529.92
838.337	2411.14
838.522	2990.72
838.707	3080.83
838.891	2792.06
839.076	2935.42
839.261	2945.66
839.445	2697.86
839.63	2740.86
839.815	3197.56
839.999	2628.23
840.184	2486.92
840.368	2611.84
840.553	3019.39
840.737	3037.82
840.922	2515.59
841.106	2454.15
841.291	2572.93
841.475	2839.17
841.66	2609.79
841.844	2566.79
842.029	3469.94
842.213	2646.66
842.397	2572.93
842.582	2400.9
842.766	3039.87
842.951	2822.78
843.135	2525.83
843.319	2579.08
843.504	2806.4
843.688	2890.37
843.872	2374.28
844.056	2419.33
844.241	2955.9
844.425	2630.27
844.609	2732.67
844.793	2273.93
844.977	3011.2
845.161	2720.39
845.346	2486.92
845.53	2599.56
845.714	2718.34
845.898	3009.15
846.082	2302.6
846.266	2409.09
846.45	2730.62
846.634	2841.22
846.818	2556.55
847.002	2701.95
847.186	2857.6
847.37	2343.56
847.554	2472.58
847.738	2658.95
847.922	2785.92
848.106	2775.68
848.29	2472.58
848.473	2361.99
848.657	2855.55
848.841	2624.13
849.025	2458.25
849.209	2204.3
849.392	2699.91
849.576	2482.82
849.76	2054.8
849.944	2646.66
850.127	2923.13
850.311	2286.22
850.495	2325.13
850.678	2237.06
850.862	2962.05
851.046	2953.85
851.229	2667.14
851.413	2310.79
851.596	2687.62
851.78	2538.12
851.964	2499.2
852.147	2464.39
852.331	3259
852.514	2955.9
852.698	2603.65
852.881	2271.88
853.065	2902.65
853.248	2574.98
853.431	2482.82
853.615	2574.98
853.798	3222.14
853.982	2730.62
854.165	2607.75
854.348	2312.84
854.532	2372.23
854.715	2458.25
854.898	2392.71
855.081	2351.75
855.265	2880.13
855.448	2966.14
855.631	2386.57
855.814	2380.42
855.997	2747.01
856.181	2554.5
856.364	2327.18
856.547	2255.5
856.73	2644.61
856.913	2587.27
857.096	2218.63
857.279	2398.85
857.462	2452.1
857.645	2812.54
857.828	2476.68
858.011	2345.61
858.194	2427.53
858.377	2925.18
858.56	2183.82
858.743	2390.66
858.926	2411.14
859.109	2685.57
859.292	2323.08
859.475	2323.08
859.658	2890.37
859.841	2609.79
860.023	2138.76
860.206	2275.98
860.389	2687.62
860.572	2970.24
860.755	2230.92
860.937	2427.53
861.12	2497.16
861.303	2462.34
861.486	2378.37
861.668	2335.37
861.851	2736.77
862.034	2482.82
862.216	2339.46
862.399	2120.33
862.581	2521.73
862.764	2865.79
862.947	2341.51
863.129	2249.35
863.312	2271.88
863.494	2880.13
863.677	2523.78
863.859	2038.41
864.042	2736.77
864.224	2910.85
864.406	2390.66
864.589	2171.53
864.771	2554.5
864.954	2222.73
865.136	2230.92
865.318	2071.18
865.501	2687.62
865.683	2073.23
865.865	2280.07
866.048	2237.06
866.23	2488.96
866.412	2472.58
866.594	1991.31
866.777	2325.13
866.959	2693.76
867.141	2292.36
867.323	2427.53
867.505	2396.81
867.687	2386.57
867.869	2400.9
868.052	2327.18
868.234	2105.99
868.416	2517.64
868.598	2488.96
868.78	2194.06
868.962	2065.04
869.144	2712.19
869.326	2675.33
869.508	2103.95
869.69	2159.24
869.872	2183.82
870.054	2501.25
870.236	2017.93
870.417	2050.7
870.599	2232.97
870.781	2820.74
870.963	2251.4
871.145	1970.83
871.327	2099.85
871.508	2589.32
871.69	2130.57
871.872	2247.3
872.054	2431.62
872.235	2554.5
872.417	2165.39
872.599	2028.17
872.78	2851.46
872.962	2314.89
873.144	2040.46
873.325	2110.09
873.507	2824.83
873.689	2577.03
873.87	1956.49
874.052	2220.68
874.233	2263.69
874.415	2574.98
874.596	2140.81
874.778	2218.63
874.959	2450.05
875.141	2517.64
875.322	2278.02
875.503	1983.12
875.685	2544.26
875.866	2046.6
876.048	2198.15
876.229	2028.17
876.41	2353.8
876.592	2443.91
876.773	2052.75
876.954	2044.56
877.136	2669.19
877.317	2163.34
877.498	1929.87
877.679	2151.05
877.86	2495.11
878.042	2366.09
878.223	2144.91
878.404	2421.38
878.585	2572.93
878.766	2792.06
878.947	2386.57
879.128	2267.78
879.309	2632.32
879.49	2552.45
879.672	2200.2
879.853	2167.43
880.034	2288.26
880.215	2417.29
880.396	2445.96
880.576	2075.27
880.757	2243.21
880.938	2794.11
881.119	2218.63
881.3	2200.2
881.481	2419.33
881.662	3222.14
881.843	2202.25
882.023	2034.32
882.204	2357.89
882.385	2409.09
882.566	2136.71
882.747	2357.89
882.927	2452.1
883.108	2542.21
883.289	2075.27
883.469	2421.38
883.65	2265.74
883.831	2456.2
884.011	2427.53
884.192	2220.68
884.373	2704
884.553	2519.68
884.734	2380.42
884.914	2558.6
885.095	3279.48
885.275	2923.13
885.456	2695.81
885.636	2187.91
885.817	2359.94
885.997	2579.08
886.178	2288.26
886.358	2402.95
886.538	2609.79
886.719	3459.7
886.899	2429.57
887.08	2364.04
887.26	2859.65
887.44	2347.65
887.621	2226.82
887.801	2407.05
887.981	2992.77
888.161	2730.62
888.342	2415.24
888.522	2314.89
888.702	2810.5
888.882	2771.58
889.062	2517.64
889.242	2122.38
889.423	2916.99
889.603	2728.58
889.783	2435.72
889.963	2304.65
890.143	2894.46
890.323	2890.37
890.503	2282.12
890.683	2396.81
890.863	2620.03
891.043	2710.15
891.223	2466.44
891.403	2476.68
891.583	2697.86
891.763	2556.55
891.943	2583.17
892.122	2351.75
892.302	2460.29
892.482	2636.42
892.662	2536.07
892.842	2306.7
893.022	2679.43
893.201	2462.34
893.381	2605.7
893.561	2257.54
893.741	2714.24
893.92	2747.01
894.1	2622.08
894.28	2497.16
894.459	2849.41
894.639	2681.47
894.819	2271.88
894.998	2544.26
895.178	2644.61
895.357	2603.65
895.537	2480.77
895.716	2331.27
895.896	2605.7
896.075	2802.3
896.255	2407.05
896.434	2212.49
896.614	2796.16
896.793	3066.49
896.973	2595.46
897.152	2427.53
897.331	2708.1
897.511	2800.26
897.69	2392.71
897.87	2441.86
898.049	2851.46
898.228	2607.75
898.407	2697.86
898.587	2587.27
898.766	2491.01
898.945	2871.93
899.124	2574.98
899.304	2488.96
899.483	2724.48
899.662	2925.18
899.841	2405
900.02	2497.16
900.199	2919.04
900.378	2527.88
900.557	2273.93
900.737	2341.51
900.916	2654.85
901.095	2892.41
901.274	2693.76
901.453	2212.49
901.632	2417.29
901.811	2353.8
901.989	2310.79
902.168	2339.46
902.347	2792.06
902.526	2464.39
902.705	2378.37
902.884	2484.87
903.063	2873.98
903.242	2841.22
903.42	2329.22
903.599	2468.48
903.778	2773.63
903.957	2908.8
904.135	2400.9
904.314	2429.57
904.493	2517.64
904.672	2712.19
904.85	2405
905.029	2353.8
905.207	2632.32
905.386	3340.92
905.565	2185.87
905.743	2400.9
905.922	2456.2
906.1	2878.08
906.279	2218.63
906.457	2265.74
906.636	2333.32
906.814	2519.68
906.993	2267.78
907.171	2374.28
907.35	2640.51
907.528	2769.54
907.707	2538.12
907.885	2286.22
908.063	2796.16
908.242	2259.59
908.42	2300.55
908.598	2112.14
908.777	2550.4
908.955	2431.62
909.133	2304.65
909.311	2122.38
909.49	2411.14
909.668	2445.96
909.846	2253.45
910.024	2112.14
910.202	2462.34
910.38	2562.69
910.559	2200.2
910.737	2101.9
910.915	2538.12
911.093	2620.03
911.271	2146.95
911.449	2505.35
911.627	2437.77
911.805	2953.85
911.983	2273.93
912.161	2189.96
912.339	2605.7
912.517	2714.24
912.695	2323.08
912.872	2206.35
913.05	2165.39
913.228	2480.77
913.406	2077.32
913.584	2124.43
913.762	2587.27
913.939	2280.07
914.117	2083.47
914.295	1989.26
914.473	2478.72
914.65	2472.58
914.828	2214.54
915.006	2046.6
915.184	2089.61
915.361	2382.47
915.539	2261.64
915.716	2298.5
915.894	2405
916.072	2558.6
916.249	2214.54
916.427	2296.46
916.604	1962.64
916.782	2425.48
916.959	1921.68
917.137	2116.23
917.314	2378.37
917.492	2462.34
917.669	2114.19
917.847	2208.39
918.024	2343.56
918.201	2085.51
918.379	2026.12
918.556	2050.7
918.733	2460.29
918.911	2239.11
919.088	2247.3
919.265	1919.63
919.442	2316.94
919.62	2134.67
919.797	1925.77
919.974	1952.4
920.151	2218.63
920.328	2091.66
920.506	1780.37
920.683	2040.46
920.86	2034.32
921.037	1979.02
921.214	2089.61
921.391	1899.15
921.568	2357.89
921.745	1979.02
921.922	1899.15
922.099	1845.9
922.276	2439.81
922.453	2194.06
922.63	1876.62
922.807	2138.76
922.984	2146.95
923.161	2001.55
923.338	1944.2
923.514	1778.32
923.691	2042.51
923.868	2091.66
924.045	1847.95
924.222	1755.79
924.399	2030.22
924.575	2196.11
924.752	1940.11
924.929	1854.09
925.105	2073.23
925.282	1942.16
925.459	1739.41
925.635	1813.14
925.812	1979.02
925.989	1786.51
926.165	1944.2
926.342	1587.86
926.518	1763.98
926.695	1768.08
926.871	1579.67
927.048	1680.02
927.224	2118.28
927.401	1866.38
927.577	1925.77
927.754	1698.45
927.93	2241.16
928.107	2087.56
928.283	1671.83
928.459	1845.9
928.636	2050.7
928.812	1956.49
928.988	1559.19
929.165	1559.19
929.341	1823.37
929.517	1964.68
929.693	1862.29
929.87	1411.73
930.046	2009.74
930.222	1878.67
930.398	1604.24
930.574	1714.83
930.751	1876.62
930.927	1649.3
931.103	1671.83
931.279	1655.44
931.455	1645.2
931.631	1796.75
931.807	1409.69
931.983	1522.32
932.159	1516.18
932.335	1915.53
932.511	1594
932.687	1559.19
932.863	1800.85
933.039	1686.16
933.215	1383.06
933.391	1360.53
933.566	1634.96
933.742	1669.78
933.918	1534.61
934.094	1374.87
934.27	1725.07
934.445	1663.63
934.621	1643.15
934.797	1413.78
934.973	1841.81
935.148	1751.7
935.324	1249.94
935.5	1151.64
935.675	1759.89
935.851	1639.06
936.027	1346.2
936.202	1467.03
936.378	1571.47
936.553	1481.36
936.729	1739.41
936.904	1194.65
937.08	1159.83
937.255	1266.33
937.431	979.61
937.606	1049.24
937.782	1223.32
937.957	1292.95
938.133	1215.13
938.308	1125.02
938.483	1233.56
938.659	1063.58
938.834	1202.84
939.009	1026.72
939.185	1190.55
939.36	981.66
939.535	744.1
939.71	1039
939.886	1426.07
940.061	1333.91
940.236	1131.16
940.411	993.95
940.586	1112.73
940.761	1243.8
940.937	858.78
941.112	764.58
941.287	1094.3
941.462	1151.64
941.637	768.67
941.812	909.98
941.987	1077.91
942.162	959.13
942.337	991.9
942.512	811.68
942.687	1237.66
942.862	1190.55
943.037	711.33
943.212	567.97
943.386	996
943.561	1049.24
943.736	996
943.911	1063.58
944.086	1139.35
944.26	1041.05
944.435	799.39
944.61	834.21
944.785	1311.38
944.959	1321.62
945.134	772.77
945.309	664.22
945.483	807.58
945.658	1211.03
945.833	633.51
946.007	594.59
946.182	1235.61
946.357	774.81
946.531	617.12
946.706	703.14
946.88	531.11
947.055	1002.14
947.229	729.76
947.404	674.46
947.578	1139.35
947.752	846.49
947.927	664.22
948.101	496.29
948.276	936.6
948.45	977.56
948.624	793.25
948.799	635.55
948.973	979.61
949.147	684.7
949.321	918.17
949.496	635.55
949.67	1143.45
949.844	854.69
950.018	778.91
950.193	729.76
950.367	1481.36
950.541	778.91
950.715	840.35
950.889	852.64
951.063	860.83
951.237	1106.59
951.411	451.24
951.585	514.72
951.759	971.42
951.933	883.36
952.107	692.9
952.281	848.54
952.455	1415.83
952.629	1053.34
952.803	664.22
952.977	647.84
953.151	1094.3
953.325	991.9
953.499	801.44
953.672	602.79
953.846	768.67
954.02	780.96
954.194	543.39
954.368	676.51
954.541	1045.15
954.715	680.61
954.889	801.44
955.062	619.17
955.236	967.32
955.41	848.54
955.583	774.81
955.757	535.2
955.93	801.44
956.104	690.85
956.278	744.1
956.451	682.66
956.625	928.41
956.798	1376.92
956.972	940.7
957.145	623.27
957.319	942.75
957.492	840.35
957.665	707.23
957.839	621.22
958.012	1000.09
958.185	842.4
958.359	746.14
958.532	791.2
958.705	1022.62
958.879	907.93
959.052	717.47
959.225	457.38
959.398	883.36
959.572	916.12
959.745	715.42
959.918	680.61
960.091	742.05
960.264	1073.82
960.438	553.63
960.611	637.6
960.784	1055.39
960.957	678.56
961.13	1059.48
961.303	580.26
961.476	895.64
961.649	1092.25
961.822	578.21
961.995	656.03
962.168	1034.91
962.341	916.12
962.514	703.14
962.686	547.49
962.859	885.41
963.032	998.04
963.205	629.41
963.378	502.43
963.551	903.84
963.723	895.64
963.896	887.45
964.069	862.88
964.242	864.93
964.414	948.89
964.587	656.03
964.76	748.19
964.932	926.36
965.105	856.73
965.278	629.41
965.45	651.94
965.623	893.6
965.795	899.74
965.968	658.08
966.14	598.69
966.313	762.53
966.485	858.78
966.658	686.75
966.83	565.92
967.003	1057.43
967.175	1133.21
967.348	631.46
967.52	658.08
967.692	1090.2
967.865	998.04
968.037	580.26
968.209	899.74
968.382	789.15
968.554	1000.09
968.726	696.99
968.898	541.35
969.071	823.97
969.243	860.83
969.415	662.18
969.587	608.93
969.759	1327.77
969.932	1100.44
970.104	565.92
970.276	375.46
970.448	688.8
970.62	615.07
970.792	694.94
970.964	707.23
971.136	1245.85
971.308	938.65
971.48	570.02
971.652	580.26
971.824	1073.82
971.996	723.62
972.168	658.08
972.339	756.38
972.511	1110.68
972.683	783.01
972.855	797.34
973.027	699.04
973.199	848.54
973.37	1071.77
973.542	778.91
973.714	776.86
973.886	852.64
974.057	1102.49
974.229	471.72
974.401	510.63
974.572	596.64
974.744	301.73
974.915	506.53
975.087	604.83
975.259	1163.93
975.43	621.22
975.602	631.46
975.773	475.81
975.945	563.87
976.116	828.06
976.288	488.1
976.459	731.81
976.63	649.89
976.802	907.93
976.973	639.65
977.145	807.58
977.316	1190.55
977.487	1022.62
977.659	709.28
977.83	629.41
978.001	1186.46
978.172	803.49
978.344	559.78
978.515	586.4
978.686	656.03
978.857	1006.24
979.028	524.96
979.2	561.83
979.371	975.52
979.542	776.86
979.713	658.08
979.884	203.43
980.055	596.64
980.226	664.22
980.397	443.04
980.568	359.08
980.739	973.47
980.91	674.46
981.081	649.89
981.252	375.46
981.423	899.74
981.594	983.71
981.765	391.84
981.936	610.98
982.106	780.96
982.277	1014.43
982.448	498.34
982.619	674.46
982.79	686.75
982.96	975.52
983.131	576.16
983.302	420.52
983.472	713.38
983.643	828.06
983.814	649.89
983.984	475.81
984.155	647.84
984.326	891.55
984.496	588.45
984.667	459.43
984.837	639.65
985.008	985.76
985.178	653.98
985.349	537.25
985.519	680.61
985.69	498.34
985.86	531.11
986.031	475.81
986.201	795.29
986.371	776.86
986.542	383.65
986.712	279.21
986.882	852.64
987.053	740
987.223	424.61
987.393	740
987.563	524.96
987.734	756.38
987.904	752.29
988.074	465.57
988.244	694.94
988.414	557.73
988.585	412.32
988.755	582.31
988.925	572.07
989.095	1110.68
989.265	371.37
989.435	477.86
989.605	807.58
989.775	823.97
989.945	713.38
990.115	340.65
990.285	670.37
990.455	690.85
990.625	506.53
990.795	412.32
990.965	1041.05
991.134	416.42
991.304	471.72
991.474	459.43
991.644	740
991.814	940.7
991.984	342.69
992.153	430.76
992.323	682.66
992.493	658.08
992.662	279.21
992.832	535.2
993.002	666.27
993.171	664.22
993.341	244.39
993.511	576.16
993.68	453.28
993.85	823.97
994.019	133.8
994.189	275.11
994.358	694.94
994.528	481.96
994.697	98.99
994.867	258.73
995.036	852.64
995.206	512.67
995.375	297.64
995.544	500.39
995.714	764.58
995.883	551.59
996.052	596.64
996.222	266.92
996.391	1178.26
996.56	602.79
996.73	266.92
996.899	176.81
997.068	926.36
997.237	668.32
997.406	223.91
997.576	189.1
997.745	633.51
997.914	729.76
998.083	178.86
998.252	410.28
998.421	563.87
998.59	510.63
998.759	207.53
998.928	182.95
999.097	830.11
999.266	653.98
999.435	428.71
999.604	101.03
999.773	1084.06
999.942	451.24
1000.111	215.72
1000.28	17.07
1000.448	271.01
1000.617	414.37
1000.786	486.05
1000.955	172.71
1001.124	559.78
1001.292	1215.13
1001.461	268.97
1001.63	275.11
1001.798	975.52
1001.967	912.03
1002.136	109.22
1002.304	195.24
1002.473	613.03
1002.642	531.11
1002.81	408.23
1002.979	316.07
1003.147	680.61
1003.316	1096.35
1003.484	330.41
1003.653	195.24
1003.821	799.39
1003.99	428.71
1004.158	348.84
1004.327	297.64
1004.495	606.88
1004.663	268.97
1004.832	393.89
1005	90.79
1005.168	701.09
1005.337	475.81
1005.505	144.04
1005.673	371.37
1005.842	531.11
1006.01	670.37
1006.178	197.29
1006.346	219.82
1006.514	588.45
1006.683	750.24
1006.851	178.86
1007.019	98.99
1007.187	195.24
1007.355	158.38
1007.523	-32.08
1007.691	166.57
1007.859	156.33
1008.027	795.29
1008.195	244.39
1008.363	86.7
1008.531	570.02
1008.699	336.55
1008.867	58.03
1009.035	203.43
1009.203	696.99
1009.37	518.82
1009.538	244.39
1009.706	570.02
1009.874	461.48
1010.042	428.71
1010.209	58.03
1010.377	135.85
1010.545	723.62
1010.713	412.32
1010.88	29.35
1011.048	260.77
1011.216	352.93
1011.383	744.1
1011.551	90.79
1011.718	29.35
1011.886	641.7
1012.054	449.19
1012.221	160.42
1012.389	74.41
1012.556	397.99
1012.724	842.4
1012.891	189.1
1013.058	-7.51
1013.226	549.54
1013.393	584.35
1013.561	160.42
1013.728	33.45
1013.895	606.88
1014.063	510.63
1014.23	45.74
1014.397	51.88
1014.565	574.11
1014.732	332.45
1014.899	33.45
1015.066	-1.37
1015.233	469.67
1015.401	586.4
1015.568	150.18
1015.735	225.96
1015.902	498.34
1016.069	623.27
1016.236	164.52
1016.403	-5.46
1016.57	191.14
1016.737	545.44
1016.904	162.47
1017.071	31.4
1017.238	328.36
1017.405	518.82
1017.572	96.94
1017.739	242.34
1017.906	479.91
1018.073	604.83
1018.24	39.59
1018.407	111.27
1018.573	643.74
1018.74	285.35
1018.907	141.99
1019.074	-9.56
1019.241	633.51
1019.407	410.28
1019.574	62.12
1019.741	-56.66
1019.907	416.42
1020.074	441
1020.241	-109.91
1020.407	-30.04
1020.574	481.96
1020.74	516.77
1020.907	144.04
1021.073	-13.65
1021.24	1022.62
1021.406	699.04
1021.573	-30.04
1021.739	160.42
1021.906	535.2
1022.072	307.88
1022.239	82.6
1022.405	121.51
1022.571	389.8
1022.738	152.23
1022.904	64.17
1023.07	88.75
1023.237	357.03
1023.403	629.41
1023.569	6.83
1023.735	66.22
1023.902	514.72
1024.068	426.66
1024.234	-30.04
1024.4	103.08
1024.566	461.48
1024.732	551.59
1024.898	-30.04
1025.065	6.83
1025.231	518.82
1025.397	268.97
1025.563	-48.47
1025.729	-19.8
1025.895	-38.23
1026.061	105.13
1026.227	-126.29
1026.392	49.83
1026.558	561.83
1026.724	520.87
1026.89	-27.99
1027.056	117.42
1027.222	402.08
1027.388	215.72
1027.553	37.55
1027.719	-93.52
1027.885	756.38
1028.051	451.24
1028.216	-154.96
1028.382	12.97
1028.548	518.82
1028.713	260.77
1028.879	-167.25
1029.045	137.9
1029.21	625.31
1029.376	502.43
1029.541	62.12
1029.707	66.22
1029.873	475.81
1030.038	555.68
1030.204	-50.52
1030.369	72.36
1030.534	570.02
1030.7	303.78
1030.865	121.51
1031.031	-17.75
1031.196	410.28
1031.361	352.93
1031.527	-25.94
1031.692	-132.44
1031.857	-103.76
1032.023	395.94
1032.188	-116.05
1032.353	62.12
1032.518	658.08
1032.684	338.6
1032.849	-99.67
1033.014	68.27
1033.179	500.39
1033.344	479.91
1033.509	113.32
1033.674	-17.75
1033.839	469.67
1034.004	486.05
1034.17	25.26
1034.335	-81.24
1034.5	252.58
1034.664	187.05
1034.829	-85.33
1034.994	-7.51
1035.159	510.63
1035.324	443.04
1035.489	58.03
1035.654	-73.04
1035.819	680.61
1035.984	410.28
1036.148	119.46
1036.313	-21.84
1036.478	449.19
1036.643	326.31
1036.807	-71
1036.972	-116.05
1037.137	668.32
1037.301	334.5
1037.466	-187.73
1037.631	88.75
1037.795	586.4
1037.96	406.18
1038.124	113.32
1038.289	-89.43
1038.454	488.1
1038.618	510.63
1038.783	-30.04
1038.947	66.22
1039.111	365.22
1039.276	193.19
1039.44	35.5
1039.605	418.47
1039.769	219.82
1039.933	277.16
1040.098	66.22
1040.262	172.71
1040.426	486.05
1040.591	365.22
1040.755	-75.09
1040.919	-60.76
1041.083	438.95
1041.248	293.54
1041.412	-193.87
1041.576	-136.53
1041.74	154.28
1041.904	469.67
1042.068	-111.96
1042.232	101.03
1042.397	438.95
1042.561	404.13
1042.725	-259.41
1042.889	144.04
1043.053	422.56
1043.217	404.13
1043.381	88.75
1043.544	-128.34
1043.708	653.98
1043.872	45.74
1044.036	-300.37
1044.2	-87.38
1044.364	606.88
1044.528	721.57
1044.691	4407.91
1044.855	-132.44
1045.019	471.72
1045.183	457.38
1045.346	-17.75
1045.51	-93.52
1045.674	371.37
1045.837	559.78
1046.001	-97.62
1046.165	-13.65
1046.328	832.16
1046.492	471.72
1046.655	158.38
1046.819	70.31
1046.983	133.8
1047.146	490.15
1047.31	137.9
1047.473	-189.78
1047.636	293.54
1047.8	148.14
1047.963	-32.08
1048.127	-128.34
1048.29	117.42
