Data from Ink_Intensity_USB4F045381__126__00126.txt Node

Date: Mon Jul 17 11:18:17 EDT 2023
User: mmckonesweet
Spectrometer: USB4F04538
Trigger mode: 4
Integration Time (sec): 9.000000E-1
Scans to average: 1
Electric dark correction enabled: true
Nonlinearity correction enabled: false
Boxcar width: 0
XAxis mode: Wavelengths
Number of Pixels in Spectrum: 3648
>>>>>Begin Spectral Data<<<<<
345.52	-1012.55
345.736	-1012.55
345.952	-1012.55
346.168	-998.21
346.384	-1024.84
346.6	-185.17
346.816	-238.42
347.032	-195.41
347.248	292.01
347.464	-183.12
347.68	-170.83
347.896	142.5
348.112	404.64
348.328	-41.81
348.544	-95.06
348.76	23.72
348.975	246.95
349.191	-240.47
349.407	-226.13
349.623	68.78
349.839	-97.11
350.055	-117.59
350.27	7.34
350.486	158.89
350.702	320.68
350.918	244.9
351.133	-207.7
351.349	97.45
351.565	435.36
351.781	-275.28
351.996	-29.52
352.212	388.26
352.428	-269.14
352.644	-238.42
352.859	-213.84
353.075	214.18
353.291	7.34
353.506	-158.55
353.722	-254.8
353.938	-111.44
354.153	449.7
354.369	117.93
354.584	-203.6
354.8	156.84
355.016	-291.66
355.231	-291.66
355.447	-13.14
355.662	162.98
355.878	865.44
356.093	-381.78
356.309	-43.86
356.524	-258.9
356.74	259.24
356.955	-262.99
357.171	-15.19
357.386	144.55
357.602	-301.9
357.817	-123.73
358.033	-201.55
358.248	246.95
358.464	169.13
358.679	-111.44
358.895	-377.68
359.11	-82.77
359.325	279.72
359.541	38.06
359.756	-45.91
359.972	-279.38
360.187	87.21
360.402	-217.94
360.618	-205.65
360.833	1016.99
361.048	162.98
361.264	-172.88
361.479	-50
361.694	-56.15
361.909	138.41
362.125	-258.9
362.34	-93.01
362.555	285.86
362.77	46.25
362.986	-344.91
363.201	-136.02
363.416	146.6
363.631	9.39
363.847	-295.76
364.062	-285.52
364.277	167.08
364.492	124.07
364.707	-146.26
364.922	-355.15
365.138	257.19
365.353	345.25
365.568	-312.14
365.783	-111.44
365.998	136.36
366.213	535.71
366.428	-199.51
366.643	-17.24
366.858	240.81
367.073	171.18
367.288	-174.93
367.503	-336.72
367.718	134.31
367.933	281.77
368.148	-293.71
368.363	-33.62
368.578	-47.96
368.793	433.32
369.008	-201.55
369.223	-303.95
369.438	195.75
369.653	275.62
369.868	-283.47
370.083	-299.86
370.298	101.55
370.513	445.6
370.728	-39.76
370.943	-238.42
371.157	-209.75
371.372	566.43
371.587	-283.47
371.802	-297.81
372.017	48.3
372.232	470.18
372.446	-15.19
372.661	-287.57
372.876	187.56
373.091	195.75
373.306	-123.73
373.52	-308.05
373.735	-265.04
373.95	388.26
374.165	-219.99
374.379	-156.5
374.594	-195.41
374.809	52.39
375.023	9.39
375.238	-301.9
375.453	281.77
375.667	-353.1
375.882	-111.44
376.097	-316.24
376.311	-11.09
376.526	76.97
376.741	-258.9
376.955	107.69
377.17	507.04
377.384	476.32
377.599	-37.72
377.813	-273.23
378.028	646.3
378.242	124.07
378.457	-101.2
378.672	-447.31
378.886	56.49
379.101	-99.16
379.315	-353.1
379.53	-213.84
379.744	230.57
379.958	113.83
380.173	-213.84
380.387	-238.42
380.602	132.26
380.816	-109.4
381.031	-185.17
381.245	-144.21
381.459	117.93
381.674	2587.78
381.888	-254.8
382.103	52.39
382.317	-262.99
382.531	404.64
382.746	-86.87
382.96	-252.75
383.174	-111.44
383.388	382.12
383.603	68.78
383.817	-377.68
384.031	146.6
384.246	478.37
384.46	-2.9
384.674	314.53
384.888	-29.52
385.103	111.78
385.317	-371.54
385.531	-31.57
385.745	304.29
385.959	249
386.174	-297.81
386.388	-303.95
386.602	-41.81
386.816	-82.77
387.03	-172.88
387.244	-203.6
387.458	25.77
387.672	310.44
387.887	-349.01
388.101	-332.62
388.315	294.05
388.529	105.64
388.743	-115.54
388.957	-269.14
389.171	292.01
389.385	-185.17
389.599	-164.69
389.813	-41.81
390.027	255.14
390.241	650.4
390.455	-181.07
390.669	-140.12
390.883	-160.59
391.097	351.4
391.311	13.48
391.525	-164.69
391.738	203.94
391.952	109.74
392.166	-101.2
392.38	-277.33
392.594	189.61
392.808	345.25
393.022	-82.77
393.236	-103.25
393.449	228.52
393.663	136.36
393.877	-262.99
394.091	-138.07
394.305	-45.91
394.518	-146.26
394.732	-316.24
394.946	-187.22
395.16	418.98
395.373	72.87
395.587	-275.28
395.801	-228.18
396.015	171.18
396.228	85.16
396.442	-297.81
396.656	-371.54
396.869	304.29
397.083	421.03
397.297	-45.91
397.51	-189.27
397.724	302.25
397.938	109.74
398.151	-353.1
398.365	-338.77
398.578	171.18
398.792	392.36
399.005	-33.62
399.219	-144.21
399.433	68.78
399.646	142.5
399.86	29.87
400.073	-97.11
400.287	117.93
400.5	-33.62
400.714	-27.48
400.927	-62.29
401.141	199.85
401.354	1029.27
401.567	179.37
401.781	-361.3
401.994	234.66
402.208	642.21
402.421	-148.31
402.635	-27.48
402.848	1.19
403.061	281.77
403.275	-107.35
403.488	-324.43
403.701	414.88
403.915	232.62
404.128	25.77
404.341	-103.25
404.555	156.84
404.768	-66.39
404.981	7.34
405.195	-242.51
405.408	451.75
405.621	210.09
405.834	91.31
406.048	-197.46
406.261	320.68
406.474	427.17
406.687	-152.4
406.9	-39.76
407.114	31.91
407.327	185.51
407.54	-306
407.753	-334.67
407.966	-86.87
408.179	181.42
408.392	-267.09
408.605	-269.14
408.819	122.02
409.032	148.65
409.245	-258.9
409.458	126.12
409.671	212.14
409.884	273.57
410.097	-303.95
410.31	-43.86
410.523	203.94
410.736	-56.15
410.949	-80.72
411.162	-201.55
411.375	404.64
411.588	220.33
411.801	52.39
412.014	-316.24
412.227	44.2
412.44	-66.39
412.653	-217.94
412.865	-0.85
413.078	179.37
413.291	193.7
413.504	-111.44
413.717	-252.75
413.93	150.7
414.143	-197.46
414.356	-80.72
414.568	-369.49
414.781	222.38
414.994	60.59
415.207	-88.92
415.42	-119.64
415.632	179.37
415.845	468.13
416.058	-340.82
416.271	-369.49
416.483	7.34
416.696	531.62
416.909	-205.65
417.121	-262.99
417.334	154.79
417.547	533.67
417.759	-293.71
417.972	-277.33
418.185	-121.68
418.397	212.14
418.61	-164.69
418.823	-187.22
419.035	416.93
419.248	60.59
419.46	-31.57
419.673	-105.3
419.885	101.55
420.098	-35.67
420.311	-193.36
420.523	-408.4
420.736	189.61
420.948	113.83
421.161	-246.61
421.373	-377.68
421.586	122.02
421.798	-90.96
422.01	-406.35
422.223	-43.86
422.435	-17.24
422.648	244.9
422.86	-252.75
423.073	-207.7
423.285	193.7
423.497	-236.37
423.71	-303.95
423.922	-197.46
424.134	85.16
424.347	392.36
424.559	-70.48
424.771	138.41
424.984	-60.24
425.196	191.66
425.408	-400.21
425.621	-262.99
425.833	220.33
426.045	330.92
426.257	-242.51
426.47	-213.84
426.682	185.51
426.894	117.93
427.106	-152.4
427.318	-156.5
427.531	-160.59
427.743	208.04
427.955	-131.92
428.167	240.81
428.379	107.69
428.591	-41.81
428.804	-176.98
429.016	-332.62
429.228	-97.11
429.44	132.26
429.652	54.44
429.864	-293.71
430.076	-117.59
430.288	15.53
430.5	-127.83
430.712	-129.88
430.924	185.51
431.136	122.02
431.348	-332.62
431.56	-308.05
431.772	19.63
431.984	-52.05
432.196	-275.28
432.408	-230.23
432.62	-58.2
432.832	124.07
433.044	83.11
433.256	-54.1
433.468	205.99
433.679	-236.37
433.891	-338.77
434.103	-25.43
434.315	359.59
434.527	246.95
434.739	-72.53
434.95	-209.75
435.162	193.7
435.374	-197.46
435.586	-234.32
435.798	-262.99
436.009	-349.01
436.221	-115.54
436.433	-215.89
436.645	-217.94
436.856	-156.5
437.068	328.87
437.28	-211.79
437.491	50.35
437.703	150.7
437.915	134.31
438.126	-174.93
438.338	50.35
438.55	-109.4
438.761	122.02
438.973	-181.07
439.184	-185.17
439.396	-4.95
439.608	228.52
439.819	-342.86
440.031	-103.25
440.242	310.44
440.454	212.14
440.665	-193.36
440.877	-121.68
441.088	122.02
441.3	-82.77
441.511	-385.87
441.723	-295.76
441.934	187.56
442.146	-33.62
442.357	-25.43
442.569	113.83
442.78	-0.85
442.991	464.04
443.203	81.07
443.414	-369.49
443.626	388.26
443.837	-191.31
444.048	-228.18
444.26	-357.2
444.471	-19.29
444.682	162.98
444.894	-428.88
445.105	-312.14
445.316	228.52
445.528	171.18
445.739	-164.69
445.95	-197.46
446.161	89.26
446.373	285.86
446.584	-174.93
446.795	-303.95
447.006	189.61
447.217	418.98
447.429	-404.3
447.64	-355.15
447.851	292.01
448.062	36.01
448.273	-332.62
448.484	-306
448.695	93.35
448.907	-0.85
449.118	-115.54
449.329	44.2
449.54	-78.68
449.751	-215.89
449.962	-248.66
450.173	-283.47
450.384	289.96
450.595	244.9
450.806	-234.32
451.017	-260.95
451.228	359.59
451.439	287.91
451.65	-213.84
451.861	-449.36
452.072	-195.41
452.283	64.68
452.494	-72.53
452.705	-201.55
452.915	441.51
453.126	111.78
453.337	-131.92
453.548	-197.46
453.759	345.25
453.97	523.43
454.181	122.02
454.391	-205.65
454.602	29.87
454.813	97.45
455.024	-144.21
455.235	-359.25
455.445	132.26
455.656	154.79
455.867	-25.43
456.078	-236.37
456.288	-62.29
456.499	93.35
456.71	-271.19
456.921	31.91
457.131	113.83
457.342	195.75
457.553	-138.07
457.763	-269.14
457.974	201.9
458.184	224.42
458.395	-275.28
458.606	-297.81
458.816	326.82
459.027	525.47
459.237	-72.53
459.448	-353.1
459.659	335.01
459.869	627.87
460.08	-377.68
460.29	-56.15
460.501	449.7
460.711	-45.91
460.922	-426.83
461.132	-252.75
461.343	748.7
461.553	-258.9
461.764	-197.46
461.974	-287.57
462.184	201.9
462.395	89.26
462.605	-160.59
462.816	-316.24
463.026	122.02
463.236	306.34
463.447	-217.94
463.657	-240.47
463.867	251.05
464.078	-33.62
464.288	-189.27
464.498	-170.83
464.709	-21.33
464.919	27.82
465.129	-156.5
465.339	-236.37
465.55	107.69
465.76	189.61
465.97	-131.92
466.18	-256.85
466.391	210.09
466.601	107.69
466.811	-131.92
467.021	-353.1
467.231	152.74
467.441	296.1
467.651	-35.67
467.862	-475.98
468.072	48.3
468.282	314.53
468.492	-181.07
468.702	-185.17
468.912	142.5
469.122	605.35
469.332	140.46
469.542	-262.99
469.752	136.36
469.962	3.24
470.172	-250.71
470.382	-258.9
470.592	269.48
470.802	375.97
471.012	-37.72
471.222	-222.03
471.432	314.53
471.642	165.03
471.852	-72.53
472.062	-293.71
472.272	-17.24
472.482	-201.55
472.691	-267.09
472.901	-377.68
473.111	117.93
473.321	613.54
473.531	-193.36
473.741	-105.3
473.95	165.03
474.16	255.14
474.37	-54.1
474.58	-224.08
474.79	443.56
474.999	267.43
475.209	-189.27
475.419	-123.73
475.628	21.67
475.838	400.55
476.048	-111.44
476.258	-279.38
476.467	425.12
476.677	-90.96
476.886	-4.95
477.096	-152.4
477.306	-107.35
477.515	361.64
477.725	-90.96
477.935	50.35
478.144	509.09
478.354	-35.67
478.563	-176.98
478.773	-193.36
478.982	318.63
479.192	400.55
479.401	-82.77
479.611	-205.65
479.82	-84.82
480.03	171.18
480.239	-228.18
480.449	-318.29
480.658	492.71
480.868	-80.72
481.077	-50
481.287	-113.49
481.496	210.09
481.705	445.6
481.915	83.11
482.124	85.16
482.333	171.18
482.543	498.85
482.752	-11.09
482.961	-172.88
483.171	277.67
483.38	46.25
483.589	-56.15
483.799	-176.98
484.008	-86.87
484.217	222.38
484.426	-72.53
484.636	-289.62
484.845	263.33
485.054	-146.26
485.263	259.24
485.472	33.96
485.682	627.87
485.891	154.79
486.1	-353.1
486.309	-215.89
486.518	363.69
486.727	478.37
486.936	-138.07
487.146	19.63
487.355	574.63
487.564	-113.49
487.773	-35.67
487.982	-101.2
488.191	-35.67
488.4	142.5
488.609	-86.87
488.818	3.24
489.027	726.18
489.236	533.67
489.445	-64.34
489.654	-187.22
489.863	468.13
490.072	126.12
490.281	357.54
490.49	-31.57
490.698	560.29
490.907	558.24
491.116	-66.39
491.325	-113.49
491.534	572.58
491.743	242.85
491.952	97.45
492.16	-31.57
492.369	296.1
492.578	439.46
492.787	42.15
492.996	-201.55
493.204	109.74
493.413	728.22
493.622	-330.58
493.831	-279.38
494.039	638.11
494.248	-56.15
494.457	-72.53
494.665	-293.71
494.874	234.66
495.083	744.61
495.291	-2.9
495.5	-111.44
495.709	392.36
495.917	232.62
496.126	132.26
496.335	-64.34
496.543	234.66
496.752	306.34
496.96	146.6
497.169	-174.93
497.377	183.46
497.586	515.23
497.794	122.02
498.003	-326.48
498.211	146.6
498.42	597.15
498.628	48.3
498.837	-144.21
499.045	304.29
499.254	308.39
499.462	-4.95
499.671	27.82
499.879	687.26
500.087	435.36
500.296	-2.9
500.504	83.11
500.713	349.35
500.921	785.57
501.129	52.39
501.338	-111.44
501.546	392.36
501.754	296.1
501.962	-0.85
502.171	-95.06
502.379	384.16
502.587	795.81
502.795	97.45
503.004	15.53
503.212	318.63
503.42	502.95
503.628	7.34
503.837	97.45
504.045	435.36
504.253	679.07
504.461	46.25
504.669	-133.97
504.877	599.2
505.085	650.4
505.294	-142.16
505.502	269.48
505.71	414.88
505.918	470.18
506.126	-62.29
506.334	3.24
506.542	195.75
506.75	326.82
506.958	210.09
507.166	93.35
507.374	214.18
507.582	855.2
507.79	197.8
507.998	-4.95
508.206	525.47
508.414	437.41
508.622	13.48
508.83	138.41
509.037	814.24
509.245	238.76
509.453	29.87
509.661	-37.72
509.869	662.69
510.077	267.43
510.285	222.38
510.492	-308.05
510.7	916.64
510.908	310.44
511.116	99.5
511.324	113.83
511.531	314.53
511.739	472.23
511.947	287.91
512.155	373.92
512.362	451.75
512.57	42.15
512.778	48.3
512.985	-123.73
513.193	726.18
513.401	730.27
513.608	79.02
513.816	175.27
514.024	476.32
514.231	812.19
514.439	130.22
514.646	97.45
514.854	689.31
515.061	771.23
515.269	154.79
515.477	187.56
515.684	218.28
515.892	664.74
516.099	31.91
516.307	89.26
516.514	621.73
516.722	887.97
516.929	203.94
517.136	122.02
517.344	849.05
517.551	642.21
517.759	33.96
517.966	203.94
518.173	396.45
518.381	480.42
518.588	246.95
518.796	126.12
519.003	701.6
519.21	580.77
519.418	205.99
519.625	558.24
519.832	507.04
520.039	609.44
520.247	11.43
520.454	263.33
520.661	713.89
520.868	722.08
521.076	162.98
521.283	287.91
521.49	1068.19
521.697	752.8
521.904	240.81
522.112	353.45
522.319	785.57
522.526	638.11
522.733	171.18
522.94	175.27
523.147	517.28
523.354	783.52
523.561	81.07
523.768	369.83
523.975	791.71
524.183	650.4
524.39	326.82
524.597	87.21
524.804	523.43
525.011	466.08
525.218	232.62
525.425	312.49
525.632	908.44
525.838	359.59
526.045	273.57
526.252	271.53
526.459	1766.54
526.666	1469.59
526.873	275.62
527.08	226.47
527.287	937.12
527.494	814.24
527.701	216.23
527.907	322.73
528.114	812.19
528.321	523.43
528.528	292.01
528.735	332.97
528.941	396.45
529.148	511.14
529.355	418.98
529.562	312.49
529.768	1051.8
529.975	502.95
530.182	513.19
530.388	367.78
530.595	900.25
530.802	369.83
531.008	576.67
531.215	359.59
531.422	1096.86
531.628	1410.2
531.835	558.24
532.042	445.6
532.248	574.63
532.455	842.91
532.661	507.04
532.868	435.36
533.074	756.9
533.281	1027.23
533.487	548
533.694	416.93
533.9	425.12
534.107	791.71
534.313	320.68
534.52	343.21
534.726	908.44
534.933	1213.59
535.139	386.21
535.345	287.91
535.552	814.24
535.758	804
535.965	609.44
536.171	394.4
536.377	896.16
536.584	1057.95
536.79	398.5
536.996	482.47
537.203	855.2
537.409	982.17
537.615	531.62
537.821	752.8
538.028	1029.27
538.234	951.45
538.44	492.71
538.646	509.09
538.853	1004.7
539.059	781.47
539.265	887.97
539.471	416.93
539.677	949.4
539.883	804
540.09	507.04
540.296	894.11
540.502	820.38
540.708	697.5
540.914	672.93
541.12	480.42
541.326	996.51
541.532	820.38
541.738	693.41
541.944	707.74
542.15	1129.63
542.356	736.42
542.562	513.19
542.768	564.39
542.974	1455.25
543.18	1348.76
543.386	650.4
543.592	445.6
543.798	1281.18
544.004	1207.45
544.21	507.04
544.415	736.42
544.621	924.83
544.827	1250.46
545.033	478.37
545.239	810.14
545.445	797.85
545.651	1115.29
545.856	726.18
546.062	636.06
546.268	933.02
546.474	1055.9
546.679	687.26
546.885	738.46
547.091	838.81
547.297	1445.01
547.502	787.61
547.708	517.28
547.914	834.72
548.119	1135.77
548.325	670.88
548.531	586.91
548.736	1485.97
548.942	801.95
549.147	746.66
549.353	1014.94
549.559	1344.66
549.764	1096.86
549.97	806.05
550.175	832.67
550.381	1281.18
550.586	898.2
550.792	783.52
550.997	756.9
551.203	1221.78
551.408	1211.54
551.614	607.39
551.819	777.37
552.025	1442.96
552.23	1492.12
552.435	877.73
552.641	971.93
552.846	1006.75
553.052	1469.59
553.257	949.4
553.462	879.77
553.668	1004.7
553.873	1334.42
554.078	838.81
554.283	758.94
554.489	1297.56
554.694	1125.53
554.899	713.89
555.105	978.08
555.31	1320.09
555.515	1395.86
555.72	971.93
555.925	859.29
556.131	1342.61
556.336	1092.76
556.541	863.39
556.746	810.14
556.951	1535.12
557.156	1541.27
557.361	988.32
557.567	990.36
557.772	1668.24
557.977	1324.18
558.182	883.87
558.387	918.68
558.592	1053.85
558.797	1475.73
559.002	1182.87
559.207	1105.05
559.412	1234.07
559.617	1705.1
559.822	930.97
560.027	926.88
560.232	1383.57
560.437	1426.58
560.642	892.06
560.847	1006.75
561.051	1399.96
561.256	1342.61
561.461	1064.09
561.666	953.5
561.871	1365.14
562.076	1506.45
562.281	1103
562.485	947.36
562.69	1571.99
562.895	1563.79
563.1	1002.65
563.305	947.36
563.509	1694.86
563.714	1879.18
563.919	990.36
564.123	1121.43
564.328	1375.38
564.533	1672.34
564.737	1166.49
564.942	1035.42
565.147	1838.22
565.351	2002.06
565.556	1326.23
565.761	1211.54
565.965	1485.97
566.17	1277.08
566.374	1256.6
566.579	1078.43
566.784	1506.45
566.988	1295.51
567.193	930.97
567.397	1207.45
567.602	1203.35
567.806	1475.73
568.011	1195.16
568.215	1229.98
568.42	1451.16
568.624	1432.72
568.828	1275.03
569.033	1344.66
569.237	1809.55
569.442	1643.67
569.646	1035.42
569.85	1232.02
570.055	1518.74
570.259	1608.85
570.463	1420.44
570.668	1256.6
570.872	1490.07
571.076	1574.03
571.281	1184.92
571.485	1361.05
571.689	1510.55
571.893	1739.92
572.098	1510.55
572.302	1209.5
572.506	1612.95
572.71	1543.32
572.914	1399.96
573.119	1318.04
573.323	1950.86
573.527	1825.93
573.731	1412.25
573.935	1336.47
574.139	1647.76
574.343	1381.53
574.547	1205.4
574.751	1363.09
574.955	2110.6
575.159	2045.07
575.364	1326.23
575.568	1352.85
575.772	1660.05
575.976	2071.69
576.18	1281.18
576.383	1109.15
576.587	2010.25
576.791	1897.61
576.995	1229.98
577.199	1211.54
577.403	1942.67
577.607	2053.26
577.811	1426.58
578.015	1469.59
578.219	1715.34
578.422	1891.47
578.626	1563.79
578.83	1614.99
579.034	2151.56
579.238	1731.73
579.442	1557.65
579.645	1942.67
579.849	1860.75
580.053	1830.03
580.257	1582.23
580.46	1604.75
580.664	2024.59
580.868	1993.87
581.071	1770.64
581.275	1633.43
581.479	1424.53
581.682	2049.16
581.886	1619.09
582.09	1756.3
582.293	2030.73
582.497	2120.84
582.7	1848.46
582.904	1614.99
583.107	1975.44
583.311	1840.27
583.515	1635.47
583.718	1668.24
583.922	1969.29
584.125	2421.89
584.329	1662.1
584.532	1801.36
584.735	2352.26
584.939	2157.71
585.142	1485.97
585.346	1537.17
585.549	2186.38
585.753	1780.88
585.956	1768.59
586.159	1903.76
586.363	2313.35
586.566	2190.47
586.769	1621.14
586.973	1625.23
587.176	2061.45
587.379	2317.45
587.582	2096.27
587.786	2008.2
587.989	2036.88
588.192	2655.36
588.395	1903.76
588.599	2157.71
588.802	2305.16
589.005	2296.97
589.208	1881.23
589.411	1834.13
589.615	2403.46
589.818	2452.61
590.021	2098.31
590.224	1997.96
590.427	2374.79
590.63	2329.74
590.833	1629.33
591.036	1850.51
591.239	2086.03
591.442	2055.31
591.645	2227.34
591.848	1918.09
592.051	2309.26
592.254	2456.71
592.457	1965.2
592.66	2163.85
592.863	2182.28
593.066	2311.3
593.269	1930.38
593.472	2184.33
593.675	2051.21
593.878	2542.72
594.081	1993.87
594.284	1952.91
594.486	2481.28
594.689	2303.11
594.892	2116.75
595.095	2157.71
595.298	2456.71
595.5	2184.33
595.703	2204.81
595.906	2139.27
596.109	2694.27
596.311	2563.2
596.514	1780.88
596.717	2104.46
596.92	2602.11
597.122	2448.52
597.325	1924.24
597.528	2073.74
597.73	2796.67
597.933	2299.02
598.136	2169.99
598.338	1883.28
598.541	2559.11
598.743	2884.73
598.946	2190.47
599.148	2294.92
599.351	2727.04
599.554	2808.96
599.756	2286.73
599.959	2292.87
600.161	2751.62
600.363	3101.82
600.566	2479.24
600.768	2194.57
600.971	2903.17
601.173	2690.18
601.376	2256.01
601.578	2329.74
601.78	2708.61
601.983	3110.01
602.185	2229.38
602.388	2518.15
602.59	2696.32
602.792	2454.66
602.995	2522.24
603.197	2337.93
603.399	2940.03
603.601	2735.23
603.804	2483.33
604.006	2407.56
604.208	2581.64
604.41	2305.16
604.613	2548.87
604.815	2303.11
605.017	3128.44
605.219	2581.64
605.421	2839.68
605.623	2403.46
605.826	3132.54
606.028	3142.78
606.23	2387.08
606.432	2550.92
606.634	3021.95
606.836	3044.48
607.038	2434.18
607.24	2669.7
607.442	2921.6
607.644	2634.88
607.846	2573.44
608.048	2450.57
608.25	3032.19
608.452	2663.55
608.654	2598.02
608.856	2376.84
609.058	2708.61
609.26	2970.75
609.462	2727.04
609.664	2708.61
609.866	3279.99
610.067	3097.72
610.269	2825.34
610.471	2624.64
610.673	2702.47
610.875	3069.05
611.077	2413.7
611.278	2688.13
611.48	2899.07
611.682	3323
611.884	2782.34
612.085	2694.27
612.287	2776.19
612.489	3003.52
612.69	2555.01
612.892	2702.47
613.094	3224.7
613.295	3036.28
613.497	2720.9
613.699	2804.86
613.9	3323
614.102	3243.13
614.304	2827.39
614.505	2491.52
614.707	3095.68
614.908	3093.63
615.11	2591.88
615.311	2763.9
615.513	3171.45
615.714	3263.61
615.916	2768
616.117	2858.11
616.319	3050.62
616.52	3265.66
616.722	2788.48
616.923	2739.33
617.124	3288.18
617.326	3288.18
617.527	2919.55
617.729	2983.04
617.93	3347.58
618.131	3329.14
618.333	2774.14
618.534	2849.92
618.735	2958.46
618.937	3667.06
619.138	2761.86
619.339	2864.25
619.54	3232.89
619.742	3198.07
619.943	3044.48
620.144	2923.65
620.345	3208.31
620.546	3437.69
620.748	2911.36
620.949	3015.8
621.15	3308.66
621.351	3296.38
621.552	2901.12
621.753	2751.62
621.954	2978.94
622.155	3775.6
622.356	2794.62
622.558	3140.73
622.759	3259.51
622.96	3716.21
623.161	2985.09
623.362	3128.44
623.563	3234.94
623.764	3335.29
623.965	3140.73
624.166	3335.29
624.366	3343.48
624.567	3308.66
624.768	2800.77
624.969	3095.68
625.17	3173.5
625.371	3548.28
625.572	3167.35
625.773	3107.96
625.973	3562.61
626.174	3476.6
626.375	3318.9
626.576	3144.83
626.777	3370.1
626.977	3984.49
627.178	3118.2
627.379	3161.21
627.58	3501.17
627.78	3275.9
627.981	3320.95
628.182	3331.19
628.382	3695.73
628.583	3181.69
628.784	3114.11
628.984	3294.33
629.185	3630.2
629.386	3718.26
629.586	3325.05
629.787	3177.59
629.987	3871.86
630.188	3574.9
630.388	3468.41
630.589	3439.73
630.79	4115.56
630.99	3597.43
631.191	3533.94
631.391	3394.68
631.591	3845.23
631.792	3966.06
631.992	3556.47
632.193	3523.7
632.393	4037.74
632.594	3740.79
632.794	3427.45
632.994	3529.84
633.195	3701.87
633.395	3705.97
633.595	3515.51
633.796	3677.3
633.996	3654.77
634.196	4129.9
634.397	3128.44
634.597	3509.37
634.797	3499.13
634.997	4115.56
635.198	3671.15
635.398	3540.08
635.598	3761.27
635.798	4109.42
635.998	4004.97
636.199	3378.3
636.399	3595.38
636.599	3699.83
636.799	3587.19
636.999	3783.79
637.199	3947.63
637.399	3996.78
637.599	3579
637.799	3587.19
637.999	3703.92
638.199	4285.55
638.399	3613.81
638.599	3607.67
638.799	3873.9
638.999	4478.05
639.199	3853.42
639.399	3677.3
639.599	4230.25
639.799	3767.41
639.999	3746.93
640.199	3712.11
640.399	4013.17
640.599	3904.62
640.799	3777.65
640.998	3964.01
641.198	4502.63
641.398	4109.42
641.598	4000.88
641.798	3996.78
641.997	4963.42
642.197	3945.58
642.397	3894.38
642.597	3720.31
642.796	4140.14
642.996	4424.81
643.196	3902.58
643.395	3890.29
643.595	4174.95
643.795	3853.42
643.994	3810.42
644.194	4000.88
644.394	4230.25
644.593	4121.71
644.793	3855.47
644.992	3933.29
645.192	4332.65
645.392	3851.38
645.591	3988.59
645.791	4064.36
645.99	4422.76
646.19	4213.87
646.389	4023.41
646.589	3927.15
646.788	4412.52
646.987	4295.79
647.187	4449.38
647.386	4254.83
647.586	4244.59
647.785	4545.64
647.984	4093.04
648.184	4103.28
648.383	4146.28
648.582	4140.14
648.782	4093.04
648.981	4168.81
649.18	4160.62
649.38	4301.93
649.579	4185.19
649.778	4156.52
649.977	4424.81
650.177	4447.33
650.376	4158.57
650.575	4164.72
650.774	4938.85
650.973	4263.02
651.173	4050.03
651.372	4148.33
651.571	4310.12
651.77	4652.13
651.969	4168.81
652.168	4320.36
652.367	4131.95
652.566	4418.66
652.765	4060.27
652.964	4516.97
653.163	4926.56
653.362	4455.53
653.561	4293.74
653.76	4385.9
653.959	4473.96
654.158	4689
654.357	4441.19
654.556	4320.36
654.755	4699.23
654.954	4701.28
655.153	4369.51
655.352	4379.75
655.551	4764.77
655.749	4465.77
655.948	4416.62
656.147	4480.1
656.346	4754.53
656.545	4447.33
656.743	4578.4
656.942	4584.55
657.141	4912.22
657.34	4326.5
657.538	4447.33
657.737	4512.87
657.936	4535.4
658.135	4893.79
658.333	4369.51
658.532	4600.93
658.731	5125.21
658.929	4967.52
659.128	4746.34
659.326	4449.38
659.525	5012.57
659.724	4822.11
659.922	4426.86
660.121	4420.71
660.319	4754.53
660.518	4521.06
660.716	4523.11
660.915	4363.37
661.113	5385.3
661.312	4404.33
661.51	4832.35
661.709	4435.05
661.907	4981.85
662.105	5264.47
662.304	4635.75
662.502	4662.37
662.701	5246.04
662.899	4914.27
663.097	5049.44
663.296	4439.14
663.494	5327.96
663.692	5135.45
663.891	4615.27
664.089	4637.8
664.287	4967.52
664.485	5225.56
664.684	4664.42
664.882	4942.94
665.08	5028.96
665.278	5049.44
665.476	4600.93
665.675	5037.15
665.873	5524.57
666.071	5448.79
666.269	4865.12
666.467	5057.63
666.665	5094.49
666.863	4977.76
667.061	4836.45
667.259	4826.21
667.457	5071.97
667.655	5291.1
667.853	4701.28
668.051	4793.44
668.249	5049.44
668.447	5301.34
668.645	4613.22
668.843	5026.91
669.041	5176.41
669.239	5078.11
669.437	5141.6
669.635	5196.89
669.833	5133.4
670.031	5475.42
670.229	4920.42
670.426	4967.52
670.624	5141.6
670.822	4967.52
671.02	5041.25
671.218	5086.3
671.415	4856.93
671.613	5207.13
671.811	5055.58
672.009	5000.29
672.206	5297.24
672.404	5321.82
672.602	5256.28
672.799	5168.22
672.997	5250.14
673.195	5411.93
673.392	5117.02
673.59	4908.13
673.788	5557.33
673.985	4865.12
674.183	5217.37
674.38	5155.93
674.578	5530.71
674.775	5055.58
674.973	4996.19
675.17	5119.07
675.368	5651.54
675.565	5481.56
675.763	5028.96
675.96	5215.32
676.158	5647.44
676.355	5356.63
676.553	5160.03
676.75	5106.78
676.947	5493.85
677.145	5160.03
677.342	5190.75
677.539	5274.71
677.737	5540.95
677.934	5981.26
678.131	5274.71
678.329	5049.44
678.526	5717.08
678.723	5600.34
678.92	5069.92
679.118	5162.08
679.315	5135.45
679.512	5938.26
679.709	5252.19
679.906	5141.6
680.104	5758.03
680.301	5479.51
680.498	5155.93
680.695	5074.01
680.892	5307.48
681.089	5426.26
681.286	5330.01
681.483	4975.71
681.68	5647.44
681.877	5729.36
682.075	5209.18
682.272	5383.26
682.469	5594.2
682.665	5452.89
682.862	5186.65
683.059	5110.88
683.256	5459.03
683.453	5592.15
683.65	5360.73
683.847	5399.64
684.044	5583.96
684.241	5315.67
684.438	5397.59
684.635	5266.52
684.831	5794.9
685.028	6079.57
685.225	5459.03
685.422	5448.79
685.619	5643.35
685.815	5645.4
686.012	5364.82
686.209	5334.11
686.405	5332.06
686.602	5821.52
686.799	5192.8
686.996	5143.64
687.192	5399.64
687.389	5962.83
687.586	5405.78
687.782	5405.78
687.979	5962.83
688.175	5792.85
688.372	5489.75
688.568	5565.53
688.765	5391.45
688.962	6018.13
689.158	5475.42
689.355	5256.28
689.551	5817.43
689.748	5575.77
689.944	5569.62
690.14	5393.5
690.337	5829.71
690.533	5532.76
690.73	5680.21
690.926	5659.73
691.123	5764.18
691.319	5499.99
691.515	5301.34
691.712	5637.2
691.908	5594.2
692.104	5651.54
692.301	5690.45
692.497	5342.3
692.693	5932.11
692.889	6016.08
693.086	5626.96
693.282	5483.61
693.478	5700.69
693.674	5979.22
693.87	5510.23
694.067	5241.95
694.263	5807.19
694.459	5639.25
694.655	5801.04
694.851	5631.06
695.047	5909.58
695.243	5831.76
695.439	5758.03
695.635	5553.24
695.831	5913.68
696.027	5741.65
696.224	5639.25
696.42	5854.29
696.615	6141
696.811	5848.15
697.007	5389.4
697.203	5467.22
697.399	5829.71
697.595	6018.13
697.791	5428.31
697.987	5727.32
698.183	5559.38
698.379	5588.05
698.575	5446.74
698.77	5575.77
698.966	6161.48
699.162	6087.76
699.358	5641.3
699.554	5549.14
699.749	6057.04
699.945	5956.69
700.141	5776.47
700.337	5602.39
700.532	5837.91
700.728	5788.75
700.924	5669.97
701.119	5512.28
701.315	6009.93
701.511	5801.04
701.706	5872.72
701.902	5487.7
702.097	5706.84
702.293	5979.22
702.489	5907.54
702.684	5596.25
702.88	5954.64
703.075	5844.05
703.271	5794.9
703.466	5499.99
703.662	5915.73
703.857	5995.6
704.053	5692.5
704.248	5739.6
704.443	5973.07
704.639	6153.29
704.834	5723.22
705.03	5684.31
705.225	6229.07
705.42	6186.06
705.616	5864.53
705.811	5823.57
706.006	5872.72
706.202	5717.08
706.397	5807.19
706.592	5631.06
706.787	5966.93
706.983	6114.38
707.178	6169.68
707.373	5923.92
707.568	6270.03
707.763	6141
707.959	5786.71
708.154	5811.28
708.349	5864.53
708.544	6222.92
708.739	6118.48
708.934	5721.17
709.129	6102.09
709.324	6364.23
709.519	5909.58
709.714	5637.2
709.909	6413.38
710.104	6210.64
710.299	5760.08
710.494	5854.29
710.689	6118.48
710.884	6067.28
711.079	5885.01
711.274	5981.26
711.469	6255.69
711.664	6184.01
711.859	5889.1
712.054	6081.61
712.249	6212.68
712.443	6468.68
712.638	5692.5
712.833	5788.75
713.028	6202.44
713.223	6028.37
713.417	6265.93
713.612	5887.06
713.807	6229.07
714.002	6732.87
714.196	6098
714.391	5844.05
714.586	6353.99
714.78	6165.58
714.975	5870.67
715.17	6028.37
715.364	6110.29
715.559	6448.2
715.754	5602.39
715.948	5831.76
716.143	6712.39
716.337	6091.85
716.532	5985.36
716.726	6042.7
716.921	6304.84
717.115	6468.68
717.31	5753.94
717.504	6523.98
717.699	6257.74
717.893	6356.04
718.088	5682.26
718.282	5893.2
718.476	6319.18
718.671	6243.4
718.865	5917.78
719.059	5966.93
719.254	6204.49
719.448	6302.79
719.642	7363.64
719.837	5659.73
720.031	6339.66
720.225	6523.98
720.419	5973.07
720.614	5794.9
720.808	6356.04
721.002	6227.02
721.196	5755.99
721.39	5864.53
721.585	6630.47
721.779	6462.54
721.973	6114.38
722.167	5641.3
722.361	6214.73
722.555	6345.8
722.749	6143.05
722.943	5885.01
723.137	5905.49
723.331	6399.05
723.525	6030.41
723.719	5934.16
723.913	6308.94
724.107	6609.99
724.301	5913.68
724.495	6085.71
724.689	6732.87
724.883	6356.04
725.077	5975.12
725.271	5893.2
725.465	6480.97
725.659	6270.03
725.853	6093.9
726.046	5694.55
726.24	6130.77
726.434	6466.63
726.628	6108.24
726.822	6210.64
727.015	6698.05
727.209	6659.14
727.403	6165.58
727.596	5975.12
727.79	6659.14
727.984	6335.56
728.177	6050.89
728.371	6161.48
728.565	6622.28
728.758	6102.09
728.952	5973.07
729.146	6147.15
729.339	6638.66
729.533	6257.74
729.726	6169.68
729.92	6290.51
730.113	6724.68
730.307	6419.53
730.5	6165.58
730.694	5948.5
730.887	6147.15
731.081	6597.7
731.274	6028.37
731.468	6186.06
731.661	6362.19
731.854	6091.85
732.048	6026.32
732.241	6151.24
732.435	6319.18
732.628	6581.32
732.821	6241.36
733.014	6251.6
733.208	6315.08
733.401	6554.69
733.594	6149.2
733.788	6081.61
733.981	6925.38
734.174	6718.53
734.367	6231.12
734.56	6259.79
734.754	6786.12
734.947	6515.78
735.14	6085.71
735.333	6341.71
735.526	6642.76
735.719	6233.16
735.912	6274.12
736.105	6159.44
736.298	6405.19
736.491	6534.21
736.684	6100.05
736.877	6163.53
737.07	6634.57
737.263	6720.58
737.456	6360.14
737.649	6253.64
737.842	6659.14
738.035	6376.52
738.228	6372.43
738.421	6483.02
738.614	6954.05
738.807	6773.83
739	6173.77
739.192	6239.31
739.385	6837.31
739.578	6710.34
739.771	6538.31
739.964	6384.71
740.156	6691.91
740.349	6675.52
740.542	6601.8
740.735	6188.11
740.927	6390.86
741.12	6333.51
741.313	6519.88
741.505	6734.92
741.698	6687.81
741.891	6616.13
742.083	6454.34
742.276	6384.71
742.468	6632.52
742.661	6624.33
742.854	6376.52
743.046	6437.96
743.239	6982.72
743.431	6609.99
743.624	6392.91
743.816	6310.99
744.009	6530.12
744.201	6638.66
744.393	6775.88
744.586	6274.12
744.778	7046.21
744.971	6605.89
745.163	6405.19
745.355	6691.91
745.548	6663.24
745.74	6542.41
745.932	6429.77
746.125	6310.99
746.317	7273.53
746.509	6464.58
746.702	6409.29
746.894	6573.13
747.086	6859.84
747.278	6937.66
747.471	6487.11
747.663	6437.96
747.855	6659.14
748.047	6988.86
748.239	6347.85
748.431	6378.57
748.623	7220.28
748.815	7101.5
749.008	6372.43
749.2	6290.51
749.392	7072.83
749.584	6974.53
749.776	6550.6
749.968	6536.26
750.16	7167.04
750.352	6669.38
750.544	6614.09
750.736	6353.99
750.928	6908.99
751.12	6812.74
751.311	6523.98
751.503	6618.18
751.695	6798.4
751.887	6706.24
752.079	6526.02
752.271	6472.78
752.463	7568.44
752.654	6917.19
752.846	6589.51
753.038	6298.7
753.23	6593.61
753.421	6970.43
753.613	6313.03
753.805	6851.65
753.997	7011.39
754.188	6896.71
754.38	6364.23
754.572	6612.04
754.763	6798.4
754.955	6884.42
755.146	6528.07
755.338	6440.01
755.53	6929.47
755.721	6751.3
755.913	6257.74
756.104	6446.15
756.296	6704.2
756.487	6888.51
756.679	6327.37
756.87	6536.26
757.062	6669.38
757.253	6892.61
757.445	6669.38
757.636	6605.89
757.827	6816.83
758.019	7220.28
758.21	6501.45
758.401	6552.65
758.593	7232.57
758.784	7124.03
758.975	6267.98
759.167	6265.93
759.358	6626.37
759.549	6999.1
759.74	6489.16
759.932	6294.6
760.123	7062.59
760.314	6507.59
760.505	6696
760.696	6638.66
760.888	7308.35
761.079	6661.19
761.27	6452.3
761.461	6349.9
761.652	7029.82
761.843	6769.73
762.034	6528.07
762.225	6822.98
762.416	6904.9
762.607	6679.62
762.798	6411.34
762.989	6474.82
763.18	7513.14
763.371	6657.09
763.562	6411.34
763.753	6372.43
763.944	6941.76
764.135	6954.05
764.326	6753.35
764.517	6571.08
764.708	6818.88
764.899	6970.43
765.089	6460.49
765.28	6263.88
765.471	6693.96
765.662	6720.58
765.853	6478.92
766.043	6204.49
766.234	6925.38
766.425	6782.02
766.615	6466.63
766.806	6333.51
766.997	6970.43
767.187	6863.94
767.378	6569.03
767.569	6323.27
767.759	6865.99
767.95	6751.3
768.141	6767.68
768.331	6267.98
768.522	6714.44
768.712	6857.79
768.903	6450.25
769.093	6274.12
769.284	7054.4
769.474	6765.64
769.665	6321.23
769.855	6067.28
770.046	6769.73
770.236	6519.88
770.426	6519.88
770.617	6388.81
770.807	6788.16
770.998	6456.39
771.188	6378.57
771.378	6388.81
771.569	6800.45
771.759	6843.46
771.949	6296.65
772.139	6022.22
772.33	6716.48
772.52	6997.06
772.71	6343.75
772.9	6118.48
773.09	6941.76
773.281	6650.95
773.471	6276.17
773.661	6216.78
773.851	6786.12
774.041	6435.91
774.231	6368.33
774.421	6480.97
774.611	6997.06
774.802	6626.37
774.992	6478.92
775.182	6265.93
775.372	6618.18
775.562	6960.19
775.752	6298.7
775.942	6470.73
776.131	6960.19
776.321	6618.18
776.511	6270.03
776.701	6095.95
776.891	6927.42
777.081	6360.14
777.271	6335.56
777.461	6167.63
777.651	6741.06
777.84	6806.59
778.03	6401.1
778.22	6085.71
778.41	6900.8
778.599	6448.2
778.789	6294.6
778.979	6210.64
779.169	6630.47
779.358	6413.38
779.548	6593.61
779.738	6114.38
779.927	6534.21
780.117	6485.06
780.307	6403.14
780.496	5983.31
780.686	6718.53
780.875	7056.45
781.065	6286.41
781.254	6229.07
781.444	6579.27
781.633	6689.86
781.823	6249.55
782.012	6102.09
782.202	6351.95
782.391	6519.88
782.581	6190.16
782.77	6437.96
782.96	6812.74
783.149	6446.15
783.338	6116.43
783.528	6106.19
783.717	6779.97
783.906	6691.91
784.096	6306.89
784.285	6321.23
784.474	6306.89
784.663	6155.34
784.853	6233.16
785.042	6325.32
785.231	6411.34
785.42	6646.85
785.61	6485.06
785.799	6128.72
785.988	6405.19
786.177	6425.67
786.366	6179.92
786.555	6407.24
786.744	6739.01
786.933	6474.82
787.122	6153.29
787.312	6153.29
787.501	6345.8
787.69	6544.45
787.879	6276.17
788.068	6085.71
788.257	6098
788.445	6376.52
788.634	6407.24
788.823	6267.98
789.012	7040.06
789.201	6835.27
789.39	6327.37
789.579	5977.17
789.768	6315.08
789.957	6519.88
790.145	6177.87
790.334	5966.93
790.523	6392.91
790.712	6401.1
790.9	6315.08
791.089	5999.7
791.278	6712.39
791.467	6487.11
791.655	6521.93
791.844	6720.58
792.033	6161.48
792.221	6294.6
792.41	5995.6
792.599	5827.67
792.787	6704.2
792.976	6532.17
793.164	5954.64
793.353	6048.85
793.541	6560.84
793.73	6556.74
793.918	6159.44
794.107	6216.78
794.295	6452.3
794.484	6413.38
794.672	6093.9
794.861	6208.59
795.049	6577.22
795.238	6767.68
795.426	5930.06
795.614	6102.09
795.803	6407.24
795.991	6657.09
796.179	6057.04
796.368	6325.32
796.556	6638.66
796.744	6212.68
796.932	6171.72
797.121	6063.18
797.309	6163.53
797.497	6519.88
797.685	6130.77
797.874	6143.05
798.062	6341.71
798.25	6566.98
798.438	6106.19
798.626	6011.98
798.814	6622.28
799.002	6872.13
799.19	6456.39
799.378	6310.99
799.566	6749.25
799.755	6724.68
799.943	6472.78
800.131	6138.96
800.318	6642.76
800.506	6550.6
800.694	6130.77
800.882	6380.62
801.07	6827.07
801.258	6523.98
801.446	6116.43
801.634	6229.07
801.822	6331.47
802.01	6478.92
802.197	6036.56
802.385	6310.99
802.573	6534.21
802.761	6329.42
802.949	6261.84
803.136	6147.15
803.324	6753.35
803.512	6392.91
803.699	6317.13
803.887	6040.65
804.075	6736.96
804.262	6405.19
804.45	6134.86
804.638	6356.04
804.825	6472.78
805.013	6595.65
805.201	6245.45
805.388	6184.01
805.576	6581.32
805.763	7081.02
805.951	6429.77
806.138	6597.7
806.326	7185.47
806.513	6788.16
806.701	6509.64
806.888	6349.9
807.075	6761.54
807.263	7224.38
807.45	6378.57
807.638	6550.6
807.825	7291.96
808.012	6755.4
808.2	6382.67
808.387	6618.18
808.574	6937.66
808.761	7003.2
808.949	6458.44
809.136	6661.19
809.323	6597.7
809.51	6792.26
809.698	6956.1
809.885	6745.16
810.072	6886.47
810.259	7081.02
810.446	6534.21
810.633	6458.44
810.82	7203.9
811.008	7257.15
811.195	6708.29
811.382	6501.45
811.569	6718.53
811.756	6472.78
811.943	6632.52
812.13	6683.72
812.317	6853.7
812.504	6724.68
812.691	6949.95
812.878	6679.62
813.064	7240.76
813.251	7081.02
813.438	6626.37
813.625	6693.96
813.812	6816.83
813.999	6984.77
814.186	6753.35
814.372	6734.92
814.559	7050.3
814.746	7341.11
814.933	6612.04
815.12	7042.11
815.306	6833.22
815.493	6597.7
815.68	6806.59
815.866	6739.01
816.053	7334.97
816.24	7547.96
816.426	6843.46
816.613	6569.03
816.799	7210.04
816.986	7234.62
817.173	6810.69
817.359	6612.04
817.546	6878.27
817.732	6712.39
817.919	6388.81
818.105	6724.68
818.292	6675.52
818.478	7294.01
818.665	6804.55
818.851	6700.1
819.037	7535.67
819.224	7130.17
819.41	6634.57
819.597	6599.75
819.783	7433.27
819.969	6929.47
820.156	6904.9
820.342	6669.38
820.528	7791.67
820.714	6888.51
820.901	7017.54
821.087	6700.1
821.273	7447.61
821.459	6954.05
821.646	6777.92
821.832	6732.87
822.018	6999.1
822.204	6931.52
822.39	6653
822.576	6728.77
822.762	7085.12
822.948	7175.23
823.134	6843.46
823.32	6626.37
823.507	6804.55
823.693	6972.48
823.879	7031.87
824.065	6671.43
824.25	6954.05
824.436	6681.67
824.622	6761.54
824.808	6532.17
824.994	6853.7
825.18	6636.61
825.366	6501.45
825.552	6571.08
825.738	6911.04
825.923	7093.31
826.109	6841.41
826.295	6530.12
826.481	6960.19
826.667	6784.07
826.852	6808.64
827.038	6618.18
827.224	7199.8
827.409	7414.84
827.595	6519.88
827.781	6679.62
827.966	7113.79
828.152	7097.41
828.338	6609.99
828.523	6397
828.709	6782.02
828.894	7066.69
829.08	6497.35
829.266	6507.59
829.451	6835.27
829.637	6816.83
829.822	6704.2
830.008	6523.98
830.193	7052.35
830.378	7175.23
830.564	6429.77
830.749	6362.19
830.935	7033.92
831.12	6876.23
831.305	6483.02
831.491	6483.02
831.676	6632.52
831.861	7111.74
832.047	6693.96
832.232	6411.34
832.417	7085.12
832.602	6849.6
832.788	6390.86
832.973	6462.54
833.158	6636.61
833.343	6835.27
833.528	6597.7
833.714	6505.54
833.899	6839.36
834.084	7154.75
834.269	6675.52
834.454	6478.92
834.639	7224.38
834.824	6792.26
835.009	6736.96
835.194	6749.25
835.379	7013.44
835.564	7060.54
835.749	6663.24
835.934	6290.51
836.119	6872.13
836.304	6696
836.489	6384.71
836.674	6605.89
836.859	6491.21
837.044	7054.4
837.228	6521.93
837.413	6210.64
837.598	6876.23
837.783	6900.8
837.968	6448.2
838.152	6292.55
838.337	6130.77
838.522	6913.09
838.707	6941.76
838.891	6566.98
839.076	6741.06
839.261	6804.55
839.445	6448.2
839.63	6499.4
839.815	6945.86
839.999	6437.96
840.184	6382.67
840.368	6306.89
840.553	6712.39
840.737	6947.9
840.922	6392.91
841.106	6339.66
841.291	6421.58
841.475	6622.28
841.66	6321.23
841.844	6278.22
842.029	7392.31
842.213	6593.61
842.397	6462.54
842.582	6130.77
842.766	6958.14
842.951	6679.62
843.135	6304.84
843.319	6102.09
843.504	6630.47
843.688	6827.07
843.872	5934.16
844.056	6339.66
844.241	6730.82
844.425	6413.38
844.609	6536.26
844.793	6130.77
844.977	6782.02
845.161	6646.85
845.346	6085.71
845.53	6323.27
845.714	6405.19
845.898	7136.32
846.082	6100.05
846.266	6403.14
846.45	6696
846.634	6521.93
846.818	6196.3
847.002	6360.14
847.186	6646.85
847.37	6392.91
847.554	6173.77
847.738	6411.34
847.922	6638.66
848.106	6630.47
848.29	6022.22
848.473	6038.61
848.657	6415.43
848.841	6487.11
849.025	6032.46
849.209	6093.9
849.392	6601.8
849.576	6487.11
849.76	5973.07
849.944	6300.75
850.127	6841.41
850.311	6126.67
850.495	5999.7
850.678	6081.61
850.862	6556.74
851.046	6519.88
851.229	6343.75
851.413	5981.26
851.596	6421.58
851.78	6483.02
851.964	6220.88
852.147	6134.86
852.331	7240.76
852.514	6804.55
852.698	6263.88
852.881	5864.53
853.065	6452.3
853.248	6192.2
853.431	6155.34
853.615	6208.59
853.798	7154.75
853.982	6358.09
854.165	6143.05
854.348	6018.13
854.532	6067.28
854.715	6216.78
854.898	6038.61
855.081	6159.44
855.265	6644.81
855.448	6876.23
855.631	6071.37
855.814	6108.24
855.997	6495.3
856.181	6265.93
856.364	6147.15
856.547	5831.76
856.73	6253.64
856.913	6235.21
857.096	5960.78
857.279	6048.85
857.462	6302.79
857.645	6562.89
857.828	6233.16
858.011	6114.38
858.194	6071.37
858.377	6470.73
858.56	5901.39
858.743	5964.88
858.926	5964.88
859.109	6470.73
859.292	6052.94
859.475	5794.9
859.658	6501.45
859.841	6345.8
860.023	5794.9
860.206	5925.97
860.389	6112.33
860.572	6517.83
860.755	5766.23
860.937	5819.47
861.12	6124.62
861.303	6159.44
861.486	5932.11
861.668	5807.19
861.851	6308.94
862.034	6122.57
862.216	5960.78
862.399	5667.92
862.581	6302.79
862.764	6362.19
862.947	5932.11
863.129	5684.31
863.312	5768.27
863.494	6409.29
863.677	6091.85
863.859	5569.62
864.042	6233.16
864.224	6298.7
864.406	5776.47
864.589	5364.82
864.771	5989.46
864.954	5803.09
865.136	5520.47
865.318	5633.11
865.501	6378.57
865.683	5524.57
865.865	5700.69
866.048	5549.14
866.23	6042.7
866.412	6018.13
866.594	5586.01
866.777	5641.3
866.959	6112.33
867.141	5698.64
867.323	5672.02
867.505	5758.03
867.687	5962.83
867.869	6159.44
868.052	5774.42
868.234	5520.47
868.416	6038.61
868.598	6093.9
868.78	5743.7
868.962	5358.68
869.144	6181.96
869.326	6104.14
869.508	5649.49
869.69	5483.61
869.872	5788.75
870.054	6257.74
870.236	5307.48
870.417	5401.69
870.599	5788.75
870.781	6274.12
870.963	5692.5
871.145	5540.95
871.327	5737.56
871.508	6054.99
871.69	5702.74
871.872	5651.54
872.054	5880.91
872.235	6048.85
872.417	5719.12
872.599	5561.43
872.78	6276.17
872.962	5907.54
873.144	5520.47
873.325	5717.08
873.507	6284.36
873.689	5829.71
873.87	5534.81
874.052	5641.3
874.233	5760.08
874.415	6145.1
874.596	5682.26
874.778	5403.74
874.959	5921.87
875.141	6237.26
875.322	5751.89
875.503	5614.68
875.685	6153.29
875.866	5586.01
876.048	5692.5
876.229	5647.44
876.41	5809.23
876.592	6102.09
876.773	5706.84
876.954	5586.01
877.136	6315.08
877.317	6003.79
877.498	5520.47
877.679	5825.62
877.86	6417.48
878.042	6141
878.223	5633.11
878.404	5956.69
878.585	6241.36
878.766	6673.48
878.947	6222.92
879.128	5956.69
879.309	6167.63
879.49	6456.39
879.672	5887.06
879.853	5899.34
880.034	5975.12
880.215	6040.65
880.396	6044.75
880.576	6079.57
880.757	6065.23
880.938	6530.12
881.119	6046.8
881.3	5727.32
881.481	6083.66
881.662	6937.66
881.843	5825.62
882.023	5758.03
882.204	6323.27
882.385	6145.1
882.566	6050.89
882.747	5790.8
882.927	6171.72
883.108	6331.47
883.289	5813.33
883.469	6159.44
883.65	6032.46
883.831	6538.31
884.011	6204.49
884.192	6057.04
884.373	6618.18
884.553	6562.89
884.734	6220.88
884.914	6474.82
885.095	7150.65
885.275	6722.63
885.456	6313.03
885.636	5882.96
885.817	6442.06
885.997	6521.93
886.178	6145.1
886.358	6138.96
886.538	6466.63
886.719	7451.7
886.899	6085.71
887.08	6237.26
887.26	6949.95
887.44	6063.18
887.621	6141
887.801	6265.93
887.981	7171.13
888.161	6814.79
888.342	6380.62
888.522	6259.79
888.702	6628.42
888.882	6978.62
889.062	6446.15
889.242	6024.27
889.423	6939.71
889.603	6865.99
889.783	6460.49
889.963	6358.09
890.143	6782.02
890.323	6882.37
890.503	6267.98
890.683	6347.85
890.863	6786.12
891.043	6650.95
891.223	6478.92
891.403	6437.96
891.583	6677.57
891.763	6536.26
891.943	6552.65
892.122	6388.81
892.302	6784.07
892.482	6732.87
892.662	6650.95
892.842	6392.91
893.022	6904.9
893.201	6618.18
893.381	6560.84
893.561	6384.71
893.741	6931.52
893.92	6720.58
894.1	6454.34
894.28	6626.37
894.459	6962.24
894.639	6759.49
894.819	6532.17
894.998	6571.08
895.178	6995.01
895.357	6806.59
895.537	6364.23
895.716	6335.56
895.896	6765.64
896.075	7068.73
896.255	6415.43
896.434	6257.74
896.614	6898.75
896.793	7212.09
896.973	6601.8
897.152	6460.49
897.331	6769.73
897.511	7027.78
897.69	6552.65
897.87	6505.54
898.049	7140.41
898.228	6753.35
898.407	6628.42
898.587	6519.88
898.766	6540.36
898.945	7011.39
899.124	6689.86
899.304	6364.23
899.483	6968.38
899.662	7343.16
899.841	6347.85
900.02	6376.52
900.199	6952
900.378	6657.09
900.557	6462.54
900.737	6290.51
900.916	6767.68
901.095	6966.34
901.274	6722.63
901.453	6362.19
901.632	6562.89
901.811	6470.73
901.989	6310.99
902.168	6347.85
902.347	6743.11
902.526	6571.08
902.705	6407.24
902.884	6587.46
903.063	7195.71
903.242	7136.32
903.42	6175.82
903.599	6454.34
903.778	6919.23
903.957	7093.31
904.135	6626.37
904.314	6511.69
904.493	6661.19
904.672	6769.73
904.85	6470.73
905.029	6460.49
905.207	6806.59
905.386	7339.07
905.565	6077.52
905.743	6276.17
905.922	6366.28
906.1	6571.08
906.279	6089.81
906.457	6138.96
906.636	6589.51
906.814	6552.65
906.993	6290.51
907.171	6128.72
907.35	6579.27
907.528	6753.35
907.707	6272.07
907.885	6122.57
908.063	6904.9
908.242	6102.09
908.42	6179.92
908.598	5889.1
908.777	6583.37
908.955	6442.06
909.133	6255.69
909.311	6067.28
909.49	6503.5
909.668	6270.03
909.846	6198.35
910.024	5745.75
910.202	6417.48
910.38	6388.81
910.559	6042.7
910.737	6061.13
910.915	6388.81
911.093	6521.93
911.271	6218.83
911.449	6452.3
911.627	6534.21
911.805	6798.4
911.983	5997.65
912.161	6054.99
912.339	6480.97
912.517	6505.54
912.695	6028.37
912.872	5958.74
913.05	5985.36
913.228	6267.98
913.406	6024.27
913.584	5782.61
913.762	6249.55
913.939	6091.85
914.117	5909.58
914.295	5676.12
914.473	6194.25
914.65	6118.48
914.828	5686.36
915.006	5655.64
915.184	5798.99
915.361	6147.15
915.539	5930.06
915.716	5798.99
915.894	6184.01
916.072	6194.25
916.249	5823.57
916.427	6044.75
916.604	5633.11
916.782	6100.05
916.959	5618.77
917.137	5676.12
917.314	6052.94
917.492	6153.29
917.669	5694.55
917.847	5643.35
918.024	5958.74
918.201	5710.93
918.379	5659.73
918.556	5690.45
918.733	6130.77
918.911	5579.86
919.088	5694.55
919.265	5497.94
919.442	5901.39
919.62	5510.23
919.797	5618.77
919.974	5395.54
920.151	5774.42
920.328	5602.39
920.506	5485.65
920.683	5776.47
920.86	5325.91
921.037	5434.46
921.214	5368.92
921.391	5444.7
921.568	5864.53
921.745	5469.27
921.922	5325.91
922.099	5215.32
922.276	5780.56
922.453	5549.14
922.63	5315.67
922.807	5473.37
922.984	5618.77
923.161	5262.43
923.338	5311.58
923.514	5063.77
923.691	5422.17
923.868	5618.77
924.045	5110.88
924.222	4990.05
924.399	5422.17
924.575	5524.57
924.752	5256.28
924.929	5131.36
925.105	5352.54
925.282	5153.88
925.459	5080.16
925.635	5198.94
925.812	5225.56
925.989	5200.99
926.165	4981.85
926.342	4631.65
926.518	4922.46
926.695	5121.12
926.871	5004.38
927.048	4791.39
927.224	5332.06
927.401	4975.71
927.577	4779.11
927.754	4682.85
927.93	5241.95
928.107	5282.91
928.283	4658.28
928.459	4944.99
928.636	5203.04
928.812	4734.05
928.988	4562.02
929.165	4469.86
929.341	4932.7
929.517	4916.32
929.693	4887.65
929.87	4316.26
930.046	4873.31
930.222	4803.68
930.398	4543.59
930.574	4492.39
930.751	4879.46
930.927	4619.36
931.103	4488.29
931.279	4463.72
931.455	4559.97
931.631	4758.63
931.807	4232.3
931.983	4355.18
932.159	4473.96
932.335	4686.95
932.511	4428.9
932.687	4146.28
932.863	4539.49
933.039	4394.09
933.215	4154.48
933.391	4021.36
933.566	4410.47
933.742	4299.88
933.918	4037.74
934.094	3894.38
934.27	4285.55
934.445	4211.82
934.621	4070.51
934.797	3900.53
934.973	4299.88
935.148	4316.26
935.324	3822.7
935.5	3466.36
935.675	4271.21
935.851	4156.52
936.027	3708.02
936.202	3626.1
936.378	3939.44
936.553	3703.92
936.729	3794.03
936.904	3492.98
937.08	3333.24
937.255	3316.86
937.431	3181.69
937.606	3177.59
937.782	3230.84
937.957	3443.83
938.133	3134.59
938.308	3091.58
938.483	3167.35
938.659	3064.96
938.834	3019.9
939.009	2833.54
939.185	2950.27
939.36	2839.68
939.535	2428.04
939.71	2876.54
939.886	3202.17
940.061	3048.57
940.236	2698.37
940.411	2716.8
940.586	2788.48
940.761	2970.75
940.937	2479.24
941.112	2280.58
941.287	2784.38
941.462	2727.04
941.637	2305.16
941.812	2438.28
941.987	2665.6
942.162	2567.3
942.337	2473.09
942.512	2407.56
942.687	2886.78
942.862	2702.47
943.037	2309.26
943.212	1983.63
943.386	2432.13
943.561	2421.89
943.736	2317.45
943.911	2524.29
944.086	2610.31
944.26	2499.72
944.435	2184.33
944.61	2364.55
944.785	2692.23
944.959	2798.72
945.134	2299.02
945.309	2038.92
945.483	2217.1
945.658	2612.35
945.833	1991.82
946.007	2055.31
946.182	2722.95
946.357	2126.99
946.531	2063.5
946.706	2090.12
946.88	1997.96
947.055	2434.18
947.229	2018.44
947.404	2002.06
947.578	2606.21
947.752	2198.67
947.927	1965.2
948.101	1920.14
948.276	2436.23
948.45	2393.22
948.624	2215.05
948.799	2065.55
948.973	2460.81
949.147	2014.35
949.321	2139.27
949.496	2106.51
949.67	2591.88
949.844	2243.72
950.018	2104.46
950.193	2096.27
950.367	2866.3
950.541	2270.34
950.715	2321.54
950.889	2440.33
951.063	2344.07
951.237	2479.24
951.411	1909.9
951.585	1965.2
951.759	2469
951.933	2346.12
952.107	2251.91
952.281	2327.69
952.455	2751.62
952.629	2542.72
952.803	2153.61
952.977	2145.42
953.151	2598.02
953.325	2483.33
953.499	2243.72
953.672	2006.16
953.846	2112.65
954.02	2368.65
954.194	2034.83
954.368	2219.14
954.541	2516.1
954.715	2229.38
954.889	2251.91
955.062	1942.67
955.236	2362.5
955.41	2176.14
955.583	2133.13
955.757	1903.76
955.93	2188.43
956.104	2053.26
956.278	1983.63
956.451	2237.58
956.625	2460.81
956.798	2751.62
956.972	2489.48
957.145	2010.25
957.319	2182.28
957.492	2362.5
957.665	2182.28
957.839	2014.35
958.012	2362.5
958.185	2061.45
958.359	2129.03
958.532	2258.06
958.705	2432.13
958.879	2423.94
959.052	2165.9
959.225	1817.74
959.398	2337.93
959.572	2391.17
959.745	1920.14
959.918	2143.37
960.091	2280.58
960.264	2368.65
960.438	1903.76
960.611	1967.24
960.784	2514.05
960.957	2094.22
961.13	2370.69
961.303	1940.62
961.476	2239.62
961.649	2501.76
961.822	2049.16
961.995	2129.03
962.168	2364.55
962.341	2260.1
962.514	2077.83
962.686	1899.66
962.859	2438.28
963.032	2303.11
963.205	2071.69
963.378	1967.24
963.551	2350.21
963.723	2165.9
963.896	2047.12
964.069	2161.8
964.242	2247.82
964.414	2546.82
964.587	2112.65
964.76	2141.32
964.932	2315.4
965.105	2196.62
965.278	1885.33
965.45	1903.76
965.623	2237.58
965.795	2403.46
965.968	1895.57
966.14	1881.23
966.313	2104.46
966.485	2184.33
966.658	2000.01
966.83	1983.63
967.003	2290.82
967.175	2321.54
967.348	2061.45
967.52	1928.33
967.692	2534.53
967.865	2247.82
968.037	1926.29
968.209	2233.48
968.382	2147.47
968.554	2462.85
968.726	1957
968.898	1838.22
969.071	2137.23
969.243	2235.53
969.415	1981.58
969.587	1973.39
969.759	2751.62
969.932	2325.64
970.104	1975.44
970.276	1635.47
970.448	1969.29
970.62	2192.52
970.792	2022.54
970.964	1934.48
971.136	2626.69
971.308	2213
971.48	1830.03
971.652	1887.37
971.824	2411.65
971.996	2032.78
972.168	1848.46
972.339	1995.92
972.511	2409.61
972.683	2036.88
972.855	2100.36
973.027	1957
973.199	2083.98
973.37	2149.51
973.542	1932.43
973.714	2004.11
973.886	2157.71
974.057	2358.41
974.229	1870.99
974.401	1811.6
974.572	1885.33
974.744	1569.94
974.915	1739.92
975.087	1940.62
975.259	2403.46
975.43	1954.96
975.602	1899.66
975.773	1768.59
975.945	1901.71
976.116	2204.81
976.288	1715.34
976.459	1973.39
976.63	2030.73
976.802	2178.19
976.973	1713.3
977.145	1959.05
977.316	2391.17
977.487	2526.34
977.659	2018.44
977.83	1850.51
978.001	2442.37
978.172	1987.72
978.344	1754.26
978.515	1688.72
978.686	1911.95
978.857	2327.69
979.028	1911.95
979.2	1774.74
979.371	2051.21
979.542	1987.72
979.713	1959.05
979.884	1365.14
980.055	1856.65
980.226	1957
980.397	1633.43
980.568	1574.03
980.739	2272.39
980.91	1854.61
981.081	1797.26
981.252	1715.34
981.423	2081.93
981.594	2174.09
981.765	1592.47
981.936	1690.77
982.106	1924.24
982.277	2258.06
982.448	1666.19
982.619	1813.65
982.79	1883.28
982.96	2092.17
983.131	1836.17
983.302	1410.2
983.472	1688.72
983.643	1862.8
983.814	1827.98
983.984	1600.66
984.155	1690.77
984.326	2133.13
984.496	1764.5
984.667	1621.14
984.837	1596.56
985.008	2112.65
985.178	1832.08
985.349	1619.09
985.519	1776.78
985.69	1698.96
985.86	1696.91
986.031	1576.08
986.201	2002.06
986.371	1879.18
986.542	1457.3
986.712	1295.51
986.882	1940.62
987.053	1901.71
987.223	1475.73
987.393	1604.75
987.563	1580.18
987.734	1967.24
987.904	1891.47
988.074	1703.06
988.244	1750.16
988.414	1598.61
988.585	1459.35
988.755	1737.87
988.925	1918.09
989.095	2225.29
989.265	1461.4
989.435	1637.52
989.605	1971.34
989.775	1961.1
989.945	1746.06
990.115	1399.96
990.285	1729.68
990.455	1891.47
990.625	1584.27
990.795	1408.15
990.965	1989.77
991.134	1516.69
991.304	1393.81
991.474	1485.97
991.644	1836.17
991.814	2100.36
991.984	1246.36
992.153	1424.53
992.323	1594.51
992.493	1848.46
992.662	1041.56
992.832	1608.85
993.002	1725.58
993.171	1631.38
993.341	1428.63
993.511	1559.7
993.68	1547.41
993.85	1903.76
994.019	1248.41
994.189	1270.94
994.358	1760.4
994.528	1614.99
994.697	1076.38
994.867	1248.41
995.036	1701.01
995.206	1447.06
995.375	1275.03
995.544	1445.01
995.714	1637.52
995.883	1453.2
996.052	1596.56
996.222	1137.82
996.391	2047.12
996.56	1729.68
996.73	1213.59
996.899	1164.44
997.068	1905.81
997.237	1598.61
997.406	1264.79
997.576	1129.63
997.745	1639.57
997.914	1555.6
998.083	986.27
998.252	1244.31
998.421	1500.31
998.59	1272.98
998.759	1172.63
998.928	1037.47
999.097	1875.09
999.266	1586.32
999.435	1361.05
999.604	1086.62
999.773	1975.44
999.942	1404.05
1000.111	1057.95
1000.28	963.74
1000.448	1256.6
1000.617	1262.74
1000.786	1442.96
1000.955	978.08
1001.124	1596.56
1001.292	2258.06
1001.461	1209.5
1001.63	1096.86
1001.798	1789.07
1001.967	1744.02
1002.136	1051.8
1002.304	1049.75
1002.473	1571.99
1002.642	1498.26
1002.81	1189.02
1002.979	1105.05
1003.147	1596.56
1003.316	1967.24
1003.484	1090.71
1003.653	1027.23
1003.821	1727.63
1003.99	1367.19
1004.158	1281.18
1004.327	1223.83
1004.495	1531.03
1004.663	1297.56
1004.832	1211.54
1005	859.29
1005.168	1481.88
1005.337	1422.48
1005.505	896.16
1005.673	1281.18
1005.842	1457.3
1006.01	1449.11
1006.178	896.16
1006.346	1027.23
1006.514	1363.09
1006.683	1674.39
1006.851	902.3
1007.019	902.3
1007.187	1141.91
1007.355	818.33
1007.523	859.29
1007.691	908.44
1007.859	875.68
1008.027	1533.08
1008.195	1039.51
1008.363	873.63
1008.531	1404.05
1008.699	1318.04
1008.867	849.05
1009.035	904.35
1009.203	1633.43
1009.37	1252.5
1009.538	900.25
1009.706	1299.61
1009.874	1467.54
1010.042	1195.16
1010.209	744.61
1010.377	781.47
1010.545	1414.29
1010.713	1270.94
1010.88	742.56
1011.048	900.25
1011.216	1141.91
1011.383	1449.11
1011.551	857.25
1011.718	834.72
1011.886	1485.97
1012.054	1164.44
1012.221	777.37
1012.389	775.33
1012.556	1197.21
1012.724	1612.95
1012.891	898.2
1013.058	703.65
1013.226	1318.04
1013.393	1371.29
1013.561	681.12
1013.728	597.15
1013.895	1348.76
1014.063	1275.03
1014.23	695.46
1014.397	824.48
1014.565	1287.32
1014.732	1150.11
1014.899	758.94
1015.066	582.82
1015.233	1182.87
1015.401	1297.56
1015.568	867.49
1015.735	912.54
1015.902	1143.96
1016.069	1236.12
1016.236	695.46
1016.403	777.37
1016.57	853.15
1016.737	1404.05
1016.904	785.57
1017.071	586.91
1017.238	959.64
1017.405	1270.94
1017.572	771.23
1017.739	879.77
1017.906	1299.61
1018.073	1395.86
1018.24	617.63
1018.407	760.99
1018.573	1295.51
1018.74	1051.8
1018.907	859.29
1019.074	566.43
1019.241	1244.31
1019.407	1035.42
1019.574	670.88
1019.741	566.43
1019.907	1109.15
1020.074	1170.58
1020.241	425.12
1020.407	564.39
1020.574	1084.57
1020.74	1123.48
1020.907	691.36
1021.073	611.49
1021.24	1506.45
1021.406	1375.38
1021.573	584.87
1021.739	634.02
1021.906	1172.63
1022.072	935.07
1022.239	554.15
1022.405	601.25
1022.571	1014.94
1022.738	898.2
1022.904	617.63
1023.07	715.94
1023.237	1027.23
1023.403	1227.93
1023.569	652.45
1023.735	672.93
1023.902	1080.47
1024.068	1064.09
1024.234	582.82
1024.4	550.05
1024.566	990.36
1024.732	1162.39
1024.898	492.71
1025.065	398.5
1025.231	1055.9
1025.397	847.01
1025.563	517.28
1025.729	484.52
1025.895	496.8
1026.061	713.89
1026.227	298.15
1026.392	629.92
1026.558	1107.1
1026.724	930.97
1026.89	490.66
1027.056	539.81
1027.222	906.4
1027.388	855.2
1027.553	445.6
1027.719	507.04
1027.885	1225.88
1028.051	994.46
1028.216	244.9
1028.382	492.71
1028.548	1006.75
1028.713	777.37
1028.879	408.74
1029.045	644.26
1029.21	1176.73
1029.376	1105.05
1029.541	523.43
1029.707	461.99
1029.873	957.6
1030.038	1092.76
1030.204	402.6
1030.369	539.81
1030.534	1019.04
1030.7	701.6
1030.865	478.37
1031.031	449.7
1031.196	908.44
1031.361	822.43
1031.527	339.11
1031.692	359.59
1031.857	470.18
1032.023	961.69
1032.188	359.59
1032.353	511.14
1032.518	1129.63
1032.684	869.53
1032.849	359.59
1033.014	478.37
1033.179	953.5
1033.344	941.21
1033.509	523.43
1033.674	500.9
1033.839	976.03
1034.004	896.16
1034.17	404.64
1034.335	265.38
1034.5	640.16
1034.664	629.92
1034.829	314.53
1034.994	390.31
1035.159	750.75
1035.324	879.77
1035.489	404.64
1035.654	277.67
1035.819	1064.09
1035.984	711.84
1036.148	310.44
1036.313	433.32
1036.478	912.54
1036.643	646.3
1036.807	328.87
1036.972	267.43
1037.137	1103
1037.301	740.51
1037.466	173.22
1037.631	445.6
1037.795	933.02
1037.96	812.19
1038.124	476.32
1038.289	265.38
1038.454	904.35
1038.618	941.21
1038.783	359.59
1038.947	392.36
1039.111	683.17
1039.276	662.69
1039.44	287.91
1039.605	793.76
1039.769	615.59
1039.933	648.35
1040.098	392.36
1040.262	535.71
1040.426	863.39
1040.591	804
1040.755	234.66
1040.919	367.78
1041.083	797.85
1041.248	601.25
1041.412	81.07
1041.576	279.72
1041.74	654.5
1041.904	797.85
1042.068	193.7
1042.232	363.69
1042.397	842.91
1042.561	728.22
1042.725	-2.9
1042.889	335.01
1043.053	797.85
1043.217	750.75
1043.381	359.59
1043.544	54.44
1043.708	787.61
1043.872	388.26
1044.036	17.58
1044.2	167.08
1044.364	836.77
1044.528	982.17
1044.691	3095.68
1044.855	103.59
1045.019	851.1
1045.183	724.13
1045.346	212.14
1045.51	132.26
1045.674	732.32
1045.837	744.61
1046.001	189.61
1046.165	285.86
1046.328	1096.86
1046.492	681.12
1046.655	302.25
1046.819	232.62
1046.983	478.37
1047.146	658.59
1047.31	277.67
1047.473	48.3
1047.636	511.14
1047.8	486.56
1047.963	242.85
1048.127	119.98
1048.29	466.08
