Data from Ink_Intensity_USB4F045381__50__00050.txt Node

Date: Mon Jul 17 10:13:17 EDT 2023
User: mmckonesweet
Spectrometer: USB4F04538
Trigger mode: 4
Integration Time (sec): 9.000000E-1
Scans to average: 1
Electric dark correction enabled: true
Nonlinearity correction enabled: false
Boxcar width: 0
XAxis mode: Wavelengths
Number of Pixels in Spectrum: 3648
>>>>>Begin Spectral Data<<<<<
345.52	-930.97
345.736	-930.97
345.952	-930.97
346.168	-990.36
346.384	-951.45
346.6	-126.12
346.816	-289.96
347.032	-195.75
347.248	269.14
347.464	-230.57
347.68	-146.6
347.896	164.69
348.112	351.06
348.328	-1.19
348.544	-160.94
348.76	113.49
348.975	252.75
349.191	-263.33
349.407	-101.55
349.623	54.1
349.839	-27.82
350.055	-181.42
350.27	19.29
350.486	168.79
350.702	365.39
350.918	301.9
351.133	-199.85
351.349	115.54
351.565	516.94
351.781	-240.81
351.996	33.62
352.212	260.95
352.428	-113.83
352.644	-208.04
352.859	-201.9
353.075	273.23
353.291	-21.67
353.506	-136.36
353.722	-226.47
353.938	-64.68
354.153	439.12
354.369	47.96
354.584	-259.24
354.8	201.55
355.016	-312.49
355.231	-283.81
355.447	-54.44
355.662	74.58
355.878	852.81
356.093	-400.55
356.309	-36.01
356.524	-271.53
356.74	230.23
356.955	-187.56
357.171	-3.24
357.386	133.97
357.602	-222.38
357.817	-101.55
358.033	-171.18
358.248	359.25
358.464	228.18
358.679	-179.37
358.895	-359.59
359.11	7
359.325	359.25
359.541	138.07
359.756	-101.55
359.972	-326.82
360.187	142.16
360.402	-91.31
360.618	-107.69
360.833	906.06
361.048	58.2
361.264	-171.18
361.479	-31.91
361.694	25.43
361.909	158.55
362.125	-152.74
362.34	-134.31
362.555	262.99
362.77	74.58
362.986	-314.53
363.201	-187.56
363.416	205.65
363.631	23.38
363.847	-226.47
364.062	-162.98
364.277	156.5
364.492	95.06
364.707	-179.37
364.922	-378.02
365.138	187.22
365.353	396.11
365.568	-230.57
365.783	-167.08
365.998	129.88
366.213	533.33
366.428	-214.18
366.643	66.39
366.858	246.61
367.073	174.93
367.288	-115.88
367.503	-255.14
367.718	68.44
367.933	306
368.148	-355.49
368.363	-113.83
368.578	31.57
368.793	453.45
369.008	-146.6
369.223	-253.09
369.438	238.42
369.653	412.5
369.868	-279.72
370.083	-279.72
370.298	-3.24
370.513	404.3
370.728	84.82
370.943	-193.7
371.157	-238.76
371.372	443.21
371.587	-269.48
371.802	-298.15
372.017	21.33
372.232	469.84
372.446	-62.63
372.661	-244.9
372.876	215.89
373.091	125.78
373.306	-122.02
373.52	-310.44
373.735	-234.66
373.95	328.53
374.165	-154.79
374.379	-189.61
374.594	-187.56
374.809	107.35
375.023	50
375.238	-185.51
375.453	283.47
375.667	-251.05
375.882	-226.47
376.097	-205.99
376.311	129.88
376.526	-25.77
376.741	-169.13
376.955	105.3
377.17	553.8
377.384	557.9
377.599	-93.35
377.813	-277.67
378.028	518.99
378.242	176.98
378.457	-48.3
378.672	-359.59
378.886	88.92
379.101	19.29
379.315	-306.34
379.53	-214.18
379.744	168.79
379.958	189.27
380.173	-124.07
380.387	-197.8
380.602	136.02
380.816	-156.84
381.031	-183.46
381.245	-97.45
381.459	172.88
381.674	2734.89
381.888	-251.05
382.103	127.83
382.317	-224.42
382.531	426.83
382.746	-124.07
382.96	-156.84
383.174	-156.84
383.388	367.44
383.603	-33.96
383.817	-324.77
384.031	119.64
384.246	428.88
384.46	-68.78
384.674	367.44
384.888	-3.24
385.103	54.1
385.317	-277.67
385.531	-36.01
385.745	387.92
385.959	273.23
386.174	-244.9
386.388	-353.45
386.602	-46.25
386.816	-185.51
387.03	-76.97
387.244	-95.4
387.458	29.52
387.672	326.48
387.887	-277.67
388.101	-335.01
388.315	406.35
388.529	105.3
388.743	-130.22
388.957	-267.43
389.171	267.09
389.385	-195.75
389.599	-197.8
389.813	19.29
390.027	131.92
390.241	627.53
390.455	-154.79
390.669	-142.5
390.883	-124.07
391.097	338.77
391.311	-40.11
391.525	-167.08
391.738	201.55
391.952	119.64
392.166	-36.01
392.38	-154.79
392.594	244.56
392.808	281.43
393.022	-144.55
393.236	-148.65
393.449	131.92
393.663	99.16
393.877	-242.85
394.091	-70.83
394.305	-175.27
394.518	-83.11
394.732	-273.57
394.946	-179.37
395.16	428.88
395.373	78.68
395.587	-205.99
395.801	-179.37
396.015	209.75
396.228	222.03
396.442	-296.1
396.656	-353.45
396.869	314.19
397.083	465.74
397.297	-122.02
397.51	-189.61
397.724	271.19
397.938	109.4
398.151	-345.25
398.365	-298.15
398.578	189.27
398.792	330.58
399.005	-64.68
399.219	-68.78
399.433	109.4
399.646	156.5
399.86	25.43
400.073	23.38
400.287	158.55
400.5	2.9
400.714	0.85
400.927	-140.46
401.141	195.41
401.354	1086.28
401.567	140.12
401.781	-312.49
401.994	281.43
402.208	535.37
402.421	-62.63
402.635	-62.63
402.848	15.19
403.061	234.32
403.275	-101.55
403.488	-271.53
403.701	494.41
403.915	203.6
404.128	15.19
404.341	-107.69
404.555	127.83
404.768	74.58
404.981	-25.77
405.195	-191.66
405.408	451.41
405.621	275.28
405.834	13.14
406.048	-318.63
406.261	369.49
406.474	469.84
406.687	-249
406.9	-95.4
407.114	4.95
407.327	47.96
407.54	-341.16
407.753	-265.38
407.966	-126.12
408.179	181.07
408.392	-220.33
408.605	-363.69
408.819	105.3
409.032	158.55
409.245	-234.66
409.458	15.19
409.671	156.5
409.884	291.66
410.097	-351.4
410.31	15.19
410.523	170.83
410.736	-13.48
410.949	-70.83
411.162	-146.6
411.375	439.12
411.588	303.95
411.801	50
412.014	-289.96
412.227	-15.53
412.44	-138.41
412.653	-214.18
412.865	-19.63
413.078	246.61
413.291	170.83
413.504	-81.07
413.717	-281.77
413.93	224.08
414.143	-177.32
414.356	-134.31
414.568	-314.53
414.781	222.03
414.994	95.06
415.207	-150.7
415.42	-93.35
415.632	226.13
415.845	455.5
416.058	-224.42
416.271	-281.77
416.483	41.81
416.696	457.55
416.909	-240.81
417.121	-222.38
417.334	140.12
417.547	465.74
417.759	-251.05
417.972	-201.9
418.185	-132.26
418.397	205.65
418.61	-222.38
418.823	-259.24
419.035	422.73
419.248	19.29
419.46	-117.93
419.673	-38.06
419.885	160.59
420.098	21.33
420.311	-236.71
420.523	-351.4
420.736	144.21
420.948	84.82
421.161	-119.98
421.373	-343.21
421.586	78.68
421.798	-36.01
422.01	-365.73
422.223	41.81
422.435	-68.78
422.648	209.75
422.86	-167.08
423.073	-191.66
423.285	226.13
423.497	-244.9
423.71	-236.71
423.922	-195.75
424.134	103.25
424.347	330.58
424.559	43.86
424.771	119.64
424.984	-31.91
425.196	127.83
425.408	-371.88
425.621	-273.57
425.833	324.43
426.045	363.34
426.257	-363.69
426.47	-197.8
426.682	119.64
426.894	189.27
427.106	-177.32
427.318	-191.66
427.531	-91.31
427.743	281.43
427.955	-177.32
428.167	318.29
428.379	111.44
428.591	-23.72
428.804	-44.2
429.016	-287.91
429.228	-134.31
429.44	179.03
429.652	4.95
429.864	-271.53
430.076	-11.43
430.288	-27.82
430.5	-105.64
430.712	-46.25
430.924	213.84
431.136	50
431.348	-314.53
431.56	-150.7
431.772	11.09
431.984	-60.59
432.196	-234.66
432.408	-95.4
432.62	-56.49
432.832	219.99
433.044	54.1
433.256	-60.59
433.468	166.74
433.679	-328.87
433.891	-283.81
434.103	-29.87
434.315	306
434.527	209.75
434.739	-66.73
434.95	-142.5
435.162	246.61
435.374	-109.74
435.586	-158.89
435.798	-189.61
436.009	-267.43
436.221	-117.93
436.433	-236.71
436.645	-134.31
436.856	-81.07
437.068	314.19
437.28	-304.29
437.491	43.86
437.703	152.4
437.915	164.69
438.126	-203.94
438.338	111.44
438.55	-44.2
438.761	271.19
438.973	-138.41
439.184	-148.65
439.396	70.48
439.608	213.84
439.819	-332.97
440.031	-85.16
440.242	187.22
440.454	222.03
440.665	-128.17
440.877	-113.83
441.088	144.21
441.3	-130.22
441.511	-310.44
441.723	-261.29
441.934	166.74
442.146	-72.87
442.357	-101.55
442.569	82.77
442.78	86.87
442.991	473.93
443.203	158.55
443.414	-332.97
443.626	256.85
443.837	-234.66
444.048	-236.71
444.26	-343.21
444.471	-11.43
444.682	207.7
444.894	-335.01
445.105	-365.73
445.316	283.47
445.528	176.98
445.739	-79.02
445.95	-146.6
446.161	123.73
446.373	314.19
446.584	-113.83
446.795	-195.75
447.006	127.83
447.217	463.69
447.429	-330.92
447.64	-269.48
447.851	234.32
448.062	-27.82
448.273	-343.21
448.484	-167.08
448.695	183.12
448.907	54.1
449.118	-76.97
449.329	23.38
449.54	-64.68
449.751	-117.93
449.962	-177.32
450.173	-203.94
450.384	273.23
450.595	449.36
450.806	-171.18
451.017	-150.7
451.228	316.24
451.439	228.18
451.65	-173.22
451.861	-464.04
452.072	-165.03
452.283	-52.39
452.494	25.43
452.705	-246.95
452.915	383.82
453.126	60.24
453.337	-64.68
453.548	-277.67
453.759	285.52
453.97	508.75
454.181	-5.29
454.391	-89.26
454.602	82.77
454.813	174.93
455.024	-117.93
455.235	-226.47
455.445	115.54
455.656	201.55
455.867	-48.3
456.078	-214.18
456.288	-117.93
456.499	140.12
456.71	-242.85
456.921	86.87
457.131	176.98
457.342	45.91
457.553	-103.59
457.763	-181.42
457.974	133.97
458.184	324.43
458.395	-240.81
458.606	-351.4
458.816	418.64
459.027	430.93
459.237	-79.02
459.448	-369.83
459.659	314.19
459.869	523.09
460.08	-355.49
460.29	-87.21
460.501	410.45
460.711	-150.7
460.922	-314.53
461.132	-210.09
461.343	650.06
461.553	-314.53
461.764	-324.77
461.974	-175.27
462.184	217.94
462.395	189.27
462.605	-101.55
462.816	-369.83
463.026	88.92
463.236	291.66
463.447	-281.77
463.657	-257.19
463.867	185.17
464.078	-93.35
464.288	-191.66
464.498	-244.9
464.709	-7.34
464.919	23.38
465.129	-109.74
465.339	-300.2
465.55	136.02
465.76	156.5
465.97	-187.56
466.18	-257.19
466.391	236.37
466.601	97.11
466.811	-136.36
467.021	-246.95
467.231	146.26
467.441	328.53
467.651	-115.88
467.862	-433.32
468.072	56.15
468.282	271.19
468.492	-236.71
468.702	-177.32
468.912	140.12
469.122	635.72
469.332	74.58
469.542	-306.34
469.752	199.51
469.962	82.77
470.172	-265.38
470.382	-289.96
470.592	189.27
470.802	320.34
471.012	-79.02
471.222	-167.08
471.432	291.66
471.642	193.36
471.852	-93.35
472.062	-246.95
472.272	-60.59
472.482	-240.81
472.691	-289.96
472.901	-277.67
473.111	93.01
473.321	500.56
473.531	-249
473.741	-109.74
473.95	273.23
474.16	170.83
474.37	-142.5
474.58	-347.3
474.79	418.64
474.999	234.32
475.209	-197.8
475.419	-173.22
475.628	-70.83
475.838	310.1
476.048	-191.66
476.258	-279.72
476.467	416.59
476.677	-60.59
476.886	72.53
477.096	-101.55
477.306	-117.93
477.515	377.68
477.725	-148.65
477.935	-193.7
478.144	373.58
478.354	-60.59
478.563	-103.59
478.773	-216.23
478.982	279.38
479.192	306
479.401	-40.11
479.611	-249
479.82	-201.9
480.03	33.62
480.239	-224.42
480.449	-257.19
480.658	492.37
480.868	-85.16
481.077	-52.39
481.287	-177.32
481.496	193.36
481.705	453.45
481.915	15.19
482.124	121.68
482.333	74.58
482.543	437.07
482.752	-89.26
482.961	-212.14
483.171	301.9
483.38	68.44
483.589	-95.4
483.799	-224.42
484.008	23.38
484.217	258.9
484.426	-142.5
484.636	-283.81
484.845	125.78
485.054	-222.38
485.263	117.59
485.472	-201.9
485.682	521.04
485.891	105.3
486.1	-296.1
486.309	-193.7
486.518	187.22
486.727	453.45
486.936	-201.9
487.146	-7.34
487.355	494.41
487.564	-134.31
487.773	-148.65
487.982	-195.75
488.191	-31.91
488.4	76.63
488.609	-66.73
488.818	-156.84
489.027	670.54
489.236	385.87
489.445	-124.07
489.654	-156.84
489.863	351.06
490.072	117.59
490.281	205.65
490.49	-97.45
490.698	412.5
490.907	463.69
491.116	-179.37
491.325	-375.97
491.534	414.54
491.743	168.79
491.952	-11.43
492.16	0.85
492.369	240.47
492.578	308.05
492.787	-60.59
492.996	-271.53
493.204	19.29
493.413	541.52
493.622	-359.59
493.831	-302.25
494.039	529.23
494.248	-89.26
494.457	-154.79
494.665	-316.58
494.874	299.86
495.083	592.72
495.291	-95.4
495.5	-156.84
495.709	340.82
495.917	232.27
496.126	-7.34
496.335	-140.46
496.543	-7.34
496.752	189.27
496.96	109.4
497.169	-216.23
497.377	125.78
497.586	344.91
497.794	-27.82
498.003	-355.49
498.211	150.36
498.42	488.27
498.628	-46.25
498.837	-99.5
499.045	234.32
499.254	168.79
499.462	-132.26
499.671	-152.74
499.879	473.93
500.087	334.67
500.296	-79.02
500.504	-142.5
500.713	191.31
500.921	629.58
501.129	-175.27
501.338	-152.74
501.546	195.41
501.754	244.56
501.962	-64.68
502.171	-210.09
502.379	174.93
502.587	516.94
502.795	-27.82
503.004	-130.22
503.212	228.18
503.42	418.64
503.628	-152.74
503.837	54.1
504.045	332.62
504.253	633.68
504.461	-150.7
504.669	-312.49
504.877	357.2
505.085	549.71
505.294	-187.56
505.502	93.01
505.71	154.45
505.918	369.49
506.126	-93.35
506.334	-152.74
506.542	109.4
506.75	230.23
506.958	33.62
507.166	-76.97
507.374	45.91
507.582	623.44
507.79	-38.06
507.998	-140.46
508.206	256.85
508.414	295.76
508.622	-162.98
508.83	-162.98
509.037	529.23
509.245	-3.24
509.453	-124.07
509.661	-183.46
509.869	332.62
510.077	119.64
510.285	62.29
510.492	-363.69
510.7	672.59
510.908	78.68
511.116	-52.39
511.324	-146.6
511.531	138.07
511.739	152.4
511.947	39.76
512.155	201.55
512.362	299.86
512.57	-21.67
512.778	-232.62
512.985	-300.2
513.193	435.02
513.401	557.9
513.608	-48.3
513.816	-27.82
514.024	371.54
514.231	537.42
514.439	-99.5
514.646	-15.53
514.854	306
515.061	490.32
515.269	-76.97
515.477	-76.97
515.684	-44.2
515.892	394.06
516.099	-216.23
516.307	-169.13
516.514	439.12
516.722	512.85
516.929	-93.35
517.136	-93.35
517.344	525.13
517.551	349.01
517.759	-128.17
517.966	-13.48
518.173	148.31
518.381	273.23
518.588	-1.19
518.796	-68.78
519.003	400.21
519.21	193.36
519.418	-27.82
519.625	230.23
519.832	125.78
520.039	262.99
520.247	-220.33
520.454	-21.67
520.661	478.03
520.868	340.82
521.076	13.14
521.283	2.9
521.49	721.74
521.697	275.28
521.904	-13.48
522.112	-97.45
522.319	389.97
522.526	394.06
522.733	-132.26
522.94	-48.3
523.147	217.94
523.354	435.02
523.561	-191.66
523.768	39.76
523.975	437.07
524.183	277.33
524.39	52.05
524.597	-138.41
524.804	168.79
525.011	80.72
525.218	-91.31
525.425	-46.25
525.632	584.52
525.838	68.44
526.045	-31.91
526.252	-162.98
526.459	1309.51
526.666	981.83
526.873	-181.42
527.08	-15.53
527.287	525.13
527.494	349.01
527.701	-175.27
527.907	-107.69
528.114	406.35
528.321	301.9
528.528	13.14
528.735	21.33
528.941	54.1
529.148	183.12
529.355	41.81
529.562	-44.2
529.768	746.31
529.975	160.59
530.182	97.11
530.388	-124.07
530.595	486.22
530.802	-44.2
531.008	142.16
531.215	-44.2
531.422	951.11
531.628	951.11
531.835	68.44
532.042	203.6
532.248	131.92
532.455	351.06
532.661	52.05
532.868	23.38
533.074	332.62
533.281	504.65
533.487	29.52
533.694	-89.26
533.9	131.92
534.107	424.78
534.313	0.85
534.52	-68.78
534.726	459.6
534.933	832.33
535.139	0.85
535.345	-68.78
535.552	406.35
535.758	295.76
535.965	88.92
536.171	31.57
536.377	521.04
536.584	562
536.79	9.05
536.996	164.69
537.203	392.02
537.409	453.45
537.615	88.92
537.821	152.4
538.028	480.08
538.234	398.16
538.44	33.62
538.646	103.25
538.853	463.69
539.059	351.06
539.265	359.25
539.471	-162.98
539.677	592.72
539.883	260.95
540.09	66.39
540.296	457.55
540.502	342.86
540.708	183.12
540.914	258.9
541.12	54.1
541.326	447.31
541.532	230.23
541.738	115.54
541.944	111.44
542.15	613.2
542.356	289.62
542.562	33.62
542.768	144.21
542.974	955.21
543.18	822.09
543.386	45.91
543.592	-179.37
543.798	619.34
544.004	682.83
544.21	97.11
544.415	154.45
544.621	392.02
544.827	498.51
545.033	-29.87
545.239	383.82
545.445	125.78
545.651	328.53
545.856	93.01
546.062	107.35
546.268	279.38
546.474	299.86
546.679	195.41
546.885	148.31
547.091	316.24
547.297	873.29
547.502	183.12
547.708	-42.15
547.914	144.21
548.119	512.85
548.325	72.53
548.531	-38.06
548.736	680.78
548.942	258.9
549.147	60.24
549.353	308.05
549.559	592.72
549.764	566.09
549.97	90.96
550.175	109.4
550.381	545.61
550.586	234.32
550.792	191.31
550.997	109.4
551.203	512.85
551.408	516.94
551.614	93.01
551.819	148.31
552.025	789.32
552.23	817.99
552.435	29.52
552.641	316.24
552.846	222.03
553.052	609.1
553.257	217.94
553.462	176.98
553.668	230.23
553.873	729.93
554.078	131.92
554.283	54.1
554.489	369.49
554.694	402.26
554.899	25.43
555.105	351.06
555.31	559.95
555.515	498.51
555.72	140.12
555.925	52.05
556.131	643.92
556.336	256.85
556.541	109.4
556.746	-27.82
556.951	684.87
557.156	754.51
557.361	256.85
557.567	299.86
557.772	955.21
557.977	512.85
558.182	103.25
558.387	215.89
558.592	242.51
558.797	723.79
559.002	314.19
559.207	342.86
559.412	459.6
559.617	795.47
559.822	129.88
560.027	76.63
560.232	504.65
560.437	684.87
560.642	15.19
560.847	115.54
561.051	459.6
561.256	502.61
561.461	275.28
561.666	152.4
561.871	480.08
562.076	586.57
562.281	195.41
562.485	111.44
562.69	650.06
562.895	713.55
563.1	146.26
563.305	133.97
563.509	750.41
563.714	969.54
563.919	181.07
564.123	283.47
564.328	461.65
564.533	781.13
564.737	226.13
564.942	234.32
565.147	813.9
565.351	924.49
565.556	213.84
565.761	357.2
565.965	609.1
566.17	359.25
566.374	183.12
566.579	70.48
566.784	545.61
566.988	408.4
567.193	31.57
567.397	215.89
567.602	127.83
567.806	455.5
568.011	242.51
568.215	310.1
568.42	365.39
568.624	451.41
568.828	250.71
569.033	387.92
569.237	670.54
569.442	635.72
569.646	52.05
569.85	230.23
570.055	490.32
570.259	582.48
570.463	422.73
570.668	275.28
570.872	510.8
571.076	516.94
571.281	422.73
571.485	412.5
571.689	484.17
571.893	684.87
572.098	342.86
572.302	254.8
572.506	662.35
572.71	549.71
572.914	258.9
573.119	332.62
573.323	912.2
573.527	795.47
573.731	349.01
573.935	174.93
574.139	668.49
574.343	342.86
574.547	275.28
574.751	301.9
574.955	873.29
575.159	768.84
575.364	279.38
575.568	226.13
575.772	510.8
575.976	922.44
576.18	316.24
576.383	97.11
576.587	850.76
576.791	619.34
576.995	58.2
577.199	181.07
577.403	815.94
577.607	869.19
577.811	213.84
578.015	365.39
578.219	703.31
578.422	797.51
578.626	316.24
578.83	473.93
579.034	789.32
579.238	731.98
579.442	303.95
579.645	629.58
579.849	623.44
580.053	662.35
580.257	418.64
580.46	422.73
580.664	861
580.868	672.59
581.071	439.12
581.275	459.6
581.479	310.1
581.682	666.44
581.886	314.19
582.09	482.13
582.293	779.08
582.497	799.56
582.7	541.52
582.904	353.1
583.107	658.25
583.311	580.43
583.515	394.06
583.718	490.32
583.922	709.45
584.125	1020.74
584.329	295.76
584.532	471.89
584.735	942.92
584.939	754.51
585.142	242.51
585.346	281.43
585.549	711.5
585.753	482.13
585.956	441.17
586.159	523.09
586.363	1024.84
586.566	797.51
586.769	398.16
586.973	162.64
587.176	768.84
587.379	908.1
587.582	686.92
587.786	592.72
587.989	678.73
588.192	1286.98
588.395	471.89
588.599	682.83
588.802	707.4
589.005	770.89
589.208	445.26
589.411	422.73
589.615	916.3
589.818	1024.84
590.021	648.01
590.224	516.94
590.427	881.48
590.63	844.62
590.833	328.53
591.036	344.91
591.239	582.48
591.442	545.61
591.645	609.1
591.848	432.97
592.051	760.65
592.254	889.67
592.457	447.31
592.66	564.04
592.863	668.49
593.066	799.56
593.269	412.5
593.472	615.24
593.675	500.56
593.878	957.25
594.081	701.26
594.284	340.82
594.486	869.19
594.689	777.03
594.892	643.92
595.095	607.05
595.298	875.34
595.5	633.68
595.703	623.44
595.906	611.15
596.109	1039.17
596.311	932.68
596.514	215.89
596.717	564.04
596.92	928.58
597.122	781.13
597.325	293.71
597.528	408.4
597.73	1033.03
597.933	861
598.136	508.75
598.338	211.79
598.541	899.91
598.743	1030.98
598.946	435.02
599.148	537.42
599.351	1080.13
599.554	1033.03
599.756	688.97
599.959	584.52
600.161	1016.65
600.363	1397.57
600.566	799.56
600.768	590.67
600.971	1205.06
601.173	1008.45
601.376	484.17
601.578	633.68
601.78	979.78
601.983	1454.91
602.185	568.14
602.388	729.93
602.59	990.02
602.792	672.59
602.995	772.94
603.197	527.18
603.399	1057.61
603.601	930.63
603.804	572.24
604.006	584.52
604.208	826.18
604.41	416.59
604.613	754.51
604.815	600.91
605.017	1403.71
605.219	770.89
605.421	873.29
605.623	582.48
605.826	1266.5
606.028	1239.87
606.23	557.9
606.432	586.57
606.634	1321.79
606.836	1178.44
607.038	580.43
607.24	748.36
607.442	932.68
607.644	854.86
607.846	746.31
608.048	486.22
608.25	1155.91
608.452	645.96
608.654	631.63
608.856	389.97
609.058	844.62
609.26	1016.65
609.462	762.7
609.664	742.22
609.866	1354.56
610.067	1219.39
610.269	783.18
610.471	705.35
610.673	699.21
610.875	1084.23
611.077	482.13
611.278	779.08
611.48	920.39
611.682	1319.75
611.884	709.45
612.085	719.69
612.287	613.2
612.489	1039.17
612.69	418.64
612.892	705.35
613.094	1151.81
613.295	965.45
613.497	568.14
613.699	725.83
613.9	1192.77
614.102	1266.5
614.304	787.27
614.505	557.9
614.707	813.9
614.908	987.97
615.11	484.17
615.311	656.2
615.513	1071.94
615.714	1180.48
615.916	623.44
616.117	686.92
616.319	953.16
616.52	1198.92
616.722	686.92
616.923	707.4
617.124	1289.03
617.326	1018.69
617.527	709.45
617.729	873.29
617.93	1151.81
618.131	1184.58
618.333	701.26
618.534	701.26
618.735	744.27
618.937	1334.08
619.138	518.99
619.339	682.83
619.54	1073.99
619.742	836.42
619.943	914.25
620.144	742.22
620.345	1215.3
620.546	1114.95
620.748	611.15
620.949	832.33
621.15	932.68
621.351	992.07
621.552	805.71
621.753	566.09
621.954	576.33
622.155	1420.1
622.356	684.87
622.558	924.49
622.759	926.54
622.96	1436.48
623.161	815.94
623.362	787.27
623.563	1020.74
623.764	1102.66
623.965	867.14
624.166	908.1
624.366	979.78
624.567	1059.65
624.768	486.22
624.969	695.11
625.17	893.77
625.371	1233.73
625.572	817.99
625.773	662.35
625.973	1207.11
626.174	1061.7
626.375	828.23
626.576	850.76
626.777	1110.85
626.977	1602.36
627.178	746.31
627.379	826.18
627.58	953.16
627.78	987.97
627.981	801.61
628.182	977.73
628.382	1248.07
628.583	750.41
628.784	699.21
628.984	1008.45
629.185	1221.44
629.386	1231.68
629.586	824.14
629.787	750.41
629.987	1186.63
630.188	1043.27
630.388	789.32
630.589	873.29
630.79	1598.27
630.99	1088.32
631.191	889.67
631.391	951.11
631.591	1276.74
631.792	1467.2
631.992	1069.89
632.193	854.86
632.393	1522.49
632.594	1008.45
632.794	787.27
632.994	899.91
633.195	1043.27
633.395	1121.09
633.595	846.66
633.796	1102.66
633.996	985.93
634.196	1368.9
634.397	729.93
634.597	987.97
634.797	906.06
634.997	1491.77
635.198	1153.86
635.398	705.35
635.598	1180.48
635.798	1375.04
635.998	1266.5
636.199	848.71
636.399	1078.08
636.599	963.4
636.799	955.21
636.999	1020.74
637.199	1254.21
637.399	1327.94
637.599	875.34
637.799	1098.56
637.999	1135.43
638.199	1506.11
638.399	865.1
638.599	922.44
638.799	1278.79
638.999	1686.33
639.199	1037.13
639.399	996.17
639.599	1598.27
639.799	914.25
639.999	885.58
640.199	824.14
640.399	1260.35
640.599	1180.48
640.799	877.38
640.998	1157.96
641.198	1385.28
641.398	1270.59
641.598	1129.28
641.798	963.4
641.997	2011.96
642.197	1221.44
642.397	1135.43
642.597	953.16
642.796	1329.99
642.996	1620.8
643.196	1055.56
643.395	842.57
643.595	1303.36
643.795	865.1
643.994	955.21
644.194	1043.27
644.394	1407.81
644.593	1233.73
644.793	926.54
644.992	1139.52
645.192	1436.48
645.392	840.52
645.591	1104.71
645.791	1030.98
645.99	1319.75
646.19	1172.29
646.389	1106.76
646.589	1106.76
646.788	1389.38
646.987	1362.75
647.187	1299.27
647.386	1219.39
647.586	1200.96
647.785	1411.9
647.984	1069.89
648.184	1102.66
648.383	1194.82
648.582	1184.58
648.782	1127.24
648.981	1123.14
649.18	1002.31
649.38	1303.36
649.579	996.17
649.778	938.82
649.977	1434.43
650.177	1372.99
650.376	1047.37
650.575	955.21
650.774	1606.46
650.973	1078.08
651.173	832.33
651.372	1055.56
651.571	1311.55
651.77	1553.21
651.969	1028.93
652.168	1139.52
652.367	940.87
652.566	1305.41
652.765	934.73
652.964	1194.82
653.163	1809.21
653.362	1184.58
653.561	1016.65
653.76	1041.22
653.959	1272.64
654.158	1413.95
654.357	1270.59
654.556	1114.95
654.755	1463.1
654.954	1538.88
655.153	1123.14
655.352	1182.53
655.551	1594.17
655.749	1119.04
655.948	1086.28
656.147	1151.81
656.346	1459.01
656.545	1278.79
656.743	1184.58
656.942	1182.53
657.141	1522.49
657.34	1045.32
657.538	1147.72
657.737	1110.85
657.936	1250.11
658.135	1512.25
658.333	1067.85
658.532	1170.24
658.731	1784.63
658.929	1575.74
659.128	1510.21
659.326	1188.68
659.525	1741.63
659.724	1289.03
659.922	967.49
660.121	930.63
660.319	1340.22
660.518	1133.38
660.716	922.44
660.915	1104.71
661.113	1733.43
661.312	1141.57
661.51	1211.2
661.709	1108.8
661.907	1508.16
662.105	1723.2
662.304	1239.87
662.502	1284.93
662.701	1749.82
662.899	1307.46
663.097	1487.68
663.296	1016.65
663.494	1717.05
663.692	1743.67
663.891	1086.28
664.089	1016.65
664.287	1585.98
664.485	1596.22
664.684	1080.13
664.882	1338.18
665.08	1350.46
665.278	1479.49
665.476	1006.41
665.675	1493.82
665.873	1995.57
666.071	1741.63
666.269	1188.68
666.467	1395.52
666.665	1493.82
666.863	1401.66
667.061	1198.92
667.259	1090.37
667.457	1555.26
667.655	1512.25
667.853	1121.09
668.051	1299.27
668.249	1250.11
668.447	1553.21
668.645	1110.85
668.843	1381.18
669.041	1540.93
669.239	1323.84
669.437	1327.94
669.635	1360.7
669.833	1352.51
670.031	1624.89
670.229	1332.03
670.426	1377.09
670.624	1454.91
670.822	1342.27
671.02	1280.83
671.218	1381.18
671.415	1194.82
671.613	1375.04
671.811	1454.91
672.009	1303.36
672.206	1606.46
672.404	1430.34
672.602	1434.43
672.799	1315.65
672.997	1534.78
673.195	1710.91
673.392	1270.59
673.59	1170.24
673.788	1692.48
673.985	1043.27
674.183	1225.54
674.38	1315.65
674.578	1618.75
674.775	1366.85
674.973	1272.64
675.17	1209.15
675.368	1893.18
675.565	1676.09
675.763	1135.43
675.96	1102.66
676.158	1805.11
676.355	1420.1
676.553	1272.64
676.75	1325.89
676.947	1456.96
677.145	1364.8
677.342	1352.51
677.539	1471.29
677.737	1459.01
677.934	2054.97
678.131	1481.53
678.329	1299.27
678.526	1858.36
678.723	1710.91
678.92	1401.66
679.118	1227.59
679.315	1268.55
679.512	1866.55
679.709	1426.24
679.906	1479.49
680.104	1780.54
680.301	1657.66
680.498	1114.95
680.695	1231.68
680.892	1389.38
681.089	1409.86
681.286	1311.55
681.483	1127.24
681.68	1655.61
681.877	1694.52
682.075	1237.83
682.272	1569.6
682.469	1547.07
682.665	1389.38
682.862	1278.79
683.059	1131.33
683.256	1729.34
683.453	1561.41
683.65	1385.28
683.847	1389.38
684.044	1459.01
684.241	1278.79
684.438	1454.91
684.635	1309.51
684.831	1966.9
685.028	2059.06
685.225	1276.74
685.422	1520.45
685.619	1516.35
685.815	1573.69
686.012	1465.15
686.209	1375.04
686.405	1219.39
686.602	1700.67
686.799	1184.58
686.996	1289.03
687.192	1268.55
687.389	2044.73
687.586	1334.08
687.782	1350.46
687.979	2081.59
688.175	1874.74
688.372	1438.53
688.568	1375.04
688.765	1430.34
688.962	1846.07
689.158	1538.88
689.355	1196.87
689.551	1721.15
689.748	1424.19
689.944	1585.98
690.14	1168.2
690.337	1837.88
690.533	1528.64
690.73	1575.74
690.926	1350.46
691.123	1633.08
691.319	1618.75
691.515	1192.77
691.712	1598.27
691.908	1733.43
692.104	1594.17
692.301	1391.42
692.497	1282.88
692.693	1731.39
692.889	1827.64
693.086	1588.03
693.282	1215.3
693.478	1618.75
693.674	1958.71
693.87	1440.58
694.067	1325.89
694.263	1600.32
694.459	1465.15
694.655	1532.73
694.851	1547.07
695.047	1667.9
695.243	1794.87
695.439	1596.22
695.635	1424.19
695.831	1792.83
696.027	1626.94
696.224	1276.74
696.42	1686.33
696.615	1893.18
696.811	1786.68
697.007	1194.82
697.203	1344.32
697.399	1639.23
697.595	1682.24
697.791	1297.22
697.987	1581.89
698.183	1207.11
698.379	1383.23
698.575	1532.73
698.77	1389.38
698.966	1844.03
699.162	1753.91
699.358	1483.58
699.554	1432.38
699.749	1708.86
699.945	1839.93
700.141	1403.71
700.337	1577.79
700.532	1573.69
700.728	1362.75
700.924	1342.27
701.119	1274.69
701.315	1741.63
701.511	1463.1
701.706	1495.87
701.902	1258.31
702.097	1598.27
702.293	1753.91
702.489	1401.66
702.684	1368.9
702.88	1549.12
703.075	1557.31
703.271	1360.7
703.466	1395.52
703.662	1643.32
703.857	1696.57
704.053	1366.85
704.248	1385.28
704.443	1712.96
704.639	1786.68
704.834	1463.1
705.03	1405.76
705.225	1729.34
705.42	1874.74
705.616	1633.08
705.811	1397.57
706.006	1459.01
706.202	1506.11
706.397	1512.25
706.592	1237.83
706.787	1694.52
706.983	1612.6
707.178	1692.48
707.373	1528.64
707.568	1839.93
707.763	1905.46
707.959	1424.19
708.154	1375.04
708.349	1723.2
708.544	1680.19
708.739	1616.7
708.934	1459.01
709.129	1809.21
709.324	1895.22
709.519	1438.53
709.714	1293.12
709.909	1940.28
710.104	1733.43
710.299	1463.1
710.494	1473.34
710.689	1778.49
710.884	1674.04
711.079	1549.12
711.274	1676.09
711.469	1760.06
711.664	1731.39
711.859	1372.99
712.054	1450.82
712.249	1792.83
712.443	1938.23
712.638	1248.07
712.833	1428.29
713.028	1602.36
713.223	1571.65
713.417	1815.35
713.612	1452.86
713.807	1792.83
714.002	2210.61
714.196	1551.17
714.391	1473.34
714.586	1876.79
714.78	1508.16
714.975	1409.86
715.17	1467.2
715.364	1557.31
715.559	1889.08
715.754	1117
715.948	1338.18
716.143	2095.93
716.337	1686.33
716.532	1751.87
716.726	1413.95
716.921	2011.96
717.115	2204.47
717.31	1321.79
717.504	1862.46
717.699	1602.36
717.893	1692.48
718.088	1358.66
718.282	1274.69
718.476	1647.42
718.671	1731.39
718.865	1450.82
719.059	1479.49
719.254	1612.6
719.448	1930.04
719.642	2700.08
719.837	1241.92
720.031	1911.61
720.225	1858.36
720.419	1628.99
720.614	1327.94
720.808	1934.14
721.002	1766.2
721.196	1401.66
721.39	1340.22
721.585	1948.47
721.779	1782.59
721.973	1434.43
722.167	1155.91
722.361	1633.08
722.555	1925.94
722.749	1442.62
722.943	1471.29
723.137	1360.7
723.331	1803.07
723.525	1411.9
723.719	1346.37
723.913	1833.79
724.107	1954.62
724.301	1270.59
724.495	1579.84
724.689	2083.64
724.883	2032.44
725.077	1426.24
725.271	1405.76
725.465	1874.74
725.659	1536.83
725.853	1540.93
726.046	1379.14
726.24	1536.83
726.434	1940.28
726.628	1336.13
726.822	1569.6
727.015	1981.24
727.209	2071.35
727.403	1446.72
727.596	1272.64
727.79	1917.75
727.984	1839.93
728.177	1549.12
728.371	1569.6
728.565	2020.15
728.758	1418.05
728.952	1352.51
729.146	1522.49
729.339	2059.06
729.533	1708.86
729.726	1549.12
729.92	1317.7
730.113	2030.39
730.307	1733.43
730.5	1512.25
730.694	1530.69
730.887	1618.75
731.081	1790.78
731.274	1342.27
731.468	1612.6
731.661	1655.61
731.854	1536.83
732.048	1493.82
732.241	1368.9
732.435	1557.31
732.628	1786.68
732.821	1528.64
733.014	1338.18
733.208	1424.19
733.401	1899.32
733.594	1602.36
733.788	1465.15
733.981	2009.91
734.174	1764.15
734.367	1495.87
734.56	1667.9
734.754	1882.94
734.947	1796.92
735.14	1399.62
735.333	1542.97
735.526	1923.9
735.719	1504.06
735.912	1350.46
736.105	1418.05
736.298	1839.93
736.491	1614.65
736.684	1516.35
736.877	1522.49
737.07	1737.53
737.263	2124.6
737.456	1526.59
737.649	1461.06
737.842	1676.09
738.035	1760.06
738.228	1514.3
738.421	1741.63
738.614	1997.62
738.807	1815.35
739	1346.37
739.192	1493.82
739.385	1909.56
739.578	1950.52
739.771	1897.27
739.964	1504.06
740.156	1921.85
740.349	1745.72
740.542	1598.27
740.735	1471.29
740.927	1561.41
741.12	1530.69
741.313	1504.06
741.505	1602.36
741.698	1712.96
741.891	1809.21
742.083	1780.54
742.276	1497.92
742.468	1772.35
742.661	1579.84
742.854	1547.07
743.046	1577.79
743.239	2132.79
743.431	1704.76
743.624	1542.97
743.816	1452.86
744.009	1760.06
744.201	1807.16
744.393	1600.32
744.586	1420.1
744.778	2011.96
744.971	1733.43
745.163	1493.82
745.355	1520.45
745.548	1729.34
745.74	1743.67
745.932	1567.55
746.125	1442.62
746.317	2231.09
746.509	1647.42
746.702	1649.47
746.894	1620.8
747.086	1780.54
747.278	1971
747.471	1659.71
747.663	1698.62
747.855	1819.45
748.047	2194.23
748.239	1514.3
748.431	1465.15
748.623	2212.66
748.815	2167.6
749.008	1377.09
749.2	1307.46
749.392	1878.84
749.584	1913.66
749.776	1454.91
749.968	1649.47
750.16	2194.23
750.352	1653.56
750.544	1610.56
750.736	1397.57
750.928	1715
751.12	1758.01
751.311	1567.55
751.503	1588.03
751.695	1880.89
751.887	1778.49
752.079	1399.62
752.271	1506.11
752.463	2605.87
752.654	1938.23
752.846	1557.31
753.038	1418.05
753.23	1561.41
753.421	1934.14
753.613	1626.94
753.805	1696.57
753.997	2026.29
754.188	2034.49
754.38	1542.97
754.572	1440.58
754.763	1762.11
754.955	1923.9
755.146	1598.27
755.338	1626.94
755.53	1905.46
755.721	1649.47
755.913	1401.66
756.104	1454.91
756.296	1583.93
756.487	1913.66
756.679	1356.61
756.87	1518.4
757.062	1661.76
757.253	1934.14
757.445	1477.44
757.636	1663.8
757.827	1669.95
758.019	2218.8
758.21	1499.97
758.401	1571.65
758.593	2265.91
758.784	2081.59
758.975	1452.86
759.167	1446.72
759.358	1889.08
759.549	2024.25
759.74	1680.19
759.932	1528.64
760.123	2073.4
760.314	1571.65
760.505	1725.24
760.696	1502.01
760.888	2157.36
761.079	1643.32
761.27	1323.84
761.461	1303.36
761.652	2083.64
761.843	1665.85
762.034	1528.64
762.225	1712.96
762.416	1782.59
762.607	1753.91
762.798	1499.97
762.989	1487.68
763.18	2521.9
763.371	1737.53
763.562	1516.35
763.753	1590.08
763.944	1860.41
764.135	1962.81
764.326	1616.7
764.517	1516.35
764.708	1612.6
764.899	1868.6
765.089	1461.06
765.28	1319.75
765.471	1811.26
765.662	1784.63
765.853	1571.65
766.043	1340.22
766.234	1938.23
766.425	2007.86
766.615	1643.32
766.806	1518.4
766.997	2106.17
767.187	1665.85
767.378	1561.41
767.569	1329.99
767.759	1831.74
767.95	1778.49
768.141	1731.39
768.331	1356.61
768.522	1899.32
768.712	1938.23
768.903	1448.77
769.093	1387.33
769.284	2212.66
769.474	1846.07
769.665	1340.22
769.855	1241.92
770.046	1942.33
770.236	1749.82
770.426	1624.89
770.617	1340.22
770.807	1837.88
770.998	1659.71
771.188	1723.2
771.378	1368.9
771.569	1835.83
771.759	1837.88
771.949	1362.75
772.139	1207.11
772.33	1813.31
772.52	2130.74
772.71	1307.46
772.9	1395.52
773.09	2067.25
773.281	2061.11
773.471	1381.18
773.661	1379.14
773.851	2054.97
774.041	1628.99
774.231	1481.53
774.421	1524.54
774.611	2036.53
774.802	1741.63
774.992	1516.35
775.182	1395.52
775.372	1739.58
775.562	1934.14
775.752	1452.86
775.942	1383.23
776.131	1989.43
776.321	1815.35
776.511	1413.95
776.701	1432.38
776.891	1946.42
777.081	1473.34
777.271	1614.65
777.461	1454.91
777.651	1948.47
777.84	1948.47
778.03	1659.71
778.22	1434.43
778.41	1968.95
778.599	1489.73
778.789	1516.35
778.979	1297.22
779.169	1887.03
779.358	1747.77
779.548	1647.42
779.738	1254.21
779.927	1672
780.117	1536.83
780.307	1430.34
780.496	1194.82
780.686	1801.02
780.875	2167.6
781.065	1368.9
781.254	1352.51
781.444	1649.47
781.633	1758.01
781.823	1372.99
782.012	1354.56
782.202	1469.25
782.391	1684.28
782.581	1325.89
782.77	1551.17
782.96	1784.63
783.149	1514.3
783.338	1352.51
783.528	1203.01
783.717	1903.42
783.906	1964.86
784.096	1557.31
784.285	1385.28
784.474	1596.22
784.663	1547.07
784.853	1602.36
785.042	1383.23
785.231	1538.88
785.42	1919.8
785.61	1483.58
785.799	1297.22
785.988	1520.45
786.177	1606.46
786.366	1407.81
786.555	1557.31
786.744	1889.08
786.933	1676.09
787.122	1299.27
787.312	1278.79
787.501	1555.26
787.69	1882.94
787.879	1440.58
788.068	1438.53
788.257	1372.99
788.445	1516.35
788.634	1409.86
788.823	1323.84
789.012	2272.05
789.201	1960.76
789.39	1375.04
789.579	1297.22
789.768	1600.32
789.957	1727.29
790.145	1434.43
790.334	1178.44
790.523	1573.69
790.712	1571.65
790.9	1446.72
791.089	1411.9
791.278	1807.16
791.467	1751.87
791.655	1684.28
791.844	1782.59
792.033	1608.51
792.221	1602.36
792.41	1454.91
792.599	1252.16
792.787	1839.93
792.976	1751.87
793.164	1241.92
793.353	1442.62
793.541	1864.5
793.73	1776.44
793.918	1485.63
794.107	1407.81
794.295	1626.94
794.484	1684.28
794.672	1454.91
794.861	1446.72
795.049	1581.89
795.238	1979.19
795.426	1180.48
795.614	1516.35
795.803	1731.39
795.991	2011.96
796.179	1246.02
796.368	1362.75
796.556	1837.88
796.744	1303.36
796.932	1377.09
797.121	1266.5
797.309	1647.42
797.497	1807.16
797.685	1463.1
797.874	1336.13
798.062	1532.73
798.25	1913.66
798.438	1250.11
798.626	1395.52
798.814	1706.81
799.002	2194.23
799.19	1604.41
799.378	1422.14
799.566	1856.31
799.755	2069.3
799.943	1446.72
800.131	1375.04
800.318	1688.38
800.506	1753.91
800.694	1450.82
800.882	1506.11
801.07	1915.7
801.258	1620.8
801.446	1401.66
801.634	1372.99
801.822	1594.17
802.01	1690.43
802.197	1286.98
802.385	1626.94
802.573	1735.48
802.761	1432.38
802.949	1538.88
803.136	1299.27
803.324	1921.85
803.512	1604.41
803.699	1483.58
803.887	1315.65
804.075	1927.99
804.262	1573.69
804.45	1250.11
804.638	1434.43
804.825	1522.49
805.013	1438.53
805.201	1409.86
805.388	1282.88
805.576	1504.06
805.763	2128.69
805.951	1409.86
806.138	1520.45
806.326	2110.26
806.513	1850.17
806.701	1499.97
806.888	1442.62
807.075	1655.61
807.263	2134.84
807.45	1348.42
807.638	1567.55
807.825	2059.06
808.012	1887.03
808.2	1459.01
808.387	1749.82
808.574	1694.52
808.761	2075.45
808.949	1405.76
809.136	1594.17
809.323	1536.83
809.51	1616.7
809.698	1762.11
809.885	1606.46
810.072	1778.49
810.259	1925.94
810.446	1520.45
810.633	1450.82
810.82	2040.63
811.008	1983.29
811.195	1602.36
811.382	1411.9
811.569	1733.43
811.756	1456.96
811.943	1499.97
812.13	1327.94
812.317	1608.51
812.504	1661.76
812.691	1413.95
812.878	1643.32
813.064	1983.29
813.251	1743.67
813.438	1391.42
813.625	1690.43
813.812	1801.02
813.999	1594.17
814.186	1479.49
814.372	1514.3
814.559	1719.1
814.746	2122.55
814.933	1502.01
815.12	1680.19
815.306	1643.32
815.493	1610.56
815.68	1399.62
815.866	1649.47
816.053	1971
816.24	2177.84
816.426	1639.23
816.613	1342.27
816.799	1880.89
816.986	1964.86
817.173	1557.31
817.359	1495.87
817.546	1835.83
817.732	1491.77
817.919	1172.29
818.105	1631.04
818.292	1825.59
818.478	1866.55
818.665	1647.42
818.851	1575.74
819.037	2171.7
819.224	1766.2
819.41	1446.72
819.597	1448.77
819.783	2122.55
819.969	1835.83
820.156	1616.7
820.342	1405.76
820.528	2329.39
820.714	1807.16
820.901	1712.96
821.087	1530.69
821.273	2210.61
821.459	1645.37
821.646	1487.68
821.832	1502.01
822.018	1760.06
822.204	1864.5
822.39	1545.02
822.576	1350.46
822.762	1895.22
822.948	1884.98
823.134	1635.13
823.32	1575.74
823.507	1432.38
823.693	1872.7
823.879	1839.93
824.065	1516.35
824.25	1798.97
824.436	1508.16
824.622	1669.95
824.808	1463.1
824.994	1610.56
825.18	1661.76
825.366	1514.3
825.552	1585.98
825.738	1649.47
825.923	1977.14
826.109	1680.19
826.295	1450.82
826.481	1628.99
826.667	1626.94
826.852	1672
827.038	1303.36
827.224	1844.03
827.409	2145.08
827.595	1323.84
827.781	1696.57
827.966	2007.86
828.152	1979.19
828.338	1450.82
828.523	1344.32
828.709	1514.3
828.894	1981.24
829.08	1463.1
829.266	1401.66
829.451	1553.21
829.637	1803.07
829.822	1534.78
830.008	1452.86
830.193	1954.62
830.378	2091.83
830.564	1467.2
830.749	1313.6
830.935	1852.22
831.12	1927.99
831.305	1446.72
831.491	1524.54
831.676	1467.2
831.861	1979.19
832.047	1553.21
832.232	1493.82
832.417	1934.14
832.602	1770.3
832.788	1395.52
832.973	1319.75
833.158	1717.05
833.343	1725.24
833.528	1631.04
833.714	1561.41
833.899	1764.15
834.084	2120.5
834.269	1663.8
834.454	1438.53
834.639	1864.5
834.824	1659.71
835.009	1614.65
835.194	1565.5
835.379	1852.22
835.564	2140.98
835.749	1631.04
835.934	1327.94
836.119	1899.32
836.304	1676.09
836.489	1424.19
836.674	1717.05
836.859	1487.68
837.044	2085.69
837.228	1520.45
837.413	1305.41
837.598	1815.35
837.783	1884.98
837.968	1448.77
838.152	1147.72
838.337	1289.03
838.522	2016.05
838.707	1907.51
838.891	1651.52
839.076	1790.78
839.261	1868.6
839.445	1549.12
839.63	1549.12
839.815	2122.55
839.999	1649.47
840.184	1446.72
840.368	1413.95
840.553	1962.81
840.737	1956.66
840.922	1350.46
841.106	1399.62
841.291	1375.04
841.475	1735.48
841.66	1409.86
841.844	1268.55
842.029	2343.73
842.213	1340.22
842.397	1426.24
842.582	1225.54
842.766	1956.66
842.951	1747.77
843.135	1413.95
843.319	1495.87
843.504	1721.15
843.688	1999.67
843.872	1248.07
844.056	1364.8
844.241	1862.46
844.425	1700.67
844.609	1639.23
844.793	1217.35
844.977	1889.08
845.161	1817.4
845.346	1295.17
845.53	1399.62
845.714	1622.84
845.898	2001.72
846.082	1336.13
846.266	1504.06
846.45	1684.28
846.634	1708.86
846.818	1413.95
847.002	1524.54
847.186	1798.97
847.37	1434.43
847.554	1282.88
847.738	1438.53
847.922	1626.94
848.106	1678.14
848.29	1323.84
848.473	1352.51
848.657	1723.2
848.841	1639.23
849.025	1397.57
849.209	1303.36
849.392	1913.66
849.576	1594.17
849.76	975.69
849.944	1567.55
850.127	2007.86
850.311	1393.47
850.495	1246.02
850.678	1231.68
850.862	1919.8
851.046	1997.62
851.229	1545.02
851.413	1192.77
851.596	1585.98
851.78	1594.17
851.964	1459.01
852.147	1362.75
852.331	2315.06
852.514	1905.46
852.698	1467.2
852.881	1182.53
853.065	1803.07
853.248	1641.28
853.431	1540.93
853.615	1444.67
853.798	2186.04
853.982	1755.96
854.165	1444.67
854.348	1329.99
854.532	1454.91
854.715	1446.72
854.898	1420.1
855.081	1379.14
855.265	1844.03
855.448	2114.36
855.631	1317.7
855.814	1289.03
855.997	1827.64
856.181	1426.24
856.364	1473.34
856.547	1131.33
856.73	1690.43
856.913	1538.88
857.096	1209.15
857.279	1383.23
857.462	1342.27
857.645	1815.35
857.828	1452.86
858.011	1401.66
858.194	1516.35
858.377	1753.91
858.56	1311.55
858.743	1481.53
858.926	1348.42
859.109	1674.04
859.292	1223.49
859.475	1213.25
859.658	1911.61
859.841	1620.8
860.023	1123.14
860.206	1155.91
860.389	1542.97
860.572	1807.16
860.755	1356.61
860.937	1395.52
861.12	1465.15
861.303	1538.88
861.486	1284.93
861.668	1196.87
861.851	1788.73
862.034	1731.39
862.216	1413.95
862.399	1141.57
862.581	1723.2
862.764	1913.66
862.947	1381.18
863.129	1246.02
863.312	1297.22
863.494	1887.03
863.677	1620.8
863.859	1155.91
864.042	1659.71
864.224	1874.74
864.406	1387.33
864.589	1196.87
864.771	1631.04
864.954	1315.65
865.136	1270.59
865.318	1141.57
865.501	1815.35
865.683	1268.55
865.865	1166.15
866.048	1258.31
866.23	1516.35
866.412	1508.16
866.594	1147.72
866.777	1364.8
866.959	1661.76
867.141	1385.28
867.323	1579.84
867.505	1395.52
867.687	1528.64
867.869	1446.72
868.052	1360.7
868.234	1121.09
868.416	1475.39
868.598	1737.53
868.78	1368.9
868.962	1098.56
869.144	1729.34
869.326	1764.15
869.508	1364.8
869.69	1155.91
869.872	1340.22
870.054	1786.68
870.236	1127.24
870.417	1311.55
870.599	1479.49
870.781	2022.2
870.963	1356.61
871.145	1172.29
871.327	1239.87
871.508	1745.72
871.69	1254.21
871.872	1401.66
872.054	1471.29
872.235	1655.61
872.417	1317.7
872.599	1184.58
872.78	1870.65
872.962	1612.6
873.144	996.17
873.325	1368.9
873.507	1860.41
873.689	1579.84
873.87	1137.48
874.052	1377.09
874.233	1524.54
874.415	1645.37
874.596	1338.18
874.778	1141.57
874.959	1571.65
875.141	1866.55
875.322	1268.55
875.503	1252.16
875.685	1651.52
875.866	1157.96
876.048	1133.38
876.229	1160
876.41	1555.26
876.592	1524.54
876.773	1213.25
876.954	998.21
877.136	1868.6
877.317	1438.53
877.498	1110.85
877.679	1340.22
877.86	1745.72
878.042	1540.93
878.223	1160
878.404	1536.83
878.585	1696.57
878.766	1921.85
878.947	1530.69
879.128	1393.47
879.309	1635.13
879.49	1749.82
879.672	1317.7
879.853	1223.49
880.034	1372.99
880.215	1575.74
880.396	1403.71
880.576	1364.8
880.757	1350.46
880.938	1796.92
881.119	1418.05
881.3	1227.59
881.481	1422.14
881.662	2362.16
881.843	1295.17
882.023	1160
882.204	1633.08
882.385	1565.5
882.566	1297.22
882.747	1274.69
882.927	1407.81
883.108	1602.36
883.289	1110.85
883.469	1577.79
883.65	1452.86
883.831	1485.63
884.011	1514.3
884.192	1329.99
884.373	1803.07
884.553	1655.61
884.734	1489.73
884.914	1618.75
885.095	2175.8
885.275	2011.96
885.456	1635.13
885.636	1207.11
885.817	1665.85
885.997	1553.21
886.178	1299.27
886.358	1504.06
886.538	1639.23
886.719	2671.4
886.899	1299.27
887.08	1438.53
887.26	1887.03
887.44	1348.42
887.621	1225.54
887.801	1569.6
887.981	2153.27
888.161	1819.45
888.342	1461.06
888.522	1397.57
888.702	1753.91
888.882	1887.03
889.062	1616.7
889.242	1047.37
889.423	2014.01
889.603	1680.19
889.783	1504.06
889.963	1293.12
890.143	1821.5
890.323	1837.88
890.503	1532.73
890.683	1350.46
890.863	1745.72
891.043	1819.45
891.223	1561.41
891.403	1606.46
891.583	1733.43
891.763	1594.17
891.943	1420.1
892.122	1317.7
892.302	1631.04
892.482	1557.31
892.662	1643.32
892.842	1461.06
893.022	1841.98
893.201	1534.78
893.381	1618.75
893.561	1475.39
893.741	1827.64
893.92	1798.97
894.1	1588.03
894.28	1569.6
894.459	1895.22
894.639	1786.68
894.819	1432.38
894.998	1588.03
895.178	1725.24
895.357	1852.22
895.537	1424.19
895.716	1241.92
895.896	1626.94
896.075	1956.66
896.255	1413.95
896.434	1309.51
896.614	1850.17
896.793	2050.87
896.973	1489.73
897.152	1575.74
897.331	1788.73
897.511	1841.98
897.69	1289.03
897.87	1622.84
898.049	1831.74
898.228	1665.85
898.407	1524.54
898.587	1553.21
898.766	1596.22
898.945	1786.68
899.124	1583.93
899.304	1612.6
899.483	1858.36
899.662	2085.69
899.841	1262.4
900.02	1436.48
900.199	2054.97
900.378	1927.99
900.557	1368.9
900.737	1364.8
900.916	1833.79
901.095	1895.22
901.274	1829.69
901.453	1200.96
901.632	1483.58
901.811	1547.07
901.989	1356.61
902.168	1293.12
902.347	1798.97
902.526	1590.08
902.705	1454.91
902.884	1598.27
903.063	1968.95
903.242	1971
903.42	1325.89
903.599	1446.72
903.778	1811.26
903.957	2030.39
904.135	1545.02
904.314	1581.89
904.493	1727.29
904.672	1745.72
904.85	1538.88
905.029	1301.31
905.207	1864.5
905.386	2415.41
905.565	1364.8
905.743	1430.34
905.922	1532.73
906.1	1930.04
906.279	1389.38
906.457	1348.42
906.636	1516.35
906.814	1598.27
906.993	1405.76
907.171	1256.26
907.35	1741.63
907.528	1846.07
907.707	1610.56
907.885	1454.91
908.063	2073.4
908.242	1454.91
908.42	1409.86
908.598	1141.57
908.777	1784.63
908.955	1563.45
909.133	1467.2
909.311	1176.39
909.49	1616.7
909.668	1651.52
909.846	1360.7
910.024	1073.99
910.202	1631.04
910.38	1690.43
910.559	1344.32
910.737	1305.41
910.915	1647.42
911.093	1682.24
911.271	1319.75
911.449	1463.1
911.627	1737.53
911.805	2159.41
911.983	1313.6
912.161	1291.07
912.339	1741.63
912.517	1989.43
912.695	1479.49
912.872	1334.08
913.05	1413.95
913.228	1626.94
913.406	1309.51
913.584	1215.3
913.762	1721.15
913.939	1518.4
914.117	1286.98
914.295	1190.72
914.473	1680.19
914.65	1708.86
914.828	1360.7
915.006	1291.07
915.184	1239.87
915.361	1639.23
915.539	1250.11
915.716	1473.34
915.894	1704.76
916.072	1749.82
916.249	1520.45
916.427	1413.95
916.604	1252.16
916.782	1649.47
916.959	1203.01
917.137	1319.75
917.314	1610.56
917.492	1676.09
917.669	1348.42
917.847	1350.46
918.024	1667.9
918.201	1356.61
918.379	1366.85
918.556	1354.56
918.733	1749.82
918.911	1446.72
919.088	1434.43
919.265	1237.83
919.442	1579.84
919.62	1442.62
919.797	1190.72
919.974	1135.43
920.151	1524.54
920.328	1430.34
920.506	1141.57
920.683	1327.94
920.86	1325.89
921.037	1282.88
921.214	1264.45
921.391	1196.87
921.568	1588.03
921.745	1258.31
921.922	1200.96
922.099	1133.38
922.276	1612.6
922.453	1512.25
922.63	1106.76
922.807	1534.78
922.984	1538.88
923.161	1237.83
923.338	1192.77
923.514	1186.63
923.691	1407.81
923.868	1436.48
924.045	1127.24
924.222	990.02
924.399	1409.86
924.575	1608.51
924.752	1168.2
924.929	1229.63
925.105	1440.58
925.282	1141.57
925.459	1160
925.635	1160
925.812	1364.8
925.989	1219.39
926.165	1106.76
926.342	932.68
926.518	1117
926.695	1299.27
926.871	1162.05
927.048	914.25
927.224	1536.83
927.401	1211.2
927.577	1114.95
927.754	994.12
927.93	1536.83
928.107	1508.16
928.283	1004.36
928.459	1180.48
928.636	1364.8
928.812	1184.58
928.988	1065.8
929.165	922.44
929.341	1239.87
929.517	1311.55
929.693	1338.18
929.87	815.94
930.046	1313.6
930.222	1160
930.398	971.59
930.574	1129.28
930.751	1188.68
930.927	1086.28
931.103	1037.13
931.279	1000.26
931.455	1078.08
931.631	1225.54
931.807	721.74
931.983	957.25
932.159	883.53
932.335	1160
932.511	1057.61
932.687	971.59
932.863	1258.31
933.039	1198.92
933.215	797.51
933.391	740.17
933.566	1137.48
933.742	1053.51
933.918	865.1
934.094	811.85
934.27	1160
934.445	1141.57
934.621	932.68
934.797	774.99
934.973	1266.5
935.148	1188.68
935.324	789.32
935.5	666.44
935.675	1307.46
935.851	1063.75
936.027	813.9
936.202	856.9
936.378	1057.61
936.553	977.73
936.729	1157.96
936.904	682.83
937.08	746.31
937.255	844.62
937.431	611.15
937.606	512.85
937.782	701.26
937.957	1008.45
938.133	830.28
938.308	582.48
938.483	850.76
938.659	684.87
938.834	727.88
939.009	627.53
939.185	768.84
939.36	676.68
939.535	324.43
939.71	627.53
939.886	1022.79
940.061	895.82
940.236	813.9
940.411	506.7
940.586	842.57
940.761	848.71
940.937	562
941.112	383.82
941.287	781.13
941.462	770.89
941.637	465.74
941.812	516.94
941.987	779.08
942.162	750.41
942.337	592.72
942.512	426.83
942.687	1033.03
942.862	850.76
943.037	361.3
943.212	162.64
943.386	650.06
943.561	709.45
943.736	639.82
943.911	688.97
944.086	811.85
944.26	842.57
944.435	535.37
944.61	566.09
944.785	1045.32
944.959	1018.69
945.134	469.84
945.309	340.82
945.483	484.17
945.658	904.01
945.833	195.41
946.007	402.26
946.182	1045.32
946.357	416.59
946.531	373.58
946.706	373.58
946.88	267.09
947.055	750.41
947.229	488.27
947.404	346.96
947.578	820.04
947.752	613.2
947.927	371.54
948.101	248.66
948.276	631.63
948.45	639.82
948.624	529.23
948.799	291.66
948.973	783.18
949.147	273.23
949.321	521.04
949.496	430.93
949.67	797.51
949.844	656.2
950.018	402.26
950.193	418.64
950.367	1117
950.541	510.8
950.715	588.62
950.889	570.19
951.063	605
951.237	817.99
951.411	267.09
951.585	170.83
951.759	801.61
951.933	672.59
952.107	385.87
952.281	672.59
952.455	1080.13
952.629	861
952.803	295.76
952.977	402.26
953.151	832.33
953.325	676.68
953.499	559.95
953.672	279.38
953.846	369.49
954.02	586.57
954.194	463.69
954.368	275.28
954.541	662.35
954.715	500.56
954.889	447.31
955.062	316.24
955.236	664.4
955.41	523.09
955.583	539.47
955.757	230.23
955.93	484.17
956.104	379.73
956.278	363.34
956.451	357.2
956.625	738.12
956.798	1051.46
956.972	635.72
957.145	375.63
957.319	619.34
957.492	594.76
957.665	512.85
957.839	297.81
958.012	693.07
958.185	418.64
958.359	351.06
958.532	691.02
958.705	772.94
958.879	744.27
959.052	453.45
959.225	189.27
959.398	641.87
959.572	658.25
959.745	295.76
959.918	435.02
960.091	506.7
960.264	719.69
960.438	179.03
960.611	392.02
960.784	811.85
960.957	455.5
961.13	752.46
961.303	215.89
961.476	641.87
961.649	834.38
961.822	260.95
961.995	564.04
962.168	717.64
962.341	639.82
962.514	437.07
962.686	262.99
962.859	574.28
963.032	717.64
963.205	226.13
963.378	250.71
963.551	727.88
963.723	600.91
963.896	504.65
964.069	492.37
964.242	545.61
964.414	768.84
964.587	478.03
964.76	523.09
964.932	656.2
965.105	494.41
965.278	408.4
965.45	392.02
965.623	611.15
965.795	695.11
965.968	471.89
966.14	326.48
966.313	504.65
966.485	572.24
966.658	406.35
966.83	230.23
967.003	811.85
967.175	791.37
967.348	414.54
967.52	349.01
967.692	881.48
967.865	594.76
968.037	258.9
968.209	584.52
968.382	605
968.554	691.02
968.726	320.34
968.898	326.48
969.071	551.76
969.243	625.48
969.415	369.49
969.587	416.59
969.759	1155.91
969.932	774.99
970.104	342.86
970.276	88.92
970.448	531.28
970.62	494.41
970.792	510.8
970.964	410.45
971.136	1008.45
971.308	693.07
971.48	287.57
971.652	334.67
971.824	877.38
971.996	490.32
972.168	506.7
972.339	346.96
972.511	807.75
972.683	389.97
972.855	648.01
973.027	455.5
973.199	600.91
973.37	721.74
973.542	504.65
973.714	480.08
973.886	600.91
974.057	791.37
974.229	207.7
974.401	353.1
974.572	383.82
974.744	88.92
974.915	222.03
975.087	392.02
975.259	887.62
975.43	402.26
975.602	385.87
975.773	234.32
975.945	314.19
976.116	678.73
976.288	250.71
976.459	490.32
976.63	502.61
976.802	539.47
976.973	236.37
977.145	447.31
977.316	957.25
977.487	912.2
977.659	500.56
977.83	385.87
978.001	885.58
978.172	551.76
978.344	357.2
978.515	324.43
978.686	392.02
978.857	942.92
979.028	326.48
979.2	242.51
979.371	703.31
979.542	518.99
979.713	416.59
979.884	2.9
980.055	279.38
980.226	447.31
980.397	392.02
980.568	244.56
980.739	803.66
980.91	525.13
981.081	435.02
981.252	283.47
981.423	672.59
981.594	725.83
981.765	148.31
981.936	365.39
982.106	559.95
982.277	803.66
982.448	250.71
982.619	410.45
982.79	471.89
982.96	774.99
983.131	463.69
983.302	138.07
983.472	398.16
983.643	570.19
983.814	453.45
983.984	228.18
984.155	537.42
984.326	754.51
984.496	379.73
984.667	334.67
984.837	312.14
985.008	824.14
985.178	504.65
985.349	443.21
985.519	541.52
985.69	367.44
985.86	344.91
986.031	168.79
986.201	516.94
986.371	676.68
986.542	217.94
986.712	37.72
986.882	650.06
987.053	656.2
987.223	138.07
987.393	334.67
987.563	277.33
987.734	588.62
987.904	484.17
988.074	193.36
988.244	496.46
988.414	424.78
988.585	226.13
988.755	324.43
988.925	459.6
989.095	830.28
989.265	265.04
989.435	332.62
989.605	568.14
989.775	695.11
989.945	541.52
990.115	109.4
990.285	418.64
990.455	607.05
990.625	336.72
990.795	138.07
990.965	879.43
991.134	250.71
991.304	226.13
991.474	217.94
991.644	615.24
991.814	811.85
991.984	74.58
992.153	219.99
992.323	418.64
992.493	353.1
992.662	-11.43
992.832	385.87
993.002	545.61
993.171	562
993.341	39.76
993.511	410.45
993.68	299.86
993.85	658.25
994.019	43.86
994.189	103.25
994.358	557.9
994.528	332.62
994.697	-48.3
994.867	60.24
995.036	547.66
995.206	418.64
995.375	162.64
995.544	250.71
995.714	529.23
995.883	394.06
996.052	283.47
996.222	-83.11
996.391	969.54
996.56	486.22
996.73	95.06
996.899	-3.24
997.068	774.99
997.237	512.85
997.406	119.64
997.576	37.72
997.745	428.88
997.914	484.17
998.083	-11.43
998.252	115.54
998.421	414.54
998.59	152.4
998.759	64.34
998.928	-117.93
999.097	637.77
999.266	480.08
999.435	320.34
999.604	-40.11
999.773	906.06
999.942	428.88
1000.111	-70.83
1000.28	-76.97
1000.448	150.36
1000.617	90.96
1000.786	314.19
1000.955	31.57
1001.124	533.33
1001.292	1004.36
1001.461	193.36
1001.63	15.19
1001.798	785.23
1001.967	684.87
1002.136	-38.06
1002.304	58.2
1002.473	449.36
1002.642	387.92
1002.81	119.64
1002.979	25.43
1003.147	490.32
1003.316	1028.93
1003.484	117.59
1003.653	56.15
1003.821	703.31
1003.99	344.91
1004.158	295.76
1004.327	207.7
1004.495	512.85
1004.663	211.79
1004.832	217.94
1005	-119.98
1005.168	504.65
1005.337	478.03
1005.505	29.52
1005.673	342.86
1005.842	500.56
1006.01	559.95
1006.178	-9.39
1006.346	-7.34
1006.514	564.04
1006.683	645.96
1006.851	90.96
1007.019	-58.54
1007.187	142.16
1007.355	-25.77
1007.523	-154.79
1007.691	-101.55
1007.859	115.54
1008.027	619.34
1008.195	7
1008.363	-173.22
1008.531	473.93
1008.699	197.46
1008.867	-93.35
1009.035	13.14
1009.203	635.72
1009.37	377.68
1009.538	-1.19
1009.706	394.06
1009.874	371.54
1010.042	365.39
1010.209	-113.83
1010.377	-11.43
1010.545	514.89
1010.713	357.2
1010.88	-38.06
1011.048	19.29
1011.216	256.85
1011.383	705.35
1011.551	15.19
1011.718	-66.73
1011.886	555.85
1012.054	332.62
1012.221	-95.4
1012.389	-52.39
1012.556	287.57
1012.724	746.31
1012.891	133.97
1013.058	-138.41
1013.226	457.55
1013.393	525.13
1013.561	-136.36
1013.728	-187.56
1013.895	430.93
1014.063	418.64
1014.23	-52.39
1014.397	-62.63
1014.565	455.5
1014.732	275.28
1014.899	-38.06
1015.066	-81.07
1015.233	293.71
1015.401	480.08
1015.568	35.67
1015.735	115.54
1015.902	359.25
1016.069	357.2
1016.236	-31.91
1016.403	-54.44
1016.57	103.25
1016.737	465.74
1016.904	72.53
1017.071	-93.35
1017.238	144.21
1017.405	471.89
1017.572	-52.39
1017.739	174.93
1017.906	402.26
1018.073	473.93
1018.24	-101.55
1018.407	86.87
1018.573	570.19
1018.74	189.27
1018.907	70.48
1019.074	-199.85
1019.241	488.27
1019.407	295.76
1019.574	-46.25
1019.741	-111.78
1019.907	326.48
1020.074	424.78
1020.241	-255.14
1020.407	-83.11
1020.574	422.73
1020.74	400.21
1020.907	-21.67
1021.073	-124.07
1021.24	901.96
1021.406	615.24
1021.573	-107.69
1021.739	-44.2
1021.906	480.08
1022.072	285.52
1022.239	-76.97
1022.405	58.2
1022.571	303.95
1022.738	150.36
1022.904	-111.78
1023.07	-23.72
1023.237	301.9
1023.403	586.57
1023.569	-23.72
1023.735	-54.44
1023.902	303.95
1024.068	424.78
1024.234	-158.89
1024.4	-85.16
1024.566	324.43
1024.732	439.12
1024.898	-101.55
1025.065	-187.56
1025.231	389.97
1025.397	136.02
1025.563	-115.88
1025.729	-169.13
1025.895	-124.07
1026.061	45.91
1026.227	-203.94
1026.392	-146.6
1026.558	555.85
1026.724	375.63
1026.89	-185.51
1027.056	9.05
1027.222	349.01
1027.388	86.87
1027.553	-72.87
1027.719	-105.64
1027.885	709.45
1028.051	502.61
1028.216	-318.63
1028.382	-62.63
1028.548	490.32
1028.713	283.47
1028.879	-175.27
1029.045	37.72
1029.21	607.05
1029.376	568.14
1029.541	-33.96
1029.707	-101.55
1029.873	445.26
1030.038	416.59
1030.204	-150.7
1030.369	-115.88
1030.534	439.12
1030.7	142.16
1030.865	-56.49
1031.031	-72.87
1031.196	400.21
1031.361	301.9
1031.527	-76.97
1031.692	-93.35
1031.857	-109.74
1032.023	342.86
1032.188	-91.31
1032.353	-72.87
1032.518	662.35
1032.684	265.04
1032.849	-255.14
1033.014	-134.31
1033.179	443.21
1033.344	369.49
1033.509	17.24
1033.674	-117.93
1033.839	375.63
1034.004	322.38
1034.17	-113.83
1034.335	-261.29
1034.5	242.51
1034.664	60.24
1034.829	-154.79
1034.994	-64.68
1035.159	301.9
1035.324	328.53
1035.489	-146.6
1035.654	-154.79
1035.819	574.28
1035.984	398.16
1036.148	11.09
1036.313	-48.3
1036.478	557.9
1036.643	312.14
1036.807	-97.45
1036.972	-126.12
1037.137	572.24
1037.301	262.99
1037.466	-224.42
1037.631	56.15
1037.795	549.71
1037.96	267.09
1038.124	7
1038.289	-208.04
1038.454	422.73
1038.618	461.65
1038.783	-97.45
1038.947	2.9
1039.111	381.78
1039.276	187.22
1039.44	-212.14
1039.605	351.06
1039.769	156.5
1039.933	217.94
1040.098	-60.59
1040.262	176.98
1040.426	537.42
1040.591	525.13
1040.755	-134.31
1040.919	-91.31
1041.083	320.34
1041.248	203.6
1041.412	-267.43
1041.576	-97.45
1041.74	189.27
1041.904	338.77
1042.068	-201.9
1042.232	-109.74
1042.397	475.98
1042.561	320.34
1042.725	-277.67
1042.889	76.63
1043.053	287.57
1043.217	326.48
1043.381	-5.29
1043.544	-212.14
1043.708	533.33
1043.872	58.2
1044.036	-369.83
1044.2	-199.85
1044.364	516.94
1044.528	572.24
1044.691	4674.32
1044.855	-167.08
1045.019	512.85
1045.183	451.41
1045.346	-85.16
1045.51	-165.03
1045.674	258.9
1045.837	351.06
1046.001	19.29
1046.165	-183.46
1046.328	801.61
1046.492	418.64
1046.655	86.87
1046.819	-79.02
1046.983	86.87
1047.146	328.53
1047.31	37.72
1047.473	-320.68
1047.636	144.21
1047.8	47.96
1047.963	0.85
1048.127	-124.07
1048.29	68.44
