Data from Ink_Intensity_USB4F045381__53__00053.txt Node

Date: Mon Jul 17 10:15:10 EDT 2023
User: mmckonesweet
Spectrometer: USB4F04538
Trigger mode: 4
Integration Time (sec): 9.000000E-1
Scans to average: 1
Electric dark correction enabled: true
Nonlinearity correction enabled: false
Boxcar width: 0
XAxis mode: Wavelengths
Number of Pixels in Spectrum: 3648
>>>>>Begin Spectral Data<<<<<
345.52	-962.72
345.736	-962.72
345.952	-962.72
346.168	-975
346.384	-975
346.6	-178.34
346.816	-250.02
347.032	-188.58
347.248	266.07
347.464	-250.02
347.68	-102.57
347.896	87.89
348.112	368.46
348.328	-84.14
348.544	14.17
348.76	8.02
348.975	309.07
349.191	-258.21
349.407	-157.86
349.623	89.94
349.839	-28.84
350.055	-114.86
350.27	-0.17
350.486	190.29
350.702	384.85
350.918	202.58
351.133	-204.97
351.349	157.52
351.565	454.48
351.781	-110.76
351.996	44.88
352.212	323.41
352.428	-110.76
352.644	-231.59
352.859	-241.83
353.075	319.31
353.291	-22.7
353.506	-125.1
353.722	-213.16
353.938	-127.14
354.153	462.67
354.369	-30.89
354.584	-141.48
354.8	159.57
355.016	-370.85
355.231	-272.55
355.447	-75.95
355.662	100.18
355.878	888.65
356.093	-272.55
356.309	14.17
356.524	-297.13
356.74	196.43
356.955	-200.87
357.171	-82.09
357.386	147.28
357.602	-297.13
357.817	-32.94
358.033	-204.97
358.248	374.61
358.464	165.71
358.679	-94.38
358.895	-379.04
359.11	-22.7
359.325	339.79
359.541	44.88
359.756	-80.04
359.972	-387.24
360.187	16.21
360.402	-151.72
360.618	-184.49
360.833	921.42
361.048	104.28
361.264	-176.3
361.479	-92.33
361.694	63.32
361.909	212.82
362.125	-184.49
362.34	-184.49
362.555	216.91
362.77	87.89
362.986	-245.93
363.201	-147.62
363.416	212.82
363.631	22.36
363.847	-276.65
364.062	-135.34
364.277	216.91
364.492	96.08
364.707	-170.15
364.922	-438.44
365.138	239.44
365.353	319.31
365.568	-254.12
365.783	-47.27
365.998	46.93
366.213	472.91
366.428	-305.32
366.643	-0.17
366.858	161.62
367.073	237.39
367.288	-43.18
367.503	-250.02
367.718	126.8
367.933	161.62
368.148	-276.65
368.363	-61.61
368.578	-30.89
368.793	472.91
369.008	-192.68
369.223	-161.96
369.438	190.29
369.653	382.8
369.868	-233.64
370.083	-200.87
370.298	48.98
370.513	352.08
370.728	87.89
370.943	-223.4
371.157	-166.06
371.372	597.84
371.587	-393.38
371.802	-254.12
372.017	85.84
372.232	384.85
372.446	-90.28
372.661	-290.98
372.876	239.44
373.091	114.52
373.306	-143.53
373.52	-307.37
373.735	-207.02
373.95	446.29
374.165	-37.03
374.379	-125.1
374.594	-159.91
374.809	94.04
375.023	59.22
375.238	-217.26
375.453	202.58
375.667	-129.19
375.882	-204.97
376.097	-153.77
376.311	32.6
376.526	-30.89
376.741	-237.74
376.955	137.04
377.17	540.49
377.384	556.88
377.599	-90.28
377.813	-313.51
378.028	571.21
378.242	120.66
378.457	-98.47
378.672	-409.76
378.886	-2.22
379.101	-53.42
379.315	-338.09
379.53	-188.58
379.744	147.28
379.958	143.19
380.173	-47.27
380.387	-170.15
380.602	130.9
380.816	-102.57
381.031	-188.58
381.245	-63.66
381.459	151.38
381.674	2580.27
381.888	-260.26
382.103	36.69
382.317	-174.25
382.531	460.62
382.746	-69.8
382.96	-221.35
383.174	-116.9
383.388	438.09
383.603	122.71
383.817	-307.37
384.031	132.95
384.246	407.38
384.46	-49.32
384.674	223.06
384.888	-4.27
385.103	-53.42
385.317	-307.37
385.531	-26.79
385.745	315.22
385.959	372.56
386.174	-118.95
386.388	-256.17
386.602	61.27
386.816	-82.09
387.03	-59.56
387.244	-61.61
387.458	128.85
387.672	323.41
387.887	-301.22
388.101	-276.65
388.315	304.98
388.529	94.04
388.743	-153.77
388.957	-262.31
389.171	247.63
389.385	-108.71
389.599	-141.48
389.813	30.55
390.027	104.28
390.241	640.84
390.455	-209.06
390.669	-139.43
390.883	-73.9
391.097	364.37
391.311	61.27
391.525	-231.59
391.738	175.95
391.952	188.24
392.166	-30.89
392.38	-223.4
392.594	290.64
392.808	302.93
393.022	-133.29
393.236	-114.86
393.449	251.73
393.663	155.47
393.877	-245.93
394.091	-67.75
394.305	-108.71
394.518	-133.29
394.732	-286.89
394.946	-161.96
395.16	431.95
395.373	94.04
395.587	-153.77
395.801	-194.73
396.015	286.54
396.228	208.72
396.442	-286.89
396.656	-358.57
396.869	319.31
397.083	421.71
397.297	-51.37
397.51	-147.62
397.724	327.5
397.938	157.52
398.151	-290.98
398.365	-217.26
398.578	137.04
398.792	323.41
399.005	-67.75
399.219	-123.05
399.433	61.27
399.646	204.63
399.86	-32.94
400.073	-24.75
400.287	192.34
400.5	5.97
400.714	-32.94
400.927	-45.23
401.141	218.96
401.354	1005.38
401.567	124.76
401.781	-233.64
401.994	313.17
402.208	616.27
402.421	-102.57
402.635	-80.04
402.848	36.69
403.061	282.45
403.275	-41.13
403.488	-209.06
403.701	489.29
403.915	292.69
404.128	10.07
404.341	-213.16
404.555	100.18
404.768	63.32
404.981	12.12
405.195	-116.9
405.408	448.33
405.621	202.58
405.834	-45.23
406.048	-153.77
406.261	458.57
406.474	460.62
406.687	-194.73
406.9	-53.42
407.114	-16.55
407.327	145.24
407.54	-331.94
407.753	-338.09
407.966	-94.38
408.179	239.44
408.392	-182.44
408.605	-313.51
408.819	171.86
409.032	165.71
409.245	-229.54
409.458	-14.51
409.671	286.54
409.884	218.96
410.097	-254.12
410.31	24.4
410.523	89.94
410.736	-53.42
410.949	-108.71
411.162	-102.57
411.375	319.31
411.588	331.6
411.801	44.88
412.014	-164.01
412.227	-59.56
412.44	-112.81
412.653	-207.02
412.865	-59.56
413.078	294.74
413.291	218.96
413.504	-28.84
413.717	-278.69
413.93	268.11
414.143	-219.3
414.356	-82.09
414.568	-331.94
414.781	202.58
414.994	157.52
415.207	-102.57
415.42	-106.67
415.632	300.88
415.845	448.33
416.058	-270.5
416.271	-280.74
416.483	46.93
416.696	411.47
416.909	-247.97
417.121	-170.15
417.334	200.53
417.547	511.82
417.759	-133.29
417.972	-237.74
418.185	-0.17
418.397	218.96
418.61	-166.06
418.823	-157.86
419.035	450.38
419.248	85.84
419.46	-149.67
419.673	-71.85
419.885	221.01
420.098	-45.23
420.311	-180.39
420.523	-460.96
420.736	274.26
420.948	100.18
421.161	-110.76
421.373	-379.04
421.586	128.85
421.798	-135.34
422.01	-407.72
422.223	-53.42
422.435	-6.31
422.648	233.3
422.86	-141.48
423.073	-182.44
423.285	354.13
423.497	-198.82
423.71	-254.12
423.922	-207.02
424.134	159.57
424.347	311.12
424.559	65.36
424.771	16.21
424.984	-90.28
425.196	147.28
425.408	-290.98
425.621	-270.5
425.833	270.16
426.045	366.42
426.257	-221.35
426.47	-202.92
426.682	130.9
426.894	223.06
427.106	-170.15
427.318	-176.3
427.531	-180.39
427.743	298.83
427.955	-213.16
428.167	214.87
428.379	87.89
428.591	-55.47
428.804	-108.71
429.016	-327.85
429.228	-49.32
429.44	157.52
429.652	53.08
429.864	-258.21
430.076	16.21
430.288	-80.04
430.5	-106.67
430.712	-86.19
430.924	384.85
431.136	48.98
431.348	-438.44
431.56	-282.79
431.772	-37.03
431.984	-12.46
432.196	-231.59
432.408	-188.58
432.62	8.02
432.832	175.95
433.044	40.79
433.256	-161.96
433.468	155.47
433.679	-272.55
433.891	-313.51
434.103	67.41
434.315	272.21
434.527	180.05
434.739	-96.43
434.95	-270.5
435.162	216.91
435.374	-106.67
435.586	-217.26
435.798	-290.98
436.009	-272.55
436.221	-75.95
436.433	-161.96
436.645	-153.77
436.856	-82.09
437.068	294.74
437.28	-250.02
437.491	104.28
437.703	73.56
437.915	83.8
438.126	-92.33
438.338	71.51
438.55	42.84
438.761	106.32
438.973	-139.43
439.184	-198.82
439.396	14.17
439.608	331.6
439.819	-186.54
440.031	-30.89
440.242	270.16
440.454	225.11
440.665	-143.53
440.877	-131.24
441.088	155.47
441.3	-137.38
441.511	-344.23
441.723	-207.02
441.934	106.32
442.146	12.12
442.357	-12.46
442.569	83.8
442.78	-4.27
442.991	487.25
443.203	135
443.414	-219.3
443.626	343.89
443.837	-110.76
444.048	-250.02
444.26	-319.65
444.471	-4.27
444.682	163.67
444.894	-403.62
445.105	-321.7
445.316	169.81
445.528	126.8
445.739	-135.34
445.95	-106.67
446.161	167.76
446.373	274.26
446.584	-129.19
446.795	-252.07
447.006	225.11
447.217	423.76
447.429	-356.52
447.64	-233.64
447.851	290.64
448.062	46.93
448.273	-325.8
448.484	-241.83
448.695	126.8
448.907	-2.22
449.118	-159.91
449.329	61.27
449.54	-100.52
449.751	-192.68
449.962	-123.05
450.173	-131.24
450.384	276.31
450.595	401.23
450.806	-252.07
451.017	-153.77
451.228	370.51
451.439	233.3
451.65	-147.62
451.861	-282.79
452.072	-202.92
452.283	69.46
452.494	-34.99
452.705	-225.45
452.915	364.37
453.126	190.29
453.337	-139.43
453.548	-266.41
453.759	276.31
453.97	532.3
454.181	-26.79
454.391	-204.97
454.602	53.08
454.813	188.24
455.024	-192.68
455.235	-241.83
455.445	118.61
455.656	69.46
455.867	-4.27
456.078	-198.82
456.288	10.07
456.499	67.41
456.71	-213.16
456.921	40.79
457.131	122.71
457.342	53.08
457.553	-84.14
457.763	-254.12
457.974	149.33
458.184	276.31
458.395	-241.83
458.606	-241.83
458.816	180.05
459.027	499.53
459.237	-84.14
459.448	-422.05
459.659	276.31
459.869	565.07
460.08	-356.52
460.29	-106.67
460.501	528.21
460.711	-104.62
460.922	-313.51
461.132	-266.41
461.343	589.64
461.553	-227.5
461.764	-227.5
461.974	-245.93
462.184	184.15
462.395	124.76
462.605	-159.91
462.816	-198.82
463.026	85.84
463.236	315.22
463.447	-329.89
463.657	-243.88
463.867	259.92
464.078	-10.41
464.288	-98.47
464.498	-258.21
464.709	22.36
464.919	-12.46
465.129	-157.86
465.339	-245.93
465.55	132.95
465.76	249.68
465.97	-225.45
466.18	-219.3
466.391	288.59
466.601	145.24
466.811	-151.72
467.021	-280.74
467.231	89.94
467.441	356.18
467.651	-61.61
467.862	-397.48
468.072	20.31
468.282	354.13
468.492	-137.38
468.702	-151.72
468.912	51.03
469.122	593.74
469.332	32.6
469.542	-348.33
469.752	85.84
469.962	89.94
470.172	-229.54
470.382	-229.54
470.592	251.73
470.802	302.93
471.012	-71.85
471.222	-262.31
471.432	304.98
471.642	149.33
471.852	-55.47
472.062	-305.32
472.272	26.45
472.482	-219.3
472.691	-307.37
472.901	-338.09
473.111	157.52
473.321	558.92
473.531	-262.31
473.741	-108.71
473.95	180.05
474.16	194.39
474.37	-61.61
474.58	-239.78
474.79	380.75
474.999	196.43
475.209	-233.64
475.419	-168.1
475.628	-20.65
475.838	362.32
476.048	-102.57
476.258	-385.19
476.467	364.37
476.677	-65.71
476.886	26.45
477.096	-159.91
477.306	-114.86
477.515	360.27
477.725	-65.71
477.935	-188.58
478.144	366.42
478.354	-26.79
478.563	-196.78
478.773	-176.3
478.982	210.77
479.192	294.74
479.401	-118.95
479.611	-278.69
479.82	-153.77
480.03	75.6
480.239	-188.58
480.449	-336.04
480.658	438.09
480.868	-110.76
481.077	-112.81
481.287	-204.97
481.496	128.85
481.705	440.14
481.915	89.94
482.124	118.61
482.333	89.94
482.543	364.37
482.752	-102.57
482.961	-237.74
483.171	200.53
483.38	71.51
483.589	-90.28
483.799	-194.73
484.008	40.79
484.217	204.63
484.426	-239.78
484.636	-266.41
484.845	79.7
485.054	-157.86
485.263	57.17
485.472	-139.43
485.682	448.33
485.891	73.56
486.1	-327.85
486.309	-225.45
486.518	245.59
486.727	364.37
486.936	-221.35
487.146	-34.99
487.355	372.56
487.564	-131.24
487.773	-204.97
487.982	-241.83
488.191	-67.75
488.4	44.88
488.609	-241.83
488.818	-178.34
489.027	610.12
489.236	325.46
489.445	-166.06
489.654	-243.88
489.863	327.5
490.072	100.18
490.281	116.56
490.49	-188.58
490.698	470.86
490.907	356.18
491.116	-188.58
491.325	-342.18
491.534	397.14
491.743	182.1
491.952	-135.34
492.16	-202.92
492.369	143.19
492.578	266.07
492.787	-45.23
492.996	-293.03
493.204	-108.71
493.413	577.36
493.622	-430.24
493.831	-370.85
494.039	409.42
494.248	-157.86
494.457	-264.36
494.665	-307.37
494.874	218.96
495.083	577.36
495.291	-172.2
495.5	-278.69
495.709	323.41
495.917	116.56
496.126	-98.47
496.335	-250.02
496.543	-37.03
496.752	128.85
496.96	73.56
497.169	-350.37
497.377	51.03
497.586	270.16
497.794	-100.52
498.003	-403.62
498.211	77.65
498.42	350.03
498.628	-116.9
498.837	-241.83
499.045	157.52
499.254	192.34
499.462	-204.97
499.671	-260.26
499.879	374.61
500.087	255.83
500.296	-188.58
500.504	-207.02
500.713	124.76
500.921	560.97
501.129	-186.54
501.338	-180.39
501.546	87.89
501.754	114.52
501.962	-182.44
502.171	-282.79
502.379	153.43
502.587	462.67
502.795	-153.77
503.004	-170.15
503.212	63.32
503.42	241.49
503.628	-180.39
503.837	-61.61
504.045	315.22
504.253	393.04
504.461	-256.17
504.669	-303.27
504.877	237.39
505.085	370.51
505.294	-307.37
505.502	-61.61
505.71	143.19
505.918	198.48
506.126	-233.64
506.334	-207.02
506.542	16.21
506.75	67.41
506.958	-155.82
507.166	-155.82
507.374	-59.56
507.582	515.92
507.79	-102.57
507.998	-223.4
508.206	223.06
508.414	196.43
508.622	-245.93
508.83	-112.81
509.037	446.29
509.245	69.46
509.453	-303.27
509.661	-270.5
509.869	233.3
510.077	22.36
510.285	-24.75
510.492	-391.33
510.7	739.15
510.908	-22.7
511.116	-174.25
511.324	-141.48
511.531	-8.36
511.739	153.43
511.947	-41.13
512.155	184.15
512.362	116.56
512.57	-75.95
512.778	-168.1
512.985	-391.33
513.193	304.98
513.401	534.35
513.608	-57.51
513.816	-225.45
514.024	223.06
514.231	415.57
514.439	-225.45
514.646	-225.45
514.854	302.93
515.061	323.41
515.269	-147.62
515.477	-198.82
515.684	-102.57
515.892	216.91
516.099	-297.13
516.307	-245.93
516.514	284.5
516.722	464.72
516.929	-192.68
517.136	-295.08
517.344	395.09
517.551	255.83
517.759	-266.41
517.966	-143.53
518.173	12.12
518.381	-8.36
518.588	-55.47
518.796	-217.26
519.003	210.77
519.21	10.07
519.418	-258.21
519.625	120.66
519.832	178
520.039	278.35
520.247	-352.42
520.454	-254.12
520.661	307.02
520.868	274.26
521.076	-184.49
521.283	-92.33
521.49	747.34
521.697	268.11
521.904	-94.38
522.112	-137.38
522.319	339.79
522.526	216.91
522.733	-225.45
522.94	-207.02
523.147	120.66
523.354	317.26
523.561	-336.04
523.768	-84.14
523.975	380.75
524.183	184.15
524.39	-174.25
524.597	-311.46
524.804	81.75
525.011	-73.9
525.218	-223.4
525.425	-229.54
525.632	405.33
525.838	-96.43
526.045	-172.2
526.252	-172.2
526.459	1195.84
526.666	921.42
526.873	-194.73
527.08	-200.87
527.287	481.1
527.494	352.08
527.701	-266.41
527.907	-196.78
528.114	200.53
528.321	22.36
528.528	-106.67
528.735	-159.91
528.941	40.79
529.148	-16.55
529.355	-135.34
529.562	-166.06
529.768	552.78
529.975	48.98
530.182	-114.86
530.388	-147.62
530.595	393.04
530.802	-114.86
531.008	-59.56
531.215	-102.57
531.422	849.74
531.628	835.4
531.835	-18.6
532.042	-94.38
532.248	18.26
532.455	186.19
532.661	-73.9
532.868	-229.54
533.074	214.87
533.281	327.5
533.487	-69.8
533.694	-217.26
533.9	-159.91
534.107	266.07
534.313	-217.26
534.52	-194.73
534.726	354.13
534.933	558.92
535.139	-233.64
535.345	-202.92
535.552	337.74
535.758	171.86
535.965	-75.95
536.171	-192.68
536.377	302.93
536.584	454.48
536.79	-159.91
536.996	-102.57
537.203	245.59
537.409	329.55
537.615	-118.95
537.821	67.41
538.028	335.7
538.234	280.4
538.44	-149.67
538.646	-73.9
538.853	309.07
539.059	61.27
539.265	319.31
539.471	-344.23
539.677	372.56
539.883	77.65
540.09	-198.82
540.296	237.39
540.502	63.32
540.708	12.12
540.914	73.56
541.12	-110.76
541.326	280.4
541.532	120.66
541.738	3.93
541.944	-71.85
542.15	454.48
542.356	38.74
542.562	-98.47
542.768	-34.99
542.974	839.5
543.18	675.66
543.386	-137.38
543.592	-284.84
543.798	499.53
544.004	466.77
544.21	-131.24
544.415	-65.71
544.621	143.19
544.827	313.17
545.033	-180.39
545.239	57.17
545.445	-77.99
545.651	241.49
545.856	-116.9
546.062	-159.91
546.268	83.8
546.474	139.09
546.679	-69.8
546.885	-45.23
547.091	89.94
547.297	698.19
547.502	30.55
547.708	-225.45
547.914	-26.79
548.119	321.36
548.325	-213.16
548.531	-196.78
548.736	571.21
548.942	-16.55
549.147	-121
549.353	69.46
549.559	421.71
549.764	239.44
549.97	-100.52
550.175	-123.05
550.381	309.07
550.586	32.6
550.792	-53.42
550.997	-90.28
551.203	325.46
551.408	317.26
551.614	-231.59
551.819	-143.53
552.025	544.59
552.23	696.14
552.435	-125.1
552.641	55.12
552.846	-10.41
553.052	413.52
553.257	30.55
553.462	-86.19
553.668	20.31
553.873	411.47
554.078	-110.76
554.283	-196.78
554.489	204.63
554.694	233.3
554.899	-135.34
555.105	57.17
555.31	360.27
555.515	382.8
555.72	8.02
555.925	-180.39
556.131	335.7
556.336	34.64
556.541	-77.99
556.746	-164.01
556.951	450.38
557.156	626.51
557.361	-24.75
557.567	89.94
557.772	630.6
557.977	362.32
558.182	-84.14
558.387	-90.28
558.592	112.47
558.797	524.11
559.002	12.12
559.207	51.03
559.412	294.74
559.617	624.46
559.822	-88.23
560.027	-137.38
560.232	327.5
560.437	440.14
560.642	-221.35
560.847	-102.57
561.051	180.05
561.256	257.87
561.461	-20.65
561.666	-141.48
561.871	347.98
562.076	323.41
562.281	-10.41
562.485	-166.06
562.69	339.79
562.895	479.05
563.1	-80.04
563.305	-106.67
563.509	413.52
563.714	733
563.919	-170.15
564.123	-73.9
564.328	137.04
564.533	538.45
564.737	24.4
564.942	-100.52
565.147	616.27
565.351	685.9
565.556	61.27
565.761	94.04
565.965	292.69
566.17	-16.55
566.374	-30.89
566.579	-77.99
566.784	237.39
566.988	147.28
567.193	-159.91
567.397	-161.96
567.602	-82.09
567.806	159.57
568.011	-0.17
568.215	-49.32
568.42	296.78
568.624	214.87
568.828	-75.95
569.033	51.03
569.237	390.99
569.442	347.98
569.646	-168.1
569.85	46.93
570.055	91.99
570.259	313.17
570.463	192.34
570.668	-118.95
570.872	233.3
571.076	264.02
571.281	98.13
571.485	67.41
571.689	186.19
571.893	466.77
572.098	167.76
572.302	-37.03
572.506	323.41
572.71	335.7
572.914	44.88
573.119	-47.27
573.323	741.19
573.527	548.68
573.731	75.6
573.935	-45.23
574.139	335.7
574.343	85.84
574.547	8.02
574.751	73.56
574.955	550.73
575.159	534.35
575.364	-12.46
575.568	-90.28
575.772	264.02
575.976	583.5
576.18	-65.71
576.383	-133.29
576.587	536.4
576.791	395.09
576.995	-202.92
577.199	-217.26
577.403	434
577.607	550.73
577.811	-147.62
578.015	40.79
578.219	278.35
578.422	425.81
578.626	96.08
578.83	120.66
579.034	407.38
579.238	440.14
579.442	-106.67
579.645	393.04
579.849	249.68
580.053	388.94
580.257	-30.89
580.46	108.37
580.664	489.29
580.868	442.19
581.071	276.31
581.275	204.63
581.479	44.88
581.682	454.48
581.886	53.08
582.09	40.79
582.293	548.68
582.497	497.49
582.7	233.3
582.904	-0.17
583.107	253.78
583.311	233.3
583.515	175.95
583.718	94.04
583.922	495.44
584.125	653.13
584.329	-0.17
584.532	206.67
584.735	694.09
584.939	390.99
585.142	-90.28
585.346	14.17
585.549	436.05
585.753	216.91
585.956	98.13
586.159	206.67
586.363	669.52
586.566	423.76
586.769	-45.23
586.973	-6.31
587.176	413.52
587.379	606.03
587.582	431.95
587.786	292.69
587.989	294.74
588.192	993.09
588.395	178
588.599	323.41
588.802	474.96
589.005	554.83
589.208	57.17
589.411	71.51
589.615	558.92
589.818	689.99
590.021	444.24
590.224	198.48
590.427	483.15
590.63	569.16
590.833	-92.33
591.036	-16.55
591.239	352.08
591.442	155.47
591.645	239.44
591.848	71.51
592.051	413.52
592.254	554.83
592.457	143.19
592.66	163.67
592.863	296.78
593.066	442.19
593.269	55.12
593.472	171.86
593.675	120.66
593.878	569.16
594.081	212.82
594.284	3.93
594.486	503.63
594.689	264.02
594.892	233.3
595.095	112.47
595.298	571.21
595.5	249.68
595.703	272.21
595.906	204.63
596.109	708.43
596.311	646.99
596.514	-155.82
596.717	128.85
596.92	610.12
597.122	536.4
597.325	-20.65
597.528	102.23
597.73	745.29
597.933	429.9
598.136	196.43
598.338	-188.58
598.541	481.1
598.743	630.6
598.946	130.9
599.148	145.24
599.351	603.98
599.554	589.64
599.756	192.34
599.959	198.48
600.161	616.27
600.363	937.8
600.566	458.57
600.768	139.09
600.971	792.39
601.173	507.73
601.376	91.99
601.578	128.85
601.78	456.53
601.983	997.19
602.185	30.55
602.388	259.92
602.59	540.49
602.792	261.97
602.995	370.51
603.197	266.07
603.399	606.03
603.601	477.01
603.804	276.31
604.006	79.7
604.208	366.42
604.41	38.74
604.613	286.54
604.815	55.12
605.017	952.13
605.219	182.1
605.421	544.59
605.623	124.76
605.826	741.19
606.028	864.07
606.23	61.27
606.432	245.59
606.634	915.27
606.836	657.23
607.038	40.79
607.24	311.12
607.442	474.96
607.644	513.87
607.846	315.22
608.048	85.84
608.25	665.42
608.452	304.98
608.654	216.91
608.856	-6.31
609.058	477.01
609.26	610.12
609.462	270.16
609.664	237.39
609.866	851.78
610.067	655.18
610.269	421.71
610.471	233.3
610.673	339.79
610.875	540.49
611.077	57.17
611.278	290.64
611.48	474.96
611.682	950.09
611.884	294.74
612.085	261.97
612.287	233.3
612.489	634.7
612.69	22.36
612.892	290.64
613.094	651.08
613.295	528.21
613.497	57.17
613.699	239.44
613.9	810.82
614.102	661.32
614.304	233.3
614.505	122.71
614.707	395.09
614.908	528.21
615.11	55.12
615.311	311.12
615.513	655.18
615.714	778.06
615.916	69.46
616.117	284.5
616.319	466.77
616.52	730.95
616.722	229.2
616.923	196.43
617.124	761.67
617.326	575.31
617.527	358.22
617.729	468.81
617.93	622.41
618.131	626.51
618.333	184.15
618.534	255.83
618.735	448.33
618.937	880.46
619.138	122.71
619.339	192.34
619.54	544.59
619.742	442.19
619.943	470.86
620.144	419.66
620.345	649.04
620.546	714.57
620.748	155.47
620.949	241.49
621.15	583.5
621.351	571.21
621.552	221.01
621.753	151.38
621.954	151.38
622.155	989
622.356	214.87
622.558	483.15
622.759	495.44
622.96	989
623.161	339.79
623.362	333.65
623.563	497.49
623.764	474.96
623.965	317.26
624.166	464.72
624.366	384.85
624.567	563.02
624.768	22.36
624.969	200.53
625.17	446.29
625.371	741.19
625.572	358.22
625.773	245.59
625.973	794.44
626.174	606.03
626.375	341.84
626.576	405.33
626.777	587.6
626.977	1191.75
627.178	261.97
627.379	405.33
627.58	466.77
627.78	601.93
627.981	374.61
628.182	393.04
628.382	876.36
628.583	280.4
628.784	208.72
628.984	495.44
629.185	792.39
629.386	683.85
629.586	393.04
629.787	235.35
629.987	761.67
630.188	626.51
630.388	278.35
630.589	409.42
630.79	1199.94
630.99	522.06
631.191	368.46
631.391	477.01
631.591	804.68
631.792	962.37
631.992	583.5
632.193	341.84
632.393	991.05
632.594	589.64
632.794	323.41
632.994	450.38
633.195	608.08
633.395	640.84
633.595	388.94
633.796	585.55
633.996	454.48
634.196	890.7
634.397	186.19
634.597	429.9
634.797	276.31
634.997	937.8
635.198	558.92
635.398	249.68
635.598	751.43
635.798	898.89
635.998	706.38
636.199	284.5
636.399	505.68
636.599	309.07
636.799	462.67
636.999	599.88
637.199	661.32
637.399	855.88
637.599	216.91
637.799	507.73
637.999	534.35
638.199	960.33
638.399	257.87
638.599	323.41
638.799	780.11
638.999	1132.36
639.199	567.12
639.399	458.57
639.599	1044.29
639.799	405.33
639.999	321.36
640.199	169.81
640.399	655.18
640.599	704.33
640.799	368.46
640.998	608.08
641.198	911.18
641.398	755.53
641.598	554.83
641.798	388.94
641.997	1611.58
642.197	608.08
642.397	522.06
642.597	431.95
642.796	880.46
642.996	984.9
643.196	548.68
643.395	380.75
643.595	722.76
643.795	184.15
643.994	413.52
644.194	470.86
644.394	833.35
644.593	663.37
644.793	309.07
644.992	515.92
645.192	636.75
645.392	284.5
645.591	513.87
645.791	462.67
645.99	855.88
646.19	591.69
646.389	448.33
646.589	470.86
646.788	759.63
646.987	794.44
647.187	597.84
647.386	620.36
647.586	696.14
647.785	941.89
647.984	438.09
648.184	397.14
648.383	673.61
648.582	583.5
648.782	360.27
648.981	692.04
649.18	477.01
649.38	849.74
649.579	419.66
649.778	454.48
649.977	857.93
650.177	794.44
650.376	472.91
650.575	487.25
650.774	1097.54
650.973	603.98
651.173	264.02
651.372	560.97
651.571	821.06
651.77	896.84
651.969	415.57
652.168	528.21
652.367	587.6
652.566	712.52
652.765	456.53
652.964	728.91
653.163	1222.47
653.362	583.5
653.561	511.82
653.76	511.82
653.959	677.71
654.158	880.46
654.357	761.67
654.556	563.02
654.755	808.78
654.954	798.54
655.153	520.01
655.352	657.23
655.551	1011.53
655.749	524.11
655.948	581.45
656.147	526.16
656.346	837.45
656.545	653.13
656.743	515.92
656.942	581.45
657.141	751.43
657.34	450.38
657.538	579.4
657.737	513.87
657.936	622.41
658.135	831.3
658.333	438.09
658.532	642.89
658.731	1142.6
658.929	974.66
659.128	796.49
659.326	515.92
659.525	1128.26
659.724	702.28
659.922	374.61
660.121	304.98
660.319	786.25
660.518	642.89
660.716	368.46
660.915	507.73
661.113	1177.41
661.312	436.05
661.51	646.99
661.709	468.81
661.907	954.18
662.105	1138.5
662.304	436.05
662.502	460.62
662.701	1103.68
662.899	657.23
663.097	788.3
663.296	335.7
663.494	1025.86
663.692	1130.31
663.891	491.34
664.089	522.06
664.287	898.89
664.485	1105.73
664.684	409.42
664.882	692.04
665.08	819.02
665.278	900.94
665.476	481.1
665.675	888.65
665.873	1218.37
666.071	1001.29
666.269	560.97
666.467	884.55
666.665	878.41
666.863	632.65
667.061	679.75
667.259	597.84
667.457	767.82
667.655	986.95
667.853	501.58
668.051	626.51
668.249	620.36
668.447	876.36
668.645	474.96
668.843	790.35
669.041	923.46
669.239	651.08
669.437	720.71
669.635	636.75
669.833	708.43
670.031	956.23
670.229	726.86
670.426	698.19
670.624	790.35
670.822	612.17
671.02	507.73
671.218	620.36
671.415	606.03
671.613	851.78
671.811	724.81
672.009	632.65
672.206	986.95
672.404	921.42
672.602	880.46
672.799	724.81
672.997	847.69
673.195	1056.58
673.392	716.62
673.59	472.91
673.788	1019.72
673.985	452.43
674.183	726.86
674.38	685.9
674.578	1056.58
674.775	624.46
674.973	460.62
675.17	587.6
675.368	1187.65
675.565	956.23
675.763	546.64
675.96	667.47
676.158	1148.74
676.355	859.98
676.553	618.32
676.75	585.55
676.947	833.35
677.145	788.3
677.342	755.53
677.539	677.71
677.737	851.78
677.934	1292.1
678.131	800.59
678.329	524.11
678.526	1269.57
678.723	966.47
678.92	765.77
679.118	722.76
679.315	585.55
679.512	1173.32
679.709	474.96
679.906	593.74
680.104	1120.07
680.301	1068.87
680.498	550.73
680.695	567.12
680.892	636.75
681.089	718.67
681.286	653.13
681.483	399.18
681.68	1085.25
681.877	993.09
682.075	720.71
682.272	825.16
682.469	898.89
682.665	767.82
682.862	638.8
683.059	446.29
683.256	888.65
683.453	929.61
683.65	704.33
683.847	630.6
684.044	827.21
684.241	620.36
684.438	773.96
684.635	542.54
684.831	1318.72
685.028	1361.73
685.225	642.89
685.422	790.35
685.619	716.62
685.815	857.93
686.012	851.78
686.209	733
686.405	622.41
686.602	1054.53
686.799	614.22
686.996	585.55
687.192	642.89
687.389	1275.71
687.586	597.84
687.782	743.24
687.979	1169.22
688.175	1101.64
688.372	835.4
688.568	743.24
688.765	679.75
688.962	1195.84
689.158	794.44
689.355	552.78
689.551	1052.49
689.748	700.23
689.944	841.54
690.14	585.55
690.337	1085.25
690.533	753.48
690.73	888.65
690.926	753.48
691.123	1007.43
691.319	974.66
691.515	614.22
691.712	884.55
691.908	950.09
692.104	853.83
692.301	907.08
692.497	556.88
692.693	1054.53
692.889	1075.01
693.086	798.54
693.282	503.63
693.478	800.59
693.674	1253.19
693.87	706.38
694.067	493.39
694.263	962.37
694.459	894.79
694.655	843.59
694.851	769.87
695.047	1066.82
695.243	1050.44
695.439	829.26
695.635	771.91
695.831	999.24
696.027	1023.81
696.224	708.43
696.42	991.05
696.615	1222.47
696.811	1060.68
697.007	536.4
697.203	720.71
697.399	991.05
697.595	1232.71
697.791	563.02
697.987	857.93
698.183	575.31
698.379	796.49
698.575	753.48
698.77	724.81
698.966	1050.44
699.162	1236.8
699.358	675.66
699.554	745.29
699.749	1052.49
699.945	1218.37
700.141	841.54
700.337	800.59
700.532	917.32
700.728	665.42
700.924	706.38
701.119	606.03
701.315	1021.77
701.511	845.64
701.706	831.3
701.902	452.43
702.097	868.17
702.293	1052.49
702.489	800.59
702.684	667.47
702.88	855.88
703.075	786.25
703.271	773.96
703.466	681.8
703.662	945.99
703.857	1056.58
704.053	630.6
704.248	704.33
704.443	1093.44
704.639	1077.06
704.834	720.71
705.03	681.8
705.225	1097.54
705.42	1265.47
705.616	915.27
705.811	571.21
706.006	890.7
706.202	816.97
706.397	892.74
706.592	520.01
706.787	1046.34
706.983	1023.81
707.178	1015.62
707.373	829.26
707.568	1152.84
707.763	1208.13
707.959	681.8
708.154	726.86
708.349	954.18
708.544	960.33
708.739	978.76
708.934	679.75
709.129	1183.56
709.324	1349.44
709.519	773.96
709.714	624.46
709.909	1222.47
710.104	1066.82
710.299	599.88
710.494	872.26
710.689	1109.83
710.884	943.94
711.079	739.15
711.274	1019.72
711.469	1046.34
711.664	1046.34
711.859	812.87
712.054	771.91
712.249	1087.3
712.443	1269.57
712.638	520.01
712.833	685.9
713.028	1009.48
713.223	878.41
713.417	1011.53
713.612	728.91
713.807	1136.45
714.002	1492.8
714.196	880.46
714.391	767.82
714.586	1201.99
714.78	905.03
714.975	802.63
715.17	700.23
715.364	902.98
715.559	1163.08
715.754	438.09
715.948	673.61
716.143	1359.68
716.337	1122.12
716.532	1107.78
716.726	587.6
716.921	1179.46
717.115	1427.26
717.31	651.08
717.504	1109.83
717.699	962.37
717.893	1345.34
718.088	790.35
718.282	665.42
718.476	1068.87
718.671	1113.92
718.865	712.52
719.059	821.06
719.254	962.37
719.448	1257.28
719.642	2043.7
719.837	597.84
720.031	1144.64
720.225	1232.71
720.419	941.89
720.614	704.33
720.808	1093.44
721.002	859.98
721.196	616.27
721.39	726.86
721.585	1304.39
721.779	1081.16
721.973	741.19
722.167	536.4
722.361	982.85
722.555	1285.95
722.749	753.48
722.943	692.04
723.137	728.91
723.331	1068.87
723.525	812.87
723.719	735.05
723.913	1177.41
724.107	1242.95
724.301	636.75
724.495	814.92
724.689	1335.1
724.883	1312.58
725.077	657.23
725.271	741.19
725.465	1355.58
725.659	929.61
725.853	892.74
726.046	667.47
726.24	870.22
726.434	1253.19
726.628	739.15
726.822	778.06
727.015	1244.99
727.209	1183.56
727.403	778.06
727.596	628.56
727.79	1140.55
727.984	1103.68
728.177	696.14
728.371	788.3
728.565	1259.33
728.758	773.96
728.952	755.53
729.146	784.2
729.339	1218.37
729.533	917.32
729.726	821.06
729.92	659.28
730.113	1306.43
730.307	1091.4
730.5	837.45
730.694	755.53
730.887	1001.29
731.081	1124.16
731.274	651.08
731.468	880.46
731.661	1081.16
731.854	1011.53
732.048	765.77
732.241	726.86
732.435	913.22
732.628	972.61
732.821	909.13
733.014	671.56
733.208	735.05
733.401	1201.99
733.594	872.26
733.788	810.82
733.981	1392.45
734.174	1011.53
734.367	675.66
734.56	857.93
734.754	1179.46
734.947	1005.38
735.14	837.45
735.333	757.58
735.526	1044.29
735.719	919.37
735.912	671.56
736.105	864.07
736.298	1040.2
736.491	925.51
736.684	767.82
736.877	741.19
737.07	1011.53
737.263	1283.91
737.456	726.86
737.649	728.91
737.842	870.22
738.035	1122.12
738.228	794.44
738.421	931.66
738.614	1359.68
738.807	1169.22
739	724.81
739.192	687.95
739.385	1085.25
739.578	1161.03
739.771	1122.12
739.964	733
740.156	1062.73
740.349	1021.77
740.542	980.81
740.735	677.71
740.927	780.11
741.12	804.68
741.313	769.87
741.505	823.11
741.698	1056.58
741.891	1163.08
742.083	941.89
742.276	833.35
742.468	1077.06
742.661	1005.38
742.854	855.88
743.046	786.25
743.239	1392.45
743.431	1009.48
743.624	859.98
743.816	667.47
744.009	991.05
744.201	1064.77
744.393	986.95
744.586	687.95
744.778	1355.58
744.971	997.19
745.163	892.74
745.355	1001.29
745.548	1130.31
745.74	929.61
745.932	888.65
746.125	753.48
746.317	1584.96
746.509	1072.96
746.702	767.82
746.894	866.12
747.086	1138.5
747.278	1388.35
747.471	954.18
747.663	808.78
747.855	1140.55
748.047	1406.78
748.239	776.01
748.431	831.3
748.623	1437.5
748.815	1437.5
749.008	741.19
749.2	778.06
749.392	1115.97
749.584	1161.03
749.776	837.45
749.968	970.57
750.16	1560.38
750.352	1113.92
750.544	831.3
750.736	806.73
750.928	1201.99
751.12	1099.59
751.311	855.88
751.503	819.02
751.695	1122.12
751.887	1027.91
752.079	593.74
752.271	786.25
752.463	1898.3
752.654	1244.99
752.846	913.22
753.038	845.64
753.23	966.47
753.421	1281.86
753.613	773.96
753.805	1126.21
753.997	1275.71
754.188	1261.38
754.38	841.54
754.572	841.54
754.763	1019.72
754.955	1220.42
755.146	859.98
755.338	884.55
755.53	1187.65
755.721	1027.91
755.913	747.34
756.104	784.2
756.296	1068.87
756.487	1277.76
756.679	708.43
756.87	794.44
757.062	956.23
757.253	1183.56
757.445	823.11
757.636	1064.77
757.827	1107.78
758.019	1736.51
758.21	757.58
758.401	896.84
758.593	1566.53
758.784	1414.98
758.975	716.62
759.167	708.43
759.358	1091.4
759.549	1351.49
759.74	792.39
759.932	866.12
760.123	1357.63
760.314	974.66
760.505	1007.43
760.696	821.06
760.888	1644.35
761.079	962.37
761.27	827.21
761.461	618.32
761.652	1441.6
761.843	958.28
762.034	847.69
762.225	1042.25
762.416	1091.4
762.607	1126.21
762.798	923.46
762.989	767.82
763.18	1824.57
763.371	978.76
763.562	798.54
763.753	851.78
763.944	1244.99
764.135	1236.8
764.326	1042.25
764.517	855.88
764.708	1066.82
764.899	1300.29
765.089	751.43
765.28	606.03
765.471	1072.96
765.662	1232.71
765.853	913.22
766.043	679.75
766.234	1324.87
766.425	1314.63
766.615	900.94
766.806	819.02
766.997	1400.64
767.187	989
767.378	786.25
767.569	653.13
767.759	1187.65
767.95	1134.4
768.141	1032.01
768.331	714.57
768.522	956.23
768.712	1240.9
768.903	696.14
769.093	692.04
769.284	1380.16
769.474	1175.36
769.665	626.51
769.855	673.61
770.046	1036.1
770.236	980.81
770.426	991.05
770.617	646.99
770.807	1095.49
770.998	962.37
771.188	945.99
771.378	683.85
771.569	1240.9
771.759	1222.47
771.949	644.94
772.139	583.5
772.33	1040.2
772.52	1480.51
772.71	749.39
772.9	667.47
773.09	1429.31
773.281	1363.78
773.471	747.34
773.661	761.67
773.851	1318.72
774.041	831.3
774.231	735.05
774.421	989
774.611	1306.43
774.802	1081.16
774.992	831.3
775.182	741.19
775.372	1109.83
775.562	1152.84
775.752	790.35
775.942	798.54
776.131	1298.24
776.321	1204.03
776.511	710.47
776.701	773.96
776.891	1361.73
777.081	786.25
777.271	831.3
777.461	724.81
777.651	1177.41
777.84	1261.38
778.03	814.92
778.22	776.01
778.41	1349.44
778.599	737.1
778.789	780.11
778.979	698.19
779.169	1177.41
779.358	1062.73
779.548	1097.54
779.738	692.04
779.927	1126.21
780.117	839.5
780.307	874.31
780.496	581.45
780.686	1169.22
780.875	1509.18
781.065	841.54
781.254	761.67
781.444	1032.01
781.633	1019.72
781.823	790.35
782.012	716.62
782.202	859.98
782.391	950.09
782.581	624.46
782.77	984.9
782.96	1257.28
783.149	1003.33
783.338	831.3
783.528	608.08
783.717	1304.39
783.906	1339.2
784.096	880.46
784.285	675.66
784.474	978.76
784.663	843.59
784.853	802.63
785.042	851.78
785.231	980.81
785.42	1318.72
785.61	945.99
785.799	694.09
785.988	933.7
786.177	937.8
786.366	700.23
786.555	995.14
786.744	1263.43
786.933	972.61
787.122	644.94
787.312	700.23
787.501	948.04
787.69	1212.23
787.879	833.35
788.068	704.33
788.257	794.44
788.445	862.02
788.634	767.82
788.823	696.14
789.012	1658.68
789.201	1363.78
789.39	800.59
789.579	689.99
789.768	986.95
789.957	1113.92
790.145	745.29
790.334	462.67
790.523	839.5
790.712	866.12
790.9	761.67
791.089	603.98
791.278	1275.71
791.467	1085.25
791.655	1021.77
791.844	1142.6
792.033	888.65
792.221	907.08
792.41	878.41
792.599	556.88
792.787	1118.02
792.976	1216.32
793.164	698.19
793.353	632.65
793.541	1224.51
793.73	1158.98
793.918	782.15
794.107	790.35
794.295	989
794.484	945.99
794.672	855.88
794.861	642.89
795.049	1111.88
795.238	1398.59
795.426	667.47
795.614	804.68
795.803	1152.84
795.991	1249.09
796.179	757.58
796.368	673.61
796.556	1247.04
796.744	737.1
796.932	640.84
797.121	638.8
797.309	956.23
797.497	1179.46
797.685	782.15
797.874	749.39
798.062	929.61
798.25	1312.58
798.438	675.66
798.626	653.13
798.814	1144.64
799.002	1611.58
799.19	948.04
799.378	882.5
799.566	1255.23
799.755	1361.73
799.943	1058.63
800.131	730.95
800.318	1060.68
800.506	1107.78
800.694	675.66
800.882	945.99
801.07	1285.95
801.258	913.22
801.446	722.76
801.634	728.91
801.822	991.05
802.01	1048.39
802.197	687.95
802.385	868.17
802.573	1072.96
802.761	829.26
802.949	837.45
803.136	620.36
803.324	1208.13
803.512	1111.88
803.699	859.98
803.887	601.93
804.075	1341.25
804.262	870.22
804.45	786.25
804.638	806.73
804.825	839.5
805.013	905.03
805.201	739.15
805.388	683.85
805.576	1009.48
805.763	1408.83
805.951	796.49
806.138	989
806.326	1589.05
806.513	1052.49
806.701	755.53
806.888	794.44
807.075	1144.64
807.263	1402.69
807.45	667.47
807.638	1032.01
807.825	1412.93
808.012	1236.8
808.2	845.64
808.387	1034.05
808.574	1191.75
808.761	1408.83
808.949	771.91
809.136	964.42
809.323	970.57
809.51	1001.29
809.698	1111.88
809.885	911.18
810.072	1103.68
810.259	1251.14
810.446	823.11
810.633	798.54
810.82	1343.3
811.008	1195.84
811.195	1009.48
811.382	874.31
811.569	997.19
811.756	761.67
811.943	892.74
812.13	814.92
812.317	991.05
812.504	958.28
812.691	907.08
812.878	999.24
813.064	1384.26
813.251	1208.13
813.438	663.37
813.625	1023.81
813.812	970.57
813.999	1118.02
814.186	888.65
814.372	843.59
814.559	1195.84
814.746	1290.05
814.933	810.82
815.12	941.89
815.306	948.04
815.493	816.97
815.68	710.47
815.866	857.93
816.053	1314.63
816.24	1578.81
816.426	892.74
816.613	681.8
816.799	1226.56
816.986	1355.58
817.173	761.67
817.359	835.4
817.546	1167.17
817.732	675.66
817.919	589.64
818.105	925.51
818.292	1072.96
818.478	1193.8
818.665	853.83
818.851	888.65
819.037	1531.71
819.224	1120.07
819.41	694.09
819.597	751.43
819.783	1423.17
819.969	1220.42
820.156	917.32
820.342	716.62
820.528	1843
820.714	1001.29
820.901	1167.17
821.087	796.49
821.273	1404.74
821.459	939.85
821.646	720.71
821.832	790.35
822.018	1093.44
822.204	1077.06
822.39	827.21
822.576	749.39
822.762	1255.23
822.948	1154.88
823.134	1089.35
823.32	909.13
823.507	868.17
823.693	1169.22
823.879	1150.79
824.065	778.06
824.25	1113.92
824.436	841.54
824.622	870.22
824.808	730.95
824.994	993.09
825.18	853.83
825.366	741.19
825.552	808.78
825.738	997.19
825.923	1300.29
826.109	991.05
826.295	753.48
826.481	743.24
826.667	933.7
826.852	870.22
827.038	683.85
827.224	1306.43
827.409	1421.12
827.595	638.8
827.781	1009.48
827.966	1347.39
828.152	1312.58
828.338	890.7
828.523	696.14
828.709	913.22
828.894	1437.5
829.08	790.35
829.266	821.06
829.451	859.98
829.637	1267.52
829.822	1003.33
830.008	890.7
830.193	1181.51
830.378	1380.16
830.564	909.13
830.749	812.87
830.935	1310.53
831.12	1179.46
831.305	804.68
831.491	866.12
831.676	810.82
831.861	1244.99
832.047	898.89
832.232	726.86
832.417	1285.95
832.602	1068.87
832.788	745.29
832.973	786.25
833.158	1103.68
833.343	1103.68
833.528	960.33
833.714	1015.62
833.899	1183.56
834.084	1552.19
834.269	995.14
834.454	839.5
834.639	1208.13
834.824	1025.86
835.009	972.61
835.194	995.14
835.379	1318.72
835.564	1476.41
835.749	894.79
835.934	776.01
836.119	1249.09
836.304	1066.82
836.489	749.39
836.674	1050.44
836.859	915.27
837.044	1361.73
837.228	888.65
837.413	698.19
837.598	1087.3
837.783	1308.48
837.968	882.5
838.152	640.84
838.337	675.66
838.522	1220.42
838.707	1316.67
838.891	913.22
839.076	1101.64
839.261	1290.05
839.445	864.07
839.63	909.13
839.815	1554.24
839.999	999.24
840.184	827.21
840.368	749.39
840.553	1158.98
840.737	1214.27
840.922	730.95
841.106	679.75
841.291	802.63
841.475	1118.02
841.66	827.21
841.844	800.59
842.029	1740.6
842.213	687.95
842.397	870.22
842.582	630.6
842.766	1320.77
842.951	1273.67
843.135	733
843.319	819.02
843.504	1075.01
843.688	1218.37
843.872	626.51
844.056	689.99
844.241	1238.85
844.425	986.95
844.609	984.9
844.793	692.04
844.977	1181.51
845.161	1214.27
845.346	698.19
845.53	763.72
845.714	1046.34
845.898	1429.31
846.082	606.03
846.266	724.81
846.45	1023.81
846.634	982.85
846.818	743.24
847.002	948.04
847.186	1199.94
847.37	829.26
847.554	751.43
847.738	835.4
847.922	1109.83
848.106	1056.58
848.29	689.99
848.473	741.19
848.657	1193.8
848.841	945.99
849.025	771.91
849.209	749.39
849.392	1171.27
849.576	1101.64
849.76	550.73
849.944	995.14
850.127	1316.67
850.311	730.95
850.495	718.67
850.678	724.81
850.862	1249.09
851.046	1345.34
851.229	1034.05
851.413	675.66
851.596	1036.1
851.78	1040.2
851.964	962.37
852.147	821.06
852.331	1797.95
852.514	1324.87
852.698	737.1
852.881	642.89
853.065	1253.19
853.248	995.14
853.431	829.26
853.615	927.56
853.798	1570.62
853.982	1115.97
854.165	1011.53
854.348	806.73
854.532	851.78
854.715	917.32
854.898	825.16
855.081	784.2
855.265	1257.28
855.448	1445.7
855.631	687.95
855.814	800.59
855.997	1275.71
856.181	913.22
856.364	859.98
856.547	644.94
856.73	1083.2
856.913	1101.64
857.096	524.11
857.279	864.07
857.462	888.65
857.645	1214.27
857.828	982.85
858.011	1040.2
858.194	943.94
858.377	1267.52
858.56	683.85
858.743	851.78
858.926	765.77
859.109	1161.03
859.292	747.34
859.475	599.88
859.658	1240.9
859.841	1054.53
860.023	548.68
860.206	687.95
860.389	1052.49
860.572	1318.72
860.755	726.86
860.937	716.62
861.12	1050.44
861.303	806.73
861.486	773.96
861.668	784.2
861.851	1101.64
862.034	1085.25
862.216	839.5
862.399	632.65
862.581	1105.73
862.764	1386.3
862.947	808.78
863.129	700.23
863.312	708.43
863.494	1328.96
863.677	1077.06
863.859	542.54
864.042	1103.68
864.224	1388.35
864.406	761.67
864.589	487.25
864.771	1095.49
864.954	714.57
865.136	679.75
865.318	530.25
865.501	1148.74
865.683	550.73
865.865	720.71
866.048	675.66
866.23	1044.29
866.412	950.09
866.594	644.94
866.777	843.59
866.959	1032.01
867.141	853.83
867.323	913.22
867.505	851.78
867.687	1023.81
867.869	1046.34
868.052	743.24
868.234	704.33
868.416	989
868.598	1167.17
868.78	745.29
868.962	634.7
869.144	1199.94
869.326	1085.25
869.508	638.8
869.69	665.42
869.872	847.69
870.054	1242.95
870.236	587.6
870.417	663.37
870.599	819.02
870.781	1462.08
870.963	839.5
871.145	612.17
871.327	716.62
871.508	1109.83
871.69	720.71
871.872	798.54
872.054	995.14
872.235	1134.4
872.417	831.3
872.599	597.84
872.78	1396.54
872.962	982.85
873.144	565.07
873.325	687.95
873.507	1242.95
873.689	1091.4
873.87	546.64
874.052	857.93
874.233	900.94
874.415	1244.99
874.596	751.43
874.778	651.08
874.959	962.37
875.141	1224.51
875.322	735.05
875.503	601.93
875.685	1066.82
875.866	554.83
876.048	698.19
876.229	646.99
876.41	1005.38
876.592	1025.86
876.773	692.04
876.954	415.57
877.136	1224.51
877.317	950.09
877.498	440.14
877.679	782.15
877.86	1187.65
878.042	976.71
878.223	603.98
878.404	1105.73
878.585	1093.44
878.766	1306.43
878.947	970.57
879.128	984.9
879.309	1138.5
879.49	1195.84
879.672	823.11
879.853	769.87
880.034	735.05
880.215	925.51
880.396	872.26
880.576	808.78
880.757	739.15
880.938	1388.35
881.119	698.19
881.3	737.1
881.481	812.87
881.662	1816.38
881.843	700.23
882.023	524.11
882.204	1040.2
882.385	982.85
882.566	642.89
882.747	661.32
882.927	849.74
883.108	1005.38
883.289	667.47
883.469	925.51
883.65	888.65
883.831	980.81
884.011	950.09
884.192	773.96
884.373	1197.89
884.553	1156.93
884.734	782.15
884.914	1093.44
885.095	1701.69
885.275	1439.55
885.456	1003.33
885.636	710.47
885.817	1009.48
885.997	991.05
886.178	704.33
886.358	792.39
886.538	1023.81
886.719	1898.3
886.899	755.53
887.08	855.88
887.26	1267.52
887.44	735.05
887.621	536.4
887.801	909.13
887.981	1625.92
888.161	1208.13
888.342	810.82
888.522	868.17
888.702	1249.09
888.882	1296.19
889.062	907.08
889.242	464.72
889.423	1355.58
889.603	1101.64
889.783	905.03
889.963	851.78
890.143	1146.69
890.323	1355.58
890.503	841.54
890.683	802.63
890.863	1138.5
891.043	1163.08
891.223	995.14
891.403	1021.77
891.583	1142.6
891.763	1068.87
891.943	913.22
892.122	671.56
892.302	1007.43
892.482	1064.77
892.662	968.52
892.842	870.22
893.022	1175.36
893.201	921.42
893.381	896.84
893.561	700.23
893.741	1353.54
893.92	1134.4
894.1	900.94
894.28	898.89
894.459	1175.36
894.639	1224.51
894.819	810.82
894.998	1011.53
895.178	1079.11
895.357	1292.1
895.537	876.36
895.716	751.43
895.896	1056.58
896.075	1457.98
896.255	747.34
896.434	704.33
896.614	1300.29
896.793	1427.26
896.973	905.03
897.152	1007.43
897.331	1228.61
897.511	1230.66
897.69	679.75
897.87	853.83
898.049	1195.84
898.228	1175.36
898.407	1003.33
898.587	966.47
898.766	950.09
898.945	1193.8
899.124	1036.1
899.304	993.09
899.483	1187.65
899.662	1431.36
899.841	800.59
900.02	737.1
900.199	1408.83
900.378	1136.45
900.557	761.67
900.737	749.39
900.916	1273.67
901.095	1259.33
901.274	1124.16
901.453	636.75
901.632	907.08
901.811	948.04
901.989	804.68
902.168	831.3
902.347	1232.71
902.526	880.46
902.705	827.21
902.884	974.66
903.063	1462.08
903.242	1396.54
903.42	712.52
903.599	900.94
903.778	1314.63
903.957	1462.08
904.135	931.66
904.314	917.32
904.493	1066.82
904.672	1183.56
904.85	776.01
905.029	780.11
905.207	1224.51
905.386	1814.33
905.565	663.37
905.743	898.89
905.922	939.85
906.1	1347.39
906.279	780.11
906.457	841.54
906.636	1021.77
906.814	1042.25
906.993	909.13
907.171	821.06
907.35	1259.33
907.528	1232.71
907.707	1007.43
907.885	810.82
908.063	1562.43
908.242	859.98
908.42	796.49
908.598	694.09
908.777	1120.07
908.955	950.09
909.133	868.17
909.311	630.6
909.49	1011.53
909.668	1077.06
909.846	739.15
910.024	634.7
910.202	1044.29
910.38	1142.6
910.559	720.71
910.737	694.09
910.915	1070.92
911.093	1144.64
911.271	757.58
911.449	980.81
911.627	1191.75
911.805	1521.47
911.983	890.7
912.161	712.52
912.339	1085.25
912.517	1302.34
912.695	886.6
912.872	855.88
913.05	810.82
913.228	1091.4
913.406	765.77
913.584	706.38
913.762	1158.98
913.939	816.97
914.117	823.11
914.295	710.47
914.473	1109.83
914.65	1167.17
914.828	821.06
915.006	757.58
915.184	794.44
915.361	1019.72
915.539	933.7
915.716	999.24
915.894	1034.05
916.072	1107.78
916.249	972.61
916.427	888.65
916.604	765.77
916.782	1023.81
916.959	677.71
917.137	833.35
917.314	1126.21
917.492	1230.66
917.669	913.22
917.847	827.21
918.024	1161.03
918.201	780.11
918.379	769.87
918.556	794.44
918.733	1269.57
918.911	956.23
919.088	943.94
919.265	804.68
919.442	1064.77
919.62	1003.33
919.797	651.08
919.974	603.98
920.151	1015.62
920.328	937.8
920.506	642.89
920.683	970.57
920.86	767.82
921.037	812.87
921.214	808.78
921.391	565.07
921.568	1228.61
921.745	792.39
921.922	659.28
922.099	640.84
922.276	1236.8
922.453	1052.49
922.63	739.15
922.807	907.08
922.984	976.71
923.161	827.21
923.338	724.81
923.514	528.21
923.691	880.46
923.868	1001.29
924.045	653.13
924.222	603.98
924.399	1036.1
924.575	1249.09
924.752	771.91
924.929	739.15
925.105	974.66
925.282	659.28
925.459	825.16
925.635	708.43
925.812	870.22
925.989	751.43
926.165	728.91
926.342	522.06
926.518	771.91
926.695	851.78
926.871	724.81
927.048	499.53
927.224	1062.73
927.401	841.54
927.577	759.63
927.754	542.54
927.93	1118.02
928.107	1077.06
928.283	632.65
928.459	802.63
928.636	945.99
928.812	784.2
928.988	606.03
929.165	556.88
929.341	864.07
929.517	898.89
929.693	923.46
929.87	446.29
930.046	972.61
930.222	798.54
930.398	587.6
930.574	773.96
930.751	880.46
930.927	655.18
931.103	638.8
931.279	675.66
931.455	638.8
931.631	890.7
931.807	403.28
931.983	563.02
932.159	436.05
932.335	905.03
932.511	606.03
932.687	589.64
932.863	917.32
933.039	763.72
933.215	401.23
933.391	515.92
933.566	753.48
933.742	796.49
933.918	548.68
934.094	458.57
934.27	900.94
934.445	802.63
934.621	634.7
934.797	503.63
934.973	1009.48
935.148	841.54
935.324	438.09
935.5	194.39
935.675	1120.07
935.851	800.59
936.027	405.33
936.202	495.44
936.378	761.67
936.553	622.41
936.729	849.74
936.904	372.56
937.08	487.25
937.255	517.97
937.431	388.94
937.606	214.87
937.782	589.64
937.957	784.2
938.133	509.77
938.308	341.84
938.483	610.12
938.659	372.56
938.834	380.75
939.009	270.16
939.185	454.48
939.36	345.94
939.535	75.6
939.71	434
939.886	780.11
940.061	653.13
940.236	479.05
940.411	384.85
940.586	624.46
940.761	700.23
940.937	345.94
941.112	335.7
941.287	534.35
941.462	552.78
941.637	221.01
941.812	278.35
941.987	601.93
942.162	526.16
942.337	341.84
942.512	319.31
942.687	765.77
942.862	634.7
943.037	89.94
943.212	-0.17
943.386	440.14
943.561	511.82
943.736	446.29
943.911	544.59
944.086	636.75
944.26	644.94
944.435	225.11
944.61	450.38
944.785	851.78
944.959	896.84
945.134	288.59
945.309	151.38
945.483	341.84
945.658	694.09
945.833	-41.13
946.007	145.24
946.182	905.03
946.357	253.78
946.531	169.81
946.706	206.67
946.88	163.67
947.055	620.36
947.229	272.21
947.404	145.24
947.578	628.56
947.752	257.87
947.927	96.08
948.101	-18.6
948.276	550.73
948.45	515.92
948.624	241.49
948.799	202.58
948.973	497.49
949.147	188.24
949.321	235.35
949.496	200.53
949.67	585.55
949.844	409.42
950.018	237.39
950.193	241.49
950.367	773.96
950.541	284.5
950.715	384.85
950.889	304.98
951.063	360.27
951.237	534.35
951.411	98.13
951.585	81.75
951.759	507.73
951.933	423.76
952.107	227.15
952.281	313.17
952.455	761.67
952.629	593.74
952.803	130.9
952.977	186.19
953.151	524.11
953.325	526.16
953.499	317.26
953.672	145.24
953.846	157.52
954.02	304.98
954.194	132.95
954.368	137.04
954.541	560.97
954.715	276.31
954.889	257.87
955.062	71.51
955.236	499.53
955.41	333.65
955.583	446.29
955.757	44.88
955.93	384.85
956.104	192.34
956.278	120.66
956.451	245.59
956.625	560.97
956.798	970.57
956.972	479.05
957.145	132.95
957.319	511.82
957.492	405.33
957.665	309.07
957.839	116.56
958.012	384.85
958.185	212.82
958.359	210.77
958.532	333.65
958.705	634.7
958.879	485.2
959.052	368.46
959.225	-45.23
959.398	317.26
959.572	497.49
959.745	143.19
959.918	231.25
960.091	372.56
960.264	483.15
960.438	38.74
960.611	83.8
960.784	700.23
960.957	284.5
961.13	540.49
961.303	229.2
961.476	333.65
961.649	618.32
961.822	118.61
961.995	173.91
962.168	509.77
962.341	481.1
962.514	190.29
962.686	77.65
962.859	466.77
963.032	528.21
963.205	89.94
963.378	-6.31
963.551	413.52
963.723	409.42
963.896	321.36
964.069	319.31
964.242	409.42
964.414	544.59
964.587	241.49
964.76	227.15
964.932	436.05
965.105	323.41
965.278	173.91
965.45	194.39
965.623	429.9
965.795	448.33
965.968	167.76
966.14	145.24
966.313	417.61
966.485	434
966.658	159.57
966.83	34.64
967.003	616.27
967.175	593.74
967.348	139.09
967.52	266.07
967.692	753.48
967.865	554.83
968.037	272.21
968.209	501.58
968.382	401.23
968.554	579.4
968.726	233.3
968.898	102.23
969.071	407.38
969.243	481.1
969.415	335.7
969.587	261.97
969.759	857.93
969.932	657.23
970.104	235.35
970.276	-71.85
970.448	323.41
970.62	261.97
970.792	270.16
970.964	229.2
971.136	814.92
971.308	528.21
971.48	42.84
971.652	163.67
971.824	778.06
971.996	188.24
972.168	247.63
972.339	212.82
972.511	618.32
972.683	321.36
972.855	425.81
973.027	239.44
973.199	458.57
973.37	589.64
973.542	276.31
973.714	331.6
973.886	440.14
974.057	630.6
974.229	110.42
974.401	126.8
974.572	104.28
974.744	-10.41
974.915	145.24
975.087	112.47
975.259	739.15
975.43	298.83
975.602	243.54
975.773	130.9
975.945	157.52
976.116	599.88
976.288	106.32
976.459	298.83
976.63	300.88
976.802	462.67
976.973	104.28
977.145	315.22
977.316	810.82
977.487	552.78
977.659	290.64
977.83	151.38
978.001	810.82
978.172	503.63
978.344	98.13
978.515	204.63
978.686	214.87
978.857	612.17
979.028	194.39
979.2	8.02
979.371	587.6
979.542	397.14
979.713	165.71
979.884	-237.74
980.055	188.24
980.226	329.55
980.397	38.74
980.568	12.12
980.739	628.56
980.91	227.15
981.081	276.31
981.252	61.27
981.423	563.02
981.594	636.75
981.765	48.98
981.936	192.34
982.106	421.71
982.277	601.93
982.448	73.56
982.619	212.82
982.79	233.3
982.96	683.85
983.131	239.44
983.302	-28.84
983.472	221.01
983.643	458.57
983.814	186.19
983.984	1.88
984.155	354.13
984.326	571.21
984.496	198.48
984.667	155.47
984.837	319.31
985.008	696.14
985.178	212.82
985.349	229.2
985.519	388.94
985.69	225.11
985.86	147.28
986.031	40.79
986.201	477.01
986.371	495.44
986.542	26.45
986.712	-116.9
986.882	427.85
987.053	436.05
987.223	-14.51
987.393	282.45
987.563	317.26
987.734	470.86
987.904	360.27
988.074	77.65
988.244	503.63
988.414	274.26
988.585	149.33
988.755	143.19
988.925	296.78
989.095	761.67
989.265	67.41
989.435	264.02
989.605	462.67
989.775	440.14
989.945	321.36
990.115	-51.37
990.285	313.17
990.455	374.61
990.625	210.77
990.795	20.31
990.965	665.42
991.134	110.42
991.304	38.74
991.474	59.22
991.644	509.77
991.814	702.28
991.984	38.74
992.153	28.5
992.323	264.02
992.493	374.61
992.662	-98.47
992.832	276.31
993.002	352.08
993.171	401.23
993.341	-90.28
993.511	227.15
993.68	214.87
993.85	487.25
994.019	-149.67
994.189	8.02
994.358	323.41
994.528	169.81
994.697	-51.37
994.867	-102.57
995.036	417.61
995.206	261.97
995.375	24.4
995.544	227.15
995.714	401.23
995.883	247.63
996.052	159.57
996.222	-231.59
996.391	802.63
996.56	343.89
996.73	-92.33
996.899	-125.1
997.068	657.23
997.237	321.36
997.406	-28.84
997.576	-159.91
997.745	409.42
997.914	411.47
998.083	-176.3
998.252	10.07
998.421	296.78
998.59	46.93
998.759	-75.95
998.928	-143.53
999.097	544.59
999.266	388.94
999.435	114.52
999.604	-159.91
999.773	696.14
999.942	216.91
1000.111	-121
1000.28	-192.68
1000.448	57.17
1000.617	94.04
1000.786	114.52
1000.955	-155.82
1001.124	393.04
1001.292	911.18
1001.461	24.4
1001.63	-110.76
1001.798	671.56
1001.967	554.83
1002.136	-71.85
1002.304	-102.57
1002.473	395.09
1002.642	390.99
1002.81	24.4
1002.979	-57.51
1003.147	384.85
1003.316	917.32
1003.484	14.17
1003.653	-133.29
1003.821	520.01
1003.99	132.95
1004.158	106.32
1004.327	42.84
1004.495	358.22
1004.663	73.56
1004.832	163.67
1005	-196.78
1005.168	405.33
1005.337	311.12
1005.505	-194.73
1005.673	102.23
1005.842	450.38
1006.01	327.5
1006.178	-37.03
1006.346	-57.51
1006.514	278.35
1006.683	517.97
1006.851	-67.75
1007.019	-176.3
1007.187	8.02
1007.355	-180.39
1007.523	-235.69
1007.691	-180.39
1007.859	10.07
1008.027	560.97
1008.195	-14.51
1008.363	-159.91
1008.531	440.14
1008.699	63.32
1008.867	-225.45
1009.035	-149.67
1009.203	606.03
1009.37	225.11
1009.538	-53.42
1009.706	290.64
1009.874	264.02
1010.042	167.76
1010.209	-176.3
1010.377	-192.68
1010.545	495.44
1010.713	257.87
1010.88	-90.28
1011.048	-110.76
1011.216	55.12
1011.383	581.45
1011.551	-106.67
1011.718	-280.74
1011.886	489.29
1012.054	202.58
1012.221	-151.72
1012.389	-127.14
1012.556	282.45
1012.724	675.66
1012.891	51.03
1013.058	-209.06
1013.226	356.18
1013.393	362.32
1013.561	-233.64
1013.728	-211.11
1013.895	462.67
1014.063	345.94
1014.23	-145.58
1014.397	-133.29
1014.565	376.66
1014.732	208.72
1014.899	-145.58
1015.066	-196.78
1015.233	278.35
1015.401	403.28
1015.568	-51.37
1015.735	18.26
1015.902	196.43
1016.069	325.46
1016.236	-32.94
1016.403	-151.72
1016.57	-24.75
1016.737	425.81
1016.904	-106.67
1017.071	-178.34
1017.238	-28.84
1017.405	399.18
1017.572	-90.28
1017.739	12.12
1017.906	345.94
1018.073	466.77
1018.24	-176.3
1018.407	-55.47
1018.573	452.43
1018.74	163.67
1018.907	-49.32
1019.074	-313.51
1019.241	485.2
1019.407	317.26
1019.574	-75.95
1019.741	-231.59
1019.907	319.31
1020.074	274.26
1020.241	-286.89
1020.407	-293.03
1020.574	415.57
1020.74	292.69
1020.907	-47.27
1021.073	-153.77
1021.24	696.14
1021.406	573.26
1021.573	-176.3
1021.739	-192.68
1021.906	339.79
1022.072	137.04
1022.239	-155.82
1022.405	-49.32
1022.571	309.07
1022.738	81.75
1022.904	-149.67
1023.07	-137.38
1023.237	128.85
1023.403	558.92
1023.569	-131.24
1023.735	-176.3
1023.902	335.7
1024.068	321.36
1024.234	-151.72
1024.4	-188.58
1024.566	323.41
1024.732	434
1024.898	-164.01
1025.065	-258.21
1025.231	390.99
1025.397	110.42
1025.563	-104.62
1025.729	-221.35
1025.895	-243.88
1026.061	-2.22
1026.227	-344.23
1026.392	-98.47
1026.558	470.86
1026.724	290.64
1026.89	-164.01
1027.056	-102.57
1027.222	311.12
1027.388	89.94
1027.553	-188.58
1027.719	-182.44
1027.885	632.65
1028.051	245.59
1028.216	-290.98
1028.382	-59.56
1028.548	429.9
1028.713	122.71
1028.879	-217.26
1029.045	8.02
1029.21	550.73
1029.376	489.29
1029.541	-12.46
1029.707	-123.05
1029.873	370.51
1030.038	364.37
1030.204	-121
1030.369	-94.38
1030.534	395.09
1030.7	130.9
1030.865	-49.32
1031.031	-260.26
1031.196	288.59
1031.361	241.49
1031.527	-155.82
1031.692	-225.45
1031.857	-178.34
1032.023	323.41
1032.188	-213.16
1032.353	-94.38
1032.518	569.16
1032.684	218.96
1032.849	-317.61
1033.014	-86.19
1033.179	434
1033.344	354.13
1033.509	-18.6
1033.674	-141.48
1033.839	358.22
1034.004	343.89
1034.17	-200.87
1034.335	-258.21
1034.5	114.52
1034.664	100.18
1034.829	-168.1
1034.994	-98.47
1035.159	298.83
1035.324	292.69
1035.489	-176.3
1035.654	-204.97
1035.819	474.96
1035.984	261.97
1036.148	-102.57
1036.313	-90.28
1036.478	569.16
1036.643	313.17
1036.807	-123.05
1036.972	-186.54
1037.137	415.57
1037.301	298.83
1037.466	-321.7
1037.631	-108.71
1037.795	522.06
1037.96	147.28
1038.124	-34.99
1038.289	-331.94
1038.454	376.66
1038.618	393.04
1038.783	-129.19
1038.947	-102.57
1039.111	298.83
1039.276	67.41
1039.44	-204.97
1039.605	331.6
1039.769	110.42
1039.933	167.76
1040.098	-110.76
1040.262	77.65
1040.426	405.33
1040.591	366.42
1040.755	-176.3
1040.919	-141.48
1041.083	266.07
1041.248	167.76
1041.412	-278.69
1041.576	-217.26
1041.74	139.09
1041.904	419.66
1042.068	-223.4
1042.232	-102.57
1042.397	450.38
1042.561	249.68
1042.725	-372.9
1042.889	-24.75
1043.053	362.32
1043.217	284.5
1043.381	-0.17
1043.544	-250.02
1043.708	503.63
1043.872	32.6
1044.036	-370.85
1044.2	-258.21
1044.364	530.25
1044.528	593.74
1044.691	2985.77
1044.855	-245.93
1045.019	509.77
1045.183	399.18
1045.346	-96.43
1045.51	-272.55
1045.674	343.89
1045.837	378.7
1046.001	-127.14
1046.165	-153.77
1046.328	765.77
1046.492	360.27
1046.655	20.31
1046.819	-55.47
1046.983	130.9
1047.146	282.45
1047.31	-34.99
1047.473	-311.46
1047.636	257.87
1047.8	-16.55
1047.963	-53.42
1048.127	-225.45
1048.29	34.64
