Data from Ink_Intensity_USB4F045381__91__00091.txt Node

Date: Mon Jul 17 11:01:47 EDT 2023
User: mmckonesweet
Spectrometer: USB4F04538
Trigger mode: 4
Integration Time (sec): 9.000000E-1
Scans to average: 1
Electric dark correction enabled: true
Nonlinearity correction enabled: false
Boxcar width: 0
XAxis mode: Wavelengths
Number of Pixels in Spectrum: 3648
>>>>>Begin Spectral Data<<<<<
345.52	-903.84
345.736	-903.84
345.952	-903.84
346.168	-1073.82
346.384	-1012.38
346.6	-131.75
346.816	-199.34
347.032	-250.53
347.248	255.31
347.464	-254.63
347.68	-185
347.896	132.44
348.112	433.49
348.328	-47.79
348.544	-62.12
348.76	50.52
348.975	259.41
349.191	-248.49
349.407	-160.42
349.623	44.37
349.839	30.04
350.055	-78.51
350.27	71
350.486	157.01
350.702	361.81
350.918	208.21
351.133	-92.84
351.349	154.96
351.565	441.68
351.781	-189.1
351.996	64.85
352.212	355.66
352.428	-101.03
352.644	-182.95
352.859	-148.14
353.075	292.18
353.291	114
353.506	-82.6
353.722	-207.53
353.938	-49.83
354.153	515.41
354.369	144.72
354.584	-148.14
354.8	191.83
355.016	-271.01
355.231	-232.1
355.447	-39.59
355.662	193.87
355.878	849.22
356.093	-250.53
356.309	-49.83
356.524	-182.95
356.74	314.7
356.955	-172.71
357.171	-29.35
357.386	181.59
357.602	-174.76
357.817	-8.87
358.033	-219.82
358.248	329.04
358.464	202.07
358.679	-144.04
358.895	-305.83
359.11	-35.5
359.325	316.75
359.541	62.8
359.756	44.37
359.972	-185
360.187	185.68
360.402	-168.62
360.618	-119.46
360.833	1088.84
361.048	107.86
361.264	-45.74
361.479	-39.59
361.694	13.65
361.909	195.92
362.125	-109.22
362.34	-33.45
362.555	271.7
362.77	85.33
362.986	-273.06
363.201	-180.9
363.416	81.24
363.631	50.52
363.847	-232.1
364.062	-148.14
364.277	177.49
364.492	132.44
364.707	-133.8
364.922	-408.23
365.138	341.33
365.353	357.71
365.568	-238.25
365.783	-103.08
365.998	87.38
366.213	552.27
366.428	-174.76
366.643	87.38
366.858	257.36
367.073	216.4
367.288	-215.72
367.503	-234.15
367.718	136.53
367.933	359.76
368.148	-240.29
368.363	-105.13
368.578	19.8
368.793	445.77
369.008	-137.9
369.223	-166.57
369.438	191.83
369.653	415.05
369.868	-246.44
370.083	-162.47
370.298	64.85
370.513	406.86
370.728	132.44
370.943	-144.04
371.157	-154.28
371.372	529.74
371.587	-279.21
371.802	-309.93
372.017	-37.55
372.232	367.95
372.446	-60.07
372.661	-275.11
372.876	288.08
373.091	177.49
373.306	-80.55
373.52	-193.19
373.735	-74.41
373.95	400.72
374.165	-88.75
374.379	-92.84
374.594	-86.7
374.809	120.15
375.023	23.89
375.238	-244.39
375.453	277.84
375.667	-199.34
375.882	-109.22
376.097	-213.67
376.311	167.25
376.526	97.62
376.741	-174.76
376.955	105.81
377.17	570.7
377.384	578.89
377.599	-27.31
377.813	-246.44
378.028	677.2
378.242	271.7
378.457	-39.59
378.672	-328.36
378.886	136.53
379.101	-51.88
379.315	-254.63
379.53	-66.22
379.744	185.68
379.958	281.94
380.173	-178.86
380.387	-160.42
380.602	253.27
380.816	-55.98
381.031	-168.62
381.245	-90.79
381.459	193.87
381.674	2856.23
381.888	-217.77
382.103	154.96
382.317	-158.38
382.531	511.31
382.746	1.37
382.96	-101.03
383.174	-60.07
383.388	609.61
383.603	144.72
383.817	-242.34
384.031	214.35
384.246	562.51
384.46	44.37
384.674	363.86
384.888	60.76
385.103	128.34
385.317	-203.43
385.531	-2.73
385.745	394.58
385.959	376.14
386.174	-103.08
386.388	-199.34
386.602	54.61
386.816	-113.32
387.03	58.71
387.244	13.65
387.458	218.45
387.672	437.58
387.887	-285.35
388.101	-240.29
388.315	460.11
388.529	181.59
388.743	-58.03
388.957	-139.94
389.171	400.72
389.385	-174.76
389.599	-174.76
389.813	105.81
390.027	265.55
390.241	728.39
390.455	-131.75
390.669	-23.21
390.883	-10.92
391.097	425.29
391.311	103.76
391.525	-113.32
391.738	206.16
391.952	259.41
392.166	-4.78
392.38	-176.81
392.594	410.96
392.808	415.05
393.022	-47.79
393.236	-62.12
393.449	243.03
393.663	304.46
393.877	-146.09
394.091	42.32
394.305	-76.46
394.518	23.89
394.732	-217.77
394.946	-12.97
395.16	572.75
395.373	222.55
395.587	-242.34
395.801	-90.79
396.015	447.82
396.228	267.6
396.442	-174.76
396.656	-281.25
396.869	308.56
397.083	521.55
397.297	15.7
397.51	-70.31
397.724	376.14
397.938	308.56
398.151	-240.29
398.365	-174.76
398.578	355.66
398.792	484.69
399.005	66.9
399.219	-25.26
399.433	218.45
399.646	304.46
399.86	144.72
400.073	79.19
400.287	214.35
400.5	177.49
400.714	128.34
400.927	17.75
401.141	337.23
401.354	1207.62
401.567	345.42
401.781	-209.58
401.994	353.62
402.208	677.2
402.421	-2.73
402.635	-33.45
402.848	138.58
403.061	460.11
403.275	66.9
403.488	-68.27
403.701	550.22
403.915	458.06
404.128	140.63
404.341	-51.88
404.555	251.22
404.768	124.24
404.981	157.01
405.195	17.75
405.408	648.52
405.621	410.96
405.834	185.68
406.048	-113.32
406.261	562.51
406.474	570.7
406.687	-35.5
406.9	97.62
407.114	173.39
407.327	431.44
407.54	-119.46
407.753	-98.99
407.966	25.94
408.179	374.1
408.392	-51.88
408.605	-219.82
408.819	316.75
409.032	345.42
409.245	-62.12
409.458	161.11
409.671	421.2
409.884	494.93
410.097	-139.94
410.31	130.39
410.523	376.14
410.736	193.87
410.949	111.96
411.162	58.71
411.375	564.56
411.588	519.5
411.801	167.25
412.014	-68.27
412.227	255.31
412.44	159.06
412.653	-47.79
412.865	267.6
413.078	441.68
413.291	312.66
413.504	87.38
413.717	-105.13
413.93	443.73
414.143	19.8
414.356	140.63
414.568	-119.46
414.781	439.63
414.994	324.94
415.207	187.73
415.42	97.62
415.632	462.16
415.845	734.54
416.058	136.53
416.271	-88.75
416.483	367.95
416.696	705.87
416.909	42.32
417.121	-10.92
417.334	382.29
417.547	728.39
417.759	32.08
417.972	81.24
418.185	187.73
418.397	488.78
418.61	1.37
418.823	27.99
419.035	757.07
419.248	329.04
419.46	179.54
419.673	224.59
419.885	404.82
420.098	318.8
420.311	9.56
420.523	-113.32
420.736	382.29
420.948	283.99
421.161	58.71
421.373	-158.38
421.586	382.29
421.798	95.57
422.01	-10.92
422.223	165.2
422.435	210.26
422.648	490.83
422.86	81.24
423.073	95.57
423.285	562.51
423.497	93.52
423.71	36.18
423.922	189.78
424.134	443.73
424.347	656.72
424.559	349.52
424.771	355.66
424.984	343.38
425.196	507.21
425.408	-33.45
425.621	25.94
425.833	585.04
426.045	621.9
426.257	38.23
426.47	152.91
426.682	511.31
426.894	445.77
427.106	195.92
427.318	206.16
427.531	273.75
427.743	634.19
427.955	148.82
428.167	587.08
428.379	394.58
428.591	374.1
428.804	310.61
429.016	77.14
429.228	292.18
429.44	570.7
429.652	351.57
429.864	114
430.076	337.23
430.288	298.32
430.5	226.64
430.712	353.62
430.924	705.87
431.136	488.78
431.348	-10.92
431.56	161.11
431.772	392.53
431.984	380.24
432.196	195.92
432.408	279.89
432.62	382.29
432.832	570.7
433.044	488.78
433.256	410.96
433.468	677.2
433.679	97.62
433.891	171.35
434.103	413.01
434.315	881.99
434.527	652.62
434.739	353.62
434.95	245.07
435.162	699.72
435.374	398.67
435.586	300.37
435.798	290.13
436.009	302.42
436.221	406.86
436.433	333.14
436.645	343.38
436.856	482.64
437.068	818.5
437.28	267.6
437.491	585.04
437.703	613.71
437.915	619.85
438.126	367.95
438.338	595.28
438.55	529.74
438.761	613.71
438.973	347.47
439.184	400.72
439.396	572.75
439.608	826.7
439.819	257.36
440.031	499.02
440.242	746.83
440.454	707.91
440.665	435.53
440.877	513.36
441.088	748.87
441.3	474.45
441.511	251.22
441.723	402.77
441.934	726.35
442.146	613.71
442.357	566.6
442.569	669
442.78	714.06
442.991	1056.07
443.203	738.63
443.414	316.75
443.626	998.73
443.837	582.99
444.048	324.94
444.26	288.08
444.471	558.41
444.682	869.7
444.894	236.88
445.105	308.56
445.316	925
445.528	851.27
445.739	509.26
445.95	550.22
446.161	767.31
446.373	976.2
446.584	587.08
446.795	488.78
447.006	847.18
447.217	1086.79
447.429	337.23
447.64	341.33
447.851	1049.93
448.062	767.31
448.273	347.47
448.484	490.83
448.695	789.83
448.907	709.96
449.118	673.1
449.329	726.35
449.54	597.32
449.751	589.13
449.962	537.93
450.173	550.22
450.384	1072.45
450.595	1150.28
450.806	568.65
451.017	568.65
451.228	1156.42
451.439	1082.69
451.65	578.89
451.861	283.99
452.072	630.09
452.283	830.79
452.494	775.5
452.705	488.78
452.915	1215.81
453.126	990.53
453.337	638.28
453.548	513.36
453.759	1172.8
453.97	1387.84
454.181	869.7
454.391	689.48
454.602	1019.21
454.813	1074.5
455.024	808.26
455.235	771.4
455.445	900.42
455.656	1068.36
455.867	904.52
456.078	748.87
456.288	947.53
456.499	1039.69
456.71	611.66
456.921	873.8
457.131	1176.9
457.342	1021.25
457.553	834.89
457.763	744.78
457.974	1137.99
458.184	1238.34
458.395	669
458.606	738.63
458.816	1359.17
459.027	1566.01
459.237	974.15
459.448	611.66
459.659	1357.12
459.869	1652.03
460.08	709.96
460.29	1101.12
460.501	1512.77
460.711	1004.87
460.922	755.02
461.132	935.24
461.343	1819.96
461.553	869.7
461.764	941.38
461.974	951.62
462.184	1254.72
462.395	1369.41
462.605	988.49
462.816	804.17
463.026	1391.94
463.236	1582.4
463.447	976.2
463.657	1000.77
463.867	1555.77
464.078	1303.87
464.288	980.29
464.498	1004.87
464.709	1473.85
464.919	1381.7
465.129	1176.9
465.339	1017.16
465.55	1502.53
465.76	1625.4
465.97	1178.95
466.18	1193.28
466.391	1662.27
466.601	1563.97
466.811	1414.46
467.021	1066.31
467.231	1729.85
467.441	1729.85
467.651	1367.36
467.862	1099.08
468.072	1537.34
468.282	1840.44
468.492	1217.86
468.702	1426.75
468.912	1629.5
469.122	2139.44
469.332	1787.19
469.542	1445.18
469.752	2028.85
469.962	1846.59
470.172	1537.34
470.382	1426.75
470.592	1930.55
470.802	2112.82
471.012	1699.13
471.222	1525.05
471.432	2262.32
471.642	2037.05
471.852	1881.4
472.062	1619.26
472.272	1930.55
472.482	1799.48
472.691	1631.55
472.901	1727.8
473.111	2014.52
473.321	2577.71
473.531	1799.48
473.741	1936.7
473.95	2403.63
474.16	2383.15
474.37	2047.29
474.58	1854.78
474.79	2590
474.999	2608.43
475.209	1981.75
475.419	2096.44
475.628	2395.44
475.838	2567.47
476.048	2204.98
476.258	2078.01
476.467	2706.73
476.677	2245.94
476.886	2444.59
477.096	2463.02
477.306	2362.67
477.515	2915.62
477.725	2315.57
477.935	2463.02
478.144	3138.85
478.354	2497.84
478.563	2579.76
478.773	2430.26
478.982	3024.17
479.192	3073.32
479.401	2635.05
479.611	2463.02
479.82	2757.93
480.03	2929.96
480.239	2792.75
480.449	2592.05
480.658	3351.84
480.868	2893.1
481.077	2929.96
481.287	2753.84
481.496	3366.18
481.705	3589.41
481.915	3196.2
482.124	3200.29
482.333	3347.75
482.543	3636.51
482.752	3200.29
482.961	3028.26
483.171	3458.34
483.38	3282.21
483.589	3276.07
483.799	3138.85
484.008	3560.73
484.217	3673.37
484.426	3355.94
484.636	3257.64
484.845	3726.62
485.054	3278.12
485.263	3779.87
485.472	3509.54
485.682	4154.65
485.891	3788.06
486.1	3396.9
486.309	3624.22
486.518	3931.42
486.727	4295.96
486.936	3642.65
487.146	3857.69
487.355	4252.95
487.564	3738.91
487.773	3822.88
487.982	3761.44
488.191	3898.65
488.4	4300.05
488.609	3906.84
488.818	3986.71
489.027	4717.84
489.236	4783.37
489.445	3986.71
489.654	3892.51
489.863	4601.1
490.072	4517.14
490.281	4453.65
490.49	4220.18
490.698	4848.91
490.907	4818.19
491.116	4355.35
491.325	4117.78
491.534	4801.8
491.743	4619.53
491.952	4377.87
492.16	4388.11
492.369	4750.6
492.578	5000.46
492.787	4312.34
492.996	4449.55
493.204	4592.91
493.413	5408
493.622	4363.54
493.831	4396.31
494.039	5309.7
494.248	4631.82
494.457	4744.46
494.665	4701.45
494.874	5203.21
495.083	5504.26
495.291	4797.71
495.5	4867.34
495.709	5330.18
495.917	5223.69
496.126	5096.71
496.335	4881.67
496.543	5238.02
496.752	5424.39
496.96	5367.04
497.169	4850.96
497.377	5453.06
497.586	5688.57
497.794	5276.93
498.003	5027.08
498.211	5408
498.42	5674.24
498.628	5428.48
498.837	5324.04
499.045	5711.1
499.254	5743.87
499.462	5289.22
499.671	5412.1
499.879	6186.23
500.087	6001.91
500.296	5473.54
500.504	5530.88
500.713	5852.41
500.921	6372.6
501.129	5475.59
501.338	5764.35
501.546	6089.98
501.754	6094.07
501.962	5709.05
502.171	5588.22
502.379	6327.54
502.587	6374.64
502.795	6022.39
503.004	5852.41
503.212	6194.42
503.42	6276.34
503.628	5926.14
503.837	5922.04
504.045	6386.93
504.253	6661.36
504.461	6096.12
504.669	5858.56
504.877	6567.15
505.085	6798.57
505.294	6071.54
505.502	6305.01
505.71	6534.39
505.918	6665.46
506.126	6137.08
506.334	6053.11
506.542	6665.46
506.75	6604.02
506.958	6444.27
507.166	6214.9
507.374	6434.04
507.582	7042.28
507.79	6507.76
507.998	6427.89
508.206	6900.97
508.414	6921.45
508.622	6479.09
508.83	6456.56
509.037	7300.33
509.245	6837.49
509.453	6565.11
509.661	6601.97
509.869	7329
510.077	6849.77
510.285	6800.62
510.492	6374.64
510.7	7601.38
510.908	6890.73
511.116	6681.84
511.324	6814.96
511.531	7113.96
511.739	7173.35
511.947	7218.41
512.155	7359.72
512.362	7480.55
512.57	6946.03
512.778	6888.68
512.985	6855.92
513.193	7513.31
513.401	7787.74
513.608	7154.92
513.816	7073
514.024	7480.55
514.231	7662.82
514.439	7083.24
514.646	7126.25
514.854	7757.02
515.061	7771.36
515.269	7300.33
515.477	7302.37
515.684	7392.48
515.892	7853.28
516.099	7290.09
516.307	7320.81
516.514	8006.88
516.722	8213.72
516.929	7400.68
517.136	7460.07
517.344	8209.62
517.551	7867.61
517.759	7494.88
517.966	7677.15
518.173	7822.56
518.381	8131.8
518.588	7609.57
518.796	7509.22
519.003	8191.19
519.21	8152.28
519.418	7691.49
519.625	8064.22
519.832	8033.5
520.039	8269.02
520.247	7849.18
520.454	8000.73
520.661	8565.97
520.868	8193.24
521.076	8135.9
521.283	8049.88
521.49	8994
521.697	8551.63
521.904	8162.52
522.112	7980.25
522.319	8791.25
522.526	8635.6
522.733	8158.42
522.94	8381.65
523.147	8424.66
523.354	8723.66
523.561	8359.13
523.768	8473.81
523.975	8883.41
524.183	8697.04
524.39	8596.69
524.597	8449.24
524.804	8785.1
525.011	8666.32
525.218	8678.61
525.425	8625.36
525.632	9229.51
525.838	8819.92
526.045	8721.62
526.252	8684.75
526.459	10181.82
526.666	9946.3
526.873	8682.7
527.08	8864.97
527.287	9481.41
527.494	9422.02
527.701	8819.92
527.907	8776.91
528.114	9446.6
528.321	9354.44
528.528	9104.59
528.735	8885.45
528.941	9188.55
529.148	9116.87
529.355	9249.99
529.562	9004.24
529.768	9821.38
529.975	9389.25
530.182	9080.01
530.388	9147.59
530.595	9884.86
530.802	9483.46
531.008	9696.45
531.215	9491.65
531.422	10286.26
531.628	10521.78
531.835	9628.87
532.042	9493.7
532.248	9639.11
532.455	9837.76
532.661	9446.6
532.868	9712.83
533.074	9989.31
533.281	10308.79
533.487	9678.02
533.694	9596.1
533.9	9630.91
534.107	10380.47
534.313	9774.27
534.52	9682.11
534.726	10155.19
534.933	10826.93
535.139	9966.78
535.345	10104
535.552	10384.57
535.758	10439.86
535.965	10048.7
536.171	10083.52
536.377	10568.88
536.584	10761.39
536.79	10171.58
536.996	10439.86
537.203	10777.78
537.409	10540.21
537.615	10425.53
537.821	10319.03
538.028	11035.82
538.234	10853.55
538.44	10394.81
538.646	10529.97
538.853	11074.73
539.059	10892.46
539.265	10974.38
539.471	10060.99
539.677	11050.16
539.883	10900.65
540.09	10734.77
540.296	11132.08
540.502	11232.43
540.708	10806.45
540.914	11076.78
541.12	10699.95
541.326	11324.58
541.532	11285.67
541.738	11254.95
541.944	11019.44
542.15	11601.06
542.356	11390.12
542.562	11054.25
542.768	11244.71
542.974	11967.65
543.18	12100.76
543.386	11248.81
543.592	11398.31
543.798	12174.49
544.004	11809.95
544.21	11637.92
544.415	11375.78
544.621	11863.2
544.827	12008.61
545.033	11222.19
545.239	11801.76
545.445	11934.88
545.651	11879.58
545.856	11543.72
546.062	11631.78
546.268	11824.29
546.474	12100.76
546.679	11703.46
546.885	11857.06
547.091	11846.82
547.297	12397.72
547.502	11869.34
547.708	11459.75
547.914	11752.61
548.119	12246.17
548.325	11637.92
548.531	11527.33
548.736	12530.84
548.942	11803.81
549.147	11887.78
549.353	12121.24
549.559	12809.36
549.764	12422.3
549.97	11873.44
550.175	12139.68
550.381	12547.22
550.586	12268.7
550.792	12192.92
550.997	12024.99
551.203	12766.35
551.408	12709.01
551.614	12059.81
551.819	12446.87
552.025	13016.21
552.23	13444.23
552.435	12401.82
552.641	12852.37
552.846	12840.08
553.052	12965.01
553.257	12702.87
553.462	12838.03
553.668	12829.84
553.873	13149.32
554.078	12440.73
554.283	12778.64
554.489	13454.47
554.694	13427.85
554.899	12629.14
555.105	12930.19
555.31	13124.75
555.515	13601.93
555.72	13159.56
555.925	13046.93
556.131	13868.16
556.336	13141.13
556.541	12885.14
556.746	12909.71
556.951	13720.71
557.156	13821.06
557.361	13327.5
557.567	13368.46
557.772	14197.88
557.977	13737.09
558.182	13356.17
558.387	13309.07
558.592	13520.01
558.797	14009.47
559.002	13599.88
559.207	13382.79
559.412	13685.89
559.617	14247.04
559.822	13321.35
560.027	13452.42
560.232	13976.7
560.437	14034.05
560.642	13431.94
560.847	13692.04
561.051	14048.38
561.256	14050.43
561.461	13784.19
561.666	13593.73
561.871	13943.94
562.076	14167.17
562.281	14001.28
562.485	13759.62
562.69	14302.33
562.895	14185.6
563.1	14064.77
563.305	13786.24
563.509	14451.83
563.714	14828.66
563.919	14013.57
564.123	13943.94
564.328	14378.11
564.533	14718.07
564.737	14107.77
564.942	13888.64
565.147	14701.68
565.351	14945.39
565.556	14357.63
565.761	14515.32
565.965	14673.01
566.17	14048.38
566.374	14253.18
566.579	14281.85
566.784	14599.29
566.988	14775.41
567.193	14163.07
567.397	14300.28
567.602	14285.95
567.806	14597.24
568.011	14390.39
568.215	14775.41
568.42	14898.29
568.624	15088.75
568.828	14722.16
569.033	14963.83
569.237	15279.21
569.442	15133.81
569.646	14453.88
569.85	14595.19
570.055	14881.91
570.259	15223.92
570.463	15051.89
570.668	15078.51
570.872	15051.89
571.076	15088.75
571.281	15129.71
571.485	15027.31
571.689	15406.19
571.893	15533.16
572.098	15443.05
572.302	15074.42
572.506	15406.19
572.71	15205.49
572.914	15156.33
573.119	15142
573.323	15862.88
573.527	16184.41
573.731	15250.54
573.935	15422.57
574.139	15674.47
574.343	15277.16
574.547	15410.28
574.751	15283.31
574.955	16186.46
575.159	16305.24
575.364	15414.38
575.568	15242.35
575.772	15793.25
575.976	15967.33
576.18	15453.29
576.383	15725.67
576.587	16208.99
576.791	16282.72
576.995	15412.33
577.199	15697
577.403	16358.49
577.607	16610.39
577.811	15811.68
578.015	16149.6
578.219	16340.06
578.422	16462.94
578.626	16116.83
578.83	16485.47
579.034	16567.38
579.238	16487.51
579.442	16088.16
579.645	16548.95
579.849	16487.51
580.053	16589.91
580.257	16211.04
580.46	16270.43
580.664	16833.62
580.868	16716.89
581.071	16467.03
581.275	16487.51
581.479	16282.72
581.682	16616.54
581.886	16577.62
582.09	16563.29
582.293	16931.92
582.497	17208.4
582.7	16868.44
582.904	16651.35
583.107	16919.64
583.311	16753.75
583.515	16487.51
583.718	16712.79
583.922	17151.06
584.125	17409.1
584.329	16782.42
584.532	16841.81
584.735	17554.51
584.939	17153.1
585.142	16682.07
585.346	16716.89
585.549	17435.72
585.753	17112.14
585.956	17081.42
586.159	17151.06
586.363	17830.98
586.566	17726.53
586.769	17099.86
586.973	16731.22
587.176	17452.11
587.379	17830.98
587.582	17497.16
587.786	17366.09
587.989	17314.89
588.192	18422.84
588.395	17591.37
588.599	17699.91
588.802	17759.3
589.005	17671.24
589.208	17790.02
589.411	17488.97
589.615	18123.84
589.818	18390.08
590.021	17806.41
590.224	17798.21
590.427	18017.35
590.63	18367.55
590.833	17523.79
591.036	17935.43
591.239	18338.88
591.442	17835.08
591.645	18216
591.848	18125.89
592.051	18324.54
592.254	18467.9
592.457	18295.87
592.66	18175.04
592.863	18416.7
593.066	18416.7
593.269	18213.95
593.472	18467.9
593.675	18644.02
593.878	18738.23
594.081	18373.69
594.284	18349.12
594.486	19088.43
594.689	18947.12
594.892	18410.56
595.095	18457.66
595.298	19115.06
595.5	18947.12
595.703	18928.69
595.906	18918.45
596.109	19461.16
596.311	19291.18
596.514	18463.8
596.717	18801.72
596.92	19387.44
597.122	19491.88
597.325	18582.59
597.528	18848.82
597.73	19602.47
597.933	19190.83
598.136	19029.04
598.338	18779.19
598.541	19461.16
598.743	19483.69
598.946	19158.06
599.148	19162.16
599.351	19559.47
599.554	19541.04
599.756	19315.76
599.959	19295.28
600.161	19751.98
600.363	20136.99
600.566	19389.49
600.768	19313.71
600.971	19960.87
601.173	19741.74
601.376	19581.99
601.578	19655.72
601.78	20110.37
601.983	20577.31
602.185	19579.95
602.388	19823.65
602.59	20120.61
602.792	19831.85
602.995	19825.7
603.197	19371.05
603.399	19946.53
603.601	20356.13
603.804	19715.11
604.006	19639.34
604.208	19760.17
604.41	19766.31
604.613	19735.59
604.815	19977.25
605.017	20763.67
605.219	19960.87
605.421	20288.54
605.623	19954.72
605.826	20610.07
606.028	20595.74
606.23	19977.25
606.432	19969.06
606.634	20872.21
606.836	20630.55
607.038	20147.23
607.24	20061.22
607.442	20700.19
607.644	20642.84
607.846	20481.05
608.048	20096.03
608.25	20589.6
608.452	20509.72
608.654	20474.91
608.856	19860.52
609.058	20651.03
609.26	20612.12
609.462	20524.06
609.664	20743.19
609.866	20880.41
610.067	20800.54
610.269	20462.62
610.471	20356.13
610.673	20665.37
610.875	20917.27
611.077	20102.18
611.278	20493.34
611.48	20536.35
611.682	21273.62
611.884	20659.23
612.085	20407.33
612.287	20802.58
612.489	20855.83
612.69	20483.1
612.892	20814.87
613.094	21181.46
613.295	21042.2
613.497	20450.33
613.699	20741.14
613.9	21263.38
614.102	21083.16
614.304	20556.83
614.505	20532.25
614.707	21152.79
614.908	20694.04
615.11	20429.85
615.311	20898.84
615.513	21214.23
615.714	21226.51
615.916	20698.14
616.117	20880.41
616.319	21142.55
616.52	21294.1
616.722	20964.37
616.923	20939.8
617.124	21554.19
617.326	20890.65
617.527	21199.89
617.729	21246.99
617.93	21404.69
618.131	21924.87
618.333	21199.89
618.534	21144.59
618.735	21445.65
618.937	21943.3
619.138	20956.18
619.339	20966.42
619.54	21599.24
619.742	21154.83
619.943	21361.68
620.144	21345.3
620.345	21462.03
620.546	21736.46
620.748	21228.56
620.949	21251.09
621.15	21576.72
621.351	21550.09
621.552	21208.08
621.753	21140.5
621.954	21097.49
622.155	21910.53
622.356	21091.35
622.558	21449.74
622.759	22086.66
622.96	22062.08
623.161	21431.31
623.362	21115.92
623.563	21967.88
623.764	21980.17
623.965	21500.94
624.166	22166.53
624.366	21652.49
624.567	21980.17
624.768	21290
624.969	21482.51
625.17	21990.41
625.371	22164.48
625.572	21629.96
625.773	21500.94
625.973	22453.25
626.174	22322.18
626.375	22000.65
626.576	21939.21
626.777	22189.06
626.977	22664.19
627.178	21869.58
627.379	21931.01
627.58	21793.8
627.78	21724.17
627.981	21707.79
628.182	21828.62
628.382	22285.31
628.583	21740.55
628.784	21550.09
628.984	21980.17
629.185	22447.1
629.386	22387.71
629.586	22135.81
629.787	22305.79
629.987	22574.08
630.188	22520.83
630.388	22035.46
630.589	22031.37
630.79	22752.25
630.99	22348.8
631.191	22397.95
631.391	22516.73
631.591	22506.49
631.792	22598.65
631.992	22152.2
632.193	22758.39
632.393	22891.51
632.594	22594.56
632.794	22365.18
632.994	22354.94
633.195	22821.88
633.395	22803.45
633.595	22412.29
633.796	22469.63
633.996	22522.88
634.196	23032.82
634.397	22584.32
634.597	22666.24
634.797	22606.84
634.997	23071.73
635.198	22782.97
635.398	22395.9
635.598	23008.25
635.798	23299.06
635.998	23043.06
636.199	22500.35
636.399	23030.77
636.599	22549.5
636.799	22625.28
636.999	23079.93
637.199	23157.75
637.399	23014.39
637.599	22828.02
637.799	22488.06
637.999	22987.77
638.199	23444.46
638.399	23014.39
638.599	22936.57
638.799	23122.93
638.999	23620.59
639.199	23057.4
639.399	23233.52
639.599	23495.66
639.799	23071.73
639.999	23059.45
640.199	23059.45
640.399	23501.81
640.599	22834.17
640.799	23297.01
640.998	23426.03
641.198	23620.59
641.398	23630.83
641.598	23618.54
641.798	23393.26
641.997	24296.42
642.197	23229.43
642.397	23397.36
642.597	23321.59
642.796	23759.85
642.996	23763.95
643.196	23534.57
643.395	22965.24
643.595	23749.61
643.795	23436.27
643.994	23421.94
644.194	23499.76
644.394	23819.24
644.593	23938.02
644.793	23497.71
644.992	23778.28
645.192	23813.1
645.392	23198.71
645.591	23929.83
645.791	23870.44
645.99	23784.43
646.19	23927.78
646.389	23868.39
646.589	23938.02
646.788	24036.33
646.987	24136.68
647.187	24124.39
647.386	24122.34
647.586	23938.02
647.785	24531.93
647.984	23817.19
648.184	24097.77
648.383	23927.78
648.582	23923.69
648.782	24005.61
648.981	24277.99
649.18	24136.68
649.38	24636.38
649.579	24071.14
649.778	24169.44
649.977	24378.34
650.177	24622.05
650.376	23862.25
650.575	23852.01
650.774	24990.68
650.973	24093.67
651.173	23579.63
651.372	24413.15
651.571	24423.39
651.77	24490.98
651.969	24224.74
652.168	24382.43
652.367	24185.83
652.566	24517.6
652.765	24120.29
652.964	24474.59
653.163	25002.97
653.362	24751.07
653.561	24198.12
653.76	24366.05
653.959	24460.26
654.158	25183.19
654.357	24898.52
654.556	24562.65
654.755	24900.57
654.954	24617.95
655.153	24419.3
655.352	24859.61
655.551	25172.95
655.749	24832.99
655.948	24701.92
656.147	24808.41
656.346	25152.47
656.545	25072.6
656.743	24955.86
656.942	24650.72
657.141	25068.5
657.34	24568.8
657.538	24738.78
657.737	24947.67
657.936	25244.63
658.135	25017.3
658.333	24622.05
658.532	25035.74
658.731	25537.49
658.929	25172.95
659.128	25078.74
659.326	25224.15
659.525	25414.61
659.724	25256.92
659.922	24736.73
660.121	24624.09
660.319	25011.16
660.518	25000.92
660.716	24875.99
660.915	25056.22
661.113	25764.81
661.312	24749.02
661.51	25469.9
661.709	24951.77
661.907	25256.92
662.105	25869.26
662.304	25322.45
662.502	25410.51
662.701	25975.75
662.899	25117.65
663.097	25433.04
663.296	24923.1
663.494	25478.1
663.692	25590.73
663.891	24986.58
664.089	24906.71
664.287	25521.1
664.485	25693.13
664.684	25115.61
664.882	25283.54
665.08	25349.07
665.278	25547.73
665.476	25088.98
665.675	25517.01
665.873	25947.08
666.071	25861.07
666.269	25324.5
666.467	25383.89
666.665	25594.83
666.863	25164.76
667.061	25322.45
667.259	25140.18
667.457	25551.82
667.655	25920.46
667.853	25394.13
668.051	25390.03
668.249	25359.31
668.447	25439.19
668.645	24962.01
668.843	25779.15
669.041	26072.01
669.239	25627.6
669.437	25433.04
669.635	25865.16
669.833	25564.11
670.031	26004.42
670.229	25529.3
670.426	25848.78
670.624	25654.22
670.822	25549.78
671.02	25525.2
671.218	25500.62
671.415	25691.09
671.613	25734.09
671.811	25611.21
672.009	25654.22
672.206	26221.51
672.404	25471.95
672.602	25922.51
672.799	25852.87
672.997	26059.72
673.195	25816.01
673.392	25494.48
673.59	25185.24
673.788	25969.61
673.985	25207.76
674.183	25529.3
674.38	25543.63
674.578	25832.4
674.775	25486.29
674.973	25740.24
675.17	25340.88
675.368	26016.71
675.565	25959.37
675.763	25525.2
675.96	25508.82
676.158	25902.03
676.355	25377.75
676.553	25617.36
676.75	25584.59
676.947	25695.18
677.145	25437.14
677.342	25789.39
677.539	25807.82
677.737	25623.5
677.934	26207.17
678.131	25418.71
678.329	25306.07
678.526	26139.59
678.723	26211.27
678.92	25594.83
679.118	25504.72
679.315	25435.09
679.512	26090.44
679.709	25328.59
679.906	25592.78
680.104	26020.81
680.301	25963.47
680.498	25236.44
680.695	25222.1
680.892	25734.09
681.089	25711.56
681.286	25451.47
681.483	25119.7
681.68	25830.35
681.877	25766.86
682.075	25680.85
682.272	25752.52
682.469	25940.94
682.665	25435.09
682.862	24919
683.059	25080.79
683.256	25549.78
683.453	25623.5
683.65	25361.36
683.847	25555.92
684.044	25420.75
684.241	25342.93
684.438	25854.92
684.635	25224.15
684.831	26244.04
685.028	26174.41
685.225	25574.35
685.422	25617.36
685.619	25650.13
685.815	25478.1
686.012	25134.04
686.209	25320.4
686.405	25471.95
686.602	25906.12
686.799	24898.52
686.996	25330.64
687.192	25060.31
687.389	26266.56
687.586	25201.62
687.782	25328.59
687.979	25856.97
688.175	25842.63
688.372	25320.4
688.568	25224.15
688.765	25162.71
688.962	25705.42
689.158	25279.44
689.355	24912.86
689.551	25402.32
689.748	25105.37
689.944	25338.83
690.14	24810.46
690.337	25580.49
690.533	25549.78
690.73	25334.74
690.926	25195.48
691.123	25093.08
691.319	25328.59
691.515	25480.14
691.712	25242.58
691.908	25443.28
692.104	25490.38
692.301	25273.3
692.497	25215.96
692.693	25304.02
692.889	25637.84
693.086	25134.04
693.282	24912.86
693.478	25424.85
693.674	25469.9
693.87	25080.79
694.067	25037.78
694.263	24990.68
694.459	25140.18
694.655	25140.18
694.851	25490.38
695.047	25070.55
695.243	25521.1
695.439	25285.59
695.635	24656.86
695.831	25344.98
696.027	25070.55
696.224	25060.31
696.42	25299.92
696.615	25887.69
696.811	25342.93
697.007	24814.55
697.203	24761.31
697.399	25291.73
697.595	25453.52
697.791	24720.35
697.987	25066.45
698.183	24882.14
698.379	25095.13
698.575	25437.14
698.77	24687.58
698.966	25361.36
699.162	25461.71
699.358	24898.52
699.554	24986.58
699.749	25600.97
699.945	25312.21
700.141	24943.58
700.337	25203.67
700.532	25138.13
700.728	24863.71
700.924	24687.58
701.119	24521.7
701.315	25058.26
701.511	24855.51
701.706	25166.81
701.902	24724.44
702.097	25410.51
702.293	25146.33
702.489	25158.61
702.684	25076.69
702.88	25099.22
703.075	25203.67
703.271	24726.49
703.466	25062.36
703.662	24855.51
703.857	25191.38
704.053	24771.55
704.248	24789.98
704.443	25283.54
704.639	25048.02
704.834	24966.1
705.03	24484.83
705.225	25248.72
705.42	24962.01
705.616	24777.69
705.811	24374.24
706.006	25039.83
706.202	24794.07
706.397	24708.06
706.592	24773.6
706.787	24771.55
706.983	24873.95
707.178	25179.09
707.373	24693.72
707.568	25349.07
707.763	25344.98
707.959	24722.4
708.154	24792.03
708.349	24988.63
708.544	25240.53
708.739	24710.11
708.934	24855.51
709.129	24722.4
709.324	25193.43
709.519	24919
709.714	24726.49
709.909	25420.75
710.104	24681.44
710.299	24421.34
710.494	24878.04
710.689	24994.78
710.884	25023.45
711.079	24687.58
711.274	24751.07
711.469	25271.25
711.664	25215.96
711.859	24488.93
712.054	24658.91
712.249	24734.68
712.443	25095.13
712.638	24529.89
712.833	24259.56
713.028	24523.74
713.223	24703.96
713.417	24697.82
713.612	24396.77
713.807	24939.48
714.002	25207.76
714.196	24761.31
714.391	24320.99
714.586	24968.15
714.78	24730.59
714.975	24409.06
715.17	24318.95
715.364	24730.59
715.559	25310.16
715.754	23960.55
715.948	24112.1
716.143	25131.99
716.337	24523.74
716.532	24759.26
716.726	24300.51
716.921	24947.67
717.115	25197.52
717.31	24202.21
717.504	24708.06
717.699	24486.88
717.893	24462.3
718.088	24009.7
718.282	23962.6
718.476	24433.63
718.671	24540.13
718.865	23899.11
719.059	24056.81
719.254	24767.45
719.448	24603.61
719.642	25615.31
719.837	23804.91
720.031	24646.62
720.225	24433.63
720.419	24165.35
720.614	23872.49
720.808	24654.81
721.002	24261.6
721.196	23895.02
721.39	23698.41
721.585	24298.47
721.779	24308.71
721.973	23770.09
722.167	23794.67
722.361	24234.98
722.555	24593.37
722.749	23917.54
722.943	23743.47
723.137	24013.8
723.331	24019.94
723.525	23952.36
723.719	23864.3
723.913	24013.8
724.107	24386.53
724.301	23657.45
724.495	23770.09
724.689	24556.51
724.883	24187.88
725.077	23575.53
725.271	23935.98
725.465	24320.99
725.659	23972.84
725.853	24001.51
726.046	23510
726.24	23571.44
726.434	23974.89
726.628	23475.18
726.822	23813.1
727.015	24130.53
727.209	23968.74
727.403	23765.99
727.596	23645.16
727.79	24161.25
727.984	24234.98
728.177	23755.75
728.371	23839.72
728.565	24503.26
728.758	23925.74
728.952	23409.65
729.146	23768.04
729.339	24599.52
729.533	24151.01
729.726	23591.92
729.92	23919.59
730.113	24515.55
730.307	24220.64
730.5	23665.64
730.694	23469.04
730.887	23346.16
731.081	24101.86
731.274	23632.88
731.468	23618.54
731.661	24007.65
731.854	23915.5
732.048	23747.56
732.241	23665.64
732.435	23862.25
732.628	23862.25
732.821	23655.4
733.014	23673.84
733.208	23837.67
733.401	24366.05
733.594	23665.64
733.788	23852.01
733.981	24118.25
734.174	23798.76
734.367	23679.98
734.56	23901.16
734.754	24382.43
734.947	23856.11
735.14	23696.36
735.333	23968.74
735.526	24126.44
735.719	23770.09
735.912	23565.29
736.105	23927.78
736.298	23761.9
736.491	23622.64
736.684	23309.3
736.877	23520.24
737.07	23938.02
737.263	24124.39
737.456	23575.53
737.649	23399.41
737.842	23737.32
738.035	24036.33
738.228	23628.78
738.421	23903.21
738.614	24144.87
738.807	24032.23
739	23360.5
739.192	23327.73
739.385	23716.84
739.578	23825.39
739.771	23917.54
739.964	23530.48
740.156	24138.72
740.349	23765.99
740.542	23716.84
740.735	23325.68
740.927	23550.96
741.12	23542.77
741.313	23618.54
741.505	23823.34
741.698	23684.08
741.891	24101.86
742.083	23557.1
742.276	23776.23
742.468	24073.19
742.661	23591.92
742.854	23450.61
743.046	23653.36
743.239	24085.48
743.431	24108.01
743.624	23368.69
743.816	23479.28
744.009	23837.67
744.201	23735.28
744.393	23610.35
744.586	23276.53
744.778	23915.5
744.971	23606.25
745.163	23311.35
745.355	23628.78
745.548	23669.74
745.74	23387.12
745.932	23485.42
746.125	23454.7
746.317	24333.28
746.509	23540.72
746.702	23501.81
746.894	23264.24
747.086	23798.76
747.278	23944.17
747.471	23092.21
747.663	23403.5
747.855	23688.17
748.047	24191.97
748.239	23452.66
748.431	23419.89
748.623	24151.01
748.815	23868.39
749.008	23229.43
749.2	23294.96
749.392	23796.71
749.584	23436.27
749.776	23471.09
749.968	23362.54
750.16	23964.65
750.352	23303.15
750.544	23321.59
750.736	23127.03
750.928	23829.48
751.12	23268.34
751.311	22981.62
751.503	23290.87
751.695	23708.65
751.887	23321.59
752.079	23165.94
752.271	23104.5
752.463	24316.9
752.654	23460.85
752.846	22985.72
753.038	23067.64
753.23	23309.3
753.421	23299.06
753.613	23108.6
753.805	23163.89
753.997	23340.02
754.188	23475.18
754.38	23016.44
754.572	22864.89
754.763	23428.08
754.955	23190.52
755.146	22983.67
755.338	22821.88
755.53	23299.06
755.721	22983.67
755.913	22580.22
756.104	22508.54
756.296	22922.23
756.487	23063.54
756.679	22703.1
756.87	22434.81
757.062	22600.7
757.253	23180.28
757.445	22338.56
757.636	22936.57
757.827	22848.5
758.019	23809
758.21	22463.49
758.401	22602.75
758.593	23346.16
758.784	23063.54
758.975	22010.89
759.167	22445.05
759.358	22649.85
759.549	23110.64
759.74	22510.59
759.932	22240.26
760.123	22920.18
760.314	22195.2
760.505	22443.01
760.696	22309.89
760.888	23069.69
761.079	22320.13
761.27	22254.59
761.461	22062.08
761.652	22807.55
761.843	22619.13
762.034	22313.98
762.225	22088.71
762.416	22406.14
762.607	22397.95
762.798	22043.65
762.989	22137.86
763.18	23010.29
763.371	22139.91
763.562	21828.62
763.753	21965.83
763.944	22496.25
764.135	22201.35
764.326	22354.94
764.517	21699.59
764.708	22158.34
764.899	22115.33
765.089	21775.37
765.28	21656.59
765.471	22148.1
765.662	21914.63
765.853	21865.48
766.043	21546
766.234	22170.63
766.425	21857.29
766.615	21883.91
766.806	21484.56
766.997	22344.7
767.187	21914.63
767.378	21773.32
767.569	21267.47
767.759	21736.46
767.95	21916.68
768.141	21498.89
768.331	21615.63
768.522	21578.76
768.712	21879.82
768.903	21576.72
769.093	21218.32
769.284	21746.7
769.474	21722.12
769.665	20968.47
769.855	21453.84
770.046	21890.06
770.236	21341.2
770.426	21285.9
770.617	21353.49
770.807	21492.75
770.998	21320.72
771.188	21439.5
771.378	21013.52
771.569	21554.19
771.759	21535.76
771.949	20999.19
772.139	20962.33
772.33	21353.49
772.52	21478.41
772.71	21015.57
772.9	20728.86
773.09	21621.77
773.281	21867.53
773.471	21042.2
773.661	21242.9
773.851	21285.9
774.041	20816.92
774.231	20911.13
774.421	20884.5
774.611	21345.3
774.802	20999.19
774.992	20798.49
775.182	20601.88
775.372	20882.45
775.562	20911.13
775.752	20747.29
775.942	20657.18
776.131	20911.13
776.321	20726.81
776.511	20792.34
776.701	20503.58
776.891	21062.68
777.081	20573.21
777.271	20476.96
777.461	20565.02
777.651	20954.13
777.84	21019.67
778.03	20220.96
778.22	20337.69
778.41	20868.12
778.599	20503.58
778.789	20388.89
778.979	20175.91
779.169	20681.75
779.358	20628.51
779.548	20691.99
779.738	20210.72
779.927	20444.19
780.117	20415.52
780.307	20325.41
780.496	20059.17
780.686	20648.99
780.875	20522.01
781.065	20276.26
781.254	20161.57
781.444	20237.34
781.633	20251.68
781.823	20067.36
782.012	19850.28
782.202	20241.44
782.391	20198.43
782.581	19661.87
782.77	20462.62
782.96	20190.24
783.149	19913.77
783.338	20077.6
783.528	19625
783.717	20622.36
783.906	20249.63
784.096	19936.29
784.285	19729.45
784.474	19903.53
784.663	19837.99
784.853	19831.85
785.042	19643.43
785.231	19774.5
785.42	20274.21
785.61	19891.24
785.799	19252.27
785.988	19833.89
786.177	19381.29
786.366	19657.77
786.555	20167.71
786.744	19794.98
786.933	19866.66
787.122	19432.49
787.312	19422.25
787.501	19682.34
787.69	19858.47
787.879	19350.57
788.068	19401.77
788.257	19242.03
788.445	19186.74
788.634	19481.64
788.823	19280.94
789.012	20184.1
789.201	19868.71
789.39	19072.05
789.579	18844.73
789.768	19428.4
789.957	19326
790.145	19264.56
790.334	19274.8
790.523	19311.66
790.712	19149.87
790.9	19309.61
791.089	19252.27
791.278	19788.84
791.467	19301.42
791.655	19033.14
791.844	19455.02
792.033	18965.56
792.221	19272.75
792.41	19135.54
792.599	18826.29
792.787	19481.64
792.976	19452.97
793.164	18680.89
793.353	18986.04
793.541	19246.13
793.73	19498.03
793.918	19010.61
794.107	18705.46
794.295	19186.74
794.484	18983.99
794.672	18756.66
794.861	18566.2
795.049	19305.52
795.238	19354.67
795.426	18469.95
795.614	18332.73
795.803	19070
795.991	19313.71
796.179	18619.45
796.368	18598.97
796.556	19233.84
796.744	18357.31
796.932	18631.74
797.121	18383.93
797.309	18629.69
797.497	19135.54
797.685	18740.28
797.874	18510.91
798.062	18971.7
798.25	19305.52
798.438	18715.7
798.626	18787.38
798.814	18902.07
799.002	19487.79
799.19	18871.35
799.378	18453.56
799.566	19278.9
799.755	18826.29
799.943	18498.62
800.131	18820.15
800.318	18949.17
800.506	18633.78
800.694	18361.41
800.882	18867.25
801.07	19192.88
801.258	18879.54
801.446	18621.5
801.634	18734.14
801.822	18674.74
802.01	19094.58
802.197	18885.69
802.385	18869.3
802.573	18924.6
802.761	18668.6
802.949	18691.13
803.136	18555.96
803.324	19502.12
803.512	18930.74
803.699	18623.55
803.887	18510.91
804.075	19436.59
804.262	18730.04
804.45	18549.82
804.638	18971.7
804.825	18936.88
805.013	18785.33
805.201	18893.88
805.388	18926.64
805.576	19254.32
805.763	19663.91
805.951	18975.8
806.138	18940.98
806.326	19754.02
806.513	19135.54
806.701	18920.5
806.888	18830.39
807.075	19319.85
807.263	19442.73
807.45	18869.3
807.638	18873.4
807.825	19604.52
808.012	19430.44
808.2	18924.6
808.387	19371.05
808.574	19391.53
808.761	19401.77
808.949	18969.65
809.136	19174.45
809.323	19178.54
809.51	19522.6
809.698	19559.47
809.885	19235.89
810.072	19463.21
810.259	19719.21
810.446	19293.23
810.633	18951.22
810.82	19926.05
811.008	19901.48
811.195	19250.22
811.382	19303.47
811.569	19751.98
811.756	19309.61
811.943	19553.32
812.13	19137.59
812.317	19352.62
812.504	19262.51
812.691	19362.86
812.878	19268.66
813.064	19928.1
813.251	19747.88
813.438	19330.09
813.625	19328.05
813.812	19340.33
813.999	19770.41
814.186	19293.23
814.372	19268.66
814.559	19430.44
814.746	19633.19
814.933	19092.53
815.12	19606.57
815.306	19405.87
815.493	19469.36
815.68	19364.91
815.866	19174.45
816.053	19792.94
816.24	19903.53
816.426	19588.14
816.613	19008.56
816.799	19868.71
816.986	19915.81
817.173	19067.95
817.359	19317.81
817.546	19489.84
817.732	18912.31
817.919	19090.48
818.105	19297.33
818.292	19305.52
818.478	19383.34
818.665	19272.75
818.851	19166.26
819.037	19559.47
819.224	19534.89
819.41	18992.18
819.597	18846.77
819.783	19682.34
819.969	19373.1
820.156	18998.32
820.342	19217.46
820.528	20104.23
820.714	19145.78
820.901	19274.8
821.087	18848.82
821.273	19647.53
821.459	19119.15
821.646	18990.13
821.832	19043.38
822.018	19659.82
822.204	19080.24
822.39	19082.29
822.576	18766.9
822.762	19321.9
822.948	19092.53
823.134	18926.64
823.32	18713.66
823.507	18789.43
823.693	19145.78
823.879	19158.06
824.065	18725.94
824.25	18744.38
824.436	18738.23
824.622	18881.59
824.808	18721.85
824.994	18615.35
825.18	18791.48
825.366	18433.08
825.552	18340.93
825.738	18877.49
825.923	19168.3
826.109	18744.38
826.295	18457.66
826.481	18664.5
826.667	18822.2
826.852	18883.64
827.038	18490.43
827.224	18865.21
827.409	19299.37
827.595	18326.59
827.781	18601.02
827.966	18897.97
828.152	18701.37
828.338	18279.49
828.523	17738.82
828.709	18455.61
828.894	19008.56
829.08	18060.35
829.266	18005.06
829.451	18351.17
829.637	18674.74
829.822	18717.75
830.008	17996.87
830.193	18670.65
830.378	18746.42
830.564	18191.42
830.749	18117.7
830.935	18609.21
831.12	18205.76
831.305	17624.14
831.491	17822.79
831.676	17765.45
831.861	18517.05
832.047	18095.17
832.232	17747.01
832.417	18273.34
832.602	18191.42
832.788	17671.24
832.973	17669.19
833.158	17843.27
833.343	18019.39
833.528	17884.23
833.714	18033.73
833.899	18017.35
834.084	18512.95
834.269	18035.78
834.454	17519.69
834.639	18043.97
834.824	17964.1
835.009	17808.45
835.194	17759.3
835.379	17826.89
835.564	18013.25
835.749	17574.99
835.934	17011.79
836.119	18011.2
836.304	17693.77
836.489	17574.99
836.674	17462.35
836.859	17439.82
837.044	18076.74
837.228	17538.12
837.413	17413.2
837.598	17792.07
837.783	17753.16
837.968	17644.62
838.152	17019.99
838.337	17003.6
838.522	17828.93
838.707	18101.31
838.891	17400.91
839.076	17480.78
839.261	17871.94
839.445	17153.1
839.63	17300.56
839.815	17890.37
839.999	17353.8
840.184	17202.25
840.368	17159.25
840.553	17716.29
840.737	17497.16
840.922	17189.97
841.106	16579.67
841.291	17353.8
841.475	17421.39
841.66	17103.95
841.844	17249.36
842.029	17728.58
842.213	16976.98
842.397	16505.95
842.582	16426.07
842.766	17634.38
842.951	17347.66
843.135	16735.32
843.319	16815.19
843.504	17081.42
843.688	17284.17
843.872	16487.51
844.056	16774.23
844.241	17026.13
844.425	16946.26
844.609	16882.77
844.793	16487.51
844.977	17022.03
845.161	17163.34
845.346	16303.2
845.53	16526.43
845.714	16929.88
845.898	16970.83
846.082	16417.88
846.266	16589.91
846.45	16606.3
846.634	16907.35
846.818	16536.67
847.002	16745.56
847.186	16653.4
847.37	16594.01
847.554	16139.36
847.738	16411.74
847.922	16860.24
848.106	16557.14
848.29	16073.82
848.473	16168.03
848.657	16458.84
848.841	16247.9
849.025	16254.05
849.209	15920.23
849.392	16432.22
849.576	16364.64
849.76	15924.32
849.944	16202.85
850.127	16815.19
850.311	15996
850.495	15932.51
850.678	15858.79
850.862	16555.1
851.046	16659.54
851.229	16016.48
851.413	15948.9
851.596	16077.92
851.78	16151.65
851.964	16188.51
852.147	16247.9
852.331	16718.93
852.514	16397.4
852.698	16137.31
852.881	15586.41
853.065	16161.89
853.248	15899.75
853.431	16071.78
853.615	15893.6
853.798	16655.45
853.982	16186.46
854.165	15909.99
854.348	15752.29
854.532	15946.85
854.715	15762.53
854.898	15533.16
855.081	15561.83
855.265	16145.5
855.448	16159.84
855.631	15623.27
855.814	15332.46
855.997	15864.93
856.181	15842.4
856.364	15715.43
856.547	15459.43
856.73	15672.42
856.913	15486.06
857.096	15240.3
857.279	15406.19
857.462	15709.29
857.645	15903.84
857.828	15373.42
858.011	15656.04
858.194	15651.94
858.377	15529.06
858.56	15359.08
858.743	15230.06
858.926	15332.46
859.109	15481.96
859.292	15172.72
859.475	14838.9
859.658	15717.48
859.841	15531.11
860.023	14969.97
860.206	14742.64
860.389	15436.91
860.572	15682.66
860.755	14996.59
860.937	14906.48
861.12	15047.79
861.303	15316.08
861.486	14685.3
861.668	14744.69
861.851	15197.29
862.034	15082.61
862.216	14949.49
862.399	14453.88
862.581	15172.72
862.764	15293.55
862.947	14773.36
863.129	14421.11
863.312	14410.87
863.494	14988.4
863.677	14832.76
863.859	14449.78
864.042	14849.14
864.224	15039.6
864.406	14656.63
864.589	14247.04
864.771	14652.53
864.954	14472.31
865.136	14574.71
865.318	13988.99
865.501	14771.32
865.683	14410.87
865.865	14064.77
866.048	14314.62
866.23	14533.75
866.412	14560.38
866.594	14230.65
866.777	14378.11
866.959	14859.38
867.141	14525.56
867.323	14257.28
867.505	14365.82
867.687	14150.78
867.869	14283.9
868.052	14005.38
868.234	13665.41
868.416	14480.5
868.598	14492.79
868.78	13964.42
868.962	14150.78
869.144	14709.88
869.326	14441.59
869.508	14115.97
869.69	14048.38
869.872	14058.62
870.054	14613.62
870.236	13694.08
870.417	13773.96
870.599	14259.32
870.781	14787.7
870.963	14034.05
871.145	13794.43
871.327	13964.42
871.508	14511.22
871.69	13972.61
871.872	13874.31
872.054	14138.49
872.235	14179.45
872.417	13776
872.599	13767.81
872.78	14681.21
872.962	14365.82
873.144	13841.54
873.325	13780.1
873.507	14787.7
873.689	14275.71
873.87	13733
874.052	13859.97
874.233	14126.21
874.415	14664.82
874.596	14103.68
874.778	13577.35
874.959	14095.49
875.141	14244.99
875.322	13923.46
875.503	13857.92
875.685	14392.44
875.866	13696.13
876.048	13655.17
876.229	13577.35
876.41	14005.38
876.592	14267.52
876.773	13806.72
876.954	13622.41
877.136	14357.63
877.317	14075.01
877.498	13831.3
877.679	13935.74
877.86	14355.58
878.042	14118.01
878.223	14066.81
878.404	14300.28
878.585	14488.7
878.766	14470.26
878.947	14298.24
879.128	14228.6
879.309	14365.82
879.49	14533.75
879.672	14029.95
879.853	13939.84
880.034	14148.73
880.215	14451.83
880.396	14355.58
880.576	14161.02
880.757	14384.25
880.938	14531.7
881.119	14226.56
881.3	14199.93
881.481	14490.74
881.662	15756.39
881.843	14113.92
882.023	14029.95
882.204	14695.54
882.385	14668.92
882.566	14148.73
882.747	14349.43
882.927	14865.52
883.108	14765.17
883.289	14470.26
883.469	14505.08
883.65	14699.64
883.831	14808.18
884.011	14728.31
884.192	14709.88
884.373	14859.38
884.553	14896.24
884.734	14632.05
884.914	14703.73
885.095	15436.91
885.275	15275.12
885.456	14720.12
885.636	14374.01
885.817	14949.49
885.997	14713.97
886.178	14656.63
886.358	14859.38
886.538	14951.54
886.719	16000.1
886.899	14681.21
887.08	14879.86
887.26	15369.32
887.44	14597.24
887.621	14509.18
887.801	14877.81
887.981	15797.35
888.161	15279.21
888.342	14840.95
888.522	14840.95
888.702	15248.49
888.882	15234.16
889.062	15068.27
889.242	14492.79
889.423	15572.07
889.603	15551.59
889.783	14990.45
889.963	14890.1
890.143	15305.84
890.323	15508.58
890.503	15027.31
890.683	15015.02
890.863	15262.83
891.043	15262.83
891.223	15185.01
891.403	15434.86
891.583	15555.69
891.763	15469.67
891.943	15144.05
892.122	15199.34
892.302	15260.78
892.482	15416.43
892.662	15146.09
892.842	15053.94
893.022	15297.64
893.201	15098.99
893.381	15393.9
893.561	15101.04
893.741	15580.26
893.92	15393.9
894.1	15002.74
894.28	15039.6
894.459	15410.28
894.639	15453.29
894.819	15103.09
894.998	15250.54
895.178	15645.8
895.357	15359.08
895.537	15012.98
895.716	15045.74
895.896	15182.96
896.075	15459.43
896.255	14978.16
896.434	14754.93
896.614	15496.3
896.793	15457.39
896.973	15066.22
897.152	15201.39
897.331	15406.19
897.511	15653.99
897.69	14724.21
897.87	14902.39
898.049	15451.24
898.228	15168.62
898.407	15039.6
898.587	15088.75
898.766	15119.47
898.945	15156.33
899.124	14986.35
899.304	14947.44
899.483	15455.34
899.662	15768.68
899.841	14974.06
900.02	14861.43
900.199	15273.07
900.378	15180.91
900.557	14488.7
900.737	14799.99
900.916	15195.25
901.095	15119.47
901.274	14986.35
901.453	14584.95
901.632	14677.11
901.811	14687.35
901.989	14726.26
902.168	14562.42
902.347	15045.74
902.526	14574.71
902.705	14587
902.884	14779.51
903.063	15180.91
903.242	15447.15
903.42	14439.54
903.599	14654.58
903.778	15205.49
903.957	14939.25
904.135	14666.87
904.314	14472.31
904.493	14767.22
904.672	14916.72
904.85	14288
905.029	14548.09
905.207	14550.14
905.386	15594.6
905.565	14142.59
905.743	14392.44
905.922	14359.67
906.1	14699.64
906.279	14253.18
906.457	13960.32
906.636	14685.3
906.814	14390.39
906.993	14070.91
907.171	14335.1
907.35	14464.12
907.528	14621.81
907.707	14396.54
907.885	14023.81
908.063	14445.69
908.242	14023.81
908.42	13859.97
908.598	13710.47
908.777	14242.94
908.955	13937.79
909.133	13974.66
909.311	13827.2
909.49	13954.18
909.668	14115.97
909.846	13644.93
910.024	13411.46
910.202	13882.5
910.38	14177.4
910.559	13325.45
910.737	13321.35
910.915	13950.08
911.093	13823.11
911.271	13649.03
911.449	13507.72
911.627	13782.15
911.805	14390.39
911.983	13294.73
912.161	13444.23
912.339	13644.93
912.517	13849.73
912.695	13636.74
912.872	13374.6
913.05	13485.19
913.228	13767.81
913.406	13108.37
913.584	13053.07
913.762	13673.6
913.939	13167.76
914.117	13071.5
914.295	12788.88
914.473	13288.59
914.65	13282.44
914.828	12946.58
915.006	13008.01
915.184	13071.5
915.361	13132.94
915.539	12862.61
915.716	12774.55
915.894	13388.94
916.072	13253.77
916.249	12924.05
916.427	12735.64
916.604	12942.48
916.782	13112.46
916.959	12514.45
917.137	12491.93
917.314	12817.55
917.492	12702.87
917.669	12723.35
917.847	12502.17
918.024	13020.3
918.201	12567.7
918.379	12383.38
918.556	12375.19
918.733	12625.04
918.911	12334.23
919.088	12604.56
919.265	12068
919.442	12657.81
919.62	12164.25
919.797	12154.01
919.974	11977.89
920.151	12541.08
920.328	12199.07
920.506	11752.61
920.683	12242.07
920.86	11941.02
921.037	11936.93
921.214	11945.12
921.391	11795.62
921.568	11969.69
921.745	11981.98
921.922	11791.52
922.099	11519.14
922.276	12051.61
922.453	12031.13
922.63	11601.06
922.807	11881.63
922.984	11836.58
923.161	11500.71
923.338	11521.19
923.514	11254.95
923.691	11508.9
923.868	11740.32
924.045	11203.75
924.222	11097.26
924.399	11586.72
924.575	11435.17
924.752	11269.29
924.929	11156.65
925.105	11498.66
925.282	11027.63
925.459	10740.91
925.635	11117.74
925.812	11248.81
925.989	10876.08
926.165	10941.61
926.342	10736.82
926.518	10699.95
926.695	10927.28
926.871	10765.49
927.048	10312.89
927.224	10972.33
927.401	10482.87
927.577	10357.94
927.754	10230.97
927.93	10888.37
928.107	10951.85
928.283	10196.15
928.459	10386.61
928.636	10493.11
928.812	10489.01
928.988	10073.28
929.165	9972.93
929.341	10192.06
929.517	10366.14
929.693	10462.39
929.87	9729.22
930.046	10378.42
930.222	10046.65
930.398	9974.97
930.574	9929.92
930.751	10239.16
930.927	9815.23
931.103	9716.93
931.279	9438.41
931.455	9639.11
931.631	9841.86
931.807	9329.86
931.983	9245.9
932.159	9184.46
932.335	9688.26
932.511	9176.27
932.687	9217.22
932.863	9299.14
933.039	9178.31
933.215	8899.79
933.391	8916.17
933.566	9045.2
933.742	9108.68
933.918	8971.47
934.094	8543.44
934.27	9082.06
934.445	8746.19
934.621	8697.04
934.797	8439
934.973	8826.06
935.148	8633.55
935.324	7931.1
935.5	7795.93
935.675	8500.44
935.851	8226.01
936.027	7773.41
936.202	7468.26
936.378	7949.53
936.553	7705.82
936.729	7808.22
936.904	7226.6
937.08	7324.9
937.255	7109.86
937.431	6839.53
937.606	6685.94
937.782	6950.12
937.957	6929.64
938.133	6655.22
938.308	6638.83
938.483	6542.58
938.659	6474.99
938.834	6284.53
939.009	5956.86
939.185	6178.04
939.36	6153.46
939.535	5571.84
939.71	5928.19
939.886	6126.84
940.061	6077.69
940.236	5782.78
940.411	5655.81
940.586	5852.41
940.761	5897.47
940.937	5391.62
941.112	5135.62
941.287	5547.26
941.462	5418.24
941.637	5076.23
941.812	5274.88
941.987	5422.34
942.162	5309.7
942.337	5111.05
942.512	5051.66
942.687	5518.59
942.862	5252.36
943.037	4678.93
943.212	4447.51
943.386	4971.79
943.561	4822.28
943.736	4846.86
943.911	5070.09
944.086	5235.97
944.26	5004.55
944.435	4621.58
944.61	4713.74
944.785	5074.18
944.959	5256.45
945.134	4631.82
945.309	4668.69
945.483	4810
945.658	5242.12
945.833	4203.8
946.007	4441.36
946.182	5289.22
946.357	4709.65
946.531	4461.84
946.706	4635.92
946.88	4379.92
947.055	4883.72
947.229	4648.21
947.404	4496.66
947.578	5014.79
947.752	4728.08
947.927	4424.98
948.101	4347.15
948.276	4674.83
948.45	4764.94
948.624	4807.95
948.799	4627.73
948.973	5096.71
949.147	4603.15
949.321	4650.25
949.496	4551.95
949.67	4967.69
949.844	4736.27
950.018	4486.42
950.193	4650.25
950.367	5297.41
950.541	4752.65
950.715	4650.25
950.889	4771.08
951.063	4754.7
951.237	5117.19
951.411	4332.82
951.585	4390.16
951.759	4891.91
951.933	4822.28
952.107	4574.48
952.281	4689.17
952.455	5240.07
952.629	4941.07
952.803	4736.27
952.977	4416.79
953.151	4893.96
953.325	5061.9
953.499	4666.64
953.672	4357.39
953.846	4609.3
954.02	4646.16
954.194	4435.22
954.368	4449.55
954.541	4947.21
954.715	4652.3
954.889	4611.34
955.062	4388.11
955.236	4601.1
955.41	4623.63
955.583	4730.13
955.757	4508.94
955.93	4568.34
956.104	4386.07
956.278	4459.79
956.451	4519.18
956.625	4785.42
956.798	5096.71
956.972	4777.23
957.145	4238.61
957.319	4719.89
957.492	4693.26
957.665	4453.65
957.839	4232.47
958.012	4764.94
958.185	4558.1
958.359	4463.89
958.532	4531.47
958.705	4859.15
958.879	4621.58
959.052	4508.94
959.225	4162.84
959.398	4693.26
959.572	4490.51
959.745	4439.31
959.918	4363.54
960.091	4441.36
960.264	4773.13
960.438	4158.74
960.611	4302.1
960.784	4795.66
960.957	4402.45
961.13	4625.68
961.303	4152.6
961.476	4625.68
961.649	4799.76
961.822	4310.29
961.995	4429.07
962.168	4703.5
962.341	4527.38
962.514	4422.93
962.686	4293.91
962.859	4517.14
963.032	4406.55
963.205	4158.74
963.378	4101.4
963.551	4588.82
963.723	4476.18
963.896	4330.77
964.069	4252.95
964.242	4465.94
964.414	4726.03
964.587	4273.43
964.76	4273.43
964.932	4556.05
965.105	4369.68
965.278	4060.44
965.45	4156.69
965.623	4486.42
965.795	4525.33
965.968	4166.93
966.14	4027.67
966.313	4306.2
966.485	4298
966.658	3917.08
966.83	4138.26
967.003	4654.35
967.175	4576.53
967.348	4082.97
967.52	4062.49
967.692	4777.23
967.865	4582.67
968.037	4146.45
968.209	4353.3
968.382	4271.38
968.554	4420.88
968.726	4068.63
968.898	4171.03
969.071	4240.66
969.243	4381.97
969.415	4089.11
969.587	4152.6
969.759	4750.6
969.932	4408.59
970.104	4156.69
970.276	3687.71
970.448	4199.7
970.62	3980.57
970.792	4199.7
970.964	4011.29
971.136	4738.32
971.308	4371.73
971.48	3978.52
971.652	3986.71
971.824	4465.94
971.996	4187.41
972.168	3929.37
972.339	3976.47
972.511	4390.16
972.683	4048.15
972.855	4218.13
973.027	3994.9
973.199	4031.77
973.37	4207.89
973.542	3872.03
973.714	3929.37
973.886	4091.16
974.057	4338.96
974.229	3644.7
974.401	3833.11
974.572	3806.49
974.744	3628.32
974.915	3788.06
975.087	3759.39
975.259	4367.63
975.43	3794.2
975.602	3704.09
975.773	3724.57
975.945	3845.4
976.116	4273.43
976.288	3611.93
976.459	3833.11
976.63	3876.12
976.802	4042.01
976.973	3652.89
977.145	3849.5
977.316	4255
977.487	4003.1
977.659	3882.27
977.83	3611.93
978.001	4263.19
978.172	3786.01
978.344	3700
978.515	3616.03
978.686	3853.59
978.857	4089.11
979.028	3587.36
979.2	3525.92
979.371	4037.91
979.542	3863.83
979.713	3747.1
979.884	3124.52
980.055	3650.85
980.226	3652.89
980.397	3685.66
980.568	3345.7
980.739	3925.27
980.91	3609.89
981.081	3560.73
981.252	3423.52
981.423	3962.14
981.594	3790.11
981.765	3368.23
981.936	3425.57
982.106	3644.7
982.277	3937.56
982.448	3355.94
982.619	3607.84
982.79	3603.74
982.96	3949.85
983.131	3603.74
983.302	3145
983.472	3575.07
983.643	3689.76
983.814	3507.49
983.984	3314.98
984.155	3487.01
984.326	3845.4
984.496	3530.02
984.667	3145
984.837	3415.33
985.008	3773.72
985.178	3429.66
985.349	3390.75
985.519	3538.21
985.69	3216.68
985.86	3331.36
986.031	3124.52
986.201	3675.42
986.371	3521.82
986.542	3087.65
986.712	2999.59
986.882	3515.68
987.053	3573.02
987.223	3202.34
987.393	3237.16
987.563	3228.96
987.734	3593.5
987.904	3458.34
988.074	3093.8
988.244	3388.71
988.414	3161.38
988.585	2962.73
988.755	3253.54
988.925	3368.23
989.095	3677.47
989.265	3020.07
989.435	3067.17
989.605	3372.32
989.775	3575.07
989.945	3294.5
990.115	2948.39
990.285	3347.75
990.455	3241.25
990.625	3130.66
990.795	2919.72
990.965	3501.34
991.134	3155.24
991.304	2936.1
991.474	2966.82
991.644	3192.1
991.814	3581.21
991.984	2860.33
992.153	2921.77
992.323	3153.19
992.493	3206.44
992.662	2688.3
992.832	3022.12
993.002	3185.96
993.171	3138.85
993.341	2825.51
993.511	3085.61
993.68	2995.5
993.85	3212.58
994.019	2768.17
994.189	2630.96
994.358	3149.09
994.528	3116.33
994.697	2448.69
994.867	2696.49
995.036	3136.81
995.206	2899.24
995.375	2821.42
995.544	2919.72
995.714	3083.56
995.883	2975.02
996.052	2870.57
996.222	2438.45
996.391	3444
996.56	3003.69
996.73	2495.79
996.899	2465.07
997.068	3349.79
997.237	3038.5
997.406	2604.33
997.576	2463.02
997.745	2911.53
997.914	3063.08
998.083	2467.12
998.252	2553.13
998.421	2952.49
998.59	2590
998.759	2581.81
998.928	2471.22
999.097	3233.06
999.266	2882.86
999.435	2614.57
999.604	2301.23
999.773	3302.69
999.942	2645.29
1000.111	2389.3
1000.28	2372.91
1000.448	2626.86
1000.617	2555.18
1000.786	2569.52
1000.955	2286.9
1001.124	2747.69
1001.292	3349.79
1001.461	2422.06
1001.63	2290.99
1001.798	3171.62
1001.967	3063.08
1002.136	2131.25
1002.304	2233.65
1002.473	2868.52
1002.642	2766.12
1002.81	2254.13
1002.979	2334
1003.147	2739.5
1003.316	3190.05
1003.484	2417.97
1003.653	2166.07
1003.821	2800.94
1003.99	2569.52
1004.158	2393.39
1004.327	2407.73
1004.495	2716.97
1004.663	2282.8
1004.832	2506.03
1005	2004.28
1005.168	2776.36
1005.337	2542.89
1005.505	2057.53
1005.673	2348.34
1005.842	2606.38
1006.01	2620.72
1006.178	2098.49
1006.346	2278.71
1006.514	2551.09
1006.683	2833.71
1006.851	2057.53
1007.019	2059.57
1007.187	2200.88
1007.355	2071.86
1007.523	1885.5
1007.691	1991.99
1007.859	2090.29
1008.027	2702.64
1008.195	2049.33
1008.363	1908.02
1008.531	2577.71
1008.699	2389.3
1008.867	2000.18
1009.035	2065.72
1009.203	2753.84
1009.37	2317.62
1009.538	1934.65
1009.706	2458.93
1009.874	2442.54
1010.042	2342.19
1010.209	1881.4
1010.377	1883.45
1010.545	2487.6
1010.713	2276.66
1010.88	1862.97
1011.048	2080.05
1011.216	2159.92
1011.383	2712.88
1011.551	1744.19
1011.718	1760.57
1011.886	2434.35
1012.054	2235.7
1012.221	1766.71
1012.389	1772.86
1012.556	2307.38
1012.724	2577.71
1012.891	1983.8
1013.058	1662.27
1013.226	2311.47
1013.393	2317.62
1013.561	1725.76
1013.728	1647.93
1013.895	2309.43
1014.063	2194.74
1014.23	1580.35
1014.397	1807.67
1014.565	2452.78
1014.732	2041.14
1014.899	1746.23
1015.066	1791.29
1015.233	2233.65
1015.401	2153.78
1015.568	1807.67
1015.735	1834.3
1015.902	1959.22
1016.069	2135.35
1016.236	1709.37
1016.403	1520.96
1016.57	1758.52
1016.737	2229.56
1016.904	1711.42
1017.071	1523.01
1017.238	1889.59
1017.405	2159.92
1017.572	1707.32
1017.739	1871.16
1017.906	2104.63
1018.073	2184.5
1018.24	1402.18
1018.407	1649.98
1018.573	2268.47
1018.74	1832.25
1018.907	1670.46
1019.074	1455.42
1019.241	2098.49
1019.407	1899.83
1019.574	1506.62
1019.741	1453.38
1019.907	1879.35
1020.074	2037.05
1020.241	1226.05
1020.407	1439.04
1020.574	1987.89
1020.74	1967.42
1020.907	1443.14
1021.073	1432.9
1021.24	2305.33
1021.406	2268.47
1021.573	1375.55
1021.739	1426.75
1021.906	2151.73
1022.072	1766.71
1022.239	1389.89
1022.405	1414.46
1022.571	1834.3
1022.738	1488.19
1022.904	1369.41
1023.07	1381.7
1023.237	1680.7
1023.403	1854.78
1023.569	1453.38
1023.735	1314.11
1023.902	1697.08
1024.068	1842.49
1024.234	1209.67
1024.4	1273.15
1024.566	1633.6
1024.732	1795.39
1024.898	1277.25
1025.065	1181
1025.231	1813.82
1025.397	1525.05
1025.563	1363.26
1025.729	1150.28
1025.895	1219.91
1026.061	1459.52
1026.227	1056.07
1026.392	1242.43
1026.558	1797.43
1026.724	1725.76
1026.89	1043.78
1027.056	1224
1027.222	1639.74
1027.388	1475.9
1027.553	1109.32
1027.719	1103.17
1027.885	1983.8
1028.051	1729.85
1028.216	1054.02
1028.382	1213.76
1028.548	1703.23
1028.713	1457.47
1028.879	978.25
1029.045	1269.06
1029.21	1840.44
1029.376	1656.12
1029.541	1242.43
1029.707	1054.02
1029.873	1647.93
1030.038	1768.76
1030.204	1168.71
1030.369	1168.71
1030.534	1725.76
1030.7	1410.37
1030.865	1013.06
1031.031	998.73
1031.196	1545.53
1031.361	1439.04
1031.527	1015.11
1031.692	998.73
1031.857	1068.36
1032.023	1658.17
1032.188	918.86
1032.353	1129.8
1032.518	1844.54
1032.684	1373.5
1032.849	865.61
1033.014	984.39
1033.179	1480
1033.344	1459.52
1033.509	1267.01
1033.674	867.66
1033.839	1439.04
1034.004	1574.21
1034.17	912.71
1034.335	783.69
1034.5	1154.37
1034.664	1172.8
1034.829	890.18
1034.994	1019.21
1035.159	1377.6
1035.324	1287.49
1035.489	988.49
1035.654	847.18
1035.819	1563.97
1035.984	1406.27
1036.148	925
1036.313	892.23
1036.478	1477.95
1036.643	1250.63
1036.807	877.9
1036.972	836.94
1037.137	1566.01
1037.301	1133.89
1037.466	675.15
1037.631	861.51
1037.795	1525.05
1037.96	1236.29
1038.124	1080.64
1038.289	669
1038.454	1400.13
1038.618	1293.63
1038.783	869.7
1038.947	941.38
1039.111	1144.13
1039.276	1039.69
1039.44	771.4
1039.605	1254.72
1039.769	1064.26
1039.933	1103.17
1040.098	910.66
1040.262	1080.64
1040.426	1348.93
1040.591	1328.45
1040.755	808.26
1040.919	744.78
1041.083	1262.91
1041.248	1076.55
1041.412	550.22
1041.576	750.92
1041.74	1156.42
1041.904	1320.26
1042.068	707.91
1042.232	828.74
1042.397	1350.98
1042.561	1248.58
1042.725	572.75
1042.889	804.17
1043.053	1262.91
1043.217	1209.67
1043.381	712.01
1043.544	513.36
1043.708	1283.39
1043.872	720.2
1044.036	458.06
1044.2	533.84
1044.364	1369.41
1044.528	1389.89
1044.691	3927.32
1044.855	505.17
1045.019	1332.55
1045.183	1158.47
1045.346	716.11
1045.51	701.77
1045.674	1088.84
1045.837	1236.29
1046.001	703.82
1046.165	589.13
1046.328	1541.44
1046.492	1201.47
1046.655	730.44
1046.819	687.43
1046.983	894.28
1047.146	1072.45
1047.31	691.53
1047.473	437.58
1047.636	980.29
1047.8	834.89
1047.963	585.04
1048.127	529.74
1048.29	791.88
