Data from Ink_Intensity_USB4F045381__65__00065.txt Node

Date: Mon Jul 17 10:33:23 EDT 2023
User: mmckonesweet
Spectrometer: USB4F04538
Trigger mode: 4
Integration Time (sec): 9.000000E-1
Scans to average: 1
Electric dark correction enabled: true
Nonlinearity correction enabled: false
Boxcar width: 0
XAxis mode: Wavelengths
Number of Pixels in Spectrum: 3648
>>>>>Begin Spectral Data<<<<<
345.52	-958.11
345.736	-958.11
345.952	-958.11
346.168	-1044.12
346.384	-945.82
346.6	-116.39
346.816	-261.8
347.032	-255.65
347.248	252.24
347.464	-186.02
347.68	-89.77
347.896	149.84
348.112	383.31
348.328	-108.2
348.544	-110.25
348.76	96.6
348.975	246.1
349.191	-188.07
349.407	-263.85
349.623	-34.47
349.839	-61.1
350.055	-143.02
350.27	35.16
350.486	194.9
350.702	368.98
350.918	237.91
351.133	-188.07
351.349	106.84
351.565	409.94
351.781	-249.51
351.996	78.16
352.212	315.73
352.428	-128.68
352.644	-280.23
352.859	-167.59
353.075	219.47
353.291	110.93
353.506	-177.83
353.722	-224.94
353.938	-83.63
354.153	457.04
354.369	117.08
354.584	-267.94
354.8	297.3
355.016	-304.81
355.231	-243.37
355.447	-102.06
355.662	59.73
355.878	885.06
356.093	-337.57
356.309	-71.34
356.524	-175.78
356.74	194.9
356.955	-122.54
357.171	-32.43
357.386	108.88
357.602	-224.94
357.817	-120.49
358.033	-183.98
358.248	360.78
358.464	125.27
358.679	-161.45
358.895	-327.33
359.11	-22.19
359.325	297.3
359.541	246.1
359.756	-83.63
359.972	-362.15
360.187	166.23
360.402	-171.69
360.618	-214.7
360.833	911.69
361.048	92.5
361.264	-194.22
361.479	-79.53
361.694	-30.38
361.909	170.32
362.125	-235.18
362.34	-93.87
362.555	248.15
362.77	29.01
362.986	-368.29
363.201	-243.37
363.416	137.56
363.631	0.34
363.847	-188.07
364.062	-196.26
364.277	192.85
364.492	94.55
364.707	-124.58
364.922	-372.39
365.138	313.68
365.353	323.92
365.568	-306.85
365.783	-122.54
365.998	31.06
366.213	536.91
366.428	-278.18
366.643	4.44
366.858	272.72
367.073	155.99
367.288	-110.25
367.503	-292.52
367.718	76.12
367.933	282.96
368.148	-310.95
368.363	-1.71
368.578	-75.43
368.793	391.5
369.008	-132.78
369.223	-284.33
369.438	242
369.653	350.54
369.868	-224.94
370.083	-218.79
370.298	92.5
370.513	395.6
370.728	37.2
370.943	-226.98
371.157	-175.78
371.372	436.56
371.587	-292.52
371.802	-269.99
372.017	31.06
372.232	463.18
372.446	-89.77
372.661	-200.36
372.876	158.03
373.091	164.18
373.306	-104.11
373.52	-306.85
373.735	-247.46
373.95	362.83
374.165	-114.34
374.379	-112.3
374.594	-136.87
374.809	96.6
375.023	22.87
375.238	-224.94
375.453	256.34
375.667	-241.32
375.882	-188.07
376.097	-157.35
376.311	0.34
376.526	-24.23
376.741	-253.61
376.955	76.12
377.17	614.73
377.384	559.44
377.599	-63.15
377.813	-253.61
378.028	526.67
378.242	133.46
378.457	-198.31
378.672	-366.25
378.886	-20.14
379.101	-24.23
379.315	-337.57
379.53	-173.74
379.744	219.47
379.958	209.23
380.173	-112.3
380.387	-206.5
380.602	133.46
380.816	-83.63
381.031	-155.3
381.245	-161.45
381.459	112.98
381.674	2607.41
381.888	-257.7
382.103	31.06
382.317	-233.13
382.531	489.81
382.746	-73.39
382.96	-222.89
383.174	-161.45
383.388	522.57
383.603	-11.95
383.817	-286.37
384.031	215.38
384.246	375.12
384.46	-1.71
384.674	299.34
384.888	-120.49
385.103	88.4
385.317	-315.05
385.531	-114.34
385.745	315.73
385.959	289.1
386.174	-198.31
386.388	-274.09
386.602	20.82
386.816	-190.12
387.03	-104.11
387.244	-159.4
387.458	47.44
387.672	305.49
387.887	-272.04
388.101	-284.33
388.315	321.87
388.529	96.6
388.743	-171.69
388.957	-226.98
389.171	381.26
389.385	-198.31
389.599	-100.01
389.813	53.59
390.027	90.45
390.241	627.02
390.455	-196.26
390.669	-157.35
390.883	-97.96
391.097	276.82
391.311	4.44
391.525	-169.64
391.738	133.46
391.952	168.27
392.166	-46.76
392.38	-263.85
392.594	207.19
392.808	248.15
393.022	-63.15
393.236	-145.06
393.449	121.17
393.663	149.84
393.877	-255.65
394.091	-81.58
394.305	-34.47
394.518	-108.2
394.732	-358.05
394.946	-100.01
395.16	399.7
395.373	137.56
395.587	-229.03
395.801	-226.98
396.015	266.58
396.228	174.42
396.442	-327.33
396.656	-368.29
396.869	342.35
397.083	477.52
397.297	-177.83
397.51	-179.88
397.724	385.36
397.938	108.88
398.151	-317.09
398.365	-269.99
398.578	158.03
398.792	379.22
399.005	-81.58
399.219	-161.45
399.433	143.7
399.646	213.33
399.86	41.3
400.073	-48.81
400.287	194.9
400.5	-59.05
400.714	-50.86
400.927	-110.25
401.141	149.84
401.354	1130.82
401.567	153.94
401.781	-259.75
401.994	207.19
402.208	510.29
402.421	-136.87
402.635	-194.22
402.848	26.96
403.061	260.43
403.275	-20.14
403.488	-321.19
403.701	436.56
403.915	215.38
404.128	33.11
404.341	-226.98
404.555	160.08
404.768	16.73
404.981	-18.09
405.195	-261.8
405.408	420.17
405.621	198.99
405.834	-26.28
406.048	-296.61
406.261	391.5
406.474	352.59
406.687	-204.46
406.9	-5.8
407.114	-5.8
407.327	72.02
407.54	-278.18
407.753	-267.94
407.966	-181.93
408.179	221.52
408.392	-222.89
408.605	-331.43
408.819	141.65
409.032	20.82
409.245	-181.93
409.458	41.3
409.671	155.99
409.884	252.24
410.097	-323.24
410.31	-71.34
410.523	252.24
410.736	-42.67
410.949	-153.26
411.162	-110.25
411.375	401.74
411.588	213.33
411.801	-65.19
412.014	-173.74
412.227	12.63
412.44	18.77
412.653	-272.04
412.865	6.49
413.078	242
413.291	254.29
413.504	-106.15
413.717	-298.66
413.93	213.33
414.143	-157.35
414.356	-26.28
414.568	-292.52
414.781	233.81
414.994	192.85
415.207	-50.86
415.42	-161.45
415.632	239.95
415.845	434.51
416.058	-284.33
416.271	-331.43
416.483	8.53
416.696	432.46
416.909	-235.18
417.121	-181.93
417.334	147.8
417.547	473.42
417.759	-226.98
417.972	-269.99
418.185	-147.11
418.397	170.32
418.61	-212.65
418.823	-269.99
419.035	420.17
419.248	63.83
419.46	-110.25
419.673	-69.29
419.885	188.75
420.098	-9.9
420.311	-155.3
420.523	-374.44
420.736	88.4
420.948	65.88
421.161	-169.64
421.373	-372.39
421.586	84.31
421.798	-42.67
422.01	-315.05
422.223	-110.25
422.435	-69.29
422.648	211.28
422.86	-147.11
423.073	-235.18
423.285	207.19
423.497	-288.42
423.71	-222.89
423.922	-218.79
424.134	78.16
424.347	381.26
424.559	51.54
424.771	94.55
424.984	-59.05
425.196	88.4
425.408	-439.97
425.621	-360.1
425.833	276.82
426.045	309.58
426.257	-306.85
426.47	-206.5
426.682	145.75
426.894	88.4
427.106	-179.88
427.318	-118.44
427.531	-190.12
427.743	139.6
427.955	-226.98
428.167	258.39
428.379	174.42
428.591	-79.53
428.804	-75.43
429.016	-239.27
429.228	-50.86
429.44	149.84
429.652	57.68
429.864	-317.09
430.076	-69.29
430.288	-30.38
430.5	-157.35
430.712	-95.91
430.924	215.38
431.136	131.41
431.348	-349.86
431.56	-200.36
431.772	0.34
431.984	-32.43
432.196	-237.22
432.408	-210.6
432.62	-75.43
432.832	84.31
433.044	162.13
433.256	-75.43
433.468	117.08
433.679	-349.86
433.891	-231.08
434.103	43.35
434.315	268.63
434.527	186.71
434.739	-81.58
434.95	-194.22
435.162	295.25
435.374	-95.91
435.586	-140.97
435.798	-171.69
436.009	-210.6
436.221	-34.47
436.433	-175.78
436.645	-145.06
436.856	-108.2
437.068	330.06
437.28	-288.42
437.491	84.31
437.703	57.68
437.915	205.14
438.126	-163.5
438.338	10.58
438.55	-11.95
438.761	98.64
438.973	-286.37
439.184	-202.41
439.396	-3.75
439.608	262.48
439.819	-300.71
440.031	-173.74
440.242	182.61
440.454	194.9
440.665	-224.94
440.877	-91.82
441.088	158.03
441.3	-85.67
441.511	-325.29
441.723	-198.31
441.934	170.32
442.146	29.01
442.357	-54.95
442.569	135.51
442.78	-9.9
442.991	432.46
443.203	22.87
443.414	-237.22
443.626	325.97
443.837	-169.64
444.048	-325.29
444.26	-378.53
444.471	90.45
444.682	211.28
444.894	-419.49
445.105	-335.53
445.316	282.96
445.528	188.75
445.739	-118.44
445.95	-179.88
446.161	78.16
446.373	319.82
446.584	-206.5
446.795	-181.93
447.006	170.32
447.217	424.27
447.429	-403.11
447.64	-267.94
447.851	276.82
448.062	-24.23
448.273	-403.11
448.484	-278.18
448.695	143.7
448.907	31.06
449.118	-110.25
449.329	-18.09
449.54	-100.01
449.751	-288.42
449.962	-173.74
450.173	-237.22
450.384	213.33
450.595	418.13
450.806	-229.03
451.017	-177.83
451.228	309.58
451.439	268.63
451.65	-190.12
451.861	-364.2
452.072	-147.11
452.283	31.06
452.494	-59.05
452.705	-231.08
452.915	422.22
453.126	108.88
453.337	-136.87
453.548	-335.53
453.759	285.01
453.97	498
454.181	-100.01
454.391	-267.94
454.602	137.56
454.813	198.99
455.024	-175.78
455.235	-173.74
455.445	31.06
455.656	127.32
455.867	-97.96
456.078	-194.22
456.288	-116.39
456.499	164.18
456.71	-249.51
456.921	18.77
457.131	112.98
457.342	82.26
457.553	-65.19
457.763	-315.05
457.974	231.76
458.184	137.56
458.395	-364.2
458.606	-300.71
458.816	381.26
459.027	502.09
459.237	-112.3
459.448	-399.01
459.659	278.87
459.869	526.67
460.08	-343.72
460.29	-9.9
460.501	411.98
460.711	-91.82
460.922	-313
461.132	-265.89
461.343	645.45
461.553	-204.46
461.764	-239.27
461.974	-194.22
462.184	248.15
462.395	108.88
462.605	-233.13
462.816	-308.9
463.026	53.59
463.236	276.82
463.447	-190.12
463.657	-255.65
463.867	250.19
464.078	-95.91
464.288	-167.59
464.498	-276.13
464.709	-1.71
464.919	-9.9
465.129	-214.7
465.339	-333.48
465.55	162.13
465.76	219.47
465.97	-206.5
466.18	-206.5
466.391	172.37
466.601	110.93
466.811	-140.97
467.021	-304.81
467.231	115.03
467.441	196.95
467.651	-186.02
467.862	-468.64
468.072	-63.15
468.282	397.65
468.492	-229.03
468.702	-210.6
468.912	82.26
469.122	557.39
469.332	57.68
469.542	-317.09
469.752	198.99
469.962	65.88
470.172	-306.85
470.382	-282.28
470.592	209.23
470.802	297.3
471.012	-100.01
471.222	-229.03
471.432	231.76
471.642	186.71
471.852	-181.93
472.062	-292.52
472.272	-73.39
472.482	-245.41
472.691	-331.43
472.901	-319.14
473.111	117.08
473.321	520.53
473.531	-333.48
473.741	-120.49
473.95	104.79
474.16	248.15
474.37	-190.12
474.58	-362.15
474.79	395.6
474.999	145.75
475.209	-394.92
475.419	-212.65
475.628	-20.14
475.838	319.82
476.048	-190.12
476.258	-435.88
476.467	295.25
476.677	-181.93
476.886	-52.91
477.096	-159.4
477.306	-134.82
477.515	325.97
477.725	-186.02
477.935	-165.54
478.144	313.68
478.354	-235.18
478.563	-206.5
478.773	-378.53
478.982	174.42
479.192	235.86
479.401	-132.78
479.611	-304.81
479.82	-173.74
480.03	112.98
480.239	-321.19
480.449	-343.72
480.658	373.07
480.868	-194.22
481.077	-181.93
481.287	-171.69
481.496	162.13
481.705	325.97
481.915	53.59
482.124	-18.09
482.333	49.49
482.543	260.43
482.752	-128.68
482.961	-267.94
483.171	131.41
483.38	37.2
483.589	-145.06
483.799	-233.13
484.008	82.26
484.217	219.47
484.426	-224.94
484.636	-351.91
484.845	16.73
485.054	-282.28
485.263	49.49
485.472	-245.41
485.682	352.59
485.891	51.54
486.1	-315.05
486.309	-220.84
486.518	82.26
486.727	315.73
486.936	-302.76
487.146	-204.46
487.355	389.46
487.564	-263.85
487.773	-153.26
487.982	-251.56
488.191	-54.95
488.4	31.06
488.609	-235.18
488.818	-261.8
489.027	678.22
489.236	344.4
489.445	-288.42
489.654	-284.33
489.863	229.71
490.072	-18.09
490.281	123.22
490.49	-284.33
490.698	405.84
490.907	328.02
491.116	-245.41
491.325	-317.09
491.534	403.79
491.743	74.07
491.952	-222.89
492.16	-194.22
492.369	221.52
492.578	229.71
492.787	-204.46
492.996	-390.82
493.204	-171.69
493.413	424.27
493.622	-437.92
493.831	-396.96
494.039	403.79
494.248	-226.98
494.457	-370.34
494.665	-331.43
494.874	252.24
495.083	555.34
495.291	-149.16
495.5	-345.77
495.709	180.56
495.917	59.73
496.126	-83.63
496.335	-263.85
496.543	8.53
496.752	90.45
496.96	26.96
497.169	-380.58
497.377	14.68
497.586	248.15
497.794	-206.5
498.003	-423.59
498.211	8.53
498.42	411.98
498.628	-173.74
498.837	-347.81
499.045	82.26
499.254	67.92
499.462	-231.08
499.671	-272.04
499.879	409.94
500.087	248.15
500.296	-294.57
500.504	-157.35
500.713	176.47
500.921	489.81
501.129	-220.84
501.338	-235.18
501.546	96.6
501.754	35.16
501.962	-300.71
502.171	-403.11
502.379	78.16
502.587	401.74
502.795	-226.98
503.004	-247.46
503.212	-22.19
503.42	268.63
503.628	-251.56
503.837	-149.16
504.045	252.24
504.253	438.61
504.461	-229.03
504.669	-444.07
504.877	176.47
505.085	325.97
505.294	-321.19
505.502	-71.34
505.71	96.6
505.918	229.71
506.126	-261.8
506.334	-368.29
506.542	-83.63
506.75	94.55
506.958	-108.2
507.166	-202.41
507.374	-91.82
507.582	465.23
507.79	-173.74
507.998	-339.62
508.206	176.47
508.414	121.17
508.622	-294.57
508.83	-224.94
509.037	483.66
509.245	6.49
509.453	-321.19
509.661	-349.86
509.869	190.8
510.077	-18.09
510.285	-151.21
510.492	-517.79
510.7	555.34
510.908	-124.58
511.116	-245.41
511.324	-253.61
511.531	-77.48
511.739	67.92
511.947	-134.82
512.155	86.36
512.362	80.21
512.57	-263.85
512.778	-353.96
512.985	-411.3
513.193	239.95
513.401	407.89
513.608	-155.3
513.816	-327.33
514.024	119.12
514.231	350.54
514.439	-308.9
514.646	-255.65
514.854	135.51
515.061	258.39
515.269	-341.67
515.477	-290.47
515.684	-245.41
515.892	297.3
516.099	-353.96
516.307	-427.68
516.514	174.42
516.722	407.89
516.929	-235.18
517.136	-364.2
517.344	346.45
517.551	47.44
517.759	-239.27
517.966	-286.37
518.173	-143.02
518.381	-44.71
518.588	-202.41
518.796	-323.24
519.003	211.28
519.21	39.25
519.418	-313
519.625	-18.09
519.832	76.12
520.039	145.75
520.247	-384.68
520.454	-269.99
520.661	276.82
520.868	72.02
521.076	-237.22
521.283	-229.03
521.49	616.78
521.697	119.12
521.904	-253.61
522.112	-214.7
522.319	203.09
522.526	182.61
522.733	-380.58
522.94	-351.91
523.147	-65.19
523.354	276.82
523.561	-462.5
523.768	-138.92
523.975	385.36
524.183	-24.23
524.39	-233.13
524.597	-435.88
524.804	45.4
525.011	-126.63
525.218	-280.23
525.425	-319.14
525.632	354.64
525.838	-112.3
526.045	-278.18
526.252	-276.13
526.459	1091.91
526.666	786.76
526.873	-255.65
527.08	-319.14
527.287	358.74
527.494	223.57
527.701	-462.5
527.907	-392.87
528.114	194.9
528.321	-50.86
528.528	-239.27
528.735	-269.99
528.941	-143.02
529.148	-157.35
529.355	-151.21
529.562	-267.94
529.768	360.78
529.975	-65.19
530.182	-290.47
530.388	-343.72
530.595	260.43
530.802	-216.74
531.008	-118.44
531.215	-265.89
531.422	731.47
531.628	700.75
531.835	-134.82
532.042	-194.22
532.248	-87.72
532.455	80.21
532.661	-181.93
532.868	-239.27
533.074	121.17
533.281	328.02
533.487	-212.65
533.694	-333.48
533.9	-196.26
534.107	158.03
534.313	-272.04
534.52	-345.77
534.726	239.95
534.933	491.85
535.139	-396.96
535.345	-339.62
535.552	123.22
535.758	-18.09
535.965	-186.02
536.171	-243.37
536.377	244.05
536.584	362.83
536.79	-292.52
536.996	-186.02
537.203	162.13
537.409	141.65
537.615	-284.33
537.821	-126.63
538.028	180.56
538.234	186.71
538.44	-278.18
538.646	-140.97
538.853	119.12
539.059	26.96
539.265	31.06
539.471	-405.16
539.677	231.76
539.883	-44.71
540.09	-208.55
540.296	135.51
540.502	24.92
540.708	-136.87
540.914	-116.39
541.12	-239.27
541.326	143.7
541.532	-50.86
541.738	-163.5
541.944	-286.37
542.15	274.77
542.356	-32.43
542.562	-370.34
542.768	-208.55
542.974	579.92
543.18	498
543.386	-204.46
543.592	-505.51
543.798	399.7
544.004	258.39
544.21	-321.19
544.415	-190.12
544.621	115.03
544.827	266.58
545.033	-345.77
545.239	-40.62
545.445	-220.84
545.651	108.88
545.856	-343.72
546.062	-237.22
546.268	-69.29
546.474	4.44
546.679	-247.46
546.885	-222.89
547.091	-120.49
547.297	485.71
547.502	-151.21
547.708	-407.2
547.914	-118.44
548.119	205.14
548.325	-323.24
548.531	-263.85
548.736	452.94
548.942	-108.2
549.147	-339.62
549.353	-104.11
549.559	334.16
549.764	174.42
549.97	-224.94
550.175	-241.32
550.381	102.74
550.586	-75.43
550.792	-245.41
550.997	-272.04
551.203	117.08
551.408	119.12
551.614	-411.3
551.819	-259.75
552.025	399.7
552.23	530.77
552.435	-388.77
552.641	-89.77
552.846	-153.26
553.052	287.06
553.257	-128.68
553.462	-296.61
553.668	-97.96
553.873	276.82
554.078	-349.86
554.283	-325.29
554.489	47.44
554.694	45.4
554.899	-345.77
555.105	-130.73
555.31	35.16
555.515	239.95
555.72	-167.59
555.925	-300.71
556.131	319.82
556.336	-61.1
556.541	-362.15
556.746	-382.63
556.951	252.24
557.156	377.17
557.361	-198.31
557.567	-188.07
557.772	465.23
557.977	104.79
558.182	-241.32
558.387	-263.85
558.592	-59.05
558.797	416.08
559.002	-79.53
559.207	-122.54
559.412	-28.33
559.617	483.66
559.822	-226.98
560.027	-263.85
560.232	155.99
560.437	321.87
560.642	-378.53
560.847	-388.77
561.051	26.96
561.256	31.06
561.461	-243.37
561.666	-384.68
561.871	53.59
562.076	190.8
562.281	-237.22
562.485	-386.72
562.69	254.29
562.895	289.1
563.1	-216.74
563.305	-278.18
563.509	297.3
563.714	541.01
563.919	-403.11
564.123	-337.57
564.328	-34.47
564.533	385.36
564.737	-194.22
564.942	-292.52
565.147	407.89
565.351	508.24
565.556	-169.64
565.761	-206.5
565.965	45.4
566.17	-171.69
566.374	-251.56
566.579	-329.38
566.784	76.12
566.988	29.01
567.193	-382.63
567.397	-331.43
567.602	-284.33
567.806	-63.15
568.011	-269.99
568.215	-155.3
568.42	-95.91
568.624	18.77
568.828	-337.57
569.033	-108.2
569.237	207.19
569.442	176.47
569.646	-345.77
569.85	-374.44
570.055	10.58
570.259	74.07
570.463	-104.11
570.668	-216.74
570.872	-22.19
571.076	-69.29
571.281	-159.4
571.485	-183.98
571.689	20.82
571.893	242
572.098	-136.87
572.302	-292.52
572.506	192.85
572.71	65.88
572.914	-194.22
573.119	-233.13
573.323	407.89
573.527	315.73
573.731	-298.66
573.935	-327.33
574.139	92.5
574.343	-108.2
574.547	-222.89
574.751	-237.22
574.955	354.64
575.159	317.78
575.364	-323.24
575.568	-390.82
575.772	-11.95
575.976	340.3
576.18	-298.66
576.383	-376.48
576.587	309.58
576.791	213.33
576.995	-431.78
577.199	-419.49
577.403	235.86
577.607	385.36
577.811	-362.15
578.015	-140.97
578.219	51.54
578.422	301.39
578.626	-192.17
578.83	-128.68
579.034	299.34
579.238	6.49
579.442	-229.03
579.645	149.84
579.849	47.44
580.053	43.35
580.257	-290.47
580.46	-177.83
580.664	186.71
580.868	153.94
581.071	26.96
581.275	-128.68
581.479	-280.23
581.682	172.37
581.886	-259.75
582.09	-171.69
582.293	174.42
582.497	293.2
582.7	-52.91
582.904	-370.34
583.107	6.49
583.311	72.02
583.515	-151.21
583.718	-149.16
583.922	160.08
584.125	522.57
584.329	-282.28
584.532	-120.49
584.735	297.3
584.939	155.99
585.142	-343.72
585.346	-337.57
585.549	153.94
585.753	-67.24
585.956	-165.54
586.159	-132.78
586.363	450.89
586.566	129.36
586.769	-368.29
586.973	-310.95
587.176	153.94
587.379	321.87
587.582	74.07
587.786	-28.33
587.989	-24.23
588.192	661.84
588.395	-229.03
588.599	16.73
588.802	117.08
589.005	301.39
589.208	-235.18
589.411	-183.98
589.615	244.05
589.818	454.99
590.021	4.44
590.224	-132.78
590.427	270.67
590.63	207.19
590.833	-417.44
591.036	-284.33
591.239	-52.91
591.442	-124.58
591.645	-75.43
591.848	-251.56
592.051	151.89
592.254	246.1
592.457	-255.65
592.66	-190.12
592.863	22.87
593.066	182.61
593.269	-235.18
593.472	-134.82
593.675	-183.98
593.878	209.23
594.081	-24.23
594.284	-251.56
594.486	188.75
594.689	84.31
594.892	-110.25
595.095	-190.12
595.298	194.9
595.5	-50.86
595.703	-124.58
595.906	-42.67
596.109	481.61
596.311	248.15
596.514	-482.98
596.717	-202.41
596.92	387.41
597.122	227.67
597.325	-450.21
597.528	-259.75
597.73	391.5
597.933	55.64
598.136	-308.9
598.338	-431.78
598.541	145.75
598.743	373.07
598.946	-177.83
599.148	-132.78
599.351	325.97
599.554	278.87
599.756	-140.97
599.959	-181.93
600.161	227.67
600.363	672.08
600.566	29.01
600.768	-186.02
600.971	457.04
601.173	215.38
601.376	-239.27
601.578	-130.73
601.78	108.88
601.983	686.41
602.185	-259.75
602.388	-18.09
602.59	155.99
602.792	31.06
602.995	-34.47
603.197	-214.7
603.399	305.49
603.601	198.99
603.804	-95.91
604.006	-231.08
604.208	55.64
604.41	-269.99
604.613	-38.57
604.815	-253.61
605.017	637.26
605.219	-79.53
605.421	168.27
605.623	-210.6
605.826	356.69
606.028	465.23
606.23	-196.26
606.432	-169.64
606.634	401.74
606.836	473.42
607.038	-304.81
607.24	-65.19
607.442	84.31
607.644	39.25
607.846	-134.82
608.048	-276.13
608.25	432.46
608.452	-108.2
608.654	-183.98
608.856	-450.21
609.058	39.25
609.26	86.36
609.462	-57
609.664	-136.87
609.866	481.61
610.067	305.49
610.269	-34.47
610.471	-116.39
610.673	-9.9
610.875	182.61
611.077	-358.05
611.278	-104.11
611.48	149.84
611.682	512.33
611.884	-106.15
612.085	-126.63
612.287	-177.83
612.489	256.34
612.69	-341.67
612.892	-179.88
613.094	313.68
613.295	149.84
613.497	-186.02
613.699	-265.89
613.9	411.98
614.102	323.92
614.304	-118.44
614.505	-362.15
614.707	-28.33
614.908	117.08
615.11	-306.85
615.311	-75.43
615.513	334.16
615.714	293.2
615.916	-198.31
616.117	-120.49
616.319	55.64
616.52	285.01
616.722	-194.22
616.923	-206.5
617.124	366.93
617.326	260.43
617.527	-75.43
617.729	-9.9
617.93	219.47
618.131	237.91
618.333	-132.78
618.534	-116.39
618.735	-30.38
618.937	428.37
619.138	-366.25
619.339	-226.98
619.54	237.91
619.742	37.2
619.943	6.49
620.144	-132.78
620.345	291.15
620.546	278.87
620.748	-175.78
620.949	-151.21
621.15	117.08
621.351	198.99
621.552	-272.04
621.753	-304.81
621.954	-235.18
622.155	575.82
622.356	-261.8
622.558	14.68
622.759	90.45
622.96	547.15
623.161	-110.25
623.362	-204.46
623.563	65.88
623.764	158.03
623.965	-102.06
624.166	-9.9
624.366	20.82
624.567	227.67
624.768	-433.83
624.969	-126.63
625.17	24.92
625.371	221.52
625.572	-104.11
625.773	-220.84
625.973	291.15
626.174	297.3
626.375	-108.2
626.576	-40.62
626.777	227.67
626.977	717.13
627.178	-186.02
627.379	-50.86
627.58	74.07
627.78	143.7
627.981	-153.26
628.182	-7.85
628.382	377.17
628.583	-222.89
628.784	-329.38
628.984	18.77
629.185	297.3
629.386	362.83
629.586	-61.1
629.787	-220.84
629.987	246.1
630.188	123.22
630.388	-77.48
630.589	-67.24
630.79	600.4
630.99	198.99
631.191	-112.3
631.391	-50.86
631.591	223.57
631.792	440.65
631.992	-65.19
632.193	-136.87
632.393	526.67
632.594	135.51
632.794	-243.37
632.994	10.58
633.195	108.88
633.395	121.17
633.595	-171.69
633.796	41.3
633.996	49.49
634.196	371.02
634.397	-296.61
634.597	-44.71
634.797	-110.25
634.997	434.51
635.198	-40.62
635.398	-317.09
635.598	72.02
635.798	418.13
635.998	285.01
636.199	-132.78
636.399	61.78
636.599	-102.06
636.799	-153.26
636.999	155.99
637.199	268.63
637.399	418.13
637.599	-239.27
637.799	-83.63
637.999	39.25
638.199	524.62
638.399	-204.46
638.599	-134.82
638.799	342.35
638.999	622.92
639.199	76.12
639.399	-54.95
639.599	461.13
639.799	-196.26
639.999	-269.99
640.199	-247.46
640.399	133.46
640.599	239.95
640.799	-50.86
640.998	26.96
641.198	395.6
641.398	211.28
641.598	-69.29
641.798	-83.63
641.997	1151.3
642.197	106.84
642.397	-81.58
642.597	-126.63
642.796	278.87
642.996	459.09
643.196	76.12
643.395	-239.27
643.595	285.01
643.795	-280.23
643.994	-95.91
644.194	-34.47
644.394	239.95
644.593	164.18
644.793	-349.86
644.992	-13.99
645.192	352.59
645.392	-315.05
645.591	55.64
645.791	-161.45
645.99	325.97
646.19	80.21
646.389	-120.49
646.589	-147.11
646.788	317.78
646.987	242
647.187	223.57
647.386	84.31
647.586	164.18
647.785	375.12
647.984	-136.87
648.184	-81.58
648.383	-13.99
648.582	88.4
648.782	-59.05
648.981	31.06
649.18	-81.58
649.38	203.09
649.579	-165.54
649.778	-116.39
649.977	293.2
650.177	307.54
650.376	-73.39
650.575	-124.58
650.774	514.38
650.973	10.58
651.173	-229.03
651.372	-83.63
651.571	246.1
651.77	311.63
651.969	-112.3
652.168	6.49
652.367	-89.77
652.566	182.61
652.765	-210.6
652.964	205.14
653.163	633.16
653.362	121.17
653.561	-69.29
653.76	-112.3
653.959	-59.05
654.158	303.44
654.357	125.27
654.556	-30.38
654.755	223.57
654.954	325.97
655.153	-16.04
655.352	-63.15
655.551	450.89
655.749	-91.82
655.948	18.77
656.147	10.58
656.346	215.38
656.545	176.47
656.743	14.68
656.942	-40.62
657.141	256.34
657.34	-50.86
657.538	-87.72
657.737	-54.95
657.936	51.54
658.135	270.67
658.333	-116.39
658.532	-34.47
658.731	596.3
658.929	358.74
659.128	137.56
659.326	-128.68
659.525	526.67
659.724	221.52
659.922	-380.58
660.121	-188.07
660.319	170.32
660.518	-95.91
660.716	-243.37
660.915	-224.94
661.113	483.66
661.312	-128.68
661.51	53.59
661.709	-190.12
661.907	280.91
662.105	575.82
662.304	-104.11
662.502	-100.01
662.701	420.17
662.899	-42.67
663.097	270.67
663.296	-308.9
663.494	414.03
663.692	489.81
663.891	-159.4
664.089	-128.68
664.287	323.92
664.485	463.18
664.684	-85.67
664.882	-9.9
665.08	211.28
665.278	170.32
665.476	-290.47
665.675	164.18
665.873	608.59
666.071	428.37
666.269	-112.3
666.467	174.42
666.665	162.13
666.863	51.54
667.061	69.97
667.259	-110.25
667.457	160.08
667.655	299.34
667.853	-229.03
668.051	78.16
668.249	-157.35
668.447	235.86
668.645	-181.93
668.843	170.32
669.041	309.58
669.239	74.07
669.437	22.87
669.635	45.4
669.833	153.94
670.031	252.24
670.229	98.64
670.426	84.31
670.624	57.68
670.822	-100.01
671.02	-46.76
671.218	-18.09
671.415	-97.96
671.613	143.7
671.811	65.88
672.009	-36.52
672.206	338.26
672.404	119.12
672.602	145.75
672.799	8.53
672.997	174.42
673.195	426.32
673.392	76.12
673.59	-118.44
673.788	373.07
673.985	-272.04
674.183	57.68
674.38	-54.95
674.578	301.39
674.775	-9.9
674.973	-163.5
675.17	-122.54
675.368	532.81
675.565	291.15
675.763	-97.96
675.96	-120.49
676.158	498
676.355	155.99
676.553	-52.91
676.75	-63.15
676.947	125.27
677.145	166.23
677.342	-22.19
677.539	80.21
677.737	121.17
677.934	682.31
678.131	155.99
678.329	-102.06
678.526	573.77
678.723	375.12
678.92	22.87
679.118	-34.47
679.315	-48.81
679.512	506.19
679.709	-7.85
679.906	49.49
680.104	500.05
680.301	112.98
680.498	-155.3
680.695	-91.82
680.892	22.87
681.089	69.97
681.286	35.16
681.483	-220.84
681.68	303.44
681.877	336.21
682.075	10.58
682.272	201.04
682.469	256.34
682.665	162.13
682.862	-97.96
683.059	-169.64
683.256	196.95
683.453	184.66
683.65	80.21
683.847	-52.91
684.044	170.32
684.241	96.6
684.438	92.5
684.635	-153.26
684.831	604.49
685.028	653.64
685.225	-67.24
685.422	-1.71
685.619	139.6
685.815	129.36
686.012	123.22
686.209	-1.71
686.405	-26.28
686.602	469.33
686.799	-175.78
686.996	-87.72
687.192	-34.47
687.389	629.07
687.586	-110.25
687.782	4.44
687.979	541.01
688.175	471.37
688.372	41.3
688.568	-42.67
688.765	92.5
688.962	538.96
689.158	29.01
689.355	-220.84
689.551	317.78
689.748	31.06
689.944	55.64
690.14	-222.89
690.337	489.81
690.533	33.11
690.73	201.04
690.926	-16.04
691.123	350.54
691.319	196.95
691.515	-157.35
691.712	139.6
691.908	309.58
692.104	258.39
692.301	131.41
692.497	-116.39
692.693	323.92
692.889	338.26
693.086	72.02
693.282	-210.6
693.478	262.48
693.674	538.96
693.87	41.3
694.067	-265.89
694.263	342.35
694.459	172.37
694.655	149.84
694.851	65.88
695.047	338.26
695.243	375.12
695.439	80.21
695.635	-91.82
695.831	436.56
696.027	205.14
696.224	-67.24
696.42	416.08
696.615	520.53
696.811	252.24
697.007	-173.74
697.203	-38.57
697.399	409.94
697.595	487.76
697.791	-38.57
697.987	170.32
698.183	-77.48
698.379	59.73
698.575	6.49
698.77	33.11
698.966	387.41
699.162	563.53
699.358	6.49
699.554	-87.72
699.749	295.25
699.945	403.79
700.141	160.08
700.337	108.88
700.532	149.84
700.728	0.34
700.924	10.58
701.119	-38.57
701.315	295.25
701.511	172.37
701.706	12.63
701.902	-147.11
702.097	198.99
702.293	311.63
702.489	45.4
702.684	14.68
702.88	88.4
703.075	143.7
703.271	49.49
703.466	-116.39
703.662	219.47
703.857	338.26
704.053	-38.57
704.248	33.11
704.443	299.34
704.639	368.98
704.834	22.87
705.03	-81.58
705.225	358.74
705.42	475.47
705.616	184.66
705.811	-128.68
706.006	147.8
706.202	174.42
706.397	125.27
706.592	-83.63
706.787	242
706.983	268.63
707.178	260.43
707.373	49.49
707.568	352.59
707.763	514.38
707.959	-143.02
708.154	-75.43
708.349	289.1
708.544	379.22
708.739	219.47
708.934	-130.73
709.129	381.26
709.324	442.7
709.519	-71.34
709.714	-175.78
709.909	506.19
710.104	295.25
710.299	-34.47
710.494	82.26
710.689	319.82
710.884	239.95
711.079	72.02
711.274	192.85
711.469	340.3
711.664	244.05
711.859	-83.63
712.054	149.84
712.249	364.88
712.443	606.54
712.638	-87.72
712.833	-57
713.028	196.95
713.223	211.28
713.417	383.31
713.612	-13.99
713.807	352.59
714.002	823.62
714.196	170.32
714.391	-50.86
714.586	457.04
714.78	155.99
714.975	131.41
715.17	-9.9
715.364	254.29
715.559	446.8
715.754	-341.67
715.948	-57
716.143	655.69
716.337	379.22
716.532	252.24
716.726	72.02
716.921	352.59
717.115	667.98
717.31	-116.39
717.504	475.47
717.699	143.7
717.893	391.5
718.088	-63.15
718.282	-75.43
718.476	280.91
718.671	377.17
718.865	-3.75
719.059	-40.62
719.254	239.95
719.448	680.27
719.642	1349.95
719.837	-100.01
720.031	541.01
720.225	502.09
720.419	147.8
720.614	-9.9
720.808	420.17
721.002	248.15
721.196	-57
721.39	-11.95
721.585	588.11
721.779	319.82
721.973	88.4
722.167	-128.68
722.361	295.25
722.555	483.66
722.749	24.92
722.943	-26.28
723.137	-69.29
723.331	328.02
723.525	53.59
723.719	-34.47
723.913	346.45
724.107	571.72
724.301	-120.49
724.495	18.77
724.689	674.12
724.883	528.72
725.077	-95.91
725.271	-5.8
725.465	563.53
725.659	201.04
725.853	108.88
726.046	-175.78
726.24	51.54
726.434	428.37
726.628	4.44
726.822	78.16
727.015	516.43
727.209	475.47
727.403	-48.81
727.596	-122.54
727.79	452.94
727.984	407.89
728.177	-34.47
728.371	149.84
728.565	426.32
728.758	-54.95
728.952	16.73
729.146	26.96
729.339	561.48
729.533	221.52
729.726	67.92
729.92	-132.78
730.113	524.62
730.307	325.97
730.5	-18.09
730.694	-128.68
730.887	192.85
731.081	350.54
731.274	-36.52
731.468	31.06
731.661	221.52
731.854	172.37
732.048	-77.48
732.241	-26.28
732.435	76.12
732.628	297.3
732.821	-30.38
733.014	-102.06
733.208	-91.82
733.401	399.7
733.594	-34.47
733.788	-3.75
733.981	602.44
734.174	377.17
734.367	-1.71
734.56	92.5
734.754	514.38
734.947	293.2
735.14	-110.25
735.333	57.68
735.526	485.71
735.719	80.21
735.912	-143.02
736.105	-69.29
736.298	272.72
736.491	166.23
736.684	26.96
736.877	-7.85
737.07	395.6
737.263	581.96
737.456	-16.04
737.649	-42.67
737.842	141.65
738.035	205.14
738.228	67.92
738.421	143.7
738.614	465.23
738.807	387.41
739	-140.97
739.192	-163.5
739.385	248.15
739.578	344.4
739.771	188.75
739.964	-30.38
740.156	399.7
740.349	219.47
740.542	217.43
740.735	-69.29
740.927	20.82
741.12	29.01
741.313	-114.34
741.505	170.32
741.698	309.58
741.891	379.22
742.083	176.47
742.276	-9.9
742.468	260.43
742.661	166.23
742.854	14.68
743.046	-44.71
743.239	682.31
743.431	174.42
743.624	26.96
743.816	-224.94
744.009	172.37
744.201	407.89
744.393	182.61
744.586	-116.39
744.778	522.57
744.971	252.24
745.163	59.73
745.355	108.88
745.548	293.2
745.74	84.31
745.932	84.31
746.125	-120.49
746.317	797
746.509	364.88
746.702	26.96
746.894	174.42
747.086	280.91
747.278	528.72
747.471	129.36
747.663	37.2
747.855	248.15
748.047	657.74
748.239	18.77
748.431	-9.9
748.623	665.93
748.815	541.01
749.008	-79.53
749.2	-26.28
749.392	387.41
749.584	373.07
749.776	63.83
749.968	86.36
750.16	629.07
750.352	135.51
750.544	26.96
750.736	-91.82
750.928	409.94
751.12	248.15
751.311	88.4
751.503	63.83
751.695	299.34
751.887	256.34
752.079	-194.22
752.271	37.2
752.463	1028.42
752.654	473.42
752.846	47.44
753.038	10.58
753.23	86.36
753.421	377.17
753.613	-9.9
753.805	190.8
753.997	510.29
754.188	469.33
754.38	-16.04
754.572	-54.95
754.763	184.66
754.955	332.11
755.146	90.45
755.338	22.87
755.53	426.32
755.721	272.72
755.913	-134.82
756.104	-42.67
756.296	248.15
756.487	422.22
756.679	-104.11
756.87	-18.09
757.062	141.65
757.253	448.85
757.445	-5.8
757.636	158.03
757.827	211.28
758.019	809.29
758.21	-85.67
758.401	78.16
758.593	770.38
758.784	612.68
758.975	-67.24
759.167	-136.87
759.358	264.53
759.549	512.33
759.74	-20.14
759.932	22.87
760.123	571.72
760.314	223.57
760.505	104.79
760.696	47.44
760.888	710.99
761.079	260.43
761.27	-83.63
761.461	-124.58
761.652	614.73
761.843	117.08
762.034	-143.02
762.225	229.71
762.416	176.47
762.607	309.58
762.798	29.01
762.989	-9.9
763.18	1071.43
763.371	147.8
763.562	31.06
763.753	35.16
763.944	489.81
764.135	555.34
764.326	137.56
764.517	76.12
764.708	342.35
764.899	416.08
765.089	18.77
765.28	-208.55
765.471	293.2
765.662	399.7
765.853	26.96
766.043	-106.15
766.234	452.94
766.425	530.77
766.615	31.06
766.806	-188.07
766.997	573.77
767.187	416.08
767.378	35.16
767.569	-167.59
767.759	371.02
767.95	285.01
768.141	149.84
768.331	-61.1
768.522	256.34
768.712	457.04
768.903	8.53
769.093	26.96
769.284	692.55
769.474	325.97
769.665	-153.26
769.855	-222.89
770.046	358.74
770.236	207.19
770.426	125.27
770.617	-38.57
770.807	334.16
770.998	235.86
771.188	196.95
771.378	2.39
771.569	469.33
771.759	358.74
771.949	-61.1
772.139	-206.5
772.33	399.7
772.52	661.84
772.71	-42.67
772.9	-186.02
773.09	672.08
773.281	635.21
773.471	-71.34
773.661	-71.34
773.851	534.86
774.041	139.6
774.231	-69.29
774.421	67.92
774.611	586.06
774.802	285.01
774.992	67.92
775.182	-116.39
775.372	274.77
775.562	397.65
775.752	45.4
775.942	72.02
776.131	541.01
776.321	383.31
776.511	26.96
776.701	-46.76
776.891	459.09
777.081	100.69
777.271	63.83
777.461	-44.71
777.651	489.81
777.84	545.1
778.03	53.59
778.22	-57
778.41	694.6
778.599	78.16
778.789	76.12
778.979	-28.33
779.169	366.93
779.358	260.43
779.548	268.63
779.738	-126.63
779.927	383.31
780.117	24.92
780.307	-13.99
780.496	-179.88
780.686	371.02
780.875	624.97
781.065	-46.76
781.254	14.68
781.444	246.1
781.633	319.82
781.823	29.01
782.012	-79.53
782.202	237.91
782.391	268.63
782.581	-140.97
782.77	149.84
782.96	364.88
783.149	260.43
783.338	37.2
783.528	-222.89
783.717	448.85
783.906	538.96
784.096	47.44
784.285	-46.76
784.474	219.47
784.663	65.88
784.853	39.25
785.042	112.98
785.231	190.8
785.42	448.85
785.61	49.49
785.799	-104.11
785.988	123.22
786.177	164.18
786.366	53.59
786.555	164.18
786.744	450.89
786.933	270.67
787.122	-151.21
787.312	-161.45
787.501	110.93
787.69	414.03
787.879	-24.23
788.068	-89.77
788.257	29.01
788.445	213.33
788.634	72.02
788.823	-93.87
789.012	940.36
789.201	594.25
789.39	-1.71
789.579	-91.82
789.768	254.29
789.957	332.11
790.145	-50.86
790.334	-231.08
790.523	203.09
790.712	201.04
790.9	24.92
791.089	-155.3
791.278	514.38
791.467	330.06
791.655	313.68
791.844	514.38
792.033	104.79
792.221	244.05
792.41	-38.57
792.599	-91.82
792.787	411.98
792.976	375.12
793.164	-100.01
793.353	-40.62
793.541	514.38
793.73	436.56
793.918	39.25
794.107	-46.76
794.295	297.3
794.484	268.63
794.672	61.78
794.861	-22.19
795.049	377.17
795.238	655.69
795.426	-124.58
795.614	139.6
795.803	280.91
795.991	516.43
796.179	-79.53
796.368	-44.71
796.556	522.57
796.744	-52.91
796.932	4.44
797.121	-87.72
797.309	282.96
797.497	475.47
797.685	-22.19
797.874	-42.67
798.062	213.33
798.25	696.65
798.438	-163.5
798.626	-91.82
798.814	301.39
799.002	758.09
799.19	84.31
799.378	106.84
799.566	508.24
799.755	559.44
799.943	203.09
800.131	2.39
800.318	309.58
800.506	373.07
800.694	18.77
800.882	33.11
801.07	543.05
801.258	305.49
801.446	22.87
801.634	-32.43
801.822	256.34
802.01	285.01
802.197	-75.43
802.385	108.88
802.573	235.86
802.761	-1.71
802.949	-5.8
803.136	-130.73
803.324	553.29
803.512	309.58
803.699	55.64
803.887	-140.97
804.075	602.44
804.262	133.46
804.45	-42.67
804.638	53.59
804.825	55.64
805.013	123.22
805.201	-30.38
805.388	-69.29
805.576	117.08
805.763	723.27
805.951	-71.34
806.138	227.67
806.326	704.84
806.513	432.46
806.701	49.49
806.888	-97.96
807.075	373.07
807.263	696.65
807.45	-136.87
807.638	125.27
807.825	692.55
808.012	448.85
808.2	16.73
808.387	252.24
808.574	330.06
808.761	596.3
808.949	6.49
809.136	112.98
809.323	12.63
809.51	172.37
809.698	328.02
809.885	143.7
810.072	422.22
810.259	508.24
810.446	137.56
810.633	-32.43
810.82	520.53
811.008	575.82
811.195	174.42
811.382	92.5
811.569	266.58
811.756	-28.33
811.943	35.16
812.13	-57
812.317	121.17
812.504	117.08
812.691	63.83
812.878	178.51
813.064	551.24
813.251	244.05
813.438	-50.86
813.625	186.71
813.812	242
813.999	229.71
814.186	33.11
814.372	0.34
814.559	264.53
814.746	530.77
814.933	84.31
815.12	198.99
815.306	219.47
815.493	2.39
815.68	-18.09
815.866	112.98
816.053	534.86
816.24	768.33
816.426	225.62
816.613	-134.82
816.799	426.32
816.986	536.91
817.173	-7.85
817.359	0.34
817.546	381.26
817.732	-59.05
817.919	-188.07
818.105	190.8
818.292	94.55
818.478	362.83
818.665	166.23
818.851	12.63
819.037	758.09
819.224	254.29
819.41	-85.67
819.597	-34.47
819.783	678.22
819.969	346.45
820.156	100.69
820.342	-114.34
820.528	926.02
820.714	239.95
820.901	244.05
821.087	106.84
821.273	620.88
821.459	244.05
821.646	-85.67
821.832	-73.39
822.018	219.47
822.204	328.02
822.39	6.49
822.576	-161.45
822.762	469.33
822.948	317.78
823.134	239.95
823.32	59.73
823.507	39.25
823.693	315.73
823.879	430.41
824.065	-18.09
824.25	299.34
824.436	35.16
824.622	10.58
824.808	-116.39
824.994	155.99
825.18	67.92
825.366	-104.11
825.552	12.63
825.738	223.57
825.923	493.9
826.109	305.49
826.295	51.54
826.481	133.46
826.667	129.36
826.852	151.89
827.038	-54.95
827.224	553.29
827.409	649.55
827.595	-169.64
827.781	203.09
827.966	522.57
828.152	516.43
828.338	-5.8
828.523	-83.63
828.709	139.6
828.894	541.01
829.08	-32.43
829.266	-13.99
829.451	117.08
829.637	407.89
829.822	160.08
830.008	-16.04
830.193	426.32
830.378	665.93
830.564	94.55
830.749	-122.54
830.935	317.78
831.12	526.67
831.305	-7.85
831.491	82.26
831.676	10.58
831.861	471.37
832.047	72.02
832.232	-52.91
832.417	487.76
832.602	336.21
832.788	88.4
832.973	6.49
833.158	276.82
833.343	319.82
833.528	137.56
833.714	123.22
833.899	440.65
834.084	674.12
834.269	252.24
834.454	149.84
834.639	498
834.824	305.49
835.009	112.98
835.194	170.32
835.379	506.19
835.564	610.64
835.749	133.46
835.934	-11.95
836.119	416.08
836.304	350.54
836.489	-48.81
836.674	225.62
836.859	49.49
837.044	612.68
837.228	84.31
837.413	-112.3
837.598	315.73
837.783	559.44
837.968	-28.33
838.152	-114.34
838.337	-118.44
838.522	526.67
838.707	516.43
838.891	178.51
839.076	344.4
839.261	457.04
839.445	96.6
839.63	133.46
839.815	694.6
839.999	186.71
840.184	24.92
840.368	67.92
840.553	438.61
840.737	563.53
840.922	-44.71
841.106	-75.43
841.291	-61.1
841.475	305.49
841.66	-9.9
841.844	22.87
842.029	985.41
842.213	8.53
842.397	53.59
842.582	-79.53
842.766	481.61
842.951	469.33
843.135	-36.52
843.319	88.4
843.504	401.74
843.688	526.67
843.872	-151.21
844.056	-46.76
844.241	395.6
844.425	252.24
844.609	174.42
844.793	-110.25
844.977	514.38
845.161	498
845.346	-85.67
845.53	14.68
845.714	364.88
845.898	663.88
846.082	-95.91
846.266	-32.43
846.45	358.74
846.634	317.78
846.818	-40.62
847.002	131.41
847.186	444.75
847.37	96.6
847.554	-83.63
847.738	94.55
847.922	305.49
848.106	311.63
848.29	-7.85
848.473	-69.29
848.657	442.7
848.841	231.76
849.025	55.64
849.209	-87.72
849.392	508.24
849.576	139.6
849.76	-173.74
849.944	121.17
850.127	665.93
850.311	-50.86
850.495	-104.11
850.678	-116.39
850.862	534.86
851.046	790.86
851.229	295.25
851.413	-61.1
851.596	285.01
851.78	227.67
851.964	100.69
852.147	84.31
852.331	964.93
852.514	555.34
852.698	104.79
852.881	-153.26
853.065	471.37
853.248	221.52
853.431	155.99
853.615	-1.71
853.798	799.05
853.982	350.54
854.165	239.95
854.348	-13.99
854.532	92.5
854.715	147.8
854.898	-22.19
855.081	6.49
855.265	653.64
855.448	725.32
855.631	-1.71
855.814	106.84
855.997	651.6
856.181	229.71
856.364	147.8
856.547	-59.05
856.73	350.54
856.913	358.74
857.096	-34.47
857.279	35.16
857.462	137.56
857.645	522.57
857.828	190.8
858.011	129.36
858.194	106.84
858.377	485.71
858.56	-71.34
858.743	72.02
858.926	82.26
859.109	418.13
859.292	26.96
859.475	-95.91
859.658	616.78
859.841	495.95
860.023	-97.96
860.206	-5.8
860.389	391.5
860.572	594.25
860.755	131.41
860.937	16.73
861.12	301.39
861.303	276.82
861.486	104.79
861.668	-59.05
861.851	442.7
862.034	467.28
862.216	188.75
862.399	-54.95
862.581	553.29
862.764	737.61
862.947	133.46
863.129	12.63
863.312	55.64
863.494	727.37
863.677	407.89
863.859	-155.3
864.042	395.6
864.224	561.48
864.406	141.65
864.589	-122.54
864.771	321.87
864.954	76.12
865.136	31.06
865.318	-116.39
865.501	506.19
865.683	-87.72
865.865	76.12
866.048	-48.81
866.23	383.31
866.412	342.35
866.594	-75.43
866.777	121.17
866.959	487.76
867.141	125.27
867.323	285.01
867.505	176.47
867.687	233.81
867.869	330.06
868.052	190.8
868.234	-46.76
868.416	332.11
868.598	479.57
868.78	55.64
868.962	-73.39
869.144	498
869.326	514.38
869.508	53.59
869.69	-65.19
869.872	112.98
870.054	545.1
870.236	-40.62
870.417	-93.87
870.599	213.33
870.781	684.36
870.963	108.88
871.145	-30.38
871.327	72.02
871.508	469.33
871.69	35.16
871.872	96.6
872.054	391.5
872.235	397.65
872.417	53.59
872.599	-57
872.78	661.84
872.962	213.33
873.144	-122.54
873.325	-5.8
873.507	586.06
873.689	366.93
873.87	-67.24
874.052	174.42
874.233	233.81
874.415	440.65
874.596	72.02
874.778	-46.76
874.959	276.82
875.141	604.49
875.322	90.45
875.503	-108.2
875.685	348.5
875.866	-40.62
876.048	-59.05
876.229	-85.67
876.41	295.25
876.592	315.73
876.773	10.58
876.954	-159.4
877.136	696.65
877.317	190.8
877.498	-276.13
877.679	100.69
877.86	385.36
878.042	276.82
878.223	12.63
878.404	379.22
878.585	418.13
878.766	710.99
878.947	256.34
879.128	201.04
879.309	541.01
879.49	514.38
879.672	55.64
879.853	72.02
880.034	219.47
880.215	160.08
880.396	112.98
880.576	-59.05
880.757	106.84
880.938	567.63
881.119	-65.19
881.3	-100.01
881.481	121.17
881.662	1124.68
881.843	-128.68
882.023	-132.78
882.204	346.45
882.385	297.3
882.566	-7.85
882.747	-54.95
882.927	256.34
883.108	401.74
883.289	-75.43
883.469	254.29
883.65	287.06
883.831	371.02
884.011	221.52
884.192	-7.85
884.373	530.77
884.553	418.13
884.734	180.56
884.914	291.15
885.095	880.97
885.275	631.12
885.456	305.49
885.636	-188.07
885.817	227.67
885.997	285.01
886.178	49.49
886.358	129.36
886.538	414.03
886.719	1362.24
886.899	29.01
887.08	100.69
887.26	538.96
887.44	115.03
887.621	-20.14
887.801	78.16
887.981	936.26
888.161	481.61
888.342	65.88
888.522	43.35
888.702	481.61
888.882	526.67
889.062	229.71
889.242	-157.35
889.423	667.98
889.603	463.18
889.783	141.65
889.963	-36.52
890.143	457.04
890.323	571.72
890.503	24.92
890.683	108.88
890.863	307.54
891.043	297.3
891.223	194.9
891.403	184.66
891.583	235.86
891.763	352.59
891.943	160.08
892.122	22.87
892.302	373.07
892.482	307.54
892.662	198.99
892.842	141.65
893.022	411.98
893.201	123.22
893.381	196.95
893.561	69.97
893.741	518.48
893.92	422.22
894.1	239.95
894.28	43.35
894.459	594.25
894.639	436.56
894.819	33.11
894.998	133.46
895.178	356.69
895.357	424.27
895.537	92.5
895.716	-59.05
895.896	295.25
896.075	571.72
896.255	-26.28
896.434	-116.39
896.614	504.14
896.793	665.93
896.973	219.47
897.152	198.99
897.331	448.85
897.511	473.42
897.69	-63.15
897.87	176.47
898.049	473.42
898.228	297.3
898.407	213.33
898.587	149.84
898.766	162.13
898.945	495.95
899.124	325.97
899.304	174.42
899.483	508.24
899.662	893.26
899.841	35.16
900.02	102.74
900.199	651.6
900.378	383.31
900.557	-9.9
900.737	-22.19
900.916	450.89
901.095	538.96
901.274	436.56
901.453	-3.75
901.632	127.32
901.811	121.17
901.989	-42.67
902.168	20.82
902.347	434.51
902.526	198.99
902.705	155.99
902.884	151.89
903.063	768.33
903.242	596.3
903.42	-71.34
903.599	170.32
903.778	545.1
903.957	637.26
904.135	180.56
904.314	133.46
904.493	395.6
904.672	489.81
904.85	112.98
905.029	51.54
905.207	536.91
905.386	1022.28
905.565	-1.71
905.743	47.44
905.922	229.71
906.1	600.4
906.279	-26.28
906.457	10.58
906.636	229.71
906.814	178.51
906.993	80.21
907.171	-18.09
907.35	526.67
907.528	520.53
907.707	303.44
907.885	-32.43
908.063	700.75
908.242	170.32
908.42	110.93
908.598	-110.25
908.777	469.33
908.955	198.99
909.133	115.03
909.311	16.73
909.49	207.19
909.668	219.47
909.846	88.4
910.024	-46.76
910.202	276.82
910.38	518.48
910.559	-44.71
910.737	39.25
910.915	426.32
911.093	401.74
911.271	33.11
911.449	344.4
911.627	489.81
911.805	926.02
911.983	35.16
912.161	0.34
912.339	465.23
912.517	657.74
912.695	227.67
912.872	90.45
913.05	117.08
913.228	551.24
913.406	108.88
913.584	-89.77
913.762	508.24
913.939	198.99
914.117	37.2
914.295	16.73
914.473	434.51
914.65	493.9
914.828	135.51
915.006	55.64
915.184	4.44
915.361	457.04
915.539	196.95
915.716	354.64
915.894	348.5
916.072	469.33
916.249	237.91
916.427	219.47
916.604	82.26
916.782	440.65
916.959	-79.53
917.137	80.21
917.314	381.26
917.492	432.46
917.669	145.75
917.847	170.32
918.024	420.17
918.201	203.09
918.379	110.93
918.556	98.64
918.733	522.57
918.911	180.56
919.088	293.2
919.265	90.45
919.442	366.93
919.62	416.08
919.797	-5.8
919.974	-26.28
920.151	446.8
920.328	268.63
920.506	112.98
920.683	194.9
920.86	139.6
921.037	133.46
921.214	182.61
921.391	43.35
921.568	565.58
921.745	98.64
921.922	123.22
922.099	31.06
922.276	518.48
922.453	418.13
922.63	-48.81
922.807	442.7
922.984	334.16
923.161	139.6
923.338	131.41
923.514	39.25
923.691	266.58
923.868	420.17
924.045	133.46
924.222	-16.04
924.399	397.65
924.575	481.61
924.752	82.26
924.929	182.61
925.105	524.62
925.282	131.41
925.459	135.51
925.635	37.2
925.812	328.02
925.989	104.79
926.165	129.36
926.342	-77.48
926.518	18.77
926.695	309.58
926.871	6.49
927.048	-106.15
927.224	538.96
927.401	256.34
927.577	186.71
927.754	-91.82
927.93	551.24
928.107	448.85
928.283	55.64
928.459	205.14
928.636	420.17
928.812	205.14
928.988	-30.38
929.165	-95.91
929.341	266.58
929.517	342.35
929.693	409.94
929.87	-145.06
930.046	481.61
930.222	176.47
930.398	78.16
930.574	192.85
930.751	266.58
930.927	170.32
931.103	145.75
931.279	170.32
931.455	106.84
931.631	426.32
931.807	-122.54
931.983	-104.11
932.159	-26.28
932.335	334.16
932.511	119.12
932.687	20.82
932.863	420.17
933.039	346.45
933.215	-140.97
933.391	-91.82
933.566	250.19
933.742	235.86
933.918	88.4
934.094	-116.39
934.27	254.29
934.445	293.2
934.621	244.05
934.797	-13.99
934.973	516.43
935.148	350.54
935.324	-106.15
935.5	-196.26
935.675	520.53
935.851	354.64
936.027	26.96
936.202	78.16
936.378	354.64
936.553	338.26
936.729	416.08
936.904	-7.85
937.08	61.78
937.255	186.71
937.431	-85.67
937.606	-97.96
937.782	186.71
937.957	289.1
938.133	72.02
938.308	-20.14
938.483	237.91
938.659	96.6
938.834	61.78
939.009	-128.68
939.185	180.56
939.36	153.94
939.535	-288.42
939.71	33.11
939.886	471.37
940.061	313.68
940.236	121.17
940.411	82.26
940.586	309.58
940.761	330.06
940.937	119.12
941.112	-114.34
941.287	260.43
941.462	227.67
941.637	-100.01
941.812	55.64
941.987	250.19
942.162	178.51
942.337	125.27
942.512	-5.8
942.687	416.08
942.862	293.2
943.037	-106.15
943.212	-358.05
943.386	102.74
943.561	299.34
943.736	188.75
943.911	317.78
944.086	321.87
944.26	252.24
944.435	-5.8
944.61	104.79
944.785	389.46
944.959	627.02
945.134	82.26
945.309	-104.11
945.483	-69.29
945.658	596.3
945.833	-319.14
946.007	-224.94
946.182	508.24
946.357	43.35
946.531	-116.39
946.706	-190.12
946.88	-251.56
947.055	219.47
947.229	-118.44
947.404	-81.58
947.578	454.99
947.752	100.69
947.927	-143.02
948.101	-138.92
948.276	246.1
948.45	266.58
948.624	137.56
948.799	-116.39
948.973	223.57
949.147	-57
949.321	47.44
949.496	-83.63
949.67	422.22
949.844	117.08
950.018	-50.86
950.193	-73.39
950.367	629.07
950.541	174.42
950.715	65.88
950.889	49.49
951.063	76.12
951.237	252.24
951.411	-345.77
951.585	-288.42
951.759	158.03
951.933	106.84
952.107	-108.2
952.281	35.16
952.455	532.81
952.629	346.45
952.803	-91.82
952.977	-91.82
953.151	311.63
953.325	205.14
953.499	125.27
953.672	-179.88
953.846	-59.05
954.02	88.4
954.194	-157.35
954.368	-46.76
954.541	315.73
954.715	-61.1
954.889	8.53
955.062	-181.93
955.236	117.08
955.41	61.78
955.583	-97.96
955.757	-272.04
955.93	59.73
956.104	-63.15
956.278	-100.01
956.451	-50.86
956.625	276.82
956.798	506.19
956.972	145.75
957.145	-161.45
957.319	151.89
957.492	176.47
957.665	-7.85
957.839	-132.78
958.012	182.61
958.185	98.64
958.359	-50.86
958.532	158.03
958.705	305.49
958.879	211.28
959.052	-7.85
959.225	-272.04
959.398	135.51
959.572	217.43
959.745	-104.11
959.918	-26.28
960.091	59.73
960.264	246.1
960.438	-177.83
960.611	-159.4
960.784	258.39
960.957	-1.71
961.13	201.04
961.303	-181.93
961.476	65.88
961.649	325.97
961.822	-204.46
961.995	-91.82
962.168	268.63
962.341	250.19
962.514	-102.06
962.686	-159.4
962.859	172.37
963.032	256.34
963.205	-171.69
963.378	-253.61
963.551	287.06
963.723	143.7
963.896	14.68
964.069	94.55
964.242	106.84
964.414	330.06
964.587	-89.77
964.76	43.35
964.932	178.51
965.105	139.6
965.278	-112.3
965.45	-120.49
965.623	207.19
965.795	250.19
965.968	-167.59
966.14	-75.43
966.313	96.6
966.485	256.34
966.658	6.49
966.83	-128.68
967.003	440.65
967.175	360.78
967.348	-91.82
967.52	-28.33
967.692	559.44
967.865	291.15
968.037	-73.39
968.209	207.19
968.382	80.21
968.554	276.82
968.726	22.87
968.898	-114.34
969.071	246.1
969.243	223.57
969.415	-26.28
969.587	-34.47
969.759	655.69
969.932	391.5
970.104	-77.48
970.276	-425.64
970.448	74.07
970.62	-18.09
970.792	31.06
970.964	45.4
971.136	598.35
971.308	366.93
971.48	-229.03
971.652	-104.11
971.824	614.73
971.996	12.63
972.168	33.11
972.339	35.16
972.511	303.44
972.683	198.99
972.855	174.42
973.027	-38.57
973.199	219.47
973.37	373.07
973.542	96.6
973.714	158.03
973.886	145.75
974.057	323.92
974.229	-169.64
974.401	-190.12
974.572	-9.9
974.744	-315.05
974.915	-259.75
975.087	-71.34
975.259	571.72
975.43	2.39
975.602	-54.95
975.773	-138.92
975.945	-7.85
976.116	262.48
976.288	-122.54
976.459	143.7
976.63	86.36
976.802	227.67
976.973	-145.06
977.145	63.83
977.316	489.81
977.487	231.76
977.659	57.68
977.83	55.64
978.001	581.96
978.172	235.86
978.344	-165.54
978.515	-22.19
978.686	51.54
978.857	495.95
979.028	-32.43
979.2	-136.87
979.371	362.83
979.542	168.27
979.713	102.74
979.884	-454.31
980.055	-75.43
980.226	84.31
980.397	-132.78
980.568	-196.26
980.739	391.5
980.91	72.02
981.081	147.8
981.252	-181.93
981.423	301.39
981.594	426.32
981.765	-157.35
981.936	6.49
982.106	104.79
982.277	473.42
982.448	-173.74
982.619	63.83
982.79	94.55
982.96	407.89
983.131	10.58
983.302	-210.6
983.472	86.36
983.643	223.57
983.814	76.12
983.984	-97.96
984.155	147.8
984.326	411.98
984.496	67.92
984.667	-106.15
984.837	-87.72
985.008	424.27
985.178	33.11
985.349	-9.9
985.519	158.03
985.69	8.53
985.86	43.35
986.031	-149.16
986.201	266.58
986.371	301.39
986.542	-249.51
986.712	-327.33
986.882	264.53
987.053	147.8
987.223	-77.48
987.393	33.11
987.563	67.92
987.734	291.15
987.904	246.1
988.074	-54.95
988.244	178.51
988.414	45.4
988.585	-138.92
988.755	67.92
988.925	135.51
989.095	432.46
989.265	-181.93
989.435	-52.91
989.605	209.23
989.775	309.58
989.945	172.37
990.115	-155.3
990.285	117.08
990.455	166.23
990.625	8.53
990.795	-192.17
990.965	541.01
991.134	-63.15
991.304	-140.97
991.474	-73.39
991.644	164.18
991.814	565.58
991.984	-179.88
992.153	-177.83
992.323	65.88
992.493	145.75
992.662	-349.86
992.832	2.39
993.002	164.18
993.171	246.1
993.341	-251.56
993.511	39.25
993.68	43.35
993.85	278.87
994.019	-304.81
994.189	-259.75
994.358	239.95
994.528	-24.23
994.697	-382.63
994.867	-181.93
995.036	237.91
995.206	41.3
995.375	-235.18
995.544	-77.48
995.714	207.19
995.883	-3.75
996.052	-65.19
996.222	-298.66
996.391	530.77
996.56	223.57
996.73	-247.46
996.899	-310.95
997.068	502.09
997.237	115.03
997.406	-157.35
997.576	-335.53
997.745	147.8
997.914	127.32
998.083	-372.39
998.252	-114.34
998.421	147.8
998.59	-36.52
998.759	-210.6
998.928	-392.87
999.097	371.02
999.266	145.75
999.435	-54.95
999.604	-351.91
999.773	643.4
999.942	143.7
1000.111	-310.95
1000.28	-308.9
1000.448	-106.15
1000.617	-167.59
1000.786	-38.57
1000.955	-319.14
1001.124	129.36
1001.292	840.01
1001.461	-243.37
1001.63	-286.37
1001.798	469.33
1001.967	409.94
1002.136	-288.42
1002.304	-212.65
1002.473	268.63
1002.642	186.71
1002.81	-181.93
1002.979	-263.85
1003.147	211.28
1003.316	612.68
1003.484	-206.5
1003.653	-216.74
1003.821	350.54
1003.99	57.68
1004.158	-106.15
1004.327	-71.34
1004.495	260.43
1004.663	-114.34
1004.832	-50.86
1005	-300.71
1005.168	229.71
1005.337	196.95
1005.505	-345.77
1005.673	24.92
1005.842	229.71
1006.01	289.1
1006.178	-302.76
1006.346	-192.17
1006.514	217.43
1006.683	424.27
1006.851	-255.65
1007.019	-446.12
1007.187	-118.44
1007.355	-392.87
1007.523	-362.15
1007.691	-345.77
1007.859	-151.21
1008.027	356.69
1008.195	-294.57
1008.363	-362.15
1008.531	371.02
1008.699	-136.87
1008.867	-376.48
1009.035	-226.98
1009.203	426.32
1009.37	88.4
1009.538	-198.31
1009.706	205.14
1009.874	104.79
1010.042	-24.23
1010.209	-337.57
1010.377	-276.13
1010.545	360.78
1010.713	84.31
1010.88	-288.42
1011.048	-194.22
1011.216	31.06
1011.383	424.27
1011.551	-280.23
1011.718	-319.14
1011.886	285.01
1012.054	63.83
1012.221	-257.7
1012.389	-272.04
1012.556	100.69
1012.724	459.09
1012.891	-173.74
1013.058	-411.3
1013.226	231.76
1013.393	350.54
1013.561	-450.21
1013.728	-403.11
1013.895	278.87
1014.063	190.8
1014.23	-362.15
1014.397	-333.48
1014.565	340.3
1014.732	-30.38
1014.899	-280.23
1015.066	-253.61
1015.233	117.08
1015.401	252.24
1015.568	-202.41
1015.735	-52.91
1015.902	186.71
1016.069	168.27
1016.236	-272.04
1016.403	-302.76
1016.57	-106.15
1016.737	385.36
1016.904	-200.36
1017.071	-372.39
1017.238	-59.05
1017.405	248.15
1017.572	-257.7
1017.739	-89.77
1017.906	192.85
1018.073	272.72
1018.24	-376.48
1018.407	-241.32
1018.573	276.82
1018.74	33.11
1018.907	-224.94
1019.074	-415.4
1019.241	348.5
1019.407	223.57
1019.574	-251.56
1019.741	-317.09
1019.907	239.95
1020.074	213.33
1020.241	-507.55
1020.407	-335.53
1020.574	147.8
1020.74	235.86
1020.907	-212.65
1021.073	-286.37
1021.24	647.5
1021.406	479.57
1021.573	-388.77
1021.739	-280.23
1021.906	348.5
1022.072	104.79
1022.239	-310.95
1022.405	-255.65
1022.571	92.5
1022.738	-57
1022.904	-272.04
1023.07	-214.7
1023.237	174.42
1023.403	405.84
1023.569	-269.99
1023.735	-251.56
1023.902	121.17
1024.068	170.32
1024.234	-329.38
1024.4	-304.81
1024.566	203.09
1024.732	231.76
1024.898	-333.48
1025.065	-337.57
1025.231	260.43
1025.397	18.77
1025.563	-269.99
1025.729	-353.96
1025.895	-315.05
1026.061	-83.63
1026.227	-472.74
1026.392	-183.98
1026.558	379.22
1026.724	186.71
1026.89	-276.13
1027.056	-163.5
1027.222	246.1
1027.388	8.53
1027.553	-284.33
1027.719	-259.75
1027.885	594.25
1028.051	213.33
1028.216	-388.77
1028.382	-206.5
1028.548	213.33
1028.713	24.92
1028.879	-358.05
1029.045	-116.39
1029.21	489.81
1029.376	354.64
1029.541	-181.93
1029.707	-212.65
1029.873	250.19
1030.038	280.91
1030.204	-247.46
1030.369	-159.4
1030.534	321.87
1030.7	90.45
1030.865	-245.41
1031.031	-304.81
1031.196	254.29
1031.361	137.56
1031.527	-169.64
1031.692	-341.67
1031.857	-292.52
1032.023	280.91
1032.188	-304.81
1032.353	-239.27
1032.518	553.29
1032.684	153.94
1032.849	-327.33
1033.014	-210.6
1033.179	330.06
1033.344	328.02
1033.509	-173.74
1033.674	-194.22
1033.839	221.52
1034.004	254.29
1034.17	-235.18
1034.335	-323.24
1034.5	53.59
1034.664	-26.28
1034.829	-175.78
1034.994	-186.02
1035.159	258.39
1035.324	229.71
1035.489	-194.22
1035.654	-280.23
1035.819	526.67
1035.984	266.58
1036.148	-151.21
1036.313	-222.89
1036.478	319.82
1036.643	125.27
1036.807	-202.41
1036.972	-263.85
1037.137	545.1
1037.301	125.27
1037.466	-333.48
1037.631	-165.54
1037.795	399.7
1037.96	309.58
1038.124	-50.86
1038.289	-315.05
1038.454	354.64
1038.618	211.28
1038.783	-153.26
1038.947	-177.83
1039.111	213.33
1039.276	-18.09
1039.44	-263.85
1039.605	270.67
1039.769	47.44
1039.933	172.37
1040.098	-169.64
1040.262	-42.67
1040.426	364.88
1040.591	205.14
1040.755	-267.94
1040.919	-212.65
1041.083	205.14
1041.248	145.75
1041.412	-407.2
1041.576	-325.29
1041.74	-34.47
1041.904	293.2
1042.068	-327.33
1042.232	-192.17
1042.397	366.93
1042.561	180.56
1042.725	-482.98
1042.889	-87.72
1043.053	332.11
1043.217	211.28
1043.381	-173.74
1043.544	-321.19
1043.708	373.07
1043.872	-77.48
1044.036	-525.99
1044.2	-360.1
1044.364	452.94
1044.528	440.65
1044.691	2855.21
1044.855	-356.01
1045.019	375.12
1045.183	344.4
1045.346	-169.64
1045.51	-247.46
1045.674	252.24
1045.837	317.78
1046.001	-186.02
1046.165	-239.27
1046.328	717.13
1046.492	309.58
1046.655	18.77
1046.819	-163.5
1046.983	26.96
1047.146	285.01
1047.31	-124.58
1047.473	-388.77
1047.636	207.19
1047.8	-71.34
1047.963	-159.4
1048.127	-210.6
1048.29	-100.01
