Data from Ink_Intensity_USB4F045381__43__00043.txt Node

Date: Mon Jul 17 09:56:10 EDT 2023
User: mmckonesweet
Spectrometer: USB4F04538
Trigger mode: 4
Integration Time (sec): 9.000000E-1
Scans to average: 1
Electric dark correction enabled: true
Nonlinearity correction enabled: false
Boxcar width: 0
XAxis mode: Wavelengths
Number of Pixels in Spectrum: 3648
>>>>>Begin Spectral Data<<<<<
345.52	-929.95
345.736	-929.95
345.952	-929.95
346.168	-970.91
346.384	-1015.96
346.6	-55.47
346.816	-221.35
347.032	-231.59
347.248	261.97
347.464	-250.02
347.68	-30.89
347.896	98.13
348.112	380.75
348.328	-90.28
348.544	-114.86
348.76	-37.03
348.975	290.64
349.191	-215.21
349.407	-215.21
349.623	12.12
349.839	-98.47
350.055	-94.38
350.27	71.51
350.486	257.87
350.702	331.6
350.918	194.39
351.133	-250.02
351.349	69.46
351.565	333.65
351.781	-106.67
351.996	-34.99
352.212	251.73
352.428	-172.2
352.644	-188.58
352.859	-241.83
353.075	266.07
353.291	-49.32
353.506	-98.47
353.722	-219.3
353.938	-61.61
354.153	427.85
354.369	26.45
354.584	-180.39
354.8	255.83
355.016	-313.51
355.231	-194.73
355.447	-86.19
355.662	16.21
355.878	825.16
356.093	-327.85
356.309	-61.61
356.524	-194.73
356.74	292.69
356.955	-266.41
357.171	-12.46
357.386	102.23
357.602	-221.35
357.817	-139.43
358.033	-145.58
358.248	356.18
358.464	73.56
358.679	-106.67
358.895	-305.32
359.11	-24.75
359.325	272.21
359.541	272.21
359.756	-51.37
359.972	-219.3
360.187	171.86
360.402	-198.82
360.618	-139.43
360.833	827.21
361.048	180.05
361.264	-221.35
361.479	-71.85
361.694	-20.65
361.909	245.59
362.125	-194.73
362.34	-53.42
362.555	239.44
362.77	124.76
362.986	-274.6
363.201	-125.1
363.416	159.57
363.631	-16.55
363.847	-157.86
364.062	-151.72
364.277	186.19
364.492	145.24
364.707	-174.25
364.922	-340.13
365.138	239.44
365.353	327.5
365.568	-192.68
365.783	-137.38
365.998	-0.17
366.213	573.26
366.428	-221.35
366.643	102.23
366.858	302.93
367.073	188.24
367.288	-116.9
367.503	-155.82
367.718	75.6
367.933	247.63
368.148	-329.89
368.363	-10.41
368.578	-0.17
368.793	438.09
369.008	-192.68
369.223	-233.64
369.438	137.04
369.653	313.17
369.868	-166.06
370.083	-178.34
370.298	96.08
370.513	374.61
370.728	30.55
370.943	-141.48
371.157	-157.86
371.372	505.68
371.587	-235.69
371.802	-268.45
372.017	5.97
372.232	390.99
372.446	-110.76
372.661	-245.93
372.876	171.86
373.091	89.94
373.306	-67.75
373.52	-295.08
373.735	-227.5
373.95	354.13
374.165	-90.28
374.379	-127.14
374.594	-88.23
374.809	112.47
375.023	53.08
375.238	-301.22
375.453	255.83
375.667	-243.88
375.882	-110.76
376.097	-145.58
376.311	40.79
376.526	-53.42
376.741	-217.26
376.955	151.38
377.17	603.98
377.384	509.77
377.599	-88.23
377.813	-252.07
378.028	515.92
378.242	167.76
378.457	-123.05
378.672	-305.32
378.886	175.95
379.101	-4.27
379.315	-245.93
379.53	-159.91
379.744	165.71
379.958	204.63
380.173	-108.71
380.387	-141.48
380.602	163.67
380.816	-69.8
381.031	-159.91
381.245	-53.42
381.459	178
381.674	2486.06
381.888	-254.12
382.103	63.32
382.317	-233.64
382.531	417.61
382.746	-69.8
382.96	-143.53
383.174	-118.95
383.388	376.66
383.603	59.22
383.817	-194.73
384.031	151.38
384.246	448.33
384.46	16.21
384.674	313.17
384.888	38.74
385.103	53.08
385.317	-211.11
385.531	-55.47
385.745	311.12
385.959	225.11
386.174	-155.82
386.388	-219.3
386.602	-16.55
386.816	-127.14
387.03	-180.39
387.244	-147.62
387.458	102.23
387.672	366.42
387.887	-266.41
388.101	-323.75
388.315	362.32
388.529	69.46
388.743	-129.19
388.957	-250.02
389.171	294.74
389.385	-82.09
389.599	-80.04
389.813	75.6
390.027	106.32
390.241	612.17
390.455	-12.46
390.669	-196.78
390.883	-121
391.097	347.98
391.311	-6.31
391.525	-243.88
391.738	132.95
391.952	208.72
392.166	-4.27
392.38	-145.58
392.594	216.91
392.808	315.22
393.022	-108.71
393.236	-137.38
393.449	145.24
393.663	53.08
393.877	-284.84
394.091	-184.49
394.305	-90.28
394.518	-141.48
394.732	-260.26
394.946	-82.09
395.16	370.51
395.373	71.51
395.587	-172.2
395.801	-135.34
396.015	284.5
396.228	200.53
396.442	-258.21
396.656	-274.6
396.869	302.93
397.083	337.74
397.297	-94.38
397.51	-112.81
397.724	384.85
397.938	114.52
398.151	-237.74
398.365	-252.07
398.578	173.91
398.792	376.66
399.005	42.84
399.219	-65.71
399.433	128.85
399.646	212.82
399.86	-12.46
400.073	44.88
400.287	188.24
400.5	-12.46
400.714	-61.61
400.927	-34.99
401.141	317.26
401.354	1027.91
401.567	196.43
401.781	-209.06
401.994	223.06
402.208	622.41
402.421	-229.54
402.635	-123.05
402.848	89.94
403.061	284.5
403.275	12.12
403.488	-88.23
403.701	487.25
403.915	292.69
404.128	96.08
404.341	-147.62
404.555	114.52
404.768	20.31
404.981	32.6
405.195	-139.43
405.408	483.15
405.621	175.95
405.834	14.17
406.048	-180.39
406.261	390.99
406.474	477.01
406.687	-211.11
406.9	-45.23
407.114	69.46
407.327	65.36
407.54	-370.85
407.753	-270.5
407.966	-86.19
408.179	278.35
408.392	-190.63
408.605	-250.02
408.819	75.6
409.032	151.38
409.245	-174.25
409.458	8.02
409.671	188.24
409.884	223.06
410.097	-276.65
410.31	65.36
410.523	143.19
410.736	-82.09
410.949	-53.42
411.162	-121
411.375	440.14
411.588	278.35
411.801	-12.46
412.014	-108.71
412.227	8.02
412.44	-61.61
412.653	-174.25
412.865	48.98
413.078	253.78
413.291	227.15
413.504	-108.71
413.717	-77.99
413.93	165.71
414.143	-53.42
414.356	-108.71
414.568	-211.11
414.781	253.78
414.994	167.76
415.207	-32.94
415.42	-86.19
415.632	313.17
415.845	417.61
416.058	-262.31
416.271	-243.88
416.483	-8.36
416.696	487.25
416.909	-161.96
417.121	-129.19
417.334	198.48
417.547	565.07
417.759	-53.42
417.972	-307.37
418.185	-82.09
418.397	276.31
418.61	-166.06
418.823	-145.58
419.035	491.34
419.248	-37.03
419.46	-6.31
419.673	-84.14
419.885	206.67
420.098	-20.65
420.311	-123.05
420.523	-305.32
420.736	204.63
420.948	57.17
421.161	-172.2
421.373	-293.03
421.586	151.38
421.798	-149.67
422.01	-215.21
422.223	-65.71
422.435	-47.27
422.648	182.1
422.86	-149.67
423.073	-155.82
423.285	315.22
423.497	-188.58
423.71	-145.58
423.922	-176.3
424.134	149.33
424.347	362.32
424.559	12.12
424.771	71.51
424.984	36.69
425.196	204.63
425.408	-305.32
425.621	-293.03
425.833	282.45
426.045	304.98
426.257	-245.93
426.47	-231.59
426.682	132.95
426.894	216.91
427.106	-75.95
427.318	-172.2
427.531	-82.09
427.743	259.92
427.955	-192.68
428.167	175.95
428.379	112.47
428.591	16.21
428.804	-16.55
429.016	-190.63
429.228	-141.48
429.44	153.43
429.652	26.45
429.864	-313.51
430.076	-67.75
430.288	-69.8
430.5	-59.56
430.712	-112.81
430.924	245.59
431.136	167.76
431.348	-258.21
431.56	-221.35
431.772	3.93
431.984	-12.46
432.196	-198.82
432.408	-135.34
432.62	-69.8
432.832	130.9
433.044	-4.27
433.256	-51.37
433.468	221.01
433.679	-254.12
433.891	-184.49
434.103	-45.23
434.315	323.41
434.527	274.26
434.739	-73.9
434.95	-131.24
435.162	278.35
435.374	-61.61
435.586	-147.62
435.798	-131.24
436.009	-141.48
436.221	-2.22
436.433	-94.38
436.645	-30.89
436.856	-106.67
437.068	323.41
437.28	-166.06
437.491	75.6
437.703	81.75
437.915	77.65
438.126	-108.71
438.338	32.6
438.55	18.26
438.761	204.63
438.973	-28.84
439.184	-129.19
439.396	65.36
439.608	214.87
439.819	-202.92
440.031	12.12
440.242	204.63
440.454	225.11
440.665	-123.05
440.877	-71.85
441.088	159.57
441.3	8.02
441.511	-172.2
441.723	-258.21
441.934	141.14
442.146	65.36
442.357	-14.51
442.569	63.32
442.78	26.45
442.991	382.8
443.203	200.53
443.414	-202.92
443.626	278.35
443.837	-110.76
444.048	-250.02
444.26	-321.7
444.471	61.27
444.682	290.64
444.894	-356.52
445.105	-278.69
445.316	175.95
445.528	96.08
445.739	-16.55
445.95	-133.29
446.161	169.81
446.373	393.04
446.584	-88.23
446.795	-196.78
447.006	94.04
447.217	413.52
447.429	-305.32
447.64	-176.3
447.851	241.49
448.062	89.94
448.273	-344.23
448.484	-168.1
448.695	184.15
448.907	48.98
449.118	-92.33
449.329	69.46
449.54	-67.75
449.751	-108.71
449.962	-174.25
450.173	-116.9
450.384	329.55
450.595	388.94
450.806	-143.53
451.017	-149.67
451.228	358.22
451.439	245.59
451.65	-233.64
451.861	-377
452.072	-102.57
452.283	32.6
452.494	-53.42
452.705	-153.77
452.915	409.42
453.126	110.42
453.337	-92.33
453.548	-204.97
453.759	188.24
453.97	575.31
454.181	34.64
454.391	-172.2
454.602	28.5
454.813	147.28
455.024	-149.67
455.235	-215.21
455.445	32.6
455.656	196.43
455.867	-61.61
456.078	-254.12
456.288	-67.75
456.499	85.84
456.71	-233.64
456.921	28.5
457.131	175.95
457.342	120.66
457.553	-86.19
457.763	-213.16
457.974	175.95
458.184	208.72
458.395	-209.06
458.606	-213.16
458.816	331.6
459.027	495.44
459.237	-67.75
459.448	-422.05
459.659	296.78
459.869	532.3
460.08	-315.56
460.29	-96.43
460.501	479.05
460.711	-143.53
460.922	-313.51
461.132	-180.39
461.343	634.7
461.553	-172.2
461.764	-209.06
461.974	-215.21
462.184	264.02
462.395	114.52
462.605	-61.61
462.816	-164.01
463.026	69.46
463.236	317.26
463.447	-274.6
463.657	-241.83
463.867	182.1
464.078	-77.99
464.288	-123.05
464.498	-164.01
464.709	61.27
464.919	42.84
465.129	-172.2
465.339	-282.79
465.55	139.09
465.76	212.82
465.97	-223.4
466.18	-295.08
466.391	231.25
466.601	149.33
466.811	-110.76
467.021	-235.69
467.231	124.76
467.441	225.11
467.651	-80.04
467.862	-336.04
468.072	46.93
468.282	364.37
468.492	-223.4
468.702	-96.43
468.912	91.99
469.122	515.92
469.332	128.85
469.542	-180.39
469.752	171.86
469.962	42.84
470.172	-256.17
470.382	-274.6
470.592	182.1
470.802	317.26
471.012	-86.19
471.222	-196.78
471.432	266.07
471.642	223.06
471.852	-166.06
472.062	-166.06
472.272	-90.28
472.482	-219.3
472.691	-280.74
472.901	-377
473.111	55.12
473.321	536.4
473.531	-299.17
473.741	-157.86
473.95	130.9
474.16	180.05
474.37	-61.61
474.58	-288.93
474.79	458.57
474.999	298.83
475.209	-229.54
475.419	-118.95
475.628	-59.56
475.838	327.5
476.048	-176.3
476.258	-301.22
476.467	272.21
476.677	-43.18
476.886	-47.27
477.096	-141.48
477.306	-143.53
477.515	343.89
477.725	-118.95
477.935	-129.19
478.144	364.37
478.354	-159.91
478.563	-116.9
478.773	-280.74
478.982	145.24
479.192	325.46
479.401	-98.47
479.611	-315.56
479.82	-184.49
480.03	102.23
480.239	-174.25
480.449	-336.04
480.658	380.75
480.868	-204.97
481.077	-71.85
481.287	-217.26
481.496	212.82
481.705	358.22
481.915	-8.36
482.124	22.36
482.333	184.15
482.543	352.08
482.752	-145.58
482.961	-198.82
483.171	282.45
483.38	10.07
483.589	-131.24
483.799	-266.41
484.008	36.69
484.217	290.64
484.426	-123.05
484.636	-211.11
484.845	87.89
485.054	-280.74
485.263	186.19
485.472	-176.3
485.682	444.24
485.891	48.98
486.1	-290.98
486.309	-118.95
486.518	135
486.727	302.93
486.936	-231.59
487.146	-18.6
487.355	360.27
487.564	-217.26
487.773	-219.3
487.982	-139.43
488.191	-80.04
488.4	24.4
488.609	-254.12
488.818	-204.97
489.027	548.68
489.236	415.57
489.445	-178.34
489.654	-297.13
489.863	298.83
490.072	57.17
490.281	126.8
490.49	-184.49
490.698	325.46
490.907	323.41
491.116	-247.97
491.325	-229.54
491.534	366.42
491.743	120.66
491.952	-112.81
492.16	-90.28
492.369	89.94
492.578	257.87
492.787	-61.61
492.996	-323.75
493.204	10.07
493.413	536.4
493.622	-387.24
493.831	-381.09
494.039	329.55
494.248	-133.29
494.457	-227.5
494.665	-301.22
494.874	233.3
495.083	493.39
495.291	-217.26
495.5	-243.88
495.709	192.34
495.917	67.41
496.126	-143.53
496.335	-180.39
496.543	-37.03
496.752	120.66
496.96	36.69
497.169	-356.52
497.377	75.6
497.586	282.45
497.794	-112.81
498.003	-338.09
498.211	-39.08
498.42	429.9
498.628	-55.47
498.837	-260.26
499.045	186.19
499.254	161.62
499.462	-260.26
499.671	-321.7
499.879	376.66
500.087	216.91
500.296	-207.02
500.504	-168.1
500.713	155.47
500.921	479.05
501.129	-176.3
501.338	-207.02
501.546	77.65
501.754	30.55
501.962	-229.54
502.171	-262.31
502.379	188.24
502.587	380.75
502.795	-86.19
503.004	-149.67
503.212	186.19
503.42	313.17
503.628	-182.44
503.837	-92.33
504.045	268.11
504.253	446.29
504.461	-241.83
504.669	-428.2
504.877	184.15
505.085	384.85
505.294	-305.32
505.502	-32.94
505.71	65.36
505.918	335.7
506.126	-174.25
506.334	-243.88
506.542	32.6
506.75	169.81
506.958	-131.24
507.166	-174.25
507.374	-80.04
507.582	434
507.79	-69.8
507.998	-235.69
508.206	65.36
508.414	83.8
508.622	-227.5
508.83	-190.63
509.037	411.47
509.245	-47.27
509.453	-336.04
509.661	-270.5
509.869	208.72
510.077	20.31
510.285	-106.67
510.492	-420
510.7	544.59
510.908	-90.28
511.116	-168.1
511.324	-270.5
511.531	24.4
511.739	87.89
511.947	-71.85
512.155	159.57
512.362	38.74
512.57	-168.1
512.778	-245.93
512.985	-358.57
513.193	302.93
513.401	315.22
513.608	-110.76
513.816	-145.58
514.024	155.47
514.231	384.85
514.439	-190.63
514.646	-116.9
514.854	247.63
515.061	237.39
515.269	-282.79
515.477	-221.35
515.684	-143.53
515.892	296.78
516.099	-250.02
516.307	-321.7
516.514	204.63
516.722	421.71
516.929	-190.63
517.136	-307.37
517.344	405.33
517.551	100.18
517.759	-307.37
517.966	-266.41
518.173	-47.27
518.381	-71.85
518.588	-141.48
518.796	-243.88
519.003	233.3
519.21	32.6
519.418	-278.69
519.625	55.12
519.832	44.88
520.039	57.17
520.247	-303.27
520.454	-198.82
520.661	198.48
520.868	178
521.076	-200.87
521.283	-145.58
521.49	618.32
521.697	167.76
521.904	-139.43
522.112	-143.53
522.319	192.34
522.526	128.85
522.733	-245.93
522.94	-215.21
523.147	-6.31
523.354	300.88
523.561	-352.42
523.768	-110.76
523.975	286.54
524.183	24.4
524.39	-182.44
524.597	-317.61
524.804	65.36
525.011	-106.67
525.218	-245.93
525.425	-196.78
525.632	311.12
525.838	-37.03
526.045	-190.63
526.252	-276.65
526.459	917.32
526.666	673.61
526.873	-176.3
527.08	-180.39
527.287	323.41
527.494	227.15
527.701	-256.17
527.907	-313.51
528.114	184.15
528.321	-49.32
528.528	-188.58
528.735	-295.08
528.941	-28.84
529.148	-53.42
529.355	-168.1
529.562	-258.21
529.768	339.79
529.975	-55.47
530.182	-168.1
530.388	-250.02
530.595	282.45
530.802	-147.62
531.008	-71.85
531.215	-164.01
531.422	618.32
531.628	720.71
531.835	-118.95
532.042	-125.1
532.248	-80.04
532.455	53.08
532.661	-170.15
532.868	-159.91
533.074	73.56
533.281	292.69
533.487	-166.06
533.694	-125.1
533.9	-225.45
534.107	196.43
534.313	-303.27
534.52	-250.02
534.726	276.31
534.933	393.04
535.139	-215.21
535.345	-346.28
535.552	12.12
535.758	26.45
535.965	-155.82
536.171	-266.41
536.377	280.4
536.584	364.37
536.79	-235.69
536.996	-110.76
537.203	71.51
537.409	77.65
537.615	-233.64
537.821	-53.42
538.028	135
538.234	288.59
538.44	-258.21
538.646	-161.96
538.853	249.68
539.059	87.89
539.265	112.47
539.471	-430.24
539.677	272.21
539.883	-104.62
540.09	-295.08
540.296	180.05
540.502	-20.65
540.708	-110.76
540.914	-10.41
541.12	-176.3
541.326	190.29
541.532	36.69
541.738	-133.29
541.944	-213.16
542.15	235.35
542.356	14.17
542.562	-256.17
542.768	-141.48
542.974	581.45
543.18	538.45
543.386	-192.68
543.592	-348.33
543.798	350.03
544.004	270.16
544.21	-252.07
544.415	-145.58
544.621	87.89
544.827	214.87
545.033	-317.61
545.239	5.97
545.445	-178.34
545.651	18.26
545.856	-217.26
546.062	-180.39
546.268	-116.9
546.474	71.51
546.679	-149.67
546.885	-116.9
547.091	-16.55
547.297	538.45
547.502	-129.19
547.708	-352.42
547.914	-22.7
548.119	196.43
548.325	-258.21
548.531	-331.94
548.736	434
548.942	-121
549.147	-229.54
549.353	55.12
549.559	282.45
549.764	114.52
549.97	-96.43
550.175	-166.06
550.381	233.3
550.586	-12.46
550.792	-92.33
550.997	-254.12
551.203	114.52
551.408	175.95
551.614	-293.03
551.819	-245.93
552.025	384.85
552.23	610.12
552.435	-213.16
552.641	8.02
552.846	-80.04
553.052	313.17
553.257	-149.67
553.462	-198.82
553.668	-65.71
553.873	212.82
554.078	-223.4
554.283	-219.3
554.489	63.32
554.694	63.32
554.899	-256.17
555.105	-45.23
555.31	145.24
555.515	214.87
555.72	-153.77
555.925	-301.22
556.131	157.52
556.336	-108.71
556.541	-243.88
556.746	-239.78
556.951	354.13
557.156	378.7
557.361	-94.38
557.567	-112.81
557.772	509.77
557.977	173.91
558.182	-221.35
558.387	-188.58
558.592	-39.08
558.797	343.89
559.002	-125.1
559.207	-112.81
559.412	24.4
559.617	446.29
559.822	-143.53
560.027	-229.54
560.232	233.3
560.437	292.69
560.642	-360.61
560.847	-260.26
561.051	96.08
561.256	87.89
561.461	-219.3
561.666	-258.21
561.871	126.8
562.076	184.15
562.281	-184.49
562.485	-250.02
562.69	192.34
562.895	304.98
563.1	-90.28
563.305	-241.83
563.509	374.61
563.714	640.84
563.919	-295.08
564.123	-221.35
564.328	108.37
564.533	317.26
564.737	-161.96
564.942	-159.91
565.147	345.94
565.351	614.22
565.556	-41.13
565.761	-77.99
565.965	100.18
566.17	-118.95
566.374	-137.38
566.579	-301.22
566.784	184.15
566.988	12.12
567.193	-325.8
567.397	-241.83
567.602	-219.3
567.806	147.28
568.011	-151.72
568.215	-118.95
568.42	55.12
568.624	-28.84
568.828	-211.11
569.033	-43.18
569.237	259.92
569.442	141.14
569.646	-280.74
569.85	-145.58
570.055	-6.31
570.259	69.46
570.463	57.17
570.668	-155.82
570.872	-63.66
571.076	-8.36
571.281	-129.19
571.485	-82.09
571.689	91.99
571.893	237.39
572.098	38.74
572.302	-237.74
572.506	255.83
572.71	122.71
572.914	-84.14
573.119	-86.19
573.323	440.14
573.527	397.14
573.731	-180.39
573.935	-250.02
574.139	96.08
574.343	-118.95
574.547	-207.02
574.751	-219.3
574.955	446.29
575.159	317.26
575.364	-174.25
575.568	-278.69
575.772	57.17
575.976	364.37
576.18	-225.45
576.383	-319.65
576.587	315.22
576.791	231.25
576.995	-413.86
577.199	-288.93
577.403	329.55
577.607	397.14
577.811	-235.69
578.015	-233.64
578.219	83.8
578.422	268.11
578.626	-2.22
578.83	-51.37
579.034	239.44
579.238	190.29
579.442	-268.45
579.645	145.24
579.849	30.55
580.053	30.55
580.257	-88.23
580.46	-100.52
580.664	376.66
580.868	194.39
581.071	65.36
581.275	28.5
581.479	-340.13
581.682	192.34
581.886	-217.26
582.09	-63.66
582.293	171.86
582.497	257.87
582.7	-32.94
582.904	-221.35
583.107	112.47
583.311	53.08
583.515	-45.23
583.718	-137.38
583.922	218.96
584.125	460.62
584.329	-311.46
584.532	-84.14
584.735	294.74
584.939	221.01
585.142	-303.27
585.346	-149.67
585.549	192.34
585.753	-28.84
585.956	-143.53
586.159	-67.75
586.363	503.63
586.566	153.43
586.769	-262.31
586.973	-235.69
587.176	210.77
587.379	380.75
587.582	157.52
587.786	-0.17
587.989	-12.46
588.192	558.92
588.395	-129.19
588.599	53.08
588.802	200.53
589.005	315.22
589.208	-166.06
589.411	-123.05
589.615	317.26
589.818	446.29
590.021	63.32
590.224	-10.41
590.427	286.54
590.63	268.11
590.833	-315.56
591.036	-200.87
591.239	28.5
591.442	38.74
591.645	18.26
591.848	-196.78
592.051	85.84
592.254	343.89
592.457	-114.86
592.66	-41.13
592.863	40.79
593.066	190.29
593.269	-123.05
593.472	48.98
593.675	-43.18
593.878	302.93
594.081	-123.05
594.284	-123.05
594.486	188.24
594.689	71.51
594.892	-20.65
595.095	-98.47
595.298	192.34
595.5	67.41
595.703	-69.8
595.906	-8.36
596.109	517.97
596.311	362.32
596.514	-438.44
596.717	-125.1
596.92	331.6
597.122	110.42
597.325	-379.04
597.528	-106.67
597.73	397.14
597.933	126.8
598.136	-135.34
598.338	-352.42
598.541	171.86
598.743	393.04
598.946	-118.95
599.148	-141.48
599.351	446.29
599.554	380.75
599.756	-53.42
599.959	-84.14
600.161	298.83
600.363	718.67
600.566	83.8
600.768	-94.38
600.971	528.21
601.173	233.3
601.376	-176.3
601.578	-131.24
601.78	251.73
601.983	614.22
602.185	-219.3
602.388	-12.46
602.59	237.39
602.792	-6.31
602.995	130.9
603.197	-137.38
603.399	315.22
603.601	212.82
603.804	-65.71
604.006	-164.01
604.208	69.46
604.41	-233.64
604.613	124.76
604.815	-196.78
605.017	618.32
605.219	-8.36
605.421	167.76
605.623	-147.62
605.826	311.12
606.028	366.42
606.23	-94.38
606.432	-43.18
606.634	522.06
606.836	368.46
607.038	-233.64
607.24	5.97
607.442	132.95
607.644	83.8
607.846	-24.75
608.048	-108.71
608.25	395.09
608.452	-18.6
608.654	-139.43
608.856	-282.79
609.058	34.64
609.26	210.77
609.462	-98.47
609.664	-63.66
609.866	524.11
610.067	325.46
610.269	20.31
610.471	-57.51
610.673	-8.36
610.875	229.2
611.077	-227.5
611.278	-39.08
611.48	167.76
611.682	546.64
611.884	69.46
612.085	-16.55
612.287	-125.1
612.489	255.83
612.69	-217.26
612.892	-20.65
613.094	335.7
613.295	327.5
613.497	-125.1
613.699	-170.15
613.9	464.72
614.102	292.69
614.304	-88.23
614.505	-196.78
614.707	104.28
614.908	192.34
615.11	-200.87
615.311	-90.28
615.513	278.35
615.714	333.65
615.916	-229.54
616.117	-22.7
616.319	81.75
616.52	264.02
616.722	-51.37
616.923	-104.62
617.124	366.42
617.326	212.82
617.527	63.32
617.729	175.95
617.93	302.93
618.131	339.79
618.333	1.88
618.534	-32.94
618.735	20.31
618.937	540.49
619.138	-217.26
619.339	-157.86
619.54	204.63
619.742	46.93
619.943	128.85
620.144	-45.23
620.345	335.7
620.546	380.75
620.748	-82.09
620.949	-84.14
621.15	214.87
621.351	204.63
621.552	-88.23
621.753	-184.49
621.954	-125.1
622.155	563.02
622.356	-147.62
622.558	77.65
622.759	171.86
622.96	653.13
623.161	-110.76
623.362	-39.08
623.563	147.28
623.764	180.05
623.965	-26.79
624.166	98.13
624.366	104.28
624.567	253.78
624.768	-290.98
624.969	-32.94
625.17	81.75
625.371	352.08
625.572	-14.51
625.773	-170.15
625.973	315.22
626.174	268.11
626.375	59.22
626.576	-30.89
626.777	323.41
626.977	704.33
627.178	-133.29
627.379	16.21
627.58	106.32
627.78	237.39
627.981	16.21
628.182	61.27
628.382	474.96
628.583	-172.2
628.784	-231.59
628.984	71.51
629.185	300.88
629.386	356.18
629.586	57.17
629.787	-151.72
629.987	323.41
630.188	233.3
630.388	-34.99
630.589	-102.57
630.79	669.52
630.99	175.95
631.191	-80.04
631.391	-10.41
631.591	380.75
631.792	560.97
631.992	85.84
632.193	-12.46
632.393	532.3
632.594	157.52
632.794	-53.42
632.994	-10.41
633.195	218.96
633.395	206.67
633.595	-184.49
633.796	155.47
633.996	91.99
634.196	503.63
634.397	-258.21
634.597	8.02
634.797	-90.28
634.997	601.93
635.198	186.19
635.398	-211.11
635.598	255.83
635.798	550.73
635.998	384.85
636.199	-24.75
636.399	83.8
636.599	-67.75
636.799	-143.53
636.999	241.49
637.199	264.02
637.399	368.46
637.599	-143.53
637.799	-16.55
637.999	98.13
638.199	601.93
638.399	-164.01
638.599	-98.47
638.799	280.4
638.999	653.13
639.199	153.43
639.399	40.79
639.599	481.1
639.799	14.17
639.999	-121
640.199	-86.19
640.399	249.68
640.599	270.16
640.799	10.07
640.998	149.33
641.198	419.66
641.398	245.59
641.598	67.41
641.798	-12.46
641.997	1007.43
642.197	237.39
642.397	132.95
642.597	32.6
642.796	286.54
642.996	481.1
643.196	85.84
643.395	-114.86
643.595	280.4
643.795	-209.06
643.994	116.56
644.194	69.46
644.394	345.94
644.593	270.16
644.793	-260.26
644.992	188.24
645.192	272.21
645.392	-143.53
645.591	53.08
645.791	8.02
645.99	358.22
646.19	96.08
646.389	12.12
646.589	-2.22
646.788	468.81
646.987	309.07
647.187	253.78
647.386	120.66
647.586	186.19
647.785	458.57
647.984	26.45
648.184	-20.65
648.383	81.75
648.582	108.37
648.782	12.12
648.981	126.8
649.18	-51.37
649.38	298.83
649.579	1.88
649.778	-67.75
649.977	448.33
650.177	257.87
650.376	-114.86
650.575	-34.99
650.774	618.32
650.973	46.93
651.173	-137.38
651.372	-24.75
651.571	241.49
651.77	438.09
651.969	-12.46
652.168	32.6
652.367	-92.33
652.566	388.94
652.765	-30.89
652.964	264.02
653.163	720.71
653.362	257.87
653.561	-47.27
653.76	-12.46
653.959	135
654.158	272.21
654.357	253.78
654.556	44.88
654.755	274.26
654.954	415.57
655.153	81.75
655.352	137.04
655.551	550.73
655.749	5.97
655.948	81.75
656.147	85.84
656.346	304.98
656.545	171.86
656.743	28.5
656.942	53.08
657.141	237.39
657.34	61.27
657.538	24.4
657.737	24.4
657.936	44.88
658.135	345.94
658.333	5.97
658.532	108.37
658.731	655.18
658.929	399.18
659.128	253.78
659.326	3.93
659.525	530.25
659.724	221.01
659.922	-260.26
660.121	-92.33
660.319	255.83
660.518	67.41
660.716	-139.43
660.915	-41.13
661.113	538.45
661.312	-82.09
661.51	91.99
661.709	3.93
661.907	522.06
662.105	593.74
662.304	-61.61
662.502	44.88
662.701	511.82
662.899	30.55
663.097	323.41
663.296	-147.62
663.494	497.49
663.692	618.32
663.891	1.88
664.089	-49.32
664.287	358.22
664.485	577.36
664.684	-112.81
664.882	59.22
665.08	278.35
665.278	345.94
665.476	-96.43
665.675	270.16
665.873	704.33
666.071	438.09
666.269	-22.7
666.467	198.48
666.665	218.96
666.863	206.67
667.061	126.8
667.259	-65.71
667.457	266.07
667.655	315.22
667.853	-55.47
668.051	130.9
668.249	-43.18
668.447	335.7
668.645	-57.51
668.843	190.29
669.041	360.27
669.239	175.95
669.437	73.56
669.635	231.25
669.833	221.01
670.031	329.55
670.229	116.56
670.426	73.56
670.624	180.05
670.822	-12.46
671.02	38.74
671.218	89.94
671.415	-57.51
671.613	311.12
671.811	124.76
672.009	16.21
672.206	376.66
672.404	300.88
672.602	218.96
672.799	69.46
672.997	354.13
673.195	425.81
673.392	122.71
673.59	-37.03
673.788	309.07
673.985	-63.66
674.183	100.18
674.38	14.17
674.578	485.2
674.775	14.17
674.973	-86.19
675.17	-16.55
675.368	593.74
675.565	323.41
675.763	-26.79
675.96	-61.61
676.158	560.97
676.355	253.78
676.553	44.88
676.75	12.12
676.947	292.69
677.145	163.67
677.342	71.51
677.539	184.15
677.737	276.31
677.934	689.99
678.131	223.06
678.329	-94.38
678.526	565.07
678.723	319.31
678.92	24.4
679.118	53.08
679.315	-41.13
679.512	556.88
679.709	65.36
679.906	165.71
680.104	477.01
680.301	237.39
680.498	22.36
680.695	-43.18
680.892	112.47
681.089	202.58
681.286	79.7
681.483	-47.27
681.68	444.24
681.877	493.39
682.075	57.17
682.272	304.98
682.469	292.69
682.665	94.04
682.862	-30.89
683.059	-88.23
683.256	339.79
683.453	278.35
683.65	169.81
683.847	116.56
684.044	233.3
684.241	30.55
684.438	139.09
684.635	-30.89
684.831	657.23
685.028	659.28
685.225	16.21
685.422	171.86
685.619	153.43
685.815	288.59
686.012	167.76
686.209	190.29
686.405	-24.75
686.602	466.77
686.799	-43.18
686.996	1.88
687.192	-26.79
687.389	757.58
687.586	30.55
687.782	143.19
687.979	663.37
688.175	503.63
688.372	139.09
688.568	104.28
688.765	75.6
688.962	626.51
689.158	163.67
689.355	-82.09
689.551	421.71
689.748	171.86
689.944	266.07
690.14	-45.23
690.337	462.67
690.533	135
690.73	274.26
690.926	91.99
691.123	470.86
691.319	208.72
691.515	-24.75
691.712	200.53
691.908	454.48
692.104	296.78
692.301	165.71
692.497	-43.18
692.693	425.81
692.889	417.61
693.086	204.63
693.282	-32.94
693.478	325.46
693.674	655.18
693.87	106.32
694.067	-37.03
694.263	395.09
694.459	257.87
694.655	282.45
694.851	276.31
695.047	413.52
695.243	427.85
695.439	163.67
695.635	-12.46
695.831	444.24
696.027	292.69
696.224	104.28
696.42	354.13
696.615	599.88
696.811	436.05
697.007	-112.81
697.203	161.62
697.399	415.57
697.595	517.97
697.791	-65.71
697.987	259.92
698.183	-39.08
698.379	180.05
698.575	96.08
698.77	94.04
698.966	462.67
699.162	624.46
699.358	161.62
699.554	225.11
699.749	397.14
699.945	546.64
700.141	116.56
700.337	208.72
700.532	249.68
700.728	122.71
700.924	38.74
701.119	-39.08
701.315	417.61
701.511	188.24
701.706	192.34
701.902	-88.23
702.097	288.59
702.293	376.66
702.489	237.39
702.684	40.79
702.88	196.43
703.075	180.05
703.271	73.56
703.466	-61.61
703.662	298.83
703.857	454.48
704.053	85.84
704.248	79.7
704.443	434
704.639	462.67
704.834	12.12
705.03	48.98
705.225	524.11
705.42	536.4
705.616	243.54
705.811	-0.17
706.006	249.68
706.202	143.19
706.397	178
706.592	-14.51
706.787	307.02
706.983	243.54
707.178	270.16
707.373	157.52
707.568	464.72
707.763	573.26
707.959	81.75
708.154	53.08
708.349	272.21
708.544	405.33
708.739	368.46
708.934	53.08
709.129	442.19
709.324	587.6
709.519	40.79
709.714	73.56
709.909	589.64
710.104	409.42
710.299	30.55
710.494	163.67
710.689	384.85
710.884	302.93
711.079	233.3
711.274	245.59
711.469	347.98
711.664	370.51
711.859	44.88
712.054	200.53
712.249	399.18
712.443	520.01
712.638	-8.36
712.833	85.84
713.028	268.11
713.223	233.3
713.417	331.6
713.612	-2.22
713.807	479.05
714.002	855.88
714.196	241.49
714.391	143.19
714.586	454.48
714.78	237.39
714.975	196.43
715.17	75.6
715.364	159.57
715.559	460.62
715.754	-123.05
715.948	65.36
716.143	798.54
716.337	411.47
716.532	352.08
716.726	46.93
716.921	356.18
717.115	714.57
717.31	-41.13
717.504	517.97
717.699	171.86
717.893	503.63
718.088	18.26
718.282	-34.99
718.476	290.64
718.671	376.66
718.865	48.98
719.059	89.94
719.254	483.15
719.448	501.58
719.642	438.09
719.837	-82.09
720.031	479.05
720.225	689.99
720.419	126.8
720.614	71.51
720.808	483.15
721.002	253.78
721.196	-12.46
721.39	135
721.585	696.14
721.779	429.9
721.973	186.19
722.167	14.17
722.361	364.37
722.555	571.21
722.749	124.76
722.943	65.36
723.137	71.51
723.331	382.8
723.525	67.41
723.719	151.38
723.913	534.35
724.107	714.57
724.301	-4.27
724.495	120.66
724.689	718.67
724.883	626.51
725.077	79.7
725.271	85.84
725.465	593.74
725.659	290.64
725.853	153.43
726.046	42.84
726.24	182.1
726.434	481.1
726.628	81.75
726.822	233.3
727.015	644.94
727.209	626.51
727.403	132.95
727.596	-8.36
727.79	464.72
727.984	483.15
728.177	114.52
728.371	175.95
728.565	530.25
728.758	118.61
728.952	-20.65
729.146	28.5
729.339	577.36
729.533	345.94
729.726	147.28
729.92	44.88
730.113	642.89
730.307	337.74
730.5	112.47
730.694	53.08
730.887	157.52
731.081	499.53
731.274	-22.7
731.468	180.05
731.661	257.87
731.854	229.2
732.048	91.99
732.241	12.12
732.435	186.19
732.628	294.74
732.821	229.2
733.014	16.21
733.208	69.46
733.401	528.21
733.594	139.09
733.788	112.47
733.981	638.8
734.174	339.79
734.367	139.09
734.56	225.11
734.754	462.67
734.947	376.66
735.14	169.81
735.333	151.38
735.526	466.77
735.719	165.71
735.912	48.98
736.105	130.9
736.298	352.08
736.491	282.45
736.684	16.21
736.877	75.6
737.07	401.23
737.263	524.11
737.456	104.28
737.649	-24.75
737.842	190.29
738.035	268.11
738.228	83.8
738.421	261.97
738.614	487.25
738.807	499.53
739	-67.75
739.192	20.31
739.385	460.62
739.578	497.49
739.771	300.88
739.964	163.67
740.156	370.51
740.349	261.97
740.542	225.11
740.735	22.36
740.927	14.17
741.12	132.95
741.313	48.98
741.505	206.67
741.698	270.16
741.891	431.95
742.083	221.01
742.276	135
742.468	315.22
742.661	225.11
742.854	186.19
743.046	83.8
743.239	618.32
743.431	317.26
743.624	237.39
743.816	-63.66
744.009	327.5
744.201	415.57
744.393	300.88
744.586	63.32
744.778	626.51
744.971	294.74
745.163	167.76
745.355	282.45
745.548	313.17
745.74	180.05
745.932	221.01
746.125	87.89
746.317	782.15
746.509	337.74
746.702	180.05
746.894	173.91
747.086	374.61
747.278	552.78
747.471	290.64
747.663	208.72
747.855	343.89
748.047	737.1
748.239	114.52
748.431	175.95
748.623	706.38
748.815	784.2
749.008	-41.13
749.2	-16.55
749.392	552.78
749.584	446.29
749.776	192.34
749.968	311.12
750.16	798.54
750.352	194.39
750.544	147.28
750.736	108.37
750.928	442.19
751.12	466.77
751.311	169.81
751.503	153.43
751.695	427.85
751.887	362.32
752.079	-166.06
752.271	51.03
752.463	1130.31
752.654	491.34
752.846	139.09
753.038	204.63
753.23	169.81
753.421	434
753.613	71.51
753.805	307.02
753.997	620.36
754.188	522.06
754.38	-12.46
754.572	186.19
754.763	286.54
754.955	335.7
755.146	157.52
755.338	245.59
755.53	436.05
755.721	235.35
755.913	26.45
756.104	40.79
756.296	315.22
756.487	579.4
756.679	69.46
756.87	126.8
757.062	233.3
757.253	501.58
757.445	106.32
757.636	221.01
757.827	343.89
758.019	900.94
758.21	38.74
758.401	32.6
758.593	831.3
758.784	644.94
758.975	38.74
759.167	-41.13
759.358	309.07
759.549	581.45
759.74	67.41
759.932	126.8
760.123	753.48
760.314	155.47
760.505	345.94
760.696	124.76
760.888	761.67
761.079	261.97
761.27	48.98
761.461	-41.13
761.652	747.34
761.843	286.54
762.034	163.67
762.225	376.66
762.416	214.87
762.607	341.84
762.798	184.15
762.989	12.12
763.18	1019.72
763.371	268.11
763.562	112.47
763.753	237.39
763.944	544.59
764.135	646.99
764.326	237.39
764.517	137.04
764.708	421.71
764.899	474.96
765.089	73.56
765.28	-106.67
765.471	333.65
765.662	503.63
765.853	147.28
766.043	-24.75
766.234	632.65
766.425	501.58
766.615	147.28
766.806	32.6
766.997	667.47
767.187	436.05
767.378	83.8
767.569	-108.71
767.759	462.67
767.95	378.7
768.141	216.91
768.331	36.69
768.522	235.35
768.712	477.01
768.903	118.61
769.093	100.18
769.284	749.39
769.474	380.75
769.665	26.45
769.855	-108.71
770.046	427.85
770.236	233.3
770.426	372.56
770.617	14.17
770.807	378.7
770.998	184.15
771.188	333.65
771.378	83.8
771.569	522.06
771.759	462.67
771.949	-8.36
772.139	-149.67
772.33	331.6
772.52	720.71
772.71	55.12
772.9	-24.75
773.09	745.29
773.281	626.51
773.471	65.36
773.661	110.42
773.851	634.7
774.041	270.16
774.231	94.04
774.421	257.87
774.611	675.66
774.802	350.03
774.992	204.63
775.182	-77.99
775.372	259.92
775.562	515.92
775.752	91.99
775.942	130.9
776.131	620.36
776.321	474.96
776.511	57.17
776.701	67.41
776.891	495.44
777.081	44.88
777.271	182.1
777.461	57.17
777.651	522.06
777.84	622.41
778.03	296.78
778.22	112.47
778.41	603.98
778.599	153.43
778.789	198.48
778.979	46.93
779.169	384.85
779.358	292.69
779.548	317.26
779.738	-80.04
779.927	444.24
780.117	34.64
780.307	98.13
780.496	-96.43
780.686	425.81
780.875	640.84
781.065	112.47
781.254	120.66
781.444	356.18
781.633	356.18
781.823	12.12
782.012	71.51
782.202	202.58
782.391	325.46
782.581	-18.6
782.77	225.11
782.96	421.71
783.149	204.63
783.338	79.7
783.528	-178.34
783.717	513.87
783.906	536.4
784.096	214.87
784.285	12.12
784.474	313.17
784.663	137.04
784.853	190.29
785.042	161.62
785.231	221.01
785.42	595.79
785.61	171.86
785.799	12.12
785.988	270.16
786.177	302.93
786.366	137.04
786.555	274.26
786.744	530.25
786.933	255.83
787.122	-37.03
787.312	8.02
787.501	196.43
787.69	425.81
787.879	22.36
788.068	-16.55
788.257	61.27
788.445	317.26
788.634	173.91
788.823	-63.66
789.012	1064.77
789.201	571.21
789.39	135
789.579	1.88
789.768	315.22
789.957	325.46
790.145	61.27
790.334	-102.57
790.523	278.35
790.712	302.93
790.9	100.18
791.089	-37.03
791.278	534.35
791.467	335.7
791.655	329.55
791.844	479.05
792.033	233.3
792.221	307.02
792.41	53.08
792.599	-59.56
792.787	452.43
792.976	507.73
793.164	10.07
793.353	91.99
793.541	421.71
793.73	458.57
793.918	87.89
794.107	91.99
794.295	280.4
794.484	337.74
794.672	184.15
794.861	128.85
795.049	489.29
795.238	718.67
795.426	-67.75
795.614	192.34
795.803	513.87
795.991	638.8
796.179	112.47
796.368	40.79
796.556	550.73
796.744	14.17
796.932	53.08
797.121	61.27
797.309	257.87
797.497	575.31
797.685	163.67
797.874	57.17
798.062	302.93
798.25	644.94
798.438	5.97
798.626	151.38
798.814	352.08
799.002	841.54
799.19	280.4
799.378	223.06
799.566	679.75
799.755	634.7
799.943	278.35
800.131	20.31
800.318	343.89
800.506	444.24
800.694	46.93
800.882	180.05
801.07	393.04
801.258	282.45
801.446	61.27
801.634	73.56
801.822	264.02
802.01	321.36
802.197	20.31
802.385	251.73
802.573	390.99
802.761	116.56
802.949	112.47
803.136	18.26
803.324	536.4
803.512	362.32
803.699	169.81
803.887	-32.94
804.075	632.65
804.262	139.09
804.45	14.17
804.638	163.67
804.825	102.23
805.013	159.57
805.201	137.04
805.388	3.93
805.576	284.5
805.763	733
805.951	-2.22
806.138	280.4
806.326	735.05
806.513	434
806.701	126.8
806.888	-14.51
807.075	288.59
807.263	630.6
807.45	-82.09
807.638	261.97
807.825	796.49
808.012	483.15
808.2	175.95
808.387	311.12
808.574	468.81
808.761	636.75
808.949	42.84
809.136	73.56
809.323	241.49
809.51	266.07
809.698	427.85
809.885	249.68
810.072	397.14
810.259	536.4
810.446	116.56
810.633	94.04
810.82	581.45
811.008	601.93
811.195	278.35
811.382	116.56
811.569	319.31
811.756	108.37
811.943	151.38
812.13	73.56
812.317	208.72
812.504	202.58
812.691	163.67
812.878	171.86
813.064	573.26
813.251	358.22
813.438	8.02
813.625	278.35
813.812	294.74
813.999	212.82
814.186	192.34
814.372	151.38
814.559	300.88
814.746	667.47
814.933	67.41
815.12	294.74
815.306	239.44
815.493	143.19
815.68	69.46
815.866	163.67
816.053	620.36
816.24	849.74
816.426	243.54
816.613	-92.33
816.799	434
816.986	606.03
817.173	40.79
817.359	98.13
817.546	436.05
817.732	1.88
817.919	-123.05
818.105	188.24
818.292	282.45
818.478	448.33
818.665	294.74
818.851	83.8
819.037	872.26
819.224	380.75
819.41	141.14
819.597	145.24
819.783	628.56
819.969	417.61
820.156	198.48
820.342	22.36
820.528	997.19
820.714	251.73
820.901	302.93
821.087	108.37
821.273	876.36
821.459	300.88
821.646	-28.84
821.832	16.21
822.018	440.14
822.204	384.85
822.39	124.76
822.576	51.03
822.762	548.68
822.948	376.66
823.134	255.83
823.32	157.52
823.507	114.52
823.693	393.04
823.879	460.62
824.065	108.37
824.25	384.85
824.436	120.66
824.622	147.28
824.808	65.36
824.994	237.39
825.18	163.67
825.366	-51.37
825.552	79.7
825.738	270.16
825.923	589.64
826.109	290.64
826.295	139.09
826.481	218.96
826.667	229.2
826.852	204.63
827.038	18.26
827.224	616.27
827.409	767.82
827.595	18.26
827.781	225.11
827.966	470.86
828.152	534.35
828.338	182.1
828.523	100.18
828.709	126.8
828.894	720.71
829.08	194.39
829.266	48.98
829.451	116.56
829.637	417.61
829.822	202.58
830.008	61.27
830.193	554.83
830.378	722.76
830.564	206.67
830.749	38.74
830.935	341.84
831.12	511.82
831.305	42.84
831.491	221.01
831.676	71.51
831.861	610.12
832.047	118.61
832.232	30.55
832.417	601.93
832.602	321.36
832.788	85.84
832.973	32.6
833.158	298.83
833.343	292.69
833.528	247.63
833.714	233.3
833.899	499.53
834.084	859.98
834.269	274.26
834.454	130.9
834.639	515.92
834.824	360.27
835.009	319.31
835.194	247.63
835.379	536.4
835.564	718.67
835.749	266.07
835.934	22.36
836.119	515.92
836.304	358.22
836.489	163.67
836.674	290.64
836.859	141.14
837.044	636.75
837.228	112.47
837.413	22.36
837.598	401.23
837.783	563.02
837.968	118.61
838.152	48.98
838.337	-18.6
838.522	618.32
838.707	575.31
838.891	356.18
839.076	536.4
839.261	550.73
839.445	184.15
839.63	184.15
839.815	796.49
839.999	233.3
840.184	89.94
840.368	104.28
840.553	517.97
840.737	546.64
840.922	65.36
841.106	73.56
841.291	63.32
841.475	425.81
841.66	57.17
841.844	180.05
842.029	1066.82
842.213	-14.51
842.397	171.86
842.582	-12.46
842.766	548.68
842.951	442.19
843.135	178
843.319	208.72
843.504	390.99
843.688	567.12
843.872	-2.22
844.056	-6.31
844.241	431.95
844.425	261.97
844.609	241.49
844.793	-53.42
844.977	565.07
845.161	431.95
845.346	8.02
845.53	159.57
845.714	243.54
845.898	618.32
846.082	10.07
846.266	128.85
846.45	407.38
846.634	427.85
846.818	124.76
847.002	294.74
847.186	507.73
847.37	96.08
847.554	-6.31
847.738	171.86
847.922	452.43
848.106	343.89
848.29	-45.23
848.473	116.56
848.657	470.86
848.841	356.18
849.025	216.91
849.209	-102.57
849.392	550.73
849.576	221.01
849.76	-71.85
849.944	182.1
850.127	679.75
850.311	55.12
850.495	-2.22
850.678	-12.46
850.862	595.79
851.046	743.24
851.229	413.52
851.413	61.27
851.596	386.9
851.78	407.38
851.964	329.55
852.147	161.62
852.331	1093.44
852.514	630.6
852.698	196.43
852.881	22.36
853.065	520.01
853.248	331.6
853.431	259.92
853.615	163.67
853.798	794.44
853.982	356.18
854.165	264.02
854.348	98.13
854.532	145.24
854.715	212.82
854.898	112.47
855.081	147.28
855.265	665.42
855.448	728.91
855.631	48.98
855.814	32.6
855.997	642.89
856.181	364.37
856.364	196.43
856.547	-86.19
856.73	378.7
856.913	368.46
857.096	-61.61
857.279	159.57
857.462	208.72
857.645	606.03
857.828	200.53
858.011	317.26
858.194	245.59
858.377	456.53
858.56	81.75
858.743	163.67
858.926	153.43
859.109	446.29
859.292	48.98
859.475	51.03
859.658	622.41
859.841	501.58
860.023	32.6
860.206	-14.51
860.389	364.37
860.572	704.33
860.755	192.34
860.937	112.47
861.12	345.94
861.303	243.54
861.486	153.43
861.668	128.85
861.851	601.93
862.034	444.24
862.216	233.3
862.399	-45.23
862.581	575.31
862.764	704.33
862.947	184.15
863.129	20.31
863.312	77.65
863.494	694.09
863.677	425.81
863.859	-59.56
864.042	507.73
864.224	755.53
864.406	200.53
864.589	10.07
864.771	532.3
864.954	116.56
865.136	-2.22
865.318	-61.61
865.501	501.58
865.683	-51.37
865.865	130.9
866.048	161.62
866.23	350.03
866.412	335.7
866.594	-2.22
866.777	206.67
866.959	581.45
867.141	171.86
867.323	290.64
867.505	214.87
867.687	354.13
867.869	311.12
868.052	161.62
868.234	-6.31
868.416	417.61
868.598	575.31
868.78	143.19
868.962	65.36
869.144	597.84
869.326	567.12
869.508	135
869.69	16.21
869.872	196.43
870.054	606.03
870.236	-18.6
870.417	51.03
870.599	280.4
870.781	712.52
870.963	194.39
871.145	22.36
871.327	55.12
871.508	612.17
871.69	83.8
871.872	100.18
872.054	372.56
872.235	462.67
872.417	157.52
872.599	71.51
872.78	714.57
872.962	298.83
873.144	-41.13
873.325	87.89
873.507	679.75
873.689	415.57
873.87	-71.85
874.052	157.52
874.233	296.78
874.415	565.07
874.596	69.46
874.778	5.97
874.959	397.14
875.141	585.55
875.322	139.09
875.503	-30.89
875.685	411.47
875.866	-12.46
876.048	26.45
876.229	-32.94
876.41	245.59
876.592	522.06
876.773	14.17
876.954	-112.81
877.136	667.47
877.317	280.4
877.498	-106.67
877.679	91.99
877.86	388.94
878.042	329.55
878.223	79.7
878.404	313.17
878.585	522.06
878.766	681.8
878.947	399.18
879.128	311.12
879.309	485.2
879.49	589.64
879.672	210.77
879.853	182.1
880.034	167.76
880.215	298.83
880.396	94.04
880.576	61.27
880.757	151.38
880.938	624.46
881.119	-16.55
881.3	38.74
881.481	190.29
881.662	1193.8
881.843	-8.36
882.023	-108.71
882.204	327.5
882.385	286.54
882.566	96.08
882.747	-53.42
882.927	307.02
883.108	440.14
883.289	77.65
883.469	311.12
883.65	243.54
883.831	370.51
884.011	249.68
884.192	53.08
884.373	505.68
884.553	446.29
884.734	204.63
884.914	345.94
885.095	1052.49
885.275	675.66
885.456	362.32
885.636	-37.03
885.817	288.59
885.997	317.26
886.178	-16.55
886.358	141.14
886.538	329.55
886.719	1253.19
886.899	83.8
887.08	143.19
887.26	520.01
887.44	110.42
887.621	28.5
887.801	294.74
887.981	917.32
888.161	534.35
888.342	112.47
888.522	122.71
888.702	671.56
888.882	692.04
889.062	282.45
889.242	-65.71
889.423	712.52
889.603	450.38
889.783	98.13
889.963	147.28
890.143	483.15
890.323	579.4
890.503	83.8
890.683	145.24
890.863	347.98
891.043	434
891.223	151.38
891.403	339.79
891.583	264.02
891.763	483.15
891.943	161.62
892.122	20.31
892.302	352.08
892.482	315.22
892.662	210.77
892.842	120.66
893.022	520.01
893.201	251.73
893.381	284.5
893.561	178
893.741	536.4
893.92	499.53
894.1	135
894.28	214.87
894.459	524.11
894.639	401.23
894.819	28.5
894.998	249.68
895.178	444.24
895.357	479.05
895.537	155.47
895.716	61.27
895.896	241.49
896.075	786.25
896.255	126.8
896.434	-59.56
896.614	497.49
896.793	675.66
896.973	227.15
897.152	268.11
897.331	487.25
897.511	477.01
897.69	-8.36
897.87	145.24
898.049	460.62
898.228	397.14
898.407	366.42
898.587	245.59
898.766	249.68
898.945	524.11
899.124	368.46
899.304	309.07
899.483	427.85
899.662	849.74
899.841	77.65
900.02	147.28
900.199	606.03
900.378	331.6
900.557	-0.17
900.737	-6.31
900.916	483.15
901.095	528.21
901.274	335.7
901.453	51.03
901.632	147.28
901.811	255.83
901.989	98.13
902.168	110.42
902.347	581.45
902.526	249.68
902.705	163.67
902.884	237.39
903.063	616.27
903.242	726.86
903.42	46.93
903.599	276.31
903.778	649.04
903.957	718.67
904.135	257.87
904.314	264.02
904.493	395.09
904.672	573.26
904.85	243.54
905.029	159.57
905.207	550.73
905.386	1101.64
905.565	85.84
905.743	120.66
905.922	245.59
906.1	540.49
906.279	145.24
906.457	61.27
906.636	276.31
906.814	286.54
906.993	163.67
907.171	69.46
907.35	581.45
907.528	563.02
907.707	325.46
907.885	126.8
908.063	786.25
908.242	218.96
908.42	96.08
908.598	3.93
908.777	452.43
908.955	259.92
909.133	409.42
909.311	-20.65
909.49	280.4
909.668	425.81
909.846	128.85
910.024	-100.52
910.202	343.89
910.38	448.33
910.559	28.5
910.737	32.6
910.915	423.76
911.093	444.24
911.271	171.86
911.449	370.51
911.627	446.29
911.805	907.08
911.983	104.28
912.161	83.8
912.339	499.53
912.517	579.4
912.695	292.69
912.872	175.95
913.05	178
913.228	376.66
913.406	223.06
913.584	65.36
913.762	603.98
913.939	239.44
914.117	139.09
914.295	1.88
914.473	565.07
914.65	415.57
914.828	173.91
915.006	75.6
915.184	157.52
915.361	534.35
915.539	325.46
915.716	393.04
915.894	440.14
916.072	542.54
916.249	325.46
916.427	341.84
916.604	171.86
916.782	642.89
916.959	81.75
917.137	114.52
917.314	474.96
917.492	483.15
917.669	317.26
917.847	294.74
918.024	493.39
918.201	268.11
918.379	212.82
918.556	147.28
918.733	563.02
918.911	296.78
919.088	321.36
919.265	118.61
919.442	470.86
919.62	304.98
919.797	67.41
919.974	8.02
920.151	384.85
920.328	397.14
920.506	124.76
920.683	352.08
920.86	106.32
921.037	182.1
921.214	317.26
921.391	196.43
921.568	515.92
921.745	204.63
921.922	98.13
922.099	98.13
922.276	653.13
922.453	458.57
922.63	77.65
922.807	370.51
922.984	321.36
923.161	180.05
923.338	204.63
923.514	53.08
923.691	372.56
923.868	479.05
924.045	112.47
924.222	38.74
924.399	438.09
924.575	585.55
924.752	194.39
924.929	227.15
925.105	485.2
925.282	196.43
925.459	155.47
925.635	163.67
925.812	364.37
925.989	167.76
926.165	247.63
926.342	12.12
926.518	118.61
926.695	350.03
926.871	132.95
927.048	53.08
927.224	483.15
927.401	249.68
927.577	196.43
927.754	-49.32
927.93	606.03
928.107	446.29
928.283	59.22
928.459	194.39
928.636	485.2
928.812	270.16
928.988	96.08
929.165	28.5
929.341	276.31
929.517	354.13
929.693	380.75
929.87	-125.1
930.046	456.53
930.222	270.16
930.398	112.47
930.574	200.53
930.751	276.31
930.927	175.95
931.103	124.76
931.279	139.09
931.455	112.47
931.631	393.04
931.807	-18.6
931.983	-77.99
932.159	12.12
932.335	325.46
932.511	141.14
932.687	20.31
932.863	384.85
933.039	384.85
933.215	-73.9
933.391	-116.9
933.566	245.59
933.742	298.83
933.918	149.33
934.094	-53.42
934.27	268.11
934.445	448.33
934.621	206.67
934.797	26.45
934.973	544.59
935.148	450.38
935.324	61.27
935.5	-137.38
935.675	534.35
935.851	331.6
936.027	65.36
936.202	210.77
936.378	364.37
936.553	200.53
936.729	454.48
936.904	36.69
937.08	53.08
937.255	171.86
937.431	26.45
937.606	-73.9
937.782	200.53
937.957	288.59
938.133	221.01
938.308	-6.31
938.483	321.36
938.659	8.02
938.834	169.81
939.009	-6.31
939.185	180.05
939.36	108.37
939.535	-315.56
939.71	153.43
939.886	501.58
940.061	331.6
940.236	141.14
940.411	169.81
940.586	319.31
940.761	403.28
940.937	65.36
941.112	-51.37
941.287	339.79
941.462	272.21
941.637	-59.56
941.812	71.51
941.987	380.75
942.162	286.54
942.337	53.08
942.512	98.13
942.687	444.24
942.862	409.42
943.037	-86.19
943.212	-221.35
943.386	132.95
943.561	337.74
943.736	182.1
943.911	352.08
944.086	247.63
944.26	274.26
944.435	-20.65
944.61	122.71
944.785	575.31
944.959	634.7
945.134	100.18
945.309	51.03
945.483	24.4
945.658	481.1
945.833	-209.06
946.007	-123.05
946.182	585.55
946.357	24.4
946.531	-26.79
946.706	-55.47
946.88	-110.76
947.055	264.02
947.229	63.32
947.404	20.31
947.578	444.24
947.752	116.56
947.927	-116.9
948.101	-157.86
948.276	175.95
948.45	216.91
948.624	171.86
948.799	-69.8
948.973	266.07
949.147	-129.19
949.321	-16.55
949.496	-57.51
949.67	405.33
949.844	155.47
950.018	-4.27
950.193	32.6
950.367	646.99
950.541	96.08
950.715	73.56
950.889	186.19
951.063	155.47
951.237	374.61
951.411	-282.79
951.585	-155.82
951.759	261.97
951.933	208.72
952.107	-59.56
952.281	122.71
952.455	560.97
952.629	358.22
952.803	-110.76
952.977	-45.23
953.151	380.75
953.325	315.22
953.499	155.47
953.672	-110.76
953.846	-75.95
954.02	69.46
954.194	-84.14
954.368	-45.23
954.541	300.88
954.715	87.89
954.889	18.26
955.062	-110.76
955.236	247.63
955.41	104.28
955.583	36.69
955.757	-186.54
955.93	14.17
956.104	-118.95
956.278	-4.27
956.451	46.93
956.625	241.49
956.798	565.07
956.972	202.58
957.145	-151.72
957.319	175.95
957.492	155.47
957.665	110.42
957.839	-41.13
958.012	190.29
958.185	24.4
958.359	24.4
958.532	169.81
958.705	331.6
958.879	266.07
959.052	-57.51
959.225	-219.3
959.398	153.43
959.572	270.16
959.745	-47.27
959.918	-12.46
960.091	46.93
960.264	278.35
960.438	-63.66
960.611	-168.1
960.784	362.32
960.957	38.74
961.13	300.88
961.303	-84.14
961.476	118.61
961.649	337.74
961.822	-221.35
961.995	-16.55
962.168	309.07
962.341	188.24
962.514	-10.41
962.686	-139.43
962.859	221.01
963.032	319.31
963.205	-157.86
963.378	-190.63
963.551	274.26
963.723	270.16
963.896	46.93
964.069	208.72
964.242	141.14
964.414	315.22
964.587	-18.6
964.76	87.89
964.932	251.73
965.105	106.32
965.278	-108.71
965.45	-63.66
965.623	112.47
965.795	278.35
965.968	-14.51
966.14	-59.56
966.313	137.04
966.485	182.1
966.658	-6.31
966.83	-63.66
967.003	413.52
967.175	360.27
967.348	-98.47
967.52	-49.32
967.692	466.77
967.865	239.44
968.037	-10.41
968.209	368.46
968.382	188.24
968.554	415.57
968.726	-14.51
968.898	-32.94
969.071	233.3
969.243	247.63
969.415	36.69
969.587	87.89
969.759	724.81
969.932	431.95
970.104	18.26
970.276	-231.59
970.448	128.85
970.62	85.84
970.792	8.02
970.964	44.88
971.136	644.94
971.308	259.92
971.48	-121
971.652	-84.14
971.824	552.78
971.996	122.71
972.168	46.93
972.339	-24.75
972.511	337.74
972.683	118.61
972.855	216.91
973.027	-24.75
973.199	135
973.37	339.79
973.542	100.18
973.714	63.32
973.886	274.26
974.057	438.09
974.229	-80.04
974.401	-53.42
974.572	-67.75
974.744	-186.54
974.915	-184.49
975.087	-69.8
975.259	489.29
975.43	65.36
975.602	44.88
975.773	-147.62
975.945	-131.24
976.116	315.22
976.288	-137.38
976.459	167.76
976.63	59.22
976.802	298.83
976.973	22.36
977.145	69.46
977.316	540.49
977.487	542.54
977.659	132.95
977.83	10.07
978.001	491.34
978.172	163.67
978.344	-67.75
978.515	28.5
978.686	104.28
978.857	436.05
979.028	1.88
979.2	-123.05
979.371	481.1
979.542	147.28
979.713	153.43
979.884	-383.14
980.055	48.98
980.226	135
980.397	-2.22
980.568	-153.77
980.739	384.85
980.91	157.52
981.081	120.66
981.252	-49.32
981.423	325.46
981.594	448.33
981.765	-137.38
981.936	102.23
982.106	141.14
982.277	409.42
982.448	-86.19
982.619	96.08
982.79	71.51
982.96	382.8
983.131	38.74
983.302	-159.91
983.472	89.94
983.643	196.43
983.814	81.75
983.984	-61.61
984.155	79.7
984.326	307.02
984.496	34.64
984.667	-135.34
984.837	30.55
985.008	374.61
985.178	130.9
985.349	-18.6
985.519	173.91
985.69	-49.32
985.86	-12.46
986.031	-69.8
986.201	239.44
986.371	286.54
986.542	-172.2
986.712	-211.11
986.882	302.93
987.053	212.82
987.223	-118.95
987.393	48.98
987.563	-0.17
987.734	339.79
987.904	231.25
988.074	-77.99
988.244	300.88
988.414	-4.27
988.585	-61.61
988.755	85.84
988.925	214.87
989.095	520.01
989.265	-106.67
989.435	67.41
989.605	315.22
989.775	288.59
989.945	175.95
990.115	-200.87
990.285	112.47
990.455	268.11
990.625	40.79
990.795	-114.86
990.965	491.34
991.134	3.93
991.304	-80.04
991.474	-157.86
991.644	286.54
991.814	528.21
991.984	-168.1
992.153	-108.71
992.323	139.09
992.493	180.05
992.662	-299.17
992.832	116.56
993.002	206.67
993.171	190.29
993.341	-231.59
993.511	30.55
993.68	16.21
993.85	259.92
994.019	-204.97
994.189	-174.25
994.358	157.52
994.528	53.08
994.697	-297.13
994.867	-168.1
995.036	304.98
995.206	118.61
995.375	-135.34
995.544	3.93
995.714	169.81
995.883	73.56
996.052	55.12
996.222	-329.89
996.391	634.7
996.56	241.49
996.73	-161.96
996.899	-225.45
997.068	491.34
997.237	139.09
997.406	-155.82
997.576	-188.58
997.745	137.04
997.914	188.24
998.083	-276.65
998.252	-106.67
998.421	157.52
998.59	-49.32
998.759	-217.26
998.928	-338.09
999.097	438.09
999.266	208.72
999.435	1.88
999.604	-276.65
999.773	597.84
999.942	102.23
1000.111	-331.94
1000.28	-303.27
1000.448	-151.72
1000.617	-114.86
1000.786	8.02
1000.955	-258.21
1001.124	147.28
1001.292	724.81
1001.461	-176.3
1001.63	-229.54
1001.798	503.63
1001.967	360.27
1002.136	-278.69
1002.304	-211.11
1002.473	180.05
1002.642	173.91
1002.81	-106.67
1002.979	-184.49
1003.147	323.41
1003.316	642.89
1003.484	-178.34
1003.653	-209.06
1003.821	386.9
1003.99	3.93
1004.158	-57.51
1004.327	-86.19
1004.495	257.87
1004.663	-16.55
1004.832	-53.42
1005	-329.89
1005.168	149.33
1005.337	214.87
1005.505	-313.51
1005.673	71.51
1005.842	239.44
1006.01	264.02
1006.178	-164.01
1006.346	-258.21
1006.514	204.63
1006.683	390.99
1006.851	-272.55
1007.019	-301.22
1007.187	-127.14
1007.355	-311.46
1007.523	-364.71
1007.691	-288.93
1007.859	-151.72
1008.027	325.46
1008.195	-182.44
1008.363	-309.41
1008.531	300.88
1008.699	-59.56
1008.867	-221.35
1009.035	-309.41
1009.203	397.14
1009.37	135
1009.538	-106.67
1009.706	186.19
1009.874	178
1010.042	-59.56
1010.209	-299.17
1010.377	-200.87
1010.545	292.69
1010.713	145.24
1010.88	-266.41
1011.048	-143.53
1011.216	-14.51
1011.383	401.23
1011.551	-161.96
1011.718	-280.74
1011.886	239.44
1012.054	94.04
1012.221	-266.41
1012.389	-237.74
1012.556	106.32
1012.724	470.86
1012.891	-141.48
1013.058	-358.57
1013.226	315.22
1013.393	315.22
1013.561	-237.74
1013.728	-325.8
1013.895	247.63
1014.063	202.58
1014.23	-262.31
1014.397	-190.63
1014.565	307.02
1014.732	73.56
1014.899	-288.93
1015.066	-295.08
1015.233	145.24
1015.401	249.68
1015.568	-176.3
1015.735	20.31
1015.902	143.19
1016.069	151.38
1016.236	-211.11
1016.403	-295.08
1016.57	-73.9
1016.737	458.57
1016.904	-204.97
1017.071	-278.69
1017.238	-49.32
1017.405	356.18
1017.572	-180.39
1017.739	34.64
1017.906	184.15
1018.073	329.55
1018.24	-276.65
1018.407	-102.57
1018.573	317.26
1018.74	61.27
1018.907	-110.76
1019.074	-346.28
1019.241	298.83
1019.407	116.56
1019.574	-209.06
1019.741	-315.56
1019.907	194.39
1020.074	208.72
1020.241	-364.71
1020.407	-274.6
1020.574	229.2
1020.74	218.96
1020.907	-221.35
1021.073	-241.83
1021.24	593.74
1021.406	495.44
1021.573	-250.02
1021.739	-233.64
1021.906	294.74
1022.072	100.18
1022.239	-155.82
1022.405	-223.4
1022.571	122.71
1022.738	-88.23
1022.904	-323.75
1023.07	-237.74
1023.237	227.15
1023.403	397.14
1023.569	-258.21
1023.735	-174.25
1023.902	261.97
1024.068	214.87
1024.234	-270.5
1024.4	-278.69
1024.566	216.91
1024.732	259.92
1024.898	-229.54
1025.065	-327.85
1025.231	401.23
1025.397	24.4
1025.563	-225.45
1025.729	-293.03
1025.895	-280.74
1026.061	-121
1026.227	-329.89
1026.392	-235.69
1026.558	331.6
1026.724	206.67
1026.89	-207.02
1027.056	-135.34
1027.222	266.07
1027.388	8.02
1027.553	-178.34
1027.719	-194.73
1027.885	448.33
1028.051	270.16
1028.216	-350.37
1028.382	-247.97
1028.548	247.63
1028.713	89.94
1028.879	-295.08
1029.045	-100.52
1029.21	368.46
1029.376	419.66
1029.541	-106.67
1029.707	-225.45
1029.873	319.31
1030.038	315.22
1030.204	-180.39
1030.369	-188.58
1030.534	313.17
1030.7	10.07
1030.865	-180.39
1031.031	-250.02
1031.196	200.53
1031.361	225.11
1031.527	-184.49
1031.692	-225.45
1031.857	-241.83
1032.023	319.31
1032.188	-286.89
1032.353	-172.2
1032.518	499.53
1032.684	245.59
1032.849	-321.7
1033.014	-260.26
1033.179	309.07
1033.344	180.05
1033.509	-53.42
1033.674	-307.37
1033.839	415.57
1034.004	337.74
1034.17	-229.54
1034.335	-268.45
1034.5	-8.36
1034.664	-18.6
1034.829	-250.02
1034.994	-213.16
1035.159	186.19
1035.324	153.43
1035.489	-213.16
1035.654	-295.08
1035.819	388.94
1035.984	243.54
1036.148	-106.67
1036.313	-164.01
1036.478	372.56
1036.643	135
1036.807	-293.03
1036.972	-260.26
1037.137	499.53
1037.301	229.2
1037.466	-379.04
1037.631	-98.47
1037.795	360.27
1037.96	208.72
1038.124	55.12
1038.289	-293.03
1038.454	231.25
1038.618	231.25
1038.783	-182.44
1038.947	-65.71
1039.111	270.16
1039.276	59.22
1039.44	-159.91
1039.605	282.45
1039.769	63.32
1039.933	194.39
1040.098	-77.99
1040.262	24.4
1040.426	397.14
1040.591	335.7
1040.755	-262.31
1040.919	-139.43
1041.083	192.34
1041.248	173.91
1041.412	-254.12
1041.576	-317.61
1041.74	100.18
1041.904	347.98
1042.068	-239.78
1042.232	-196.78
1042.397	409.42
1042.561	192.34
1042.725	-413.86
1042.889	-4.27
1043.053	358.22
1043.217	268.11
1043.381	-69.8
1043.544	-333.99
1043.708	429.9
1043.872	-49.32
1044.036	-313.51
1044.2	-329.89
1044.364	388.94
1044.528	565.07
1044.691	2815.79
1044.855	-237.74
1045.019	372.56
1045.183	325.46
1045.346	-180.39
1045.51	-215.21
1045.674	276.31
1045.837	284.5
1046.001	-164.01
1046.165	-192.68
1046.328	630.6
1046.492	307.02
1046.655	-2.22
1046.819	-166.06
1046.983	73.56
1047.146	304.98
1047.31	-67.75
1047.473	-346.28
1047.636	204.63
1047.8	-37.03
1047.963	-180.39
1048.127	-252.07
1048.29	-14.51
