Data from Ink_Intensity_USB4F045381__173__00173.txt Node

Date: Mon Jul 17 11:37:27 EDT 2023
User: mmckonesweet
Spectrometer: USB4F04538
Trigger mode: 4
Integration Time (sec): 9.000000E-1
Scans to average: 1
Electric dark correction enabled: true
Nonlinearity correction enabled: false
Boxcar width: 0
XAxis mode: Wavelengths
Number of Pixels in Spectrum: 3648
>>>>>Begin Spectral Data<<<<<
345.52	-993.44
345.736	-993.44
345.952	-993.44
346.168	-979.1
346.384	-989.34
346.6	-116.9
346.816	-286.89
347.032	-211.11
347.248	243.54
347.464	-202.92
347.68	-147.62
347.896	157.52
348.112	345.94
348.328	-69.8
348.544	-104.62
348.76	108.37
348.975	284.5
349.191	-229.54
349.407	-92.33
349.623	-2.22
349.839	-59.56
350.055	-137.38
350.27	-14.51
350.486	194.39
350.702	388.94
350.918	304.98
351.133	-106.67
351.349	79.7
351.565	440.14
351.781	-200.87
351.996	-43.18
352.212	196.43
352.428	-141.48
352.644	-213.16
352.859	-186.54
353.075	231.25
353.291	94.04
353.506	-53.42
353.722	-227.5
353.938	-6.31
354.153	470.86
354.369	120.66
354.584	-164.01
354.8	247.63
355.016	-278.69
355.231	-190.63
355.447	-26.79
355.662	69.46
355.878	806.73
356.093	-344.23
356.309	42.84
356.524	-297.13
356.74	282.45
356.955	-268.45
357.171	-41.13
357.386	137.04
357.602	-178.34
357.817	-106.67
358.033	-172.2
358.248	343.89
358.464	208.72
358.679	-147.62
358.895	-221.35
359.11	-12.46
359.325	280.4
359.541	51.03
359.756	26.45
359.972	-288.93
360.187	190.29
360.402	-194.73
360.618	-112.81
360.833	964.42
361.048	218.96
361.264	-188.58
361.479	-30.89
361.694	-6.31
361.909	165.71
362.125	-247.97
362.34	-131.24
362.555	227.15
362.77	81.75
362.986	-264.36
363.201	-174.25
363.416	178
363.631	10.07
363.847	-204.97
364.062	-239.78
364.277	249.68
364.492	137.04
364.707	-155.82
364.922	-456.87
365.138	298.83
365.353	294.74
365.568	-288.93
365.783	-149.67
365.998	14.17
366.213	583.5
366.428	-243.88
366.643	32.6
366.858	231.25
367.073	298.83
367.288	-131.24
367.503	-239.78
367.718	42.84
367.933	409.42
368.148	-329.89
368.363	-108.71
368.578	14.17
368.793	477.01
369.008	-121
369.223	-178.34
369.438	223.06
369.653	376.66
369.868	-239.78
370.083	-202.92
370.298	149.33
370.513	454.48
370.728	-2.22
370.943	-174.25
371.157	-192.68
371.372	522.06
371.587	-293.03
371.802	-301.22
372.017	28.5
372.232	370.51
372.446	-100.52
372.661	-290.98
372.876	184.15
373.091	178
373.306	-80.04
373.52	-268.45
373.735	-133.29
373.95	403.28
374.165	-77.99
374.379	-149.67
374.594	-129.19
374.809	55.12
375.023	77.65
375.238	-202.92
375.453	266.07
375.667	-229.54
375.882	-143.53
376.097	-231.59
376.311	3.93
376.526	38.74
376.741	-164.01
376.955	141.14
377.17	565.07
377.384	485.2
377.599	-34.99
377.813	-354.47
378.028	628.56
378.242	141.14
378.457	-108.71
378.672	-348.33
378.886	89.94
379.101	-55.47
379.315	-383.14
379.53	-143.53
379.744	249.68
379.958	204.63
380.173	-217.26
380.387	-196.78
380.602	186.19
380.816	-63.66
381.031	-204.97
381.245	-209.06
381.459	153.43
381.674	2715.44
381.888	-241.83
382.103	116.56
382.317	-207.02
382.531	452.43
382.746	-137.38
382.96	-182.44
383.174	-110.76
383.388	358.22
383.603	12.12
383.817	-327.85
384.031	184.15
384.246	520.01
384.46	-37.03
384.674	288.59
384.888	22.36
385.103	36.69
385.317	-264.36
385.531	-96.43
385.745	423.76
385.959	235.35
386.174	-215.21
386.388	-209.06
386.602	-75.95
386.816	-112.81
387.03	-65.71
387.244	-110.76
387.458	126.8
387.672	337.74
387.887	-348.33
388.101	-219.3
388.315	356.18
388.529	118.61
388.743	-153.77
388.957	-258.21
389.171	274.26
389.385	-176.3
389.599	-186.54
389.813	10.07
390.027	208.72
390.241	603.98
390.455	-170.15
390.669	-137.38
390.883	-28.84
391.097	362.32
391.311	-41.13
391.525	-219.3
391.738	175.95
391.952	239.44
392.166	-71.85
392.38	-358.57
392.594	227.15
392.808	290.64
393.022	-114.86
393.236	-16.55
393.449	237.39
393.663	182.1
393.877	-290.98
394.091	-129.19
394.305	-100.52
394.518	-100.52
394.732	-288.93
394.946	-166.06
395.16	442.19
395.373	143.19
395.587	-186.54
395.801	-170.15
396.015	317.26
396.228	200.53
396.442	-282.79
396.656	-362.66
396.869	350.03
397.083	501.58
397.297	-22.7
397.51	-157.86
397.724	413.52
397.938	153.43
398.151	-225.45
398.365	-329.89
398.578	135
398.792	378.7
399.005	-22.7
399.219	-98.47
399.433	42.84
399.646	157.52
399.86	34.64
400.073	-14.51
400.287	137.04
400.5	-43.18
400.714	67.41
400.927	-161.96
401.141	296.78
401.354	1075.01
401.567	231.25
401.781	-237.74
401.994	276.31
402.208	563.02
402.421	-112.81
402.635	-121
402.848	-69.8
403.061	255.83
403.275	-65.71
403.488	-207.02
403.701	460.62
403.915	169.81
404.128	-43.18
404.341	-190.63
404.555	231.25
404.768	-90.28
404.981	-12.46
405.195	-204.97
405.408	458.57
405.621	296.78
405.834	22.36
406.048	-233.64
406.261	417.61
406.474	464.72
406.687	-223.4
406.9	-4.27
407.114	44.88
407.327	204.63
407.54	-331.94
407.753	-379.04
407.966	-161.96
408.179	200.53
408.392	-184.49
408.605	-329.89
408.819	145.24
409.032	208.72
409.245	-186.54
409.458	-18.6
409.671	268.11
409.884	276.31
410.097	-299.17
410.31	85.84
410.523	182.1
410.736	1.88
410.949	-108.71
411.162	-149.67
411.375	464.72
411.588	284.5
411.801	57.17
412.014	-215.21
412.227	-8.36
412.44	46.93
412.653	-182.44
412.865	-14.51
413.078	337.74
413.291	216.91
413.504	-110.76
413.717	-176.3
413.93	274.26
414.143	-235.69
414.356	-102.57
414.568	-383.14
414.781	214.87
414.994	79.7
415.207	-90.28
415.42	-106.67
415.632	218.96
415.845	425.81
416.058	-305.32
416.271	-350.37
416.483	51.03
416.696	452.43
416.909	-133.29
417.121	-198.82
417.334	145.24
417.547	550.73
417.759	-157.86
417.972	-207.02
418.185	-94.38
418.397	274.26
418.61	-157.86
418.823	-215.21
419.035	477.01
419.248	46.93
419.46	-41.13
419.673	-127.14
419.885	182.1
420.098	10.07
420.311	-174.25
420.523	-370.85
420.736	304.98
420.948	34.64
421.161	-166.06
421.373	-391.33
421.586	102.23
421.798	-80.04
422.01	-346.28
422.223	-75.95
422.435	-28.84
422.648	163.67
422.86	-147.62
423.073	-192.68
423.285	268.11
423.497	-264.36
423.71	-209.06
423.922	-219.3
424.134	87.89
424.347	374.61
424.559	24.4
424.771	59.22
424.984	-53.42
425.196	130.9
425.408	-342.18
425.621	-362.66
425.833	178
426.045	354.13
426.257	-319.65
426.47	-174.25
426.682	120.66
426.894	218.96
427.106	-104.62
427.318	-176.3
427.531	-61.61
427.743	188.24
427.955	-170.15
428.167	255.83
428.379	143.19
428.591	1.88
428.804	-84.14
429.016	-266.41
429.228	-98.47
429.44	71.51
429.652	10.07
429.864	-309.41
430.076	53.08
430.288	14.17
430.5	-84.14
430.712	-75.95
430.924	165.71
431.136	120.66
431.348	-391.33
431.56	-178.34
431.772	61.27
431.984	-75.95
432.196	-157.86
432.408	-250.02
432.62	-41.13
432.832	147.28
433.044	128.85
433.256	-51.37
433.468	200.53
433.679	-182.44
433.891	-231.59
434.103	-43.18
434.315	372.56
434.527	257.87
434.739	-121
434.95	-186.54
435.162	268.11
435.374	-145.58
435.586	-186.54
435.798	-198.82
436.009	-182.44
436.221	18.26
436.433	-180.39
436.645	-211.11
436.856	-61.61
437.068	251.73
437.28	-301.22
437.491	108.37
437.703	79.7
437.915	182.1
438.126	-108.71
438.338	51.03
438.55	34.64
438.761	159.57
438.973	-221.35
439.184	-141.48
439.396	10.07
439.608	245.59
439.819	-264.36
440.031	-71.85
440.242	184.15
440.454	210.77
440.665	-170.15
440.877	-67.75
441.088	227.15
441.3	-43.18
441.511	-399.52
441.723	-174.25
441.934	229.2
442.146	-2.22
442.357	-47.27
442.569	81.75
442.78	100.18
442.991	413.52
443.203	147.28
443.414	-254.12
443.626	446.29
443.837	-47.27
444.048	-215.21
444.26	-333.99
444.471	118.61
444.682	304.98
444.894	-407.72
445.105	-325.8
445.316	268.11
445.528	208.72
445.739	-69.8
445.95	-106.67
446.161	132.95
446.373	237.39
446.584	-209.06
446.795	-225.45
447.006	208.72
447.217	370.51
447.429	-417.96
447.64	-286.89
447.851	327.5
448.062	100.18
448.273	-348.33
448.484	-207.02
448.695	194.39
448.907	-10.41
449.118	-86.19
449.329	18.26
449.54	-106.67
449.751	-180.39
449.962	-176.3
450.173	-217.26
450.384	284.5
450.595	362.32
450.806	-227.5
451.017	-110.76
451.228	321.36
451.439	298.83
451.65	-153.77
451.861	-358.57
452.072	-153.77
452.283	12.12
452.494	-63.66
452.705	-264.36
452.915	397.14
453.126	169.81
453.337	-94.38
453.548	-186.54
453.759	315.22
453.97	487.25
454.181	83.8
454.391	-184.49
454.602	118.61
454.813	124.76
455.024	-192.68
455.235	-258.21
455.445	59.22
455.656	130.9
455.867	-32.94
456.078	-321.7
456.288	3.93
456.499	81.75
456.71	-272.55
456.921	55.12
457.131	165.71
457.342	106.32
457.553	-69.8
457.763	-260.26
457.974	257.87
458.184	268.11
458.395	-258.21
458.606	-290.98
458.816	247.63
459.027	468.81
459.237	-51.37
459.448	-374.95
459.659	290.64
459.869	517.97
460.08	-352.42
460.29	-106.67
460.501	481.1
460.711	-28.84
460.922	-325.8
461.132	-282.79
461.343	685.9
461.553	-252.07
461.764	-241.83
461.974	-211.11
462.184	206.67
462.395	132.95
462.605	-172.2
462.816	-223.4
463.026	139.09
463.236	288.59
463.447	-307.37
463.657	-262.31
463.867	274.26
464.078	-34.99
464.288	-84.14
464.498	-377
464.709	63.32
464.919	-10.41
465.129	-90.28
465.339	-241.83
465.55	188.24
465.76	231.25
465.97	-155.82
466.18	-243.88
466.391	190.29
466.601	124.76
466.811	-194.73
467.021	-282.79
467.231	173.91
467.441	280.4
467.651	-164.01
467.862	-450.72
468.072	-69.8
468.282	298.83
468.492	-264.36
468.702	-161.96
468.912	71.51
469.122	657.23
469.332	85.84
469.542	-333.99
469.752	245.59
469.962	116.56
470.172	-305.32
470.382	-293.03
470.592	266.07
470.802	315.22
471.012	-90.28
471.222	-202.92
471.432	292.69
471.642	161.62
471.852	-135.34
472.062	-354.47
472.272	-100.52
472.482	-204.97
472.691	-241.83
472.901	-295.08
473.111	110.42
473.321	567.12
473.531	-385.19
473.741	-164.01
473.95	165.71
474.16	169.81
474.37	-100.52
474.58	-342.18
474.79	501.58
474.999	243.54
475.209	-381.09
475.419	-204.97
475.628	-4.27
475.838	313.17
476.048	-133.29
476.258	-305.32
476.467	296.78
476.677	-43.18
476.886	-47.27
477.096	-116.9
477.306	-43.18
477.515	403.28
477.725	-157.86
477.935	-196.78
478.144	364.37
478.354	-143.53
478.563	-219.3
478.773	-266.41
478.982	243.54
479.192	255.83
479.401	-141.48
479.611	-245.93
479.82	-123.05
480.03	42.84
480.239	-301.22
480.449	-317.61
480.658	454.48
480.868	-125.1
481.077	-127.14
481.287	-239.78
481.496	171.86
481.705	323.41
481.915	91.99
482.124	34.64
482.333	180.05
482.543	282.45
482.752	-176.3
482.961	-288.93
483.171	251.73
483.38	53.08
483.589	-69.8
483.799	-303.27
484.008	73.56
484.217	274.26
484.426	-164.01
484.636	-354.47
484.845	79.7
485.054	-295.08
485.263	69.46
485.472	-252.07
485.682	464.72
485.891	44.88
486.1	-374.95
486.309	-194.73
486.518	143.19
486.727	270.16
486.936	-333.99
487.146	-104.62
487.355	382.8
487.564	-147.62
487.773	-229.54
487.982	-299.17
488.191	-65.71
488.4	83.8
488.609	-243.88
488.818	-186.54
489.027	577.36
489.236	429.9
489.445	-276.65
489.654	-233.64
489.863	278.35
490.072	132.95
490.281	120.66
490.49	-168.1
490.698	425.81
490.907	341.84
491.116	-174.25
491.325	-407.72
491.534	341.84
491.743	104.28
491.952	-88.23
492.16	-186.54
492.369	212.82
492.578	307.02
492.787	-100.52
492.996	-331.94
493.204	-86.19
493.413	501.58
493.622	-413.86
493.831	-305.32
494.039	413.52
494.248	-147.62
494.457	-276.65
494.665	-436.39
494.874	198.48
495.083	524.11
495.291	-155.82
495.5	-266.41
495.709	192.34
495.917	196.43
496.126	-170.15
496.335	-299.17
496.543	-92.33
496.752	114.52
496.96	36.69
497.169	-383.14
497.377	34.64
497.586	313.17
497.794	-98.47
498.003	-448.68
498.211	108.37
498.42	423.76
498.628	-137.38
498.837	-297.13
499.045	198.48
499.254	46.93
499.462	-301.22
499.671	-274.6
499.879	509.77
500.087	243.54
500.296	-241.83
500.504	-161.96
500.713	190.29
500.921	542.54
501.129	-182.44
501.338	-200.87
501.546	67.41
501.754	48.98
501.962	-174.25
502.171	-370.85
502.379	153.43
502.587	454.48
502.795	-254.12
503.004	-184.49
503.212	8.02
503.42	233.3
503.628	-239.78
503.837	-174.25
504.045	245.59
504.253	460.62
504.461	-239.78
504.669	-475.3
504.877	130.9
505.085	376.66
505.294	-317.61
505.502	-90.28
505.71	141.14
505.918	239.44
506.126	-315.56
506.334	-262.31
506.542	12.12
506.75	83.8
506.958	-61.61
507.166	-176.3
507.374	-82.09
507.582	515.92
507.79	-84.14
507.998	-321.7
508.206	178
508.414	100.18
508.622	-280.74
508.83	-252.07
509.037	335.7
509.245	18.26
509.453	-272.55
509.661	-301.22
509.869	235.35
510.077	-57.51
510.285	-110.76
510.492	-506.02
510.7	644.94
510.908	-24.75
511.116	-198.82
511.324	-268.45
511.531	-22.7
511.739	120.66
511.947	-121
512.155	51.03
512.362	139.09
512.57	-272.55
512.778	-305.32
512.985	-458.92
513.193	304.98
513.401	386.9
513.608	-258.21
513.816	-254.12
514.024	268.11
514.231	327.5
514.439	-293.03
514.646	-168.1
514.854	186.19
515.061	315.22
515.269	-317.61
515.477	-254.12
515.684	-207.02
515.892	309.07
516.099	-432.29
516.307	-395.43
516.514	296.78
516.722	413.52
516.929	-215.21
517.136	-346.28
517.344	366.42
517.551	110.42
517.759	-293.03
517.966	-252.07
518.173	57.17
518.381	51.03
518.588	-186.54
518.796	-325.8
519.003	268.11
519.21	-2.22
519.418	-198.82
519.625	-18.6
519.832	-2.22
520.039	153.43
520.247	-452.77
520.454	-256.17
520.661	225.11
520.868	194.39
521.076	-266.41
521.283	-159.91
521.49	626.51
521.697	141.14
521.904	-235.69
522.112	-172.2
522.319	278.35
522.526	182.1
522.733	-321.7
522.94	-303.27
523.147	100.18
523.354	257.87
523.561	-415.91
523.768	-157.86
523.975	337.74
524.183	100.18
524.39	-280.74
524.597	-311.46
524.804	83.8
525.011	-137.38
525.218	-266.41
525.425	-331.94
525.632	372.56
525.838	-67.75
526.045	-323.75
526.252	-272.55
526.459	1208.13
526.666	986.95
526.873	-262.31
527.08	-266.41
527.287	395.09
527.494	196.43
527.701	-350.37
527.907	-309.41
528.114	163.67
528.321	98.13
528.528	-282.79
528.735	-268.45
528.941	-73.9
529.148	24.4
529.355	-92.33
529.562	-288.93
529.768	460.62
529.975	1.88
530.182	-284.84
530.388	-254.12
530.595	372.56
530.802	-141.48
531.008	-184.49
531.215	-235.69
531.422	429.9
531.628	821.06
531.835	-157.86
532.042	-194.73
532.248	20.31
532.455	51.03
532.661	-276.65
532.868	-256.17
533.074	71.51
533.281	294.74
533.487	-127.14
533.694	-358.57
533.9	-202.92
534.107	173.91
534.313	-309.41
534.52	-309.41
534.726	292.69
534.933	517.97
535.139	-258.21
535.345	-331.94
535.552	108.37
535.758	51.03
535.965	-231.59
536.171	-200.87
536.377	180.05
536.584	372.56
536.79	-245.93
536.996	-202.92
537.203	130.9
537.409	141.14
537.615	-247.97
537.821	-39.08
538.028	214.87
538.234	274.26
538.44	-247.97
538.646	-194.73
538.853	141.14
539.059	53.08
539.265	145.24
539.471	-446.63
539.677	288.59
539.883	-10.41
540.09	-256.17
540.296	188.24
540.502	18.26
540.708	-55.47
540.914	-118.95
541.12	-209.06
541.326	184.15
541.532	8.02
541.738	-100.52
541.944	-235.69
542.15	251.73
542.356	-14.51
542.562	-284.84
542.768	-186.54
542.974	589.64
543.18	481.1
543.386	-262.31
543.592	-501.92
543.798	337.74
544.004	276.31
544.21	-276.65
544.415	-223.4
544.621	87.89
544.827	221.01
545.033	-290.98
545.239	-53.42
545.445	-305.32
545.651	75.6
545.856	-293.03
546.062	-247.97
546.268	-96.43
546.474	102.23
546.679	-223.4
546.885	-252.07
547.091	-77.99
547.297	565.07
547.502	-118.95
547.708	-383.14
547.914	-26.79
548.119	169.81
548.325	-358.57
548.531	-370.85
548.736	456.53
548.942	-104.62
549.147	-293.03
549.353	-22.7
549.559	390.99
549.764	200.53
549.97	-268.45
550.175	-215.21
550.381	212.82
550.586	-39.08
550.792	-258.21
550.997	-262.31
551.203	171.86
551.408	223.06
551.614	-333.99
551.819	-264.36
552.025	462.67
552.23	577.36
552.435	-313.51
552.641	-80.04
552.846	-108.71
553.052	309.07
553.257	-102.57
553.462	-202.92
553.668	-82.09
553.873	239.44
554.078	-354.47
554.283	-278.69
554.489	141.14
554.694	42.84
554.899	-360.61
555.105	-65.71
555.31	276.31
555.515	268.11
555.72	-186.54
555.925	-342.18
556.131	221.01
556.336	5.97
556.541	-217.26
556.746	-303.27
556.951	335.7
557.156	481.1
557.361	-131.24
557.567	-61.61
557.772	487.25
557.977	241.49
558.182	-284.84
558.387	-247.97
558.592	-161.96
558.797	356.18
559.002	-94.38
559.207	-131.24
559.412	18.26
559.617	542.54
559.822	-235.69
560.027	-358.57
560.232	130.9
560.437	317.26
560.642	-303.27
560.847	-260.26
561.051	77.65
561.256	157.52
561.461	-190.63
561.666	-395.43
561.871	34.64
562.076	253.78
562.281	-133.29
562.485	-317.61
562.69	225.11
562.895	251.73
563.1	-164.01
563.305	-260.26
563.509	366.42
563.714	632.65
563.919	-307.37
564.123	-237.74
564.328	51.03
564.533	341.84
564.737	-217.26
564.942	-182.44
565.147	501.58
565.351	528.21
565.556	-161.96
565.761	-170.15
565.965	63.32
566.17	-131.24
566.374	-174.25
566.579	-407.72
566.784	180.05
566.988	12.12
567.193	-399.52
567.397	-247.97
567.602	-241.83
567.806	10.07
568.011	-178.34
568.215	-266.41
568.42	-0.17
568.624	26.45
568.828	-270.5
569.033	-75.95
569.237	290.64
569.442	237.39
569.646	-379.04
569.85	-233.64
570.055	-2.22
570.259	178
570.463	77.65
570.668	-241.83
570.872	96.08
571.076	69.46
571.281	-61.61
571.485	-118.95
571.689	59.22
571.893	261.97
572.098	-135.34
572.302	-268.45
572.506	169.81
572.71	130.9
572.914	-129.19
573.119	-200.87
573.323	427.85
573.527	329.55
573.731	-272.55
573.935	-290.98
574.139	128.85
574.343	-104.62
574.547	-157.86
574.751	-231.59
574.955	413.52
575.159	345.94
575.364	-239.78
575.568	-368.81
575.772	112.47
575.976	341.84
576.18	-301.22
576.383	-338.09
576.587	366.42
576.791	227.15
576.995	-438.44
577.199	-391.33
577.403	315.22
577.607	339.79
577.811	-268.45
578.015	-143.53
578.219	128.85
578.422	245.59
578.626	-92.33
578.83	-100.52
579.034	251.73
579.238	81.75
579.442	-252.07
579.645	100.18
579.849	59.22
580.053	96.08
580.257	-260.26
580.46	-168.1
580.664	311.12
580.868	231.25
581.071	8.02
581.275	-143.53
581.479	-280.74
581.682	194.39
581.886	-229.54
582.09	-116.9
582.293	319.31
582.497	325.46
582.7	-82.09
582.904	-231.59
583.107	75.6
583.311	-20.65
583.515	-135.34
583.718	-137.38
583.922	241.49
584.125	616.27
584.329	-286.89
584.532	-2.22
584.735	442.19
584.939	120.66
585.142	-350.37
585.346	-264.36
585.549	188.24
585.753	-34.99
585.956	-153.77
586.159	-71.85
586.363	491.34
586.566	186.19
586.769	-282.79
586.973	-264.36
587.176	194.39
587.379	368.46
587.582	145.24
587.786	77.65
587.989	-47.27
588.192	685.9
588.395	-153.77
588.599	67.41
588.802	229.2
589.005	319.31
589.208	-129.19
589.411	-194.73
589.615	309.07
589.818	526.16
590.021	5.97
590.224	-110.76
590.427	345.94
590.63	208.72
590.833	-276.65
591.036	-184.49
591.239	-10.41
591.442	-45.23
591.645	59.22
591.848	-258.21
592.051	233.3
592.254	362.32
592.457	-178.34
592.66	-112.81
592.863	-8.36
593.066	225.11
593.269	-192.68
593.472	-90.28
593.675	-145.58
593.878	452.43
594.081	-92.33
594.284	-202.92
594.486	276.31
594.689	135
594.892	-26.79
595.095	-45.23
595.298	198.48
595.5	42.84
595.703	-96.43
595.906	10.07
596.109	477.01
596.311	423.76
596.514	-454.82
596.717	-45.23
596.92	499.53
597.122	216.91
597.325	-372.9
597.528	-188.58
597.73	409.42
597.933	137.04
598.136	-192.68
598.338	-415.91
598.541	264.02
598.743	470.86
598.946	-116.9
599.148	-102.57
599.351	417.61
599.554	370.51
599.756	-14.51
599.959	-200.87
600.161	382.8
600.363	784.2
600.566	157.52
600.768	-174.25
600.971	546.64
601.173	225.11
601.376	-137.38
601.578	-145.58
601.78	264.02
601.983	622.41
602.185	-288.93
602.388	55.12
602.59	280.4
602.792	-41.13
602.995	12.12
603.197	-133.29
603.399	331.6
603.601	296.78
603.804	-69.8
604.006	-223.4
604.208	81.75
604.41	-288.93
604.613	-30.89
604.815	-217.26
605.017	649.04
605.219	-100.52
605.421	237.39
605.623	-94.38
605.826	448.33
606.028	597.84
606.23	-116.9
606.432	-153.77
606.634	546.64
606.836	507.73
607.038	-295.08
607.24	-8.36
607.442	221.01
607.644	81.75
607.846	71.51
608.048	-243.88
608.25	493.39
608.452	-80.04
608.654	-143.53
608.856	-247.97
609.058	102.23
609.26	268.11
609.462	42.84
609.664	-135.34
609.866	571.21
610.067	388.94
610.269	-34.99
610.471	-92.33
610.673	79.7
610.875	298.83
611.077	-209.06
611.278	42.84
611.48	108.37
611.682	644.94
611.884	-80.04
612.085	-43.18
612.287	-71.85
612.489	268.11
612.69	-211.11
612.892	-16.55
613.094	427.85
613.295	257.87
613.497	-207.02
613.699	-67.75
613.9	571.21
614.102	399.18
614.304	-61.61
614.505	-293.03
614.707	153.43
614.908	223.06
615.11	-207.02
615.311	18.26
615.513	327.5
615.714	436.05
615.916	-260.26
616.117	38.74
616.319	143.19
616.52	448.33
616.722	-71.85
616.923	-196.78
617.124	399.18
617.326	272.21
617.527	-4.27
617.729	87.89
617.93	317.26
618.131	374.61
618.333	-141.48
618.534	-26.79
618.735	38.74
618.937	587.6
619.138	-235.69
619.339	-153.77
619.54	292.69
619.742	91.99
619.943	116.56
620.144	-26.79
620.345	401.23
620.546	403.28
620.748	-121
620.949	-77.99
621.15	200.53
621.351	192.34
621.552	-43.18
621.753	-280.74
621.954	-133.29
622.155	698.19
622.356	-166.06
622.558	63.32
622.759	182.1
622.96	616.27
623.161	-18.6
623.362	-114.86
623.563	216.91
623.764	178
623.965	-118.95
624.166	157.52
624.366	206.67
624.567	251.73
624.768	-354.47
624.969	-145.58
625.17	112.47
625.371	331.6
625.572	10.07
625.773	-172.2
625.973	495.44
626.174	341.84
626.375	-20.65
626.576	-22.7
626.777	378.7
626.977	763.72
627.178	-26.79
627.379	12.12
627.58	96.08
627.78	255.83
627.981	75.6
628.182	42.84
628.382	456.53
628.583	-75.95
628.784	-166.06
628.984	171.86
629.185	395.09
629.386	395.09
629.586	53.08
629.787	-164.01
629.987	304.98
630.188	223.06
630.388	-41.13
630.589	-14.51
630.79	757.58
630.99	266.07
631.191	30.55
631.391	44.88
631.591	331.6
631.792	599.88
631.992	124.76
632.193	-51.37
632.393	673.61
632.594	280.4
632.794	-86.19
632.994	155.47
633.195	178
633.395	272.21
633.595	-108.71
633.796	196.43
633.996	-18.6
634.196	544.59
634.397	-215.21
634.597	-6.31
634.797	79.7
634.997	632.65
635.198	227.15
635.398	-141.48
635.598	264.02
635.798	591.69
635.998	358.22
636.199	-61.61
636.399	198.48
636.599	-63.66
636.799	51.03
636.999	274.26
637.199	431.95
637.399	511.82
637.599	-45.23
637.799	165.71
637.999	79.7
638.199	618.32
638.399	-127.14
638.599	-96.43
638.799	366.42
638.999	673.61
639.199	182.1
639.399	75.6
639.599	636.75
639.799	141.14
639.999	-104.62
640.199	-55.47
640.399	315.22
640.599	386.9
640.799	30.55
640.998	243.54
641.198	583.5
641.398	438.09
641.598	149.33
641.798	59.22
641.997	1242.95
642.197	296.78
642.397	116.56
642.597	71.51
642.796	413.52
642.996	673.61
643.196	118.61
643.395	-43.18
643.595	434
643.795	-125.1
643.994	24.4
644.194	59.22
644.394	434
644.593	362.32
644.793	-155.82
644.992	192.34
645.192	388.94
645.392	-88.23
645.591	165.71
645.791	79.7
645.99	448.33
646.19	259.92
646.389	104.28
646.589	120.66
646.788	468.81
646.987	526.16
647.187	337.74
647.386	268.11
647.586	276.31
647.785	460.62
647.984	120.66
648.184	116.56
648.383	282.45
648.582	237.39
648.782	59.22
648.981	223.06
649.18	102.23
649.38	345.94
649.579	36.69
649.778	-6.31
649.977	397.14
650.177	427.85
650.376	42.84
650.575	24.4
650.774	634.7
650.973	132.95
651.173	-92.33
651.372	83.8
651.571	411.47
651.77	493.39
651.969	102.23
652.168	132.95
652.367	14.17
652.566	438.09
652.765	10.07
652.964	395.09
653.163	730.95
653.362	307.02
653.561	147.28
653.76	159.57
653.959	286.54
654.158	452.43
654.357	307.02
654.556	135
654.755	448.33
654.954	499.53
655.153	141.14
655.352	173.91
655.551	728.91
655.749	122.71
655.948	108.37
656.147	251.73
656.346	491.34
656.545	347.98
656.743	188.24
656.942	206.67
657.141	405.33
657.34	77.65
657.538	110.42
657.737	-4.27
657.936	206.67
658.135	507.73
658.333	102.23
658.532	227.15
658.731	702.28
658.929	528.21
659.128	503.63
659.326	69.46
659.525	677.71
659.724	405.33
659.922	-121
660.121	-18.6
660.319	450.38
660.518	198.48
660.716	-28.84
660.915	-10.41
661.113	657.23
661.312	55.12
661.51	229.2
661.709	87.89
661.907	505.68
662.105	706.38
662.304	100.18
662.502	198.48
662.701	683.85
662.899	350.03
663.097	460.62
663.296	-4.27
663.494	628.56
663.692	827.21
663.891	91.99
664.089	18.26
664.287	436.05
664.485	665.42
664.684	116.56
664.882	239.44
665.08	405.33
665.278	466.77
665.476	-55.47
665.675	368.46
665.873	894.79
666.071	642.89
666.269	130.9
666.467	429.9
666.665	436.05
666.863	468.81
667.061	401.23
667.259	73.56
667.457	360.27
667.655	534.35
667.853	-14.51
668.051	309.07
668.249	210.77
668.447	546.64
668.645	112.47
668.843	397.14
669.041	499.53
669.239	382.8
669.437	223.06
669.635	304.98
669.833	323.41
670.031	585.55
670.229	296.78
670.426	290.64
670.624	325.46
670.822	311.12
671.02	116.56
671.218	259.92
671.415	169.81
671.613	456.53
671.811	331.6
672.009	175.95
672.206	550.73
672.404	474.96
672.602	434
672.799	200.53
672.997	487.25
673.195	692.04
673.392	352.08
673.59	79.7
673.788	692.04
673.985	-0.17
674.183	268.11
674.38	182.1
674.578	653.13
674.775	261.97
674.973	124.76
675.17	145.24
675.368	782.15
675.565	501.58
675.763	208.72
675.96	163.67
676.158	726.86
676.355	368.46
676.553	243.54
676.75	233.3
676.947	413.52
677.145	419.66
677.342	403.28
677.539	386.9
677.737	493.39
677.934	1009.48
678.131	360.27
678.329	163.67
678.526	765.77
678.723	616.27
678.92	399.18
679.118	321.36
679.315	145.24
679.512	685.9
679.709	206.67
679.906	343.89
680.104	722.76
680.301	436.05
680.498	192.34
680.695	225.11
680.892	309.07
681.089	395.09
681.286	247.63
681.483	51.03
681.68	626.51
681.877	689.99
682.075	347.98
682.272	581.45
682.469	628.56
682.665	427.85
682.862	319.31
683.059	77.65
683.256	489.29
683.453	493.39
683.65	341.84
683.847	360.27
684.044	393.04
684.241	362.32
684.438	419.66
684.635	120.66
684.831	921.42
685.028	941.89
685.225	243.54
685.422	390.99
685.619	431.95
685.815	558.92
686.012	319.31
686.209	264.02
686.405	272.21
686.602	733
686.799	159.57
686.996	192.34
687.192	239.44
687.389	1001.29
687.586	192.34
687.782	175.95
687.979	833.35
688.175	810.82
688.372	423.76
688.568	272.21
688.765	364.37
688.962	857.93
689.158	417.61
689.355	30.55
689.551	755.53
689.748	382.8
689.944	460.62
690.14	186.19
690.337	739.15
690.533	440.14
690.73	550.73
690.926	327.5
691.123	702.28
691.319	556.88
691.515	89.94
691.712	493.39
691.908	741.19
692.104	534.35
692.301	390.99
692.497	249.68
692.693	763.72
692.889	767.82
693.086	577.36
693.282	182.1
693.478	579.4
693.674	956.23
693.87	411.47
694.067	165.71
694.263	550.73
694.459	499.53
694.655	538.45
694.851	544.59
695.047	728.91
695.243	812.87
695.439	487.25
695.635	278.35
695.831	673.61
696.027	587.6
696.224	210.77
696.42	610.12
696.615	900.94
696.811	597.84
697.007	124.76
697.203	403.28
697.399	706.38
697.595	964.42
697.791	266.07
697.987	413.52
698.183	376.66
698.379	413.52
698.575	384.85
698.77	325.46
698.966	780.11
699.162	819.02
699.358	419.66
699.554	397.14
699.749	788.3
699.945	804.68
700.141	401.23
700.337	370.51
700.532	577.36
700.728	419.66
700.924	298.83
701.119	272.21
701.315	706.38
701.511	589.64
701.706	472.91
701.902	235.35
702.097	651.08
702.293	716.62
702.489	491.34
702.684	450.38
702.88	597.84
703.075	464.72
703.271	458.57
703.466	225.11
703.662	657.23
703.857	728.91
704.053	384.85
704.248	388.94
704.443	741.19
704.639	864.07
704.834	509.77
705.03	321.36
705.225	821.06
705.42	816.97
705.616	556.88
705.811	315.22
706.006	530.25
706.202	384.85
706.397	460.62
706.592	286.54
706.787	675.66
706.983	603.98
707.178	671.56
707.373	464.72
707.568	878.41
707.763	960.33
707.959	485.2
708.154	313.17
708.349	632.65
708.544	798.54
708.739	710.47
708.934	350.03
709.129	790.35
709.324	857.93
709.519	345.94
709.714	374.61
709.909	935.75
710.104	794.44
710.299	487.25
710.494	517.97
710.689	851.78
710.884	616.27
711.079	567.12
711.274	677.71
711.469	665.42
711.664	638.8
711.859	337.74
712.054	485.2
712.249	853.83
712.443	905.03
712.638	311.12
712.833	358.22
713.028	571.21
713.223	608.08
713.417	679.75
713.612	438.09
713.807	862.02
714.002	1306.43
714.196	665.42
714.391	421.71
714.586	849.74
714.78	661.32
714.975	454.48
715.17	444.24
715.364	671.56
715.559	939.85
715.754	145.24
715.948	407.38
716.143	1183.56
716.337	698.19
716.532	739.15
716.726	417.61
716.921	941.89
717.115	1148.74
717.31	360.27
717.504	888.65
717.699	542.54
717.893	950.09
718.088	378.7
718.282	343.89
718.476	704.33
718.671	808.78
718.865	466.77
719.059	513.87
719.254	708.43
719.448	1134.4
719.642	1806.14
719.837	243.54
720.031	898.89
720.225	1009.48
720.419	444.24
720.614	380.75
720.808	841.54
721.002	673.61
721.196	407.38
721.39	530.25
721.585	1054.53
721.779	788.3
721.973	499.53
722.167	266.07
722.361	862.02
722.555	941.89
722.749	468.81
722.943	431.95
723.137	534.35
723.331	802.63
723.525	550.73
723.719	423.76
723.913	872.26
724.107	1095.49
724.301	388.94
724.495	569.16
724.689	1058.63
724.883	1005.38
725.077	460.62
725.271	520.01
725.465	1009.48
725.659	814.92
725.853	579.4
726.046	384.85
726.24	597.84
726.434	1025.86
726.628	530.25
726.822	567.12
727.015	956.23
727.209	1042.25
727.403	497.49
727.596	399.18
727.79	872.26
727.984	917.32
728.177	534.35
728.371	503.63
728.565	1058.63
728.758	474.96
728.952	415.57
729.146	505.68
729.339	1023.81
729.533	739.15
729.726	528.21
729.92	497.49
730.113	1072.96
730.307	872.26
730.5	542.54
730.694	470.86
730.887	722.76
731.081	870.22
731.274	477.01
731.468	628.56
731.661	700.23
731.854	653.13
732.048	534.35
732.241	360.27
732.435	608.08
732.628	864.07
732.821	673.61
733.014	470.86
733.208	579.4
733.401	857.93
733.594	513.87
733.788	517.97
733.981	1083.2
734.174	837.45
734.367	538.45
734.56	636.75
734.754	1019.72
734.947	800.59
735.14	587.6
735.333	577.36
735.526	911.18
735.719	747.34
735.912	481.1
736.105	511.82
736.298	837.45
736.491	667.47
736.684	534.35
736.877	534.35
737.07	855.88
737.263	1197.89
737.456	528.21
737.649	460.62
737.842	644.94
738.035	882.5
738.228	585.55
738.421	810.82
738.614	1038.15
738.807	1105.73
739	390.99
739.192	411.47
739.385	909.13
739.578	1042.25
739.771	767.82
739.964	522.06
740.156	911.18
740.349	812.87
740.542	749.39
740.735	464.72
740.927	565.07
741.12	550.73
741.313	483.15
741.505	591.69
741.698	902.98
741.891	870.22
742.083	722.76
742.276	587.6
742.468	767.82
742.661	862.02
742.854	675.66
743.046	534.35
743.239	1292.1
743.431	798.54
743.624	595.79
743.816	501.58
744.009	759.63
744.201	898.89
744.393	776.01
744.586	603.98
744.778	1109.83
744.971	896.84
745.163	694.09
745.355	733
745.548	839.5
745.74	694.09
745.932	800.59
746.125	520.01
746.317	1460.03
746.509	872.26
746.702	708.43
746.894	761.67
747.086	1015.62
747.278	1011.53
747.471	802.63
747.663	827.21
747.855	804.68
748.047	1206.08
748.239	538.45
748.431	567.12
748.623	1253.19
748.815	1199.94
749.008	509.77
749.2	636.75
749.392	1003.33
749.584	1017.67
749.776	626.51
749.968	689.99
750.16	1300.29
750.352	900.94
750.544	689.99
750.736	528.21
750.928	1048.39
751.12	919.37
751.311	733
751.503	653.13
751.695	995.14
751.887	880.46
752.079	444.24
752.271	616.27
752.463	1668.92
752.654	1146.69
752.846	747.34
753.038	581.45
753.23	716.62
753.421	964.42
753.613	628.56
753.805	937.8
753.997	1163.08
754.188	1140.55
754.38	552.78
754.572	585.55
754.763	898.89
754.955	968.52
755.146	681.8
755.338	831.3
755.53	937.8
755.721	900.94
755.913	593.74
756.104	622.41
756.296	827.21
756.487	1122.12
756.679	565.07
756.87	624.46
757.062	741.19
757.253	1099.59
757.445	644.94
757.636	886.6
757.827	941.89
758.019	1519.42
758.21	550.73
758.401	624.46
758.593	1410.88
758.784	1226.56
758.975	601.93
759.167	610.12
759.358	1001.29
759.549	1189.7
759.74	608.08
759.932	716.62
760.123	1265.47
760.314	896.84
760.505	862.02
760.696	667.47
760.888	1298.24
761.079	806.73
761.27	665.42
761.461	524.11
761.652	1345.34
761.843	804.68
762.034	585.55
762.225	1023.81
762.416	927.56
762.607	984.9
762.798	653.13
762.989	560.97
763.18	1722.17
763.371	989
763.562	712.52
763.753	698.19
763.944	1169.22
764.135	1066.82
764.326	866.12
764.517	692.04
764.708	948.04
764.899	1091.4
765.089	659.28
765.28	655.18
765.471	1009.48
765.662	1173.32
765.853	796.49
766.043	509.77
766.234	1081.16
766.425	1181.51
766.615	728.91
766.806	534.35
766.997	1265.47
767.187	980.81
767.378	751.43
767.569	599.88
767.759	1089.35
767.95	1003.33
768.141	900.94
768.331	649.04
768.522	882.5
768.712	1130.31
768.903	700.23
769.093	558.92
769.284	1371.97
769.474	1025.86
769.665	546.64
769.855	522.06
770.046	1101.64
770.236	800.59
770.426	851.78
770.617	659.28
770.807	1142.6
770.998	872.26
771.188	864.07
771.378	589.64
771.569	1265.47
771.759	1152.84
771.949	704.33
772.139	448.33
772.33	1019.72
772.52	1308.48
772.71	751.43
772.9	610.12
773.09	1361.73
773.281	1335.1
773.471	794.44
773.661	726.86
773.851	1242.95
774.041	870.22
774.231	599.88
774.421	950.09
774.611	1363.78
774.802	1017.67
774.992	849.74
775.182	528.21
775.372	976.71
775.562	1187.65
775.752	714.57
775.942	763.72
776.131	1279.81
776.321	1107.78
776.511	716.62
776.701	579.4
776.891	1167.17
777.081	755.53
777.271	814.92
777.461	673.61
777.651	1175.36
777.84	1279.81
778.03	796.49
778.22	706.38
778.41	1302.34
778.599	769.87
778.789	825.16
778.979	628.56
779.169	1099.59
779.358	950.09
779.548	1103.68
779.738	489.29
779.927	1054.53
780.117	767.82
780.307	687.95
780.496	524.11
780.686	1042.25
780.875	1492.8
781.065	644.94
781.254	771.91
781.444	1029.96
781.633	1101.64
781.823	722.76
782.012	689.99
782.202	923.46
782.391	1038.15
782.581	687.95
782.77	962.37
782.96	1167.17
783.149	927.56
783.338	749.39
783.528	554.83
783.717	1208.13
783.906	1376.06
784.096	862.02
784.285	659.28
784.474	968.52
784.663	841.54
784.853	708.43
785.042	812.87
785.231	980.81
785.42	1216.32
785.61	886.6
785.799	536.4
785.988	806.73
786.177	1064.77
786.366	786.25
786.555	911.18
786.744	1283.91
786.933	966.47
787.122	677.71
787.312	722.76
787.501	880.46
787.69	1167.17
787.879	792.39
788.068	689.99
788.257	773.96
788.445	902.98
788.634	862.02
788.823	636.75
789.012	1658.68
789.201	1496.89
789.39	857.93
789.579	812.87
789.768	1085.25
789.957	1070.92
790.145	759.63
790.334	556.88
790.523	950.09
790.712	1038.15
790.9	888.65
791.089	544.59
791.278	1230.66
791.467	1195.84
791.655	1060.68
791.844	1183.56
792.033	954.18
792.221	970.57
792.41	812.87
792.599	612.17
792.787	1171.27
792.976	1308.48
793.164	659.28
793.353	739.15
793.541	1158.98
793.73	1218.37
793.918	788.3
794.107	821.06
794.295	989
794.484	1103.68
794.672	739.15
794.861	864.07
795.049	1281.86
795.238	1443.65
795.426	661.32
795.614	761.67
795.803	1107.78
795.991	1453.89
796.179	812.87
796.368	833.35
796.556	1331.01
796.744	814.92
796.932	702.28
797.121	716.62
797.309	1124.16
797.497	1267.52
797.685	892.74
797.874	655.18
798.062	991.05
798.25	1322.82
798.438	610.12
798.626	823.11
798.814	1212.23
799.002	1509.18
799.19	954.18
799.378	902.98
799.566	1267.52
799.755	1431.36
799.943	1032.01
800.131	808.78
800.318	1148.74
800.506	1216.32
800.694	749.39
800.882	864.07
801.07	1443.65
801.258	952.13
801.446	735.05
801.634	796.49
801.822	1003.33
802.01	1208.13
802.197	755.53
802.385	960.33
802.573	1079.11
802.761	931.66
802.949	882.5
803.136	667.47
803.324	1406.78
803.512	1148.74
803.699	892.74
803.887	755.53
804.075	1431.36
804.262	956.23
804.45	644.94
804.638	966.47
804.825	958.28
805.013	1048.39
805.201	894.79
805.388	778.06
805.576	1034.05
805.763	1394.5
805.951	855.88
806.138	1003.33
806.326	1638.2
806.513	1247.04
806.701	835.4
806.888	945.99
807.075	1222.47
807.263	1470.27
807.45	698.19
807.638	993.09
807.825	1531.71
808.012	1247.04
808.2	989
808.387	1097.54
808.574	1226.56
808.761	1443.65
808.949	792.39
809.136	978.76
809.323	1005.38
809.51	1081.16
809.698	1304.39
809.885	1118.02
810.072	1333.06
810.259	1371.97
810.446	931.66
810.633	923.46
810.82	1500.99
811.008	1550.14
811.195	1140.55
811.382	915.27
811.569	1158.98
811.756	898.89
811.943	978.76
812.13	952.13
812.317	1144.64
812.504	1093.44
812.691	1029.96
812.878	1097.54
813.064	1521.47
813.251	1240.9
813.438	837.45
813.625	1070.92
813.812	1255.23
813.999	1171.27
814.186	1007.43
814.372	1093.44
814.559	1177.41
814.746	1640.25
814.933	978.76
815.12	1120.07
815.306	1062.73
815.493	1015.62
815.68	952.13
815.866	878.41
816.053	1546.05
816.24	1630.01
816.426	1103.68
816.613	896.84
816.799	1437.5
816.986	1503.04
817.173	1083.2
817.359	972.61
817.546	1251.14
817.732	964.42
817.919	837.45
818.105	1089.35
818.292	1066.82
818.478	1320.77
818.665	1173.32
818.851	974.66
819.037	1750.84
819.224	1294.15
819.41	890.7
819.597	939.85
819.783	1615.68
819.969	1451.84
820.156	1013.57
820.342	948.04
820.528	1963.83
820.714	1240.9
820.901	1259.33
821.087	1021.77
821.273	1654.59
821.459	1115.97
821.646	991.05
821.832	894.79
822.018	1255.23
822.204	1355.58
822.39	1048.39
822.576	941.89
822.762	1445.7
822.948	1263.43
823.134	1140.55
823.32	1075.01
823.507	931.66
823.693	1261.38
823.879	1429.31
824.065	993.09
824.25	1328.96
824.436	1081.16
824.622	890.7
824.808	909.13
824.994	1111.88
825.18	1093.44
825.366	767.82
825.552	984.9
825.738	1298.24
825.923	1380.16
826.109	1242.95
826.295	1038.15
826.481	1161.03
826.667	1097.54
826.852	1124.16
827.038	905.03
827.224	1527.61
827.409	1668.92
827.595	921.42
827.781	1285.95
827.966	1441.6
828.152	1546.05
828.338	972.61
828.523	919.37
828.709	1148.74
828.894	1509.18
829.08	945.99
829.266	989
829.451	1099.59
829.637	1533.76
829.822	1173.32
830.008	1058.63
830.193	1576.77
830.378	1591.1
830.564	1128.26
830.749	1013.57
830.935	1437.5
831.12	1548.09
831.305	976.71
831.491	1156.93
831.676	1025.86
831.861	1435.46
832.047	999.24
832.232	894.79
832.417	1568.57
832.602	1308.48
832.788	945.99
832.973	905.03
833.158	1304.39
833.343	1197.89
833.528	1115.97
833.714	1144.64
833.899	1476.41
834.084	1881.91
834.269	1185.6
834.454	1011.53
834.639	1554.24
834.824	1320.77
835.009	1185.6
835.194	1156.93
835.379	1511.23
835.564	1531.71
835.749	1181.51
835.934	943.94
836.119	1470.27
836.304	1347.39
836.489	1107.78
836.674	1331.01
836.859	1154.88
837.044	1666.88
837.228	1064.77
837.413	1001.29
837.598	1417.02
837.783	1490.75
837.968	1019.72
838.152	966.47
838.337	892.74
838.522	1630.01
838.707	1578.81
838.891	1244.99
839.076	1400.64
839.261	1615.68
839.445	1027.91
839.63	1120.07
839.815	1795.9
839.999	1255.23
840.184	1126.21
840.368	1058.63
840.553	1464.13
840.737	1525.57
840.922	894.79
841.106	913.22
841.291	1060.68
841.475	1320.77
841.66	1046.34
841.844	978.76
842.029	2029.37
842.213	1075.01
842.397	1052.49
842.582	939.85
842.766	1599.29
842.951	1427.26
843.135	1083.2
843.319	1113.92
843.504	1457.98
843.688	1535.81
843.872	968.52
844.056	935.75
844.241	1451.84
844.425	1271.62
844.609	1240.9
844.793	825.16
844.977	1607.48
845.161	1425.22
845.346	952.13
845.53	1058.63
845.714	1214.27
845.898	1754.94
846.082	829.26
846.266	1048.39
846.45	1281.86
846.634	1421.12
846.818	933.7
847.002	1189.7
847.186	1447.74
847.37	1038.15
847.554	927.56
847.738	1206.08
847.922	1376.06
848.106	1488.7
848.29	986.95
848.473	1072.96
848.657	1476.41
848.841	1312.58
849.025	1085.25
849.209	806.73
849.392	1480.51
849.576	1103.68
849.76	837.45
849.944	1165.12
850.127	1709.88
850.311	1183.56
850.495	978.76
850.678	759.63
850.862	1636.16
851.046	1660.73
851.229	1308.48
851.413	948.04
851.596	1316.67
851.78	1283.91
851.964	1263.43
852.147	1165.12
852.331	1992.5
852.514	1544
852.698	1124.16
852.881	915.27
853.065	1472.32
853.248	1357.63
853.431	1163.08
853.615	1115.97
853.798	1824.57
853.982	1404.74
854.165	1134.4
854.348	1124.16
854.532	1154.88
854.715	1242.95
854.898	1058.63
855.081	1091.4
855.265	1701.69
855.448	1763.13
855.631	1158.98
855.814	954.18
855.997	1660.73
856.181	1210.18
856.364	1148.74
856.547	874.31
856.73	1396.54
856.913	1398.59
857.096	976.71
857.279	1118.02
857.462	1218.37
857.645	1613.63
857.828	1173.32
858.011	1242.95
858.194	1247.04
858.377	1568.57
858.56	937.8
858.743	1128.26
858.926	1249.09
859.109	1453.89
859.292	1101.64
859.475	966.47
859.658	1638.2
859.841	1429.31
860.023	894.79
860.206	956.23
860.389	1396.54
860.572	1693.5
860.755	1052.49
860.937	1015.62
861.12	1236.8
861.303	1285.95
861.486	1158.98
861.668	976.71
861.851	1513.28
862.034	1474.37
862.216	1185.6
862.399	909.13
862.581	1482.56
862.764	1728.31
862.947	1152.84
863.129	1042.25
863.312	1189.7
863.494	1742.65
863.677	1230.66
863.859	780.11
864.042	1527.61
864.224	1713.98
864.406	1161.03
864.589	907.08
864.771	1470.27
864.954	1140.55
865.136	1079.11
865.318	831.3
865.501	1445.7
865.683	905.03
865.865	1101.64
866.048	1011.53
866.23	1353.54
866.412	1337.15
866.594	982.85
866.777	1140.55
866.959	1562.43
867.141	1075.01
867.323	1218.37
867.505	1154.88
867.687	1298.24
867.869	1271.62
868.052	1058.63
868.234	907.08
868.416	1328.96
868.598	1382.21
868.78	1066.82
868.962	958.28
869.144	1513.28
869.326	1527.61
869.508	1068.87
869.69	1005.38
869.872	1169.22
870.054	1613.63
870.236	1054.53
870.417	1025.86
870.599	1265.47
870.781	1699.64
870.963	1185.6
871.145	898.89
871.327	1042.25
871.508	1482.56
871.69	1177.41
871.872	1064.77
872.054	1326.91
872.235	1505.09
872.417	1048.39
872.599	1032.01
872.78	1603.39
872.962	1324.87
873.144	853.83
873.325	1091.4
873.507	1660.73
873.689	1371.97
873.87	956.23
874.052	1242.95
874.233	1218.37
874.415	1668.92
874.596	1093.44
874.778	1042.25
874.959	1328.96
875.141	1541.95
875.322	1005.38
875.503	1089.35
875.685	1564.48
875.866	935.75
876.048	1009.48
876.229	950.09
876.41	1230.66
876.592	1406.78
876.773	1036.1
876.954	960.33
877.136	1724.22
877.317	1271.62
877.498	954.18
877.679	1144.64
877.86	1476.41
878.042	1361.73
878.223	1068.87
878.404	1421.12
878.585	1558.33
878.766	1838.91
878.947	1314.63
879.128	1222.47
879.309	1638.2
879.49	1675.07
879.672	1167.17
879.853	1152.84
880.034	1230.66
880.215	1326.91
880.396	1161.03
880.576	1144.64
880.757	1288
880.938	1791.8
881.119	1021.77
881.3	1085.25
881.481	1230.66
881.662	2209.59
881.843	1075.01
882.023	1091.4
882.204	1517.37
882.385	1476.41
882.566	1062.73
882.747	1152.84
882.927	1462.08
883.108	1494.85
883.289	1029.96
883.469	1378.11
883.65	1273.67
883.831	1503.04
884.011	1441.6
884.192	1146.69
884.373	1734.46
884.553	1533.76
884.734	1283.91
884.914	1503.04
885.095	2129.72
885.275	1857.34
885.456	1539.9
885.636	978.76
885.817	1394.5
885.997	1423.17
886.178	1173.32
886.358	1292.1
886.538	1503.04
886.719	2471.73
886.899	1263.43
887.08	1269.57
887.26	1730.36
887.44	1220.42
887.621	1081.16
887.801	1296.19
887.981	2092.85
888.161	1695.55
888.342	1312.58
888.522	1359.68
888.702	1759.03
888.882	1732.41
889.062	1380.16
889.242	1017.67
889.423	2010.93
889.603	1683.26
889.783	1290.05
889.963	1199.94
890.143	1711.93
890.323	1808.19
890.503	1220.42
890.683	1226.56
890.863	1523.52
891.043	1548.09
891.223	1412.93
891.403	1503.04
891.583	1656.64
891.763	1658.68
891.943	1300.29
892.122	1322.82
892.302	1455.94
892.482	1492.8
892.662	1478.46
892.842	1255.23
893.022	1636.16
893.201	1492.8
893.381	1482.56
893.561	1290.05
893.741	1785.66
893.92	1699.64
894.1	1404.74
894.28	1398.59
894.459	1834.81
894.639	1705.79
894.819	1414.98
894.998	1359.68
895.178	1668.92
895.357	1756.99
895.537	1341.25
895.716	1191.75
895.896	1521.47
896.075	2023.22
896.255	1390.4
896.434	1171.27
896.614	1865.53
896.793	1990.45
896.973	1544
897.152	1460.03
897.331	1709.88
897.511	1752.89
897.69	1120.07
897.87	1462.08
898.049	1771.32
898.228	1697.6
898.407	1472.32
898.587	1535.81
898.766	1517.37
898.945	1720.12
899.124	1439.55
899.304	1419.07
899.483	1754.94
899.662	1994.55
899.841	1351.49
900.02	1374.02
900.199	1840.95
900.378	1666.88
900.557	1312.58
900.737	1255.23
900.916	1773.37
901.095	1918.78
901.274	1529.66
901.453	1193.8
901.632	1394.5
901.811	1503.04
901.989	1279.81
902.168	1269.57
902.347	1824.57
902.526	1480.51
902.705	1324.87
902.884	1576.77
903.063	1937.21
903.242	1957.69
903.42	1300.29
903.599	1392.45
903.778	1793.85
903.957	2058.04
904.135	1500.99
904.314	1505.09
904.493	1746.75
904.672	1861.43
904.85	1394.5
905.029	1349.44
905.207	1738.55
905.386	2291.51
905.565	1181.51
905.743	1324.87
905.922	1367.87
906.1	1812.28
906.279	1300.29
906.457	1337.15
906.636	1568.57
906.814	1609.53
906.993	1296.19
907.171	1304.39
907.35	1836.86
907.528	1986.36
907.707	1603.39
907.885	1183.56
908.063	2017.08
908.242	1339.2
908.42	1322.82
908.598	1275.71
908.777	1756.99
908.955	1500.99
909.133	1419.07
909.311	1238.85
909.49	1486.65
909.668	1546.05
909.846	1322.82
910.024	1124.16
910.202	1597.24
910.38	1601.34
910.559	1240.9
910.737	1173.32
910.915	1695.55
911.093	1666.88
911.271	1417.02
911.449	1500.99
911.627	1695.55
911.805	2043.7
911.983	1398.59
912.161	1279.81
912.339	1576.77
912.517	1888.06
912.695	1505.09
912.872	1320.77
913.05	1279.81
913.228	1693.5
913.406	1220.42
913.584	1193.8
913.762	1783.61
913.939	1470.27
914.117	1257.28
914.295	1308.48
914.473	1726.27
914.65	1625.92
914.828	1273.67
915.006	1357.63
915.184	1212.23
915.361	1613.63
915.539	1374.02
915.716	1453.89
915.894	1724.22
916.072	1814.33
916.249	1451.84
916.427	1513.28
916.604	1345.34
916.782	1716.03
916.959	1070.92
917.137	1238.85
917.314	1621.82
917.492	1763.13
917.669	1363.78
917.847	1443.65
918.024	1554.24
918.201	1275.71
918.379	1288
918.556	1410.88
918.733	1738.55
918.911	1388.35
919.088	1519.42
919.265	1263.43
919.442	1658.68
919.62	1511.23
919.797	1208.13
919.974	1046.34
920.151	1535.81
920.328	1517.37
920.506	1234.75
920.683	1617.72
920.86	1335.1
921.037	1337.15
921.214	1244.99
921.391	1208.13
921.568	1693.5
921.745	1259.33
921.922	1257.28
922.099	1169.22
922.276	1767.23
922.453	1634.11
922.63	1105.73
922.807	1500.99
922.984	1582.91
923.161	1290.05
923.338	1173.32
923.514	1081.16
923.691	1443.65
923.868	1570.62
924.045	1255.23
924.222	1134.4
924.399	1523.52
924.575	1709.88
924.752	1328.96
924.929	1335.1
925.105	1498.94
925.282	1267.52
925.459	1271.62
925.635	1120.07
925.812	1429.31
925.989	1242.95
926.165	1206.08
926.342	1011.53
926.518	1183.56
926.695	1419.07
926.871	1083.2
927.048	1003.33
927.224	1591.1
927.401	1214.27
927.577	1185.6
927.754	1001.29
927.93	1699.64
928.107	1484.61
928.283	997.19
928.459	1214.27
928.636	1423.17
928.812	1322.82
928.988	1091.4
929.165	960.33
929.341	1318.72
929.517	1419.07
929.693	1394.5
929.87	905.03
930.046	1486.65
930.222	1158.98
930.398	989
930.574	1251.14
930.751	1335.1
930.927	1156.93
931.103	1068.87
931.279	1087.3
931.455	1226.56
931.631	1283.91
931.807	855.88
931.983	837.45
932.159	935.75
932.335	1310.53
932.511	1058.63
932.687	1079.11
932.863	1351.49
933.039	1232.71
933.215	911.18
933.391	782.15
933.566	1124.16
933.742	1234.75
933.918	968.52
934.094	825.16
934.27	1171.27
934.445	1222.47
934.621	956.23
934.797	862.02
934.973	1443.65
935.148	1322.82
935.324	919.37
935.5	679.75
935.675	1341.25
935.851	1298.24
936.027	837.45
936.202	884.55
936.378	1255.23
936.553	1089.35
936.729	1263.43
936.904	718.67
937.08	673.61
937.255	878.41
937.431	749.39
937.606	616.27
937.782	921.42
937.957	1056.58
938.133	788.3
938.308	683.85
938.483	874.31
938.659	665.42
938.834	782.15
939.009	606.03
939.185	804.68
939.36	706.38
939.535	319.31
939.71	716.62
939.886	1238.85
940.061	989
940.236	769.87
940.411	601.93
940.586	933.7
940.761	976.71
940.937	649.04
941.112	567.12
941.287	864.07
941.462	812.87
941.637	429.9
941.812	526.16
941.987	862.02
942.162	677.71
942.337	661.32
942.512	622.41
942.687	980.81
942.862	923.46
943.037	413.52
943.212	309.07
943.386	735.05
943.561	878.41
943.736	763.72
943.911	870.22
944.086	919.37
944.26	874.31
944.435	563.02
944.61	608.08
944.785	1048.39
944.959	1156.93
945.134	591.69
945.309	429.9
945.483	618.32
945.658	1001.29
945.833	141.14
946.007	378.7
946.182	1109.83
946.357	485.2
946.531	370.51
946.706	362.32
946.88	323.41
947.055	841.54
947.229	489.29
947.404	397.14
947.578	931.66
947.752	599.88
947.927	399.18
948.101	206.67
948.276	728.91
948.45	796.49
948.624	669.52
948.799	511.82
948.973	782.15
949.147	505.68
949.321	530.25
949.496	417.61
949.67	1023.81
949.844	644.94
950.018	534.35
950.193	378.7
950.367	1292.1
950.541	653.13
950.715	565.07
950.889	614.22
951.063	669.52
951.237	886.6
951.411	321.36
951.585	266.07
951.759	821.06
951.933	563.02
952.107	335.7
952.281	681.8
952.455	1038.15
952.629	853.83
952.803	411.47
952.977	388.94
953.151	900.94
953.325	722.76
953.499	638.8
953.672	313.17
953.846	552.78
954.02	624.46
954.194	411.47
954.368	444.24
954.541	835.4
954.715	577.36
954.889	608.08
955.062	319.31
955.236	698.19
955.41	614.22
955.583	634.7
955.757	284.5
955.93	655.18
956.104	448.33
956.278	436.05
956.451	513.87
956.625	821.06
956.798	1234.75
956.972	737.1
957.145	409.42
957.319	724.81
957.492	597.84
957.665	606.03
957.839	399.18
958.012	771.91
958.185	565.07
958.359	434
958.532	665.42
958.705	845.64
958.879	749.39
959.052	515.92
959.225	276.31
959.398	667.47
959.572	685.9
959.745	436.05
959.918	528.21
960.091	724.81
960.264	825.16
960.438	354.13
960.611	358.22
960.784	948.04
960.957	536.4
961.13	829.26
961.303	468.81
961.476	681.8
961.649	917.32
961.822	309.07
961.995	567.12
962.168	790.35
962.341	743.24
962.514	405.33
962.686	472.91
962.859	776.01
963.032	821.06
963.205	477.01
963.378	272.21
963.551	874.31
963.723	640.84
963.896	595.79
964.069	474.96
964.242	739.15
964.414	943.94
964.587	538.45
964.76	554.83
964.932	704.33
965.105	657.23
965.278	419.66
965.45	384.85
965.623	730.95
965.795	970.57
965.968	401.23
966.14	393.04
966.313	698.19
966.485	720.71
966.658	474.96
966.83	304.98
967.003	945.99
967.175	823.11
967.348	464.72
967.52	438.09
967.692	1046.34
967.865	812.87
968.037	390.99
968.209	755.53
968.382	667.47
968.554	853.83
968.726	493.39
968.898	376.66
969.071	733
969.243	792.39
969.415	481.1
969.587	569.16
969.759	1214.27
969.932	890.7
970.104	431.95
970.276	141.14
970.448	571.21
970.62	581.45
970.792	560.97
970.964	509.77
971.136	1130.31
971.308	831.3
971.48	294.74
971.652	390.99
971.824	1148.74
971.996	646.99
972.168	520.01
972.339	464.72
972.511	847.69
972.683	575.31
972.855	689.99
973.027	548.68
973.199	677.71
973.37	810.82
973.542	497.49
973.714	550.73
973.886	706.38
974.057	853.83
974.229	296.78
974.401	405.33
974.572	413.52
974.744	272.21
974.915	370.51
975.087	325.46
975.259	1025.86
975.43	595.79
975.602	403.28
975.773	274.26
975.945	427.85
976.116	841.54
976.288	296.78
976.459	618.32
976.63	583.5
976.802	724.81
976.973	356.18
977.145	550.73
977.316	1052.49
977.487	1007.43
977.659	587.6
977.83	466.77
978.001	1079.11
978.172	712.52
978.344	352.08
978.515	464.72
978.686	536.4
978.857	995.14
979.028	436.05
979.2	300.88
979.371	945.99
979.542	591.69
979.713	493.39
979.884	1.88
980.055	530.25
980.226	603.98
980.397	309.07
980.568	280.4
980.739	816.97
980.91	550.73
981.081	585.55
981.252	319.31
981.423	788.3
981.594	812.87
981.765	286.54
981.936	517.97
982.106	640.84
982.277	847.69
982.448	319.31
982.619	538.45
982.79	538.45
982.96	862.02
983.131	591.69
983.302	108.37
983.472	513.87
983.643	649.04
983.814	517.97
983.984	319.31
984.155	517.97
984.326	884.55
984.496	501.58
984.667	339.79
984.837	450.38
985.008	931.66
985.178	515.92
985.349	489.29
985.519	698.19
985.69	479.05
985.86	395.09
986.031	311.12
986.201	733
986.371	749.39
986.542	345.94
986.712	210.77
986.882	769.87
987.053	724.81
987.223	245.59
987.393	550.73
987.563	429.9
987.734	866.12
987.904	642.89
988.074	259.92
988.244	640.84
988.414	431.95
988.585	272.21
988.755	452.43
988.925	565.07
989.095	964.42
989.265	376.66
989.435	366.42
989.605	761.67
989.775	706.38
989.945	603.98
990.115	284.5
990.285	520.01
990.455	692.04
990.625	372.56
990.795	257.87
990.965	939.85
991.134	386.9
991.304	270.16
991.474	309.07
991.644	698.19
991.814	921.42
991.984	194.39
992.153	329.55
992.323	515.92
992.493	575.31
992.662	153.43
992.832	464.72
993.002	565.07
993.171	739.15
993.341	169.81
993.511	460.62
993.68	446.29
993.85	753.48
994.019	147.28
994.189	173.91
994.358	636.75
994.528	431.95
994.697	42.84
994.867	159.57
995.036	733
995.206	429.9
995.375	126.8
995.544	343.89
995.714	712.52
995.883	501.58
996.052	405.33
996.222	22.36
996.391	952.13
996.56	759.63
996.73	192.34
996.899	63.32
997.068	857.93
997.237	436.05
997.406	239.44
997.576	108.37
997.745	642.89
997.914	622.41
998.083	-14.51
998.252	233.3
998.421	597.84
998.59	333.65
998.759	112.47
998.928	57.17
999.097	819.02
999.266	583.5
999.435	358.22
999.604	26.45
999.773	956.23
999.942	401.23
1000.111	157.52
1000.28	81.75
1000.448	243.54
1000.617	245.59
1000.786	438.09
1000.955	55.12
1001.124	644.94
1001.292	1150.79
1001.461	173.91
1001.63	192.34
1001.798	874.31
1001.967	816.97
1002.136	81.75
1002.304	51.03
1002.473	567.12
1002.642	544.59
1002.81	317.26
1002.979	161.62
1003.147	747.34
1003.316	937.8
1003.484	155.47
1003.653	143.19
1003.821	730.95
1003.99	425.81
1004.158	327.5
1004.327	311.12
1004.495	493.39
1004.663	329.55
1004.832	272.21
1005	26.45
1005.168	659.28
1005.337	462.67
1005.505	12.12
1005.673	442.19
1005.842	585.55
1006.01	522.06
1006.178	87.89
1006.346	124.76
1006.514	579.4
1006.683	730.95
1006.851	173.91
1007.019	-94.38
1007.187	221.01
1007.355	-39.08
1007.523	-14.51
1007.691	28.5
1007.859	145.24
1008.027	790.35
1008.195	135
1008.363	65.36
1008.531	624.46
1008.699	313.17
1008.867	-37.03
1009.035	40.79
1009.203	790.35
1009.37	390.99
1009.538	91.99
1009.706	444.24
1009.874	479.05
1010.042	415.57
1010.209	-8.36
1010.377	73.56
1010.545	640.84
1010.713	425.81
1010.88	100.18
1011.048	137.04
1011.216	409.42
1011.383	839.5
1011.551	94.04
1011.718	38.74
1011.886	599.88
1012.054	405.33
1012.221	53.08
1012.389	67.41
1012.556	474.96
1012.724	808.78
1012.891	319.31
1013.058	-102.57
1013.226	585.55
1013.393	675.66
1013.561	-63.66
1013.728	-102.57
1013.895	669.52
1014.063	511.82
1014.23	-20.65
1014.397	-59.56
1014.565	653.13
1014.732	440.14
1014.899	16.21
1015.066	30.55
1015.233	378.7
1015.401	579.4
1015.568	135
1015.735	268.11
1015.902	380.75
1016.069	505.68
1016.236	75.6
1016.403	-49.32
1016.57	192.34
1016.737	636.75
1016.904	51.03
1017.071	-12.46
1017.238	272.21
1017.405	620.36
1017.572	42.84
1017.739	202.58
1017.906	534.35
1018.073	599.88
1018.24	-18.6
1018.407	227.15
1018.573	653.13
1018.74	280.4
1018.907	18.26
1019.074	-80.04
1019.241	669.52
1019.407	501.58
1019.574	-20.65
1019.741	-59.56
1019.907	526.16
1020.074	493.39
1020.241	-166.06
1020.407	-37.03
1020.574	524.11
1020.74	569.16
1020.907	32.6
1021.073	30.55
1021.24	876.36
1021.406	747.34
1021.573	-104.62
1021.739	-6.31
1021.906	563.02
1022.072	413.52
1022.239	96.08
1022.405	83.8
1022.571	376.66
1022.738	229.2
1022.904	32.6
1023.07	75.6
1023.237	438.09
1023.403	610.12
1023.569	59.22
1023.735	48.98
1023.902	413.52
1024.068	436.05
1024.234	-92.33
1024.4	40.79
1024.566	554.83
1024.732	579.4
1024.898	128.85
1025.065	-137.38
1025.231	554.83
1025.397	339.79
1025.563	28.5
1025.729	-55.47
1025.895	-133.29
1026.061	110.42
1026.227	-157.86
1026.392	30.55
1026.558	620.36
1026.724	499.53
1026.89	-63.66
1027.056	3.93
1027.222	403.28
1027.388	186.19
1027.553	-67.75
1027.719	-84.14
1027.885	812.87
1028.051	501.58
1028.216	-194.73
1028.382	-14.51
1028.548	538.45
1028.713	223.06
1028.879	-159.91
1029.045	180.05
1029.21	710.47
1029.376	552.78
1029.541	22.36
1029.707	22.36
1029.873	477.01
1030.038	663.37
1030.204	-77.99
1030.369	-92.33
1030.534	456.53
1030.7	251.73
1030.865	10.07
1031.031	-41.13
1031.196	429.9
1031.361	395.09
1031.527	-4.27
1031.692	-100.52
1031.857	-80.04
1032.023	505.68
1032.188	-49.32
1032.353	-34.99
1032.518	726.86
1032.684	448.33
1032.849	-141.48
1033.014	10.07
1033.179	477.01
1033.344	431.95
1033.509	-39.08
1033.674	-59.56
1033.839	548.68
1034.004	511.82
1034.17	-22.7
1034.335	-118.95
1034.5	137.04
1034.664	239.44
1034.829	-137.38
1034.994	42.84
1035.159	397.14
1035.324	364.37
1035.489	-84.14
1035.654	-80.04
1035.819	673.61
1035.984	358.22
1036.148	-34.99
1036.313	-61.61
1036.478	618.32
1036.643	315.22
1036.807	-80.04
1036.972	-6.31
1037.137	601.93
1037.301	345.94
1037.466	-252.07
1037.631	32.6
1037.795	677.71
1037.96	415.57
1038.124	94.04
1038.289	-147.62
1038.454	534.35
1038.618	440.14
1038.783	20.31
1038.947	20.31
1039.111	325.46
1039.276	276.31
1039.44	-6.31
1039.605	401.23
1039.769	173.91
1039.933	339.79
1040.098	28.5
1040.262	268.11
1040.426	460.62
1040.591	472.91
1040.755	-125.1
1040.919	-88.23
1041.083	497.49
1041.248	264.02
1041.412	-182.44
1041.576	-145.58
1041.74	192.34
1041.904	507.73
1042.068	-77.99
1042.232	10.07
1042.397	571.21
1042.561	431.95
1042.725	-258.21
1042.889	128.85
1043.053	423.76
1043.217	411.47
1043.381	102.23
1043.544	-231.59
1043.708	583.5
1043.872	55.12
1044.036	-288.93
1044.2	-260.26
1044.364	585.55
1044.528	667.47
1044.691	3270.44
1044.855	-204.97
1045.019	534.35
1045.183	497.49
1045.346	-14.51
1045.51	-168.1
1045.674	481.1
1045.837	497.49
1046.001	-63.66
1046.165	-139.43
1046.328	759.63
1046.492	425.81
1046.655	102.23
1046.819	65.36
1046.983	202.58
1047.146	378.7
1047.31	-28.84
1047.473	-313.51
1047.636	350.03
1047.8	128.85
1047.963	-67.75
1048.127	-133.29
1048.29	184.15
