Data from Ink_Intensity_USB4F045381__96__00096.txt Node

Date: Mon Jul 17 11:03:35 EDT 2023
User: mmckonesweet
Spectrometer: USB4F04538
Trigger mode: 4
Integration Time (sec): 9.000000E-1
Scans to average: 1
Electric dark correction enabled: true
Nonlinearity correction enabled: false
Boxcar width: 0
XAxis mode: Wavelengths
Number of Pixels in Spectrum: 3648
>>>>>Begin Spectral Data<<<<<
345.52	-958.28
345.736	-958.28
345.952	-958.28
346.168	-997.19
346.384	-1001.29
346.6	-145.24
346.816	-261.97
347.032	-282.45
347.248	329.89
347.464	-124.76
347.68	-61.27
347.896	51.37
348.112	270.5
348.328	-65.36
348.544	-67.41
348.76	57.51
348.975	299.17
349.191	-218.96
349.407	-171.86
349.623	20.65
349.839	-55.12
350.055	-135
350.27	69.8
350.486	161.96
350.702	313.51
350.918	245.93
351.133	-151.38
351.349	135.34
351.565	407.72
351.781	-212.82
351.996	6.31
352.212	288.93
352.428	-83.8
352.644	-247.63
352.859	-200.53
353.075	260.26
353.291	61.61
353.506	-104.28
353.722	-159.57
353.938	-73.56
354.153	432.29
354.369	125.1
354.584	-155.47
354.8	264.36
355.016	-251.73
355.231	-216.91
355.447	-42.84
355.662	161.96
355.878	751.78
356.093	-405.33
356.309	6.31
356.524	-237.39
356.74	293.03
356.955	-173.91
357.171	-124.76
357.386	225.45
357.602	-122.71
357.817	-122.71
358.033	-212.82
358.248	268.45
358.464	313.51
358.679	-147.28
358.895	-388.94
359.11	-53.08
359.325	315.56
359.541	100.52
359.756	0.17
359.972	-237.39
360.187	225.45
360.402	-149.33
360.618	-94.04
360.833	958.62
361.048	147.62
361.264	-141.14
361.479	-102.23
361.694	77.99
361.909	184.49
362.125	-186.19
362.34	-110.42
362.555	282.79
362.77	131.24
362.986	-255.83
363.201	-114.52
363.416	219.3
363.631	61.61
363.847	-165.71
364.062	-126.8
364.277	180.39
364.492	112.81
364.707	-132.95
364.922	-397.14
365.138	196.78
365.353	352.42
365.568	-225.11
365.783	-198.48
365.998	86.19
366.213	473.25
366.428	-194.39
366.643	139.43
366.858	295.08
367.073	192.68
367.288	-73.56
367.503	-251.73
367.718	88.23
367.933	327.85
368.148	-266.07
368.363	-106.32
368.578	30.89
368.793	454.82
369.008	-147.28
369.223	-257.87
369.438	225.45
369.653	473.25
369.868	-208.72
370.083	-216.91
370.298	100.52
370.513	348.33
370.728	47.27
370.943	-208.72
371.157	-100.18
371.372	575.65
371.587	-270.16
371.802	-241.49
372.017	86.19
372.232	422.05
372.446	-69.46
372.661	-216.91
372.876	256.17
373.091	188.58
373.306	-91.99
373.52	-143.19
373.735	-135
373.95	452.77
374.165	-139.09
374.379	-116.56
374.594	-159.57
374.809	147.62
375.023	-5.97
375.238	-200.53
375.453	303.27
375.667	-288.59
375.882	-180.05
376.097	-204.63
376.311	75.95
376.526	-51.03
376.741	-186.19
376.955	141.48
377.17	573.6
377.384	557.22
377.599	-98.13
377.813	-171.86
378.028	563.36
378.242	164.01
378.457	-98.13
378.672	-288.59
378.886	94.38
379.101	-3.93
379.315	-239.44
379.53	-128.85
379.744	188.58
379.958	239.78
380.173	-167.76
380.387	-151.38
380.602	213.16
380.816	-143.19
381.031	-145.24
381.245	-114.52
381.459	231.59
381.674	2728.07
381.888	-223.06
382.103	143.53
382.317	-98.13
382.531	534.69
382.746	0.17
382.96	-110.42
383.174	-69.46
383.388	477.35
383.603	94.38
383.817	-163.67
384.031	157.86
384.246	508.07
384.46	82.09
384.674	286.89
384.888	125.1
385.103	155.82
385.317	-214.87
385.531	43.18
385.745	413.86
385.959	329.89
386.174	-223.06
386.388	-178
386.602	86.19
386.816	-98.13
387.03	-132.95
387.244	-67.41
387.458	77.99
387.672	389.28
387.887	-198.48
388.101	-182.1
388.315	436.39
388.529	143.53
388.743	-85.84
388.957	-143.19
389.171	340.13
389.385	-112.47
389.599	-87.89
389.813	102.57
390.027	254.12
390.241	669.86
390.455	-12.12
390.669	0.17
390.883	-42.84
391.097	426.15
391.311	61.61
391.525	-180.05
391.738	231.59
391.952	340.13
392.166	-40.79
392.38	-175.95
392.594	276.65
392.808	409.76
393.022	-69.46
393.236	-69.46
393.449	200.87
393.663	319.65
393.877	-178
394.091	-98.13
394.305	-44.88
394.518	-44.88
394.732	-266.07
394.946	-157.52
395.16	446.63
395.373	106.67
395.587	-178
395.801	-87.89
396.015	313.51
396.228	264.36
396.442	-200.53
396.656	-311.12
396.869	432.29
397.083	495.78
397.297	14.51
397.51	-141.14
397.724	426.15
397.938	241.83
398.151	-229.2
398.365	-188.24
398.578	243.88
398.792	360.61
399.005	-5.97
399.219	-73.56
399.433	127.14
399.646	305.32
399.86	2.22
400.073	84.14
400.287	268.45
400.5	14.51
400.714	-3.93
400.927	26.79
401.141	262.31
401.354	1114.27
401.567	239.78
401.781	-251.73
401.994	329.89
402.208	614.56
402.421	-3.93
402.635	-16.21
402.848	22.7
403.061	344.23
403.275	-24.4
403.488	-155.47
403.701	567.46
403.915	311.46
404.128	82.09
404.341	-65.36
404.555	311.46
404.768	149.67
404.981	55.47
405.195	-178
405.408	546.98
405.621	274.6
405.834	67.75
406.048	-69.46
406.261	497.83
406.474	510.11
406.687	-106.32
406.9	49.32
407.114	147.62
407.327	241.83
407.54	-233.3
407.753	-227.15
407.966	-110.42
408.179	362.66
408.392	-149.33
408.605	-178
408.819	282.79
409.032	243.88
409.245	-159.57
409.458	-5.97
409.671	270.5
409.884	313.51
410.097	-233.3
410.31	112.81
410.523	147.62
410.736	200.87
410.949	-26.45
411.162	75.95
411.375	536.74
411.588	344.23
411.801	41.13
412.014	-229.2
412.227	100.52
412.44	53.42
412.653	-100.18
412.865	121
413.078	487.59
413.291	288.93
413.504	-10.07
413.717	-145.24
413.93	399.52
414.143	-3.93
414.356	-61.27
414.568	-94.04
414.781	389.28
414.994	307.37
415.207	-30.55
415.42	8.36
415.632	315.56
415.845	594.08
416.058	-208.72
416.271	-94.04
416.483	178.34
416.696	618.66
416.909	-94.04
417.121	-30.55
417.334	237.74
417.547	647.33
417.759	-130.9
417.972	-36.69
418.185	59.56
418.397	321.7
418.61	-106.32
418.823	-57.17
419.035	618.66
419.248	135.34
419.46	18.6
419.673	12.46
419.885	293.03
420.098	110.76
420.311	-3.93
420.523	-270.16
420.736	360.61
420.948	233.64
421.161	-48.98
421.373	-198.48
421.586	356.52
421.798	-69.46
422.01	-206.67
422.223	145.58
422.435	12.46
422.648	317.61
422.86	-122.71
423.073	-53.08
423.285	458.92
423.497	-120.66
423.71	-24.4
423.922	-149.33
424.134	309.41
424.347	546.98
424.559	215.21
424.771	252.07
424.984	73.9
425.196	266.41
425.408	-163.67
425.621	-143.19
425.833	442.53
426.045	454.82
426.257	-157.52
426.47	41.13
426.682	282.79
426.894	338.09
427.106	-32.6
427.318	61.61
427.531	55.47
427.743	411.81
427.955	-83.8
428.167	487.59
428.379	299.17
428.591	174.25
428.804	67.75
429.016	14.51
429.228	102.57
429.44	313.51
429.652	180.39
429.864	-184.15
430.076	194.73
430.288	217.26
430.5	-40.79
430.712	127.14
430.924	434.34
431.136	262.31
431.348	-155.47
431.56	-36.69
431.772	274.6
431.984	202.92
432.196	-48.98
432.408	20.65
432.62	170.15
432.832	227.5
433.044	233.64
433.256	106.67
433.468	393.38
433.679	-28.5
433.891	-94.04
434.103	307.37
434.315	575.65
434.527	434.34
434.739	147.62
434.95	73.9
435.162	409.76
435.374	82.09
435.586	204.97
435.798	12.46
436.009	55.47
436.221	202.92
436.433	53.42
436.645	41.13
436.856	196.78
437.068	526.5
437.28	26.79
437.491	327.85
437.703	323.75
437.915	393.38
438.126	77.99
438.338	313.51
438.55	247.97
438.761	473.25
438.973	20.65
439.184	100.52
439.396	303.27
439.608	465.06
439.819	39.08
440.031	272.55
440.242	546.98
440.454	487.59
440.665	102.57
440.877	247.97
441.088	430.24
441.3	243.88
441.511	-53.08
441.723	88.23
441.934	383.14
442.146	358.57
442.357	192.68
442.569	422.05
442.78	329.89
442.991	784.54
443.203	432.29
443.414	-38.74
443.626	645.28
443.837	164.01
444.048	-3.93
444.26	2.22
444.471	360.61
444.682	485.54
444.894	26.79
445.105	-61.27
445.316	546.98
445.528	420
445.739	241.83
445.95	233.64
446.161	420
446.373	573.6
446.584	176.3
446.795	127.14
447.006	606.37
447.217	753.82
447.429	34.99
447.64	135.34
447.851	682.14
448.062	411.81
448.273	-20.31
448.484	129.19
448.695	450.72
448.907	422.05
449.118	309.41
449.329	397.48
449.54	264.36
449.751	209.06
449.962	233.64
450.173	112.81
450.384	692.38
450.595	751.78
450.806	170.15
451.017	202.92
451.228	721.06
451.439	753.82
451.65	196.78
451.861	-141.14
452.072	151.72
452.283	366.76
452.494	401.57
452.705	186.54
452.915	841.89
453.126	522.4
453.337	229.54
453.548	172.2
453.759	741.54
453.97	1061.02
454.181	346.28
454.391	200.87
454.602	501.92
454.813	610.47
455.024	303.27
455.235	252.07
455.445	596.13
455.656	579.75
455.867	467.11
456.078	286.89
456.288	368.81
456.499	557.22
456.71	225.45
456.921	497.83
457.131	573.6
457.342	569.51
457.553	370.85
457.763	207.02
457.974	721.06
458.184	704.67
458.395	231.59
458.606	209.06
458.816	807.07
459.027	1052.83
459.237	549.03
459.448	151.72
459.659	766.11
459.869	1140.89
460.08	166.06
460.29	481.44
460.501	1097.88
460.711	577.7
460.922	260.26
461.132	372.9
461.343	1292.44
461.553	282.79
461.764	399.52
461.974	391.33
462.184	860.32
462.395	706.72
462.605	405.67
462.816	278.69
463.026	770.21
463.236	929.95
463.447	434.34
463.657	395.43
463.867	850.08
464.078	630.95
464.288	508.07
464.498	407.72
464.709	733.34
464.919	737.44
465.129	534.69
465.339	438.44
465.55	856.22
465.76	872.61
465.97	524.45
466.18	428.2
466.391	909.47
466.601	876.7
466.811	604.32
467.021	514.21
467.231	856.22
467.441	1071.26
467.651	669.86
467.862	282.79
468.072	743.58
468.282	1126.55
468.492	592.03
468.702	667.81
468.912	913.56
469.122	1499.28
469.332	948.38
469.542	512.16
469.752	1120.41
469.962	999.58
470.172	592.03
470.382	565.41
470.592	1101.98
470.802	1251.48
471.012	874.65
471.222	684.19
471.432	1237.14
471.642	1274.01
471.852	901.28
472.062	774.3
472.272	1024.16
472.482	888.99
472.691	690.34
472.901	727.2
473.111	1175.7
473.321	1646.74
473.531	788.64
473.741	1005.72
473.95	1241.24
474.16	1390.74
474.37	1136.79
474.58	733.34
474.79	1603.73
474.999	1355.93
475.209	897.18
475.419	921.76
475.628	1110.17
475.838	1679.51
476.048	979.1
476.258	905.37
476.467	1628.31
476.677	1284.25
476.886	1317.01
477.096	1173.66
477.306	1190.04
477.515	1734.8
477.725	1304.73
477.935	1147.03
478.144	1943.69
478.354	1306.77
478.563	1208.47
478.773	1159.32
478.982	1726.61
479.192	1779.86
479.401	1431.7
479.611	1142.94
479.82	1306.77
480.03	1624.21
480.239	1200.28
480.449	1353.88
480.658	1955.98
480.868	1552.53
481.077	1593.49
481.287	1446.04
481.496	1833.1
481.705	2103.43
481.915	1786
482.124	1747.09
482.333	1902.73
482.543	2117.77
482.752	1566.87
482.961	1476.76
483.171	1968.27
483.38	1902.73
483.589	1720.46
483.799	1546.39
484.008	1888.4
484.217	2093.19
484.426	1708.18
484.636	1671.31
484.845	1937.55
485.054	1693.84
485.263	2201.74
485.472	1726.61
485.682	2347.14
485.891	2078.86
486.1	1564.82
486.309	1798.29
486.518	2297.99
486.727	2465.93
486.936	1749.14
487.146	2039.95
487.355	2486.4
487.564	1970.32
487.773	1970.32
487.982	1917.07
488.191	2064.52
488.4	2302.09
488.609	2042
488.818	2089.1
489.027	2789.5
489.236	2613.38
489.445	2193.55
489.654	2150.54
489.863	2701.44
490.072	2461.83
490.281	2633.86
490.49	2166.92
490.698	2805.89
490.907	2879.61
491.116	2259.08
491.325	2105.48
491.534	2855.04
491.743	2625.67
491.952	2388.1
492.16	2508.93
492.369	2746.5
492.578	2836.61
492.787	2437.25
492.996	2295.94
493.204	2531.46
493.413	3125.37
493.622	2345.09
493.831	2402.44
494.039	3141.75
494.248	2486.4
494.457	2601.09
494.665	2355.33
494.874	3223.67
495.083	3223.67
495.291	2642.05
495.5	2515.08
495.709	3080.32
495.917	3057.79
496.126	2912.38
496.335	2615.43
496.543	2889.85
496.752	3031.16
496.96	2996.35
497.169	2660.48
497.377	2977.92
497.586	3254.39
497.794	2926.72
498.003	2683.01
498.211	3018.88
498.42	3467.38
498.628	2887.81
498.837	2881.66
499.045	3297.4
499.254	3264.63
499.462	2822.27
499.671	2896
499.879	3510.39
500.087	3487.86
500.296	2941.05
500.504	3012.73
500.713	3299.45
500.921	3891.31
501.129	3199.1
501.338	3037.31
501.546	3444.85
501.754	3481.72
501.962	2998.4
502.171	3076.22
502.379	3534.96
502.587	3786.86
502.795	3240.06
503.004	3184.76
503.212	3485.81
503.42	3874.93
503.628	3321.98
503.837	3238.01
504.045	3831.92
504.253	3856.5
504.461	3315.83
504.669	3231.87
504.877	3858.54
505.085	4014.19
505.294	3360.89
505.502	3596.4
505.71	3788.91
505.918	4038.77
506.126	3420.28
506.334	3352.7
506.542	3571.83
506.75	3870.83
506.958	3633.27
507.166	3514.49
507.374	3741.81
507.582	4305
507.79	3784.82
507.998	3420.28
508.206	3889.26
508.414	4010.09
508.622	3508.34
508.83	3756.15
509.037	4307.05
509.245	3932.27
509.453	3633.27
509.661	3561.59
509.869	4141.16
510.077	3952.75
510.285	3836.02
510.492	3561.59
510.7	4728.93
510.908	3985.52
511.116	3833.97
511.324	3901.55
511.531	4145.26
511.739	4282.47
511.947	4100.2
512.155	4175.98
512.362	4243.56
512.57	3893.36
512.778	3696.75
512.985	3809.39
513.193	4544.61
513.401	4663.4
513.608	4089.96
513.816	3958.89
514.024	4333.67
514.231	4608.1
514.439	4153.45
514.646	4186.22
514.854	4561
515.061	4548.71
515.269	4161.64
515.477	4196.46
515.684	4202.6
515.892	4710.5
516.099	4092.01
516.307	4104.3
516.514	4681.83
516.722	4786.27
516.929	4311.14
517.136	4130.92
517.344	4995.17
517.551	4886.62
517.759	4145.26
517.966	4214.89
518.173	4558.95
518.381	4571.24
518.588	4530.28
518.796	4294.76
519.003	5009.5
519.21	4829.28
519.418	4431.98
519.625	4860
519.832	4737.12
520.039	4986.97
520.247	4399.21
520.454	4522.09
520.661	5113.95
520.868	4874.34
521.076	4591.72
521.283	4847.71
521.49	5492.82
521.697	5238.87
521.904	4804.71
522.112	4714.59
522.319	5318.75
522.526	5122.14
522.733	4661.35
522.94	4776.03
523.147	5150.81
523.354	5326.94
523.561	4690.02
523.768	4870.24
523.975	5314.65
524.183	5142.62
524.39	4898.91
524.597	4978.78
524.804	5279.83
525.011	4966.49
525.218	4986.97
525.425	5091.42
525.632	5709.91
525.838	5247.07
526.045	5070.94
526.252	5150.81
526.459	6432.84
526.666	6160.46
526.873	5087.33
527.08	5113.95
527.287	5845.07
527.494	5474.39
527.701	5122.14
527.907	5165.15
528.114	5791.83
528.321	5675.09
528.528	5275.74
528.735	5376.09
528.941	5566.55
529.148	5488.73
529.355	5214.3
529.562	5271.64
529.768	5894.22
529.975	5408.86
530.182	5470.3
530.388	5394.52
530.595	6178.89
530.802	5509.21
531.008	5822.55
531.215	5656.66
531.422	6307.91
531.628	6512.71
531.835	5746.77
532.042	5785.68
532.248	5906.51
532.455	5963.86
532.661	5654.61
532.868	5691.48
533.074	6131.79
533.281	6178.89
533.487	5757.01
533.694	5763.15
533.9	5937.23
534.107	6299.72
534.313	5646.42
534.52	5740.63
534.726	6307.91
534.933	6766.66
535.139	6035.53
535.345	5849.17
535.552	6189.13
535.758	6355.02
535.965	6019.15
536.171	5898.32
536.377	6635.59
536.584	6570.05
536.79	6035.53
536.996	6283.34
537.203	6477.9
537.409	6690.88
537.615	6123.6
537.821	6385.74
538.028	6735.94
538.234	6817.86
538.44	6191.18
538.646	6426.7
538.853	6912.07
539.059	6465.61
539.265	6727.75
539.471	6217.8
539.677	6897.73
539.883	6623.3
540.09	6422.6
540.296	6778.95
540.502	6729.8
540.708	6690.88
540.914	6754.37
541.12	6561.86
541.326	7204.92
541.532	6688.84
541.738	6807.62
541.944	6674.5
542.15	7190.59
542.356	6889.54
542.562	6561.86
542.768	6830.15
542.974	7637.05
543.18	7721.01
543.386	6774.85
543.592	6664.26
543.798	7618.61
544.004	7446.59
544.21	6848.58
544.415	7028.8
544.621	7237.69
544.827	7643.19
545.033	6916.16
545.239	7221.31
545.445	7135.29
545.651	7254.08
545.856	6922.31
546.062	7100.48
546.268	7307.32
546.474	7321.66
546.679	6971.46
546.885	7276.6
547.091	7163.97
547.297	8050.74
547.502	7184.45
547.708	7133.25
547.914	7329.85
548.119	7809.08
548.325	7233.6
548.531	7288.89
548.736	8118.32
548.942	7573.56
549.147	7237.69
549.353	7637.05
549.559	7958.58
549.764	7786.55
549.97	7288.89
550.175	7434.3
550.381	7942.19
550.586	7505.98
550.792	7497.78
550.997	7598.13
551.203	7819.32
551.408	7952.43
551.614	7399.48
551.819	7546.94
552.025	8335.4
552.23	8515.62
552.435	7757.88
552.641	8046.64
552.846	7905.33
553.052	8415.27
553.257	7884.85
553.462	7874.61
553.668	7923.76
553.873	8491.05
554.078	7868.47
554.283	7929.91
554.489	8380.46
554.694	8405.03
554.899	7950.39
555.105	8261.68
555.31	8456.23
555.515	8484.91
555.72	8206.38
555.925	7901.23
556.131	8605.74
556.336	8316.97
556.541	8196.14
556.746	8206.38
556.951	8656.93
557.156	9039.9
557.361	8183.85
557.567	8402.99
557.772	9027.62
557.977	8792.1
558.182	8370.22
558.387	8458.28
558.592	8808.48
558.797	8919.07
559.002	8382.51
559.207	8601.64
559.412	8753.19
559.617	9328.67
559.822	8486.95
560.027	8515.62
560.232	8880.16
560.437	8912.93
560.642	8353.84
560.847	8513.58
561.051	8771.62
561.256	8974.37
561.461	8714.28
561.666	8566.82
561.871	9007.14
562.076	9308.19
562.281	8677.41
562.485	8405.03
562.69	9383.96
562.895	9121.82
563.1	8781.86
563.305	8665.13
563.509	9199.65
563.714	9654.3
563.919	8761.38
564.123	8679.46
564.328	9130.02
564.533	9379.87
564.737	8781.86
564.942	8980.51
565.147	9644.06
565.351	9871.38
565.556	9099.3
565.761	9019.43
565.965	9338.91
566.17	8968.23
566.374	9084.96
566.579	8792.1
566.784	9490.46
566.988	9429.02
567.193	9013.28
567.397	9285.66
567.602	9017.38
567.806	9433.11
568.011	9183.26
568.215	9351.2
568.42	9506.84
568.624	9787.41
568.828	9201.69
569.033	9553.94
569.237	9699.35
569.442	9768.98
569.646	9105.44
569.85	9390.11
570.055	9732.12
570.259	9599
570.463	9601.05
570.668	9484.31
570.872	9650.2
571.076	9826.32
571.281	9676.82
571.485	9631.77
571.689	9830.42
571.893	10174.48
572.098	9826.32
572.302	9752.6
572.506	10004.5
572.71	9793.56
572.914	9816.08
573.119	9693.21
573.323	10438.67
573.527	10385.42
573.731	9773.08
573.935	9740.31
574.139	10131.47
574.343	9967.63
574.547	9818.13
574.751	9826.32
574.955	10444.81
575.159	10608.65
575.364	9996.31
575.568	9887.76
575.772	10194.96
575.976	10670.09
576.18	9992.21
576.383	9961.49
576.587	10553.35
576.791	10743.81
576.995	9797.65
577.199	10135.57
577.403	10680.33
577.607	10739.72
577.811	10100.75
578.015	10180.62
578.219	10610.7
578.422	11071.49
578.626	10399.76
578.83	10430.48
579.034	10930.18
579.238	10747.91
579.442	10295.31
579.645	10819.59
579.849	10788.87
580.053	10870.79
580.257	10627.08
580.46	10670.09
580.664	11225.09
580.868	11106.31
581.071	10860.55
581.275	10713.1
581.479	10637.32
581.682	11161.6
581.886	10522.63
582.09	10754.05
582.293	11325.44
582.497	11321.34
582.7	11112.45
582.904	11005.95
583.107	11177.98
583.311	10878.98
583.515	10739.72
583.718	10838.02
583.922	11433.98
584.125	11702.26
584.329	10883.08
584.532	11114.5
584.735	11653.11
584.939	11425.79
585.142	10891.27
585.346	11020.29
585.549	11499.52
585.753	11401.21
585.956	11307.01
586.159	11411.45
586.363	11810.81
586.566	11587.58
586.769	11112.45
586.973	11255.81
587.176	11819
587.379	11911.16
587.582	11714.55
587.786	11620.35
587.989	11522.04
588.192	12169.2
588.395	11321.34
588.599	11667.45
588.802	11808.76
589.005	11876.34
589.208	11419.64
589.411	11597.82
589.615	12085.23
589.818	12328.94
590.021	11894.77
590.224	11939.83
590.427	12386.29
590.63	12550.12
590.833	11563
591.036	11827.19
591.239	11972.6
591.442	12005.36
591.645	12306.41
591.848	11884.53
592.051	12181.49
592.254	12541.93
592.457	12042.23
592.66	11741.18
592.863	12374
593.066	12359.66
593.269	12087.28
593.472	12111.86
593.675	12201.97
593.878	12857.32
594.081	12333.04
594.284	12038.13
594.486	12558.32
594.689	12629.99
594.892	12406.77
595.095	12357.61
595.298	12787.69
595.5	12406.77
595.703	12660.71
595.906	12400.62
596.109	13187.04
596.311	13033.44
596.514	12138.48
596.717	12681.19
596.92	13281.25
597.122	13015.01
597.325	12675.05
597.528	12615.66
597.73	13266.91
597.933	12865.51
598.136	12660.71
598.338	12396.53
598.541	13162.47
598.743	13260.77
598.946	12783.59
599.148	13035.49
599.351	13176.8
599.554	13371.36
599.756	12836.84
599.959	12853.22
600.161	13352.93
600.363	13901.78
600.566	13021.16
600.768	12982.24
600.971	13776.86
601.173	13486.04
601.376	13176.8
601.578	13170.66
601.78	13533.15
601.983	14045.14
602.185	12867.56
602.388	13369.31
602.59	13500.38
602.792	13357.02
602.995	13316.06
603.197	13209.57
603.399	13762.52
603.601	13750.23
603.804	13244.38
604.006	13191.14
604.208	13551.58
604.41	13326.3
604.613	13582.3
604.815	13397.98
605.017	13826.01
605.219	13412.32
605.421	13760.47
605.623	13604.83
605.826	14219.22
606.028	14082
606.23	13430.75
606.432	13492.19
606.634	14180.31
606.836	14241.75
607.038	13445.09
607.24	13977.56
607.442	14075.86
607.644	14108.63
607.846	13875.16
608.048	13494.24
608.25	14264.27
608.452	13955.03
608.654	13746.14
608.856	13457.37
609.058	14104.53
609.26	14297.04
609.462	13684.7
609.664	14022.61
609.866	14471.12
610.067	14071.76
610.269	14028.76
610.471	13770.71
610.673	13987.8
610.875	14411.73
611.077	13869.02
611.278	13805.53
611.48	14237.65
611.682	14522.32
611.884	14125.01
612.085	13959.13
612.287	13946.84
612.489	14262.23
612.69	13938.65
612.892	14254.03
613.094	14716.87
613.295	14366.67
613.497	13883.35
613.699	13893.59
613.9	14536.65
614.102	14647.24
614.304	13971.41
614.505	13895.64
614.707	14639.05
614.908	14249.94
615.11	13866.97
615.311	14493.65
615.513	14469.07
615.714	14604.24
615.916	14108.63
616.117	14231.51
616.319	14475.21
616.52	14655.44
616.722	14344.14
616.923	14317.52
617.124	14923.72
617.326	14849.99
617.527	14184.4
617.729	14794.7
617.93	14913.48
618.131	14913.48
618.333	14534.6
618.534	14540.75
618.735	14643.15
618.937	15179.72
619.138	14307.28
619.339	14575.56
619.54	14962.63
619.742	15110.08
619.943	14383.06
620.144	14528.46
620.345	15226.82
620.546	15155.14
620.748	14462.93
620.949	14780.36
621.15	15036.36
621.351	14847.94
621.552	14553.04
621.753	14634.96
621.954	14434.25
622.155	15335.36
622.356	14555.08
622.558	14983.11
622.759	15278.02
622.96	15554.49
623.161	14774.22
623.362	14813.13
623.563	15015.88
623.764	15022.02
623.965	15017.93
624.166	15032.26
624.366	15437.76
624.567	15245.25
624.768	14577.61
624.969	14641.1
625.17	15138.76
625.371	15163.33
625.572	15204.29
625.773	14794.7
625.973	15323.07
626.174	15548.35
626.375	15286.21
626.576	15151.04
626.777	15495.1
626.977	16054.2
627.178	15212.48
627.379	15327.17
627.58	15407.04
627.78	15523.77
627.981	15224.77
628.182	15425.47
628.382	15640.51
628.583	15093.7
628.784	14925.77
628.984	15374.27
629.185	15894.46
629.386	15368.13
629.586	15603.64
629.787	15046.6
629.987	15804.35
630.188	15652.8
630.388	15306.69
630.589	15278.02
630.79	16510.89
630.99	15712.19
631.191	15566.78
631.391	15579.07
631.591	16056.25
631.792	16113.59
631.992	15724.47
632.193	15867.83
632.393	16304.05
632.594	15763.39
632.794	15638.46
632.994	15890.36
633.195	15953.85
633.395	15970.23
633.595	15497.15
633.796	15865.78
633.996	15697.85
634.196	16275.38
634.397	15771.58
634.597	15749.05
634.797	15867.83
634.997	16508.85
635.198	16091.06
635.398	15757.24
635.598	16119.73
635.798	16230.32
635.998	16201.65
636.199	15851.45
636.399	16025.53
636.599	15871.93
636.799	15888.31
636.999	16093.11
637.199	16488.37
637.399	16721.84
637.599	15898.55
637.799	16218.04
637.999	16111.54
638.199	16619.44
638.399	16019.38
638.599	16078.77
638.799	16551.85
638.999	16955.3
639.199	16101.3
639.399	16160.69
639.599	16852.91
639.799	16203.7
639.999	16228.28
640.199	16078.77
640.399	16605.1
640.599	16256.95
640.799	16422.83
640.998	16539.57
641.198	16889.77
641.398	16609.2
641.598	16680.88
641.798	16543.66
641.997	17835.93
642.197	16582.57
642.397	16508.85
642.597	16469.94
642.796	16914.34
642.996	17008.55
643.196	16822.19
643.395	16461.74
643.595	17061.8
643.795	16502.7
643.994	16410.54
644.194	16519.09
644.394	17123.24
644.593	17233.83
644.793	16635.82
644.992	16560.05
645.192	16881.58
645.392	16586.67
645.591	17004.46
645.791	16664.49
645.99	17403.81
646.19	17090.47
646.389	17008.55
646.589	16850.86
646.788	17233.83
646.987	17616.8
647.187	17289.12
647.386	17065.89
647.586	17182.63
647.785	17334.18
647.984	17113
648.184	17315.75
648.383	17221.54
648.582	16983.98
648.782	17080.23
648.981	17194.92
649.18	16994.22
649.38	17371.04
649.579	16777.13
649.778	17002.41
649.977	17493.92
650.177	17581.98
650.376	17274.79
650.575	17170.34
650.774	17690.52
650.973	17311.65
651.173	17022.89
651.372	17315.75
651.571	17600.41
651.77	17788.83
651.969	17094.57
652.168	17399.71
652.367	17364.9
652.566	17708.96
652.765	17512.35
652.964	17708.96
653.163	18165.65
653.362	17579.93
653.561	17233.83
653.76	17428.38
653.959	17739.68
654.158	18026.39
654.357	17668
654.556	17299.36
654.755	18257.81
654.954	17989.53
655.153	17665.95
655.352	17846.17
655.551	18386.83
655.749	17735.58
655.948	17350.56
656.147	17807.26
656.346	17868.7
656.545	17645.47
656.743	17788.83
656.942	17915.8
657.141	18030.49
657.34	17811.35
657.538	18012.06
657.737	17848.22
657.936	18014.1
658.135	18010.01
658.333	17967
658.532	18014.1
658.731	18456.47
658.929	18392.98
659.128	18255.76
659.326	18022.3
659.525	18589.58
659.724	18376.59
659.922	17700.76
660.121	17860.51
660.319	18085.78
660.518	17852.31
660.716	17985.43
660.915	18188.18
661.113	18685.84
661.312	18143.13
661.51	18401.17
661.709	18089.88
661.907	18452.37
662.105	18857.87
662.304	18266
662.502	18284.44
662.701	19206.02
662.899	18091.93
663.097	18653.07
663.296	18167.7
663.494	18755.47
663.692	18825.1
663.891	17887.13
664.089	18036.63
664.287	18646.93
664.485	18876.3
664.684	18372.5
664.882	18304.92
665.08	18401.17
665.278	18821
665.476	18208.66
665.675	18526.1
665.873	18970.51
666.071	19005.32
666.269	18272.15
666.467	18100.12
666.665	19173.25
666.863	18476.94
667.061	18767.76
667.259	18173.85
667.457	18589.58
667.655	18825.1
667.853	18399.12
668.051	18409.36
668.249	18530.19
668.447	18737.04
668.645	18171.8
668.843	18886.54
669.041	18800.52
669.239	18694.03
669.437	18749.32
669.635	18710.41
669.833	18685.84
670.031	18988.94
670.229	18552.72
670.426	18737.04
670.624	18673.55
670.822	18571.15
671.02	18706.32
671.218	18644.88
671.415	18411.41
671.613	18718.61
671.811	18624.4
672.009	18136.98
672.206	19371.91
672.404	18990.98
672.602	18767.76
672.799	18741.13
672.997	18810.76
673.195	19191.69
673.392	18874.25
673.59	18419.6
673.788	19015.56
673.985	18390.93
674.183	18659.21
674.38	18485.14
674.578	19373.96
674.775	18831.24
674.973	18816.91
675.17	18861.96
675.368	19273.6
675.565	18972.55
675.763	18636.69
675.96	18587.54
676.158	19492.74
676.355	18507.66
676.553	18800.52
676.75	18560.91
676.947	19132.29
677.145	18833.29
677.342	18775.95
677.539	18904.97
677.737	19298.18
677.934	19378.05
678.131	19021.7
678.329	18759.56
678.526	19165.06
678.723	19345.28
678.92	18966.41
679.118	18767.76
679.315	18886.54
679.512	19300.23
679.709	18665.36
679.906	18839.44
680.104	19206.02
680.301	19038.09
680.498	18581.39
680.695	18528.14
680.892	18857.87
681.089	18904.97
681.286	19074.95
681.483	18519.95
681.68	18925.45
681.877	19226.5
682.075	18904.97
682.272	18907.02
682.469	19265.41
682.665	19171.21
682.862	18534.29
683.059	18472.85
683.256	18843.53
683.453	19077
683.65	18798.48
683.847	18802.57
684.044	18913.16
684.241	18622.35
684.438	18823.05
684.635	18646.93
684.831	19457.92
685.028	19263.36
685.225	18421.65
685.422	18911.11
685.619	19058.57
685.815	18894.73
686.012	18886.54
686.209	18530.19
686.405	18331.54
686.602	19042.18
686.799	18294.68
686.996	18599.82
687.192	18378.64
687.389	19345.28
687.586	18724.75
687.782	18870.15
687.979	19711.87
688.175	19277.7
688.372	18802.57
688.568	18540.43
688.765	18812.81
688.962	19152.77
689.158	18941.83
689.355	18706.32
689.551	19179.4
689.748	18872.2
689.944	18888.59
690.14	18737.04
690.337	19150.73
690.533	18935.69
690.73	18528.14
690.926	19115.91
691.123	18911.11
691.319	19003.27
691.515	18800.52
691.712	18825.1
691.908	19044.23
692.104	19001.22
692.301	18788.24
692.497	18636.69
692.693	19058.57
692.889	19097.48
693.086	18698.13
693.282	18591.63
693.478	19044.23
693.674	19672.96
693.87	18636.69
694.067	18651.02
694.263	19195.78
694.459	18749.32
694.655	18653.07
694.851	18931.59
695.047	18929.55
695.243	18941.83
695.439	19042.18
695.635	18782.09
695.831	18839.44
696.027	18939.79
696.224	18397.07
696.42	18718.61
696.615	19378.05
696.811	19003.27
697.007	18624.4
697.203	18526.1
697.399	18921.35
697.595	19079.05
697.791	18706.32
697.987	18857.87
698.183	18761.61
698.379	18671.5
698.575	18952.07
698.77	18468.75
698.966	18997.13
699.162	18970.51
699.358	18765.71
699.554	18587.54
699.749	19064.71
699.945	19058.57
700.141	18689.93
700.337	18485.14
700.532	18796.43
700.728	18587.54
700.924	18550.67
701.119	18425.75
701.315	18827.15
701.511	18837.39
701.706	19095.43
701.902	18169.75
702.097	18716.56
702.293	18802.57
702.489	18554.77
702.684	18499.47
702.88	18937.74
703.075	18665.36
703.271	18673.55
703.466	18618.25
703.662	18663.31
703.857	18925.45
704.053	18579.34
704.248	18831.24
704.443	19017.61
704.639	19033.99
704.834	18739.08
705.03	18608.01
705.225	19038.09
705.42	19279.75
705.616	18771.85
705.811	18427.79
706.006	18896.78
706.202	18689.93
706.397	18632.59
706.592	18440.08
706.787	18970.51
706.983	18821
707.178	19009.42
707.373	18861.96
707.568	18825.1
707.763	19038.09
707.959	18612.11
708.154	18429.84
708.349	18882.44
708.544	19005.32
708.739	18749.32
708.934	18399.12
709.129	18997.13
709.324	19046.28
709.519	18827.15
709.714	18788.24
709.909	19201.93
710.104	18724.75
710.299	18821
710.494	18775.95
710.689	18931.59
710.884	18751.37
711.079	18755.47
711.274	18892.68
711.469	19261.32
711.664	18810.76
711.859	18663.31
712.054	18800.52
712.249	19019.66
712.443	19156.87
712.638	18499.47
712.833	18663.31
713.028	18747.28
713.223	18628.49
713.417	18816.91
713.612	18296.72
713.807	19212.17
714.002	19320.71
714.196	18894.73
714.391	18497.42
714.586	19019.66
714.78	18730.89
714.975	18397.07
715.17	18417.55
715.364	18864.01
715.559	19302.28
715.754	18200.47
715.948	18337.68
716.143	18864.01
716.337	18483.09
716.532	18778
716.726	18362.26
716.921	18829.2
717.115	19154.82
717.31	18653.07
717.504	19169.16
717.699	18689.93
717.893	18653.07
718.088	18372.5
718.282	18485.14
718.476	18812.81
718.671	18628.49
718.865	18329.49
719.059	18423.7
719.254	18810.76
719.448	18970.51
719.642	19896.19
719.837	18259.86
720.031	18788.24
720.225	18993.03
720.419	18419.6
720.614	18077.59
720.808	18724.75
721.002	18421.65
721.196	18063.26
721.39	18167.7
721.585	18687.89
721.779	18546.58
721.973	18425.75
722.167	17905.56
722.361	18495.38
722.555	18712.46
722.749	18155.41
722.943	18089.88
723.137	18044.82
723.331	18509.71
723.525	18421.65
723.719	18124.69
723.913	18708.37
724.107	18544.53
724.301	18220.95
724.495	17962.9
724.689	18771.85
724.883	18818.96
725.077	18102.17
725.271	18194.33
725.465	18450.32
725.659	18249.62
725.853	18220.95
726.046	17891.23
726.24	18214.8
726.434	18356.11
726.628	18149.27
726.822	18313.11
727.015	18958.22
727.209	18610.06
727.403	18435.99
727.596	18145.17
727.79	18548.62
727.984	18935.69
728.177	18302.87
728.371	18276.24
728.565	18669.45
728.758	18073.49
728.952	17751.96
729.146	18206.61
729.339	18759.56
729.533	18575.25
729.726	18331.54
729.92	18218.9
730.113	18700.17
730.307	18376.59
730.5	18266
730.694	18302.87
730.887	18306.96
731.081	18722.7
731.274	17901.47
731.468	18200.47
731.661	18384.79
731.854	18327.44
732.048	18130.84
732.241	18128.79
732.435	18386.83
732.628	18460.56
732.821	18227.09
733.014	18306.96
733.208	18190.23
733.401	18876.3
733.594	18390.93
733.788	17715.1
733.981	18821
734.174	18571.15
734.367	18304.92
734.56	18392.98
734.754	18626.45
734.947	18554.77
735.14	18128.79
735.333	18599.82
735.526	18810.76
735.719	18200.47
735.912	18108.31
736.105	18028.44
736.298	18458.51
736.491	18165.65
736.684	18227.09
736.877	18343.83
737.07	18528.14
737.263	18716.56
737.456	18247.57
737.649	18159.51
737.842	18802.57
738.035	18415.51
738.228	18177.94
738.421	18327.44
738.614	18909.07
738.807	18683.79
739	18167.7
739.192	18141.08
739.385	18591.63
739.578	18601.87
739.771	18677.65
739.964	18063.26
740.156	18544.53
740.349	18562.96
740.542	18737.04
740.735	18161.56
740.927	18605.97
741.12	18284.44
741.313	17983.38
741.505	18329.49
741.698	18513.81
741.891	18452.37
742.083	18411.41
742.276	18214.8
742.468	18538.38
742.661	18466.7
742.854	18110.36
743.046	18036.63
743.239	18841.48
743.431	18671.5
743.624	18327.44
743.816	18001.82
744.009	18497.42
744.201	18499.47
744.393	18440.08
744.586	18218.9
744.778	18704.27
744.971	18347.92
745.163	18335.63
745.355	18179.99
745.548	18319.25
745.74	18259.86
745.932	18167.7
746.125	18259.86
746.317	18825.1
746.509	18503.57
746.702	18091.93
746.894	18087.83
747.086	18321.3
747.278	18808.72
747.471	18519.95
747.663	18173.85
747.855	18575.25
748.047	18868.11
748.239	18003.86
748.431	18098.07
748.623	18816.91
748.815	18456.47
749.008	18030.49
749.2	17856.41
749.392	18372.5
749.584	18237.33
749.776	18042.78
749.968	18241.43
750.16	18700.17
750.352	18100.12
750.544	17964.95
750.736	17901.47
750.928	18358.16
751.12	18200.47
751.311	18016.15
751.503	17975.19
751.695	18380.69
751.887	17964.95
752.079	17850.27
752.271	17725.34
752.463	19079.05
752.654	18087.83
752.846	17895.32
753.038	17874.84
753.23	18087.83
753.421	18313.11
753.613	18204.56
753.805	18284.44
753.997	18395.03
754.188	18509.71
754.38	17862.55
754.572	17868.7
754.763	18216.85
754.955	18335.63
755.146	17835.93
755.338	18085.78
755.53	18165.65
755.721	18120.6
755.913	17551.26
756.104	17686.43
756.296	17799.07
756.487	18034.58
756.679	17614.75
756.87	17594.27
757.062	17809.31
757.253	17833.88
757.445	17473.44
757.636	18149.27
757.827	17999.77
758.019	18530.19
758.21	17086.37
758.401	17551.26
758.593	18419.6
758.784	18298.77
758.975	16965.54
759.167	17352.61
759.358	17792.92
759.549	17938.33
759.74	17600.41
759.932	17352.61
760.123	18007.96
760.314	17528.74
760.505	17586.08
760.696	17387.43
760.888	17971.1
761.079	17346.47
761.27	17397.67
761.461	17344.42
761.652	18065.3
761.843	17379.23
762.034	17493.92
762.225	17530.78
762.416	17409.95
762.607	17514.4
762.798	17352.61
762.989	17004.46
763.18	18227.09
763.371	17178.53
763.562	17383.33
763.753	17069.99
763.944	17731.48
764.135	17772.44
764.326	17348.51
764.517	17342.37
764.708	17428.38
764.899	17334.18
765.089	17121.19
765.28	17164.2
765.471	17389.47
765.662	17586.08
765.853	17182.63
766.043	17024.93
766.234	17405.86
766.425	17420.19
766.615	17239.97
766.806	16883.63
766.997	17661.85
767.187	17332.13
767.378	16910.25
767.569	16668.59
767.759	17158.05
767.95	17158.05
768.141	17008.55
768.331	16924.58
768.522	16834.47
768.712	17274.79
768.903	16926.63
769.093	16633.77
769.284	17538.98
769.474	17244.07
769.665	16721.84
769.855	16701.36
770.046	17340.32
770.236	16922.54
770.426	16918.44
770.617	16668.59
770.807	16973.74
770.998	16916.39
771.188	16742.32
771.378	16400.3
771.569	17199.01
771.759	17248.16
771.949	16476.08
772.139	16508.85
772.33	16961.45
772.52	17201.06
772.71	16750.51
772.9	16277.43
773.09	17137.57
773.281	17135.53
773.471	16199.6
773.661	16453.55
773.851	16891.82
774.041	16633.77
774.231	16496.56
774.421	16488.37
774.611	17178.53
774.802	16601.01
774.992	16474.03
775.182	16318.39
775.372	16476.08
775.562	16779.18
775.752	16379.82
775.942	16242.61
776.131	16969.64
776.321	16715.69
776.511	16361.39
776.701	16183.22
776.891	16981.93
777.081	16428.98
777.271	16263.09
777.461	15978.42
777.651	16541.61
777.84	16601.01
778.03	16302
778.22	16168.88
778.41	16637.87
778.599	16457.65
778.789	16250.8
778.979	15884.22
779.169	16416.69
779.358	16330.67
779.548	16551.85
779.738	15798.2
779.927	16240.56
780.117	16023.48
780.307	15855.54
780.496	15695.8
780.686	16420.78
780.875	16670.64
781.065	15869.88
781.254	15802.3
781.444	16195.51
781.633	16162.74
781.823	15495.1
782.012	15939.51
782.202	15976.37
782.391	16089.01
782.581	15630.27
782.77	16177.08
782.96	16519.09
783.149	15783.87
783.338	15865.78
783.528	15755.19
783.717	16498.61
783.906	16314.29
784.096	15560.64
784.285	15869.88
784.474	15749.05
784.663	15802.3
784.853	15839.16
785.042	15947.7
785.231	15769.53
785.42	16271.28
785.61	15675.32
785.799	15298.5
785.988	15781.82
786.177	15572.93
786.366	15472.57
786.555	15728.57
786.744	15978.42
786.933	15839.16
787.122	15126.47
787.312	15484.86
787.501	15572.93
787.69	15896.5
787.879	15638.46
788.068	15531.97
788.257	15374.27
788.445	15456.19
788.634	15566.78
788.823	15329.22
789.012	16232.37
789.201	15761.34
789.39	15439.81
789.579	15097.8
789.768	15525.82
789.957	15628.22
790.145	15380.42
790.334	14981.06
790.523	15460.29
790.712	15513.53
790.9	15327.17
791.089	15122.37
791.278	15738.81
791.467	15550.4
791.655	15224.77
791.844	15660.99
792.033	15142.85
792.221	15271.87
792.41	14821.32
792.599	14911.43
792.787	15859.64
792.976	15640.51
793.164	14962.63
793.353	15032.26
793.541	15482.81
793.73	15941.56
793.918	14987.21
794.107	14856.14
794.295	15235.01
794.484	15376.32
794.672	14800.84
794.861	15132.61
795.049	15353.79
795.238	15601.6
795.426	14733.26
795.614	14991.3
795.803	15329.22
795.991	15706.04
796.179	14829.51
796.368	14727.11
796.556	15538.11
796.744	14819.27
796.932	14858.18
797.121	14788.55
797.309	15067.08
797.497	15243.2
797.685	14921.67
797.874	14788.55
798.062	15329.22
798.25	15474.62
798.438	14958.53
798.626	14792.65
798.814	15298.5
799.002	15777.72
799.19	15089.6
799.378	14956.49
799.566	15605.69
799.755	15390.66
799.943	14905.29
800.131	14876.62
800.318	15441.86
800.506	15454.14
800.694	15077.32
800.882	15165.38
801.07	15439.81
801.258	15085.51
801.446	15222.72
801.634	14858.18
801.822	15169.48
802.01	15038.41
802.197	15204.29
802.385	15097.8
802.573	15460.29
802.761	15073.22
802.949	14999.49
803.136	14800.84
803.324	15624.12
803.512	15394.75
803.699	14841.8
803.887	14733.26
804.075	15540.16
804.262	15151.04
804.45	14831.56
804.638	15142.85
804.825	15130.56
805.013	15093.7
805.201	14976.97
805.388	14907.34
805.576	15167.43
805.763	15886.26
805.951	15091.65
806.138	15486.91
806.326	15871.93
806.513	15488.96
806.701	15167.43
806.888	15194.05
807.075	15525.82
807.263	15847.35
807.45	15149
807.638	15093.7
807.825	15914.94
808.012	16000.95
808.2	15306.69
808.387	15607.74
808.574	15765.43
808.761	16058.29
808.949	15153.09
809.136	15611.84
809.323	15574.97
809.51	15730.62
809.698	15751.1
809.885	15331.26
810.072	15871.93
810.259	15927.22
810.446	15652.8
810.633	15237.06
810.82	16150.45
811.008	16363.44
811.195	15550.4
811.382	15648.7
811.569	15683.52
811.756	15726.52
811.943	15712.19
812.13	15456.19
812.317	15587.26
812.504	15755.19
812.691	15540.16
812.878	15859.64
813.064	16105.4
813.251	16072.63
813.438	15298.5
813.625	15706.04
813.812	15869.88
813.999	15908.79
814.186	15572.93
814.372	15540.16
814.559	15863.74
814.746	16209.84
814.933	15284.16
815.12	15783.87
815.306	15642.56
815.493	15574.97
815.68	15396.8
815.866	15597.5
816.053	15945.66
816.24	16013.24
816.426	15540.16
816.613	15562.69
816.799	16193.46
816.986	16183.22
817.173	15425.47
817.359	15368.13
817.546	16011.19
817.732	15302.59
817.919	15185.86
818.105	15603.64
818.292	15482.81
818.478	15728.57
818.665	15765.43
818.851	15753.15
819.037	16144.31
819.224	15740.86
819.41	15560.64
819.597	15486.91
819.783	16037.81
819.969	15617.98
820.156	15486.91
820.342	15478.72
820.528	16357.3
820.714	15759.29
820.901	15865.78
821.087	15204.29
821.273	15814.59
821.459	15480.77
821.646	15402.94
821.832	15364.03
822.018	15505.34
822.204	15581.12
822.39	15370.18
822.576	15216.58
822.762	15607.74
822.948	15554.49
823.134	15474.62
823.32	15366.08
823.507	15355.84
823.693	15366.08
823.879	15441.86
824.065	15060.93
824.25	15261.63
824.436	15374.27
824.622	15056.84
824.808	15165.38
824.994	15316.93
825.18	15284.16
825.366	14921.67
825.552	14997.45
825.738	15478.72
825.923	15546.3
826.109	15196.1
826.295	14725.07
826.481	15165.38
826.667	15210.43
826.852	15159.24
827.038	15067.08
827.224	15624.12
827.409	15644.6
827.595	14968.77
827.781	14942.15
827.966	15425.47
828.152	15261.63
828.338	15071.17
828.523	14626.76
828.709	15128.52
828.894	15269.83
829.08	14841.8
829.266	14759.88
829.451	15067.08
829.637	15054.79
829.822	14862.28
830.008	14759.88
830.193	15132.61
830.378	15243.2
830.564	14872.52
830.749	14639.05
830.935	15142.85
831.12	14921.67
831.305	14653.39
831.491	14690.25
831.676	14686.15
831.861	15169.48
832.047	14538.7
832.232	14419.92
832.417	15108.04
832.602	14956.49
832.788	14557.13
832.973	14411.73
833.158	14790.6
833.343	14432.21
833.528	14637
833.714	14507.98
833.899	14964.68
834.084	15192
834.269	14733.26
834.454	14266.32
834.639	14913.48
834.824	14489.55
835.009	14600.14
835.194	14450.64
835.379	14774.22
835.564	14938.05
835.749	14350.29
835.934	14043.09
836.119	14827.46
836.304	14454.73
836.489	14419.92
836.674	14501.84
836.859	14385.1
837.044	14827.46
837.228	14100.44
837.413	14229.46
837.598	14602.19
837.783	14671.82
837.968	14319.57
838.152	14147.54
838.337	13889.49
838.522	14532.56
838.707	14745.55
838.891	14620.62
839.076	14477.26
839.261	14698.44
839.445	13842.39
839.63	14186.45
839.815	14573.52
839.999	14020.56
840.184	13842.39
840.368	14014.42
840.553	14548.94
840.737	14426.06
840.922	13666.27
841.106	13901.78
841.291	13801.43
841.475	14143.44
841.66	13748.18
841.844	13770.71
842.029	14835.66
842.213	13807.58
842.397	13766.62
842.582	13776.86
842.766	14381.01
842.951	14419.92
843.135	13778.9
843.319	13854.68
843.504	14055.38
843.688	14372.82
843.872	13637.59
844.056	13504.48
844.241	14192.59
844.425	14045.14
844.609	13905.88
844.793	13436.89
844.977	14161.87
845.161	13811.67
845.346	13375.45
845.53	13807.58
845.714	13975.51
845.898	14039
846.082	13260.77
846.266	13451.23
846.45	13946.84
846.634	13897.69
846.818	13389.79
847.002	13813.72
847.186	13895.64
847.37	13250.53
847.554	13246.43
847.738	13545.44
847.922	13721.56
848.106	13885.4
848.29	13291.49
848.473	13510.62
848.657	13541.34
848.841	13809.62
849.025	13334.5
849.209	13162.47
849.392	13789.14
849.576	13400.03
849.76	12910.57
849.944	13373.41
850.127	13819.86
850.311	13238.24
850.495	12922.85
850.678	12953.57
850.862	13813.72
851.046	13715.42
851.229	13404.13
851.413	13037.54
851.596	13205.47
851.78	13561.82
851.964	13303.78
852.147	12912.61
852.331	14000.09
852.514	13715.42
852.698	13103.07
852.881	12722.15
853.065	13520.86
853.248	13211.62
853.431	13242.34
853.615	12965.86
853.798	13719.51
853.982	13342.69
854.165	12910.57
854.348	12687.34
854.532	13012.96
854.715	13029.35
854.898	12994.53
855.081	12799.98
855.265	13256.67
855.448	13303.78
855.631	12685.29
855.814	12859.37
855.997	13266.91
856.181	12808.17
856.364	12740.58
856.547	12472.3
856.73	13098.98
856.913	13029.35
857.096	12275.7
857.279	12881.89
857.462	12697.58
857.645	13168.61
857.828	12697.58
858.011	12636.14
858.194	12713.96
858.377	13141.99
858.56	12414.96
858.743	12636.14
858.926	12386.29
859.109	12951.53
859.292	12468.2
859.475	12410.86
859.658	13008.87
859.841	12834.79
860.023	12134.39
860.206	12111.86
860.389	12613.61
860.572	12918.76
860.755	12306.41
860.937	12349.42
861.12	12541.93
861.303	12771.3
861.486	12097.52
861.668	12001.27
861.851	12597.23
862.034	12537.84
862.216	12093.43
862.399	11816.95
862.581	12468.2
862.764	12777.45
862.947	12060.66
863.129	11798.52
863.312	11712.5
863.494	12615.66
863.677	12365.81
863.859	12023.8
864.042	12505.07
864.224	12410.86
864.406	12142.58
864.589	11632.63
864.771	12382.19
864.954	11700.22
865.136	11821.05
865.318	11565.05
865.501	12128.24
865.683	11597.82
865.865	11759.61
866.048	11718.65
866.23	11988.98
866.412	12122.1
866.594	11431.93
866.777	11759.61
866.959	12222.45
867.141	11874.29
867.323	11960.31
867.505	11980.79
867.687	11952.12
867.869	12046.32
868.052	11644.92
868.234	11329.53
868.416	11833.33
868.598	12017.65
868.78	11773.94
868.962	11354.11
869.144	12218.35
869.326	12074.99
869.508	11476.99
869.69	11642.87
869.872	11640.83
870.054	12169.2
870.236	11323.39
870.417	11517.95
870.599	11821.05
870.781	12234.74
870.963	11771.9
871.145	11460.6
871.327	11378.69
871.508	12007.41
871.69	11646.97
871.872	11653.11
872.054	11945.97
872.235	11972.6
872.417	11476.99
872.599	11339.77
872.78	12185.58
872.962	11827.19
873.144	11343.87
873.325	11487.23
873.507	12320.75
873.689	11862.01
873.87	11290.62
874.052	11468.8
874.233	11593.72
874.415	12042.23
874.596	11575.29
874.778	11534.33
874.959	11755.51
875.141	12177.39
875.322	11519.99
875.503	11583.48
875.685	11915.25
875.866	11382.78
876.048	11313.15
876.229	11417.6
876.41	11692.02
876.592	11993.08
876.773	11223.04
876.954	11286.53
877.136	12173.3
877.317	11816.95
877.498	11442.17
877.679	11515.9
877.86	12197.87
878.042	11802.61
878.223	11720.7
878.404	11933.68
878.585	12050.42
878.766	12441.58
878.947	11923.44
879.128	11739.13
879.309	12064.75
879.49	12210.16
879.672	11898.87
879.853	11857.91
880.034	11620.35
880.215	11966.45
880.396	11894.77
880.576	11831.29
880.757	11892.73
880.938	12629.99
881.119	11927.54
881.3	11661.3
881.481	11974.64
881.662	12931.05
881.843	11823.09
882.023	11685.88
882.204	12347.37
882.385	12109.81
882.566	11980.79
882.747	11825.14
882.927	12386.29
883.108	12337.13
883.289	12072.95
883.469	12128.24
883.65	12050.42
883.831	12255.22
884.011	12242.93
884.192	12257.26
884.373	12716.01
884.553	12400.62
884.734	12314.61
884.914	12357.61
885.095	13109.22
885.275	12742.63
885.456	12537.84
885.636	12251.12
885.817	12525.55
885.997	12521.45
886.178	12140.53
886.358	12292.08
886.538	12539.88
886.719	13621.21
886.899	12079.09
887.08	12607.47
887.26	12804.07
887.44	12406.77
887.621	11857.91
887.801	12406.77
887.981	13373.41
888.161	12761.06
888.342	12335.09
888.522	12472.3
888.702	12810.22
888.882	12906.47
889.062	12374
889.242	12267.5
889.423	13002.72
889.603	12773.35
889.783	12623.85
889.963	12412.91
890.143	12777.45
890.323	12836.84
890.503	12443.63
890.683	12537.84
890.863	12713.96
891.043	12976.1
891.223	12679.15
891.403	12808.17
891.583	12769.26
891.763	13031.4
891.943	12533.74
892.122	12476.4
892.302	12742.63
892.482	12713.96
892.662	12742.63
892.842	12736.49
893.022	12775.4
893.201	12734.44
893.381	12574.7
893.561	12650.47
893.741	12996.58
893.92	13078.5
894.1	12566.51
894.28	12724.2
894.459	13262.82
894.639	12912.61
894.819	12783.59
894.998	12736.49
895.178	12750.82
895.357	12861.41
895.537	12738.54
895.716	12533.74
895.896	12877.8
896.075	13060.07
896.255	12732.39
896.434	12371.95
896.614	13072.36
896.793	13191.14
896.973	12701.67
897.152	12466.16
897.331	13006.82
897.511	12992.48
897.69	12394.48
897.87	12632.04
898.049	13058.02
898.228	12810.22
898.407	12691.43
898.587	12615.66
898.766	12822.5
898.945	12738.54
899.124	12539.88
899.304	12662.76
899.483	12924.9
899.662	13318.11
899.841	12388.33
900.02	12115.95
900.199	13023.2
900.378	12881.89
900.557	12122.1
900.737	12136.43
900.916	12939.24
901.095	12644.33
901.274	12845.03
901.453	12277.74
901.632	12410.86
901.811	12330.99
901.989	11960.31
902.168	12001.27
902.347	12763.11
902.526	12240.88
902.705	12214.26
902.884	12193.78
903.063	12963.81
903.242	12840.93
903.42	12183.54
903.599	12308.46
903.778	12787.69
903.957	12830.69
904.135	12285.94
904.314	12161.01
904.493	12386.29
904.672	12507.12
904.85	11991.03
905.029	12140.53
905.207	12617.71
905.386	12982.24
905.565	11900.92
905.743	12013.56
905.922	12101.62
906.1	12406.77
906.279	11792.37
906.457	11806.71
906.636	12212.21
906.814	12066.8
906.993	11810.81
907.171	11956.21
907.35	12238.83
907.528	12222.45
907.707	12191.73
907.885	11640.83
908.063	12384.24
908.242	11732.98
908.42	11450.36
908.598	11538.43
908.777	12255.22
908.955	11933.68
909.133	11681.78
909.311	11522.04
909.49	11759.61
909.668	11886.58
909.846	11620.35
910.024	11321.34
910.202	11991.03
910.38	11888.63
910.559	11204.61
910.737	11442.17
910.915	11737.08
911.093	11685.88
911.271	11481.08
911.449	11513.85
911.627	11601.91
911.805	12128.24
911.983	11399.16
912.161	11241.47
912.339	11583.48
912.517	11716.6
912.695	11591.67
912.872	11384.83
913.05	11325.44
913.228	11724.79
913.406	11114.5
913.584	10930.18
913.762	11317.25
913.939	11317.25
914.117	10876.93
914.295	10915.84
914.473	11327.49
914.65	11347.97
914.828	10840.07
915.006	10801.16
915.184	10911.75
915.361	11124.74
915.539	10915.84
915.716	10944.52
915.894	10981.38
916.072	11259.9
916.249	11079.68
916.427	10870.79
916.604	10629.13
916.782	11091.97
916.959	10539.02
917.137	10829.83
917.314	10969.09
917.492	11040.77
917.669	10844.17
917.847	10559.5
918.024	10784.77
918.201	10770.44
918.379	10332.17
918.556	10463.24
918.733	10944.52
918.911	10844.17
919.088	10674.18
919.265	10170.38
919.442	10764.29
919.62	10545.16
919.797	10127.38
919.974	10192.91
920.151	10385.42
920.328	10262.54
920.506	9916.44
920.683	10309.65
920.86	10063.89
921.037	10092.56
921.214	9816.08
921.391	9936.92
921.568	10313.74
921.745	10108.94
921.922	9955.35
922.099	9734.17
922.276	10594.31
922.453	10166.29
922.63	9789.46
922.807	10143.76
922.984	10168.34
923.161	9873.43
923.338	9969.68
923.514	9588.76
923.691	9691.16
923.868	9898
924.045	9467.93
924.222	9426.97
924.399	9838.61
924.575	10008.59
924.752	9590.81
924.929	9400.35
925.105	9650.2
925.282	9367.58
925.459	9199.65
925.635	9392.16
925.812	9480.22
925.989	9457.69
926.165	9293.85
926.342	8886.31
926.518	9082.91
926.695	9293.85
926.871	8953.89
927.048	8720.42
927.224	9332.76
927.401	8937.51
927.577	9066.53
927.754	8605.74
927.93	9209.89
928.107	9134.11
928.283	8630.31
928.459	8833.06
928.636	9013.28
928.812	8859.68
928.988	8472.62
929.165	8435.75
929.341	8945.7
929.517	8661.03
929.693	8792.1
929.87	7958.58
930.046	8720.42
930.222	8491.05
930.398	8290.35
930.574	8411.18
930.751	8583.21
930.927	8394.79
931.103	8341.55
931.279	8239.15
931.455	8116.27
931.631	8214.57
931.807	7931.95
931.983	7876.66
932.159	7788.6
932.335	8136.75
932.511	7948.34
932.687	7927.86
932.863	8228.91
933.039	7782.45
933.215	7569.46
933.391	7536.7
933.566	7835.7
933.742	7931.95
933.918	7368.76
934.094	7186.49
934.27	7594.04
934.445	7516.22
934.621	7469.11
934.797	7102.53
934.973	7561.27
935.148	7268.41
935.324	6967.36
935.5	6776.9
935.675	7213.12
935.851	7020.61
936.027	6746.18
936.202	6619.21
936.378	6723.65
936.553	6662.21
936.729	6801.47
936.904	6195.28
937.08	6015.05
937.255	6131.79
937.431	5926.99
937.606	5787.73
937.782	5779.54
937.957	6148.17
938.133	5705.81
938.308	5498.97
938.483	5453.91
938.659	5369.94
938.834	5376.09
939.009	5021.79
939.185	5245.02
939.36	5156.96
939.535	4882.53
939.71	5081.18
939.886	5292.12
940.061	5261.4
940.236	4991.07
940.411	4780.13
940.586	4919.39
940.761	5199.96
940.937	4714.59
941.112	4444.26
941.287	4839.52
941.462	4620.39
941.637	4223.08
941.812	4302.95
941.987	4462.69
942.162	4538.47
942.337	4286.57
942.512	4350.06
942.687	4487.27
942.862	4374.63
943.037	4016.24
943.212	3801.2
943.386	4182.12
943.561	4458.6
943.736	4208.75
943.911	4378.73
944.086	4477.03
944.26	4153.45
944.435	3965.04
944.61	4081.77
944.785	4421.74
944.959	4696.16
945.134	3911.79
945.309	3862.64
945.483	3958.89
945.658	4372.58
945.833	3569.78
946.007	3823.73
946.182	4356.2
946.357	3942.51
946.531	3823.73
946.706	3827.82
946.88	3821.68
947.055	4378.73
947.229	3928.17
947.404	3788.91
947.578	4167.79
947.752	3952.75
947.927	3770.48
948.101	3733.62
948.276	4214.89
948.45	4114.54
948.624	3895.41
948.799	3809.39
948.973	4214.89
949.147	3838.06
949.321	4022.38
949.496	3932.27
949.67	4290.67
949.844	4145.26
950.018	3960.94
950.193	4085.87
950.367	4671.59
950.541	4114.54
950.715	4046.96
950.889	4165.74
951.063	4069.48
951.237	4415.59
951.411	3543.16
951.585	3747.95
951.759	4313.19
951.933	4141.16
952.107	3797.1
952.281	4120.68
952.455	4372.58
952.629	4399.21
952.803	3717.23
952.977	3840.11
953.151	4194.41
953.325	4286.57
953.499	4106.35
953.672	3876.98
953.846	3858.54
954.02	3960.94
954.194	3842.16
954.368	3932.27
954.541	4268.14
954.715	3997.81
954.889	3969.13
955.062	3672.18
955.236	4149.36
955.41	3848.3
955.583	3965.04
955.757	3567.73
955.93	3989.61
956.104	3645.56
956.278	3840.11
956.451	3833.97
956.625	4104.3
956.798	4577.38
956.972	4102.25
957.145	3682.42
957.319	4151.4
957.492	3985.52
957.665	3819.63
957.839	3719.28
958.012	4003.95
958.185	3854.45
958.359	3876.98
958.532	3901.55
958.705	4223.08
958.879	4106.35
959.052	3913.84
959.225	3440.76
959.398	3805.3
959.572	4112.49
959.745	3801.2
959.918	3692.66
960.091	3758.19
960.264	4028.53
960.438	3618.93
960.611	3588.21
960.784	4067.44
960.957	3836.02
961.13	4071.53
961.303	3612.79
961.476	3895.41
961.649	4094.06
961.822	3659.89
961.995	3788.91
962.168	3893.36
962.341	4001.9
962.514	3641.46
962.686	3594.36
962.859	3821.68
963.032	4008.05
963.205	3584.12
963.378	3348.6
963.551	3895.41
963.723	3737.71
963.896	3817.58
964.069	3786.86
964.242	3758.19
964.414	4092.01
964.587	3762.29
964.76	3670.13
964.932	3811.44
965.105	3776.63
965.278	3602.55
965.45	3526.77
965.623	3766.39
965.795	3901.55
965.968	3463.29
966.14	3553.4
966.313	3676.27
966.485	3821.68
966.658	3580.02
966.83	3504.25
967.003	3915.89
967.175	3854.45
967.348	3432.57
967.52	3530.87
967.692	4038.77
967.865	3881.07
968.037	3584.12
968.209	3756.15
968.382	3582.07
968.554	3883.12
968.726	3565.68
968.898	3315.83
969.071	3692.66
969.243	3807.34
969.415	3606.64
969.587	3612.79
969.759	4192.36
969.932	3940.46
970.104	3410.04
970.276	3094.65
970.448	3479.67
970.62	3469.43
970.792	3553.4
970.964	3477.62
971.136	4028.53
971.308	3737.71
971.48	3299.45
971.652	3389.56
971.824	3825.78
971.996	3518.58
972.168	3332.22
972.339	3473.53
972.511	3760.24
972.683	3567.73
972.855	3430.52
973.027	3367.03
973.199	3504.25
973.37	3649.65
973.542	3424.37
973.714	3528.82
973.886	3457.14
974.057	3793.01
974.229	3174.52
974.401	3293.3
974.572	3295.35
974.744	3084.41
974.915	3151.99
975.087	3072.12
975.259	3784.82
975.43	3240.06
975.602	3154.04
975.773	3072.12
975.945	3330.17
976.116	3559.54
976.288	3078.27
976.459	3498.1
976.63	3238.01
976.802	3399.8
976.973	3084.41
977.145	3420.28
977.316	3799.15
977.487	3352.7
977.659	3264.63
977.83	3129.47
978.001	3711.09
978.172	3463.29
978.344	3070.08
978.515	3121.28
978.686	3221.63
978.857	3768.43
979.028	3080.32
979.2	3012.73
979.371	3637.36
979.542	3219.58
979.713	3256.44
979.884	2621.57
980.055	3248.25
980.226	3147.9
980.397	2955.39
980.568	2982.01
980.739	3403.89
980.91	3047.55
981.081	3090.56
981.252	3080.32
981.423	3309.69
981.594	3276.92
981.765	2963.58
981.936	3154.04
982.106	3180.67
982.277	3512.44
982.448	2906.24
982.619	3076.22
982.79	3151.99
982.96	3393.65
983.131	3014.78
983.302	2672.77
983.472	2963.58
983.643	3223.67
983.814	2971.77
983.984	2822.27
984.155	3037.31
984.326	3389.56
984.496	3029.12
984.667	2865.28
984.837	2859.14
985.008	3430.52
985.178	2945.15
985.349	2973.82
985.519	2961.53
985.69	2865.28
985.86	2908.29
986.031	2674.82
986.201	3117.18
986.371	3156.09
986.542	2601.09
986.712	2685.06
986.882	3164.28
987.053	3076.22
987.223	2662.53
987.393	2814.08
987.563	2912.38
987.734	3158.14
987.904	3039.36
988.074	2517.12
988.244	2988.16
988.414	2918.53
988.585	2654.34
988.755	2834.56
988.925	2824.32
989.095	3254.39
989.265	2519.17
989.435	2654.34
989.605	3072.12
989.775	2926.72
989.945	2840.7
990.115	2564.23
990.285	2748.54
990.455	2916.48
990.625	2812.03
990.795	2504.84
990.965	3170.43
991.134	2558.08
991.304	2422.92
991.474	2443.4
991.644	2877.57
991.814	3188.86
991.984	2381.96
992.153	2517.12
992.323	2730.11
992.493	2697.35
992.662	2195.59
992.832	2654.34
993.002	2660.48
993.171	2715.78
993.341	2369.67
993.511	2715.78
993.68	2521.22
993.85	2959.49
994.019	2351.24
994.189	2496.64
994.358	2629.76
994.528	2558.08
994.697	2162.83
994.867	2283.66
995.036	2842.75
995.206	2609.28
995.375	2283.66
995.544	2441.35
995.714	2721.92
995.883	2592.9
996.052	2476.16
996.222	2103.43
996.391	3068.03
996.56	2547.84
996.73	2209.93
996.899	2257.03
997.068	3098.75
997.237	2467.97
997.406	2209.93
997.576	2220.17
997.745	2621.57
997.914	2680.96
998.083	2003.08
998.252	2146.44
998.421	2500.74
998.59	2320.52
998.759	2193.55
998.928	2039.95
999.097	2838.66
999.266	2644.1
999.435	2322.57
999.604	2082.95
999.773	2947.2
999.942	2486.4
1000.111	2027.66
1000.28	1908.88
1000.448	2250.89
1000.617	2097.29
1000.786	2230.41
1000.955	2007.18
1001.124	2529.41
1001.292	3063.93
1001.461	2097.29
1001.63	2095.24
1001.798	2660.48
1001.967	2703.49
1002.136	1892.49
1002.304	2050.19
1002.473	2523.27
1002.642	2390.15
1002.81	1976.46
1002.979	2064.52
1003.147	2435.21
1003.316	2738.3
1003.484	1990.8
1003.653	1943.69
1003.821	2556.04
1003.99	2240.65
1004.158	2193.55
1004.327	2113.67
1004.495	2510.98
1004.663	2035.85
1004.832	2033.8
1005	1810.58
1005.168	2474.12
1005.337	2279.56
1005.505	1867.92
1005.673	2117.77
1005.842	2265.22
1006.01	2320.52
1006.178	1786
1006.346	1845.39
1006.514	2351.24
1006.683	2431.11
1006.851	1902.73
1007.019	1677.46
1007.187	1865.87
1007.355	1765.52
1007.523	1585.3
1007.691	1659.03
1007.859	1777.81
1008.027	2420.87
1008.195	1781.9
1008.363	1650.83
1008.531	2173.07
1008.699	1921.17
1008.867	1550.48
1009.035	1691.79
1009.203	2377.86
1009.37	2136.2
1009.538	1753.23
1009.706	2171.02
1009.874	2058.38
1010.042	1960.08
1010.209	1632.4
1010.377	1636.5
1010.545	2175.11
1010.713	2033.8
1010.88	1659.03
1011.048	1794.19
1011.216	1937.55
1011.383	2289.8
1011.551	1558.67
1011.718	1554.58
1011.886	2281.61
1012.054	2015.37
1012.221	1566.87
1012.389	1505.43
1012.556	1796.24
1012.724	2429.06
1012.891	1695.89
1013.058	1310.87
1013.226	1962.12
1013.393	2068.62
1013.561	1503.38
1013.728	1317.01
1013.895	2064.52
1014.063	2109.58
1014.23	1433.75
1014.397	1413.27
1014.565	2035.85
1014.732	1771.66
1014.899	1519.76
1015.066	1310.87
1015.233	1872.01
1015.401	1968.27
1015.568	1499.28
1015.735	1489.04
1015.902	1831.05
1016.069	1943.69
1016.236	1468.56
1016.403	1341.59
1016.57	1652.88
1016.737	1933.45
1016.904	1390.74
1017.071	1204.38
1017.238	1558.67
1017.405	1826.96
1017.572	1409.17
1017.739	1568.91
1017.906	1826.96
1018.073	1935.5
1018.24	1335.45
1018.407	1474.71
1018.573	1941.65
1018.74	1624.21
1018.907	1380.5
1019.074	1054.87
1019.241	1941.65
1019.407	1808.53
1019.574	1312.92
1019.741	1185.94
1019.907	1800.34
1020.074	1783.95
1020.241	999.58
1020.407	1208.47
1020.574	1749.14
1020.74	1740.94
1020.907	1269.91
1021.073	1169.56
1021.24	2078.86
1021.406	1906.83
1021.573	1052.83
1021.739	1183.9
1021.906	1745.04
1022.072	1456.28
1022.239	1282.2
1022.405	1210.52
1022.571	1628.31
1022.738	1415.32
1022.904	1081.5
1023.07	1175.7
1023.237	1527.96
1023.403	1794.19
1023.569	1147.03
1023.735	1112.22
1023.902	1630.35
1024.068	1527.96
1024.234	1110.17
1024.4	1009.82
1024.566	1491.09
1024.732	1695.89
1024.898	1091.74
1025.065	966.81
1025.231	1638.55
1025.397	1364.12
1025.563	1030.3
1025.729	989.34
1025.895	979.1
1026.061	1081.5
1026.227	841.89
1026.392	1136.79
1026.558	1650.83
1026.724	1435.8
1026.89	968.86
1027.056	1007.77
1027.222	1409.17
1027.388	1251.48
1027.553	981.15
1027.719	962.72
1027.885	1753.23
1028.051	1474.71
1028.216	696.48
1028.382	981.15
1028.548	1579.15
1028.713	1257.62
1028.879	737.44
1029.045	1142.94
1029.21	1642.64
1029.376	1552.53
1029.541	997.53
1029.707	940.19
1029.873	1443.99
1030.038	1427.6
1030.204	843.93
1030.369	929.95
1030.534	1429.65
1030.7	1114.27
1030.865	907.42
1031.031	880.8
1031.196	1360.02
1031.361	1304.73
1031.527	788.64
1031.692	872.61
1031.857	893.09
1032.023	1382.55
1032.188	866.46
1032.353	860.32
1032.518	1497.24
1032.684	1331.35
1032.849	721.06
1033.014	872.61
1033.179	1335.45
1033.344	1339.54
1033.509	874.65
1033.674	741.54
1033.839	1384.6
1034.004	1364.12
1034.17	858.27
1034.335	735.39
1034.5	1042.59
1034.664	995.48
1034.829	764.06
1034.994	802.97
1035.159	1159.32
1035.324	1161.37
1035.489	729.25
1035.654	592.03
1035.819	1450.13
1035.984	1241.24
1036.148	792.73
1036.313	817.31
1036.478	1380.5
1036.643	1194.14
1036.807	673.95
1036.972	630.95
1037.137	1409.17
1037.301	1095.83
1037.466	561.31
1037.631	747.68
1037.795	1290.39
1037.96	1067.16
1038.124	923.8
1038.289	463.01
1038.454	1259.67
1038.618	1257.62
1038.783	749.73
1038.947	807.07
1039.111	1095.83
1039.276	938.14
1039.44	616.61
1039.605	1151.13
1039.769	880.8
1039.933	1087.64
1040.098	757.92
1040.262	893.09
1040.426	1282.2
1040.591	1183.9
1040.755	575.65
1040.919	641.18
1041.083	1157.27
1041.248	954.52
1041.412	524.45
1041.576	639.14
1041.74	934.04
1041.904	1204.38
1042.068	624.8
1042.232	632.99
1042.397	1183.9
1042.561	1110.17
1042.725	385.19
1042.889	766.11
1043.053	1056.92
1043.217	946.33
1043.381	637.09
1043.544	436.39
1043.708	1253.53
1043.872	690.34
1044.036	307.37
1044.2	377
1044.364	1206.42
1044.528	1282.2
1044.691	3960.94
1044.855	530.59
1045.019	1120.41
1045.183	1112.22
1045.346	540.83
1045.51	471.2
1045.674	987.29
1045.837	1085.59
1046.001	518.31
1046.165	473.25
1046.328	1411.22
1046.492	1071.26
1046.655	665.76
1046.819	577.7
1046.983	790.69
1047.146	909.47
1047.31	563.36
1047.473	385.19
1047.636	819.36
1047.8	647.33
1047.963	575.65
1048.127	413.86
1048.29	731.3
