Data from Ink_Intensity_USB4F045381__194__00194.txt Node

Date: Mon Jul 17 11:45:52 EDT 2023
User: mmckonesweet
Spectrometer: USB4F04538
Trigger mode: 4
Integration Time (sec): 9.000000E-1
Scans to average: 1
Electric dark correction enabled: true
Nonlinearity correction enabled: false
Boxcar width: 0
XAxis mode: Wavelengths
Number of Pixels in Spectrum: 3648
>>>>>Begin Spectral Data<<<<<
345.52	-1047.88
345.736	-1047.88
345.952	-1047.88
346.168	-1029.45
346.384	-1021.25
346.6	-144.72
346.816	-210.26
347.032	-228.69
347.248	305.83
347.464	-263.51
347.68	-118.1
347.896	94.89
348.112	379.56
348.328	-11.61
348.544	-42.32
348.76	-40.28
348.975	279.21
349.191	-177.49
349.407	-251.22
349.623	-48.47
349.839	-111.96
350.055	-167.25
350.27	105.13
350.486	174.76
350.702	303.78
350.918	207.53
351.133	-148.82
351.349	121.51
351.565	338.6
351.781	-195.92
351.996	-13.65
352.212	256.68
352.428	-157.01
352.644	-216.4
352.859	-228.69
353.075	207.53
353.291	152.23
353.506	-116.05
353.722	-267.6
353.938	-13.65
354.153	354.98
354.369	35.5
354.584	-210.26
354.8	211.62
355.016	-292.18
355.231	-169.3
355.447	-116.05
355.662	121.51
355.878	801.44
356.093	-378.19
356.309	-62.8
356.524	-210.26
356.74	207.53
356.955	-263.51
357.171	-140.63
357.386	141.99
357.602	-261.46
357.817	-42.32
358.033	-148.82
358.248	281.25
358.464	168.62
358.679	-152.92
358.895	-343.38
359.11	10.92
359.325	285.35
359.541	-7.51
359.756	-19.8
359.972	-304.46
360.187	187.05
360.402	-218.45
360.618	-230.74
360.833	1039
361.048	146.09
361.264	-226.64
361.479	-52.56
361.694	64.17
361.909	213.67
362.125	-279.89
362.34	-197.97
362.555	240.29
362.77	4.78
362.986	-279.89
363.201	-128.34
363.416	166.57
363.631	-23.89
363.847	-222.55
364.062	-148.82
364.277	232.1
364.492	109.22
364.707	-111.96
364.922	-468.3
365.138	303.78
365.353	373.41
365.568	-243.03
365.783	-157.01
365.998	53.93
366.213	551.59
366.428	-214.35
366.643	64.17
366.858	238.25
367.073	203.43
367.288	-177.49
367.503	-271.7
367.718	94.89
367.933	320.17
368.148	-324.94
368.363	-99.67
368.578	8.87
368.793	395.94
369.008	-87.38
369.223	-236.88
369.438	182.95
369.653	322.21
369.868	-308.56
370.083	-226.64
370.298	70.31
370.513	334.5
370.728	-3.41
370.943	-277.84
371.157	-146.77
371.372	551.59
371.587	-353.62
371.802	-324.94
372.017	8.87
372.232	412.32
372.446	-132.44
372.661	-324.94
372.876	203.43
373.091	207.53
373.306	-161.11
373.52	-253.27
373.735	-157.01
373.95	447.14
374.165	-118.1
374.379	-146.77
374.594	-152.92
374.809	105.13
375.023	-38.23
375.238	-259.41
375.453	281.25
375.667	-316.75
375.882	-142.68
376.097	-163.15
376.311	0.68
376.526	-9.56
376.741	-197.97
376.955	121.51
377.17	547.49
377.384	572.07
377.599	-140.63
377.813	-261.46
378.028	643.74
378.242	158.38
378.457	-122.2
378.672	-345.42
378.886	45.74
379.101	-89.43
379.315	-302.42
379.53	-157.01
379.744	158.38
379.958	146.09
380.173	-275.79
380.387	-212.31
380.602	215.72
380.816	-148.82
381.031	-175.44
381.245	-185.68
381.459	215.72
381.674	2738.82
381.888	-265.55
382.103	172.71
382.317	-177.49
382.531	455.33
382.746	-68.95
382.96	-175.44
383.174	-58.71
383.388	498.34
383.603	10.92
383.817	-312.66
384.031	113.32
384.246	459.43
384.46	-21.85
384.674	344.74
384.888	15.02
385.103	88.75
385.317	-200.02
385.531	-25.94
385.745	352.93
385.959	344.74
386.174	-197.97
386.388	-345.42
386.602	-40.28
386.816	-138.58
387.03	-120.15
387.244	-103.76
387.458	43.69
387.672	424.61
387.887	-359.76
388.101	-300.37
388.315	322.21
388.529	109.22
388.743	-218.45
388.957	-218.45
389.171	330.41
389.385	-222.55
389.599	-126.29
389.813	62.12
390.027	148.14
390.241	653.98
390.455	-105.81
390.669	-109.91
390.883	-157.01
391.097	381.6
391.311	43.69
391.525	-208.21
391.738	162.47
391.952	101.03
392.166	-71
392.38	-214.35
392.594	338.6
392.808	285.35
393.022	-91.48
393.236	-238.93
393.449	207.53
393.663	191.14
393.877	-226.64
394.091	-79.19
394.305	-95.57
394.518	-114
394.732	-292.18
394.946	-187.73
395.16	461.48
395.373	101.03
395.587	-296.27
395.801	-126.29
396.015	287.4
396.228	176.81
396.442	-329.04
396.656	-367.95
396.869	273.06
397.083	373.41
397.297	-107.86
397.51	-93.52
397.724	350.89
397.938	187.05
398.151	-314.7
398.365	-263.51
398.578	232.1
398.792	367.27
399.005	-146.77
399.219	-193.87
399.433	90.79
399.646	180.9
399.86	15.02
400.073	-60.76
400.287	150.18
400.5	-52.56
400.714	-30.04
400.927	-91.48
401.141	228.01
401.354	1049.24
401.567	197.29
401.781	-261.46
401.994	150.18
402.208	578.21
402.421	-132.44
402.635	-140.63
402.848	-56.66
403.061	307.88
403.275	-66.9
403.488	-202.07
403.701	486.05
403.915	301.73
404.128	-87.38
404.341	-193.87
404.555	148.14
404.768	-11.61
404.981	-21.85
405.195	-212.31
405.408	420.52
405.621	228.01
405.834	-54.61
406.048	-224.59
406.261	357.03
406.474	469.67
406.687	-286.03
406.9	-48.47
407.114	31.4
407.327	201.38
407.54	-314.7
407.753	-367.95
407.966	-126.29
408.179	158.38
408.392	-271.7
408.605	-357.71
408.819	244.39
409.032	250.53
409.245	-226.64
409.458	-21.85
409.671	211.62
409.884	168.62
410.097	-333.14
410.31	31.4
410.523	191.14
410.736	-93.52
410.949	-130.39
411.162	-200.02
411.375	395.94
411.588	359.08
411.801	-58.71
412.014	-234.83
412.227	-34.13
412.44	-103.76
412.653	-175.44
412.865	-46.42
413.078	240.29
413.291	119.46
413.504	-32.08
413.717	-163.15
413.93	297.64
414.143	-116.05
414.356	-163.15
414.568	-404.82
414.781	316.07
414.994	47.79
415.207	-175.44
415.42	-56.66
415.632	291.49
415.845	479.91
416.058	-324.94
416.271	-288.08
416.483	-9.56
416.696	451.24
416.909	-243.03
417.121	-230.74
417.334	180.9
417.547	424.61
417.759	-292.18
417.972	-236.88
418.185	-128.34
418.397	189.1
418.61	-202.07
418.823	-169.3
419.035	424.61
419.248	105.13
419.46	-120.15
419.673	-114
419.885	117.42
420.098	-107.86
420.311	-181.59
420.523	-384.34
420.736	264.87
420.948	23.21
421.161	-152.92
421.373	-361.81
421.586	88.75
421.798	-101.72
422.01	-361.81
422.223	-36.18
422.435	-142.68
422.648	158.38
422.86	-243.03
423.073	-195.92
423.285	248.49
423.497	-261.46
423.71	-247.12
423.922	-228.69
424.134	164.52
424.347	352.93
424.559	-13.65
424.771	72.36
424.984	-75.09
425.196	164.52
425.408	-345.42
425.621	-447.82
425.833	277.16
426.045	307.88
426.257	-298.32
426.47	-195.92
426.682	139.94
426.894	213.67
427.106	-187.73
427.318	-116.05
427.531	-152.92
427.743	242.34
427.955	-230.74
428.167	236.2
428.379	92.84
428.591	-19.8
428.804	-99.67
429.016	-232.79
429.228	-105.81
429.44	92.84
429.652	0.68
429.864	-294.22
430.076	-15.7
430.288	-11.61
430.5	-157.01
430.712	-91.48
430.924	297.64
431.136	88.75
431.348	-363.86
431.56	-294.22
431.772	33.45
431.984	-50.52
432.196	-234.83
432.408	-150.87
432.62	-13.65
432.832	88.75
433.044	60.07
433.256	-52.56
433.468	178.86
433.679	-316.75
433.891	-351.57
434.103	-40.28
434.315	367.27
434.527	189.1
434.739	-126.29
434.95	-152.92
435.162	228.01
435.374	-140.63
435.586	-245.07
435.798	-173.39
436.009	-197.97
436.221	-21.85
436.433	-218.45
436.645	-208.21
436.856	-132.44
437.068	232.1
437.28	-212.31
437.491	123.56
437.703	47.79
437.915	127.66
438.126	-177.49
438.338	111.27
438.55	2.73
438.761	148.14
438.973	-230.74
439.184	-222.55
439.396	94.89
439.608	172.71
439.819	-367.95
440.031	-66.9
440.242	162.47
440.454	238.25
440.665	-226.64
440.877	-95.57
441.088	166.57
441.3	-48.47
441.511	-423.25
441.723	-275.79
441.934	150.18
442.146	23.21
442.357	-50.52
442.569	129.7
442.78	8.87
442.991	457.38
443.203	146.09
443.414	-316.75
443.626	330.41
443.837	-77.14
444.048	-271.7
444.26	-337.23
444.471	27.31
444.682	299.69
444.894	-427.34
445.105	-253.27
445.316	252.58
445.528	223.91
445.739	-42.32
445.95	-177.49
446.161	31.4
446.373	246.44
446.584	-154.96
446.795	-232.79
447.006	248.49
447.217	404.13
447.429	-398.67
447.64	-271.7
447.851	367.27
448.062	31.4
448.273	-349.52
448.484	-292.18
448.695	101.03
448.907	31.4
449.118	-124.24
449.329	45.74
449.54	-165.2
449.751	-271.7
449.962	-187.73
450.173	-265.55
450.384	172.71
450.595	295.59
450.806	-347.47
451.017	-99.67
451.228	402.08
451.439	236.2
451.65	-218.45
451.861	-441.68
452.072	-193.87
452.283	-77.14
452.494	-56.66
452.705	-240.98
452.915	363.17
453.126	148.14
453.337	-175.44
453.548	-288.08
453.759	260.77
453.97	574.11
454.181	60.07
454.391	-281.94
454.602	49.83
454.813	158.38
455.024	-222.55
455.235	-185.68
455.445	41.64
455.656	70.31
455.867	-42.32
456.078	-189.78
456.288	-105.81
456.499	121.51
456.71	-306.51
456.921	62.12
457.131	107.18
457.342	92.84
457.553	-111.96
457.763	-197.97
457.974	168.62
458.184	170.66
458.395	-292.18
458.606	-367.95
458.816	217.77
459.027	436.9
459.237	-122.2
459.448	-396.62
459.659	236.2
459.869	672.42
460.08	-408.91
460.29	-95.57
460.501	375.46
460.711	-120.15
460.922	-390.48
461.132	-255.31
461.343	762.53
461.553	-279.89
461.764	-283.99
461.974	-222.55
462.184	234.15
462.395	121.51
462.605	-187.73
462.816	-243.03
463.026	80.55
463.236	320.17
463.447	-296.27
463.657	-255.31
463.867	238.25
464.078	-71
464.288	-206.16
464.498	-204.11
464.709	-38.23
464.919	41.64
465.129	-144.72
465.339	-290.13
465.55	129.7
465.76	266.92
465.97	-253.27
466.18	-240.98
466.391	209.58
466.601	2.73
466.811	-236.88
467.021	-357.71
467.231	105.13
467.441	281.25
467.651	-140.63
467.862	-468.3
468.072	-58.71
468.282	297.64
468.492	-232.79
468.702	-185.68
468.912	25.26
469.122	645.79
469.332	19.11
469.542	-243.03
469.752	119.46
469.962	-15.7
470.172	-331.09
470.382	-308.56
470.592	180.9
470.802	289.45
471.012	-154.96
471.222	-292.18
471.432	174.76
471.642	219.82
471.852	-171.35
472.062	-302.42
472.272	6.83
472.482	-161.11
472.691	-333.14
472.901	-347.47
473.111	31.4
473.321	510.63
473.531	-326.99
473.741	-169.3
473.95	123.56
474.16	162.47
474.37	-202.07
474.58	-408.91
474.79	481.96
474.999	199.34
475.209	-320.85
475.419	-195.92
475.628	-62.8
475.838	357.03
476.048	-124.24
476.258	-390.48
476.467	299.69
476.677	-111.96
476.886	2.73
477.096	-161.11
477.306	-173.39
477.515	324.26
477.725	-99.67
477.935	-146.77
478.144	383.65
478.354	-195.92
478.563	-177.49
478.773	-308.56
478.982	203.43
479.192	303.78
479.401	-183.63
479.611	-316.75
479.82	-157.01
480.03	123.56
480.239	-257.36
480.449	-349.52
480.658	410.28
480.868	-56.66
481.077	-161.11
481.287	-269.65
481.496	107.18
481.705	344.74
481.915	123.56
482.124	31.4
482.333	109.22
482.543	299.69
482.752	-124.24
482.961	-275.79
483.171	203.43
483.38	-11.61
483.589	-238.93
483.799	-298.32
484.008	6.83
484.217	211.62
484.426	-234.83
484.636	-329.04
484.845	115.37
485.054	-322.9
485.263	72.36
485.472	-245.07
485.682	400.04
485.891	31.4
486.1	-312.66
486.309	-283.99
486.518	146.09
486.727	363.17
486.936	-390.48
487.146	-128.34
487.355	420.52
487.564	-148.82
487.773	-204.11
487.982	-275.79
488.191	-91.48
488.4	41.64
488.609	-275.79
488.818	-197.97
489.027	567.97
489.236	400.04
489.445	-208.21
489.654	-310.61
489.863	283.3
490.072	64.17
490.281	25.26
490.49	-200.02
490.698	342.69
490.907	322.21
491.116	-152.92
491.325	-402.77
491.534	416.42
491.743	2.73
491.952	-140.63
492.16	-197.97
492.369	129.7
492.578	174.76
492.787	-202.07
492.996	-372.05
493.204	-97.62
493.413	465.57
493.622	-505.17
493.831	-441.68
494.039	344.74
494.248	-197.97
494.457	-281.94
494.665	-402.77
494.874	146.09
495.083	465.57
495.291	-212.31
495.5	-286.03
495.709	221.86
495.917	96.94
496.126	-134.48
496.335	-212.31
496.543	-19.8
496.752	76.46
496.96	0.68
497.169	-443.73
497.377	35.5
497.586	285.35
497.794	-177.49
498.003	-443.73
498.211	-46.42
498.42	377.51
498.628	-177.49
498.837	-347.47
499.045	-7.51
499.254	137.9
499.462	-357.71
499.671	-247.12
499.879	457.38
500.087	221.86
500.296	-324.94
500.504	-263.51
500.713	84.65
500.921	547.49
501.129	-226.64
501.338	-202.07
501.546	162.47
501.754	-1.37
501.962	-181.59
502.171	-349.52
502.379	119.46
502.587	434.85
502.795	-197.97
503.004	-267.6
503.212	88.75
503.42	158.38
503.628	-269.65
503.837	-157.01
504.045	221.86
504.253	445.09
504.461	-329.04
504.669	-417.1
504.877	139.94
505.085	434.85
505.294	-326.99
505.502	-85.33
505.71	53.93
505.918	250.53
506.126	-449.87
506.334	-259.41
506.542	0.68
506.75	146.09
506.958	-50.52
507.166	-220.5
507.374	-64.85
507.582	432.8
507.79	-136.53
507.998	-271.7
508.206	105.13
508.414	215.72
508.622	-343.38
508.83	-214.35
509.037	412.32
509.245	35.5
509.453	-329.04
509.661	-441.68
509.869	154.28
510.077	-25.94
510.285	-165.2
510.492	-484.69
510.7	619.17
510.908	-140.63
511.116	-257.36
511.324	-218.45
511.531	-17.75
511.739	82.6
511.947	-75.09
512.155	55.98
512.362	189.1
512.57	-281.94
512.778	-312.66
512.985	-431.44
513.193	252.58
513.401	285.35
513.608	-216.4
513.816	-286.03
514.024	109.22
514.231	359.08
514.439	-230.74
514.646	-204.11
514.854	137.9
515.061	240.29
515.269	-261.46
515.477	-224.59
515.684	-146.77
515.892	277.16
516.099	-329.04
516.307	-449.87
516.514	195.24
516.722	479.91
516.929	-243.03
517.136	-353.62
517.344	318.12
517.551	6.83
517.759	-290.13
517.966	-247.12
518.173	-138.58
518.381	-25.94
518.588	-230.74
518.796	-374.1
519.003	236.2
519.21	-52.56
519.418	-265.55
519.625	6.83
519.832	17.07
520.039	103.08
520.247	-435.53
520.454	-283.99
520.661	215.72
520.868	211.62
521.076	-279.89
521.283	-222.55
521.49	520.87
521.697	174.76
521.904	-243.03
522.112	-255.31
522.319	248.49
522.526	101.03
522.733	-421.2
522.94	-320.85
523.147	33.45
523.354	240.29
523.561	-431.44
523.768	-193.87
523.975	240.29
524.183	55.98
524.39	-226.64
524.597	-417.1
524.804	-15.7
525.011	-191.83
525.218	-281.94
525.425	-339.28
525.632	391.84
525.838	-111.96
526.045	-306.51
526.252	-281.94
526.459	1102.49
526.666	785.05
526.873	-335.18
527.08	-255.31
527.287	387.75
527.494	254.63
527.701	-406.86
527.907	-351.57
528.114	168.62
528.321	-54.61
528.528	-157.01
528.735	-296.27
528.941	-107.86
529.148	-157.01
529.355	-134.48
529.562	-363.86
529.768	350.89
529.975	-64.85
530.182	-208.21
530.388	-253.27
530.595	285.35
530.802	-263.51
531.008	-103.76
531.215	-253.27
531.422	430.76
531.628	754.34
531.835	-202.07
532.042	-183.63
532.248	-130.39
532.455	80.55
532.661	-234.83
532.868	-267.6
533.074	88.75
533.281	273.06
533.487	-173.39
533.694	-394.58
533.9	-306.51
534.107	76.46
534.313	-308.56
534.52	-374.1
534.726	266.92
534.933	494.24
535.139	-300.37
535.345	-421.2
535.552	86.7
535.758	41.64
535.965	-210.26
536.171	-255.31
536.377	131.75
536.584	324.26
536.79	-320.85
536.996	-236.88
537.203	68.27
537.409	117.42
537.615	-234.83
537.821	-122.2
538.028	187.05
538.234	156.33
538.44	-324.94
538.646	-238.93
538.853	98.99
539.059	-99.67
539.265	137.9
539.471	-535.89
539.677	236.2
539.883	-21.85
540.09	-322.9
540.296	182.95
540.502	29.35
540.708	-218.45
540.914	-54.61
541.12	-269.65
541.326	219.82
541.532	-66.9
541.738	-214.35
541.944	-263.51
542.15	236.2
542.356	-42.32
542.562	-384.34
542.768	-216.4
542.974	641.7
543.18	441
543.386	-304.46
543.592	-406.86
543.798	400.04
544.004	293.54
544.21	-337.23
544.415	-130.39
544.621	156.33
544.827	279.21
545.033	-382.29
545.239	-34.13
545.445	-243.03
545.651	180.9
545.856	-318.8
546.062	-292.18
546.268	-157.01
546.474	-15.7
546.679	-345.42
546.885	-187.73
547.091	-150.87
547.297	518.82
547.502	-255.31
547.708	-324.94
547.914	-154.96
548.119	150.18
548.325	-318.8
548.531	-400.72
548.736	365.22
548.942	-175.44
549.147	-273.75
549.353	-19.8
549.559	256.68
549.764	88.75
549.97	-290.13
550.175	-281.94
550.381	215.72
550.586	-120.15
550.792	-243.03
550.997	-275.79
551.203	168.62
551.408	211.62
551.614	-374.1
551.819	-320.85
552.025	377.51
552.23	467.62
552.435	-406.86
552.641	-132.44
552.846	-81.24
553.052	236.2
553.257	-118.1
553.462	-218.45
553.668	-173.39
553.873	273.06
554.078	-413.01
554.283	-339.28
554.489	29.35
554.694	-27.99
554.899	-353.62
555.105	-107.86
555.31	152.23
555.515	244.39
555.72	-193.87
555.925	-337.23
556.131	170.66
556.336	-38.23
556.541	-308.56
556.746	-343.38
556.951	357.03
557.156	305.83
557.361	-83.28
557.567	-132.44
557.772	477.86
557.977	92.84
558.182	-294.22
558.387	-279.89
558.592	-107.86
558.797	348.84
559.002	-165.2
559.207	-165.2
559.412	25.26
559.617	379.56
559.822	-296.27
560.027	-370
560.232	49.83
560.437	293.54
560.642	-367.95
560.847	-345.42
561.051	58.03
561.256	115.37
561.461	-230.74
561.666	-390.48
561.871	84.65
562.076	201.38
562.281	-189.78
562.485	-417.1
562.69	238.25
562.895	273.06
563.1	-243.03
563.305	-372.05
563.509	273.06
563.714	565.92
563.919	-341.33
564.123	-269.65
564.328	62.12
564.533	377.51
564.737	-271.7
564.942	-206.16
565.147	428.71
565.351	567.97
565.556	-169.3
565.761	-220.5
565.965	70.31
566.17	-189.78
566.374	-212.31
566.579	-365.9
566.784	232.1
566.988	-191.83
567.193	-374.1
567.397	-304.46
567.602	-302.42
567.806	-50.52
568.011	-271.7
568.215	-212.31
568.42	-13.65
568.624	-50.52
568.828	-224.59
569.033	-165.2
569.237	201.38
569.442	113.32
569.646	-335.18
569.85	-206.16
570.055	-34.13
570.259	82.6
570.463	-93.52
570.668	-269.65
570.872	80.55
571.076	45.74
571.281	-189.78
571.485	-216.4
571.689	88.75
571.893	168.62
572.098	-109.91
572.302	-210.26
572.506	152.23
572.71	-25.94
572.914	-226.64
573.119	-273.75
573.323	334.5
573.527	375.46
573.731	-300.37
573.935	-320.85
574.139	35.5
574.343	-99.67
574.547	-265.55
574.751	-294.22
574.955	350.89
575.159	277.16
575.364	-236.88
575.568	-423.25
575.772	82.6
575.976	228.01
576.18	-335.18
576.383	-492.88
576.587	311.97
576.791	174.76
576.995	-392.53
577.199	-460.11
577.403	285.35
577.607	352.93
577.811	-337.23
578.015	-210.26
578.219	88.75
578.422	144.04
578.626	-228.69
578.83	-122.2
579.034	293.54
579.238	74.41
579.442	-318.8
579.645	86.7
579.849	-30.04
580.053	92.84
580.257	-288.08
580.46	-259.41
580.664	228.01
580.868	125.61
581.071	-30.04
581.275	-253.27
581.479	-281.94
581.682	205.48
581.886	-347.47
582.09	-124.24
582.293	115.37
582.497	221.86
582.7	-68.95
582.904	-279.89
583.107	-89.43
583.311	-1.37
583.515	-185.68
583.718	-185.68
583.922	215.72
584.125	410.28
584.329	-263.51
584.532	-52.56
584.735	336.55
584.939	139.94
585.142	-370
585.346	-339.28
585.549	58.03
585.753	-87.38
585.956	-240.98
586.159	-142.68
586.363	365.22
586.566	113.32
586.769	-382.29
586.973	-288.08
587.176	121.51
587.379	285.35
587.582	-17.75
587.786	-17.75
587.989	82.6
588.192	678.56
588.395	-238.93
588.599	-25.94
588.802	72.36
589.005	211.62
589.208	-232.79
589.411	-216.4
589.615	166.57
589.818	391.84
590.021	0.68
590.224	-68.95
590.427	271.01
590.63	187.05
590.833	-345.42
591.036	-283.99
591.239	-71
591.442	-73.04
591.645	-89.43
591.848	-279.89
592.051	82.6
592.254	266.92
592.457	-222.55
592.66	-206.16
592.863	-9.56
593.066	80.55
593.269	-294.22
593.472	-165.2
593.675	-134.48
593.878	266.92
594.081	-159.06
594.284	-349.52
594.486	178.86
594.689	27.31
594.892	-118.1
595.095	-226.64
595.298	168.62
595.5	-95.57
595.703	-73.04
595.906	-134.48
596.109	318.12
596.311	203.43
596.514	-492.88
596.717	-163.15
596.92	301.73
597.122	162.47
597.325	-466.25
597.528	-271.7
597.73	275.11
597.933	-25.94
598.136	-275.79
598.338	-451.92
598.541	160.42
598.743	314.02
598.946	-269.65
599.148	-189.78
599.351	297.64
599.554	246.44
599.756	-144.72
599.959	-281.94
600.161	260.77
600.363	539.3
600.566	-15.7
600.768	-271.7
600.971	461.48
601.173	201.38
601.376	-263.51
601.578	-208.21
601.78	62.12
601.983	596.64
602.185	-292.18
602.388	-52.56
602.59	199.34
602.792	-66.9
602.995	29.35
603.197	-251.22
603.399	258.73
603.601	117.42
603.804	-169.3
604.006	-267.6
604.208	-44.37
604.41	-396.62
604.613	-5.46
604.815	-357.71
605.017	645.79
605.219	-56.66
605.421	195.24
605.623	-255.31
605.826	303.78
606.028	473.76
606.23	-220.5
606.432	-222.55
606.634	430.76
606.836	303.78
607.038	-361.81
607.24	-103.76
607.442	58.03
607.644	84.65
607.846	-73.04
608.048	-247.12
608.25	340.65
608.452	-111.96
608.654	-261.46
608.856	-423.25
609.058	23.21
609.26	164.52
609.462	-214.35
609.664	-179.54
609.866	408.23
610.067	295.59
610.269	-54.61
610.471	-179.54
610.673	-17.75
610.875	225.96
611.077	-351.57
611.278	-66.9
611.48	84.65
611.682	527.01
611.884	-148.82
612.085	-222.55
612.287	-245.07
612.489	180.9
612.69	-380.24
612.892	-157.01
613.094	283.3
613.295	123.56
613.497	-292.18
613.699	-185.68
613.9	354.98
614.102	189.1
614.304	-208.21
614.505	-357.71
614.707	41.64
614.908	-58.71
615.11	-341.33
615.311	-114
615.513	271.01
615.714	174.76
615.916	-361.81
616.117	-120.15
616.319	115.37
616.52	199.34
616.722	-296.27
616.923	-179.54
617.124	236.2
617.326	252.58
617.527	-124.24
617.729	-58.71
617.93	264.87
618.131	236.2
618.333	-142.68
618.534	-171.35
618.735	-132.44
618.937	387.75
619.138	-224.59
619.339	-228.69
619.54	271.01
619.742	12.97
619.943	-111.96
620.144	-169.3
620.345	377.51
620.546	266.92
620.748	-269.65
620.949	-179.54
621.15	80.55
621.351	70.31
621.552	-152.92
621.753	-392.53
621.954	-259.41
622.155	576.16
622.356	-372.05
622.558	-17.75
622.759	68.27
622.96	555.68
623.161	-269.65
623.362	-118.1
623.563	76.46
623.764	148.14
623.965	-154.96
624.166	39.59
624.366	-1.37
624.567	219.82
624.768	-474.45
624.969	-226.64
625.17	-44.37
625.371	180.9
625.572	-79.19
625.773	-302.42
625.973	365.22
626.174	178.86
626.375	-109.91
626.576	-101.72
626.777	148.14
626.977	561.83
627.178	-195.92
627.379	-124.24
627.58	76.46
627.78	23.21
627.981	-97.62
628.182	-87.38
628.382	400.04
628.583	-306.51
628.784	-275.79
628.984	-11.61
629.185	256.68
629.386	238.25
629.586	-140.63
629.787	-224.59
629.987	246.44
630.188	109.22
630.388	-146.77
630.589	-101.72
630.79	615.07
630.99	111.27
631.191	-111.96
631.391	-54.61
631.591	271.01
631.792	502.43
631.992	-23.89
632.193	-126.29
632.393	441
632.594	60.07
632.794	-212.31
632.994	-95.57
633.195	-9.56
633.395	58.03
633.595	-197.97
633.796	55.98
633.996	-120.15
634.196	371.36
634.397	-302.42
634.597	-95.57
634.797	-124.24
634.997	559.78
635.198	60.07
635.398	-279.89
635.598	185
635.798	375.46
635.998	309.93
636.199	-226.64
636.399	-56.66
636.599	-130.39
636.799	-232.79
636.999	133.8
637.199	189.1
637.399	268.97
637.599	-169.3
637.799	-87.38
637.999	-79.19
638.199	494.24
638.399	-247.12
638.599	-126.29
638.799	211.62
638.999	508.58
639.199	29.35
639.399	-103.76
639.599	463.52
639.799	-97.62
639.999	-193.87
640.199	-279.89
640.399	150.18
640.599	162.47
640.799	-34.13
640.998	-19.8
641.198	404.13
641.398	211.62
641.598	-52.56
641.798	-99.67
641.997	1061.53
642.197	166.57
642.397	-46.42
642.597	-99.67
642.796	193.19
642.996	385.7
643.196	8.87
643.395	-197.97
643.595	189.1
643.795	-347.47
643.994	-118.1
644.194	-25.94
644.394	293.54
644.593	133.8
644.793	-275.79
644.992	-34.13
645.192	141.99
645.392	-329.04
645.591	-40.28
645.791	-169.3
645.99	146.09
646.19	119.46
646.389	-83.28
646.589	-62.8
646.788	340.65
646.987	277.16
647.187	176.81
647.386	70.31
647.586	43.69
647.785	340.65
647.984	-140.63
648.184	-134.48
648.383	-75.09
648.582	141.99
648.782	-101.72
648.981	-9.56
649.18	27.31
649.38	107.18
649.579	-169.3
649.778	-214.35
649.977	303.78
650.177	207.53
650.376	-177.49
650.575	-200.02
650.774	494.24
650.973	-126.29
651.173	-261.46
651.372	-83.28
651.571	168.62
651.77	350.89
651.969	-107.86
652.168	-75.09
652.367	-165.2
652.566	115.37
652.765	-189.78
652.964	146.09
653.163	615.07
653.362	-1.37
653.561	-165.2
653.76	-87.38
653.959	0.68
654.158	291.49
654.357	19.11
654.556	-77.14
654.755	230.06
654.954	291.49
655.153	-42.32
655.352	-71
655.551	354.98
655.749	-42.32
655.948	-73.04
656.147	-38.23
656.346	240.29
656.545	115.37
656.743	-58.71
656.942	-48.47
657.141	129.7
657.34	-87.38
657.538	-44.37
657.737	-116.05
657.936	15.02
658.135	209.58
658.333	-173.39
658.532	68.27
658.731	551.59
658.929	311.97
659.128	215.72
659.326	-157.01
659.525	428.71
659.724	58.03
659.922	-314.7
660.121	-191.83
660.319	168.62
660.518	-60.76
660.716	-259.41
660.915	-183.63
661.113	539.3
661.312	-169.3
661.51	-66.9
661.709	-228.69
661.907	238.25
662.105	516.77
662.304	-87.38
662.502	-54.61
662.701	428.71
662.899	76.46
663.097	164.52
663.296	-296.27
663.494	297.64
663.692	508.58
663.891	-165.2
664.089	-183.63
664.287	268.97
664.485	465.57
664.684	-218.45
664.882	15.02
665.08	31.4
665.278	191.14
665.476	-238.93
665.675	150.18
665.873	592.55
666.071	465.57
666.269	-144.72
666.467	72.36
666.665	211.62
666.863	129.7
667.061	70.31
667.259	-247.12
667.457	92.84
667.655	277.16
667.853	-288.08
668.051	-66.9
668.249	-52.56
668.447	271.01
668.645	-93.52
668.843	62.12
669.041	223.91
669.239	45.74
669.437	-42.32
669.635	72.36
669.833	23.21
670.031	301.73
670.229	-15.7
670.426	25.26
670.624	-5.46
670.822	-132.44
671.02	-66.9
671.218	-17.75
671.415	-19.8
671.613	115.37
671.811	62.12
672.009	-62.8
672.206	320.17
672.404	113.32
672.602	180.9
672.799	-34.13
672.997	252.58
673.195	410.28
673.392	31.4
673.59	-157.01
673.788	303.78
673.985	-326.99
674.183	-32.08
674.38	-99.67
674.578	389.8
674.775	-23.89
674.973	-181.59
675.17	-146.77
675.368	541.35
675.565	326.31
675.763	-138.58
675.96	-171.35
676.158	367.27
676.355	135.85
676.553	-99.67
676.75	-77.14
676.947	125.61
677.145	162.47
677.342	117.42
677.539	82.6
677.737	189.1
677.934	641.7
678.131	156.33
678.329	-105.81
678.526	572.07
678.723	320.17
678.92	-5.46
679.118	-134.48
679.315	-152.92
679.512	459.43
679.709	-1.37
679.906	-44.37
680.104	424.61
680.301	162.47
680.498	-128.34
680.695	-142.68
680.892	-58.71
681.089	0.68
681.286	62.12
681.483	-214.35
681.68	258.73
681.877	346.79
682.075	-32.08
682.272	228.01
682.469	228.01
682.665	92.84
682.862	-163.15
683.059	-165.2
683.256	213.67
683.453	223.91
683.65	31.4
683.847	17.07
684.044	178.86
684.241	-50.52
684.438	105.13
684.635	-111.96
684.831	598.69
685.028	653.98
685.225	-66.9
685.422	6.83
685.619	96.94
685.815	211.62
686.012	19.11
686.209	49.83
686.405	-32.08
686.602	320.17
686.799	-197.97
686.996	-116.05
687.192	-50.52
687.389	576.16
687.586	-62.8
687.782	-50.52
687.979	527.01
688.175	432.8
688.372	-30.04
688.568	72.36
688.765	-1.37
688.962	582.31
689.158	76.46
689.355	-238.93
689.551	445.09
689.748	-9.56
689.944	31.4
690.14	-183.63
690.337	334.5
690.533	121.51
690.73	219.82
690.926	6.83
691.123	322.21
691.319	219.82
691.515	-191.83
691.712	90.79
691.908	418.47
692.104	264.87
692.301	129.7
692.497	-148.82
692.693	332.45
692.889	445.09
693.086	205.48
693.282	-212.31
693.478	236.2
693.674	711.33
693.87	15.02
694.067	-66.9
694.263	105.13
694.459	117.42
694.655	211.62
694.851	80.55
695.047	375.46
695.243	350.89
695.439	113.32
695.635	-66.9
695.831	354.98
696.027	250.53
696.224	6.83
696.42	336.55
696.615	484
696.811	371.36
697.007	-212.31
697.203	-38.23
697.399	283.3
697.595	606.88
697.791	-56.66
697.987	92.84
698.183	-30.04
698.379	33.45
698.575	-13.65
698.77	35.5
698.966	387.75
699.162	613.03
699.358	15.02
699.554	31.4
699.749	369.32
699.945	389.8
700.141	117.42
700.337	170.66
700.532	209.58
700.728	109.22
700.924	-15.7
701.119	-81.24
701.315	324.26
701.511	170.66
701.706	98.99
701.902	-197.97
702.097	281.25
702.293	420.52
702.489	76.46
702.684	21.16
702.88	185
703.075	168.62
703.271	45.74
703.466	-111.96
703.662	230.06
703.857	402.08
704.053	10.92
704.248	-5.46
704.443	387.75
704.639	420.52
704.834	62.12
705.03	29.35
705.225	453.28
705.42	563.87
705.616	92.84
705.811	-25.94
706.006	133.8
706.202	170.66
706.397	162.47
706.592	-79.19
706.787	215.72
706.983	230.06
707.178	271.01
707.373	123.56
707.568	422.56
707.763	432.8
707.959	15.02
708.154	-15.7
708.349	326.31
708.544	408.23
708.739	266.92
708.934	-120.15
709.129	449.19
709.324	441
709.519	-83.28
709.714	-44.37
709.909	465.57
710.104	330.41
710.299	90.79
710.494	58.03
710.689	365.22
710.884	275.11
711.079	199.34
711.274	264.87
711.469	434.85
711.664	375.46
711.859	-107.86
712.054	242.34
712.249	371.36
712.443	600.74
712.638	-73.04
712.833	-17.75
713.028	256.68
713.223	236.2
713.417	344.74
713.612	27.31
713.807	395.94
714.002	926.36
714.196	260.77
714.391	-3.41
714.586	473.76
714.78	285.35
714.975	60.07
715.17	76.46
715.364	141.99
715.559	449.19
715.754	-181.59
715.948	23.21
716.143	756.38
716.337	352.93
716.532	285.35
716.726	-60.76
716.921	471.72
717.115	707.23
717.31	-97.62
717.504	623.27
717.699	109.22
717.893	574.11
718.088	64.17
718.282	-126.29
718.476	338.6
718.671	441
718.865	60.07
719.059	-66.9
719.254	330.41
719.448	600.74
719.642	1374.87
719.837	-157.01
720.031	477.86
720.225	572.07
720.419	150.18
720.614	33.45
720.808	510.63
721.002	252.58
721.196	-83.28
721.39	58.03
721.585	643.74
721.779	383.65
721.973	35.5
722.167	-93.52
722.361	316.07
722.555	457.38
722.749	107.18
722.943	82.6
723.137	101.03
723.331	387.75
723.525	105.13
723.719	31.4
723.913	426.66
724.107	635.55
724.301	-60.76
724.495	141.99
724.689	696.99
724.883	686.75
725.077	74.41
725.271	39.59
725.465	543.39
725.659	219.82
725.853	109.22
726.046	-64.85
726.24	103.08
726.434	527.01
726.628	98.99
726.822	86.7
727.015	653.98
727.209	629.41
727.403	37.55
727.596	-91.48
727.79	496.29
727.984	514.72
728.177	72.36
728.371	260.77
728.565	551.59
728.758	21.16
728.952	15.02
729.146	74.41
729.339	559.78
729.533	185
729.726	8.87
729.92	23.21
730.113	565.92
730.307	314.02
730.5	78.51
730.694	6.83
730.887	260.77
731.081	354.98
731.274	-101.72
731.468	64.17
731.661	277.16
731.854	223.91
732.048	113.32
732.241	-17.75
732.435	225.96
732.628	289.45
732.821	137.9
733.014	-73.04
733.208	60.07
733.401	492.2
733.594	105.13
733.788	27.31
733.981	584.35
734.174	447.14
734.367	23.21
734.56	195.24
734.754	543.39
734.947	307.88
735.14	39.59
735.333	152.23
735.526	535.2
735.719	168.62
735.912	72.36
736.105	-114
736.298	230.06
736.491	309.93
736.684	98.99
736.877	-13.65
737.07	404.13
737.263	715.42
737.456	23.21
737.649	47.79
737.842	273.06
738.035	414.37
738.228	105.13
738.421	230.06
738.614	615.07
738.807	506.53
739	-114
739.192	39.59
739.385	434.85
739.578	424.61
739.771	283.3
739.964	84.65
740.156	459.43
740.349	283.3
740.542	318.12
740.735	-105.81
740.927	64.17
741.12	121.51
741.313	55.98
741.505	236.2
741.698	410.28
741.891	387.75
742.083	178.86
742.276	154.28
742.468	287.4
742.661	293.54
742.854	197.29
743.046	88.75
743.239	725.66
743.431	182.95
743.624	201.38
743.816	-95.57
744.009	236.2
744.201	418.47
744.393	309.93
744.586	-40.28
744.778	613.03
744.971	369.32
745.163	203.43
745.355	217.77
745.548	402.08
745.74	260.77
745.932	148.14
746.125	25.26
746.317	912.03
746.509	484
746.702	96.94
746.894	209.58
747.086	361.13
747.278	594.59
747.471	352.93
747.663	187.05
747.855	387.75
748.047	754.34
748.239	43.69
748.431	90.79
748.623	690.85
748.815	723.62
749.008	66.22
749.2	37.55
749.392	502.43
749.584	463.52
749.776	113.32
749.968	246.44
750.16	807.58
750.352	246.44
750.544	94.89
750.736	109.22
750.928	467.62
751.12	314.02
751.311	189.1
751.503	191.14
751.695	539.3
751.887	354.98
752.079	-30.04
752.271	150.18
752.463	1155.74
752.654	541.35
752.846	158.38
753.038	80.55
753.23	236.2
753.421	516.77
753.613	115.37
753.805	307.88
753.997	580.26
754.188	555.68
754.38	68.27
754.572	203.43
754.763	305.83
754.955	498.34
755.146	146.09
755.338	248.49
755.53	443.04
755.721	293.54
755.913	31.4
756.104	2.73
756.296	293.54
756.487	498.34
756.679	68.27
756.87	152.23
757.062	246.44
757.253	522.91
757.445	109.22
757.636	277.16
757.827	322.21
758.019	957.08
758.21	0.68
758.401	156.33
758.593	887.45
758.784	707.23
758.975	109.22
759.167	88.75
759.358	381.6
759.549	551.59
759.74	162.47
759.932	76.46
760.123	764.57
760.314	309.93
760.505	256.68
760.696	150.18
760.888	756.38
761.079	260.77
761.27	176.81
761.461	-21.85
761.652	723.62
761.843	422.56
762.034	281.25
762.225	465.57
762.416	436.9
762.607	375.46
762.798	164.52
762.989	117.42
763.18	1168.02
763.371	301.73
763.562	199.34
763.753	162.47
763.944	633.5
764.135	740
764.326	309.93
764.517	150.18
764.708	508.58
764.899	596.64
765.089	88.75
765.28	-58.71
765.471	539.3
765.662	514.72
765.853	180.9
766.043	23.21
766.234	592.55
766.425	701.09
766.615	146.09
766.806	55.98
766.997	606.88
767.187	582.31
767.378	123.56
767.569	58.03
767.759	559.78
767.95	354.98
768.141	314.02
768.331	58.03
768.522	428.71
768.712	635.55
768.903	98.99
769.093	127.66
769.284	809.63
769.474	506.53
769.665	-62.8
769.855	-17.75
770.046	508.58
770.236	367.27
770.426	307.88
770.617	10.92
770.807	553.63
770.998	322.21
771.188	262.82
771.378	107.18
771.569	606.88
771.759	578.21
771.949	68.27
772.139	-83.28
772.33	481.96
772.52	699.04
772.71	187.05
772.9	-128.34
773.09	811.68
773.281	752.29
773.471	193.19
773.661	154.28
773.851	703.14
774.041	354.98
774.231	117.42
774.421	281.25
774.611	811.68
774.802	479.91
774.992	215.72
775.182	55.98
775.372	373.41
775.562	692.9
775.752	185
775.942	139.94
776.131	670.37
776.321	578.21
776.511	84.65
776.701	43.69
776.891	574.11
777.081	141.99
777.271	160.42
777.461	76.46
777.651	645.79
777.84	682.66
778.03	357.03
778.22	60.07
778.41	705.18
778.599	182.95
778.789	305.83
778.979	123.56
779.169	604.83
779.358	531.11
779.548	436.9
779.738	31.4
779.927	481.96
780.117	178.86
780.307	135.85
780.496	-73.04
780.686	457.38
780.875	899.74
781.065	141.99
781.254	166.57
781.444	522.91
781.633	342.69
781.823	127.66
782.012	166.57
782.202	340.65
782.391	453.28
782.581	107.18
782.77	297.64
782.96	629.41
783.149	500.39
783.338	228.01
783.528	-71
783.717	746.14
783.906	744.1
784.096	309.93
784.285	101.03
784.474	387.75
784.663	248.49
784.853	182.95
785.042	195.24
785.231	338.6
785.42	690.85
785.61	264.87
785.799	49.83
785.988	367.27
786.177	381.6
786.366	221.86
786.555	344.74
786.744	754.34
786.933	367.27
787.122	43.69
787.312	-1.37
787.501	277.16
787.69	602.79
787.879	105.13
788.068	131.75
788.257	139.94
788.445	357.03
788.634	141.99
788.823	92.84
789.012	1088.15
789.201	737.95
789.39	299.69
789.579	92.84
789.768	481.96
789.957	451.24
790.145	150.18
790.334	-79.19
790.523	248.49
790.712	375.46
790.9	311.97
791.089	41.64
791.278	703.14
791.467	488.1
791.655	481.96
791.844	586.4
792.033	316.07
792.221	443.04
792.41	254.63
792.599	45.74
792.787	606.88
792.976	662.18
793.164	64.17
793.353	172.71
793.541	608.93
793.73	643.74
793.918	215.72
794.107	180.9
794.295	471.72
794.484	469.67
794.672	248.49
794.861	191.14
795.049	596.64
795.238	961.18
795.426	125.61
795.614	277.16
795.803	615.07
795.991	834.21
796.179	101.03
796.368	137.9
796.556	645.79
796.744	314.02
796.932	164.52
797.121	144.04
797.309	481.96
797.497	602.79
797.685	266.92
797.874	164.52
798.062	408.23
798.25	823.97
798.438	148.14
798.626	185
798.814	549.54
799.002	991.9
799.19	402.08
799.378	273.06
799.566	744.1
799.755	768.67
799.943	484
800.131	162.47
800.318	516.77
800.506	635.55
800.694	31.4
800.882	309.93
801.07	780.96
801.258	555.68
801.446	291.49
801.634	205.48
801.822	539.3
802.01	537.25
802.197	148.14
802.385	309.93
802.573	557.73
802.761	236.2
802.949	209.58
803.136	19.11
803.324	703.14
803.512	395.94
803.699	369.32
803.887	88.75
804.075	903.84
804.262	334.5
804.45	146.09
804.638	322.21
804.825	236.2
805.013	285.35
805.201	252.58
805.388	107.18
805.576	527.01
805.763	920.22
805.951	230.06
806.138	436.9
806.326	932.51
806.513	658.08
806.701	324.26
806.888	172.71
807.075	539.3
807.263	942.75
807.45	144.04
807.638	373.41
807.825	971.42
808.012	721.57
808.2	258.73
808.387	522.91
808.574	598.69
808.761	846.49
808.949	199.34
809.136	316.07
809.323	367.27
809.51	350.89
809.698	512.67
809.885	416.42
810.072	615.07
810.259	715.42
810.446	404.13
810.633	121.51
810.82	823.97
811.008	791.2
811.195	463.52
811.382	305.83
811.569	533.15
811.756	260.77
811.943	346.79
812.13	279.21
812.317	416.42
812.504	473.76
812.691	342.69
812.878	363.17
813.064	813.73
813.251	567.97
813.438	152.23
813.625	400.04
813.812	486.05
813.999	567.97
814.186	391.84
814.372	281.25
814.559	606.88
814.746	832.16
814.933	350.89
815.12	434.85
815.306	477.86
815.493	297.64
815.68	254.63
815.866	375.46
816.053	785.05
816.24	983.71
816.426	320.17
816.613	234.15
816.799	699.04
816.986	852.64
817.173	162.47
817.359	213.67
817.546	676.51
817.732	246.44
817.919	53.93
818.105	377.51
818.292	371.36
818.478	631.46
818.665	412.32
818.851	180.9
819.037	1211.03
819.224	617.12
819.41	166.57
819.597	271.01
819.783	993.95
819.969	615.07
820.156	457.38
820.342	205.48
820.528	1395.35
820.714	469.67
820.901	531.11
821.087	244.39
821.273	899.74
821.459	479.91
821.646	244.39
821.832	262.82
822.018	539.3
822.204	690.85
822.39	268.97
822.576	164.52
822.762	774.81
822.948	617.12
823.134	518.82
823.32	314.02
823.507	324.26
823.693	574.11
823.879	727.71
824.065	260.77
824.25	576.16
824.436	318.12
824.622	402.08
824.808	154.28
824.994	432.8
825.18	381.6
825.366	189.1
825.552	336.55
825.738	555.68
825.923	848.54
826.109	533.15
826.295	201.38
826.481	436.9
826.667	535.2
826.852	424.61
827.038	228.01
827.224	838.3
827.409	1024.67
827.595	88.75
827.781	545.44
827.966	772.77
828.152	881.31
828.338	373.41
828.523	203.43
828.709	350.89
828.894	912.03
829.08	445.09
829.266	238.25
829.451	471.72
829.637	721.57
829.822	494.24
830.008	271.01
830.193	830.11
830.378	864.93
830.564	436.9
830.749	219.82
830.935	764.57
831.12	735.9
831.305	242.34
831.491	371.36
831.676	324.26
831.861	811.68
832.047	367.27
832.232	156.33
832.417	774.81
832.602	590.5
832.788	291.49
832.973	234.15
833.158	563.87
833.343	586.4
833.528	518.82
833.714	297.64
833.899	723.62
834.084	1077.91
834.269	533.15
834.454	359.08
834.639	916.12
834.824	662.18
835.009	490.15
835.194	606.88
835.379	735.9
835.564	1043.1
835.749	502.43
835.934	273.06
836.119	828.06
836.304	649.89
836.489	350.89
836.674	574.11
836.859	557.73
837.044	1014.43
837.228	299.69
837.413	219.82
837.598	727.71
837.783	856.73
837.968	365.22
838.152	273.06
838.337	271.01
838.522	928.41
838.707	674.46
838.891	551.59
839.076	737.95
839.261	850.59
839.445	377.51
839.63	428.71
839.815	1020.57
839.999	592.55
840.184	424.61
840.368	324.26
840.553	731.81
840.737	740
840.922	291.49
841.106	275.11
841.291	449.19
841.475	645.79
841.66	320.17
841.844	350.89
842.029	1303.19
842.213	324.26
842.397	395.94
842.582	242.34
842.766	903.84
842.951	842.4
843.135	342.69
843.319	475.81
843.504	727.71
843.688	963.23
843.872	174.76
844.056	271.01
844.241	748.19
844.425	576.16
844.609	674.46
844.793	174.76
844.977	856.73
845.161	705.18
845.346	240.29
845.53	404.13
845.714	682.66
845.898	1030.81
846.082	199.34
846.266	371.36
846.45	688.8
846.634	713.38
846.818	377.51
847.002	539.3
847.186	793.25
847.37	336.55
847.554	350.89
847.738	447.14
847.922	701.09
848.106	672.42
848.29	234.15
848.473	295.59
848.657	731.81
848.841	551.59
849.025	393.89
849.209	211.62
849.392	916.12
849.576	604.83
849.76	82.6
849.944	436.9
850.127	1041.05
850.311	369.32
850.495	189.1
850.678	172.71
850.862	903.84
851.046	1026.71
851.229	615.07
851.413	330.41
851.596	658.08
851.78	594.59
851.964	492.2
852.147	354.98
852.331	1354.39
852.514	967.32
852.698	459.43
852.881	195.24
853.065	852.64
853.248	559.78
853.431	535.2
853.615	424.61
853.798	1237.66
853.982	791.2
854.165	535.2
854.348	387.75
854.532	367.27
854.715	590.5
854.898	412.32
855.081	379.56
855.265	926.36
855.448	1172.12
855.631	215.72
855.814	336.55
855.997	860.83
856.181	690.85
856.364	543.39
856.547	266.92
856.73	719.52
856.913	666.27
857.096	318.12
857.279	453.28
857.462	617.12
857.645	873.12
857.828	524.96
858.011	443.04
858.194	406.18
858.377	834.21
858.56	180.9
858.743	449.19
858.926	467.62
859.109	838.3
859.292	354.98
859.475	271.01
859.658	952.99
859.841	789.15
860.023	256.68
860.206	348.84
860.389	801.44
860.572	875.17
860.755	402.08
860.937	367.27
861.12	707.23
861.303	553.63
861.486	543.39
861.668	252.58
861.851	817.82
862.034	764.57
862.216	510.63
862.399	285.35
862.581	760.48
862.764	1079.96
862.947	522.91
863.129	406.18
863.312	467.62
863.494	1079.96
863.677	658.08
863.859	201.38
864.042	766.62
864.224	950.94
864.406	576.16
864.589	223.91
864.771	694.94
864.954	486.05
865.136	424.61
865.318	238.25
865.501	752.29
865.683	258.73
865.865	402.08
866.048	357.03
866.23	760.48
866.412	703.14
866.594	293.54
866.777	506.53
866.959	893.6
867.141	461.48
867.323	621.22
867.505	543.39
867.687	770.72
867.869	719.52
868.052	373.41
868.234	287.4
868.416	608.93
868.598	832.16
868.78	418.47
868.962	275.11
869.144	918.17
869.326	817.82
869.508	314.02
869.69	291.49
869.872	475.81
870.054	885.41
870.236	271.01
870.417	365.22
870.599	666.27
870.781	1071.77
870.963	559.78
871.145	301.73
871.327	371.36
871.508	938.65
871.69	484
871.872	434.85
872.054	662.18
872.235	836.25
872.417	494.24
872.599	379.56
872.78	1049.24
872.962	647.84
873.144	258.73
873.325	465.57
873.507	959.13
873.689	727.71
873.87	252.58
874.052	533.15
874.233	623.27
874.415	979.61
874.596	397.99
874.778	297.64
874.959	795.29
875.141	909.98
875.322	488.1
875.503	309.93
875.685	811.68
875.866	445.09
876.048	326.31
876.229	338.6
876.41	574.11
876.592	748.19
876.773	340.65
876.954	221.86
877.136	1034.91
877.317	527.01
877.498	180.9
877.679	443.04
877.86	789.15
878.042	692.9
878.223	432.8
878.404	737.95
878.585	789.15
878.766	1108.63
878.947	754.34
879.128	623.27
879.309	842.4
879.49	891.55
879.672	518.82
879.853	545.44
880.034	502.43
880.215	670.37
880.396	504.48
880.576	473.76
880.757	613.03
880.938	1039
881.119	334.5
881.3	336.55
881.481	508.58
881.662	1446.55
881.843	322.21
882.023	225.96
882.204	748.19
882.385	637.6
882.566	350.89
882.747	453.28
882.927	651.94
883.108	735.9
883.289	348.84
883.469	762.53
883.65	617.12
883.831	778.91
884.011	584.35
884.192	430.76
884.373	1018.52
884.553	783.01
884.734	629.41
884.914	731.81
885.095	1362.58
885.275	1012.38
885.456	789.15
885.636	363.17
885.817	680.61
885.997	729.76
886.178	420.52
886.358	441
886.538	791.2
886.719	1731.22
886.899	416.42
887.08	596.64
887.26	1034.91
887.44	512.67
887.621	404.13
887.801	592.55
887.981	1288.85
888.161	985.76
888.342	584.35
888.522	473.76
888.702	957.08
888.882	1149.59
889.062	688.8
889.242	326.31
889.423	1155.74
889.603	830.11
889.783	572.07
889.963	559.78
890.143	950.94
890.323	1012.38
890.503	527.01
890.683	615.07
890.863	823.97
891.043	895.64
891.223	643.74
891.403	694.94
891.583	860.83
891.763	844.45
891.943	658.08
892.122	539.3
892.302	807.58
892.482	709.28
892.662	735.9
892.842	604.83
893.022	856.73
893.201	766.62
893.381	701.09
893.561	559.78
893.741	928.41
893.92	891.55
894.1	533.15
894.28	649.89
894.459	1026.71
894.639	1010.33
894.819	586.4
894.998	664.22
895.178	928.41
895.357	1022.62
895.537	647.84
895.716	424.61
895.896	805.53
896.075	1141.4
896.255	580.26
896.434	443.04
896.614	1049.24
896.793	1303.19
896.973	772.77
897.152	582.31
897.331	916.12
897.511	885.41
897.69	457.38
897.87	639.65
898.049	936.6
898.228	862.88
898.407	785.05
898.587	785.05
898.766	615.07
898.945	1030.81
899.124	799.39
899.304	797.34
899.483	969.37
899.662	1292.95
899.841	473.76
900.02	578.21
900.199	1122.97
900.378	922.27
900.557	522.91
900.737	436.9
900.916	934.56
901.095	1098.39
901.274	748.19
901.453	541.35
901.632	610.98
901.811	680.61
901.989	635.55
902.168	486.05
902.347	1082.01
902.526	699.04
902.705	668.32
902.884	582.31
903.063	1178.26
903.242	1102.49
903.42	434.85
903.599	688.8
903.778	1067.67
903.957	1165.98
904.135	696.99
904.314	696.99
904.493	905.88
904.672	1067.67
904.85	574.11
905.029	561.83
905.207	981.66
905.386	1428.12
905.565	445.09
905.743	490.15
905.922	705.18
906.1	1129.11
906.279	502.43
906.457	506.53
906.636	772.77
906.814	723.62
906.993	682.66
907.171	533.15
907.35	948.89
907.528	1061.53
907.707	805.53
907.885	567.97
908.063	1235.61
908.242	637.6
908.42	645.79
908.598	412.32
908.777	1034.91
908.955	754.34
909.133	731.81
909.311	486.05
909.49	776.86
909.668	860.83
909.846	633.5
910.024	354.98
910.202	891.55
910.38	975.52
910.559	418.47
910.737	488.1
910.915	940.7
911.093	955.04
911.271	615.07
911.449	746.14
911.627	1016.48
911.805	1383.06
911.983	559.78
912.161	598.69
912.339	1008.28
912.517	1202.84
912.695	772.77
912.872	608.93
913.05	660.13
913.228	973.47
913.406	653.98
913.584	541.35
913.762	1055.39
913.939	752.29
914.117	424.61
914.295	490.15
914.473	1108.63
914.65	983.71
914.828	619.17
915.006	627.36
915.184	539.3
915.361	930.46
915.539	602.79
915.716	819.87
915.894	969.37
916.072	1135.26
916.249	787.1
916.427	754.34
916.604	664.22
916.782	899.74
916.959	408.23
917.137	692.9
917.314	996
917.492	1018.52
917.669	670.37
917.847	600.74
918.024	1010.33
918.201	666.27
918.379	629.41
918.556	645.79
918.733	1067.67
918.911	711.33
919.088	811.68
919.265	621.22
919.442	862.88
919.62	780.96
919.797	592.55
919.974	522.91
920.151	805.53
920.328	750.24
920.506	541.35
920.683	813.73
920.86	645.79
921.037	760.48
921.214	553.63
921.391	500.39
921.568	1088.15
921.745	629.41
921.922	494.24
922.099	473.76
922.276	1028.76
922.453	844.45
922.63	604.83
922.807	873.12
922.984	776.86
923.161	686.75
923.338	570.02
923.514	389.8
923.691	821.92
923.868	926.36
924.045	635.55
924.222	543.39
924.399	776.86
924.575	1030.81
924.752	606.88
924.929	694.94
925.105	938.65
925.282	584.35
925.459	592.55
925.635	615.07
925.812	723.62
925.989	686.75
926.165	570.02
926.342	373.41
926.518	637.6
926.695	768.67
926.871	504.48
927.048	406.18
927.224	1034.91
927.401	660.13
927.577	662.18
927.754	330.41
927.93	1051.29
928.107	981.66
928.283	443.04
928.459	598.69
928.636	840.35
928.812	625.31
928.988	504.48
929.165	422.56
929.341	696.99
929.517	762.53
929.693	848.54
929.87	326.31
930.046	860.83
930.222	666.27
930.398	424.61
930.574	658.08
930.751	746.14
930.927	598.69
931.103	617.12
931.279	455.33
931.455	481.96
931.631	715.42
931.807	367.27
931.983	414.37
932.159	375.46
932.335	799.39
932.511	516.77
932.687	471.72
932.863	699.04
933.039	752.29
933.215	410.28
933.391	328.36
933.566	549.54
933.742	639.65
933.918	352.93
934.094	268.97
934.27	707.23
934.445	703.14
934.621	563.87
934.797	408.23
934.973	948.89
935.148	744.1
935.324	383.65
935.5	187.05
935.675	924.32
935.851	715.42
936.027	418.47
936.202	418.47
936.378	727.71
936.553	627.36
936.729	893.6
936.904	402.08
937.08	359.08
937.255	350.89
937.431	305.83
937.606	318.12
937.782	524.96
937.957	649.89
938.133	416.42
938.308	297.64
938.483	578.21
938.659	348.84
938.834	463.52
939.009	185
939.185	514.72
939.36	309.93
939.535	-38.23
939.71	391.84
939.886	733.86
940.061	555.68
940.236	424.61
940.411	262.82
940.586	590.5
940.761	635.55
940.937	291.49
941.112	172.71
941.287	508.58
941.462	547.49
941.637	160.42
941.812	219.82
941.987	584.35
942.162	473.76
942.337	381.6
942.512	260.77
942.687	690.85
942.862	565.92
943.037	88.75
943.212	6.83
943.386	395.94
943.561	457.38
943.736	301.73
943.911	555.68
944.086	565.92
944.26	481.96
944.435	248.49
944.61	301.73
944.785	690.85
944.959	936.6
945.134	248.49
945.309	166.57
945.483	236.2
945.658	656.03
945.833	-46.42
946.007	-3.41
946.182	846.49
946.357	127.66
946.531	146.09
946.706	127.66
946.88	27.31
947.055	510.63
947.229	201.38
947.404	113.32
947.578	717.47
947.752	393.89
947.927	80.55
948.101	-42.32
948.276	481.96
948.45	457.38
948.624	393.89
948.799	197.29
948.973	502.43
949.147	78.51
949.321	236.2
949.496	203.43
949.67	807.58
949.844	352.93
950.018	203.43
950.193	88.75
950.367	842.4
950.541	402.08
950.715	363.17
950.889	340.65
951.063	369.32
951.237	545.44
951.411	-77.14
951.585	-75.09
951.759	469.67
951.933	367.27
952.107	178.86
952.281	287.4
952.455	785.05
952.629	598.69
952.803	74.41
952.977	137.9
953.151	551.59
953.325	514.72
953.499	322.21
953.672	66.22
953.846	146.09
954.02	324.26
954.194	160.42
954.368	117.42
954.541	561.83
954.715	453.28
954.889	254.63
955.062	47.79
955.236	303.78
955.41	322.21
955.583	242.34
955.757	-27.99
955.93	375.46
956.104	39.59
956.278	68.27
956.451	154.28
956.625	527.01
956.798	869.02
956.972	354.98
957.145	135.85
957.319	400.04
957.492	416.42
957.665	316.07
957.839	133.8
958.012	490.15
958.185	244.39
958.359	228.01
958.532	330.41
958.705	598.69
958.879	393.89
959.052	293.54
959.225	0.68
959.398	328.36
959.572	484
959.745	129.7
959.918	232.1
960.091	367.27
960.264	461.48
960.438	105.13
960.611	74.41
960.784	590.5
960.957	230.06
961.13	586.4
961.303	88.75
961.476	408.23
961.649	512.67
961.822	76.46
961.995	166.57
962.168	576.16
962.341	481.96
962.514	180.9
962.686	154.28
962.859	412.32
963.032	533.15
963.205	121.51
963.378	-9.56
963.551	522.91
963.723	418.47
963.896	307.88
964.069	268.97
964.242	303.78
964.414	651.94
964.587	232.1
964.76	228.01
964.932	584.35
965.105	375.46
965.278	172.71
965.45	49.83
965.623	490.15
965.795	490.15
965.968	137.9
966.14	172.71
966.313	369.32
966.485	432.8
966.658	176.81
966.83	105.13
967.003	613.03
967.175	639.65
967.348	176.81
967.52	176.81
967.692	838.3
967.865	539.3
968.037	123.56
968.209	465.57
968.382	346.79
968.554	707.23
968.726	238.25
968.898	72.36
969.071	404.13
969.243	565.92
969.415	164.52
969.587	268.97
969.759	979.61
969.932	590.5
970.104	127.66
970.276	-138.58
970.448	260.77
970.62	242.34
970.792	260.77
970.964	291.49
971.136	803.49
971.308	586.4
971.48	80.55
971.652	219.82
971.824	744.1
971.996	256.68
972.168	205.48
972.339	172.71
972.511	602.79
972.683	307.88
972.855	397.99
973.027	260.77
973.199	348.84
973.37	555.68
973.542	334.5
973.714	309.93
973.886	383.65
974.057	516.77
974.229	35.5
974.401	33.45
974.572	268.97
974.744	21.16
974.915	60.07
975.087	135.85
975.259	727.71
975.43	230.06
975.602	213.67
975.773	31.4
975.945	195.24
976.116	584.35
976.288	105.13
976.459	273.06
976.63	301.73
976.802	570.02
976.973	101.03
977.145	285.35
977.316	811.68
977.487	547.49
977.659	369.32
977.83	213.67
978.001	854.69
978.172	475.81
978.344	182.95
978.515	236.2
978.686	352.93
978.857	731.81
979.028	219.82
979.2	31.4
979.371	785.05
979.542	389.8
979.713	338.6
979.884	-181.59
980.055	232.1
980.226	338.6
980.397	117.42
980.568	-15.7
980.739	678.56
980.91	322.21
981.081	346.79
981.252	60.07
981.423	500.39
981.594	574.11
981.765	58.03
981.936	279.21
982.106	402.08
982.277	699.04
982.448	84.65
982.619	223.91
982.79	273.06
982.96	656.03
983.131	195.24
983.302	-34.13
983.472	266.92
983.643	490.15
983.814	187.05
983.984	64.17
984.155	334.5
984.326	588.45
984.496	223.91
984.667	64.17
984.837	80.55
985.008	699.04
985.178	379.56
985.349	209.58
985.519	373.41
985.69	203.43
985.86	211.62
986.031	74.41
986.201	441
986.371	561.83
986.542	92.84
986.712	-91.48
986.882	510.63
987.053	469.67
987.223	119.46
987.393	297.64
987.563	334.5
987.734	490.15
987.904	412.32
988.074	82.6
988.244	391.84
988.414	244.39
988.585	-15.7
988.755	271.01
988.925	363.17
989.095	713.38
989.265	109.22
989.435	219.82
989.605	555.68
989.775	477.86
989.945	475.81
990.115	43.69
990.285	469.67
990.455	459.43
990.625	203.43
990.795	66.22
990.965	666.27
991.134	211.62
991.304	-1.37
991.474	68.27
991.644	391.84
991.814	774.81
991.984	43.69
992.153	113.32
992.323	279.21
992.493	397.99
992.662	-134.48
992.832	309.93
993.002	408.23
993.171	424.61
993.341	-25.94
993.511	271.01
993.68	180.9
993.85	576.16
994.019	-95.57
994.189	-87.38
994.358	449.19
994.528	217.77
994.697	-179.54
994.867	-99.67
995.036	461.48
995.206	234.15
995.375	-58.71
995.544	141.99
995.714	342.69
995.883	203.43
996.052	262.82
996.222	-150.87
996.391	780.96
996.56	385.7
996.73	-17.75
996.899	-60.76
997.068	694.94
997.237	387.75
997.406	15.02
997.576	-146.77
997.745	385.7
997.914	381.6
998.083	-85.33
998.252	10.92
998.421	311.97
998.59	55.98
998.759	-126.29
998.928	-197.97
999.097	588.45
999.266	471.72
999.435	162.47
999.604	-114
999.773	869.02
999.942	256.68
1000.111	-109.91
1000.28	-165.2
1000.448	96.94
1000.617	49.83
1000.786	166.57
1000.955	-134.48
1001.124	314.02
1001.292	1045.15
1001.461	-79.19
1001.63	-38.23
1001.798	606.88
1001.967	610.98
1002.136	-101.72
1002.304	-128.34
1002.473	402.08
1002.642	342.69
1002.81	45.74
1002.979	41.64
1003.147	496.29
1003.316	809.63
1003.484	-30.04
1003.653	-81.24
1003.821	547.49
1003.99	238.25
1004.158	70.31
1004.327	55.98
1004.495	408.23
1004.663	154.28
1004.832	197.29
1005	-148.82
1005.168	361.13
1005.337	330.41
1005.505	-202.07
1005.673	162.47
1005.842	459.43
1006.01	340.65
1006.178	-146.77
1006.346	-27.99
1006.514	471.72
1006.683	510.63
1006.851	-19.8
1007.019	-197.97
1007.187	154.28
1007.355	-138.58
1007.523	-298.32
1007.691	-183.63
1007.859	47.79
1008.027	549.54
1008.195	2.73
1008.363	-124.24
1008.531	461.48
1008.699	76.46
1008.867	-226.64
1009.035	-23.89
1009.203	531.11
1009.37	361.13
1009.538	-177.49
1009.706	387.75
1009.874	338.6
1010.042	301.73
1010.209	-230.74
1010.377	-124.24
1010.545	481.96
1010.713	156.33
1010.88	-91.48
1011.048	-89.43
1011.216	164.52
1011.383	621.22
1011.551	-128.34
1011.718	-140.63
1011.886	465.57
1012.054	326.31
1012.221	-177.49
1012.389	-68.95
1012.556	172.71
1012.724	680.61
1012.891	45.74
1013.058	-273.75
1013.226	484
1013.393	469.67
1013.561	-165.2
1013.728	-226.64
1013.895	406.18
1014.063	400.04
1014.23	-212.31
1014.397	-148.82
1014.565	484
1014.732	248.49
1014.899	-132.44
1015.066	-167.25
1015.233	287.4
1015.401	420.52
1015.568	-25.94
1015.735	43.69
1015.902	203.43
1016.069	350.89
1016.236	-66.9
1016.403	-107.86
1016.57	-32.08
1016.737	451.24
1016.904	-85.33
1017.071	-230.74
1017.238	182.95
1017.405	408.23
1017.572	-163.15
1017.739	-5.46
1017.906	418.47
1018.073	451.24
1018.24	-132.44
1018.407	-140.63
1018.573	490.15
1018.74	203.43
1018.907	-91.48
1019.074	-281.94
1019.241	490.15
1019.407	277.16
1019.574	-118.1
1019.741	-279.89
1019.907	291.49
1020.074	377.51
1020.241	-349.52
1020.407	-226.64
1020.574	416.42
1020.74	361.13
1020.907	-140.63
1021.073	-177.49
1021.24	807.58
1021.406	590.5
1021.573	-140.63
1021.739	-161.11
1021.906	481.96
1022.072	236.2
1022.239	-83.28
1022.405	-95.57
1022.571	305.83
1022.738	25.26
1022.904	-91.48
1023.07	-95.57
1023.237	262.82
1023.403	443.04
1023.569	-114
1023.735	-32.08
1023.902	332.45
1024.068	297.64
1024.234	-200.02
1024.4	-214.35
1024.566	326.31
1024.732	447.14
1024.898	-66.9
1025.065	-259.41
1025.231	443.04
1025.397	195.24
1025.563	-157.01
1025.729	-114
1025.895	-197.97
1026.061	35.5
1026.227	-339.28
1026.392	-42.32
1026.558	436.9
1026.724	387.75
1026.89	-175.44
1027.056	-62.8
1027.222	330.41
1027.388	49.83
1027.553	-175.44
1027.719	-171.35
1027.885	621.22
1028.051	354.98
1028.216	-224.59
1028.382	-75.09
1028.548	393.89
1028.713	113.32
1028.879	-177.49
1029.045	43.69
1029.21	596.64
1029.376	457.38
1029.541	-46.42
1029.707	-103.76
1029.873	361.13
1030.038	412.32
1030.204	-105.81
1030.369	-124.24
1030.534	363.17
1030.7	64.17
1030.865	-130.39
1031.031	-243.03
1031.196	326.31
1031.361	307.88
1031.527	-181.59
1031.692	-169.3
1031.857	-197.97
1032.023	410.28
1032.188	-197.97
1032.353	-34.13
1032.518	694.94
1032.684	250.53
1032.849	-286.03
1033.014	-105.81
1033.179	375.46
1033.344	432.8
1033.509	35.5
1033.674	-146.77
1033.839	385.7
1034.004	389.8
1034.17	-173.39
1034.335	-286.03
1034.5	203.43
1034.664	150.18
1034.829	-202.07
1034.994	-177.49
1035.159	271.01
1035.324	254.63
1035.489	-206.16
1035.654	-238.93
1035.819	649.89
1035.984	260.77
1036.148	-62.8
1036.313	-118.1
1036.478	543.39
1036.643	252.58
1036.807	-193.87
1036.972	-220.5
1037.137	475.81
1037.301	244.39
1037.466	-308.56
1037.631	-3.41
1037.795	580.26
1037.96	328.36
1038.124	-3.41
1038.289	-226.64
1038.454	395.94
1038.618	391.84
1038.783	-101.72
1038.947	-46.42
1039.111	322.21
1039.276	113.32
1039.44	-148.82
1039.605	299.69
1039.769	129.7
1039.933	146.09
1040.098	-71
1040.262	238.25
1040.426	422.56
1040.591	397.99
1040.755	-152.92
1040.919	-140.63
1041.083	377.51
1041.248	72.36
1041.412	-253.27
1041.576	-236.88
1041.74	154.28
1041.904	408.23
1042.068	-105.81
1042.232	-77.14
1042.397	428.71
1042.561	371.36
1042.725	-267.6
1042.889	-32.08
1043.053	363.17
1043.217	303.78
1043.381	-23.89
1043.544	-224.59
1043.708	527.01
1043.872	94.89
1044.036	-349.52
1044.2	-288.08
1044.364	543.39
1044.528	537.25
1044.691	4594.28
1044.855	-249.17
1045.019	541.35
1045.183	465.57
1045.346	-85.33
1045.51	-259.41
1045.674	330.41
1045.837	371.36
1046.001	-111.96
1046.165	-222.55
1046.328	760.48
1046.492	342.69
1046.655	45.74
1046.819	-9.56
1046.983	66.22
1047.146	354.98
1047.31	-68.95
1047.473	-361.81
1047.636	238.25
1047.8	47.79
1047.963	-128.34
1048.127	-218.45
1048.29	109.22
