Data from Ink_Intensity_USB4F045381__42__00042.txt Node

Date: Mon Jul 17 09:56:09 EDT 2023
User: mmckonesweet
Spectrometer: USB4F04538
Trigger mode: 4
Integration Time (sec): 9.000000E-1
Scans to average: 1
Electric dark correction enabled: true
Nonlinearity correction enabled: false
Boxcar width: 0
XAxis mode: Wavelengths
Number of Pixels in Spectrum: 3648
>>>>>Begin Spectral Data<<<<<
345.52	-986.27
345.736	-986.27
345.952	-986.27
346.168	-957.6
346.384	-930.97
346.6	-72.87
346.816	-296.1
347.032	-216.23
347.248	273.23
347.464	-259.24
347.68	-95.4
347.896	121.68
348.112	328.53
348.328	-33.96
348.544	-44.2
348.76	54.1
348.975	240.47
349.191	-220.33
349.407	-193.7
349.623	29.52
349.839	-48.3
350.055	-201.9
350.27	56.15
350.486	191.31
350.702	281.43
350.918	201.55
351.133	-183.46
351.349	136.02
351.565	375.63
351.781	-216.23
351.996	-13.48
352.212	310.1
352.428	-158.89
352.644	-199.85
352.859	-314.53
353.075	217.94
353.291	-42.15
353.506	-42.15
353.722	-197.8
353.938	-36.01
354.153	404.3
354.369	90.96
354.584	-156.84
354.8	236.37
355.016	-369.83
355.231	-179.37
355.447	-130.22
355.662	31.57
355.878	875.34
356.093	-296.1
356.309	-68.78
356.524	-189.61
356.74	242.51
356.955	-224.42
357.171	-48.3
357.386	50
357.602	-320.68
357.817	-19.63
358.033	-214.18
358.248	439.12
358.464	174.93
358.679	-134.31
358.895	-257.19
359.11	33.62
359.325	279.38
359.541	226.13
359.756	-62.63
359.972	-304.29
360.187	138.07
360.402	-189.61
360.618	-130.22
360.833	979.78
361.048	86.87
361.264	-140.46
361.479	-62.63
361.694	-60.59
361.909	236.37
362.125	-208.04
362.34	-81.07
362.555	185.17
362.77	29.52
362.986	-208.04
363.201	-199.85
363.416	127.83
363.631	25.43
363.847	-208.04
364.062	-132.26
364.277	185.17
364.492	168.79
364.707	-154.79
364.922	-402.6
365.138	222.03
365.353	291.66
365.568	-220.33
365.783	-122.02
365.998	39.76
366.213	564.04
366.428	-156.84
366.643	66.39
366.858	222.03
367.073	199.51
367.288	-113.83
367.503	-205.99
367.718	101.2
367.933	293.71
368.148	-335.01
368.363	-95.4
368.578	-54.44
368.793	363.34
369.008	-175.27
369.223	-167.08
369.438	148.31
369.653	299.86
369.868	-167.08
370.083	-226.47
370.298	131.92
370.513	336.72
370.728	70.48
370.943	-93.35
371.157	-115.88
371.372	492.37
371.587	-271.53
371.802	-183.46
372.017	50
372.232	475.98
372.446	-85.16
372.661	-249
372.876	164.69
373.091	105.3
373.306	-15.53
373.52	-187.56
373.735	-218.28
373.95	402.26
374.165	-97.45
374.379	-140.46
374.594	-66.73
374.809	64.34
375.023	-64.68
375.238	-234.66
375.453	222.03
375.667	-230.57
375.882	-101.55
376.097	-109.74
376.311	-29.87
376.526	17.24
376.741	-117.93
376.955	56.15
377.17	512.85
377.384	445.26
377.599	-83.11
377.813	-281.77
378.028	555.85
378.242	164.69
378.457	-44.2
378.672	-310.44
378.886	131.92
379.101	-72.87
379.315	-310.44
379.53	-128.17
379.744	181.07
379.958	142.16
380.173	-124.07
380.387	-138.41
380.602	172.88
380.816	-167.08
381.031	-109.74
381.245	-128.17
381.459	209.75
381.674	2456.37
381.888	-105.64
382.103	86.87
382.317	-201.9
382.531	486.22
382.746	-99.5
382.96	-181.42
383.174	-156.84
383.388	306
383.603	17.24
383.817	-267.43
384.031	117.59
384.246	496.46
384.46	21.33
384.674	252.75
384.888	-5.29
385.103	15.19
385.317	-261.29
385.531	-42.15
385.745	260.95
385.959	267.09
386.174	-132.26
386.388	-150.7
386.602	-56.49
386.816	-97.45
387.03	-70.83
387.244	-56.49
387.458	54.1
387.672	338.77
387.887	-195.75
388.101	-185.51
388.315	308.05
388.529	97.11
388.743	-56.49
388.957	-238.76
389.171	258.9
389.385	-212.14
389.599	-95.4
389.813	4.95
390.027	166.74
390.241	529.23
390.455	-115.88
390.669	-103.59
390.883	-103.59
391.097	320.34
391.311	43.86
391.525	-228.52
391.738	119.64
391.952	123.73
392.166	-85.16
392.38	-253.09
392.594	310.1
392.808	312.14
393.022	-128.17
393.236	-52.39
393.449	136.02
393.663	224.08
393.877	-195.75
394.091	-62.63
394.305	-152.74
394.518	-83.11
394.732	-246.95
394.946	-44.2
395.16	447.31
395.373	109.4
395.587	-154.79
395.801	-156.84
396.015	275.28
396.228	191.31
396.442	-224.42
396.656	-296.1
396.869	336.72
397.083	402.26
397.297	-115.88
397.51	-99.5
397.724	346.96
397.938	162.64
398.151	-257.19
398.365	-191.66
398.578	236.37
398.792	326.48
399.005	-19.63
399.219	-76.97
399.433	84.82
399.646	271.19
399.86	9.05
400.073	15.19
400.287	234.32
400.5	-23.72
400.714	-11.43
400.927	-17.58
401.141	283.47
401.354	918.34
401.567	176.98
401.781	-238.76
401.994	310.1
402.208	680.78
402.421	-89.26
402.635	-44.2
402.848	25.43
403.061	328.53
403.275	-42.15
403.488	-177.32
403.701	410.45
403.915	234.32
404.128	29.52
404.341	-109.74
404.555	115.54
404.768	21.33
404.981	4.95
405.195	-185.51
405.408	504.65
405.621	142.16
405.834	2.9
406.048	-216.23
406.261	357.2
406.474	463.69
406.687	-175.27
406.9	-5.29
407.114	58.2
407.327	103.25
407.54	-232.62
407.753	-187.56
407.966	-124.07
408.179	262.99
408.392	-197.8
408.605	-222.38
408.819	82.77
409.032	90.96
409.245	-113.83
409.458	113.49
409.671	303.95
409.884	256.85
410.097	-205.99
410.31	80.72
410.523	226.13
410.736	13.14
410.949	-42.15
411.162	-91.31
411.375	439.12
411.588	295.76
411.801	37.72
412.014	-130.22
412.227	11.09
412.44	-27.82
412.653	-199.85
412.865	-56.49
413.078	211.79
413.291	211.79
413.504	-64.68
413.717	-136.36
413.93	326.48
414.143	-72.87
414.356	-167.08
414.568	-246.95
414.781	332.62
414.994	133.97
415.207	15.19
415.42	-122.02
415.632	275.28
415.845	424.78
416.058	-226.47
416.271	-142.5
416.483	125.78
416.696	486.22
416.909	-187.56
417.121	-83.11
417.334	172.88
417.547	518.99
417.759	-171.18
417.972	-187.56
418.185	-85.16
418.397	242.51
418.61	-203.94
418.823	-107.69
419.035	435.02
419.248	54.1
419.46	-70.83
419.673	-144.55
419.885	228.18
420.098	-11.43
420.311	-105.64
420.523	-386.21
420.736	138.07
420.948	107.35
421.161	-89.26
421.373	-408.74
421.586	168.79
421.798	-40.11
422.01	-234.66
422.223	-31.91
422.435	33.62
422.648	176.98
422.86	-38.06
423.073	-152.74
423.285	363.34
423.497	-220.33
423.71	-111.78
423.922	-271.53
424.134	142.16
424.347	383.82
424.559	62.29
424.771	90.96
424.984	-52.39
425.196	129.88
425.408	-289.96
425.621	-257.19
425.833	226.13
426.045	338.77
426.257	-249
426.47	-191.66
426.682	68.44
426.894	207.7
427.106	-105.64
427.318	-46.25
427.531	-54.44
427.743	279.38
427.955	-191.66
428.167	318.29
428.379	195.41
428.591	17.24
428.804	-58.54
429.016	-109.74
429.228	-124.07
429.44	45.91
429.652	7
429.864	-179.37
430.076	13.14
430.288	-50.35
430.5	-89.26
430.712	-124.07
430.924	273.23
431.136	125.78
431.348	-296.1
431.56	-208.04
431.772	41.81
431.984	72.53
432.196	-105.64
432.408	-136.36
432.62	-48.3
432.832	129.88
433.044	121.68
433.256	-7.34
433.468	217.94
433.679	-222.38
433.891	-171.18
434.103	21.33
434.315	365.39
434.527	209.75
434.739	-87.21
434.95	-126.12
435.162	258.9
435.374	-64.68
435.586	-85.16
435.798	-142.5
436.009	-232.62
436.221	-72.87
436.433	-165.03
436.645	-62.63
436.856	-50.35
437.068	273.23
437.28	-228.52
437.491	103.25
437.703	146.26
437.915	136.02
438.126	-83.11
438.338	107.35
438.55	41.81
438.761	209.75
438.973	-119.98
439.184	-126.12
439.396	78.68
439.608	342.86
439.819	-185.51
440.031	-1.19
440.242	213.84
440.454	262.99
440.665	-48.3
440.877	27.48
441.088	166.74
441.3	7
441.511	-218.28
441.723	-212.14
441.934	160.59
442.146	-15.53
442.357	-46.25
442.569	90.96
442.78	41.81
442.991	439.12
443.203	111.44
443.414	-228.52
443.626	355.15
443.837	-146.6
444.048	-201.9
444.26	-283.81
444.471	105.3
444.682	256.85
444.894	-351.4
445.105	-375.97
445.316	267.09
445.528	99.16
445.739	-50.35
445.95	-115.88
446.161	183.12
446.373	295.76
446.584	-218.28
446.795	-124.07
447.006	154.45
447.217	422.73
447.429	-318.63
447.64	-244.9
447.851	254.8
448.062	88.92
448.273	-324.77
448.484	-162.98
448.695	162.64
448.907	-19.63
449.118	-58.54
449.329	47.96
449.54	-85.16
449.751	-165.03
449.962	-70.83
450.173	-156.84
450.384	369.49
450.595	392.02
450.806	-201.9
451.017	-140.46
451.228	439.12
451.439	281.43
451.65	-150.7
451.861	-328.87
452.072	-181.42
452.283	37.72
452.494	23.38
452.705	-179.37
452.915	316.24
453.126	195.41
453.337	-89.26
453.548	-230.57
453.759	207.7
453.97	609.1
454.181	7
454.391	-85.16
454.602	52.05
454.813	207.7
455.024	-107.69
455.235	-162.98
455.445	72.53
455.656	166.74
455.867	35.67
456.078	-287.91
456.288	23.38
456.499	117.59
456.71	-220.33
456.921	93.01
457.131	156.5
457.342	123.73
457.553	-46.25
457.763	-191.66
457.974	187.22
458.184	281.43
458.395	-226.47
458.606	-271.53
458.816	349.01
459.027	439.12
459.237	-36.01
459.448	-349.35
459.659	332.62
459.869	502.61
460.08	-302.25
460.29	-36.01
460.501	463.69
460.711	-15.53
460.922	-298.15
461.132	-158.89
461.343	713.55
461.553	-281.77
461.764	-132.26
461.974	-171.18
462.184	281.43
462.395	101.2
462.605	-33.96
462.816	-230.57
463.026	84.82
463.236	314.19
463.447	-185.51
463.657	-103.59
463.867	160.59
464.078	-44.2
464.288	-76.97
464.498	-183.46
464.709	29.52
464.919	-54.44
465.129	-76.97
465.339	-275.62
465.55	150.36
465.76	158.55
465.97	-171.18
466.18	-214.18
466.391	246.61
466.601	168.79
466.811	-66.73
467.021	-222.38
467.231	111.44
467.441	310.1
467.651	-138.41
467.862	-369.83
468.072	121.68
468.282	408.4
468.492	-140.46
468.702	-187.56
468.912	82.77
469.122	572.24
469.332	111.44
469.542	-300.2
469.752	189.27
469.962	123.73
470.172	-226.47
470.382	-124.07
470.592	187.22
470.802	385.87
471.012	-72.87
471.222	-226.47
471.432	318.29
471.642	170.83
471.852	-42.15
472.062	-189.61
472.272	-36.01
472.482	-136.36
472.691	-220.33
472.901	-302.25
473.111	203.6
473.321	580.43
473.531	-212.14
473.741	-126.12
473.95	209.75
474.16	166.74
474.37	-126.12
474.58	-240.81
474.79	494.41
474.999	209.75
475.209	-142.5
475.419	-185.51
475.628	-62.63
475.838	242.51
476.048	-103.59
476.258	-242.85
476.467	363.34
476.677	-160.94
476.886	-38.06
477.096	-58.54
477.306	-68.78
477.515	365.39
477.725	-109.74
477.935	-158.89
478.144	238.42
478.354	-46.25
478.563	-146.6
478.773	-171.18
478.982	183.12
479.192	340.82
479.401	-115.88
479.611	-228.52
479.82	-179.37
480.03	64.34
480.239	-201.9
480.449	-228.52
480.658	385.87
480.868	-189.61
481.077	-52.39
481.287	-183.46
481.496	156.5
481.705	396.11
481.915	15.19
482.124	72.53
482.333	144.21
482.543	359.25
482.752	-171.18
482.961	-228.52
483.171	260.95
483.38	125.78
483.589	-199.85
483.799	-246.95
484.008	109.4
484.217	336.72
484.426	-107.69
484.636	-265.38
484.845	176.98
485.054	-240.81
485.263	97.11
485.472	-115.88
485.682	426.83
485.891	70.48
486.1	-289.96
486.309	-195.75
486.518	174.93
486.727	244.56
486.936	-154.79
487.146	-103.59
487.355	445.26
487.564	-122.02
487.773	-177.32
487.982	-52.39
488.191	-5.29
488.4	74.58
488.609	-138.41
488.818	-124.07
489.027	543.57
489.236	367.44
489.445	-99.5
489.654	-220.33
489.863	277.33
490.072	56.15
490.281	109.4
490.49	-142.5
490.698	412.5
490.907	363.34
491.116	-224.42
491.325	-277.67
491.534	377.68
491.743	115.54
491.952	-21.67
492.16	-181.42
492.369	107.35
492.578	289.62
492.787	-105.64
492.996	-287.91
493.204	-105.64
493.413	486.22
493.622	-347.3
493.831	-304.29
494.039	396.11
494.248	-169.13
494.457	-251.05
494.665	-281.77
494.874	244.56
495.083	455.5
495.291	-150.7
495.5	-269.48
495.709	314.19
495.917	33.62
496.126	-64.68
496.335	-167.08
496.543	25.43
496.752	109.4
496.96	-9.39
497.169	-437.41
497.377	117.59
497.586	351.06
497.794	-140.46
498.003	-332.97
498.211	68.44
498.42	400.21
498.628	-56.49
498.837	-226.47
499.045	156.5
499.254	199.51
499.462	-187.56
499.671	-220.33
499.879	336.72
500.087	369.49
500.296	-234.66
500.504	-185.51
500.713	78.68
500.921	480.08
501.129	-183.46
501.338	-101.55
501.546	64.34
501.754	101.2
501.962	-148.65
502.171	-214.18
502.379	82.77
502.587	404.3
502.795	-97.45
503.004	-203.94
503.212	35.67
503.42	379.73
503.628	-167.08
503.837	-109.74
504.045	183.12
504.253	455.5
504.461	-253.09
504.669	-359.59
504.877	201.55
505.085	445.26
505.294	-296.1
505.502	-17.58
505.71	21.33
505.918	301.9
506.126	-148.65
506.334	-191.66
506.542	-19.63
506.75	144.21
506.958	-40.11
507.166	-156.84
507.374	74.58
507.582	580.43
507.79	-91.31
507.998	-257.19
508.206	68.44
508.414	142.16
508.622	-175.27
508.83	-185.51
509.037	373.58
509.245	41.81
509.453	-187.56
509.661	-302.25
509.869	234.32
510.077	-38.06
510.285	-72.87
510.492	-412.84
510.7	594.76
510.908	-74.92
511.116	-152.74
511.324	-179.37
511.531	17.24
511.739	23.38
511.947	-81.07
512.155	86.87
512.362	41.81
512.57	-201.9
512.778	-199.85
512.985	-421.03
513.193	316.24
513.401	412.5
513.608	-136.36
513.816	-158.89
514.024	150.36
514.231	402.26
514.439	-177.32
514.646	-187.56
514.854	183.12
515.061	351.06
515.269	-234.66
515.477	-197.8
515.684	-175.27
515.892	234.32
516.099	-363.69
516.307	-318.63
516.514	136.02
516.722	424.78
516.929	-72.87
517.136	-298.15
517.344	406.35
517.551	172.88
517.759	-205.99
517.966	-199.85
518.173	-27.82
518.381	45.91
518.588	-165.03
518.796	-263.33
519.003	228.18
519.21	29.52
519.418	-199.85
519.625	56.15
519.832	25.43
520.039	90.96
520.247	-400.55
520.454	-212.14
520.661	256.85
520.868	168.79
521.076	-144.55
521.283	-171.18
521.49	588.62
521.697	78.68
521.904	-228.52
522.112	-179.37
522.319	252.75
522.526	164.69
522.733	-289.96
522.94	-142.5
523.147	111.44
523.354	275.28
523.561	-384.16
523.768	-132.26
523.975	332.62
524.183	95.06
524.39	-224.42
524.597	-271.53
524.804	90.96
525.011	-177.32
525.218	-285.86
525.425	-238.76
525.632	340.82
525.838	-74.92
526.045	-185.51
526.252	-199.85
526.459	1061.7
526.666	777.03
526.873	-255.14
527.08	-154.79
527.287	437.07
527.494	260.95
527.701	-306.34
527.907	-300.2
528.114	201.55
528.321	-17.58
528.528	-185.51
528.735	-232.62
528.941	-27.82
529.148	-21.67
529.355	-146.6
529.562	-271.53
529.768	521.04
529.975	2.9
530.182	-150.7
530.388	-187.56
530.595	330.58
530.802	-138.41
531.008	-87.21
531.215	-220.33
531.422	770.89
531.628	707.4
531.835	-146.6
532.042	-91.31
532.248	-60.59
532.455	90.96
532.661	-150.7
532.868	-150.7
533.074	101.2
533.281	297.81
533.487	-179.37
533.694	-236.71
533.9	-173.22
534.107	299.86
534.313	-277.67
534.52	-240.81
534.726	314.19
534.933	486.22
535.139	-357.54
535.345	-341.16
535.552	76.63
535.758	47.96
535.965	-187.56
536.171	-273.57
536.377	256.85
536.584	334.67
536.79	-183.46
536.996	-160.94
537.203	52.05
537.409	166.74
537.615	-122.02
537.821	-66.73
538.028	232.27
538.234	242.51
538.44	-238.76
538.646	-167.08
538.853	224.08
539.059	78.68
539.265	109.4
539.471	-337.06
539.677	213.84
539.883	-54.44
540.09	-144.55
540.296	179.03
540.502	90.96
540.708	-66.73
540.914	-48.3
541.12	-228.52
541.326	232.27
541.532	103.25
541.738	-107.69
541.944	-128.17
542.15	187.22
542.356	29.52
542.562	-246.95
542.768	-124.07
542.974	635.72
543.18	527.18
543.386	-234.66
543.592	-255.14
543.798	334.67
544.004	312.14
544.21	-246.95
544.415	-146.6
544.621	97.11
544.827	228.18
545.033	-265.38
545.239	-13.48
545.445	-220.33
545.651	105.3
545.856	-142.5
546.062	-208.04
546.268	-70.83
546.474	17.24
546.679	-214.18
546.885	-156.84
547.091	-36.01
547.297	469.84
547.502	-195.75
547.708	-238.76
547.914	-52.39
548.119	136.02
548.325	-269.48
548.531	-337.06
548.736	316.24
548.942	-134.31
549.147	-165.03
549.353	-33.96
549.559	342.86
549.764	127.83
549.97	-150.7
550.175	-111.78
550.381	222.03
550.586	45.91
550.792	-132.26
550.997	-158.89
551.203	187.22
551.408	162.64
551.614	-306.34
551.819	-242.85
552.025	314.19
552.23	549.71
552.435	-320.68
552.641	-31.91
552.846	-152.74
553.052	316.24
553.257	-99.5
553.462	-205.99
553.668	-126.12
553.873	281.43
554.078	-195.75
554.283	-212.14
554.489	144.21
554.694	99.16
554.899	-251.05
555.105	-62.63
555.31	250.71
555.515	287.57
555.72	-165.03
555.925	-197.8
556.131	187.22
556.336	-156.84
556.541	-154.79
556.746	-238.76
556.951	369.49
557.156	412.5
557.361	-146.6
557.567	-111.78
557.772	590.67
557.977	93.01
558.182	-162.98
558.387	-226.47
558.592	-183.46
558.797	291.66
559.002	-60.59
559.207	-56.49
559.412	-48.3
559.617	467.79
559.822	-224.42
560.027	-279.72
560.232	205.65
560.437	281.43
560.642	-386.21
560.847	-240.81
561.051	138.07
561.256	162.64
561.461	-167.08
561.666	-296.1
561.871	119.64
562.076	222.03
562.281	-183.46
562.485	-298.15
562.69	281.43
562.895	256.85
563.1	-201.9
563.305	-265.38
563.509	363.34
563.714	650.06
563.919	-335.01
564.123	-214.18
564.328	54.1
564.533	299.86
564.737	-134.31
564.942	-115.88
565.147	473.93
565.351	580.43
565.556	-56.49
565.761	-44.2
565.965	39.76
566.17	-119.98
566.374	-140.46
566.579	-246.95
566.784	97.11
566.988	-19.63
567.193	-390.31
567.397	-255.14
567.602	-160.94
567.806	-7.34
568.011	-150.7
568.215	-218.28
568.42	4.95
568.624	-21.67
568.828	-171.18
569.033	-33.96
569.237	179.03
569.442	176.98
569.646	-318.63
569.85	-158.89
570.055	-9.39
570.259	187.22
570.463	-7.34
570.668	-115.88
570.872	62.29
571.076	125.78
571.281	-15.53
571.485	-89.26
571.689	127.83
571.893	236.37
572.098	-56.49
572.302	-109.74
572.506	140.12
572.71	123.73
572.914	-76.97
573.119	-167.08
573.323	410.45
573.527	357.2
573.731	-183.46
573.935	-224.42
574.139	74.58
574.343	-50.35
574.547	-162.98
574.751	-105.64
574.955	328.53
575.159	373.58
575.364	-253.09
575.568	-269.48
575.772	50
575.976	406.35
576.18	-177.32
576.383	-326.82
576.587	318.29
576.791	250.71
576.995	-474.28
577.199	-310.44
577.403	414.54
577.607	336.72
577.811	-279.72
578.015	-64.68
578.219	56.15
578.422	254.8
578.626	-154.79
578.83	66.39
579.034	346.96
579.238	166.74
579.442	-193.7
579.645	119.64
579.849	37.72
580.053	129.88
580.257	-162.98
580.46	-212.14
580.664	258.9
580.868	197.46
581.071	54.1
581.275	-76.97
581.479	-158.89
581.682	213.84
581.886	-187.56
582.09	-7.34
582.293	211.79
582.497	349.01
582.7	-31.91
582.904	-171.18
583.107	56.15
583.311	-1.19
583.515	-93.35
583.718	-93.35
583.922	56.15
584.125	432.97
584.329	-265.38
584.532	-40.11
584.735	406.35
584.939	174.93
585.142	-261.29
585.346	-210.09
585.549	209.75
585.753	-44.2
585.956	-142.5
586.159	-38.06
586.363	463.69
586.566	232.27
586.769	-275.62
586.973	-162.98
587.176	267.09
587.379	457.55
587.582	185.17
587.786	54.1
587.989	-38.06
588.192	705.35
588.395	-9.39
588.599	107.35
588.802	166.74
589.005	252.75
589.208	-83.11
589.411	-158.89
589.615	389.97
589.818	471.89
590.021	74.58
590.224	-111.78
590.427	248.66
590.63	242.51
590.833	-273.57
591.036	-189.61
591.239	-31.91
591.442	19.29
591.645	11.09
591.848	-158.89
592.051	88.92
592.254	353.1
592.457	-142.5
592.66	-58.54
592.863	15.19
593.066	238.42
593.269	-128.17
593.472	-85.16
593.675	52.05
593.878	252.75
594.081	-124.07
594.284	-253.09
594.486	228.18
594.689	103.25
594.892	-42.15
595.095	-58.54
595.298	248.66
595.5	21.33
595.703	-40.11
595.906	-31.91
596.109	441.17
596.311	324.43
596.514	-392.36
596.717	-56.49
596.92	381.78
597.122	217.94
597.325	-308.39
597.528	-56.49
597.73	254.8
597.933	99.16
598.136	-148.65
598.338	-378.02
598.541	299.86
598.743	375.63
598.946	-199.85
599.148	-119.98
599.351	414.54
599.554	422.73
599.756	33.62
599.959	-115.88
600.161	344.91
600.363	695.11
600.566	166.74
600.768	-103.59
600.971	545.61
601.173	217.94
601.376	-58.54
601.578	-111.78
601.78	271.19
601.983	688.97
602.185	-142.5
602.388	68.44
602.59	258.9
602.792	31.57
602.995	56.15
603.197	-46.25
603.399	361.3
603.601	140.12
603.804	-68.78
604.006	-134.31
604.208	136.02
604.41	-296.1
604.613	82.77
604.815	-138.41
605.017	619.34
605.219	-81.07
605.421	201.55
605.623	-132.26
605.826	475.98
606.028	424.78
606.23	-130.22
606.432	-167.08
606.634	615.24
606.836	441.17
607.038	-183.46
607.24	7
607.442	88.92
607.644	174.93
607.846	-7.34
608.048	-150.7
608.25	330.58
608.452	-101.55
608.654	-15.53
608.856	-306.34
609.058	138.07
609.26	187.22
609.462	-23.72
609.664	-11.43
609.866	570.19
610.067	383.82
610.269	119.64
610.471	-146.6
610.673	58.2
610.875	351.06
611.077	-214.18
611.278	54.1
611.48	127.83
611.682	656.2
611.884	33.62
612.085	13.14
612.287	-115.88
612.489	287.57
612.69	-234.66
612.892	-156.84
613.094	287.57
613.295	213.84
613.497	-220.33
613.699	-58.54
613.9	496.46
614.102	408.4
614.304	9.05
614.505	-316.58
614.707	226.13
614.908	164.69
615.11	-177.32
615.311	13.14
615.513	326.48
615.714	308.05
615.916	-232.62
616.117	37.72
616.319	119.64
616.52	265.04
616.722	-89.26
616.923	-15.53
617.124	422.73
617.326	328.53
617.527	19.29
617.729	172.88
617.93	318.29
618.131	262.99
618.333	-52.39
618.534	23.38
618.735	4.95
618.937	471.89
619.138	-322.73
619.339	-119.98
619.54	179.03
619.742	107.35
619.943	82.77
620.144	-74.92
620.345	281.43
620.546	459.6
620.748	-173.22
620.949	-68.78
621.15	217.94
621.351	209.75
621.552	31.57
621.753	-246.95
621.954	-124.07
622.155	570.19
622.356	-165.03
622.558	31.57
622.759	189.27
622.96	584.52
623.161	-95.4
623.362	-19.63
623.563	154.45
623.764	179.03
623.965	-11.43
624.166	78.68
624.366	127.83
624.567	187.22
624.768	-296.1
624.969	-95.4
625.17	78.68
625.371	306
625.572	-3.24
625.773	-136.36
625.973	455.5
626.174	222.03
626.375	-3.24
626.576	29.52
626.777	359.25
626.977	711.5
627.178	-130.22
627.379	25.43
627.58	90.96
627.78	203.6
627.981	9.05
628.182	66.39
628.382	392.02
628.583	-130.22
628.784	-249
628.984	109.4
629.185	394.06
629.386	416.59
629.586	23.38
629.787	-171.18
629.987	291.66
630.188	201.55
630.388	78.68
630.589	45.91
630.79	707.4
630.99	252.75
631.191	33.62
631.391	52.05
631.591	338.77
631.792	559.95
631.992	78.68
632.193	-83.11
632.393	557.9
632.594	187.22
632.794	-46.25
632.994	125.78
633.195	230.23
633.395	117.59
633.595	-40.11
633.796	197.46
633.996	-11.43
634.196	496.46
634.397	-240.81
634.597	33.62
634.797	29.52
634.997	471.89
635.198	131.92
635.398	-160.94
635.598	269.14
635.798	578.38
635.998	369.49
636.199	-15.53
636.399	19.29
636.599	-140.46
636.799	-48.3
636.999	234.32
637.199	265.04
637.399	447.31
637.599	-76.97
637.799	97.11
637.999	60.24
638.199	611.15
638.399	-136.36
638.599	-54.44
638.799	254.8
638.999	652.11
639.199	101.2
639.399	39.76
639.599	545.61
639.799	-7.34
639.999	-171.18
640.199	-119.98
640.399	287.57
640.599	234.32
640.799	66.39
640.998	230.23
641.198	441.17
641.398	338.77
641.598	121.68
641.798	4.95
641.997	1131.33
642.197	205.65
642.397	144.21
642.597	17.24
642.796	271.19
642.996	564.04
643.196	66.39
643.395	-136.36
643.595	314.19
643.795	-160.94
643.994	25.43
644.194	39.76
644.394	349.01
644.593	246.61
644.793	-212.14
644.992	56.15
645.192	383.82
645.392	-197.8
645.591	115.54
645.791	-17.58
645.99	328.53
646.19	136.02
646.389	66.39
646.589	-3.24
646.788	400.21
646.987	283.47
647.187	207.7
647.386	93.01
647.586	107.35
647.785	432.97
647.984	-9.39
648.184	23.38
648.383	160.59
648.582	187.22
648.782	-23.72
648.981	62.29
649.18	37.72
649.38	330.58
649.579	-11.43
649.778	-109.74
649.977	349.01
650.177	275.28
650.376	-5.29
650.575	-29.87
650.774	629.58
650.973	29.52
651.173	-128.17
651.372	-21.67
651.571	279.38
651.77	351.06
651.969	39.76
652.168	131.92
652.367	-11.43
652.566	279.38
652.765	-64.68
652.964	168.79
653.163	676.68
653.362	103.25
653.561	-23.72
653.76	-36.01
653.959	203.6
654.158	232.27
654.357	179.03
654.556	54.1
654.755	353.1
654.954	377.68
655.153	-89.26
655.352	93.01
655.551	566.09
655.749	80.72
655.948	66.39
656.147	60.24
656.346	273.23
656.545	246.61
656.743	66.39
656.942	78.68
657.141	205.65
657.34	7
657.538	27.48
657.737	-15.53
657.936	60.24
658.135	295.76
658.333	19.29
658.532	109.4
658.731	717.64
658.929	467.79
659.128	349.01
659.326	-70.83
659.525	611.15
659.724	164.69
659.922	-230.57
660.121	-87.21
660.319	199.51
660.518	-11.43
660.716	-68.78
660.915	-54.44
661.113	553.8
661.312	-40.11
661.51	152.4
661.709	-122.02
661.907	342.86
662.105	631.63
662.304	82.77
662.502	144.21
662.701	459.6
662.899	189.27
663.097	381.78
663.296	-115.88
663.494	389.97
663.692	617.29
663.891	-54.44
664.089	-85.16
664.287	322.38
664.485	590.67
664.684	-72.87
664.882	105.3
665.08	254.8
665.278	308.05
665.476	-140.46
665.675	287.57
665.873	662.35
666.071	441.17
666.269	45.91
666.467	254.8
666.665	240.47
666.863	195.41
667.061	201.55
667.259	64.34
667.457	256.85
667.655	432.97
667.853	-130.22
668.051	162.64
668.249	95.06
668.447	398.16
668.645	-66.73
668.843	289.62
669.041	369.49
669.239	160.59
669.437	101.2
669.635	138.07
669.833	197.46
670.031	398.16
670.229	172.88
670.426	150.36
670.624	158.55
670.822	35.67
671.02	-1.19
671.218	31.57
671.415	7
671.613	250.71
671.811	207.7
672.009	7
672.206	398.16
672.404	295.76
672.602	265.04
672.799	201.55
672.997	252.75
673.195	455.5
673.392	195.41
673.59	-33.96
673.788	424.78
673.985	-105.64
674.183	86.87
674.38	64.34
674.578	471.89
674.775	80.72
674.973	-5.29
675.17	-44.2
675.368	553.8
675.565	361.3
675.763	-115.88
675.96	-9.39
676.158	541.52
676.355	209.75
676.553	17.24
676.75	21.33
676.947	316.24
677.145	160.59
677.342	131.92
677.539	197.46
677.737	301.9
677.934	754.51
678.131	303.95
678.329	54.1
678.526	660.3
678.723	312.14
678.92	111.44
679.118	154.45
679.315	-11.43
679.512	510.8
679.709	148.31
679.906	144.21
680.104	523.09
680.301	242.51
680.498	58.2
680.695	-85.16
680.892	185.17
681.089	72.53
681.286	140.12
681.483	-97.45
681.68	430.93
681.877	383.82
682.075	133.97
682.272	332.62
682.469	299.86
682.665	144.21
682.862	9.05
683.059	-146.6
683.256	318.29
683.453	258.9
683.65	230.23
683.847	54.1
684.044	297.81
684.241	93.01
684.438	189.27
684.635	29.52
684.831	637.77
685.028	721.74
685.225	37.72
685.422	166.74
685.619	133.97
685.815	287.57
686.012	197.46
686.209	193.36
686.405	45.91
686.602	449.36
686.799	-19.63
686.996	-48.3
687.192	-9.39
687.389	691.02
687.586	-3.24
687.782	115.54
687.979	648.01
688.175	611.15
688.372	207.7
688.568	50
688.765	152.4
688.962	662.35
689.158	150.36
689.355	-31.91
689.551	400.21
689.748	-7.34
689.944	90.96
690.14	-87.21
690.337	457.55
690.533	179.03
690.73	308.05
690.926	217.94
691.123	332.62
691.319	164.69
691.515	-31.91
691.712	267.09
691.908	449.36
692.104	383.82
692.301	277.33
692.497	43.86
692.693	406.35
692.889	469.84
693.086	312.14
693.282	37.72
693.478	256.85
693.674	672.59
693.87	131.92
694.067	-89.26
694.263	342.86
694.459	191.31
694.655	185.17
694.851	213.84
695.047	473.93
695.243	334.67
695.439	203.6
695.635	86.87
695.831	480.08
696.027	205.65
696.224	80.72
696.42	377.68
696.615	607.05
696.811	344.91
697.007	-103.59
697.203	86.87
697.399	455.5
697.595	537.42
697.791	90.96
697.987	326.48
698.183	15.19
698.379	23.38
698.575	154.45
698.77	123.73
698.966	500.56
699.162	531.28
699.358	150.36
699.554	119.64
699.749	441.17
699.945	416.59
700.141	238.42
700.337	201.55
700.532	242.51
700.728	107.35
700.924	45.91
701.119	35.67
701.315	332.62
701.511	353.1
701.706	78.68
701.902	-46.25
702.097	334.67
702.293	437.07
702.489	172.88
702.684	166.74
702.88	209.75
703.075	283.47
703.271	103.25
703.466	-9.39
703.662	346.96
703.857	439.12
704.053	90.96
704.248	127.83
704.443	420.69
704.639	475.98
704.834	176.98
705.03	19.29
705.225	414.54
705.42	607.05
705.616	238.42
705.811	97.11
706.006	244.56
706.202	269.14
706.397	156.5
706.592	41.81
706.787	308.05
706.983	402.26
707.178	392.02
707.373	115.54
707.568	537.42
707.763	494.41
707.959	93.01
708.154	-15.53
708.349	340.82
708.544	314.19
708.739	303.95
708.934	-36.01
709.129	496.46
709.324	559.95
709.519	37.72
709.714	27.48
709.909	551.76
710.104	426.83
710.299	103.25
710.494	117.59
710.689	473.93
710.884	267.09
711.079	256.85
711.274	334.67
711.469	547.66
711.664	418.64
711.859	62.29
712.054	213.84
712.249	420.69
712.443	537.42
712.638	2.9
712.833	-48.3
713.028	369.49
713.223	250.71
713.417	375.63
713.612	58.2
713.807	500.56
714.002	861
714.196	295.76
714.391	45.91
714.586	508.75
714.78	303.95
714.975	90.96
715.17	115.54
715.364	295.76
715.559	514.89
715.754	-126.12
715.948	125.78
716.143	748.36
716.337	328.53
716.532	361.3
716.726	80.72
716.921	545.61
717.115	752.46
717.31	-68.78
717.504	506.7
717.699	193.36
717.893	555.85
718.088	-68.78
718.282	-1.19
718.476	422.73
718.671	336.72
718.865	88.92
719.059	109.4
719.254	363.34
719.448	676.68
719.642	994.12
719.837	-19.63
720.031	529.23
720.225	672.59
720.419	185.17
720.614	119.64
720.808	543.57
721.002	375.63
721.196	56.15
721.39	9.05
721.585	734.03
721.779	359.25
721.973	88.92
722.167	11.09
722.361	383.82
722.555	549.71
722.749	152.4
722.943	168.79
723.137	146.26
723.331	381.78
723.525	74.58
723.719	125.78
723.913	457.55
724.107	564.04
724.301	0.85
724.495	64.34
724.689	633.68
724.883	607.05
725.077	39.76
725.271	160.59
725.465	643.92
725.659	336.72
725.853	228.18
726.046	-9.39
726.24	156.5
726.434	549.71
726.628	82.77
726.822	164.69
727.015	594.76
727.209	650.06
727.403	93.01
727.596	11.09
727.79	510.8
727.984	488.27
728.177	109.4
728.371	289.62
728.565	580.43
728.758	111.44
728.952	62.29
729.146	217.94
729.339	500.56
729.533	312.14
729.726	127.83
729.92	0.85
730.113	564.04
730.307	369.49
730.5	70.48
730.694	117.59
730.887	209.75
731.081	392.02
731.274	13.14
731.468	168.79
731.661	277.33
731.854	205.65
732.048	66.39
732.241	9.05
732.435	181.07
732.628	430.93
732.821	168.79
733.014	27.48
733.208	144.21
733.401	494.41
733.594	136.02
733.788	156.5
733.981	664.4
734.174	418.64
734.367	68.44
734.56	334.67
734.754	543.57
734.947	330.58
735.14	19.29
735.333	121.68
735.526	430.93
735.719	199.51
735.912	15.19
736.105	70.48
736.298	328.53
736.491	207.7
736.684	66.39
736.877	78.68
737.07	326.48
737.263	619.34
737.456	142.16
737.649	25.43
737.842	199.51
738.035	320.34
738.228	189.27
738.421	219.99
738.614	584.52
738.807	496.46
739	2.9
739.192	-31.91
739.385	451.41
739.578	455.5
739.771	295.76
739.964	242.51
740.156	512.85
740.349	332.62
740.542	287.57
740.735	39.76
740.927	107.35
741.12	95.06
741.313	66.39
741.505	193.36
741.698	291.66
741.891	328.53
742.083	283.47
742.276	156.5
742.468	299.86
742.661	344.91
742.854	136.02
743.046	154.45
743.239	766.79
743.431	271.19
743.624	103.25
743.816	-3.24
744.009	254.8
744.201	420.69
744.393	320.34
744.586	-5.29
744.778	584.52
744.971	240.47
745.163	232.27
745.355	129.88
745.548	336.72
745.74	174.93
745.932	287.57
746.125	29.52
746.317	877.38
746.509	324.43
746.702	201.55
746.894	289.62
747.086	449.36
747.278	568.14
747.471	254.8
747.663	213.84
747.855	332.62
748.047	740.17
748.239	70.48
748.431	58.2
748.623	676.68
748.815	725.83
749.008	-23.72
749.2	129.88
749.392	471.89
749.584	420.69
749.776	168.79
749.968	275.28
750.16	865.1
750.352	258.9
750.544	166.74
750.736	54.1
750.928	527.18
751.12	353.1
751.311	230.23
751.503	154.45
751.695	416.59
751.887	316.24
752.079	-85.16
752.271	138.07
752.463	1088.32
752.654	480.08
752.846	158.55
753.038	99.16
753.23	254.8
753.421	553.8
753.613	217.94
753.805	334.67
753.997	574.28
754.188	535.37
754.38	88.92
754.572	80.72
754.763	359.25
754.955	406.35
755.146	164.69
755.338	320.34
755.53	406.35
755.721	217.94
755.913	41.81
756.104	82.77
756.296	303.95
756.487	518.99
756.679	66.39
756.87	185.17
757.062	181.07
757.253	459.6
757.445	29.52
757.636	320.34
757.827	299.86
758.019	832.33
758.21	33.62
758.401	138.07
758.593	883.53
758.784	611.15
758.975	-11.43
759.167	-46.25
759.358	363.34
759.549	570.19
759.74	133.97
759.932	90.96
760.123	686.92
760.314	109.4
760.505	295.76
760.696	170.83
760.888	766.79
761.079	349.01
761.27	45.91
761.461	-29.87
761.652	764.75
761.843	183.12
762.034	101.2
762.225	385.87
762.416	289.62
762.607	404.3
762.798	136.02
762.989	74.58
763.18	1028.93
763.371	252.75
763.562	189.27
763.753	172.88
763.944	613.2
764.135	516.94
764.326	238.42
764.517	133.97
764.708	435.02
764.899	502.61
765.089	47.96
765.28	-46.25
765.471	385.87
765.662	551.76
765.853	140.12
766.043	-13.48
766.234	543.57
766.425	553.8
766.615	172.88
766.806	-27.82
766.997	637.77
767.187	377.68
767.378	25.43
767.569	-76.97
767.759	549.71
767.95	441.17
768.141	258.9
768.331	95.06
768.522	367.44
768.712	518.99
768.903	101.2
769.093	101.2
769.284	811.85
769.474	369.49
769.665	-81.07
769.855	-60.59
770.046	377.68
770.236	209.75
770.426	383.82
770.617	41.81
770.807	406.35
770.998	285.52
771.188	299.86
771.378	80.72
771.569	480.08
771.759	439.12
771.949	66.39
772.139	-111.78
772.33	361.3
772.52	803.66
772.71	13.14
772.9	7
773.09	758.6
773.281	627.53
773.471	33.62
773.661	97.11
773.851	570.19
774.041	176.98
774.231	88.92
774.421	248.66
774.611	713.55
774.802	303.95
774.992	236.37
775.182	15.19
775.372	324.43
775.562	529.23
775.752	150.36
775.942	119.64
776.131	662.35
776.321	471.89
776.511	142.16
776.701	-44.2
776.891	467.79
777.081	99.16
777.271	277.33
777.461	0.85
777.651	506.7
777.84	721.74
778.03	209.75
778.22	93.01
778.41	666.44
778.599	115.54
778.789	158.55
778.979	64.34
779.169	404.3
779.358	318.29
779.548	310.1
779.738	-89.26
779.927	365.39
780.117	103.25
780.307	37.72
780.496	-91.31
780.686	398.16
780.875	744.27
781.065	78.68
781.254	101.2
781.444	336.72
781.633	426.83
781.823	86.87
782.012	64.34
782.202	195.41
782.391	289.62
782.581	-48.3
782.77	211.79
782.96	590.67
783.149	303.95
783.338	64.34
783.528	-150.7
783.717	584.52
783.906	586.57
784.096	189.27
784.285	7
784.474	199.51
784.663	201.55
784.853	95.06
785.042	66.39
785.231	197.46
785.42	582.48
785.61	189.27
785.799	-1.19
785.988	219.99
786.177	320.34
786.366	162.64
786.555	287.57
786.744	498.51
786.933	357.2
787.122	-76.97
787.312	-36.01
787.501	131.92
787.69	412.5
787.879	101.2
788.068	37.72
788.257	45.91
788.445	107.35
788.634	146.26
788.823	-23.72
789.012	967.49
789.201	592.72
789.39	82.77
789.579	33.62
789.768	299.86
789.957	234.32
790.145	78.68
790.334	-128.17
790.523	262.99
790.712	279.38
790.9	121.68
791.089	-15.53
791.278	525.13
791.467	373.58
791.655	349.01
791.844	562
792.033	148.31
792.221	201.55
792.41	62.29
792.599	-15.53
792.787	488.27
792.976	424.78
793.164	47.96
793.353	103.25
793.541	492.37
793.73	486.22
793.918	90.96
794.107	99.16
794.295	222.03
794.484	267.09
794.672	133.97
794.861	164.69
795.049	420.69
795.238	738.12
795.426	-66.73
795.614	176.98
795.803	451.41
795.991	596.81
796.179	90.96
796.368	-1.19
796.556	605
796.744	107.35
796.932	21.33
797.121	-5.29
797.309	234.32
797.497	496.46
797.685	222.03
797.874	58.2
798.062	267.09
798.25	596.81
798.438	-23.72
798.626	95.06
798.814	424.78
799.002	844.62
799.19	262.99
799.378	179.03
799.566	570.19
799.755	625.48
799.943	291.66
800.131	-5.29
800.318	357.2
800.506	416.59
800.694	127.83
800.882	246.61
801.07	586.57
801.258	332.62
801.446	162.64
801.634	78.68
801.822	355.15
802.01	316.24
802.197	43.86
802.385	224.08
802.573	324.43
802.761	93.01
802.949	129.88
803.136	-33.96
803.324	535.37
803.512	289.62
803.699	136.02
803.887	37.72
804.075	750.41
804.262	244.56
804.45	-58.54
804.638	125.78
804.825	111.44
805.013	232.27
805.201	54.1
805.388	43.86
805.576	285.52
805.763	699.21
805.951	50
806.138	189.27
806.326	793.42
806.513	463.69
806.701	88.92
806.888	-50.35
807.075	303.95
807.263	713.55
807.45	-66.73
807.638	258.9
807.825	746.31
808.012	541.52
808.2	150.36
808.387	316.24
808.574	387.92
808.761	668.49
808.949	174.93
809.136	183.12
809.323	262.99
809.51	262.99
809.698	336.72
809.885	238.42
810.072	379.73
810.259	494.41
810.446	123.73
810.633	29.52
810.82	594.76
811.008	605
811.195	201.55
811.382	179.03
811.569	351.06
811.756	56.15
811.943	189.27
812.13	166.74
812.317	209.75
812.504	168.79
812.691	201.55
812.878	205.65
813.064	551.76
813.251	443.21
813.438	-17.58
813.625	230.23
813.812	377.68
813.999	346.96
814.186	250.71
814.372	250.71
814.559	295.76
814.746	605
814.933	222.03
815.12	279.38
815.306	262.99
815.493	140.12
815.68	70.48
815.866	160.59
816.053	623.44
816.24	873.29
816.426	252.75
816.613	35.67
816.799	516.94
816.986	574.28
817.173	105.3
817.359	15.19
817.546	389.97
817.732	-40.11
817.919	-187.56
818.105	269.14
818.292	232.27
818.478	371.54
818.665	295.76
818.851	97.11
819.037	772.94
819.224	353.1
819.41	-1.19
819.597	17.24
819.783	633.68
819.969	457.55
820.156	193.36
820.342	62.29
820.528	1028.93
820.714	316.24
820.901	289.62
821.087	76.63
821.273	744.27
821.459	185.17
821.646	88.92
821.832	45.91
822.018	377.68
822.204	398.16
822.39	123.73
822.576	56.15
822.762	410.45
822.948	293.71
823.134	414.54
823.32	142.16
823.507	37.72
823.693	410.45
823.879	486.22
824.065	86.87
824.25	410.45
824.436	50
824.622	144.21
824.808	-48.3
824.994	224.08
825.18	129.88
825.366	-13.48
825.552	56.15
825.738	260.95
825.923	553.8
826.109	379.73
826.295	9.05
826.481	123.73
826.667	265.04
826.852	170.83
827.038	115.54
827.224	586.57
827.409	705.35
827.595	-42.15
827.781	283.47
827.966	500.56
828.152	594.76
828.338	97.11
828.523	-5.29
828.709	228.18
828.894	654.16
829.08	219.99
829.266	127.83
829.451	131.92
829.637	541.52
829.822	234.32
830.008	33.62
830.193	578.38
830.378	607.05
830.564	160.59
830.749	0.85
830.935	416.59
831.12	486.22
831.305	50
831.491	193.36
831.676	45.91
831.861	426.83
832.047	131.92
832.232	-23.72
832.417	590.67
832.602	342.86
832.788	52.05
832.973	41.81
833.158	332.62
833.343	484.17
833.528	150.36
833.714	160.59
833.899	496.46
834.084	779.08
834.269	336.72
834.454	156.5
834.639	504.65
834.824	381.78
835.009	320.34
835.194	336.72
835.379	535.37
835.564	594.76
835.749	179.03
835.934	103.25
836.119	492.37
836.304	332.62
836.489	174.93
836.674	355.15
836.859	185.17
837.044	609.1
837.228	193.36
837.413	-60.59
837.598	416.59
837.783	592.72
837.968	107.35
838.152	-31.91
838.337	-31.91
838.522	676.68
838.707	568.14
838.891	316.24
839.076	437.07
839.261	514.89
839.445	158.55
839.63	150.36
839.815	736.07
839.999	258.9
840.184	88.92
840.368	195.41
840.553	551.76
840.737	598.86
840.922	27.48
841.106	70.48
841.291	80.72
841.475	385.87
841.66	39.76
841.844	148.31
842.029	1090.37
842.213	66.39
842.397	168.79
842.582	66.39
842.766	672.59
842.951	578.38
843.135	148.31
843.319	113.49
843.504	398.16
843.688	566.09
843.872	17.24
844.056	37.72
844.241	359.25
844.425	246.61
844.609	244.56
844.793	-130.22
844.977	602.96
845.161	349.01
845.346	-48.3
845.53	70.48
845.714	293.71
845.898	664.4
846.082	-33.96
846.266	19.29
846.45	324.43
846.634	482.13
846.818	86.87
847.002	295.76
847.186	572.24
847.37	136.02
847.554	15.19
847.738	283.47
847.922	357.2
848.106	404.3
848.29	41.81
848.473	82.77
848.657	568.14
848.841	340.82
849.025	166.74
849.209	-119.98
849.392	531.28
849.576	250.71
849.76	-27.82
849.944	244.56
850.127	594.76
850.311	127.83
850.495	0.85
850.678	-36.01
850.862	713.55
851.046	750.41
851.229	289.62
851.413	138.07
851.596	389.97
851.78	326.48
851.964	209.75
852.147	125.78
852.331	1002.31
852.514	703.31
852.698	136.02
852.881	54.1
853.065	555.85
853.248	293.71
853.431	203.6
853.615	183.12
853.798	942.92
853.982	414.54
854.165	271.19
854.348	58.2
854.532	176.98
854.715	183.12
854.898	201.55
855.081	119.64
855.265	678.73
855.448	680.78
855.631	76.63
855.814	113.49
855.997	631.63
856.181	351.06
856.364	140.12
856.547	-21.67
856.73	428.88
856.913	381.78
857.096	41.81
857.279	207.7
857.462	215.89
857.645	559.95
857.828	289.62
858.011	201.55
858.194	281.43
858.377	602.96
858.56	-56.49
858.743	97.11
858.926	52.05
859.109	555.85
859.292	52.05
859.475	-21.67
859.658	588.62
859.841	582.48
860.023	-7.34
860.206	131.92
860.389	367.44
860.572	670.54
860.755	121.68
860.937	187.22
861.12	361.3
861.303	250.71
861.486	133.97
861.668	113.49
861.851	541.52
862.034	443.21
862.216	244.56
862.399	37.72
862.581	463.69
862.764	840.52
862.947	168.79
863.129	136.02
863.312	131.92
863.494	822.09
863.677	373.58
863.859	-23.72
864.042	574.28
864.224	809.8
864.406	213.84
864.589	-48.3
864.771	426.83
864.954	176.98
865.136	56.15
865.318	-58.54
865.501	549.71
865.683	13.14
865.865	101.2
866.048	113.49
866.23	291.66
866.412	306
866.594	47.96
866.777	246.61
866.959	596.81
867.141	244.56
867.323	273.23
867.505	279.38
867.687	377.68
867.869	365.39
868.052	138.07
868.234	35.67
868.416	373.58
868.598	512.85
868.78	131.92
868.962	41.81
869.144	582.48
869.326	564.04
869.508	45.91
869.69	9.05
869.872	228.18
870.054	533.33
870.236	-42.15
870.417	2.9
870.599	252.75
870.781	752.46
870.963	215.89
871.145	-13.48
871.327	76.63
871.508	492.37
871.69	84.82
871.872	119.64
872.054	217.94
872.235	430.93
872.417	168.79
872.599	33.62
872.78	693.07
872.962	416.59
873.144	82.77
873.325	197.46
873.507	676.68
873.689	355.15
873.87	-91.31
874.052	226.13
874.233	279.38
874.415	557.9
874.596	136.02
874.778	-27.82
874.959	359.25
875.141	631.63
875.322	68.44
875.503	25.43
875.685	521.04
875.866	-44.2
876.048	131.92
876.229	2.9
876.41	230.23
876.592	500.56
876.773	47.96
876.954	-48.3
877.136	717.64
877.317	195.41
877.498	-36.01
877.679	205.65
877.86	559.95
878.042	295.76
878.223	-13.48
878.404	459.6
878.585	514.89
878.766	619.34
878.947	373.58
879.128	293.71
879.309	496.46
879.49	590.67
879.672	133.97
879.853	117.59
880.034	160.59
880.215	269.14
880.396	181.07
880.576	105.3
880.757	127.83
880.938	615.24
881.119	-3.24
881.3	39.76
881.481	187.22
881.662	1141.57
881.843	41.81
882.023	-93.35
882.204	461.65
882.385	383.82
882.566	66.39
882.747	2.9
882.927	265.04
883.108	414.54
883.289	68.44
883.469	269.14
883.65	224.08
883.831	445.26
884.011	297.81
884.192	86.87
884.373	512.85
884.553	478.03
884.734	189.27
884.914	369.49
885.095	940.87
885.275	664.4
885.456	320.34
885.636	-23.72
885.817	207.7
885.997	269.14
886.178	-11.43
886.358	168.79
886.538	338.77
886.719	1293.12
886.899	-58.54
887.08	242.51
887.26	506.7
887.44	66.39
887.621	-1.19
887.801	148.31
887.981	805.71
888.161	480.08
888.342	197.46
888.522	131.92
888.702	514.89
888.882	607.05
889.062	162.64
889.242	-36.01
889.423	666.44
889.603	490.32
889.783	283.47
889.963	133.97
890.143	447.31
890.323	596.81
890.503	123.73
890.683	99.16
890.863	377.68
891.043	451.41
891.223	133.97
891.403	328.53
891.583	410.45
891.763	410.45
891.943	113.49
892.122	43.86
892.302	441.17
892.482	271.19
892.662	252.75
892.842	181.07
893.022	447.31
893.201	187.22
893.381	312.14
893.561	168.79
893.741	557.9
893.92	508.75
894.1	246.61
894.28	195.41
894.459	422.73
894.639	412.5
894.819	82.77
894.998	312.14
895.178	494.41
895.357	475.98
895.537	107.35
895.716	70.48
895.896	328.53
896.075	701.26
896.255	152.4
896.434	-76.97
896.614	605
896.793	774.99
896.973	283.47
897.152	234.32
897.331	525.13
897.511	574.28
897.69	-42.15
897.87	121.68
898.049	498.51
898.228	330.58
898.407	273.23
898.587	213.84
898.766	146.26
898.945	521.04
899.124	369.49
899.304	310.1
899.483	541.52
899.662	754.51
899.841	162.64
900.02	119.64
900.199	652.11
900.378	467.79
900.557	133.97
900.737	-23.72
900.916	535.37
901.095	537.42
901.274	367.44
901.453	93.01
901.632	185.17
901.811	211.79
901.989	195.41
902.168	146.26
902.347	594.76
902.526	244.56
902.705	123.73
902.884	222.03
903.063	607.05
903.242	572.24
903.42	66.39
903.599	379.73
903.778	621.39
903.957	703.31
904.135	320.34
904.314	240.47
904.493	500.56
904.672	574.28
904.85	193.36
905.029	109.4
905.207	416.59
905.386	1092.42
905.565	50
905.743	80.72
905.922	267.09
906.1	553.8
906.279	15.19
906.457	70.48
906.636	260.95
906.814	219.99
906.993	170.83
907.171	95.06
907.35	533.33
907.528	580.43
907.707	416.59
907.885	58.2
908.063	750.41
908.242	195.41
908.42	111.44
908.598	-40.11
908.777	553.8
908.955	310.1
909.133	269.14
909.311	97.11
909.49	357.2
909.668	332.62
909.846	240.47
910.024	-44.2
910.202	342.86
910.38	453.45
910.559	68.44
910.737	66.39
910.915	488.27
911.093	396.11
911.271	193.36
911.449	351.06
911.627	463.69
911.805	813.9
911.983	121.68
912.161	97.11
912.339	471.89
912.517	602.96
912.695	346.96
912.872	189.27
913.05	209.75
913.228	580.43
913.406	185.17
913.584	13.14
913.762	469.84
913.939	158.55
914.117	82.77
914.295	19.29
914.473	580.43
914.65	418.64
914.828	154.45
915.006	164.69
915.184	156.5
915.361	412.5
915.539	242.51
915.716	310.1
915.894	451.41
916.072	635.72
916.249	342.86
916.427	250.71
916.604	250.71
916.782	486.22
916.959	25.43
917.137	197.46
917.314	539.47
917.492	492.37
917.669	308.05
917.847	277.33
918.024	428.88
918.201	271.19
918.379	267.09
918.556	224.08
918.733	600.91
918.911	381.78
919.088	301.9
919.265	129.88
919.442	498.51
919.62	424.78
919.797	23.38
919.974	37.72
920.151	416.59
920.328	418.64
920.506	99.16
920.683	363.34
920.86	240.47
921.037	189.27
921.214	193.36
921.391	127.83
921.568	541.52
921.745	242.51
921.922	168.79
922.099	70.48
922.276	586.57
922.453	420.69
922.63	64.34
922.807	504.65
922.984	527.18
923.161	174.93
923.338	183.12
923.514	142.16
923.691	275.28
923.868	435.02
924.045	119.64
924.222	13.14
924.399	488.27
924.575	648.01
924.752	279.38
924.929	277.33
925.105	529.23
925.282	197.46
925.459	101.2
925.635	162.64
925.812	359.25
925.989	271.19
926.165	205.65
926.342	-19.63
926.518	160.59
926.695	340.82
926.871	111.44
927.048	-17.58
927.224	471.89
927.401	320.34
927.577	207.7
927.754	-11.43
927.93	656.2
928.107	510.8
928.283	21.33
928.459	213.84
928.636	404.3
928.812	224.08
928.988	113.49
929.165	-9.39
929.341	310.1
929.517	344.91
929.693	416.59
929.87	-50.35
930.046	547.66
930.222	215.89
930.398	101.2
930.574	158.55
930.751	289.62
930.927	328.53
931.103	172.88
931.279	148.31
931.455	138.07
931.631	377.68
931.807	60.24
931.983	23.38
932.159	62.29
932.335	320.34
932.511	156.5
932.687	123.73
932.863	385.87
933.039	338.77
933.215	-21.67
933.391	0.85
933.566	254.8
933.742	217.94
933.918	138.07
934.094	-27.82
934.27	244.56
934.445	420.69
934.621	189.27
934.797	-21.67
934.973	602.96
935.148	383.82
935.324	41.81
935.5	-115.88
935.675	637.77
935.851	418.64
936.027	39.76
936.202	125.78
936.378	402.26
936.553	334.67
936.729	504.65
936.904	93.01
937.08	4.95
937.255	287.57
937.431	50
937.606	-44.2
937.782	246.61
937.957	338.77
938.133	86.87
938.308	-19.63
938.483	283.47
938.659	97.11
938.834	119.64
939.009	-3.24
939.185	252.75
939.36	45.91
939.535	-201.9
939.71	131.92
939.886	453.45
940.061	432.97
940.236	189.27
940.411	37.72
940.586	371.54
940.761	398.16
940.937	119.64
941.112	-3.24
941.287	400.21
941.462	222.03
941.637	2.9
941.812	-15.53
941.987	377.68
942.162	246.61
942.337	156.5
942.512	-31.91
942.687	361.3
942.862	398.16
943.037	-33.96
943.212	-294.05
943.386	205.65
943.561	344.91
943.736	242.51
943.911	340.82
944.086	332.62
944.26	336.72
944.435	62.29
944.61	101.2
944.785	559.95
944.959	607.05
945.134	111.44
945.309	-113.83
945.483	117.59
945.658	467.79
945.833	-179.37
946.007	-64.68
946.182	541.52
946.357	27.48
946.531	-31.91
946.706	-27.82
946.88	-68.78
947.055	197.46
947.229	35.67
947.404	-136.36
947.578	449.36
947.752	119.64
947.927	-138.41
948.101	-126.12
948.276	277.33
948.45	357.2
948.624	150.36
948.799	-81.07
948.973	287.57
949.147	-50.35
949.321	56.15
949.496	-5.29
949.67	465.74
949.844	197.46
950.018	-15.53
950.193	-17.58
950.367	574.28
950.541	189.27
950.715	174.93
950.889	117.59
951.063	41.81
951.237	289.62
951.411	-205.99
951.585	-165.03
951.759	318.29
951.933	121.68
952.107	-38.06
952.281	140.12
952.455	478.03
952.629	252.75
952.803	-122.02
952.977	-76.97
953.151	389.97
953.325	320.34
953.499	148.31
953.672	-119.98
953.846	29.52
954.02	115.54
954.194	-50.35
954.368	-48.3
954.541	306
954.715	84.82
954.889	68.44
955.062	-23.72
955.236	133.97
955.41	119.64
955.583	111.44
955.757	-201.9
955.93	50
956.104	-19.63
956.278	-54.44
956.451	52.05
956.625	314.19
956.798	547.66
956.972	162.64
957.145	-62.63
957.319	199.51
957.492	181.07
957.665	131.92
957.839	-79.02
958.012	246.61
958.185	86.87
958.359	9.05
958.532	86.87
958.705	373.58
958.879	246.61
959.052	58.2
959.225	-193.7
959.398	203.6
959.572	250.71
959.745	-66.73
959.918	74.58
960.091	25.43
960.264	281.43
960.438	-111.78
960.611	-50.35
960.784	271.19
960.957	47.96
961.13	344.91
961.303	-17.58
961.476	162.64
961.649	346.96
961.822	-165.03
961.995	45.91
962.168	353.1
962.341	207.7
962.514	74.58
962.686	-21.67
962.859	174.93
963.032	291.66
963.205	-31.91
963.378	-158.89
963.551	308.05
963.723	230.23
963.896	140.12
964.069	123.73
964.242	152.4
964.414	353.1
964.587	4.95
964.76	21.33
964.932	197.46
965.105	121.68
965.278	-81.07
965.45	-109.74
965.623	150.36
965.795	279.38
965.968	-11.43
966.14	-130.22
966.313	154.45
966.485	131.92
966.658	-13.48
966.83	-62.63
967.003	402.26
967.175	299.86
967.348	-7.34
967.52	0.85
967.692	463.69
967.865	328.53
968.037	78.68
968.209	250.71
968.382	174.93
968.554	349.01
968.726	50
968.898	-87.21
969.071	185.17
969.243	271.19
969.415	-3.24
969.587	54.1
969.759	744.27
969.932	422.73
970.104	-7.34
970.276	-195.75
970.448	121.68
970.62	33.62
970.792	27.48
970.964	68.44
971.136	562
971.308	336.72
971.48	-31.91
971.652	-44.2
971.824	529.23
971.996	105.3
972.168	37.72
972.339	31.57
972.511	467.79
972.683	99.16
972.855	150.36
973.027	84.82
973.199	230.23
973.37	346.96
973.542	101.2
973.714	78.68
973.886	195.41
974.057	402.26
974.229	-101.55
974.401	-56.49
974.572	11.09
974.744	-234.66
974.915	-52.39
975.087	-3.24
975.259	525.13
975.43	-62.63
975.602	-23.72
975.773	-119.98
975.945	33.62
976.116	424.78
976.288	-76.97
976.459	88.92
976.63	80.72
976.802	260.95
976.973	52.05
977.145	127.83
977.316	680.78
977.487	553.8
977.659	127.83
977.83	-5.29
978.001	621.39
978.172	217.94
978.344	-62.63
978.515	-19.63
978.686	160.59
978.857	443.21
979.028	-11.43
979.2	-79.02
979.371	471.89
979.542	150.36
979.713	181.07
979.884	-390.31
980.055	41.81
980.226	193.36
980.397	-64.68
980.568	-140.46
980.739	389.97
980.91	164.69
981.081	164.69
981.252	-97.45
981.423	336.72
981.594	338.77
981.765	-138.41
981.936	9.05
982.106	150.36
982.277	389.97
982.448	-79.02
982.619	90.96
982.79	33.62
982.96	459.6
983.131	43.86
983.302	-179.37
983.472	125.78
983.643	250.71
983.814	27.48
983.984	-44.2
984.155	176.98
984.326	353.1
984.496	29.52
984.667	-97.45
984.837	11.09
985.008	373.58
985.178	187.22
985.349	17.24
985.519	99.16
985.69	4.95
985.86	-87.21
986.031	-124.07
986.201	254.8
986.371	295.76
986.542	-148.65
986.712	-236.71
986.882	310.1
987.053	242.51
987.223	-91.31
987.393	-9.39
987.563	4.95
987.734	316.24
987.904	230.23
988.074	-79.02
988.244	170.83
988.414	68.44
988.585	-66.73
988.755	50
988.925	101.2
989.095	566.09
989.265	-76.97
989.435	-58.54
989.605	256.85
989.775	203.6
989.945	156.5
990.115	-83.11
990.285	183.12
990.455	299.86
990.625	-7.34
990.795	-126.12
990.965	473.93
991.134	-113.83
991.304	-19.63
991.474	-81.07
991.644	172.88
991.814	525.13
991.984	-144.55
992.153	-144.55
992.323	148.31
992.493	215.89
992.662	-240.81
992.832	109.4
993.002	213.84
993.171	275.28
993.341	-119.98
993.511	123.73
993.68	41.81
993.85	344.91
994.019	-261.29
994.189	-142.5
994.358	232.27
994.528	111.44
994.697	-335.01
994.867	-191.66
995.036	326.48
995.206	99.16
995.375	-218.28
995.544	7
995.714	193.36
995.883	93.01
996.052	52.05
996.222	-205.99
996.391	531.28
996.56	195.41
996.73	-218.28
996.899	-201.9
997.068	471.89
997.237	203.6
997.406	-191.66
997.576	-138.41
997.745	103.25
997.914	248.66
998.083	-287.91
998.252	-91.31
998.421	142.16
998.59	-101.55
998.759	-150.7
998.928	-212.14
999.097	463.69
999.266	279.38
999.435	2.9
999.604	-267.43
999.773	576.33
999.942	95.06
1000.111	-255.14
1000.28	-289.96
1000.448	-85.16
1000.617	4.95
1000.786	7
1000.955	-195.75
1001.124	164.69
1001.292	867.14
1001.461	-255.14
1001.63	-173.22
1001.798	521.04
1001.967	359.25
1002.136	-273.57
1002.304	-238.76
1002.473	119.64
1002.642	262.99
1002.81	-115.88
1002.979	-89.26
1003.147	349.01
1003.316	754.51
1003.484	-130.22
1003.653	-173.22
1003.821	465.74
1003.99	58.2
1004.158	-126.12
1004.327	-27.82
1004.495	306
1004.663	-31.91
1004.832	-81.07
1005	-310.44
1005.168	211.79
1005.337	64.34
1005.505	-214.18
1005.673	9.05
1005.842	275.28
1006.01	240.47
1006.178	-203.94
1006.346	-240.81
1006.514	254.8
1006.683	385.87
1006.851	-113.83
1007.019	-339.11
1007.187	-27.82
1007.355	-271.53
1007.523	-341.16
1007.691	-320.68
1007.859	-212.14
1008.027	289.62
1008.195	-193.7
1008.363	-224.42
1008.531	273.23
1008.699	-9.39
1008.867	-236.71
1009.035	-148.65
1009.203	418.64
1009.37	23.38
1009.538	-134.31
1009.706	209.75
1009.874	113.49
1010.042	115.54
1010.209	-257.19
1010.377	-246.95
1010.545	289.62
1010.713	138.07
1010.88	-251.05
1011.048	-130.22
1011.216	0.85
1011.383	482.13
1011.551	-171.18
1011.718	-251.05
1011.886	303.95
1012.054	121.68
1012.221	-246.95
1012.389	-162.98
1012.556	-5.29
1012.724	584.52
1012.891	-130.22
1013.058	-355.49
1013.226	232.27
1013.393	306
1013.561	-306.34
1013.728	-320.68
1013.895	320.34
1014.063	240.47
1014.23	-275.62
1014.397	-203.94
1014.565	346.96
1014.732	21.33
1014.899	-216.23
1015.066	-304.29
1015.233	176.98
1015.401	324.43
1015.568	-169.13
1015.735	-105.64
1015.902	119.64
1016.069	125.78
1016.236	-162.98
1016.403	-265.38
1016.57	-72.87
1016.737	191.31
1016.904	-154.79
1017.071	-242.85
1017.238	-27.82
1017.405	322.38
1017.572	-167.08
1017.739	-3.24
1017.906	260.95
1018.073	312.14
1018.24	-281.77
1018.407	-93.35
1018.573	285.52
1018.74	31.57
1018.907	-212.14
1019.074	-228.52
1019.241	385.87
1019.407	199.51
1019.574	-203.94
1019.741	-363.69
1019.907	109.4
1020.074	213.84
1020.241	-441.51
1020.407	-208.04
1020.574	277.33
1020.74	285.52
1020.907	-138.41
1021.073	-267.43
1021.24	631.63
1021.406	451.41
1021.573	-224.42
1021.739	-201.9
1021.906	314.19
1022.072	138.07
1022.239	-62.63
1022.405	-162.98
1022.571	103.25
1022.738	-46.25
1022.904	-261.29
1023.07	-124.07
1023.237	213.84
1023.403	428.88
1023.569	-183.46
1023.735	-191.66
1023.902	142.16
1024.068	140.12
1024.234	-265.38
1024.4	-203.94
1024.566	222.03
1024.732	318.29
1024.898	-216.23
1025.065	-273.57
1025.231	330.58
1025.397	0.85
1025.563	-238.76
1025.729	-335.01
1025.895	-240.81
1026.061	-91.31
1026.227	-304.29
1026.392	-201.9
1026.558	385.87
1026.724	211.79
1026.89	-175.27
1027.056	-62.63
1027.222	176.98
1027.388	13.14
1027.553	-269.48
1027.719	-249
1027.885	451.41
1028.051	308.05
1028.216	-371.88
1028.382	-201.9
1028.548	277.33
1028.713	64.34
1028.879	-304.29
1029.045	-70.83
1029.21	432.97
1029.376	387.92
1029.541	-195.75
1029.707	-119.98
1029.873	357.2
1030.038	258.9
1030.204	-224.42
1030.369	-60.59
1030.534	246.61
1030.7	-9.39
1030.865	-203.94
1031.031	-173.22
1031.196	152.4
1031.361	193.36
1031.527	-251.05
1031.692	-316.58
1031.857	-169.13
1032.023	271.19
1032.188	-224.42
1032.353	-152.74
1032.518	518.99
1032.684	265.04
1032.849	-294.05
1033.014	-146.6
1033.179	279.38
1033.344	312.14
1033.509	-91.31
1033.674	-183.46
1033.839	353.1
1034.004	306
1034.17	-210.09
1034.335	-242.85
1034.5	136.02
1034.664	-76.97
1034.829	-165.03
1034.994	-191.66
1035.159	281.43
1035.324	174.93
1035.489	-158.89
1035.654	-150.7
1035.819	410.45
1035.984	162.64
1036.148	-175.27
1036.313	-179.37
1036.478	342.86
1036.643	156.5
1036.807	-222.38
1036.972	-224.42
1037.137	463.69
1037.301	133.97
1037.466	-373.92
1037.631	-74.92
1037.795	512.85
1037.96	185.17
1038.124	-27.82
1038.289	-224.42
1038.454	490.32
1038.618	285.52
1038.783	-171.18
1038.947	-33.96
1039.111	238.42
1039.276	72.53
1039.44	-103.59
1039.605	191.31
1039.769	129.88
1039.933	123.73
1040.098	-107.69
1040.262	-15.53
1040.426	453.45
1040.591	318.29
1040.755	-277.67
1040.919	-195.75
1041.083	254.8
1041.248	148.31
1041.412	-308.39
1041.576	-203.94
1041.74	95.06
1041.904	361.3
1042.068	-195.75
1042.232	-124.07
1042.397	363.34
1042.561	297.81
1042.725	-330.92
1042.889	0.85
1043.053	254.8
1043.217	377.68
1043.381	-87.21
1043.544	-251.05
1043.708	430.93
1043.872	-7.34
1044.036	-414.88
1044.2	-306.34
1044.364	447.31
1044.528	502.61
1044.691	2851.63
1044.855	-312.49
1045.019	406.35
1045.183	344.91
1045.346	-66.73
1045.51	-240.81
1045.674	240.47
1045.837	301.9
1046.001	-138.41
1046.165	-210.09
1046.328	699.21
1046.492	377.68
1046.655	-56.49
1046.819	-17.58
1046.983	74.58
1047.146	394.06
1047.31	-126.12
1047.473	-249
1047.636	172.88
1047.8	-13.48
1047.963	-150.7
1048.127	-232.62
1048.29	50
