Data from Ink_Intensity_USB4F045381__83__00083.txt Node

Date: Mon Jul 17 10:56:02 EDT 2023
User: mmckonesweet
Spectrometer: USB4F04538
Trigger mode: 4
Integration Time (sec): 9.000000E-1
Scans to average: 1
Electric dark correction enabled: true
Nonlinearity correction enabled: false
Boxcar width: 0
XAxis mode: Wavelengths
Number of Pixels in Spectrum: 3648
>>>>>Begin Spectral Data<<<<<
345.52	-998.73
345.736	-998.73
345.952	-998.73
346.168	-1004.87
346.384	-1004.87
346.6	-66.9
346.816	-238.93
347.032	-189.78
347.248	285.35
347.464	-243.03
347.68	-120.15
347.896	88.75
348.112	375.46
348.328	-120.15
348.544	-79.19
348.76	15.02
348.975	293.54
349.191	-245.07
349.407	-165.2
349.623	180.9
349.839	23.21
350.055	-97.62
350.27	129.7
350.486	246.44
350.702	363.17
350.918	342.69
351.133	-181.59
351.349	154.28
351.565	490.15
351.781	-163.15
351.996	88.75
352.212	348.84
352.428	-79.19
352.644	-171.35
352.859	-159.06
353.075	301.73
353.291	115.37
353.506	-25.94
353.722	-175.44
353.938	-23.89
354.153	496.29
354.369	150.18
354.584	-105.81
354.8	297.64
355.016	-226.64
355.231	-159.06
355.447	43.69
355.662	260.77
355.878	830.11
356.093	-263.51
356.309	35.5
356.524	-193.87
356.74	402.08
356.955	-95.57
357.171	-36.18
357.386	195.24
357.602	-257.36
357.817	-66.9
358.033	-118.1
358.248	512.67
358.464	162.47
358.679	-83.28
358.895	-314.7
359.11	41.64
359.325	330.41
359.541	135.85
359.756	55.98
359.972	-208.21
360.187	318.12
360.402	-157.01
360.618	-111.96
360.833	1010.33
361.048	162.47
361.264	-42.32
361.479	47.79
361.694	62.12
361.909	273.06
362.125	-175.44
362.34	-38.23
362.555	449.19
362.77	166.57
362.986	-224.59
363.201	-152.91
363.416	213.67
363.631	80.55
363.847	-124.24
364.062	-64.85
364.277	252.58
364.492	205.48
364.707	-81.24
364.922	-326.99
365.138	320.17
365.353	400.04
365.568	-148.82
365.783	-46.42
365.998	195.24
366.213	684.7
366.428	-195.92
366.643	162.47
366.858	350.89
367.073	256.68
367.288	-9.56
367.503	-161.11
367.718	213.67
367.933	273.06
368.148	-120.15
368.363	29.35
368.578	64.17
368.793	531.11
369.008	-44.37
369.223	-118.1
369.438	389.8
369.653	451.24
369.868	-222.55
370.083	-134.48
370.298	203.43
370.513	555.68
370.728	146.09
370.943	-122.2
371.157	-15.7
371.372	639.65
371.587	-138.58
371.802	-116.05
372.017	101.03
372.232	533.15
372.446	-34.13
372.661	-169.3
372.876	271.01
373.091	232.1
373.306	117.42
373.52	-138.58
373.735	-62.8
373.95	535.2
374.165	-32.08
374.379	-107.86
374.594	6.83
374.809	258.73
375.023	144.04
375.238	-56.66
375.453	383.65
375.667	-187.73
375.882	-40.28
376.097	-101.72
376.311	203.43
376.526	178.86
376.741	-89.43
376.955	268.97
377.17	621.22
377.384	744.1
377.599	137.9
377.813	-71
378.028	811.68
378.242	297.64
378.457	-17.75
378.672	-152.91
378.886	223.91
379.101	105.13
379.315	-212.31
379.53	-46.42
379.744	400.04
379.958	322.21
380.173	2.73
380.387	-97.62
380.602	279.21
380.816	55.98
381.031	-75.09
381.245	41.64
381.459	285.35
381.674	873.12
381.888	-34.13
382.103	268.97
382.317	-46.42
382.531	567.97
382.746	92.84
382.96	-68.95
383.174	80.55
383.388	633.51
383.603	191.14
383.817	-95.57
384.031	314.02
384.246	660.13
384.46	131.75
384.674	461.48
384.888	234.15
385.103	141.99
385.317	-79.19
385.531	105.13
385.745	492.2
385.959	488.1
386.174	-34.13
386.388	-81.24
386.602	205.48
386.816	82.6
387.03	125.61
387.244	109.22
387.458	264.87
387.672	537.25
387.887	-222.55
388.101	-99.67
388.315	453.28
388.529	238.25
388.743	45.74
388.957	-54.61
389.171	608.93
389.385	25.26
389.599	68.27
389.813	209.58
390.027	377.51
390.241	834.21
390.455	72.36
390.669	127.66
390.883	80.55
391.097	582.31
391.311	277.16
391.525	66.22
391.738	397.99
391.952	402.08
392.166	162.47
392.38	-1.37
392.594	492.2
392.808	578.21
393.022	162.47
393.236	92.84
393.449	314.02
393.663	363.17
393.877	2.73
394.091	193.19
394.305	125.61
394.518	31.4
394.732	-23.89
394.946	154.28
395.16	715.42
395.373	412.32
395.587	45.74
395.801	31.4
396.015	561.83
396.228	467.62
396.442	-11.61
396.656	-56.66
396.869	635.55
397.083	684.7
397.297	232.1
397.51	119.46
397.724	633.51
397.938	426.66
398.151	-42.32
398.365	41.64
398.578	551.59
398.792	594.59
399.005	285.35
399.219	262.82
399.433	473.76
399.646	504.48
399.86	316.07
400.073	246.44
400.287	463.52
400.5	352.93
400.714	330.41
400.927	256.68
401.141	572.07
401.354	1340.05
401.567	555.68
401.781	-15.7
401.994	584.35
402.208	932.51
402.421	228.01
402.635	225.96
402.848	379.56
403.061	555.68
403.275	314.02
403.488	105.13
403.701	801.44
403.915	527.01
404.128	326.31
404.341	156.33
404.555	502.43
404.768	352.93
404.981	311.97
405.195	187.05
405.408	846.49
405.621	625.31
405.834	463.52
406.048	109.22
406.261	797.34
406.474	858.78
406.687	211.62
406.9	342.69
407.114	486.05
407.327	580.26
407.54	88.75
407.753	111.27
407.966	252.58
408.179	731.81
408.392	180.9
408.605	129.7
408.819	580.26
409.032	559.78
409.245	207.53
409.458	404.13
409.671	570.02
409.884	746.14
410.097	98.99
410.31	438.95
410.523	723.62
410.736	449.19
410.949	354.98
411.162	238.25
411.375	924.32
411.588	752.29
411.801	391.84
412.014	260.77
412.227	557.73
412.44	408.23
412.653	305.83
412.865	490.15
413.078	834.21
413.291	703.14
413.504	469.67
413.717	322.21
413.93	838.3
414.143	322.21
414.356	414.37
414.568	256.68
414.781	758.43
414.994	631.46
415.207	451.24
415.42	449.19
415.632	801.44
415.845	1004.19
416.058	252.58
416.271	314.02
416.483	610.98
416.696	1090.2
416.909	426.66
417.121	338.6
417.334	746.14
417.547	1116.83
417.759	352.93
417.972	387.75
418.185	430.76
418.397	780.96
418.61	395.94
418.823	469.67
419.035	1084.06
419.248	637.6
419.46	473.76
419.673	477.86
419.885	924.32
420.098	604.83
420.311	494.24
420.523	309.93
420.736	862.88
420.948	670.37
421.161	461.48
421.373	297.64
421.586	658.08
421.798	547.49
422.01	248.49
422.223	590.5
422.435	545.44
422.648	907.93
422.86	529.06
423.073	467.62
423.285	885.41
423.497	408.23
423.71	438.95
423.922	449.19
424.134	809.63
424.347	1198.74
424.559	662.18
424.771	821.92
424.984	692.9
425.196	922.27
425.408	346.79
425.621	465.57
425.833	1000.09
426.045	1028.76
426.257	481.96
426.47	500.39
426.682	973.47
426.894	1092.25
427.106	508.58
427.318	666.27
427.531	664.22
427.743	1000.09
427.955	699.04
428.167	1030.81
428.379	1012.38
428.591	758.43
428.804	899.74
429.016	686.75
429.228	787.1
429.44	1014.43
429.652	821.92
429.864	551.59
430.076	942.75
430.288	912.03
430.5	785.05
430.712	791.2
430.924	1129.11
431.136	1016.48
431.348	631.46
431.56	672.42
431.772	1020.57
431.984	1008.28
432.196	756.38
432.408	791.2
432.62	877.21
432.832	1135.26
433.044	1131.16
433.256	981.66
433.468	1120.92
433.679	674.46
433.891	678.56
434.103	1106.59
434.315	1401.49
434.527	1239.7
434.739	932.51
434.95	938.65
435.162	1278.62
435.374	967.32
435.586	858.78
435.798	916.12
436.009	778.91
436.221	1010.33
436.433	959.13
436.645	858.78
436.856	1018.52
437.068	1462.93
437.28	969.37
437.491	1276.57
437.703	1247.9
437.915	1342.1
438.126	1106.59
438.338	1202.84
438.55	1256.09
438.761	1374.87
438.973	938.65
439.184	1071.77
439.396	1295
439.608	1464.98
439.819	1022.62
440.031	1125.02
440.242	1555.09
440.454	1540.76
440.665	1067.67
440.877	1219.22
441.088	1510.04
441.3	1239.7
441.511	987.8
441.723	1053.34
441.934	1401.49
442.146	1276.57
442.357	1229.46
442.569	1372.82
442.78	1338.01
442.991	1835.66
443.203	1520.28
443.414	1049.24
443.626	1718.93
443.837	1284.76
444.048	1153.69
444.26	969.37
444.471	1514.13
444.682	1612.43
444.894	993.95
445.105	1030.81
445.316	1776.27
445.528	1581.71
445.739	1350.29
445.95	1237.66
446.161	1575.57
446.373	1759.89
446.584	1305.24
446.795	1346.2
447.006	1718.93
447.217	1946.25
447.429	1112.73
447.64	1204.89
447.851	1841.81
448.062	1571.47
448.273	1165.98
448.484	1297.05
448.695	1716.88
448.907	1497.75
449.118	1426.07
449.329	1491.6
449.54	1604.24
449.751	1280.66
449.962	1407.64
450.173	1397.4
450.384	1874.57
450.595	2007.69
450.806	1456.79
451.017	1393.3
451.228	1962.64
451.439	1927.82
451.65	1448.6
451.861	1227.42
452.072	1473.17
452.283	1827.47
452.494	1776.27
452.705	1565.33
452.915	2161.29
453.126	1788.56
453.337	1702.54
453.548	1434.26
453.759	2046.6
453.97	2482.82
454.181	1817.23
454.391	1669.78
454.602	2015.88
454.813	2013.84
455.024	1835.66
455.235	1649.3
455.445	1866.38
455.656	2028.17
455.867	1895.05
456.078	1718.93
456.288	1723.02
456.499	2042.51
456.71	1729.17
456.921	1884.81
457.131	2189.96
457.342	2048.65
457.553	1886.86
457.763	1868.43
457.974	2259.59
458.184	2288.26
458.395	1845.9
458.606	1821.33
458.816	2460.29
459.027	2726.53
459.237	2079.37
459.448	1872.53
459.659	2476.68
459.869	2724.48
460.08	1843.85
460.29	2169.48
460.501	2667.14
460.711	2345.61
460.922	1972.88
461.132	2095.75
461.343	2898.56
461.553	2042.51
461.764	2114.19
461.974	2261.64
462.184	2505.35
462.395	2607.75
462.605	2267.78
462.816	2157.19
463.026	2742.91
463.236	2794.11
463.447	2278.02
463.657	2345.61
463.867	2855.55
464.078	2546.31
464.288	2558.6
464.498	2476.68
464.709	2691.71
464.919	2630.27
465.129	2536.07
465.339	2669.19
465.55	2966.14
465.76	2896.51
465.97	2562.69
466.18	2452.1
466.391	3175.03
466.601	3060.35
466.811	2822.78
467.021	2677.38
467.231	3201.66
467.441	3259
467.651	2873.98
467.862	2646.66
468.072	3162.75
468.282	3572.34
468.492	2890.37
468.702	3148.41
468.912	3334.78
469.122	3992.17
469.332	3328.63
469.542	3056.25
469.752	3693.17
469.962	3551.86
470.172	3234.43
470.382	3324.54
470.592	3848.82
470.802	3897.97
471.012	3437.17
471.222	3500.66
471.432	3955.31
471.642	3996.27
471.852	3725.94
472.062	3474.04
472.272	3840.62
472.482	3625.59
472.691	3791.47
472.901	3840.62
473.111	4129.39
473.321	4592.23
473.531	3848.82
473.741	3871.34
473.95	4373.1
474.16	4430.44
474.37	4348.52
474.58	4147.82
474.79	4856.42
474.999	4684.39
475.209	4221.55
475.419	4323.94
475.628	4586.08
475.838	4973.15
476.048	4485.73
476.258	4287.08
476.467	5206.62
476.677	4741.73
476.886	4905.57
477.096	4792.93
477.306	4727.39
477.515	5290.59
477.725	4948.58
477.935	5005.92
478.144	5548.63
478.354	5155.42
478.563	5071.45
478.773	4975.2
478.982	5507.67
479.192	5907.02
479.401	5292.63
479.611	5286.49
479.82	5454.42
480.03	5810.77
480.239	5372.5
480.449	5286.49
480.658	6216.27
480.868	5753.43
481.077	5790.29
481.287	5804.63
481.496	6201.93
481.705	6416.97
481.915	6089.29
482.124	6120.01
482.333	6404.68
482.543	6599.24
482.752	6277.71
482.961	6300.23
483.171	6502.98
483.38	6441.54
483.589	6574.66
483.799	6445.64
484.008	6578.76
484.217	7053.89
484.426	6629.96
484.636	6535.75
484.845	6873.67
485.054	6703.68
485.263	7209.53
485.472	6726.21
485.682	7395.9
485.891	7168.57
486.1	6707.78
486.309	6918.72
486.518	7514.68
486.727	7772.72
486.936	6933.06
487.146	7316.03
487.355	7936.56
487.564	7451.19
487.773	7363.13
487.982	7623.22
488.191	7670.33
488.4	7754.29
488.609	7625.27
488.818	7703.09
489.027	8438.31
489.236	8436.27
489.445	7787.06
489.654	7692.85
489.863	8278.57
490.072	8258.09
490.281	8452.65
490.49	8102.45
490.698	8694.31
490.907	8888.87
491.116	8342.06
491.325	8086.06
491.534	8827.43
491.743	8815.14
491.952	8497.7
492.16	8565.29
492.369	8895.01
492.578	9108
492.787	8673.83
492.996	8518.18
493.204	8829.48
493.413	9509.4
493.622	8663.59
493.831	8581.67
494.039	9706.01
494.248	8890.92
494.457	8978.98
494.665	9097.76
494.874	9603.61
495.083	9914.9
495.291	9148.96
495.5	9110.05
495.709	9701.91
495.917	9744.92
496.126	9538.07
496.335	9331.23
496.543	9671.19
496.752	10041.87
496.96	9808.4
497.169	9509.4
497.377	10082.83
497.586	10111.5
497.794	9730.58
498.003	9490.97
498.211	9976.34
498.42	10568.2
498.628	9947.67
498.837	9982.48
499.045	10455.56
499.254	10179.09
499.462	10123.79
499.671	10189.33
499.879	11053.57
500.087	10750.47
500.296	10228.24
500.504	10344.97
500.713	10721.8
500.921	11397.63
501.129	10304.01
501.338	10500.62
501.546	11037.19
501.754	10752.52
501.962	10529.29
502.171	10498.57
502.379	11008.51
502.587	11379.2
502.795	10729.99
503.004	10830.34
503.212	11022.85
503.42	11540.99
503.628	11026.95
503.837	11115.01
504.045	11627
504.253	11684.34
504.461	11168.26
504.669	10867.2
504.877	11594.23
505.085	11942.39
505.294	11401.72
505.502	11549.18
505.71	11807.22
505.918	11706.87
506.126	11379.2
506.334	11289.09
506.542	11811.32
506.75	11936.24
506.958	11835.89
507.166	11776.5
507.374	11971.06
507.582	12614.12
507.79	11852.28
507.998	11731.45
508.206	12237.3
508.414	12417.52
508.622	12128.75
508.83	11778.55
509.037	12659.18
509.245	12171.76
509.453	11973.11
509.661	11987.44
509.869	12634.6
510.077	12343.79
510.285	12200.43
510.492	12040.69
510.7	13177.31
510.908	12417.52
511.116	12288.5
511.324	12331.5
511.531	12866.02
511.739	12769.77
511.947	12720.62
512.155	12878.31
512.362	12845.54
512.57	12521.96
512.778	12737
512.985	12433.9
513.193	13214.18
513.401	13197.79
513.608	12712.42
513.816	12952.04
514.024	13234.66
514.231	13335.01
514.439	13332.96
514.646	12823.01
514.854	13519.32
515.061	13582.81
515.269	13179.36
515.477	12993
515.684	13193.7
515.892	13769.18
516.099	12964.32
516.307	13226.46
516.514	14045.65
516.722	14232.02
516.929	13556.19
517.136	13128.16
517.344	13924.82
517.551	13867.48
517.759	13582.81
517.966	13658.59
518.173	13969.88
518.381	14115.28
518.588	13691.35
518.796	13756.89
519.003	14309.84
519.21	14162.39
519.418	13996.5
519.625	14037.46
519.832	14264.78
520.039	14463.44
520.247	13973.97
520.454	14141.91
520.661	14590.41
520.868	14303.7
521.076	14131.67
521.283	14264.78
521.49	15178.18
521.697	14827.98
521.904	14526.92
522.112	14318.03
522.319	15169.99
522.526	14612.94
522.733	14614.99
522.94	14346.7
523.147	14905.8
523.354	15296.96
523.561	14762.44
523.768	14926.28
523.975	15315.39
524.183	14862.79
524.39	15086.02
524.597	15008.2
524.804	15206.85
525.011	15331.78
525.218	14821.83
525.425	14873.03
525.632	15485.37
525.838	15436.22
526.045	14926.28
526.252	15237.57
526.459	16665
526.666	16480.69
526.873	15391.17
527.08	15509.95
527.287	15919.54
527.494	15772.09
527.701	15430.08
527.907	15391.17
528.114	16107.96
528.321	15837.62
528.528	15559.1
528.735	15819.19
528.941	16075.19
529.148	15653.31
529.355	15796.67
529.562	15505.85
529.768	16652.72
529.975	15999.41
530.182	15890.87
530.388	15690.17
530.595	16810.41
530.802	15767.99
531.008	16449.97
531.215	16159.16
531.422	17013.16
531.628	17185.19
531.835	16368.05
532.042	16355.76
532.248	16703.92
532.455	16832.94
532.661	16538.03
532.868	16517.55
533.074	17007.02
533.281	17154.47
533.487	16687.53
533.694	16710.06
533.9	17123.75
534.107	17054.12
534.313	16708.01
534.52	16931.24
534.726	17093.03
534.933	17912.22
535.139	16755.11
535.345	17213.86
535.552	17498.53
535.758	17478.05
535.965	17197.48
536.171	17236.39
536.377	17895.83
536.584	17815.96
536.79	17209.76
536.996	17834.39
537.203	18012.57
537.409	18078.1
537.615	17797.53
537.821	17719.71
538.028	18209.17
538.234	18200.98
538.44	17592.73
538.646	17715.61
538.853	18069.91
539.059	17826.2
539.265	18305.43
539.471	17727.9
539.677	18573.71
539.883	18323.86
540.09	18049.43
540.296	18516.37
540.502	18504.08
540.708	18256.28
540.914	18413.97
541.12	18405.78
541.326	18770.32
541.532	19007.88
541.738	18768.27
541.944	18569.62
542.15	19530.11
542.356	18895.24
542.562	18712.97
542.768	18774.41
542.974	19464.58
543.18	19741.05
543.386	18774.41
543.592	18663.82
543.798	19607.94
544.004	19587.46
544.21	18778.51
544.415	19251.59
544.621	19675.52
544.827	19712.38
545.033	19040.65
545.239	19556.74
545.445	19487.11
545.651	19804.54
545.856	19315.08
546.062	19446.15
546.268	19597.7
546.474	19581.31
546.679	19306.88
546.885	19614.08
547.091	19605.89
547.297	20289.91
547.502	19646.85
547.708	19679.61
547.914	19519.87
548.119	20357.49
548.325	19593.6
548.531	19501.44
548.736	20486.51
548.942	19839.36
549.147	19755.39
549.353	20152.7
549.559	20783.47
549.764	20273.53
549.97	19687.81
550.175	20181.37
550.381	20513.14
550.586	20101.5
550.792	19970.43
550.997	20101.5
551.203	20425.07
551.408	20900.2
551.614	20230.52
551.819	20003.19
552.025	21053.8
552.23	21229.93
552.435	20613.49
552.641	21084.52
552.846	20732.27
553.052	21152.1
553.257	21010.79
553.462	20879.72
553.668	21145.96
553.873	21533.03
554.078	20783.47
554.283	20734.32
554.489	21494.11
554.694	21305.7
554.899	20898.16
555.105	21680.48
555.31	21494.11
555.515	21627.23
555.72	21408.1
555.925	21008.75
556.131	21977.44
556.336	21616.99
556.541	21451.11
556.746	21389.67
556.951	22155.61
557.156	21969.24
557.361	21543.27
557.567	21725.54
557.772	22434.13
557.977	22284.63
558.182	21666.14
558.387	21854.56
558.592	22190.42
558.797	22258.01
559.002	22026.59
559.207	21829.98
559.412	22489.43
559.617	22591.83
559.822	22190.42
560.027	21821.79
560.232	22337.88
560.437	22479.19
560.642	22014.3
560.847	21989.72
561.051	22485.33
561.256	22427.99
561.461	22583.63
561.666	22137.18
561.871	22509.91
562.076	22944.08
562.281	22407.51
562.485	22370.65
562.69	22671.7
562.895	22925.64
563.1	22419.8
563.305	22034.78
563.509	23097.67
563.714	23191.88
563.919	22298.97
564.123	22446.42
564.328	22966.6
564.533	23101.77
564.737	22366.55
564.942	22640.98
565.147	23540.04
565.351	23669.06
565.556	22794.57
565.761	22860.11
565.965	23515.46
566.17	23062.86
566.374	22806.86
566.579	22755.66
566.784	22964.56
566.988	23394.63
567.193	23011.66
567.397	22806.86
567.602	23169.35
567.806	23458.12
568.011	23257.42
568.215	23333.19
568.42	23253.32
568.624	23576.9
568.828	23488.84
569.033	23574.85
569.237	24070.46
569.442	23898.43
569.646	23224.65
569.85	23595.33
570.055	23738.69
570.259	24197.43
570.463	23636.29
570.668	23519.56
570.872	23740.74
571.076	24398.13
571.281	23644.48
571.485	23920.96
571.689	24351.03
571.893	24521.01
572.098	23974.2
572.302	24103.23
572.506	24238.39
572.71	24113.47
572.914	24103.23
573.119	23939.39
573.323	24652.08
573.527	24779.06
573.731	24269.11
573.935	24267.06
574.139	24496.44
574.343	24250.68
574.547	24351.03
574.751	24471.86
574.955	24942.89
575.159	25098.54
575.364	24193.34
575.568	24473.91
575.772	24609.08
575.976	25307.43
576.18	24404.28
576.383	24650.03
576.587	25147.69
576.791	25184.55
576.995	24654.13
577.199	24742.19
577.403	25569.57
577.607	25870.62
577.811	24953.13
578.015	24924.46
578.219	25469.22
578.422	25545
578.626	25157.93
578.83	25440.55
579.034	25575.72
579.238	25514.28
579.442	25254.19
579.645	25700.64
579.849	25354.54
580.053	25729.31
580.257	24965.42
580.46	25602.34
580.664	26120.48
580.868	25776.42
581.071	25639.2
581.275	25649.44
581.479	25471.27
581.682	26020.13
581.886	25557.28
582.09	25749.79
582.293	26056.99
582.497	26296.6
582.7	26048.8
582.904	25764.13
583.107	26231.07
583.311	26124.57
583.515	25854.24
583.718	26050.85
583.922	26507.54
584.125	26917.14
584.329	25907.49
584.532	26233.11
584.735	26505.49
584.939	26294.55
585.142	26202.39
585.346	26224.92
585.549	26829.07
585.753	26300.7
585.956	26439.96
586.159	26913.04
586.363	27556.1
586.566	27066.64
586.769	26562.84
586.973	26476.82
587.176	26810.64
587.379	27013.39
587.582	26841.36
587.786	27318.54
587.989	27212.04
588.192	27959.55
588.395	26706.2
588.599	26870.03
588.802	27576.58
589.005	27355.4
589.208	26910.99
589.411	26861.84
589.615	27535.62
589.818	28053.76
590.021	27136.27
590.224	27384.07
590.427	27820.29
590.63	27666.69
590.833	27240.71
591.036	27615.49
591.239	28096.77
591.442	27595.01
591.645	27310.35
591.848	27818.24
592.051	28305.66
592.254	27812.1
592.457	27969.79
592.66	28051.71
592.863	27875.59
593.066	28205.31
593.269	27799.81
593.472	27767.04
593.675	27941.12
593.878	28184.83
594.081	28020.99
594.284	28324.09
594.486	28662.01
594.689	28684.53
594.892	27996.42
595.095	28477.69
595.298	28449.02
595.5	28412.15
595.703	28414.2
595.906	28682.48
596.109	28981.49
596.311	29128.94
596.514	28389.63
596.717	28733.68
596.92	29624.55
597.122	28903.67
597.325	28324.09
597.528	28612.85
597.73	29466.86
597.933	29210.86
598.136	28874.99
598.338	28709.11
598.541	29120.75
598.743	29815.01
598.946	28526.84
599.148	29040.88
599.351	29356.27
599.554	29731.04
599.756	29147.37
599.959	29262.06
600.161	29415.66
600.363	30028
600.566	29217
600.768	29106.41
600.971	29931.75
601.173	29651.17
601.376	29298.92
601.578	29016.3
601.78	29812.96
601.983	30355.68
602.185	29112.56
602.388	29126.89
602.59	29851.88
602.792	29552.87
602.995	29757.67
603.197	29137.13
603.399	30333.15
603.601	29675.75
603.804	29755.62
604.006	29714.66
604.208	29460.71
604.41	29669.61
604.613	30003.42
604.815	29712.61
605.017	30621.91
605.219	29903.07
605.421	29665.51
605.623	30030.05
605.826	30441.69
606.028	30562.52
606.23	30011.62
606.432	29477.1
606.634	30507.23
606.836	30482.65
607.038	29833.44
607.24	30091.49
607.442	30202.08
607.644	30527.7
607.846	30304.48
608.048	29882.59
608.25	30712.02
608.452	30382.3
608.654	30394.59
608.856	29886.69
609.058	30259.42
609.26	30791.89
609.462	30531.8
609.664	30247.13
609.866	30834.9
610.067	30539.99
610.269	30359.77
610.471	30492.89
610.673	30730.45
610.875	30750.93
611.077	30318.81
611.278	30644.44
611.48	30879.96
611.682	31355.08
611.884	30775.51
612.085	30150.88
612.287	30664.92
612.489	30636.25
612.69	30572.76
612.892	30628.06
613.094	30998.74
613.295	31006.93
613.497	30353.63
613.699	30482.65
613.9	31422.67
614.102	30933.2
614.304	30750.93
614.505	30449.88
614.707	30918.87
614.908	30769.37
615.11	30312.67
615.311	30759.13
615.513	31127.76
615.714	31101.14
615.916	31031.51
616.117	30945.49
616.319	31377.61
616.52	31246.54
616.722	30765.27
616.923	30859.48
617.124	31563.98
617.326	31103.18
617.527	30585.05
617.729	30974.16
617.93	31606.98
618.131	31680.71
618.333	30998.74
618.534	31146.19
618.735	30863.57
618.937	31772.87
619.138	30937.3
619.339	31125.71
619.54	31533.26
619.742	31404.24
619.943	31365.32
620.144	30873.81
620.345	31396.04
620.546	31494.35
620.748	31357.13
620.949	31015.12
621.15	31660.23
621.351	31494.35
621.552	31209.68
621.753	30826.71
621.954	31140.05
622.155	31815.88
622.356	31307.98
622.558	31322.32
622.759	31639.75
622.96	31783.11
623.161	31219.92
623.362	31254.73
623.563	31606.98
623.764	31719.62
623.965	31250.64
624.166	32000.19
624.366	31480.01
624.567	31736.01
624.768	31418.57
624.969	30974.16
625.17	31715.53
625.371	31865.03
625.572	31559.88
625.773	31293.65
625.973	31973.57
626.174	31965.38
626.375	31725.77
626.576	31887.56
626.777	32166.08
626.977	32243.9
627.178	31693
627.379	31535.31
627.58	32053.44
627.78	32180.42
627.981	31779.01
628.182	31979.71
628.382	32131.26
628.583	31688.9
628.784	31627.46
628.984	31609.03
629.185	32628.92
629.386	32217.28
629.586	31725.77
629.787	32026.82
629.987	32280.77
630.188	32483.51
630.388	32299.2
630.589	32323.77
630.79	32733.37
630.99	32573.63
631.191	32448.7
631.391	32370.88
631.591	32456.89
631.792	33011.89
631.992	32432.32
632.193	32204.99
632.393	32821.43
632.594	32065.73
632.794	32037.06
632.994	32360.64
633.195	32530.62
633.395	32510.14
633.595	32231.61
633.796	32569.53
633.996	32850.1
634.196	33216.69
634.397	32694.46
634.597	32317.63
634.797	32569.53
634.997	32737.46
635.198	32370.88
635.398	32317.63
635.598	33036.47
635.798	33155.25
635.998	32745.65
636.199	32651.45
636.399	32606.39
636.599	32823.48
636.799	32329.92
636.999	32651.45
637.199	32757.94
637.399	33274.03
637.599	32440.51
637.799	32616.63
637.999	33284.27
638.199	33521.84
638.399	32653.5
638.599	33001.65
638.799	33120.43
638.999	33783.98
639.199	33425.58
639.399	33267.89
639.599	33943.72
639.799	32880.82
639.999	32747.7
640.199	32694.46
640.399	33413.29
640.599	32413.88
640.799	33333.42
640.998	33157.3
641.198	33669.29
641.398	33382.57
641.598	33401.01
641.798	33044.66
641.997	34341.02
642.197	33282.22
642.397	33532.08
642.597	33261.74
642.796	33953.96
642.996	34078.88
643.196	33667.24
643.395	33042.61
643.595	33589.42
643.795	33413.29
643.994	33509.55
644.194	33292.46
644.394	33878.18
644.593	33773.74
644.793	33478.83
644.992	33761.45
645.192	33544.36
645.392	33495.21
645.591	33640.62
645.791	33708.2
645.99	34205.86
646.19	33722.54
646.389	33581.23
646.589	33536.17
646.788	34205.86
646.987	33652.91
647.187	34146.47
647.386	33829.03
647.586	33806.5
647.785	34216.1
647.984	33857.7
648.184	34146.47
648.383	33802.41
648.582	33657
648.782	33755.3
648.981	33962.15
649.18	33962.15
649.38	34560.16
649.579	33994.92
649.778	33962.15
649.977	34670.75
650.177	34277.54
650.376	33945.76
650.575	33530.03
650.774	34506.91
650.973	34349.21
651.173	33728.68
651.372	34308.26
651.571	34265.25
651.77	34500.76
651.969	34355.36
652.168	34250.91
652.367	34394.27
652.566	34560.16
652.765	34361.5
652.964	34484.38
653.163	35012.76
653.362	34330.78
653.561	34031.78
653.76	34578.59
653.959	34443.42
654.158	34969.75
654.357	34697.37
654.556	34025.64
654.755	34994.32
654.954	34769.05
655.153	34171.04
655.352	34531.48
655.551	34617.5
655.749	34599.07
655.948	34566.3
656.147	35063.96
656.346	34891.93
656.545	34869.4
656.743	34545.82
656.942	35043.48
657.141	35049.62
657.34	34971.8
657.538	34848.92
657.737	34625.69
657.936	35043.48
658.135	34932.89
658.333	34271.39
658.532	34910.36
658.731	35405.97
658.929	35326.1
659.128	35420.3
659.326	34580.64
659.525	35168.4
659.724	35215.51
659.922	34525.34
660.121	34527.39
660.319	34953.37
660.518	34644.12
660.716	34513.05
660.915	34883.73
661.113	35522.7
661.312	34750.62
661.51	34881.69
661.709	34861.21
661.907	35362.96
662.105	35506.32
662.304	35186.83
662.502	34928.79
662.701	35739.79
662.899	34902.17
663.097	35297.42
663.296	35008.66
663.494	35661.96
663.692	35594.38
663.891	34926.74
664.089	34764.95
664.287	35330.19
664.485	35438.73
664.684	35082.39
664.882	35092.63
665.08	35219.6
665.278	35592.33
665.476	35254.42
665.675	35395.73
665.873	35903.62
666.071	35281.04
666.269	34859.16
666.467	35039.38
666.665	35328.14
666.863	34885.78
667.061	35303.57
667.259	34887.83
667.457	35541.13
667.655	35254.42
667.853	34814.1
668.051	35264.66
668.249	34760.86
668.447	35315.86
668.645	34891.93
668.843	35453.07
669.041	35686.54
669.239	34941.08
669.437	35041.43
669.635	35457.17
669.833	35444.88
670.031	35512.46
670.229	34859.16
670.426	35137.68
670.624	35145.87
670.822	34908.31
671.02	35002.52
671.218	35231.89
671.415	35016.85
671.613	34982.04
671.811	35227.79
672.009	34967.7
672.206	35635.34
672.404	35268.75
672.602	35309.71
672.799	35332.24
672.997	35860.62
673.195	35774.6
673.392	35211.41
673.59	35217.55
673.788	35178.64
673.985	34719.9
674.183	35129.49
674.38	35213.46
674.578	35633.29
674.775	34760.86
674.973	34810.01
675.17	35121.3
675.368	35313.81
675.565	35436.69
675.763	35219.6
675.96	34967.7
676.158	35528.84
676.355	34752.66
676.553	35092.63
676.75	35025.04
676.947	35078.29
677.145	34906.26
677.342	34879.64
677.539	34873.49
677.737	35352.72
677.934	35592.33
678.131	35094.68
678.329	34955.41
678.526	35459.21
678.723	35209.36
678.92	35082.39
679.118	34597.02
679.315	34539.68
679.512	35516.56
679.709	34889.88
679.906	34865.3
680.104	35508.36
680.301	34947.22
680.498	34164.9
680.695	34457.76
680.892	34838.68
681.089	34767
681.286	34771.1
681.483	34314.4
681.68	35049.62
681.877	35135.63
682.075	34635.93
682.272	34586.78
682.469	34936.98
682.665	34855.06
682.862	34230.43
683.059	34187.43
683.256	34842.78
683.453	34912.41
683.65	34838.68
683.847	34361.5
684.044	34291.87
684.241	34441.37
684.438	34832.54
684.635	34269.34
684.831	35319.95
685.028	35123.35
685.225	34496.67
685.422	34179.23
685.619	34680.99
685.815	34627.74
686.012	34429.09
686.209	34111.65
686.405	34435.23
686.602	34871.45
686.799	34033.83
686.996	34353.31
687.192	34338.97
687.389	34750.62
687.586	33937.57
687.782	33982.63
687.979	35066
688.175	34633.88
688.372	34181.28
688.568	34222.24
688.765	33988.77
688.962	34791.58
689.158	34039.97
689.355	34023.59
689.551	34377.89
689.748	34179.23
689.944	34199.71
690.14	33947.81
690.337	34480.28
690.533	34332.83
690.73	34019.49
690.926	34271.39
691.123	34148.51
691.319	34212
691.515	33884.33
691.712	33933.48
691.908	34187.43
692.104	33878.18
692.301	34076.83
692.497	34171.04
692.693	34605.21
692.889	34453.66
693.086	34404.51
693.282	33169.58
693.478	34308.26
693.674	34754.71
693.87	33843.37
694.067	33867.94
694.263	34166.95
694.459	34089.12
694.655	34082.98
694.851	34001.06
695.047	33738.92
695.243	34265.25
695.439	33890.47
695.635	33683.62
695.831	34072.74
696.027	33697.96
696.224	33632.43
696.42	33874.09
696.615	34289.82
696.811	34201.76
697.007	33214.64
697.203	33282.22
697.399	33657
697.595	33943.72
697.791	33317.04
697.987	33460.4
698.183	33329.33
698.379	32987.32
698.575	33693.86
698.77	33374.38
698.966	33636.52
699.162	33831.08
699.358	33321.13
699.554	33007.79
699.749	34039.97
699.945	33861.8
700.141	33245.36
700.337	33405.1
700.532	33226.93
700.728	33378.48
700.924	33069.23
701.119	33261.74
701.315	33573.03
701.511	33188.02
701.706	33484.97
701.902	32757.94
702.097	33278.13
702.293	33839.27
702.489	32999.6
702.684	32991.41
702.88	33122.48
703.075	33261.74
703.271	32985.27
703.466	33056.95
703.662	33552.55
703.857	33849.51
704.053	32964.79
704.248	33153.2
704.443	33476.78
704.639	33247.41
704.834	33423.53
705.03	33003.7
705.225	33233.07
705.42	33495.21
705.616	33241.26
705.811	33177.78
706.006	33046.71
706.202	32809.14
706.397	33237.17
706.592	32934.07
706.787	32927.92
706.983	33022.13
707.178	33611.95
707.373	33015.99
707.568	33140.91
707.763	33239.22
707.959	32958.64
708.154	33079.47
708.349	32784.57
708.544	33167.54
708.739	32616.63
708.934	32710.84
709.129	33091.76
709.324	33388.72
709.519	32475.32
709.714	32792.76
709.909	33609.9
710.104	33128.63
710.299	33077.43
710.494	32934.07
710.689	32997.56
710.884	32794.81
711.079	32678.07
711.274	32768.18
711.469	33188.02
711.664	32788.66
711.859	32579.77
712.054	32983.22
712.249	32972.98
712.443	32829.62
712.638	32098.5
712.833	32186.56
713.028	32721.08
713.223	32596.15
713.417	32968.88
713.612	32651.45
713.807	32989.36
714.002	33349.81
714.196	32798.9
714.391	32381.12
714.586	32813.24
714.78	32432.32
714.975	32221.37
715.17	32225.47
715.364	32567.48
715.559	32696.5
715.754	31752.39
715.948	31965.38
716.143	32673.98
716.337	32616.63
716.532	32637.11
716.726	32272.57
716.921	32872.63
717.115	33157.3
717.31	32043.2
717.504	32399.55
717.699	32807.09
717.893	32268.48
718.088	32319.68
718.282	32270.53
718.476	31922.37
718.671	32282.81
718.865	32073.92
719.059	31758.53
719.254	32039.11
719.448	32004.29
719.642	31822.02
719.837	31523.02
720.031	31662.28
720.225	31680.71
720.419	31527.11
720.614	31652.04
720.808	32225.47
721.002	31871.17
721.196	31391.95
721.39	31693
721.585	32002.24
721.779	32192.7
721.973	31666.38
722.167	31049.94
722.361	31453.39
722.555	31932.61
722.749	30882
722.943	31330.51
723.137	31070.42
723.331	31668.42
723.525	31357.13
723.719	31056.08
723.913	31518.92
724.107	31819.97
724.301	31340.75
724.495	31416.52
724.689	31916.23
724.883	31471.82
725.077	30994.64
725.271	31207.63
725.465	31647.94
725.659	31350.99
725.853	31133.9
726.046	30832.85
726.24	31133.9
726.434	31312.08
726.628	30914.77
726.822	30695.64
727.015	31623.37
727.209	31441.1
727.403	31453.39
727.596	31064.27
727.79	31568.07
727.984	31324.36
728.177	31527.11
728.371	31119.57
728.565	31590.6
728.758	31445.19
728.952	31232.21
729.146	31154.38
729.339	31437
729.533	31678.66
729.726	31090.9
729.92	30965.97
730.113	31639.75
730.307	31277.26
730.5	30845.14
730.694	31072.46
730.887	30933.2
731.081	31527.11
731.274	30906.58
731.468	30824.66
731.661	30757.08
731.854	31187.15
732.048	30910.67
732.241	31029.46
732.435	31371.47
732.628	30677.21
732.821	31373.52
733.014	30908.63
733.208	30658.77
733.401	31142.1
733.594	31035.6
733.788	30984.4
733.981	31252.69
734.174	31187.15
734.367	30490.84
734.56	31011.03
734.754	31361.23
734.947	31316.17
735.14	30963.92
735.333	31019.22
735.526	31295.69
735.719	30646.49
735.912	30601.43
736.105	31037.65
736.298	31185.1
736.491	30916.82
736.684	30931.15
736.877	30544.09
737.07	30900.44
737.263	31160.53
737.456	30795.99
737.649	30824.66
737.842	30740.69
738.035	31525.07
738.228	30654.68
738.421	31101.14
738.614	31631.56
738.807	31350.99
739	30417.11
739.192	30537.94
739.385	30884.05
739.578	30662.87
739.771	30841.04
739.964	30472.41
740.156	30800.08
740.349	30834.9
740.542	30853.33
740.735	30515.42
740.927	30521.56
741.12	30449.88
741.313	30568.66
741.505	30820.56
741.698	30998.74
741.891	31088.85
742.083	30699.73
742.276	30415.07
742.468	30689.49
742.661	30734.55
742.854	30482.65
743.046	30554.33
743.239	30906.58
743.431	30843.09
743.624	30591.19
743.816	30111.97
744.009	30750.93
744.201	30974.16
744.393	30548.18
744.586	30193.89
744.778	30861.52
744.971	30294.24
745.163	30376.16
745.355	30492.89
745.548	30007.52
745.74	29845.73
745.932	30298.33
746.125	30396.63
746.317	30853.33
746.509	30752.98
746.702	30150.88
746.894	30433.5
747.086	30226.65
747.278	30726.36
747.471	30042.34
747.663	30030.05
747.855	30200.03
748.047	30558.42
748.239	30101.73
748.431	29989.09
748.623	30517.46
748.815	30638.3
749.008	30191.84
749.2	29999.33
749.392	30367.96
749.584	30324.96
749.776	30281.95
749.968	30273.76
750.16	30632.15
750.352	30025.95
750.544	29829.35
750.736	29886.69
750.928	30263.52
751.12	29720.81
751.311	29507.82
751.503	30046.43
751.695	30087.39
751.887	29944.03
752.079	29384.94
752.271	29479.14
752.463	30791.89
752.654	30093.54
752.846	29559.02
753.038	29722.85
753.23	29505.77
753.421	29931.75
753.613	29624.55
753.805	30154.97
753.997	29921.51
754.188	30339.29
754.38	29477.1
754.572	29786.34
754.763	29223.15
754.955	29667.56
755.146	29442.28
755.338	29362.41
755.53	29622.5
755.721	29133.04
755.913	29229.29
756.104	29323.5
756.296	29253.87
756.487	29704.42
756.679	28924.15
756.87	28381.43
757.062	28619
757.253	29698.28
757.445	28831.99
757.636	29040.88
757.827	29237.48
758.019	29393.13
758.21	28408.06
758.401	28733.68
758.593	29761.76
758.784	29233.39
758.975	28596.47
759.167	28279.04
759.358	29247.72
759.549	29122.8
759.74	28598.52
759.932	28772.6
760.123	28987.63
760.314	28670.2
760.505	28475.64
760.696	28240.12
760.888	29022.45
761.079	28672.25
761.27	28027.13
761.461	27779.33
761.652	29065.46
761.843	28406.01
762.034	28137.73
762.225	28387.58
762.416	28389.63
762.607	28461.3
762.798	28322.04
762.989	27945.22
763.18	29001.97
763.371	28358.91
763.562	28084.48
763.753	28100.86
763.944	28440.82
764.135	28575.99
764.326	28274.94
764.517	27773.19
764.708	28457.21
764.899	27877.63
765.089	27506.95
765.28	27685.12
765.471	27812.1
765.662	28334.33
765.853	27816.19
766.043	27441.42
766.234	28254.46
766.425	27883.78
766.615	27470.09
766.806	27404.55
766.997	28023.04
767.187	27447.56
767.378	27633.92
767.569	26941.71
767.759	27926.78
767.95	27455.75
768.141	27900.16
768.331	27367.69
768.522	27324.68
768.712	27873.54
768.903	27296.01
769.093	26941.71
769.284	27709.7
769.474	27607.3
769.665	26917.14
769.855	26917.14
770.046	27797.76
770.236	27336.97
770.426	27111.69
770.617	26812.69
770.807	27269.39
770.998	27175.18
771.188	27166.99
771.378	26845.46
771.569	27445.51
771.759	27416.84
771.949	26446.1
772.139	26786.07
772.33	26913.04
772.52	27220.24
772.71	26763.54
772.9	26792.21
773.09	27482.38
773.281	26913.04
773.471	26442.01
773.661	26425.62
773.851	26861.84
774.041	26315.03
774.231	26171.68
774.421	26501.4
774.611	26638.61
774.802	26448.15
774.992	26349.85
775.182	25917.73
775.372	26556.69
775.562	26655
775.752	26409.24
775.942	26122.52
776.131	26954
776.321	26358.04
776.511	26110.24
776.701	25987.36
776.891	26444.06
777.081	26048.8
777.271	25968.93
777.461	25700.64
777.651	26134.81
777.84	26267.93
778.03	25893.15
778.22	25757.99
778.41	26421.53
778.599	25858.34
778.789	25469.22
778.979	25622.82
779.169	26151.2
779.358	25989.41
779.548	25723.17
779.738	25426.21
779.927	25868.58
780.117	25706.79
780.307	25426.21
780.496	25159.98
780.686	26073.37
780.875	26405.14
781.065	25321.77
781.254	25237.8
781.444	25545
781.633	25946.4
781.823	25245.99
782.012	25411.88
782.202	25108.78
782.391	25465.13
782.581	25123.12
782.77	25178.41
782.96	26001.69
783.149	24844.59
783.338	24996.14
783.528	24860.98
783.717	25372.97
783.906	25342.25
784.096	24826.16
784.285	24940.85
784.474	25104.68
784.663	25092.4
784.853	24817.97
785.042	24762.67
785.231	25086.25
785.42	25452.84
785.61	24938.8
785.799	24865.07
785.988	24791.34
786.177	24820.02
786.366	24602.93
786.555	25018.67
786.744	25289
786.933	24846.64
787.122	24547.64
787.312	24801.58
787.501	24555.83
787.69	25049.39
787.879	24457.53
788.068	24432.95
788.257	24170.81
788.445	24453.43
788.634	24326.46
788.823	24316.22
789.012	25280.81
789.201	25053.48
789.39	24187.19
789.579	24041.79
789.768	24613.17
789.957	24504.63
790.145	24244.54
790.334	23988.54
790.523	23816.51
790.712	24416.57
790.9	24002.88
791.089	23585.09
791.278	24475.96
791.467	24011.07
791.655	24310.07
791.844	24447.29
792.033	24117.56
792.221	23970.11
792.41	23830.85
792.599	23515.46
792.787	24330.55
792.976	24310.07
793.164	23603.52
793.353	23542.08
793.541	24150.33
793.73	23910.72
793.918	23523.65
794.107	23429.45
794.295	23937.34
794.484	23834.94
794.672	23736.64
794.861	23419.21
795.049	23959.87
795.238	23679.3
795.426	23511.36
795.614	23570.75
795.803	23941.44
795.991	24099.13
796.179	23335.24
796.368	23339.33
796.556	23886.14
796.744	23214.41
796.932	23169.35
797.121	23413.06
797.309	23499.08
797.497	23947.58
797.685	23163.21
797.874	23216.46
798.062	23351.62
798.25	23757.12
798.438	23228.74
798.626	23128.39
798.814	23472.45
799.002	24183.1
799.19	23327.05
799.378	23187.78
799.566	23263.56
799.755	23773.5
799.943	23275.85
800.131	23185.74
800.318	23445.83
800.506	23650.63
800.694	22966.6
800.882	23017.8
801.07	23689.54
801.258	23564.61
801.446	23204.17
801.634	23026
801.822	23091.53
802.01	23460.16
802.197	23214.41
802.385	23511.36
802.573	23474.5
802.761	23488.84
802.949	23376.2
803.136	22960.46
803.324	23974.2
803.512	23767.36
803.699	23351.62
803.887	23210.31
804.075	24168.76
804.262	23546.18
804.45	23152.97
804.638	23654.72
804.825	23515.46
805.013	23720.26
805.201	23464.26
805.388	23292.23
805.576	23656.77
805.763	24359.22
805.951	23468.36
806.138	23599.43
806.326	24219.96
806.513	24103.23
806.701	23697.73
806.888	23722.3
807.075	24017.21
807.263	24047.93
807.45	23298.38
807.638	23738.69
807.825	24312.12
808.012	24101.18
808.2	23501.12
808.387	24140.09
808.574	23861.57
808.761	24125.75
808.949	23613.76
809.136	23853.37
809.323	24246.58
809.51	24002.88
809.698	23992.64
809.885	24041.79
810.072	24199.48
810.259	24715.57
810.446	23519.56
810.633	23863.61
810.82	24256.82
811.008	24344.89
811.195	24533.3
811.382	24062.27
811.569	24060.22
811.756	23644.48
811.943	23732.54
812.13	23859.52
812.317	23843.13
812.504	24011.07
812.691	24045.88
812.878	23943.49
813.064	24539.44
813.251	23918.91
813.438	23615.81
813.625	23777.6
813.812	23986.49
813.999	23933.25
814.186	23851.33
814.372	23925.05
814.559	24127.8
814.746	24381.75
814.933	23996.73
815.12	24074.56
815.306	23755.07
815.493	24074.56
815.68	23927.1
815.866	23906.62
816.053	24561.97
816.24	24508.72
816.426	23867.71
816.613	23677.25
816.799	24234.3
816.986	24332.6
817.173	23673.15
817.359	23540.04
817.546	23804.22
817.732	23609.67
817.919	23224.65
818.105	23822.66
818.292	24080.7
818.478	24250.68
818.665	23759.17
818.851	23843.13
819.037	24578.36
819.224	24103.23
819.41	23333.19
819.597	23595.33
819.783	24332.6
819.969	24074.56
820.156	23611.71
820.342	23460.16
820.528	24488.24
820.714	23755.07
820.901	23779.65
821.087	23449.92
821.273	24166.71
821.459	23531.84
821.646	23277.9
821.832	23572.8
822.018	23542.08
822.204	23380.29
822.39	23247.18
822.576	23374.15
822.762	23417.16
822.948	23433.54
823.134	23511.36
823.32	23087.43
823.507	23105.87
823.693	23400.77
823.879	23740.74
824.065	23288.14
824.25	23400.77
824.436	23150.92
824.622	23021.9
824.808	23142.73
824.994	23044.43
825.18	22858.06
825.366	22927.69
825.552	22829.39
825.738	23234.89
825.923	23537.99
826.109	23214.41
826.295	22395.22
826.481	22770
826.667	22995.28
826.852	22544.72
827.038	22774.1
827.224	23345.48
827.409	23382.34
827.595	22567.25
827.781	22577.49
827.966	23204.17
828.152	23384.39
828.338	22868.3
828.523	22636.88
828.709	22593.87
828.894	22843.73
829.08	22370.65
829.266	22200.66
829.451	22667.6
829.637	22718.8
829.822	22374.74
830.008	22188.38
830.193	22937.93
830.378	22755.66
830.564	22348.12
830.749	22114.65
830.935	22430.04
831.12	22634.83
831.305	22188.38
831.491	22262.1
831.676	21948.76
831.861	22427.99
832.047	22010.2
832.232	21901.66
832.417	22473.04
832.602	22468.95
832.788	21926.24
832.973	21637.47
833.158	22004.06
833.343	21881.18
833.528	22069.59
833.714	21887.32
833.899	21815.65
834.084	22352.21
834.269	21954.91
834.454	21784.93
834.639	22247.77
834.824	21498.21
835.009	21516.64
835.194	21614.94
835.379	21952.86
835.564	22063.45
835.749	21633.38
835.934	21309.8
836.119	21680.48
836.304	21733.73
836.489	21428.58
836.674	21627.23
836.859	21352.8
837.044	21893.47
837.228	21268.84
837.413	21119.34
837.598	21571.94
837.783	21600.61
837.968	21301.61
838.152	21000.55
838.337	20715.89
838.522	21424.48
838.707	21862.75
838.891	21195.11
839.076	21358.95
839.261	21578.08
839.445	21195.11
839.63	20924.78
839.815	21317.99
839.999	21154.15
840.184	21037.42
840.368	20857.2
840.553	21397.86
840.737	21266.79
840.922	20652.4
841.106	20539.76
841.291	20877.68
841.475	21188.97
841.66	20775.28
841.844	20705.65
842.029	21625.18
842.213	20728.17
842.397	20435.31
842.582	20158.84
842.766	21129.58
842.951	21006.7
843.135	20562.29
843.319	20371.83
843.504	20844.91
843.688	21041.51
843.872	20445.55
844.056	20349.3
844.241	20752.75
844.425	20701.55
844.609	20408.69
844.793	20357.49
844.977	20767.09
845.161	20500.85
845.346	20207.99
845.53	19825.02
845.714	20404.6
845.898	20599.15
846.082	19923.32
846.266	20330.87
846.45	20429.17
846.634	20705.65
846.818	19810.68
847.002	20236.66
847.186	20228.47
847.37	19743.1
847.554	19743.1
847.738	20072.82
847.922	20111.74
848.106	20146.55
848.29	19394.95
848.473	19534.21
848.657	20095.35
848.841	20160.89
849.025	19814.78
849.209	19485.06
849.392	20328.82
849.576	19902.84
849.76	19272.07
849.944	19751.29
850.127	20240.76
850.311	19554.69
850.495	19657.09
850.678	19313.03
850.862	20248.95
851.046	20027.77
851.229	19521.92
851.413	19292.55
851.596	19607.94
851.78	20132.22
851.964	19661.18
852.147	19280.26
852.331	19986.81
852.514	19855.74
852.698	19255.68
852.881	18891.15
853.065	19614.08
853.248	19270.02
853.431	19239.3
853.615	18954.63
853.798	19700.09
853.982	19618.18
854.165	19405.19
854.348	19134.85
854.532	18946.44
854.715	19239.3
854.898	18942.35
855.081	19091.85
855.265	19609.98
855.448	19321.22
855.631	18825.61
855.814	18917.77
855.997	19298.69
856.181	19073.42
856.364	19007.88
856.547	18856.33
856.73	18985.35
856.913	18764.17
857.096	18287
857.279	18629.01
857.462	18856.33
857.645	19200.39
857.828	18930.06
858.011	18798.99
858.194	18723.21
858.377	18712.97
858.56	18176.41
858.743	18440.59
858.926	18411.92
859.109	18651.53
859.292	18229.65
859.475	18092.44
859.658	18889.1
859.841	18946.44
860.023	18174.36
860.206	17899.93
860.389	18760.08
860.572	18596.24
860.755	18045.34
860.937	18119.06
861.12	18008.47
861.303	18309.52
861.486	18117.01
861.668	17686.94
861.851	18276.76
862.034	18186.65
862.216	17758.62
862.399	17699.23
862.581	18065.81
862.764	18297.24
862.947	17717.66
863.129	17596.83
863.312	17516.96
863.494	18176.41
863.677	17605.02
863.859	17369.51
864.042	18188.69
864.224	18110.87
864.406	17912.22
864.589	17394.08
864.771	17756.57
864.954	17488.29
865.136	17248.68
865.318	17017.25
865.501	17582.49
865.683	17340.83
865.865	17271.2
866.048	17136.04
866.23	17187.24
866.412	17510.82
866.594	16961.96
866.777	16996.78
866.959	17385.89
867.141	17109.41
867.323	17168.8
867.505	16996.78
867.687	17160.61
867.869	17213.86
868.052	17185.19
868.234	16763.31
868.416	17209.76
868.598	17398.18
868.78	16953.77
868.962	16916.9
869.144	17566.11
869.326	17385.89
869.508	16832.94
869.69	16992.68
869.872	16990.63
870.054	17334.69
870.236	16701.87
870.417	16859.56
870.599	17070.5
870.781	17621.41
870.963	16964.01
871.145	16738.73
871.327	16662.96
871.508	17179.04
871.69	16779.69
871.872	16656.81
872.054	17103.27
872.235	17062.31
872.417	16759.21
872.599	16548.27
872.78	17342.88
872.962	16947.62
873.144	16415.15
873.325	16751.02
873.507	17564.06
873.689	17271.2
873.87	16830.89
874.052	17111.46
874.233	17101.22
874.415	17222.05
874.596	16814.51
874.778	16482.74
874.959	17095.08
875.141	17058.21
875.322	16609.71
875.503	16486.83
875.685	17205.67
875.866	16454.06
876.048	16699.82
876.229	16638.38
876.41	16761.26
876.592	17041.83
876.773	16685.48
876.954	16587.18
877.136	17531.3
877.317	16765.35
877.498	16701.87
877.679	16683.44
877.86	17013.16
878.042	16742.83
878.223	16769.45
878.404	17338.79
878.585	17295.78
878.766	17361.31
878.947	17101.22
879.128	16820.65
879.309	17113.51
879.49	17422.75
879.672	16900.52
879.853	17004.97
880.034	16964.01
880.215	17191.33
880.396	17148.32
880.576	16992.68
880.757	17242.53
880.938	17410.46
881.119	17160.61
881.3	16884.14
881.481	17215.91
881.662	18354.58
881.843	16767.4
882.023	16978.34
882.204	17324.45
882.385	17500.58
882.566	16933.29
882.747	17133.99
882.927	17523.1
883.108	17437.09
883.289	17172.9
883.469	17389.99
883.65	17109.41
883.831	17400.23
884.011	17482.14
884.192	17224.1
884.373	18008.47
884.553	17818.01
884.734	17594.78
884.914	17813.91
885.095	18553.23
885.275	18149.78
885.456	17861.02
885.636	17211.81
885.817	18074.01
885.997	17811.87
886.178	17572.25
886.358	17912.22
886.538	17840.54
886.719	19237.25
886.899	17627.55
887.08	17895.83
887.26	18248.08
887.44	17652.13
887.621	17602.97
887.801	17856.92
887.981	18739.6
888.161	17904.03
888.342	18043.29
888.522	18108.82
888.702	18352.53
888.882	18420.11
889.062	18184.6
889.242	17811.87
889.423	18446.74
889.603	18409.87
889.783	18061.72
889.963	17695.13
890.143	18266.52
890.323	18510.22
890.503	17908.12
890.683	17832.35
890.863	18028.95
891.043	18258.32
891.223	17744.28
891.403	18303.38
891.583	18164.12
891.763	18375.06
891.943	18119.06
892.122	17967.51
892.302	18262.42
892.482	18317.72
892.662	18008.47
892.842	18000.28
893.022	18268.56
893.201	18114.97
893.381	18377.11
893.561	18037.14
893.741	18522.51
893.92	18307.48
894.1	17959.32
894.28	18092.44
894.459	18297.24
894.639	18575.76
894.819	17922.46
894.998	18172.31
895.178	18557.33
895.357	18612.62
895.537	17605.02
895.716	17883.55
895.896	18104.73
896.075	18747.79
896.255	17732
896.434	17858.97
896.614	18461.07
896.793	18399.63
896.973	18151.83
897.152	17781.15
897.331	18610.57
897.511	18518.42
897.69	17568.16
897.87	18149.78
898.049	18540.94
898.228	18182.55
898.407	17777.05
898.587	17996.18
898.766	17967.51
898.945	18416.02
899.124	17914.27
899.304	18028.95
899.483	17981.85
899.662	18528.66
899.841	17713.56
900.02	17908.12
900.199	18303.38
900.378	18047.38
900.557	17521.06
900.737	17629.6
900.916	17783.2
901.095	18192.79
901.274	17949.08
901.453	17834.39
901.632	17836.44
901.811	17627.55
901.989	17465.76
902.168	17113.51
902.347	18141.59
902.526	17412.51
902.705	17631.65
902.884	17562.01
903.063	18082.2
903.242	17981.85
903.42	17045.93
903.599	17324.45
903.778	17467.81
903.957	17789.34
904.135	17326.5
904.314	17136.04
904.493	17701.28
904.672	17416.61
904.85	17156.52
905.029	17056.17
905.207	17385.89
905.386	17992.09
905.565	16900.52
905.743	16812.46
905.922	17183.14
906.1	17432.99
906.279	16654.76
906.457	16738.73
906.636	17088.93
906.814	16857.51
906.993	16624.04
907.171	16751.02
907.35	17066.41
907.528	17252.77
907.707	16882.09
907.885	16574.89
908.063	17084.84
908.242	16679.34
908.42	16302.51
908.598	16437.68
908.777	16761.26
908.955	16665
909.133	16806.31
909.311	16226.74
909.49	16429.49
909.668	16509.36
909.846	16181.68
910.024	15956.41
910.202	16529.84
910.38	16478.64
910.559	15782.33
910.737	15858.1
910.915	16488.88
911.093	16445.87
911.271	16142.77
911.449	16402.86
911.627	16343.47
911.805	16658.86
911.983	15724.99
912.161	15845.82
912.339	16169.4
912.517	16351.67
912.695	15585.72
912.872	15937.98
913.05	15976.89
913.228	16064.95
913.406	15905.21
913.584	15561.15
913.762	15823.29
913.939	15888.82
914.117	15397.31
914.295	15348.16
914.473	15804.86
914.65	15888.82
914.828	15278.53
915.006	15129.03
915.184	15239.62
915.361	15649.21
915.539	15157.7
915.716	15497.66
915.894	15075.78
916.072	15557.05
916.249	15088.07
916.427	15055.3
916.604	15055.3
916.782	15264.19
916.959	14666.19
917.137	14891.46
917.314	15188.42
917.492	15086.02
917.669	14834.12
917.847	14739.91
918.024	15026.63
918.201	14756.3
918.379	14674.38
918.556	14266.83
918.733	15110.6
918.911	14457.29
919.088	14653.9
919.265	14772.68
919.442	14590.41
919.62	14442.96
919.797	14201.3
919.974	14117.33
920.151	14612.94
920.328	14014.93
920.506	13994.45
920.683	14647.76
920.86	13973.97
921.037	14039.51
921.214	13871.58
921.391	13900.25
921.568	14301.65
921.745	13887.96
921.922	13574.62
922.099	13402.59
922.276	14332.37
922.453	14053.84
922.63	13625.82
922.807	13959.64
922.984	13646.3
923.161	13605.34
923.338	13504.99
923.514	13412.83
923.691	13627.87
923.868	13556.19
924.045	13015.52
924.222	13101.54
924.399	13519.32
924.575	13537.76
924.752	12986.85
924.929	13023.72
925.105	13203.94
925.282	13326.82
925.459	12687.85
925.635	12904.93
925.812	13068.77
925.989	12777.96
926.165	12829.16
926.342	12300.78
926.518	12425.71
926.695	12691.94
926.871	12302.83
927.048	12147.19
927.224	12853.73
927.401	12349.93
927.577	12366.32
927.754	12138.99
927.93	12833.25
928.107	12485.1
928.283	12075.51
928.459	12349.93
928.636	12298.74
928.812	12044.79
928.988	11831.8
929.165	11858.42
929.341	11979.25
929.517	12073.46
929.693	12091.89
929.87	11418.11
930.046	12171.76
930.222	11536.89
930.398	11565.56
930.574	11532.79
930.751	11678.2
930.927	11766.26
931.103	11524.6
931.279	11217.41
931.455	11254.27
931.631	11407.87
931.807	11008.51
931.983	11098.63
932.159	10977.8
932.335	11024.9
932.511	10983.94
932.687	10822.15
932.863	11188.74
933.039	10883.59
933.215	10535.43
933.391	10508.81
933.566	10680.84
933.742	10607.11
933.918	10170.9
934.094	9902.61
934.27	10287.63
934.445	10400.27
934.621	10238.48
934.797	9910.8
934.973	10263.05
935.148	10037.78
935.324	9550.36
935.5	9347.61
935.675	9845.27
935.851	9669.14
936.027	9157.15
936.202	9370.14
936.378	9335.32
936.553	8989.22
936.729	9085.47
936.904	8354.35
937.08	8456.75
937.255	8487.47
937.431	8190.51
937.606	7907.89
937.782	7954.99
937.957	8075.82
938.133	7959.09
938.308	7653.94
938.483	7885.36
938.659	7309.88
938.834	7320.12
939.009	7260.73
939.185	7318.07
939.36	7004.74
939.535	6437.45
939.71	6888
939.886	7211.58
940.061	6967.87
940.236	6865.47
940.411	6728.26
940.586	6861.38
940.761	6695.49
940.937	6263.37
941.112	6230.6
941.287	6451.78
941.462	6416.97
941.637	5874.26
941.812	6134.35
941.987	6216.27
942.162	6095.44
942.337	5872.21
942.512	5792.34
942.687	6220.36
942.862	6257.23
943.037	5472.86
943.212	5495.38
943.386	5827.15
943.561	5857.87
943.736	5728.85
943.911	5861.97
944.086	5790.29
944.26	5839.44
944.435	5522.01
944.61	5624.4
944.785	5878.35
944.959	6122.06
945.134	5313.11
945.309	5548.63
945.483	5491.29
945.658	5847.63
945.833	5233.24
946.007	5171.8
946.182	6138.45
946.357	5210.72
946.531	5259.87
946.706	5366.36
946.88	5106.27
947.055	5691.99
947.229	5304.92
947.404	5231.19
947.578	5720.66
947.752	5519.96
947.927	5304.92
948.101	5233.24
948.276	5634.64
948.45	5671.51
948.624	5522.01
948.799	5155.42
948.973	5683.8
949.147	5296.73
949.321	5454.42
949.496	5280.35
949.67	5960.27
949.844	5503.57
950.018	5401.18
950.193	5216.86
950.367	5927.5
950.541	5374.55
950.715	5618.26
950.889	5397.08
951.063	5454.42
951.237	5675.6
951.411	5001.82
951.585	5163.61
951.759	5679.7
951.933	5589.59
952.107	5354.07
952.281	5485.14
952.455	6023.76
952.629	5667.41
952.803	5440.09
952.977	5315.16
953.151	5851.73
953.325	5620.31
953.499	5433.94
953.672	5083.74
953.846	5366.36
954.02	5376.6
954.194	5292.63
954.368	5177.95
954.541	5894.74
954.715	5378.65
954.889	5513.81
955.062	5202.52
955.236	5421.66
955.41	5542.49
955.583	5392.98
955.757	5030.49
955.93	5390.94
956.104	5044.83
956.278	5304.92
956.451	5397.08
956.625	5550.68
956.798	5794.39
956.972	5483.09
957.145	5079.65
957.319	5474.9
957.492	5442.14
957.665	5309.02
957.839	5126.75
958.012	5513.81
958.185	5354.07
958.359	5151.32
958.532	5343.83
958.705	5628.5
958.879	5448.28
959.052	5253.72
959.225	4833.89
959.398	5249.63
959.572	5388.89
959.745	5075.55
959.918	5167.71
960.091	5192.28
960.264	5376.6
960.438	4934.24
960.611	4917.86
960.784	5417.56
960.957	5202.52
961.13	5481.05
961.303	5030.49
961.476	5145.18
961.649	5173.85
961.822	4977.25
961.995	5036.64
962.168	5286.49
962.341	5200.48
962.514	4991.58
962.686	4917.86
962.859	5304.92
963.032	5358.17
963.205	4868.7
963.378	4717.15
963.551	5298.78
963.723	5188.19
963.896	5100.12
964.069	5057.12
964.242	5077.6
964.414	5339.74
964.587	4930.14
964.76	5210.72
964.932	5356.12
965.105	5022.3
965.278	4928.1
965.45	4823.65
965.623	5044.83
965.795	5165.66
965.968	4668
966.14	4901.47
966.313	5046.88
966.485	5057.12
966.658	4661.86
966.83	4686.44
967.003	5253.72
967.175	5294.68
967.348	4831.84
967.52	4809.31
967.692	5362.26
967.865	5155.42
968.037	4600.42
968.209	4969.05
968.382	5063.26
968.554	5089.89
968.726	4780.64
968.898	4627.04
969.071	5020.25
969.243	5175.9
969.415	4764.26
969.587	4840.03
969.759	5419.61
969.932	5018.21
970.104	4733.54
970.276	4356.71
970.448	4901.47
970.62	4655.72
970.792	4688.48
970.964	4784.74
971.136	5112.41
971.308	4899.42
971.48	4448.87
971.652	4416.1
971.824	5182.04
971.996	4467.3
972.168	4442.73
972.339	4524.65
972.511	4983.39
972.683	4770.4
972.855	4788.83
973.027	4584.04
973.199	4817.51
973.37	4913.76
973.542	4590.18
973.714	4639.33
973.886	4659.81
974.057	4817.51
974.229	4293.23
974.401	4487.78
974.572	4383.34
974.744	4151.92
974.915	4209.26
975.087	4291.18
975.259	4799.07
975.43	4440.68
975.602	4332.14
975.773	4168.3
975.945	4276.84
976.116	4596.32
976.288	4217.45
976.459	4414.06
976.63	4508.26
976.802	4588.13
976.973	4395.62
977.145	4383.34
977.316	4962.91
977.487	4887.14
977.659	4481.64
977.83	4201.07
978.001	4926.05
978.172	4434.53
978.344	4180.59
978.515	4266.6
978.686	4381.29
978.857	4760.16
979.028	4037.23
979.2	4082.28
979.371	4569.7
979.542	4375.14
979.713	4389.48
979.884	3830.38
980.055	4215.4
980.226	4282.99
980.397	3947.12
980.568	4135.53
980.739	4594.28
980.91	4133.48
981.081	4399.72
981.252	4029.04
981.423	4455.01
981.594	4483.69
981.765	3795.57
981.936	4086.38
982.106	4246.12
982.277	4604.52
982.448	3973.74
982.619	4131.44
982.79	4024.94
982.96	4479.59
983.131	4067.95
983.302	3785.33
983.472	4057.71
983.643	4184.68
983.814	4102.76
983.984	3848.82
984.155	4108.91
984.326	4346.47
984.496	3861.1
984.667	3881.58
984.837	3891.82
985.008	4395.62
985.178	3990.13
985.349	3863.15
985.519	4022.89
985.69	3826.29
985.86	3723.89
986.031	3578.48
986.201	4045.42
986.371	4170.35
986.542	3711.6
986.712	3281.53
986.882	3988.08
987.053	3951.21
987.223	3598.96
987.393	3607.16
987.563	3766.9
987.734	4031.09
987.904	3988.08
988.074	3471.99
988.244	3949.17
988.414	3861.1
988.585	3453.56
988.755	3699.31
988.925	3734.13
989.095	4035.18
989.265	3623.54
989.435	3584.63
989.605	4033.13
989.775	3863.15
989.945	3850.86
990.115	3486.33
990.285	3746.42
990.455	3904.11
990.625	3607.16
990.795	3431.03
990.965	4199.02
991.134	3465.85
991.304	3484.28
991.474	3476.09
991.644	3818.1
991.814	3961.45
991.984	3279.48
992.153	3377.78
992.323	3584.63
992.493	3523.19
992.662	3218.04
992.832	3508.85
993.002	3705.46
993.171	3672.69
993.341	3117.69
993.511	3439.22
993.68	3488.37
993.85	3779.18
994.019	3037.82
994.189	3232.38
994.358	3711.6
994.528	3484.28
994.697	2914.94
994.867	3285.62
995.036	3603.06
995.206	3357.3
995.375	2996.86
995.544	3338.87
995.714	3414.65
995.883	3306.1
996.052	3351.16
996.222	2828.93
996.391	3928.69
996.56	3502.71
996.73	3146.36
996.899	3127.93
997.068	3766.9
997.237	3406.45
997.406	2968.19
997.576	2955.9
997.745	3439.22
997.914	3349.11
998.083	2861.69
998.252	3037.82
998.421	3445.37
998.59	3162.75
998.759	2927.23
998.928	2843.26
999.097	3574.39
999.266	3320.44
999.435	3136.12
999.604	2738.82
999.773	3545.72
999.942	3080.83
1000.111	2706.05
1000.28	2710.15
1000.448	3089.02
1000.617	2972.29
1000.786	3136.12
1000.955	2640.51
1001.124	3289.72
1001.292	3814
1001.461	2728.58
1001.63	2747.01
1001.798	3512.95
1001.967	3267.19
1002.136	2722.43
1002.304	2689.67
1002.473	3015.29
1002.642	3062.4
1002.81	2775.68
1002.979	2613.89
1003.147	3250.81
1003.316	3523.19
1003.484	2644.61
1003.653	2628.23
1003.821	3351.16
1003.99	2857.6
1004.158	2869.89
1004.327	2845.31
1004.495	3172.99
1004.663	2665.09
1004.832	2626.18
1005	2534.02
1005.168	3113.6
1005.337	2890.37
1005.505	2435.72
1005.673	2704
1005.842	3009.15
1006.01	3009.15
1006.178	2427.53
1006.346	2607.75
1006.514	2898.56
1006.683	3072.64
1006.851	2407.05
1007.019	2318.98
1007.187	2714.24
1007.355	2417.29
1007.523	2364.04
1007.691	2366.09
1007.859	2423.43
1008.027	3127.93
1008.195	2556.55
1008.363	2267.78
1008.531	2943.61
1008.699	2517.64
1008.867	2142.86
1009.035	2355.85
1009.203	3050.11
1009.37	2626.18
1009.538	2415.24
1009.706	2822.78
1009.874	2763.39
1010.042	2646.66
1010.209	2175.63
1010.377	2335.37
1010.545	2839.17
1010.713	2718.34
1010.88	2237.06
1011.048	2304.65
1011.216	2525.83
1011.383	2964.09
1011.551	2136.71
1011.718	2144.91
1011.886	2779.78
1012.054	2431.62
1012.221	2179.72
1012.389	2194.06
1012.556	2480.77
1012.724	2861.69
1012.891	2310.79
1013.058	1933.97
1013.226	2480.77
1013.393	2654.85
1013.561	1974.92
1013.728	2048.65
1013.895	2579.08
1014.063	2570.88
1014.23	1938.06
1014.397	1989.26
1014.565	2677.38
1014.732	2204.3
1014.899	2103.95
1015.066	2067.08
1015.233	2476.68
1015.401	2595.46
1015.568	2095.75
1015.735	2095.75
1015.902	2259.59
1016.069	2419.33
1016.236	1917.58
1016.403	1911.44
1016.57	2134.67
1016.737	2486.92
1016.904	1979.02
1017.071	1716.88
1017.238	2044.56
1017.405	2472.58
1017.572	1886.86
1017.739	2183.82
1017.906	2267.78
1018.073	2417.29
1018.24	1845.9
1018.407	1923.73
1018.573	2431.62
1018.74	2214.54
1018.907	1981.07
1019.074	1768.08
1019.241	2435.72
1019.407	2189.96
1019.574	1759.89
1019.741	1649.3
1019.907	2298.5
1020.074	2290.31
1020.241	1553.04
1020.407	1770.13
1020.574	2194.06
1020.74	2120.33
1020.907	1776.27
1021.073	1714.83
1021.24	2536.07
1021.406	2407.05
1021.573	1630.87
1021.739	1708.69
1021.906	2208.39
1022.072	2116.23
1022.239	1637.01
1022.405	1637.01
1022.571	2007.69
1022.738	1817.23
1022.904	1628.82
1023.07	1755.79
1023.237	1981.07
1023.403	2247.3
1023.569	1530.52
1023.735	1526.42
1023.902	2028.17
1024.068	2114.19
1024.234	1434.26
1024.4	1505.94
1024.566	2038.41
1024.732	2146.95
1024.898	1397.4
1025.065	1464.98
1025.231	1995.4
1025.397	1776.27
1025.563	1485.46
1025.729	1327.77
1025.895	1350.29
1026.061	1532.56
1026.227	1297.05
1026.392	1424.02
1026.558	2058.89
1026.724	1929.87
1026.89	1467.03
1027.056	1432.21
1027.222	1952.4
1027.388	1665.68
1027.553	1448.6
1027.719	1301.14
1027.885	2036.36
1028.051	1806.99
1028.216	1219.22
1028.382	1473.17
1028.548	1878.67
1028.713	1690.26
1028.879	1213.08
1029.045	1497.75
1029.21	2112.14
1029.376	1962.64
1029.541	1333.91
1029.707	1401.49
1029.873	1874.57
1030.038	1893.01
1030.204	1333.91
1030.369	1354.39
1030.534	1843.85
1030.7	1522.32
1030.865	1268.38
1031.031	1151.64
1031.196	1696.4
1031.361	1618.58
1031.527	1239.7
1031.692	1188.5
1031.857	1272.47
1032.023	1729.17
1032.188	1153.69
1032.353	1348.25
1032.518	1858.19
1032.684	1659.54
1032.849	1045.15
1033.014	1303.19
1033.179	1792.66
1033.344	1843.85
1033.509	1325.72
1033.674	1141.4
1033.839	1714.83
1034.004	1686.16
1034.17	1235.61
1034.335	1122.97
1034.5	1305.24
1034.664	1348.25
1034.829	1077.91
1034.994	1182.36
1035.159	1614.48
1035.324	1530.52
1035.489	1190.55
1035.654	1141.4
1035.819	1792.66
1035.984	1602.19
1036.148	1110.68
1036.313	1082.01
1036.478	1659.54
1036.643	1528.47
1036.807	1092.25
1036.972	903.84
1037.137	1700.5
1037.301	1464.98
1037.466	803.49
1037.631	1168.02
1037.795	1628.82
1037.96	1507.99
1038.124	1176.22
1038.289	924.32
1038.454	1569.43
1038.618	1530.52
1038.783	998.04
1038.947	1057.43
1039.111	1251.99
1039.276	1299.09
1039.44	969.37
1039.605	1354.39
1039.769	1278.62
1039.933	1297.05
1040.098	1079.96
1040.262	1153.69
1040.426	1438.36
1040.591	1424.02
1040.755	842.4
1040.919	942.75
1041.083	1415.83
1041.248	1327.77
1041.412	705.18
1041.576	879.26
1041.74	1227.42
1041.904	1538.71
1042.068	760.48
1042.232	969.37
1042.397	1419.93
1042.561	1323.67
1042.725	653.98
1042.889	1096.35
1043.053	1264.28
1043.217	1436.31
1043.381	920.22
1043.544	674.46
1043.708	1491.6
1043.872	871.07
1044.036	551.59
1044.2	711.33
1044.364	1409.69
1044.528	1567.38
1044.691	2153.1
1044.855	653.98
1045.019	1391.25
1045.183	1383.06
1045.346	787.1
1045.51	658.08
1045.674	1338.01
1045.837	1247.9
1046.001	801.44
1046.165	772.77
1046.328	1622.67
1046.492	1268.38
1046.655	944.8
1046.819	866.97
1046.983	991.9
1047.146	1204.89
1047.31	729.76
1047.473	582.31
1047.636	952.99
1047.8	871.07
1047.963	735.9
1048.127	572.07
1048.29	912.03
