Data from Ink_Intensity_USB4F045381__104__00104.txt Node

Date: Mon Jul 17 11:05:38 EDT 2023
User: mmckonesweet
Spectrometer: USB4F04538
Trigger mode: 4
Integration Time (sec): 9.000000E-1
Scans to average: 1
Electric dark correction enabled: true
Nonlinearity correction enabled: false
Boxcar width: 0
XAxis mode: Wavelengths
Number of Pixels in Spectrum: 3648
>>>>>Begin Spectral Data<<<<<
345.52	-1060.68
345.736	-1060.68
345.952	-1060.68
346.168	-1005.38
346.384	-954.18
346.6	-149.33
346.816	-259.92
347.032	-243.54
347.248	311.46
347.464	-188.24
347.68	-186.19
347.896	90.28
348.112	391.33
348.328	-26.45
348.544	-81.75
348.76	73.9
348.975	268.45
349.191	-218.96
349.407	-161.62
349.623	24.75
349.839	-28.5
350.055	-94.04
350.27	14.51
350.486	207.02
350.702	364.71
350.918	252.07
351.133	-268.11
351.349	252.07
351.565	456.87
351.781	-173.91
351.996	41.13
352.212	243.88
352.428	-159.57
352.644	-202.58
352.859	-208.72
353.075	340.13
353.291	75.95
353.506	-51.03
353.722	-317.26
353.938	-28.5
354.153	379.04
354.369	51.37
354.584	-208.72
354.8	182.44
355.016	-309.07
355.231	-120.66
355.447	-81.75
355.662	92.33
355.878	784.54
356.093	-317.26
356.309	-18.26
356.524	-180.05
356.74	270.5
356.955	-141.14
357.171	-32.6
357.386	209.06
357.602	-184.15
357.817	-122.71
358.033	-128.85
358.248	450.72
358.464	198.82
358.679	-51.03
358.895	-323.41
359.11	-57.17
359.325	293.03
359.541	18.6
359.756	82.09
359.972	-259.92
360.187	221.35
360.402	-184.15
360.618	-124.76
360.833	1101.98
361.048	227.5
361.264	-167.76
361.479	12.46
361.694	41.13
361.909	188.58
362.125	-233.3
362.34	-124.76
362.555	264.36
362.77	90.28
362.986	-257.87
363.201	-139.09
363.416	252.07
363.631	45.23
363.847	-194.39
364.062	-139.09
364.277	182.44
364.492	151.72
364.707	-161.62
364.922	-382.8
365.138	295.08
365.353	452.77
365.568	-212.82
365.783	-73.56
365.998	131.24
366.213	577.7
366.428	-167.76
366.643	20.65
366.858	237.74
367.073	176.3
367.288	-104.28
367.503	-257.87
367.718	77.99
367.933	319.65
368.148	-270.16
368.363	-46.93
368.578	34.99
368.793	456.87
369.008	-98.13
369.223	-208.72
369.438	225.45
369.653	417.96
369.868	-261.97
370.083	-192.34
370.298	114.86
370.513	454.82
370.728	-10.07
370.943	-116.56
371.157	-173.91
371.372	587.94
371.587	-239.44
371.802	-280.4
372.017	-3.93
372.232	446.63
372.446	-5.97
372.661	-294.74
372.876	245.93
373.091	151.72
373.306	-114.52
373.52	-239.44
373.735	-192.34
373.95	411.81
374.165	-130.9
374.379	-124.76
374.594	-118.61
374.809	123.05
375.023	59.56
375.238	-231.25
375.453	223.4
375.667	-149.33
375.882	-159.57
376.097	-175.95
376.311	61.61
376.526	123.05
376.741	-233.3
376.955	213.16
377.17	454.82
377.384	563.36
377.599	-30.55
377.813	-198.48
378.028	512.16
378.242	161.96
378.457	-51.03
378.672	-397.14
378.886	118.95
379.101	57.51
379.315	-345.94
379.53	-192.34
379.744	211.11
379.958	250.02
380.173	-106.32
380.387	-221.01
380.602	233.64
380.816	-89.94
381.031	-171.86
381.245	-89.94
381.459	260.26
381.674	1867.92
381.888	-143.19
382.103	143.53
382.317	-266.07
382.531	491.68
382.746	-63.32
382.96	-180.05
383.174	-63.32
383.388	450.72
383.603	69.8
383.817	-194.39
384.031	125.1
384.246	452.77
384.46	-28.5
384.674	358.57
384.888	53.42
385.103	4.27
385.317	-307.02
385.531	22.7
385.745	366.76
385.959	338.09
386.174	-139.09
386.388	-266.07
386.602	125.1
386.816	-114.52
387.03	-110.42
387.244	-145.24
387.458	90.28
387.672	385.19
387.887	-280.4
388.101	-225.11
388.315	417.96
388.529	157.86
388.743	-139.09
388.957	-178
389.171	387.24
389.385	-120.66
389.599	-120.66
389.813	100.52
390.027	258.21
390.241	657.57
390.455	-63.32
390.669	-98.13
390.883	16.55
391.097	452.77
391.311	45.23
391.525	-163.67
391.738	188.58
391.952	219.3
392.166	55.47
392.38	-147.28
392.594	241.83
392.808	352.42
393.022	-42.84
393.236	-130.9
393.449	188.58
393.663	178.34
393.877	-266.07
394.091	-126.8
394.305	-46.93
394.518	-110.42
394.732	-229.2
394.946	8.36
395.16	364.71
395.373	92.33
395.587	-255.83
395.801	-175.95
396.015	360.61
396.228	239.78
396.442	-245.59
396.656	-378.7
396.869	278.69
397.083	493.73
397.297	-61.27
397.51	-130.9
397.724	448.68
397.938	164.01
398.151	-380.75
398.365	-237.39
398.578	225.45
398.792	518.31
399.005	-20.31
399.219	-186.19
399.433	192.68
399.646	256.17
399.86	-8.02
400.073	137.38
400.287	204.97
400.5	-1.88
400.714	-51.03
400.927	14.51
401.141	198.82
401.354	1079.45
401.567	268.45
401.781	-237.39
401.994	420
402.208	573.6
402.421	-89.94
402.635	-96.08
402.848	92.33
403.061	395.43
403.275	-20.31
403.488	-159.57
403.701	485.54
403.915	237.74
404.128	57.51
404.341	-126.8
404.555	270.5
404.768	26.79
404.981	63.66
405.195	-173.91
405.408	487.59
405.621	217.26
405.834	20.65
406.048	-235.35
406.261	559.27
406.474	444.58
406.687	-218.96
406.9	47.27
407.114	123.05
407.327	196.78
407.54	-300.88
407.753	-288.59
407.966	-116.56
408.179	276.65
408.392	-151.38
408.605	-300.88
408.819	182.44
409.032	188.58
409.245	-235.35
409.458	-8.02
409.671	227.5
409.884	245.93
410.097	-253.78
410.31	75.95
410.523	280.74
410.736	77.99
410.949	-61.27
411.162	-40.79
411.375	444.58
411.588	286.89
411.801	47.27
412.014	-206.67
412.227	4.27
412.44	-38.74
412.653	-135
412.865	-16.21
413.078	329.89
413.291	303.27
413.504	-75.6
413.717	-221.01
413.93	352.42
414.143	-104.28
414.356	-83.8
414.568	-280.4
414.781	319.65
414.994	227.5
415.207	-22.36
415.42	-8.02
415.632	323.75
415.845	508.07
416.058	-261.97
416.271	-237.39
416.483	86.19
416.696	526.5
416.909	-180.05
417.121	-98.13
417.334	182.44
417.547	598.18
417.759	-202.58
417.972	-145.24
418.185	-40.79
418.397	241.83
418.61	-114.52
418.823	-98.13
419.035	546.98
419.248	69.8
419.46	-53.08
419.673	-18.26
419.885	204.97
420.098	98.47
420.311	-55.12
420.523	-360.27
420.736	319.65
420.948	155.82
421.161	-87.89
421.373	-323.41
421.586	227.5
421.798	-55.12
422.01	-282.45
422.223	-28.5
422.435	-106.32
422.648	301.22
422.86	-130.9
423.073	-114.52
423.285	424.1
423.497	-114.52
423.71	-147.28
423.922	-159.57
424.134	233.64
424.347	530.59
424.559	24.75
424.771	127.14
424.984	59.56
425.196	235.69
425.408	-270.16
425.621	-178
425.833	379.04
426.045	420
426.257	-214.87
426.47	-128.85
426.682	200.87
426.894	225.45
427.106	-48.98
427.318	-14.17
427.531	-40.79
427.743	385.19
427.955	-128.85
428.167	370.85
428.379	225.45
428.591	155.82
428.804	-73.56
429.016	-110.42
429.228	94.38
429.44	286.89
429.652	69.8
429.864	-171.86
430.076	41.13
430.288	69.8
430.5	-69.46
430.712	39.08
430.924	422.05
431.136	127.14
431.348	-253.78
431.56	-208.72
431.772	114.86
431.984	34.99
432.196	-186.19
432.408	-73.56
432.62	84.14
432.832	164.01
433.044	223.4
433.256	-24.4
433.468	278.69
433.679	-145.24
433.891	-149.33
434.103	123.05
434.315	467.11
434.527	397.48
434.739	-32.6
434.95	-55.12
435.162	327.85
435.374	77.99
435.586	-12.12
435.798	-114.52
436.009	-61.27
436.221	47.27
436.433	-89.94
436.645	-63.32
436.856	28.84
437.068	467.11
437.28	-81.75
437.491	250.02
437.703	229.54
437.915	360.61
438.126	-57.17
438.338	137.38
438.55	219.3
438.761	315.56
438.973	-69.46
439.184	-24.4
439.396	166.06
439.608	352.42
439.819	-221.01
440.031	39.08
440.242	389.28
440.454	280.74
440.665	37.03
440.877	32.94
441.088	270.5
441.3	106.67
441.511	-188.24
441.723	-77.65
441.934	325.8
442.146	198.82
442.357	51.37
442.569	219.3
442.78	254.12
442.991	555.17
443.203	323.75
443.414	-40.79
443.626	553.12
443.837	-8.02
444.048	-147.28
444.26	-214.87
444.471	192.68
444.682	393.38
444.894	-284.5
445.105	-126.8
445.316	422.05
445.528	227.5
445.739	26.79
445.95	-24.4
446.161	327.85
446.373	458.92
446.584	-28.5
446.795	34.99
447.006	415.91
447.217	589.99
447.429	-192.34
447.64	-155.47
447.851	467.11
448.062	200.87
448.273	-161.62
448.484	-81.75
448.695	327.85
448.907	157.86
449.118	77.99
449.329	262.31
449.54	135.34
449.751	-40.79
449.962	-18.26
450.173	-14.17
450.384	450.72
450.595	452.77
450.806	-91.99
451.017	67.75
451.228	600.23
451.439	493.73
451.65	41.13
451.861	-296.78
452.072	37.03
452.283	241.83
452.494	209.06
452.705	16.55
452.915	641.18
453.126	331.94
453.337	51.37
453.548	-104.28
453.759	499.88
453.97	727.2
454.181	338.09
454.391	-44.88
454.602	223.4
454.813	454.82
455.024	32.94
455.235	41.13
455.445	303.27
455.656	374.95
455.867	239.78
456.078	-28.5
456.288	190.63
456.499	340.13
456.71	2.22
456.921	295.08
457.131	401.57
457.342	286.89
457.553	45.23
457.763	82.09
457.974	407.72
458.184	524.45
458.395	59.56
458.606	-30.55
458.816	598.18
459.027	737.44
459.237	135.34
459.448	-102.23
459.659	626.85
459.869	841.89
460.08	-120.66
460.29	225.45
460.501	780.45
460.711	196.78
460.922	-75.6
461.132	43.18
461.343	1040.54
461.553	65.71
461.764	41.13
461.974	90.28
462.184	592.03
462.395	516.26
462.605	188.58
462.816	24.75
463.026	428.2
463.236	657.57
463.447	61.61
463.657	86.19
463.867	606.37
464.078	250.02
464.288	133.29
464.498	135.34
464.709	395.43
464.919	317.61
465.129	239.78
465.339	92.33
465.55	532.64
465.76	563.36
465.97	200.87
466.18	102.57
466.391	622.75
466.601	528.55
466.811	262.31
467.021	53.42
467.231	651.42
467.441	669.86
467.651	239.78
467.862	-22.36
468.072	352.42
468.282	819.36
468.492	192.68
468.702	215.21
468.912	475.3
469.122	1044.63
469.332	620.71
469.542	139.43
469.752	618.66
469.962	532.64
470.172	157.86
470.382	331.94
470.592	716.96
470.802	774.3
471.012	417.96
471.222	284.84
471.432	805.02
471.642	721.06
471.852	460.96
472.062	221.35
472.272	538.79
472.482	354.47
472.691	290.98
472.901	276.65
473.111	587.94
473.321	1155.23
473.531	239.78
473.741	444.58
473.95	766.11
474.16	737.44
474.37	540.83
474.58	241.83
474.79	1073.31
474.999	970.91
475.209	260.26
475.419	395.43
475.628	632.99
475.838	1024.16
476.048	526.5
476.258	303.27
476.467	1038.49
476.677	612.51
476.886	616.61
477.096	495.78
477.306	659.62
477.515	1073.31
477.725	557.22
477.935	551.07
478.144	1087.64
478.354	702.62
478.563	669.86
478.773	553.12
478.982	977.05
479.192	1124.51
479.401	616.61
479.611	450.72
479.82	589.99
480.03	913.56
480.239	579.75
480.449	475.3
480.658	1390.74
480.868	753.82
481.077	723.1
481.287	667.81
481.496	1054.87
481.705	1241.24
481.915	995.48
482.124	1001.63
482.333	950.43
482.543	1368.21
482.752	845.98
482.961	745.63
483.171	1194.14
483.38	1036.44
483.589	825.5
483.799	688.29
484.008	1140.89
484.217	1241.24
484.426	798.88
484.636	819.36
484.845	1171.61
485.054	807.07
485.263	1194.14
485.472	856.22
485.682	1618.07
485.891	1167.51
486.1	807.07
486.309	983.2
486.518	1298.58
486.727	1521.81
486.936	884.89
487.146	1081.5
487.355	1570.96
487.564	1065.11
487.773	1042.59
487.982	987.29
488.191	1214.62
488.4	1294.49
488.609	1104.03
488.818	1108.12
489.027	1806.48
489.236	1650.83
489.445	1183.9
489.654	1067.16
489.863	1601.68
490.072	1317.01
490.281	1464.47
490.49	1128.6
490.698	1669.27
490.907	1781.9
491.116	1212.57
491.325	983.2
491.534	1751.18
491.743	1548.44
491.952	1202.33
492.16	1271.96
492.369	1519.76
492.578	1763.47
492.787	1382.55
492.996	1077.4
493.204	1310.87
493.413	1958.03
493.622	1052.83
493.831	1067.16
494.039	1990.8
494.248	1321.11
494.457	1257.62
494.665	1253.53
494.874	1808.53
495.083	2107.53
495.291	1480.85
495.5	1194.14
495.709	1867.92
495.917	1747.09
496.126	1536.15
496.335	1437.84
496.543	1589.39
496.752	1835.15
496.96	1704.08
497.169	1231
497.377	1693.84
497.586	1990.8
497.794	1605.78
498.003	1224.86
498.211	1753.23
498.42	2191.5
498.628	1593.49
498.837	1589.39
499.045	1955.98
499.254	1859.73
499.462	1474.71
499.671	1554.58
499.879	2211.98
500.087	1839.25
500.296	1599.63
500.504	1656.98
500.713	2009.23
500.921	2435.21
501.129	1556.63
501.338	1566.87
501.546	2062.48
501.754	1933.45
501.962	1636.5
502.171	1638.55
502.379	2195.59
502.587	2498.69
502.795	1812.62
503.004	1753.23
503.212	2162.83
503.42	2293.9
503.628	1761.42
503.837	1867.92
504.045	2312.33
504.253	2603.14
504.461	1951.88
504.669	1616.02
504.877	2332.81
505.085	2408.58
505.294	1671.31
505.502	2085
505.71	2252.94
505.918	2281.61
506.126	1777.81
506.334	1798.29
506.542	2066.57
506.75	2297.99
506.958	1958.03
507.166	2007.18
507.374	2097.29
507.582	2678.91
507.79	2046.09
507.998	2017.42
508.206	2486.4
508.414	2304.14
508.622	1947.79
508.83	2117.77
509.037	2728.07
509.245	2123.91
509.453	2007.18
509.661	2035.85
509.869	2644.1
510.077	2291.85
510.285	2265.22
510.492	1857.68
510.7	2797.7
510.908	2318.47
511.116	2148.49
511.324	2193.55
511.531	2345.09
511.739	2478.21
511.947	2334.86
512.155	2564.23
512.362	2433.16
512.57	2287.75
512.778	2130.06
512.985	2072.72
513.193	2789.5
513.401	2850.94
513.608	2316.42
513.816	2216.07
514.024	2662.53
514.231	2805.89
514.439	2277.51
514.646	2240.65
514.854	2791.55
515.061	2855.04
515.269	2293.9
515.477	2361.48
515.684	2394.25
515.892	2793.6
516.099	2214.02
516.307	2203.79
516.514	2902.14
516.722	3135.61
516.929	2553.99
517.136	2367.62
517.344	3084.41
517.551	2947.2
517.759	2484.36
517.966	2601.09
518.173	2703.49
518.381	2826.37
518.588	2570.37
518.796	2379.91
519.003	3219.58
519.21	2830.46
519.418	2523.27
519.625	2830.46
519.832	2828.42
520.039	3049.6
520.247	2474.12
520.454	2654.34
520.661	3156.09
520.868	3063.93
521.076	2592.9
521.283	2828.42
521.49	3627.12
521.697	3160.19
521.904	2812.03
522.112	2769.02
522.319	3229.82
522.526	3096.7
522.733	2640
522.94	2750.59
523.147	3035.26
523.354	3223.67
523.561	2711.68
523.768	2967.68
523.975	3391.61
524.183	2994.3
524.39	2986.11
524.597	2748.54
524.804	3108.99
525.011	3033.21
525.218	2787.46
525.425	2715.78
525.632	3526.77
525.838	2971.77
526.045	2920.57
526.252	2918.53
526.459	4388.97
526.666	3936.37
526.873	3045.5
527.08	2932.86
527.287	3735.67
527.494	3530.87
527.701	3108.99
527.907	3043.45
528.114	3629.17
528.321	3317.88
528.528	3209.34
528.735	3049.6
528.941	3266.68
529.148	3289.21
529.355	3217.53
529.562	3195
529.768	3862.64
529.975	3446.9
530.182	3307.64
530.388	3111.04
530.595	3704.95
530.802	3440.76
531.008	3436.66
531.215	3256.44
531.422	4001.9
531.628	4374.63
531.835	3410.04
532.042	3442.81
532.248	3545.2
532.455	3786.86
532.661	3436.66
532.868	3319.93
533.074	3688.56
533.281	3993.71
533.487	3596.4
533.694	3442.81
533.9	3453.05
534.107	3838.06
534.313	3407.99
534.52	3317.88
534.726	4038.77
534.933	4261.99
535.139	3416.18
535.345	3356.79
535.552	4087.92
535.758	4063.34
535.965	3682.42
536.171	3590.26
536.377	4337.77
536.584	4307.05
536.79	3647.6
536.996	3754.1
537.203	3940.46
537.409	4034.67
537.615	3760.24
537.821	3948.65
538.028	4202.6
538.234	4284.52
538.44	3903.6
538.646	3891.31
538.853	4210.79
539.059	3979.37
539.265	4395.11
539.471	3678.32
539.677	4268.14
539.883	3991.66
540.09	3952.75
540.296	4448.36
540.502	4313.19
540.708	3985.52
540.914	4104.3
541.12	3991.66
541.326	4507.75
541.532	4388.97
541.738	4188.27
541.944	3956.85
542.15	4714.59
542.356	4472.93
542.562	4100.2
542.768	4126.83
542.974	5007.45
543.18	4884.58
543.386	4106.35
543.592	4032.62
543.798	4728.93
544.004	4816.99
544.21	4208.75
544.415	4366.44
544.621	4780.13
544.827	4776.03
545.033	4261.99
545.239	4499.56
545.445	4403.3
545.651	4784.23
545.856	4511.85
546.062	4442.21
546.268	4485.22
546.474	4550.76
546.679	4362.34
546.885	4483.17
547.091	4554.85
547.297	5054.56
547.502	4622.44
547.708	4237.42
547.914	4495.46
548.119	5013.6
548.325	4368.49
548.531	4327.53
548.736	5251.16
548.942	4620.39
549.147	4481.13
549.353	4810.85
549.559	5167.2
549.764	4886.62
549.97	4573.28
550.175	4649.06
550.381	4929.63
550.586	4708.45
550.792	4755.55
550.997	4626.53
551.203	5169.24
551.408	5072.99
551.614	4665.44
551.819	4749.41
552.025	5562.45
552.23	5517.4
552.435	4698.21
552.641	4855.9
552.846	4984.93
553.052	5486.68
553.257	5056.61
553.462	4843.62
553.668	5050.46
553.873	5650.52
554.078	4864.1
554.283	4989.02
554.489	5175.39
554.694	5281.88
554.899	5089.37
555.105	5245.02
555.31	5431.38
555.515	5589.08
555.72	5167.2
555.925	5116
556.131	5802.07
556.336	5361.75
556.541	5009.5
556.746	5023.84
556.951	5767.25
557.156	5685.33
557.361	5302.36
557.567	5189.72
557.772	6125.65
557.977	5572.69
558.182	5283.93
558.387	5236.83
558.592	5570.65
558.797	5892.18
559.002	5451.86
559.207	5646.42
559.412	5550.17
559.617	6189.13
559.822	5371.99
560.027	5273.69
560.232	5699.67
560.437	5886.03
560.642	5091.42
560.847	5417.05
561.051	5757.01
561.256	5789.78
561.461	5458.01
561.666	5347.42
561.871	5744.72
562.076	5990.48
562.281	5527.64
562.485	5507.16
562.69	6068.3
562.895	6000.72
563.1	5646.42
563.305	5435.48
563.509	6178.89
563.714	6477.9
563.919	5597.27
564.123	5701.72
564.328	5918.8
564.533	6324.3
564.737	5703.76
564.942	5771.35
565.147	6537.29
565.351	6443.08
565.556	5808.21
565.761	5918.8
565.965	6074.45
566.17	5939.28
566.374	5763.15
566.579	5933.14
566.784	6182.99
566.988	6019.15
567.193	5554.26
567.397	5746.77
567.602	5777.49
567.806	6111.31
568.011	5730.39
568.215	6021.2
568.42	6260.81
568.624	6330.44
568.828	5990.48
569.033	6197.32
569.237	6492.23
569.442	6398.03
569.646	5822.55
569.85	6088.78
570.055	6557.77
570.259	6600.77
570.463	6330.44
570.668	6258.76
570.872	6326.35
571.076	6363.21
571.281	6277.19
571.485	6242.38
571.689	6398.03
571.893	6781
572.098	6467.66
572.302	6258.76
572.506	6645.83
572.71	6713.41
572.914	6369.35
573.119	6281.29
573.323	7118.91
573.527	6946.88
573.731	6500.42
573.935	6219.85
574.139	6832.19
574.343	6475.85
574.547	6457.42
574.751	6506.57
574.955	6967.36
575.159	6934.59
575.364	6533.19
575.568	6264.91
575.772	6809.67
575.976	7075.9
576.18	6537.29
576.383	6453.32
576.587	7102.53
576.791	6950.98
576.995	6570.05
577.199	6627.4
577.403	7288.89
577.607	7282.75
577.811	6764.61
578.015	6619.21
578.219	7080
578.422	7348.28
578.626	6811.71
578.83	6854.72
579.034	7258.17
579.238	7166.01
579.442	6758.47
579.645	7241.79
579.849	7233.6
580.053	7389.24
580.257	6922.31
580.46	7065.66
580.664	7604.28
580.868	7389.24
581.071	7284.8
581.275	7190.59
581.479	6946.88
581.682	7538.74
581.886	6864.96
582.09	7241.79
582.293	7528.5
582.497	7532.6
582.7	7391.29
582.904	7069.76
583.107	7489.59
583.311	7467.06
583.515	7340.09
583.718	7413.82
583.922	7714.87
584.125	8056.88
584.329	7082.05
584.532	7544.89
584.735	7989.3
584.939	7612.47
585.142	7053.38
585.346	7315.52
585.549	8036.4
585.753	7684.15
585.956	7311.42
586.159	7503.93
586.363	8265.77
586.566	7866.42
586.769	7397.43
586.973	7399.48
587.176	7913.52
587.379	7970.87
587.582	7819.32
587.786	7702.58
587.989	7835.7
588.192	8620.07
588.395	7782.45
588.599	7901.23
588.802	8138.8
589.005	7974.96
589.208	7651.38
589.411	7721.01
589.615	8257.58
589.818	8536.1
590.021	7911.47
590.224	8056.88
590.427	8331.31
590.63	8235.05
590.833	7753.78
591.036	7725.11
591.239	8110.13
591.442	7954.48
591.645	8042.54
591.848	8017.97
592.051	8421.42
592.254	8495.15
592.457	8011.82
592.66	8079.41
592.863	8390.7
593.066	8384.55
593.269	8001.58
593.472	8151.09
593.675	8359.98
593.878	8769.57
594.081	8290.35
594.284	7977.01
594.486	8577.06
594.689	8585.26
594.892	8286.25
595.095	8355.88
595.298	8779.81
595.5	8341.55
595.703	8718.37
595.906	8470.57
596.109	9070.62
596.311	9109.54
596.514	8134.7
596.717	8556.58
596.92	9033.76
597.122	8851.49
597.325	8144.94
597.528	8425.51
597.73	9170.97
597.933	8972.32
598.136	8783.91
598.338	8347.69
598.541	8925.22
598.743	9226.27
598.946	8654.89
599.148	8826.92
599.351	9263.13
599.554	9160.73
599.756	9127.97
599.959	8771.62
600.161	9322.52
600.363	9777.17
600.566	9046.05
600.768	8935.46
600.971	9605.14
601.173	9410.59
601.376	8816.68
601.578	9056.29
601.78	9289.76
601.983	9902.1
602.185	8968.23
602.388	9318.43
602.59	9254.94
602.792	9146.4
602.995	9306.14
603.197	8982.56
603.399	9484.31
603.601	9424.92
603.804	9150.5
604.006	8896.55
604.208	9179.17
604.41	8890.4
604.613	9236.51
604.815	9056.29
605.017	9973.78
605.219	9269.28
605.421	9496.6
605.623	9236.51
605.826	9967.63
606.028	9855
606.23	9285.66
606.432	9314.33
606.634	9928.72
606.836	10065.94
607.038	9322.52
607.24	9582.62
607.442	9707.54
607.644	9682.97
607.846	9445.4
608.048	9242.65
608.25	10113.04
608.452	9674.78
608.654	9482.27
608.856	9426.97
609.058	9707.54
609.26	9857.04
609.462	9670.68
609.664	9572.38
609.866	10125.33
610.067	10158.1
610.269	9707.54
610.471	9642.01
610.673	9707.54
610.875	10100.75
611.077	9525.27
611.278	9748.5
611.48	9805.85
611.682	10244.11
611.884	9687.06
612.085	9682.97
612.287	9703.45
612.489	10145.81
612.69	9625.62
612.892	9592.86
613.094	10428.43
613.295	10020.88
613.497	9422.87
613.699	9834.52
613.9	10293.26
614.102	10410
614.304	9984.02
614.505	9717.78
614.707	10151.95
614.908	10244.11
615.11	9504.79
615.311	10065.94
615.513	10469.39
615.714	10373.13
615.916	10008.59
616.117	10000.4
616.319	10244.11
616.52	10582.03
616.722	9809.94
616.923	9920.53
617.124	10622.98
617.326	10428.43
617.527	10039.31
617.729	10434.57
617.93	10410
618.131	10635.27
618.333	10199.06
618.534	10414.09
618.735	10194.96
618.937	10653.7
619.138	10061.84
619.339	10201.1
619.54	10633.22
619.742	10444.81
619.943	10272.78
620.144	10119.18
620.345	10743.81
620.546	10670.09
620.748	10326.03
620.949	10403.85
621.15	10633.22
621.351	10536.97
621.552	10219.53
621.753	10203.15
621.954	10311.69
622.155	10979.33
622.356	10158.1
622.558	10582.03
622.759	10633.22
622.96	11347.97
623.161	10512.39
623.362	10536.97
623.563	10862.6
623.764	10729.48
623.965	10584.07
624.166	10713.1
624.366	10950.66
624.567	10870.79
624.768	10446.86
624.969	10516.49
625.17	10795.01
625.371	10960.9
625.572	10612.74
625.773	10561.55
625.973	11089.92
626.174	11143.17
626.375	10645.51
626.576	10833.93
626.777	11268.09
626.977	11501.56
627.178	10735.62
627.379	10725.38
627.58	11255.81
627.78	11270.14
627.981	10940.42
628.182	10821.64
628.382	11231.23
628.583	10901.51
628.784	10749.96
628.984	10917.89
629.185	11407.36
629.386	11386.88
629.586	10965
629.787	10997.76
629.987	11204.61
630.188	11249.66
630.388	11186.18
630.589	10987.52
630.79	11982.84
630.99	11421.69
631.191	11153.41
631.391	11204.61
631.591	11470.84
631.792	11769.85
631.992	11347.97
632.193	11091.97
632.393	11749.37
632.594	11333.63
632.794	10883.08
632.994	11065.35
633.195	11360.25
633.395	11450.36
633.595	11278.33
633.796	11470.84
633.996	11464.7
634.196	11771.9
634.397	11102.21
634.597	11347.97
634.797	11327.49
634.997	11847.67
635.198	11696.12
635.398	11175.94
635.598	11757.56
635.798	12062.71
635.998	11804.66
636.199	11276.29
636.399	11560.95
636.599	11757.56
636.799	11515.9
636.999	11663.35
637.199	11864.05
637.399	12118
637.599	11409.4
637.799	11528.19
637.999	11657.21
638.199	12232.69
638.399	11528.19
638.599	11491.32
638.799	12204.02
638.999	12326.89
639.199	11935.73
639.399	11905.01
639.599	12472.3
639.799	11679.74
639.999	11706.36
640.199	11796.47
640.399	12173.3
640.599	11931.64
640.799	11855.86
640.998	11855.86
641.198	12314.61
641.398	12378.09
641.598	11849.72
641.798	12054.51
641.997	13223.9
642.197	11925.49
642.397	12058.61
642.597	11823.09
642.796	12566.51
642.996	12484.59
643.196	12060.66
643.395	11741.18
643.595	12369.9
643.795	11960.31
643.994	12070.9
644.194	12214.26
644.394	12554.22
644.593	12533.74
644.793	11798.52
644.992	12509.16
645.192	12431.34
645.392	11913.2
645.591	12222.45
645.791	12029.94
645.99	12468.2
646.19	12543.98
646.389	12556.27
646.589	12292.08
646.788	12658.67
646.987	12617.71
647.187	12429.29
647.386	12582.89
647.586	12541.93
647.785	12830.69
647.984	12406.77
648.184	12470.25
648.383	12570.6
648.582	12679.15
648.782	12589.03
648.981	12486.64
649.18	12435.44
649.38	12795.88
649.579	12605.42
649.778	12627.95
649.977	13025.25
650.177	13117.41
650.376	12462.06
650.575	12306.41
650.774	13090.79
650.973	12623.85
651.173	12349.42
651.372	12718.06
651.571	12916.71
651.77	13135.84
651.969	12582.89
652.168	12691.43
652.367	12425.2
652.566	13082.6
652.765	12875.75
652.964	13090.79
653.163	13565.92
653.362	13123.55
653.561	12722.15
653.76	12808.17
653.959	13006.82
654.158	13567.96
654.357	12986.34
654.556	12879.85
654.755	13305.82
654.954	13381.6
655.153	12879.85
655.352	13033.44
655.551	13520.86
655.749	13035.49
655.948	13066.21
656.147	13203.43
656.346	13330.4
656.545	13289.44
656.743	13090.79
656.942	13217.76
657.141	13387.74
657.34	13131.75
657.538	13027.3
657.737	13131.75
657.936	13475.81
658.135	13350.88
658.333	13109.22
658.532	13613.02
658.731	13713.37
658.929	13469.66
659.128	13389.79
659.326	13031.4
659.525	13946.84
659.724	13561.82
659.922	13006.82
660.121	13070.31
660.319	13633.5
660.518	13137.89
660.716	12969.96
660.915	13250.53
661.113	14020.56
661.312	13221.86
661.51	13682.65
661.709	13201.38
661.907	13639.64
662.105	13930.45
662.304	13729.75
662.502	13600.73
662.701	14057.43
662.899	13494.24
663.097	13897.69
663.296	13281.25
663.494	14075.86
663.692	14039
663.891	13610.97
664.089	13529.05
664.287	14018.52
664.485	14172.11
664.684	13617.11
664.882	13613.02
665.08	13987.8
665.278	14063.57
665.476	13604.83
665.675	13866.97
665.873	14223.31
666.071	14141.39
666.269	13459.42
666.467	13893.59
666.665	13856.73
666.863	13737.95
667.061	13553.63
667.259	13600.73
667.457	13891.54
667.655	13821.91
667.853	13539.29
668.051	13842.39
668.249	13627.35
668.447	14366.67
668.645	13576.16
668.843	13916.12
669.041	14127.06
669.239	13948.89
669.437	13914.07
669.635	13926.36
669.833	13787.1
670.031	14039
670.229	13721.56
670.426	13866.97
670.624	13903.83
670.822	13916.12
671.02	13961.17
671.218	13901.78
671.415	14043.09
671.613	13977.56
671.811	13885.4
672.009	14243.79
672.206	14403.53
672.404	14127.06
672.602	14215.12
672.799	14051.28
672.997	14276.56
673.195	14393.3
673.392	14211.03
673.59	13760.47
673.788	14276.56
673.985	13610.97
674.183	14149.59
674.38	13991.89
674.578	14544.84
674.775	14069.72
674.973	13942.74
675.17	13682.65
675.368	14417.87
675.565	14184.4
675.763	14213.07
675.96	13961.17
676.158	14495.69
676.355	14036.95
676.553	14118.87
676.75	14112.72
676.947	14413.77
677.145	14311.38
677.342	14147.54
677.539	14178.26
677.737	14505.93
677.934	14579.66
678.131	14241.75
678.329	14106.58
678.526	14637
678.723	14346.19
678.92	14133.2
679.118	14092.24
679.315	13879.25
679.512	14620.62
679.709	14133.2
679.906	14086.1
680.104	14512.08
680.301	14403.53
680.498	13885.4
680.695	14022.61
680.892	14194.64
681.089	14131.16
681.286	14284.75
681.483	13946.84
681.68	14497.74
681.877	14579.66
682.075	14096.34
682.272	14208.98
682.469	14409.68
682.665	13987.8
682.862	13795.29
683.059	13942.74
683.256	14536.65
683.453	14235.6
683.65	14020.56
683.847	14184.4
684.044	14428.11
684.241	14024.66
684.438	14524.37
684.635	14329.81
684.831	14960.58
685.028	15114.18
685.225	14196.69
685.422	14573.52
685.619	14227.41
685.815	14192.59
686.012	14413.77
686.209	14274.51
686.405	14305.23
686.602	14606.28
686.799	13955.03
686.996	14196.69
687.192	14155.73
687.389	14548.94
687.586	14043.09
687.782	14467.02
687.979	14815.18
688.175	14725.07
688.372	14217.17
688.568	14163.92
688.765	14364.62
688.962	14413.77
689.158	14477.26
689.355	13942.74
689.551	14446.54
689.748	14409.68
689.944	14155.73
690.14	14059.48
690.337	14602.19
690.533	14483.41
690.73	14217.17
690.926	14350.29
691.123	14553.04
691.319	14393.3
691.515	14258.13
691.712	14299.09
691.908	14618.57
692.104	14817.22
692.301	14344.14
692.497	14131.16
692.693	14782.41
692.889	14614.48
693.086	14475.21
693.282	14010.32
693.478	14450.64
693.674	15003.59
693.87	14520.27
694.067	14196.69
694.263	14565.32
694.459	14546.89
694.655	14606.28
694.851	14573.52
695.047	14639.05
695.243	14694.35
695.439	14364.62
695.635	14178.26
695.831	14524.37
696.027	14374.86
696.224	14254.03
696.42	14729.16
696.615	15099.84
696.811	14739.4
697.007	14163.92
697.203	14356.43
697.399	14684.11
697.595	14743.5
697.791	14069.72
697.987	14419.92
698.183	14145.49
698.379	14356.43
698.575	14319.57
698.77	14622.67
698.966	14538.7
699.162	14778.31
699.358	14112.72
699.554	14407.63
699.749	14806.98
699.945	14645.2
700.141	14219.22
700.337	14399.44
700.532	14442.45
700.728	14493.65
700.924	14440.4
701.119	14110.68
701.315	14626.76
701.511	14424.01
701.706	14634.96
701.902	14165.97
702.097	14231.51
702.293	14858.18
702.489	14292.94
702.684	14479.31
702.88	14886.86
703.075	14436.3
703.271	14321.62
703.466	14254.03
703.662	14395.34
703.857	14616.52
704.053	14407.63
704.248	14325.71
704.443	14974.92
704.639	14823.37
704.834	14475.21
705.03	14247.89
705.225	14800.84
705.42	14921.67
705.616	14381.01
705.811	14442.45
706.006	14456.78
706.202	14577.61
706.397	14680.01
706.592	14249.94
706.787	14673.87
706.983	14512.08
707.178	14997.45
707.373	14514.13
707.568	14753.74
707.763	14870.47
707.959	14333.9
708.154	14292.94
708.349	14606.28
708.544	14778.31
708.739	14575.56
708.934	14370.77
709.129	14890.95
709.324	14933.96
709.519	14260.18
709.714	14491.6
709.909	14884.81
710.104	14632.91
710.299	14497.74
710.494	14424.01
710.689	14757.83
710.884	14725.07
711.079	14438.35
711.274	14694.35
711.469	14708.68
711.664	15011.78
711.859	14299.09
712.054	14708.68
712.249	14798.79
712.443	14985.16
712.638	14307.28
712.833	14292.94
713.028	14694.35
713.223	14534.6
713.417	14755.79
713.612	14235.6
713.807	14886.86
714.002	15081.41
714.196	14591.95
714.391	14518.22
714.586	14819.27
714.78	14389.2
714.975	14438.35
715.17	14417.87
715.364	14372.82
715.559	14647.24
715.754	14303.18
715.948	14378.96
716.143	15183.81
716.337	14680.01
716.532	14725.07
716.726	14227.41
716.921	14884.81
717.115	15165.38
717.31	14225.36
717.504	15093.7
717.699	14677.96
717.893	14858.18
718.088	14137.3
718.282	14315.47
718.476	14546.89
718.671	14626.76
718.865	14120.92
719.059	14290.9
719.254	14626.76
719.448	14936.01
719.642	15751.1
719.837	14192.59
720.031	14819.27
720.225	14501.84
720.419	14272.46
720.614	14153.68
720.808	14704.59
721.002	14426.06
721.196	14157.78
721.39	14096.34
721.585	14544.84
721.779	14655.44
721.973	14227.41
722.167	13995.99
722.361	14352.34
722.555	14550.99
722.749	14149.59
722.943	14176.21
723.137	13995.99
723.331	14497.74
723.525	14137.3
723.719	14163.92
723.913	14692.3
724.107	14804.94
724.301	14016.47
724.495	14239.7
724.689	15015.88
724.883	14862.28
725.077	14364.62
725.271	14200.79
725.465	14700.49
725.659	14579.66
725.853	14411.73
726.046	14247.89
726.24	14241.75
726.434	14544.84
726.628	14370.77
726.822	14297.04
727.015	14743.5
727.209	14499.79
727.403	14299.09
727.596	14229.46
727.79	14913.48
727.984	14886.86
728.177	14165.97
728.371	14372.82
728.565	14737.35
728.758	14424.01
728.952	14270.42
729.146	14274.51
729.339	14872.52
729.533	14381.01
729.726	14276.56
729.92	14413.77
730.113	15005.64
730.307	14553.04
730.5	14163.92
730.694	14356.43
730.887	14598.09
731.081	14809.03
731.274	14223.31
731.468	14526.41
731.661	14571.47
731.854	14546.89
732.048	14409.68
732.241	14188.5
732.435	14802.89
732.628	14680.01
732.821	14571.47
733.014	14196.69
733.208	14548.94
733.401	14929.86
733.594	14557.13
733.788	14180.31
733.981	14886.86
734.174	14669.77
734.367	14276.56
734.56	14327.76
734.754	14927.81
734.947	14651.34
735.14	14346.19
735.333	14594
735.526	15024.07
735.719	14473.17
735.912	14292.94
736.105	14491.6
736.298	14774.22
736.491	14753.74
736.684	14327.76
736.877	14274.51
737.07	14645.2
737.263	14917.58
737.456	14421.97
737.649	14260.18
737.842	14876.62
738.035	14507.98
738.228	14221.27
738.421	14718.92
738.614	15157.19
738.807	14649.29
739	14434.25
739.192	14182.35
739.385	14716.87
739.578	14841.8
739.771	14741.45
739.964	14262.23
740.156	14692.3
740.349	14579.66
740.542	14626.76
740.735	14120.92
740.927	14444.49
741.12	14559.18
741.313	14116.82
741.505	14761.93
741.698	14448.59
741.891	14821.32
742.083	14596.04
742.276	14122.96
742.468	14741.45
742.661	14911.43
742.854	14450.64
743.046	14143.44
743.239	14950.34
743.431	14901.19
743.624	14546.89
743.816	14342.1
744.009	14591.95
744.201	14985.16
744.393	14634.96
744.586	14329.81
744.778	15153.09
744.971	14608.33
745.163	14540.75
745.355	14538.7
745.548	14833.61
745.74	14620.62
745.932	14381.01
746.125	14542.8
746.317	15124.42
746.509	14626.76
746.702	14444.49
746.894	14395.34
747.086	14841.8
747.278	15024.07
747.471	14524.37
747.663	14565.32
747.855	14659.53
748.047	14880.71
748.239	14489.55
748.431	14366.67
748.623	15019.97
748.815	15204.29
749.008	14417.87
749.2	14505.93
749.392	15017.93
749.584	14649.29
749.776	14968.77
749.968	14503.89
750.16	15060.93
750.352	14712.78
750.544	14297.04
750.736	14325.71
750.928	15122.37
751.12	14712.78
751.311	14538.7
751.503	14424.01
751.695	15067.08
751.887	14665.67
752.079	14065.62
752.271	14335.95
752.463	15468.48
752.654	14704.59
752.846	14376.91
753.038	14145.49
753.23	14319.57
753.421	14571.47
753.613	14266.32
753.805	14671.82
753.997	14675.91
754.188	14897.1
754.38	14260.18
754.572	14270.42
754.763	14854.09
754.955	14942.15
755.146	14329.81
755.338	14344.14
755.53	14503.89
755.721	14446.54
755.913	14055.38
756.104	14346.19
756.296	14323.66
756.487	14794.7
756.679	14268.37
756.87	14131.16
757.062	14145.49
757.253	14524.37
757.445	14000.09
757.636	14276.56
757.827	14338
758.019	14997.45
758.21	14069.72
758.401	14473.17
758.593	15103.94
758.784	14565.32
758.975	14082
759.167	14057.43
759.358	14401.49
759.549	14788.55
759.74	14028.76
759.932	14024.66
760.123	14700.49
760.314	14032.85
760.505	14235.6
760.696	13934.55
760.888	14825.42
761.079	14321.62
761.27	14004.18
761.461	13676.51
761.652	14370.77
761.843	14157.78
762.034	14376.91
762.225	14389.2
762.416	14114.77
762.607	13985.75
762.798	14073.81
762.989	14112.72
763.18	15130.56
763.371	13891.54
763.562	13864.92
763.753	13803.48
763.944	14483.41
764.135	14323.66
764.326	13885.4
764.517	13641.69
764.708	14266.32
764.899	14012.37
765.089	13707.23
765.28	13656.03
765.471	14118.87
765.662	14151.63
765.853	13823.96
766.043	13402.08
766.234	14221.27
766.425	14221.27
766.615	13817.82
766.806	13377.5
766.997	14286.8
767.187	13889.49
767.378	13783
767.569	13635.55
767.759	14108.63
767.95	13893.59
768.141	13877.21
768.331	13723.61
768.522	14120.92
768.712	14188.5
768.903	13608.92
769.093	13889.49
769.284	14149.59
769.474	13713.37
769.665	13436.89
769.855	13277.15
770.046	14000.09
770.236	13862.87
770.426	13660.12
770.617	13559.77
770.807	13649.88
770.998	13639.64
771.188	13676.51
771.378	13500.38
771.569	13993.94
771.759	13715.42
771.949	13461.47
772.139	13594.59
772.33	13578.2
772.52	14065.62
772.71	13420.51
772.9	13303.78
773.09	14223.31
773.281	14100.44
773.471	13383.65
773.661	13307.87
773.851	13848.54
774.041	13645.79
774.231	13293.54
774.421	13414.37
774.611	13807.58
774.802	13613.02
774.992	13137.89
775.182	13361.12
775.372	13438.94
775.562	13832.15
775.752	13301.73
775.942	13230.05
776.131	14012.37
776.321	13481.95
776.511	13144.03
776.701	13213.67
776.891	13594.59
777.081	13010.92
777.271	13377.5
777.461	13342.69
777.651	13574.11
777.84	13762.52
778.03	13135.84
778.22	13275.1
778.41	13873.11
778.599	13281.25
778.789	13221.86
778.979	12922.85
779.169	13527
779.358	13324.26
779.548	13563.87
779.738	12861.41
779.927	13373.41
780.117	13301.73
780.307	13058.02
780.496	12722.15
780.686	13447.13
780.875	13772.76
781.065	13238.24
781.254	12939.24
781.444	13205.47
781.633	13277.15
781.823	12744.68
782.012	12828.65
782.202	12863.46
782.391	13096.93
782.581	12664.81
782.77	12951.53
782.96	13101.03
783.149	13033.44
783.338	13008.87
783.528	12650.47
783.717	13369.31
783.906	13150.18
784.096	13088.74
784.285	12666.86
784.474	13060.07
784.663	12867.56
784.853	12709.86
785.042	12845.03
785.231	13129.7
785.42	13279.2
785.61	12883.94
785.799	12728.3
785.988	13084.64
786.177	13000.68
786.366	12693.48
786.555	12969.96
786.744	13066.21
786.933	12906.47
787.122	12787.69
787.312	12537.84
787.501	12863.46
787.69	12965.86
787.879	12566.51
788.068	12662.76
788.257	12505.07
788.445	12824.55
788.634	12541.93
788.823	12681.19
789.012	13461.47
789.201	13242.34
789.39	12527.6
789.579	12349.42
789.768	12730.34
789.957	12705.77
790.145	12603.37
790.334	12359.66
790.523	12609.51
790.712	12939.24
790.9	12484.59
791.089	12269.55
791.278	12972
791.467	12945.38
791.655	12892.13
791.844	13158.37
792.033	12582.89
792.221	12693.48
792.41	12607.47
792.599	12261.36
792.787	12965.86
792.976	12929
793.164	12283.89
793.353	12699.62
793.541	12851.17
793.73	12896.23
793.918	12417.01
794.107	12158.96
794.295	12728.3
794.484	12546.03
794.672	12386.29
794.861	12392.43
795.049	12789.74
795.238	12912.61
795.426	12296.18
795.614	12457.96
795.803	12828.65
795.991	12701.67
796.179	12279.79
796.368	12173.3
796.556	12746.73
796.744	12210.16
796.932	12013.56
797.121	11909.11
797.309	12505.07
797.497	12695.53
797.685	12359.66
797.874	12074.99
798.062	12308.46
798.25	12730.34
798.438	12240.88
798.626	12222.45
798.814	12767.21
799.002	12939.24
799.19	12357.61
799.378	12312.56
799.566	12838.89
799.755	12842.98
799.943	12410.86
800.131	12224.5
800.318	12441.58
800.506	12804.07
800.694	12034.04
800.882	12728.3
801.07	12908.52
801.258	12509.16
801.446	12353.52
801.634	12234.74
801.822	12634.09
802.01	12562.41
802.197	12269.55
802.385	12441.58
802.573	12654.57
802.761	12550.12
802.949	12197.87
803.136	12306.41
803.324	13150.18
803.512	12619.75
803.699	12392.43
803.887	12287.98
804.075	13043.68
804.262	12423.15
804.45	12388.33
804.638	12668.91
804.825	12423.15
805.013	12554.22
805.201	12443.63
805.388	12367.85
805.576	12935.14
805.763	13184.99
805.951	12603.37
806.138	12806.12
806.326	13443.04
806.513	12996.58
806.701	12746.73
806.888	12832.74
807.075	13252.58
807.263	13254.62
807.45	12503.02
807.638	12546.03
807.825	13217.76
808.012	13228
808.2	12713.96
808.387	12955.62
808.574	13131.75
808.761	13273.06
808.949	12816.36
809.136	12933.09
809.323	12838.89
809.51	13029.35
809.698	13004.77
809.885	12947.43
810.072	13025.25
810.259	13281.25
810.446	12769.26
810.633	12759.02
810.82	13164.51
811.008	13469.66
811.195	13316.06
811.382	12935.14
811.569	13234.14
811.756	12804.07
811.943	12814.31
812.13	12795.88
812.317	13139.94
812.504	13041.64
812.691	12908.52
812.878	13025.25
813.064	13324.26
813.251	13359.07
813.438	12867.56
813.625	13131.75
813.812	13062.12
813.999	12949.48
814.186	12775.4
814.372	12873.7
814.559	13076.45
814.746	13285.34
814.933	12689.39
815.12	13238.24
815.306	13045.73
815.493	12861.41
815.68	12918.76
815.866	12871.65
816.053	13627.35
816.24	13846.49
816.426	13076.45
816.613	12877.8
816.799	13475.81
816.986	13490.14
817.173	12836.84
817.359	12881.89
817.546	13340.64
817.732	12734.44
817.919	12683.24
818.105	13168.61
818.292	12963.81
818.478	13467.61
818.665	13070.31
818.851	12935.14
819.037	13514.72
819.224	13051.88
819.41	12756.97
819.597	12570.6
819.783	13461.47
819.969	13330.4
820.156	12797.93
820.342	12840.93
820.528	13742.04
820.714	13027.3
820.901	13082.6
821.087	12693.48
821.273	13496.28
821.459	12972
821.646	12974.05
821.832	12732.39
822.018	13144.03
822.204	13006.82
822.39	12650.47
822.576	12586.99
822.762	12988.39
822.948	13027.3
823.134	12748.78
823.32	12695.53
823.507	12861.41
823.693	13096.93
823.879	13101.03
824.065	12568.55
824.25	13039.59
824.436	12816.36
824.622	12564.46
824.808	12709.86
824.994	12863.46
825.18	12713.96
825.366	12646.38
825.552	12724.2
825.738	12873.7
825.923	13074.4
826.109	12959.72
826.295	12492.78
826.481	12685.29
826.667	12761.06
826.852	12658.67
827.038	12564.46
827.224	13082.6
827.409	13141.99
827.595	12191.73
827.781	12679.15
827.966	13012.96
828.152	12990.44
828.338	12646.38
828.523	12460.01
828.709	12699.62
828.894	12955.62
829.08	12378.09
829.266	12175.34
829.451	12640.23
829.637	13017.06
829.822	12449.77
830.008	12376.05
830.193	12873.7
830.378	12660.71
830.564	12328.94
830.749	12120.05
830.935	12595.18
831.12	12845.03
831.305	11964.4
831.491	12273.65
831.676	12328.94
831.861	12695.53
832.047	12269.55
832.232	12126.19
832.417	12808.17
832.602	12533.74
832.788	12253.17
832.973	12222.45
833.158	12380.14
833.343	12537.84
833.528	12417.01
833.714	12081.14
833.899	12537.84
834.084	13023.2
834.269	12341.23
834.454	12099.57
834.639	12584.94
834.824	12337.13
835.009	12273.65
835.194	12171.25
835.379	12410.86
835.564	12607.47
835.749	11980.79
835.934	11939.83
836.119	12419.05
836.304	12349.42
836.489	12107.76
836.674	12017.65
836.859	12025.84
837.044	12603.37
837.228	12040.18
837.413	11954.16
837.598	12296.18
837.783	12546.03
837.968	11847.67
838.152	11773.94
838.337	11636.73
838.522	12382.19
838.707	12361.71
838.891	12007.41
839.076	12175.34
839.261	12189.68
839.445	11923.44
839.63	11737.08
839.815	12466.16
839.999	12048.37
840.184	11708.41
840.368	11763.7
840.553	12359.66
840.737	12247.02
840.922	11571.19
841.106	11589.63
841.291	11726.84
841.475	12048.37
841.66	11806.71
841.844	11745.27
842.029	12627.95
842.213	11685.88
842.397	11644.92
842.582	11501.56
842.766	11816.95
842.951	12089.33
843.135	11753.46
843.319	11546.62
843.504	11759.61
843.688	11915.25
843.872	11278.33
844.056	11890.68
844.241	11954.16
844.425	11651.06
844.609	11454.46
844.793	11360.25
844.977	11931.64
845.161	11603.96
845.346	11192.32
845.53	11558.91
845.714	11696.12
845.898	12093.43
846.082	11184.13
846.266	11483.13
846.45	11649.02
846.634	11698.17
846.818	11452.41
847.002	11665.4
847.186	11880.44
847.37	11325.44
847.554	11255.81
847.738	11411.45
847.922	11554.81
848.106	11552.76
848.29	11159.55
848.473	11296.77
848.657	11651.06
848.841	11380.73
849.025	11245.57
849.209	11302.91
849.392	11532.28
849.576	11335.68
849.76	10821.64
849.944	11352.06
850.127	11886.58
850.311	11161.6
850.495	11034.63
850.678	10825.73
850.862	11651.06
851.046	11689.98
851.229	11243.52
851.413	11124.74
851.596	11388.92
851.78	11255.81
851.964	11233.28
852.147	10776.58
852.331	11857.91
852.514	11554.81
852.698	11177.98
852.881	10819.59
853.065	11495.42
853.248	11470.84
853.431	11225.09
853.615	11180.03
853.798	11788.28
853.982	11444.22
854.165	11081.73
854.348	11059.2
854.532	11096.07
854.715	11128.83
854.898	10981.38
855.081	10780.68
855.265	11444.22
855.448	11558.91
855.631	10706.95
855.814	10659.85
855.997	11276.29
856.181	10905.6
856.364	10985.48
856.547	10653.7
856.73	11065.35
856.913	10962.95
857.096	10592.27
857.279	10967.04
857.462	10930.18
857.645	11094.02
857.828	10821.64
858.011	10702.86
858.194	11005.95
858.377	11169.79
858.56	10465.29
858.743	10846.21
858.926	10586.12
859.109	11098.11
859.292	10555.4
859.475	10446.86
859.658	11147.26
859.841	11069.44
860.023	10315.79
860.206	10522.63
860.389	10901.51
860.572	11130.88
860.755	10383.37
860.937	10256.4
861.12	10618.89
861.303	10553.35
861.486	10536.97
861.668	10278.93
861.851	11036.67
862.034	10731.53
862.216	10520.59
862.399	10133.52
862.581	10770.44
862.764	11030.53
862.947	10285.07
863.129	10024.98
863.312	10246.16
863.494	10934.28
863.677	10422.28
863.859	10194.96
864.042	10684.42
864.224	10811.4
864.406	10127.38
864.589	9795.61
864.771	10657.8
864.954	9959.44
865.136	10039.31
865.318	9664.54
865.501	10350.6
865.683	10115.09
865.865	10063.89
866.048	9914.39
866.23	10321.93
866.412	10203.15
866.594	9773.08
866.777	10082.32
866.959	10287.12
867.141	9889.81
867.323	10182.67
867.505	10127.38
867.687	10301.45
867.869	10436.62
868.052	10047.51
868.234	9693.21
868.416	10168.34
868.598	10430.48
868.78	9859.09
868.962	9947.15
869.144	10387.47
869.326	10250.25
869.508	9865.24
869.69	9760.79
869.872	10039.31
870.054	10379.28
870.236	9674.78
870.417	9791.51
870.599	10092.56
870.781	10403.85
870.963	9992.21
871.145	9994.26
871.327	9764.89
871.508	10274.83
871.69	9934.87
871.872	9922.58
872.054	10002.45
872.235	10297.36
872.417	9822.23
872.599	9725.97
872.78	10379.28
872.962	10174.48
873.144	9809.94
873.325	9736.21
873.507	10489.87
873.689	10242.06
873.87	10047.51
874.052	9768.98
874.233	10352.65
874.415	10506.25
874.596	9879.57
874.778	9768.98
874.959	9990.16
875.141	10446.86
875.322	9941.01
875.503	9551.9
875.685	10283.02
875.866	9725.97
876.048	9984.02
876.229	9685.01
876.41	10174.48
876.592	10272.78
876.773	9756.69
876.954	9574.42
877.136	10559.5
877.317	10141.71
877.498	9799.7
877.679	10002.45
877.86	10321.93
878.042	10223.63
878.223	9740.31
878.404	10346.51
878.585	10375.18
878.766	10864.64
878.947	10364.94
879.128	10182.67
879.309	10362.89
879.49	10817.54
879.672	10070.03
879.853	10059.79
880.034	10053.65
880.215	10305.55
880.396	10162.19
880.576	10307.6
880.757	10354.7
880.938	10661.9
881.119	10172.43
881.3	10100.75
881.481	10358.8
881.662	11233.28
881.843	9969.68
882.023	10086.42
882.204	10530.83
882.385	10377.23
882.566	10186.77
882.747	10162.19
882.927	10819.59
883.108	10686.47
883.289	10303.5
883.469	10373.13
883.65	10459.15
883.831	10473.48
884.011	10350.6
884.192	10268.69
884.373	10999.81
884.553	10711.05
884.734	10573.83
884.914	10868.74
885.095	11356.16
885.275	11171.84
885.456	10858.5
885.636	10463.24
885.817	10670.09
885.997	11034.63
886.178	10559.5
886.358	10412.04
886.538	10833.93
886.719	11855.86
886.899	10559.5
887.08	10573.83
887.26	11020.29
887.44	10590.22
887.621	10504.2
887.801	10633.22
887.981	11546.62
888.161	11194.37
888.342	10682.38
888.522	10760.2
888.702	11317.25
888.882	11339.77
889.062	10960.9
889.242	10502.15
889.423	11431.93
889.603	11114.5
889.783	10932.23
889.963	10625.03
890.143	11239.42
890.323	11413.5
890.503	10743.81
890.683	10821.64
890.863	11069.44
891.043	11304.96
891.223	11089.92
891.403	11053.06
891.583	11034.63
891.763	11190.27
891.943	10934.28
892.122	10719.24
892.302	11016.19
892.482	10993.67
892.662	10979.33
892.842	10944.52
893.022	11378.69
893.201	11091.97
893.381	10942.47
893.561	10700.81
893.741	11403.26
893.92	11237.38
894.1	10913.8
894.28	11063.3
894.459	11042.82
894.639	11120.64
894.819	10911.75
894.998	11106.31
895.178	11403.26
895.357	11261.95
895.537	10729.48
895.716	10711.05
895.896	11012.1
896.075	11565.05
896.255	10936.32
896.434	10614.79
896.614	11350.01
896.793	11491.32
896.973	10905.6
897.152	10928.13
897.331	11100.16
897.511	11329.53
897.69	10614.79
897.87	11042.82
898.049	11253.76
898.228	11008
898.407	10919.94
898.587	11102.21
898.766	10856.45
898.945	11204.61
899.124	11042.82
899.304	11216.9
899.483	11329.53
899.662	11636.73
899.841	10848.26
900.02	10754.05
900.199	11202.56
900.378	11020.29
900.557	10868.74
900.737	10518.54
900.916	11067.39
901.095	10909.7
901.274	10803.21
901.453	10592.27
901.632	10741.77
901.811	10526.73
901.989	10596.36
902.168	10418.19
902.347	11075.59
902.526	10786.82
902.705	10608.65
902.884	10649.61
903.063	11116.55
903.242	11227.14
903.42	10250.25
903.599	10788.87
903.778	11067.39
903.957	11159.55
904.135	10680.33
904.314	10530.83
904.493	11044.87
904.672	10940.42
904.85	10375.18
905.029	10455.05
905.207	10928.13
905.386	11323.39
905.565	10133.52
905.743	10356.75
905.922	10455.05
906.1	10917.89
906.279	10262.54
906.457	10127.38
906.636	10633.22
906.814	10547.21
906.993	10321.93
907.171	10358.8
907.35	10588.17
907.528	10653.7
907.707	10586.12
907.885	10205.2
908.063	10934.28
908.242	10252.3
908.42	10256.4
908.598	9965.59
908.777	10399.76
908.955	10197.01
909.133	10338.32
909.311	9973.78
909.49	10018.83
909.668	10092.56
909.846	9981.97
910.024	9807.89
910.202	10258.45
910.38	10332.17
910.559	9725.97
910.737	9869.33
910.915	10072.08
911.093	10080.27
911.271	9934.87
911.449	10108.94
911.627	10194.96
911.805	10543.11
911.983	9680.92
912.161	9738.26
912.339	10110.99
912.517	10477.58
912.695	9842.71
912.872	9730.07
913.05	9873.43
913.228	9992.21
913.406	9582.62
913.584	9621.53
913.762	10002.45
913.939	9760.79
914.117	9445.4
914.295	9271.33
914.473	9887.76
914.65	9846.8
914.828	9486.36
915.006	9408.54
915.184	9582.62
915.361	9871.38
915.539	9535.51
915.716	9781.27
915.894	9877.52
916.072	9754.65
916.249	9590.81
916.427	9508.89
916.604	9363.48
916.782	9566.23
916.959	9246.75
917.137	9351.2
917.314	9695.25
917.492	9510.94
917.669	9256.99
917.847	9142.3
918.024	9492.51
918.201	9170.97
918.379	9146.4
918.556	9103.39
918.733	9465.88
918.911	9336.86
919.088	9302.04
919.265	8962.08
919.442	9259.04
919.62	9115.68
919.797	8841.25
919.974	8677.41
920.151	9324.57
920.328	8951.84
920.506	8765.48
920.683	8783.91
920.86	8695.85
921.037	8765.48
921.214	8618.02
921.391	8671.27
921.568	8996.9
921.745	8568.87
921.922	8630.31
922.099	8273.96
922.276	9117.73
922.453	8896.55
922.63	8437.8
922.807	8751.14
922.984	8679.46
923.161	8337.45
923.338	8523.82
923.514	8216.62
923.691	8572.97
923.868	8695.85
924.045	8280.11
924.222	8210.48
924.399	8472.62
924.575	8736.81
924.752	8183.85
924.929	8241.2
925.105	8482.86
925.282	8177.71
925.459	8116.27
925.635	8245.29
925.812	8294.44
925.989	8218.67
926.165	8183.85
926.342	7807.03
926.518	8044.59
926.695	8036.4
926.871	7827.51
927.048	7626.81
927.224	8427.56
927.401	7858.23
927.577	7923.76
927.754	7614.52
927.93	8020.02
928.107	8013.87
928.283	7503.93
928.459	7678.01
928.636	7938.1
928.812	7731.25
928.988	7415.87
929.165	7348.28
929.341	7841.84
929.517	7706.68
929.693	7688.25
929.87	7196.73
930.046	7735.35
930.222	7407.67
930.398	7180.35
930.574	7370.81
930.751	7475.26
930.927	7348.28
931.103	7069.76
931.279	7174.21
931.455	7049.28
931.631	7342.14
931.807	6914.11
931.983	6764.61
932.159	6819.91
932.335	7241.79
932.511	6852.67
932.687	6824
932.863	7145.53
933.039	6819.91
933.215	6647.88
933.391	6547.53
933.566	6723.65
933.742	6733.89
933.918	6549.57
934.094	6297.67
934.27	6600.77
934.445	6549.57
934.621	6471.75
934.797	6021.2
934.973	6731.84
935.148	6625.35
935.324	5826.64
935.5	5892.18
935.675	6406.22
935.851	6230.09
936.027	5822.55
936.202	5750.87
936.378	5945.42
936.553	5824.59
936.729	5926.99
936.904	5464.15
937.08	5515.35
937.255	5341.27
937.431	5015.65
937.606	4970.59
937.782	5216.35
937.957	5146.72
938.133	5017.69
938.308	4634.72
938.483	4952.16
938.659	4767.84
938.834	4726.88
939.009	4436.07
939.185	4692.07
939.36	4497.51
939.535	4083.82
939.71	4284.52
939.886	4780.13
940.061	4622.44
940.236	4405.35
940.411	4089.96
940.586	4569.19
940.761	4417.64
940.937	4190.31
941.112	3801.2
941.287	4290.67
941.462	4122.73
941.637	3739.76
941.812	3850.35
941.987	3997.81
942.162	3991.66
942.337	3770.48
942.512	3604.6
942.687	4143.21
942.862	3952.75
943.037	3424.37
943.212	3272.82
943.386	3704.95
943.561	3825.78
943.736	3721.33
943.911	3711.09
944.086	3741.81
944.26	3831.92
944.435	3508.34
944.61	3557.49
944.785	4030.57
944.959	4214.89
945.134	3541.11
945.309	3350.65
945.483	3367.03
945.658	3883.12
945.833	3125.37
946.007	3252.35
946.182	4026.48
946.357	3405.94
946.531	3201.15
946.706	3393.65
946.88	3326.07
947.055	3682.42
947.229	3317.88
947.404	3391.61
947.578	3895.41
947.752	3522.68
947.927	3242.11
948.101	3301.5
948.276	3801.2
948.45	3700.85
948.624	3674.23
948.799	3291.26
948.973	3737.71
949.147	3383.42
949.321	3397.75
949.496	3399.8
949.67	3946.61
949.844	3584.12
950.018	3485.81
950.193	3305.59
950.367	3946.61
950.541	3571.83
950.715	3575.92
950.889	3676.27
951.063	3543.16
951.237	3625.08
951.411	3344.5
951.585	3221.63
951.759	3743.86
951.933	3682.42
952.107	3362.94
952.281	3612.79
952.455	4016.24
952.629	3862.64
952.803	3264.63
952.977	3326.07
953.151	3872.88
953.325	3704.95
953.499	3471.48
953.672	3278.97
953.846	3371.13
954.02	3500.15
954.194	3293.3
954.368	3346.55
954.541	3747.95
954.715	3498.1
954.889	3389.56
955.062	3289.21
955.236	3489.91
955.41	3524.72
955.583	3559.54
955.757	3248.25
955.93	3514.49
956.104	3260.54
956.278	3383.42
956.451	3295.35
956.625	3678.32
956.798	3862.64
956.972	3571.83
957.145	3276.92
957.319	3577.97
957.492	3639.41
957.665	3618.93
957.839	3201.15
958.012	3539.06
958.185	3514.49
958.359	3342.46
958.532	3428.47
958.705	3674.23
958.879	3373.18
959.052	3346.55
959.225	3086.46
959.398	3371.13
959.572	3614.84
959.745	3201.15
959.918	3299.45
960.091	3383.42
960.264	3571.83
960.438	3111.04
960.611	3246.2
960.784	3698.8
960.957	3317.88
961.13	3711.09
961.303	3106.94
961.476	3317.88
961.649	3653.75
961.822	3170.43
961.995	3285.11
962.168	3530.87
962.341	3407.99
962.514	3123.32
962.686	3041.4
962.859	3422.33
963.032	3563.64
963.205	3127.42
963.378	3057.79
963.551	3444.85
963.723	3367.03
963.896	3235.96
964.069	3436.66
964.242	3487.86
964.414	3600.5
964.587	3278.97
964.76	3266.68
964.932	3354.74
965.105	3410.04
965.278	3168.38
965.45	3104.89
965.623	3389.56
965.795	3532.92
965.968	3115.13
966.14	3111.04
966.313	3186.81
966.485	3428.47
966.658	3088.51
966.83	3065.98
967.003	3537.01
967.175	3543.16
967.348	3053.69
967.52	3055.74
967.692	3678.32
967.865	3446.9
968.037	2982.01
968.209	3473.53
968.382	3213.43
968.554	3463.29
968.726	3192.95
968.898	3076.22
969.071	3364.98
969.243	3393.65
969.415	3125.37
969.587	3231.87
969.759	3702.9
969.932	3543.16
970.104	3104.89
970.276	2732.16
970.448	3166.33
970.62	3065.98
970.792	3250.3
970.964	3033.21
971.136	3756.15
971.308	3268.73
971.48	3006.59
971.652	2957.44
971.824	3645.56
971.996	3178.62
972.168	3002.49
972.339	3031.16
972.511	3563.64
972.683	3063.93
972.855	3127.42
973.027	2975.87
973.199	3096.7
973.37	3455.09
973.542	3108.99
973.714	3025.02
973.886	3190.91
974.057	3360.89
974.229	2822.27
974.401	2648.19
974.572	2848.9
974.744	2597
974.915	2791.55
975.087	2715.78
975.259	3543.16
975.43	2945.15
975.602	2807.94
975.773	2863.23
975.945	2949.25
976.116	3219.58
976.288	2719.87
976.459	2963.58
976.63	2967.68
976.802	3078.27
976.973	2793.6
977.145	2842.75
977.316	3369.08
977.487	2902.14
977.659	2967.68
977.83	2812.03
978.001	3319.93
978.172	3207.29
978.344	2783.36
978.515	2723.97
978.686	2818.18
978.857	3258.49
979.028	2773.12
979.2	2719.87
979.371	3178.62
979.542	3020.92
979.713	2777.22
979.884	2443.4
980.055	2719.87
980.226	2883.71
980.397	2650.24
980.568	2691.2
980.739	3252.35
980.91	2867.33
981.081	2764.93
981.252	2605.19
981.423	3119.23
981.594	3113.08
981.765	2664.58
981.936	2734.21
982.106	2762.88
982.277	3055.74
982.448	2408.58
982.619	2793.6
982.79	2615.43
982.96	3121.28
983.131	2627.71
983.302	2314.38
983.472	2754.69
983.643	2904.19
983.814	2695.3
983.984	2502.79
984.155	2734.21
984.326	2924.67
984.496	2683.01
984.667	2549.89
984.837	2535.56
985.008	3000.44
985.178	2644.1
985.349	2584.71
985.519	2695.3
985.69	2617.47
985.86	2574.47
986.031	2371.72
986.201	2875.52
986.371	2932.86
986.542	2381.96
986.712	2089.1
986.882	2797.7
987.053	2666.63
987.223	2304.14
987.393	2535.56
987.563	2531.46
987.734	2867.33
987.904	2715.78
988.074	2418.82
988.244	2771.07
988.414	2492.55
988.585	2343.05
988.755	2384.01
988.925	2504.84
989.095	2926.72
989.265	2295.94
989.435	2367.62
989.605	2744.45
989.775	2713.73
989.945	2676.87
990.115	2351.24
990.285	2627.71
990.455	2609.28
990.625	2343.05
990.795	2291.85
990.965	2967.68
991.134	2297.99
991.304	2199.69
991.474	2224.26
991.644	2617.47
991.814	2920.57
991.984	2209.93
992.153	2203.79
992.323	2510.98
992.493	2574.47
992.662	1968.27
992.832	2427.01
993.002	2496.64
993.171	2484.36
993.341	2013.32
993.511	2273.42
993.68	2189.45
993.85	2623.62
994.019	1996.94
994.189	2101.39
994.358	2457.73
994.528	2312.33
994.697	1831.05
994.867	2015.37
995.036	2551.94
995.206	2353.29
995.375	2154.63
995.544	2226.31
995.714	2334.86
995.883	2214.02
996.052	2236.55
996.222	1814.67
996.391	2738.3
996.56	2420.87
996.73	1925.26
996.899	1972.36
997.068	2689.15
997.237	2412.68
997.406	1740.94
997.576	1867.92
997.745	2367.62
997.914	2433.16
998.083	1796.24
998.252	1851.53
998.421	2257.03
998.59	2035.85
998.759	1826.96
998.928	1824.91
999.097	2664.58
999.266	2476.16
999.435	2148.49
999.604	1773.71
999.773	2508.93
999.942	2259.08
1000.111	1673.36
1000.28	1636.5
1000.448	1994.89
1000.617	1941.65
1000.786	2085
1000.955	1728.66
1001.124	2246.79
1001.292	2812.03
1001.461	1775.76
1001.63	1677.46
1001.798	2570.37
1001.967	2402.44
1002.136	1724.56
1002.304	1683.6
1002.473	2160.78
1002.642	2236.55
1002.81	1933.45
1002.979	1659.03
1003.147	2230.41
1003.316	2662.53
1003.484	1788.05
1003.653	1788.05
1003.821	2424.97
1003.99	1941.65
1004.158	1843.34
1004.327	1740.94
1004.495	2042
1004.663	1968.27
1004.832	1898.64
1005	1620.11
1005.168	2125.96
1005.337	2015.37
1005.505	1482.9
1005.673	1892.49
1005.842	2152.59
1006.01	2095.24
1006.178	1546.39
1006.346	1564.82
1006.514	2074.76
1006.683	2113.67
1006.851	1513.62
1007.019	1450.13
1007.187	1726.61
1007.355	1624.21
1007.523	1417.37
1007.691	1421.46
1007.859	1607.83
1008.027	2142.35
1008.195	1560.72
1008.363	1446.04
1008.531	2115.72
1008.699	1736.85
1008.867	1335.45
1009.035	1577.11
1009.203	2125.96
1009.37	1835.15
1009.538	1605.78
1009.706	1874.06
1009.874	1925.26
1010.042	1884.3
1010.209	1470.61
1010.377	1435.8
1010.545	1921.17
1010.713	1835.15
1010.88	1423.51
1011.048	1552.53
1011.216	1646.74
1011.383	2121.87
1011.551	1347.73
1011.718	1341.59
1011.886	2007.18
1012.054	1691.79
1012.221	1304.73
1012.389	1333.4
1012.556	1656.98
1012.724	2214.02
1012.891	1489.04
1013.058	1179.8
1013.226	1886.35
1013.393	1642.64
1013.561	1181.85
1013.728	1140.89
1013.895	1884.3
1014.063	1716.37
1014.23	1384.6
1014.397	1243.29
1014.565	1829.01
1014.732	1560.72
1014.899	1237.14
1015.066	1228.95
1015.233	1613.97
1015.401	1968.27
1015.568	1333.4
1015.735	1351.83
1015.902	1638.55
1016.069	1624.21
1016.236	1364.12
1016.403	1147.03
1016.57	1349.78
1016.737	1736.85
1016.904	1314.97
1017.071	1065.11
1017.238	1437.84
1017.405	1917.07
1017.572	1136.79
1017.739	1409.17
1017.906	1648.79
1018.073	1769.62
1018.24	1079.45
1018.407	1286.3
1018.573	1699.98
1018.74	1454.23
1018.907	1276.06
1019.074	950.43
1019.241	1826.96
1019.407	1642.64
1019.574	1142.94
1019.741	1052.83
1019.907	1487
1020.074	1630.35
1020.241	870.56
1020.407	1001.63
1020.574	1519.76
1020.74	1507.48
1020.907	1194.14
1021.073	1110.17
1021.24	1882.25
1021.406	1763.47
1021.573	1009.82
1021.739	1093.79
1021.906	1630.35
1022.072	1409.17
1022.239	1048.73
1022.405	1228.95
1022.571	1400.98
1022.738	1247.38
1022.904	983.2
1023.07	1122.46
1023.237	1423.51
1023.403	1626.26
1023.569	929.95
1023.735	942.24
1023.902	1390.74
1024.068	1433.75
1024.234	972.96
1024.4	919.71
1024.566	1411.22
1024.732	1667.22
1024.898	1036.44
1025.065	782.49
1025.231	1517.72
1025.397	1284.25
1025.563	856.22
1025.729	911.52
1025.895	807.07
1026.061	1163.42
1026.227	809.12
1026.392	864.41
1026.558	1527.96
1026.724	1337.49
1026.89	893.09
1027.056	905.37
1027.222	1263.77
1027.388	1116.31
1027.553	835.74
1027.719	778.4
1027.885	1603.73
1028.051	1417.37
1028.216	774.3
1028.382	848.03
1028.548	1333.4
1028.713	1165.46
1028.879	751.78
1029.045	950.43
1029.21	1499.28
1029.376	1536.15
1029.541	866.46
1029.707	794.78
1029.873	1376.41
1030.038	1296.53
1030.204	807.07
1030.369	800.93
1030.534	1357.97
1030.7	1054.87
1030.865	788.64
1031.031	753.82
1031.196	1228.95
1031.361	1255.58
1031.527	719.01
1031.692	690.34
1031.857	749.73
1032.023	1323.16
1032.188	676
1032.353	821.41
1032.518	1573.01
1032.684	1245.34
1032.849	587.94
1033.014	823.45
1033.179	1302.68
1033.344	1147.03
1033.509	921.76
1033.674	757.92
1033.839	1296.53
1034.004	1286.3
1034.17	698.53
1034.335	549.03
1034.5	960.67
1034.664	952.48
1034.829	610.47
1034.994	700.58
1035.159	1142.94
1035.324	1042.59
1035.489	704.67
1035.654	649.38
1035.819	1429.65
1035.984	1081.5
1036.148	645.28
1036.313	663.71
1036.478	1276.06
1036.643	1042.59
1036.807	567.46
1036.972	487.59
1037.137	1405.08
1037.301	1048.73
1037.466	479.4
1037.631	753.82
1037.795	1263.77
1037.96	987.29
1038.124	762.02
1038.289	473.25
1038.454	1149.08
1038.618	1190.04
1038.783	725.15
1038.947	598.18
1039.111	1112.22
1039.276	907.42
1039.44	524.45
1039.605	979.1
1039.769	940.19
1039.933	901.28
1040.098	612.51
1040.262	790.69
1040.426	1112.22
1040.591	1034.39
1040.755	460.96
1040.919	589.99
1041.083	1024.16
1041.248	884.89
1041.412	362.66
1041.576	454.82
1041.74	807.07
1041.904	1061.02
1042.068	428.2
1042.232	575.65
1042.397	1061.02
1042.561	966.81
1042.725	262.31
1042.889	585.89
1043.053	1018.01
1043.217	981.15
1043.381	606.37
1043.544	397.48
1043.708	1140.89
1043.872	733.34
1044.036	198.82
1044.2	305.32
1044.364	1212.57
1044.528	1231
1044.691	5333.08
1044.855	362.66
1045.019	1024.16
1045.183	977.05
1045.346	540.83
1045.51	424.1
1045.674	999.58
1045.837	970.91
1046.001	475.3
1046.165	454.82
1046.328	1360.02
1046.492	1056.92
1046.655	581.79
1046.819	512.16
1046.983	632.99
1047.146	882.85
1047.31	534.69
1047.473	338.09
1047.636	825.5
1047.8	598.18
1047.963	409.76
1048.127	333.99
1048.29	606.37
