Data from Ink_Intensity_USB4F045381__68__00068.txt Node

Date: Mon Jul 17 10:35:16 EDT 2023
User: mmckonesweet
Spectrometer: USB4F04538
Trigger mode: 4
Integration Time (sec): 9.000000E-1
Scans to average: 1
Electric dark correction enabled: true
Nonlinearity correction enabled: false
Boxcar width: 0
XAxis mode: Wavelengths
Number of Pixels in Spectrum: 3648
>>>>>Begin Spectral Data<<<<<
345.52	-1006.92
345.736	-1006.92
345.952	-1006.92
346.168	-1031.49
346.384	-982.34
346.6	-193.87
346.816	-204.11
347.032	-154.96
347.248	275.11
347.464	-251.22
347.68	-23.89
347.896	51.88
348.112	314.02
348.328	-64.85
348.544	-46.42
348.76	-23.89
348.975	322.21
349.191	-251.22
349.407	-161.11
349.623	27.31
349.839	-48.47
350.055	-138.58
350.27	25.26
350.486	107.18
350.702	320.17
350.918	150.18
351.133	-253.27
351.349	109.22
351.565	434.85
351.781	-232.79
351.996	-66.9
352.212	305.83
352.428	-208.21
352.644	-197.97
352.859	-204.11
353.075	250.53
353.291	70.31
353.506	-97.62
353.722	-212.31
353.938	-23.89
354.153	492.2
354.369	12.97
354.584	-261.46
354.8	303.78
355.016	-300.37
355.231	-247.12
355.447	-97.62
355.662	125.61
355.878	823.97
356.093	-353.62
356.309	-23.89
356.524	-290.13
356.74	205.48
356.955	-269.65
357.171	-101.72
357.386	180.9
357.602	-251.22
357.817	-34.13
358.033	-132.44
358.248	350.89
358.464	117.42
358.679	-93.52
358.895	-318.8
359.11	-7.51
359.325	350.89
359.541	-23.89
359.756	31.4
359.972	-220.5
360.187	103.08
360.402	-273.75
360.618	-212.31
360.833	920.22
361.048	68.27
361.264	-175.44
361.479	-85.33
361.694	17.07
361.909	135.85
362.125	-253.27
362.34	-99.67
362.555	342.69
362.77	41.64
362.986	-290.13
363.201	-253.27
363.416	150.18
363.631	-46.42
363.847	-236.88
364.062	-210.26
364.277	88.75
364.492	43.69
364.707	-150.87
364.922	-404.82
365.138	271.01
365.353	320.17
365.568	-271.7
365.783	-152.92
365.998	70.31
366.213	516.77
366.428	-247.12
366.643	103.08
366.858	207.53
367.073	266.92
367.288	-148.82
367.503	-322.9
367.718	113.32
367.933	248.49
368.148	-318.8
368.363	-105.81
368.578	-19.8
368.793	387.75
369.008	-247.12
369.223	-318.8
369.438	166.57
369.653	365.22
369.868	-286.03
370.083	-216.4
370.298	109.22
370.513	410.28
370.728	33.45
370.943	-128.34
371.157	-159.06
371.372	445.09
371.587	-333.14
371.802	-257.36
372.017	72.36
372.232	373.41
372.446	-118.1
372.661	-228.69
372.876	180.9
373.091	185
373.306	-120.15
373.52	-234.83
373.735	-167.25
373.95	406.18
374.165	-132.44
374.379	-152.92
374.594	-105.81
374.809	49.83
375.023	41.64
375.238	-306.51
375.453	258.73
375.667	-236.88
375.882	-154.96
376.097	-154.96
376.311	-54.61
376.526	-21.85
376.741	-175.44
376.955	76.46
377.17	500.39
377.384	541.35
377.599	-50.52
377.813	-208.21
378.028	574.11
378.242	180.9
378.457	-83.28
378.672	-349.52
378.886	19.11
379.101	-3.41
379.315	-300.37
379.53	-148.82
379.744	170.66
379.958	197.29
380.173	-173.39
380.387	-247.12
380.602	92.84
380.816	-122.2
381.031	-204.11
381.245	-154.96
381.459	160.42
381.674	2685.57
381.888	-275.79
382.103	162.47
382.317	-335.18
382.531	541.35
382.746	-103.76
382.96	-195.92
383.174	-93.52
383.388	418.47
383.603	23.21
383.817	-206.16
384.031	158.38
384.246	473.76
384.46	-15.7
384.674	283.3
384.888	23.21
385.103	82.6
385.317	-310.61
385.531	-105.81
385.745	336.55
385.959	297.64
386.174	-144.72
386.388	-202.07
386.602	37.55
386.816	-126.29
387.03	-136.53
387.244	-140.63
387.458	82.6
387.672	404.13
387.887	-212.31
388.101	-314.7
388.315	340.65
388.529	230.06
388.743	-167.25
388.957	-269.65
389.171	346.79
389.385	-224.59
389.599	-134.48
389.813	-5.46
390.027	203.43
390.241	598.69
390.455	-181.59
390.669	-216.4
390.883	-87.38
391.097	422.56
391.311	-60.76
391.525	-179.54
391.738	133.8
391.952	193.19
392.166	-40.28
392.38	-193.87
392.594	309.93
392.808	258.73
393.022	-148.82
393.236	-148.82
393.449	182.95
393.663	86.7
393.877	-245.07
394.091	-109.91
394.305	-52.56
394.518	-134.48
394.732	-263.51
394.946	-146.77
395.16	379.56
395.373	111.27
395.587	-163.15
395.801	-224.59
396.015	295.59
396.228	283.3
396.442	-281.94
396.656	-281.94
396.869	338.6
397.083	479.91
397.297	-36.18
397.51	-64.85
397.724	254.63
397.938	131.75
398.151	-341.33
398.365	-286.03
398.578	144.04
398.792	340.65
399.005	-17.75
399.219	-138.58
399.433	82.6
399.646	164.52
399.86	-50.52
400.073	-83.28
400.287	180.9
400.5	0.68
400.714	-7.51
400.927	-73.04
401.141	211.62
401.354	1047.19
401.567	180.9
401.781	-294.22
401.994	215.72
402.208	551.59
402.421	-177.49
402.635	-122.2
402.848	6.83
403.061	316.07
403.275	-95.57
403.488	-179.54
403.701	389.8
403.915	176.81
404.128	4.78
404.341	-150.87
404.555	215.72
404.768	19.11
404.981	-71
405.195	-105.81
405.408	502.43
405.621	225.96
405.834	25.26
406.048	-273.75
406.261	357.03
406.474	434.85
406.687	-267.6
406.9	-40.28
407.114	74.41
407.327	-36.18
407.54	-275.79
407.753	-314.7
407.966	-103.76
408.179	248.49
408.392	-283.99
408.605	-335.18
408.819	168.62
409.032	180.9
409.245	-249.17
409.458	-40.28
409.671	182.95
409.884	230.06
410.097	-228.69
410.31	-81.24
410.523	185
410.736	12.97
410.949	-136.53
411.162	-116.05
411.375	416.42
411.588	223.91
411.801	-3.41
412.014	-238.93
412.227	21.16
412.44	-95.57
412.653	-157.01
412.865	-40.28
413.078	260.77
413.291	201.38
413.504	-93.52
413.717	-206.16
413.93	154.28
414.143	-154.96
414.356	-130.39
414.568	-322.9
414.781	254.63
414.994	109.22
415.207	-83.28
415.42	-130.39
415.632	295.59
415.845	518.82
416.058	-370
416.271	-212.31
416.483	-1.37
416.696	471.72
416.909	-212.31
417.121	-195.92
417.334	189.1
417.547	520.87
417.759	-109.91
417.972	-224.59
418.185	-118.1
418.397	180.9
418.61	-208.21
418.823	-183.63
419.035	410.28
419.248	8.87
419.46	-87.38
419.673	-79.19
419.885	164.52
420.098	-48.47
420.311	-171.35
420.523	-376.14
420.736	160.42
420.948	37.55
421.161	-152.92
421.373	-429.39
421.586	64.17
421.798	-101.72
422.01	-324.94
422.223	-46.42
422.435	-101.72
422.648	273.06
422.86	-200.02
423.073	-128.34
423.285	447.14
423.497	-234.83
423.71	-152.92
423.922	-249.17
424.134	98.99
424.347	363.17
424.559	-52.56
424.771	49.83
424.984	-21.85
425.196	146.09
425.408	-335.18
425.621	-245.07
425.833	150.18
426.045	336.55
426.257	-290.13
426.47	-206.16
426.682	74.41
426.894	170.66
427.106	-208.21
427.318	-146.77
427.531	-42.32
427.743	252.58
427.955	-157.01
428.167	168.62
428.379	144.04
428.591	53.93
428.804	-77.14
429.016	-355.66
429.228	-66.9
429.44	168.62
429.652	-85.33
429.864	-290.13
430.076	-30.04
430.288	-38.23
430.5	-124.24
430.712	-34.13
430.924	326.31
431.136	-1.37
431.348	-283.99
431.56	-281.94
431.772	-60.76
431.984	-46.42
432.196	-179.54
432.408	-197.97
432.62	-50.52
432.832	248.49
433.044	-19.8
433.256	-79.19
433.468	238.25
433.679	-220.5
433.891	-296.27
434.103	41.64
434.315	330.41
434.527	193.19
434.739	-66.9
434.95	-224.59
435.162	176.81
435.374	-111.96
435.586	-157.01
435.798	-228.69
436.009	-200.02
436.221	-5.46
436.433	-193.87
436.645	-220.5
436.856	-93.52
437.068	279.21
437.28	-228.69
437.491	131.75
437.703	131.75
437.915	60.07
438.126	-200.02
438.338	72.36
438.55	21.16
438.761	133.8
438.973	-255.31
439.184	-126.29
439.396	-56.66
439.608	268.97
439.819	-281.94
440.031	-93.52
440.242	156.33
440.454	248.49
440.665	-185.68
440.877	-118.1
441.088	37.55
441.3	8.87
441.511	-359.76
441.723	-253.27
441.934	119.46
442.146	31.4
442.357	-19.8
442.569	33.45
442.78	121.51
442.991	379.56
443.203	74.41
443.414	-314.7
443.626	348.84
443.837	-161.11
444.048	-238.93
444.26	-322.9
444.471	58.03
444.682	287.4
444.894	-404.82
445.105	-333.14
445.316	262.82
445.528	162.47
445.739	-54.61
445.95	-142.68
446.161	137.9
446.373	279.21
446.584	-144.72
446.795	-210.26
447.006	273.06
447.217	443.04
447.429	-331.09
447.64	-339.28
447.851	309.93
448.062	35.5
448.273	-378.19
448.484	-263.51
448.695	152.23
448.907	27.31
449.118	-64.85
449.329	17.07
449.54	-169.3
449.751	-144.72
449.962	-216.4
450.173	-220.5
450.384	254.63
450.595	332.45
450.806	-204.11
451.017	-216.4
451.228	383.65
451.439	244.39
451.65	-197.97
451.861	-384.34
452.072	-159.06
452.283	43.69
452.494	35.5
452.705	-261.46
452.915	389.8
453.126	60.07
453.337	-140.63
453.548	-279.89
453.759	271.01
453.97	590.5
454.181	-46.42
454.391	-247.12
454.602	158.38
454.813	88.75
455.024	-77.14
455.235	-220.5
455.445	117.42
455.656	201.38
455.867	-66.9
456.078	-197.97
456.288	-126.29
456.499	103.08
456.71	-259.41
456.921	-27.99
457.131	152.23
457.342	92.84
457.553	-134.48
457.763	-191.83
457.974	141.99
458.184	248.49
458.395	-283.99
458.606	-357.71
458.816	334.5
459.027	502.43
459.237	-83.28
459.448	-384.34
459.659	281.25
459.869	561.83
460.08	-320.85
460.29	-42.32
460.501	475.81
460.711	-114
460.922	-288.08
461.132	-271.7
461.343	674.46
461.553	-187.73
461.764	-222.55
461.974	-292.18
462.184	256.68
462.395	31.4
462.605	-152.92
462.816	-253.27
463.026	41.64
463.236	307.88
463.447	-212.31
463.657	-210.26
463.867	266.92
464.078	-58.71
464.288	-163.15
464.498	-273.75
464.709	123.56
464.919	-87.38
465.129	-216.4
465.339	-277.84
465.55	109.22
465.76	242.34
465.97	-163.15
466.18	-312.66
466.391	311.97
466.601	49.83
466.811	-177.49
467.021	-263.51
467.231	105.13
467.441	232.1
467.651	-140.63
467.862	-478.54
468.072	-27.99
468.282	330.41
468.492	-208.21
468.702	-249.17
468.912	51.88
469.122	567.97
469.332	51.88
469.542	-288.08
469.752	232.1
469.962	101.03
470.172	-355.66
470.382	-261.46
470.592	166.57
470.802	311.97
471.012	-79.19
471.222	-249.17
471.432	205.48
471.642	234.15
471.852	-99.67
472.062	-318.8
472.272	-19.8
472.482	-179.54
472.691	-322.9
472.901	-308.56
473.111	150.18
473.321	565.92
473.531	-345.42
473.741	-152.92
473.95	123.56
474.16	182.95
474.37	-101.72
474.58	-331.09
474.79	447.14
474.999	168.62
475.209	-267.6
475.419	-232.79
475.628	-130.39
475.838	275.11
476.048	-169.3
476.258	-363.86
476.467	336.55
476.677	-114
476.886	-77.14
477.096	-101.72
477.306	-124.24
477.515	385.7
477.725	-200.02
477.935	-224.59
478.144	318.12
478.354	-146.77
478.563	-179.54
478.773	-279.89
478.982	158.38
479.192	352.93
479.401	-171.35
479.611	-339.28
479.82	-220.5
480.03	150.18
480.239	-265.55
480.449	-367.95
480.658	397.99
480.868	-54.61
481.077	-130.39
481.287	-111.96
481.496	148.14
481.705	420.52
481.915	19.11
482.124	21.16
482.333	39.59
482.543	387.75
482.752	-183.63
482.961	-308.56
483.171	189.1
483.38	-3.41
483.589	-226.64
483.799	-312.66
484.008	29.35
484.217	322.21
484.426	-216.4
484.636	-335.18
484.845	0.68
485.054	-310.61
485.263	86.7
485.472	-230.74
485.682	504.48
485.891	152.23
486.1	-343.38
486.309	-212.31
486.518	98.99
486.727	350.89
486.936	-279.89
487.146	-124.24
487.355	357.03
487.564	-171.35
487.773	-228.69
487.982	-249.17
488.191	-114
488.4	-32.08
488.609	-269.65
488.818	-177.49
489.027	567.97
489.236	387.75
489.445	-218.45
489.654	-200.02
489.863	268.97
490.072	37.55
490.281	74.41
490.49	-240.98
490.698	338.6
490.907	412.32
491.116	-240.98
491.325	-388.43
491.534	318.12
491.743	27.31
491.952	-214.35
492.16	-189.78
492.369	82.6
492.578	273.06
492.787	-126.29
492.996	-331.09
493.204	-195.92
493.413	502.43
493.622	-417.1
493.831	-466.25
494.039	373.41
494.248	-210.26
494.457	-255.31
494.665	-443.73
494.874	139.94
495.083	535.2
495.291	-247.12
495.5	-228.69
495.709	326.31
495.917	4.78
496.126	-68.95
496.335	-255.31
496.543	-3.41
496.752	152.23
496.96	-19.8
497.169	-466.25
497.377	82.6
497.586	299.69
497.794	-109.91
498.003	-429.39
498.211	-48.47
498.42	344.74
498.628	-132.44
498.837	-351.57
499.045	176.81
499.254	86.7
499.462	-355.66
499.671	-279.89
499.879	436.9
500.087	344.74
500.296	-206.16
500.504	-212.31
500.713	150.18
500.921	510.63
501.129	-312.66
501.338	-167.25
501.546	60.07
501.754	94.89
501.962	-273.75
502.171	-345.42
502.379	225.96
502.587	481.96
502.795	-281.94
503.004	-204.11
503.212	51.88
503.42	293.54
503.628	-195.92
503.837	-163.15
504.045	197.29
504.253	449.19
504.461	-353.62
504.669	-392.53
504.877	144.04
505.085	457.38
505.294	-388.43
505.502	-99.67
505.71	94.89
505.918	205.48
506.126	-316.75
506.334	-345.42
506.542	49.83
506.75	131.75
506.958	-138.58
507.166	-200.02
507.374	-68.95
507.582	436.9
507.79	-17.75
507.998	-308.56
508.206	-3.41
508.414	205.48
508.622	-312.66
508.83	-204.11
509.037	453.28
509.245	6.83
509.453	-322.9
509.661	-351.57
509.869	252.58
510.077	-52.56
510.285	-97.62
510.492	-439.63
510.7	639.65
510.908	-30.04
511.116	-206.16
511.324	-222.55
511.531	17.07
511.739	53.93
511.947	-154.96
512.155	6.83
512.362	123.56
512.57	-214.35
512.778	-245.07
512.985	-367.95
513.193	307.88
513.401	350.89
513.608	-259.41
513.816	-234.83
514.024	66.22
514.231	352.93
514.439	-359.76
514.646	-267.6
514.854	135.85
515.061	344.74
515.269	-228.69
515.477	-171.35
515.684	-206.16
515.892	289.45
516.099	-318.8
516.307	-326.99
516.514	174.76
516.722	373.41
516.929	-189.78
517.136	-343.38
517.344	393.89
517.551	0.68
517.759	-341.33
517.966	-312.66
518.173	-191.83
518.381	4.78
518.588	-120.15
518.796	-265.55
519.003	193.19
519.21	45.74
519.418	-279.89
519.625	-32.08
519.832	70.31
520.039	88.75
520.247	-445.77
520.454	-249.17
520.661	248.49
520.868	139.94
521.076	-228.69
521.283	-220.5
521.49	567.97
521.697	162.47
521.904	-171.35
522.112	-308.56
522.319	252.58
522.526	172.71
522.733	-265.55
522.94	-310.61
523.147	123.56
523.354	178.86
523.561	-466.25
523.768	-101.72
523.975	279.21
524.183	49.83
524.39	-161.11
524.597	-345.42
524.804	27.31
525.011	-130.39
525.218	-296.27
525.425	-222.55
525.632	389.8
525.838	-154.96
526.045	-271.7
526.252	-300.37
526.459	1122.97
526.666	733.86
526.873	-310.61
527.08	-232.79
527.287	404.13
527.494	232.1
527.701	-322.9
527.907	-320.85
528.114	191.14
528.321	41.64
528.528	-222.55
528.735	-331.09
528.941	-21.85
529.148	-85.33
529.355	-208.21
529.562	-290.13
529.768	361.13
529.975	-40.28
530.182	-232.79
530.388	-290.13
530.595	242.34
530.802	-232.79
531.008	-99.67
531.215	-230.74
531.422	733.86
531.628	805.53
531.835	-251.22
532.042	-179.54
532.248	-83.28
532.455	152.23
532.661	-204.11
532.868	-281.94
533.074	47.79
533.281	221.86
533.487	-230.74
533.694	-320.85
533.9	-179.54
534.107	117.42
534.313	-281.94
534.52	-343.38
534.726	361.13
534.933	467.62
535.139	-431.44
535.345	-494.93
535.552	60.07
535.758	78.51
535.965	-175.44
536.171	-271.7
536.377	201.38
536.584	357.03
536.79	-329.04
536.996	-216.4
537.203	119.46
537.409	12.97
537.615	-206.16
537.821	-144.72
538.028	135.85
538.234	221.86
538.44	-224.59
538.646	-193.87
538.853	156.33
539.059	-9.56
539.265	92.84
539.471	-429.39
539.677	271.01
539.883	-83.28
540.09	-222.55
540.296	129.7
540.502	70.31
540.708	-109.91
540.914	-154.96
541.12	-204.11
541.326	168.62
541.532	-66.9
541.738	-138.58
541.944	-161.11
542.15	115.37
542.356	47.79
542.562	-277.84
542.768	-183.63
542.974	631.46
543.18	518.82
543.386	-326.99
543.592	-456.01
543.798	344.74
544.004	377.51
544.21	-286.03
544.415	-257.36
544.621	115.37
544.827	266.92
545.033	-367.95
545.239	-46.42
545.445	-93.52
545.651	43.69
545.856	-333.14
546.062	-281.94
546.268	-101.72
546.474	-1.37
546.679	-253.27
546.885	-163.15
547.091	-128.34
547.297	492.2
547.502	-187.73
547.708	-402.77
547.914	27.31
548.119	168.62
548.325	-425.29
548.531	-281.94
548.736	406.18
548.942	-208.21
549.147	-333.14
549.353	-126.29
549.559	295.59
549.764	160.42
549.97	-195.92
550.175	-279.89
550.381	228.01
550.586	-120.15
550.792	-216.4
550.997	-179.54
551.203	148.14
551.408	39.59
551.614	-365.9
551.819	-343.38
552.025	404.13
552.23	496.29
552.435	-306.51
552.641	-144.72
552.846	-103.76
553.052	281.25
553.257	-111.96
553.462	-181.59
553.668	-124.24
553.873	225.96
554.078	-224.59
554.283	-267.6
554.489	76.46
554.694	29.35
554.899	-372.05
555.105	-126.29
555.31	166.57
555.515	230.06
555.72	-165.2
555.925	-388.43
556.131	133.8
556.336	-60.76
556.541	-382.29
556.746	-374.1
556.951	293.54
557.156	473.76
557.361	-138.58
557.567	-103.76
557.772	533.15
557.977	74.41
558.182	-279.89
558.387	-267.6
558.592	-56.66
558.797	334.5
559.002	-122.2
559.207	-132.44
559.412	39.59
559.617	467.62
559.822	-259.41
560.027	-306.51
560.232	2.73
560.437	248.49
560.642	-279.89
560.847	-265.55
561.051	27.31
561.256	101.03
561.461	-191.83
561.666	-351.57
561.871	172.71
562.076	176.81
562.281	-208.21
562.485	-384.34
562.69	311.97
562.895	264.87
563.1	-245.07
563.305	-326.99
563.509	322.21
563.714	600.74
563.919	-261.46
564.123	-259.41
564.328	-40.28
564.533	311.97
564.737	-152.92
564.942	-302.42
565.147	377.51
565.351	596.64
565.556	-157.01
565.761	-116.05
565.965	98.99
566.17	-116.05
566.374	-326.99
566.579	-404.82
566.784	21.16
566.988	-19.8
567.193	-421.2
567.397	-286.03
567.602	-253.27
567.806	-44.37
568.011	-240.98
568.215	-105.81
568.42	-89.43
568.624	27.31
568.828	-232.79
569.033	-87.38
569.237	162.47
569.442	172.71
569.646	-365.9
569.85	-222.55
570.055	-60.76
570.259	55.98
570.463	-126.29
570.668	-296.27
570.872	-21.85
571.076	66.22
571.281	-114
571.485	-185.68
571.689	105.13
571.893	168.62
572.098	-93.52
572.302	-259.41
572.506	217.77
572.71	-9.56
572.914	-183.63
573.119	-232.79
573.323	424.61
573.527	305.83
573.731	-220.5
573.935	-286.03
574.139	101.03
574.343	-105.81
574.547	-152.92
574.751	-271.7
574.955	330.41
575.159	344.74
575.364	-265.55
575.568	-361.81
575.772	82.6
575.976	340.65
576.18	-359.76
576.383	-367.95
576.587	264.87
576.791	217.77
576.995	-392.53
577.199	-476.49
577.403	262.82
577.607	275.11
577.811	-410.96
578.015	-163.15
578.219	80.55
578.422	207.53
578.626	-152.92
578.83	-56.66
579.034	256.68
579.238	82.6
579.442	-191.83
579.645	94.89
579.849	-3.41
580.053	12.97
580.257	-150.87
580.46	-195.92
580.664	221.86
580.868	199.34
581.071	-87.38
581.275	-60.76
581.479	-179.54
581.682	215.72
581.886	-275.79
582.09	-130.39
582.293	197.29
582.497	223.91
582.7	-66.9
582.904	-361.81
583.107	45.74
583.311	-48.47
583.515	-150.87
583.718	-165.2
583.922	193.19
584.125	514.72
584.329	-281.94
584.532	-25.94
584.735	387.75
584.939	139.94
585.142	-421.2
585.346	-286.03
585.549	158.38
585.753	-7.51
585.956	-265.55
586.159	-193.87
586.363	328.36
586.566	156.33
586.769	-329.04
586.973	-308.56
587.176	115.37
587.379	283.3
587.582	125.61
587.786	-11.61
587.989	53.93
588.192	692.9
588.395	-214.35
588.599	25.26
588.802	146.09
589.005	236.2
589.208	-279.89
589.411	-218.45
589.615	287.4
589.818	410.28
590.021	-77.14
590.224	-154.96
590.427	205.48
590.63	238.25
590.833	-367.95
591.036	-316.75
591.239	-58.71
591.442	-50.52
591.645	-36.18
591.848	-259.41
592.051	66.22
592.254	320.17
592.457	-134.48
592.66	-214.35
592.863	-46.42
593.066	207.53
593.269	-200.02
593.472	-118.1
593.675	-152.92
593.878	338.6
594.081	-75.09
594.284	-343.38
594.486	164.52
594.689	39.59
594.892	-163.15
595.095	-253.27
595.298	199.34
595.5	27.31
595.703	-157.01
595.906	-44.37
596.109	522.91
596.311	332.45
596.514	-458.06
596.717	-130.39
596.92	230.06
597.122	217.77
597.325	-456.01
597.528	-251.22
597.73	309.93
597.933	0.68
598.136	-245.07
598.338	-472.4
598.541	152.23
598.743	293.54
598.946	-273.75
599.148	-175.44
599.351	326.31
599.554	338.6
599.756	-79.19
599.959	-224.59
600.161	328.36
600.363	666.27
600.566	-13.65
600.768	-165.2
600.971	481.96
601.173	213.67
601.376	-159.06
601.578	-197.97
601.78	111.27
601.983	641.7
602.185	-283.99
602.388	51.88
602.59	137.9
602.792	-79.19
602.995	19.11
603.197	-220.5
603.399	346.79
603.601	189.1
603.804	-144.72
604.006	-128.34
604.208	-15.7
604.41	-365.9
604.613	-64.85
604.815	-310.61
605.017	594.59
605.219	-52.56
605.421	88.75
605.623	-240.98
605.826	367.27
606.028	369.32
606.23	-128.34
606.432	-191.83
606.634	463.52
606.836	354.98
607.038	-277.84
607.24	-101.72
607.442	193.19
607.644	74.41
607.846	-103.76
608.048	-245.07
608.25	328.36
608.452	-95.57
608.654	-296.27
608.856	-415.06
609.058	-32.08
609.26	113.32
609.462	-101.72
609.664	-210.26
609.866	443.04
610.067	273.06
610.269	37.55
610.471	-130.39
610.673	-134.48
610.875	146.09
611.077	-429.39
611.278	-77.14
611.48	70.31
611.682	420.52
611.884	-56.66
612.085	-150.87
612.287	-189.78
612.489	164.52
612.69	-396.62
612.892	-157.01
613.094	348.84
613.295	230.06
613.497	-341.33
613.699	-212.31
613.9	453.28
614.102	385.7
614.304	-226.64
614.505	-333.14
614.707	72.36
614.908	45.74
615.11	-341.33
615.311	-195.92
615.513	305.83
615.714	250.53
615.916	-300.37
616.117	-138.58
616.319	-11.61
616.52	332.45
616.722	-179.54
616.923	-247.12
617.124	295.59
617.326	150.18
617.527	-140.63
617.729	45.74
617.93	250.53
618.131	172.71
618.333	-267.6
618.534	-177.49
618.735	-60.76
618.937	516.77
619.138	-265.55
619.339	-251.22
619.54	238.25
619.742	-5.46
619.943	-93.52
620.144	-107.86
620.345	250.53
620.546	371.36
620.748	-265.55
620.949	-216.4
621.15	135.85
621.351	164.52
621.552	-251.22
621.753	-349.52
621.954	-251.22
622.155	555.68
622.356	-279.89
622.558	-38.23
622.759	-77.14
622.96	475.81
623.161	-138.58
623.362	-177.49
623.563	82.6
623.764	74.41
623.965	-64.85
624.166	8.87
624.366	-13.65
624.567	135.85
624.768	-429.39
624.969	-222.55
625.17	39.59
625.371	162.47
625.572	-60.76
625.773	-306.51
625.973	275.11
626.174	217.77
626.375	-52.56
626.576	-105.81
626.777	199.34
626.977	639.65
627.178	-173.39
627.379	-134.48
627.58	-38.23
627.78	139.94
627.981	-150.87
628.182	-109.91
628.382	365.22
628.583	-230.74
628.784	-339.28
628.984	12.97
629.185	330.41
629.386	281.25
629.586	-101.72
629.787	-228.69
629.987	205.48
630.188	94.89
630.388	-238.93
630.589	-122.2
630.79	639.65
630.99	125.61
631.191	-116.05
631.391	-48.47
631.591	324.26
631.792	512.67
631.992	-60.76
632.193	-52.56
632.393	445.09
632.594	193.19
632.794	-193.87
632.994	-79.19
633.195	139.94
633.395	121.51
633.595	-152.92
633.796	19.11
633.996	-79.19
634.196	340.65
634.397	-230.74
634.597	-46.42
634.797	-71
634.997	365.22
635.198	101.03
635.398	-179.54
635.598	205.48
635.798	504.48
635.998	246.44
636.199	-152.92
636.399	-56.66
636.599	-200.02
636.799	-163.15
636.999	37.55
637.199	213.67
637.399	373.41
637.599	-171.35
637.799	-40.28
637.999	-105.81
638.199	389.8
638.399	-187.73
638.599	-167.25
638.799	287.4
638.999	619.17
639.199	51.88
639.399	-89.43
639.599	455.33
639.799	-68.95
639.999	-224.59
640.199	-283.99
640.399	209.58
640.599	234.15
640.799	-93.52
640.998	0.68
641.198	404.13
641.398	182.95
641.598	-15.7
641.798	-163.15
641.997	1108.63
642.197	117.42
642.397	-79.19
642.597	-130.39
642.796	234.15
642.996	422.56
643.196	4.78
643.395	-259.41
643.595	107.18
643.795	-302.42
643.994	-210.26
644.194	-54.61
644.394	316.07
644.593	199.34
644.793	-339.28
644.992	-17.75
645.192	217.77
645.392	-310.61
645.591	-17.75
645.791	-93.52
645.99	262.82
646.19	19.11
646.389	-91.48
646.589	-81.24
646.788	209.58
646.987	275.11
647.187	129.7
647.386	37.55
647.586	49.83
647.785	275.11
647.984	-114
648.184	-122.2
648.383	15.02
648.582	41.64
648.782	-44.37
648.981	88.75
649.18	-66.9
649.38	238.25
649.579	-195.92
649.778	-173.39
649.977	166.57
650.177	154.28
650.376	-154.96
650.575	-150.87
650.774	508.58
650.973	-101.72
651.173	-294.22
651.372	-77.14
651.571	131.75
651.77	404.13
651.969	-214.35
652.168	-89.43
652.367	-132.44
652.566	168.62
652.765	-193.87
652.964	78.51
653.163	608.93
653.362	80.55
653.561	-171.35
653.76	-185.68
653.959	15.02
654.158	178.86
654.357	60.07
654.556	-97.62
654.755	252.58
654.954	303.78
655.153	-107.86
655.352	-48.47
655.551	426.66
655.749	-111.96
655.948	-103.76
656.147	-3.41
656.346	211.62
656.545	90.79
656.743	-21.85
656.942	-71
657.141	119.46
657.34	-68.95
657.538	-142.68
657.737	-122.2
657.936	10.92
658.135	258.73
658.333	-103.76
658.532	-23.89
658.731	570.02
658.929	340.65
659.128	209.58
659.326	-163.15
659.525	387.75
659.724	107.18
659.922	-220.5
660.121	-245.07
660.319	203.43
660.518	-54.61
660.716	-269.65
660.915	-177.49
661.113	336.55
661.312	-167.25
661.51	-17.75
661.709	-214.35
661.907	268.97
662.105	559.78
662.304	-109.91
662.502	-81.24
662.701	430.76
662.899	53.93
663.097	170.66
663.296	-337.23
663.494	365.22
663.692	420.52
663.891	-216.4
664.089	-204.11
664.287	170.66
664.485	438.95
664.684	-175.44
664.882	41.64
665.08	129.7
665.278	88.75
665.476	-191.83
665.675	197.29
665.873	565.92
666.071	434.85
666.269	-179.54
666.467	103.08
666.665	74.41
666.863	12.97
667.061	41.64
667.259	-93.52
667.457	96.94
667.655	256.68
667.853	-283.99
668.051	-109.91
668.249	-83.28
668.447	271.01
668.645	-150.87
668.843	33.45
669.041	201.38
669.239	37.55
669.437	-27.99
669.635	-23.89
669.833	-23.89
670.031	385.7
670.229	21.16
670.426	-118.1
670.624	-81.24
670.822	-46.42
671.02	-87.38
671.218	-99.67
671.415	-85.33
671.613	158.38
671.811	29.35
672.009	-140.63
672.206	217.77
672.404	187.05
672.602	193.19
672.799	-15.7
672.997	250.53
673.195	377.51
673.392	58.03
673.59	-286.03
673.788	369.32
673.985	-243.03
674.183	43.69
674.38	-105.81
674.578	254.63
674.775	35.5
674.973	-200.02
675.17	-195.92
675.368	514.72
675.565	244.39
675.763	-179.54
675.96	-224.59
676.158	438.95
676.355	193.19
676.553	-32.08
676.75	-68.95
676.947	213.67
677.145	160.42
677.342	-27.99
677.539	17.07
677.737	139.94
677.934	615.07
678.131	53.93
678.329	-195.92
678.526	586.4
678.723	322.21
678.92	-54.61
679.118	-99.67
679.315	-228.69
679.512	426.66
679.709	-48.47
679.906	-71
680.104	445.09
680.301	113.32
680.498	-146.77
680.695	-212.31
680.892	53.93
681.089	2.73
681.286	-30.04
681.483	-218.45
681.68	320.17
681.877	283.3
682.075	-19.8
682.272	215.72
682.469	119.46
682.665	66.22
682.862	-89.43
683.059	-243.03
683.256	275.11
683.453	164.52
683.65	-7.51
683.847	-95.57
684.044	78.51
684.241	-1.37
684.438	29.35
684.635	-173.39
684.831	559.78
685.028	594.59
685.225	-126.29
685.422	-40.28
685.619	51.88
685.815	221.86
686.012	12.97
686.209	-48.47
686.405	-105.81
686.602	377.51
686.799	-161.11
686.996	-224.59
687.192	-54.61
687.389	539.3
687.586	-114
687.782	-38.23
687.979	422.56
688.175	359.08
688.372	51.88
688.568	0.68
688.765	19.11
688.962	449.19
689.158	58.03
689.355	-240.98
689.551	328.36
689.748	-27.99
689.944	66.22
690.14	-173.39
690.337	303.78
690.533	37.55
690.73	197.29
690.926	-48.47
691.123	285.35
691.319	205.48
691.515	-191.83
691.712	113.32
691.908	230.06
692.104	127.66
692.301	131.75
692.497	-175.44
692.693	391.84
692.889	332.45
693.086	105.13
693.282	-365.9
693.478	176.81
693.674	488.1
693.87	-34.13
694.067	-171.35
694.263	232.1
694.459	144.04
694.655	64.17
694.851	64.17
695.047	246.44
695.243	402.08
695.439	58.03
695.635	-87.38
695.831	393.89
696.027	199.34
696.224	-163.15
696.42	232.1
696.615	426.66
696.811	291.49
697.007	-224.59
697.203	-68.95
697.399	287.4
697.595	430.76
697.791	-73.04
697.987	76.46
698.183	-91.48
698.379	62.12
698.575	-118.1
698.77	-89.43
698.966	297.64
699.162	393.89
699.358	-5.46
699.554	-21.85
699.749	395.94
699.945	445.09
700.141	144.04
700.337	76.46
700.532	84.65
700.728	-81.24
700.924	-142.68
701.119	-148.82
701.315	289.45
701.511	78.51
701.706	8.87
701.902	-202.07
702.097	197.29
702.293	254.63
702.489	8.87
702.684	-79.19
702.88	156.33
703.075	8.87
703.271	15.02
703.466	-195.92
703.662	176.81
703.857	197.29
704.053	-42.32
704.248	-114
704.443	238.25
704.639	326.31
704.834	0.68
705.03	-21.85
705.225	387.75
705.42	447.14
705.616	43.69
705.811	-75.09
706.006	119.46
706.202	82.6
706.397	25.26
706.592	-118.1
706.787	217.77
706.983	205.48
707.178	252.58
707.373	107.18
707.568	359.08
707.763	432.8
707.959	-91.48
708.154	-77.14
708.349	291.49
708.544	283.3
708.739	152.23
708.934	-144.72
709.129	303.78
709.324	410.28
709.519	-165.2
709.714	-173.39
709.909	408.23
710.104	230.06
710.299	-60.76
710.494	-3.41
710.689	369.32
710.884	135.85
711.079	29.35
711.274	178.86
711.469	285.35
711.664	238.25
711.859	-120.15
712.054	92.84
712.249	383.65
712.443	420.52
712.638	-89.43
712.833	-36.18
713.028	148.14
713.223	182.95
713.417	197.29
713.612	-46.42
713.807	332.45
714.002	725.66
714.196	236.2
714.391	-58.71
714.586	381.6
714.78	113.32
714.975	15.02
715.17	-64.85
715.364	98.99
715.559	484
715.754	-263.51
715.948	-99.67
716.143	686.75
716.337	236.2
716.532	225.96
716.726	-27.99
716.921	395.94
717.115	594.59
717.31	-152.92
717.504	467.62
717.699	94.89
717.893	473.76
718.088	-173.39
718.282	-163.15
718.476	283.3
718.671	311.97
718.865	-81.24
719.059	-68.95
719.254	213.67
719.448	479.91
719.642	254.63
719.837	-212.31
720.031	385.7
720.225	488.1
720.419	35.5
720.614	-23.89
720.808	484
721.002	185
721.196	-85.33
721.39	-25.94
721.585	475.81
721.779	232.1
721.973	-50.52
722.167	-193.87
722.361	225.96
722.555	461.48
722.749	-15.7
722.943	-15.7
723.137	-146.77
723.331	182.95
723.525	-11.61
723.719	-7.51
723.913	354.98
724.107	535.2
724.301	-222.55
724.495	37.55
724.689	623.27
724.883	518.82
725.077	-75.09
725.271	-85.33
725.465	492.2
725.659	187.05
725.853	45.74
726.046	-169.3
726.24	86.7
726.434	455.33
726.628	-30.04
726.822	-56.66
727.015	385.7
727.209	459.43
727.403	37.55
727.596	-140.63
727.79	420.52
727.984	473.76
728.177	-116.05
728.371	-13.65
728.565	453.28
728.758	-152.92
728.952	-163.15
729.146	-42.32
729.339	441
729.533	156.33
729.726	-85.33
729.92	-159.06
730.113	467.62
730.307	172.71
730.5	-46.42
730.694	-118.1
730.887	115.37
731.081	281.25
731.274	-142.68
731.468	-42.32
731.661	174.76
731.854	68.27
732.048	-46.42
732.241	-152.92
732.435	66.22
732.628	223.91
732.821	15.02
733.014	-48.47
733.208	-36.18
733.401	369.32
733.594	41.64
733.788	-68.95
733.981	524.96
734.174	225.96
734.367	-25.94
734.56	-27.99
734.754	459.43
734.947	180.9
735.14	-144.72
735.333	-91.48
735.526	326.31
735.719	19.11
735.912	-93.52
736.105	-91.48
736.298	209.58
736.491	27.31
736.684	-120.15
736.877	-60.76
737.07	268.97
737.263	479.91
737.456	-58.71
737.649	-148.82
737.842	103.08
738.035	139.94
738.228	31.4
738.421	111.27
738.614	494.24
738.807	422.56
739	-189.78
739.192	-75.09
739.385	236.2
739.578	486.05
739.771	230.06
739.964	-105.81
740.156	262.82
740.349	238.25
740.542	129.7
740.735	-109.91
740.927	-40.28
741.12	-111.96
741.313	-159.06
741.505	-3.41
741.698	223.91
741.891	297.64
742.083	82.6
742.276	-5.46
742.468	193.19
742.661	148.14
742.854	82.6
743.046	-109.91
743.239	500.39
743.431	109.22
743.624	27.31
743.816	-87.38
744.009	88.75
744.201	320.17
744.393	62.12
744.586	-111.96
744.778	557.73
744.971	139.94
745.163	15.02
745.355	113.32
745.548	244.39
745.74	115.37
745.932	17.07
746.125	-75.09
746.317	729.76
746.509	201.38
746.702	-64.85
746.894	-27.99
747.086	193.19
747.278	449.19
747.471	170.66
747.663	19.11
747.855	219.82
748.047	615.07
748.239	-64.85
748.431	-154.96
748.623	535.2
748.815	594.59
749.008	-191.83
749.2	-126.29
749.392	375.46
749.584	299.69
749.776	-77.14
749.968	-17.75
750.16	610.98
750.352	131.75
750.544	27.31
750.736	-114
750.928	328.36
751.12	121.51
751.311	-64.85
751.503	43.69
751.695	281.25
751.887	197.29
752.079	-259.41
752.271	-77.14
752.463	907.93
752.654	459.43
752.846	15.02
753.038	-79.19
753.23	64.17
753.421	389.8
753.613	49.83
753.805	133.8
753.997	436.9
754.188	453.28
754.38	-36.18
754.572	-15.7
754.763	111.27
754.955	369.32
755.146	76.46
755.338	-30.04
755.53	320.17
755.721	178.86
755.913	-216.4
756.104	-38.23
756.296	205.48
756.487	400.04
756.679	-109.91
756.87	10.92
757.062	158.38
757.253	361.13
757.445	-101.72
757.636	21.16
757.827	238.25
758.019	852.64
758.21	-191.83
758.401	45.74
758.593	660.13
758.784	438.95
758.975	-177.49
759.167	-146.77
759.358	152.23
759.549	406.18
759.74	33.45
759.932	-54.61
760.123	527.01
760.314	119.46
760.505	107.18
760.696	-64.85
760.888	541.35
761.079	123.56
761.27	-118.1
761.461	-134.48
761.652	565.92
761.843	111.27
762.034	-134.48
762.225	262.82
762.416	144.04
762.607	158.38
762.798	107.18
762.989	-77.14
763.18	914.08
763.371	84.65
763.562	-23.89
763.753	-7.51
763.944	438.95
764.135	443.04
764.326	113.32
764.517	-130.39
764.708	305.83
764.899	250.53
765.089	-30.04
765.28	-181.59
765.471	221.86
765.662	344.74
765.853	-1.37
766.043	-152.92
766.234	490.15
766.425	481.96
766.615	21.16
766.806	-169.3
766.997	549.54
767.187	326.31
767.378	-114
767.569	-230.74
767.759	377.51
767.95	303.78
768.141	115.37
768.331	-111.96
768.522	242.34
768.712	369.32
768.903	-173.39
769.093	-181.59
769.284	545.44
769.474	377.51
769.665	-206.16
769.855	-183.63
770.046	443.04
770.236	152.23
770.426	219.82
770.617	-152.92
770.807	361.13
770.998	162.47
771.188	90.79
771.378	-122.2
771.569	451.24
771.759	381.6
771.949	-99.67
772.139	-249.17
772.33	291.49
772.52	600.74
772.71	-48.47
772.9	-144.72
773.09	651.94
773.281	520.87
773.471	-122.2
773.661	-93.52
773.851	412.32
774.041	117.42
774.231	-159.06
774.421	41.64
774.611	625.31
774.802	221.86
774.992	31.4
775.182	-163.15
775.372	254.63
775.562	397.99
775.752	-95.57
775.942	-40.28
776.131	465.57
776.321	410.28
776.511	-48.47
776.701	-171.35
776.891	430.76
777.081	6.83
777.271	-36.18
777.461	-75.09
777.651	395.94
777.84	484
778.03	78.51
778.22	-83.28
778.41	590.5
778.599	-1.37
778.789	21.16
778.979	-159.06
779.169	316.07
779.358	305.83
779.548	295.59
779.738	-167.25
779.927	314.02
780.117	58.03
780.307	-11.61
780.496	-257.36
780.686	346.79
780.875	578.21
781.065	-103.76
781.254	-81.24
781.444	176.81
781.633	279.21
781.823	-93.52
782.012	-83.28
782.202	137.9
782.391	193.19
782.581	-193.87
782.77	105.13
782.96	307.88
783.149	135.85
783.338	8.87
783.528	-300.37
783.717	494.24
783.906	443.04
784.096	53.93
784.285	-152.92
784.474	98.99
784.663	105.13
784.853	-25.94
785.042	84.65
785.231	90.79
785.42	404.13
785.61	29.35
785.799	-179.54
785.988	62.12
786.177	117.42
786.366	-60.76
786.555	96.94
786.744	422.56
786.933	135.85
787.122	-132.44
787.312	-240.98
787.501	53.93
787.69	348.84
787.879	-111.96
788.068	-42.32
788.257	-36.18
788.445	41.64
788.634	-71
788.823	-257.36
789.012	803.49
789.201	500.39
789.39	8.87
789.579	-161.11
789.768	172.71
789.957	303.78
790.145	-146.77
790.334	-429.39
790.523	168.62
790.712	68.27
790.9	-9.56
791.089	-159.06
791.278	404.13
791.467	178.86
791.655	176.81
791.844	346.79
792.033	64.17
792.221	162.47
792.41	86.7
792.599	-150.87
792.787	352.93
792.976	412.32
793.164	-130.39
793.353	-62.8
793.541	318.12
793.73	336.55
793.918	-11.61
794.107	-93.52
794.295	185
794.484	195.24
794.672	-7.51
794.861	-146.77
795.049	297.64
795.238	627.36
795.426	-212.31
795.614	66.22
795.803	293.54
795.991	457.38
796.179	-40.28
796.368	-77.14
796.556	500.39
796.744	35.5
796.932	-87.38
797.121	-103.76
797.309	111.27
797.497	430.76
797.685	-56.66
797.874	-81.24
798.062	58.03
798.25	479.91
798.438	-206.16
798.626	-46.42
798.814	299.69
799.002	713.38
799.19	74.41
799.378	17.07
799.566	543.39
799.755	567.97
799.943	78.51
800.131	-46.42
800.318	305.83
800.506	295.59
800.694	-5.46
800.882	139.94
801.07	406.18
801.258	193.19
801.446	-111.96
801.634	-56.66
801.822	168.62
802.01	201.38
802.197	-175.44
802.385	82.6
802.573	189.1
802.761	25.26
802.949	-56.66
803.136	-152.92
803.324	463.52
803.512	144.04
803.699	103.08
803.887	-226.64
804.075	514.72
804.262	-36.18
804.45	-204.11
804.638	37.55
804.825	-87.38
805.013	19.11
805.201	-85.33
805.388	-148.82
805.576	178.86
805.763	484
805.951	-79.19
806.138	-52.56
806.326	643.74
806.513	307.88
806.701	-21.85
806.888	-128.34
807.075	318.12
807.263	664.22
807.45	-206.16
807.638	111.27
807.825	639.65
808.012	346.79
808.2	-23.89
808.387	262.82
808.574	309.93
808.761	479.91
808.949	-140.63
809.136	0.68
809.323	45.74
809.51	117.42
809.698	215.72
809.885	148.14
810.072	303.78
810.259	449.19
810.446	19.11
810.633	-152.92
810.82	492.2
811.008	582.31
811.195	0.68
811.382	-7.51
811.569	127.66
811.756	-38.23
811.943	15.02
812.13	-144.72
812.317	94.89
812.504	53.93
812.691	43.69
812.878	-23.89
813.064	496.29
813.251	215.72
813.438	-148.82
813.625	123.56
813.812	164.52
813.999	148.14
814.186	-7.51
814.372	10.92
814.559	225.96
814.746	524.96
814.933	-109.91
815.12	172.71
815.306	-13.65
815.493	-52.56
815.68	-152.92
815.866	-54.61
816.053	443.04
816.24	602.79
816.426	60.07
816.613	-187.73
816.799	412.32
816.986	475.81
817.173	-23.89
817.359	-38.23
817.546	275.11
817.732	-87.38
817.919	-326.99
818.105	37.55
818.292	131.75
818.478	332.45
818.665	115.37
818.851	-107.86
819.037	778.91
819.224	187.05
819.41	-136.53
819.597	-144.72
819.783	666.27
819.969	248.49
820.156	19.11
820.342	-197.97
820.528	901.79
820.714	189.1
820.901	176.81
821.087	-25.94
821.273	541.35
821.459	131.75
821.646	-48.47
821.832	-191.83
822.018	193.19
822.204	324.26
822.39	6.83
822.576	-212.31
822.762	299.69
822.948	187.05
823.134	189.1
823.32	-97.62
823.507	-126.29
823.693	328.36
823.879	391.84
824.065	-73.04
824.25	207.53
824.436	-66.9
824.622	-38.23
824.808	-134.48
824.994	64.17
825.18	43.69
825.366	-200.02
825.552	-81.24
825.738	164.52
825.923	387.75
826.109	209.58
826.295	-148.82
826.481	6.83
826.667	113.32
826.852	98.99
827.038	-54.61
827.224	438.95
827.409	619.17
827.595	-126.29
827.781	160.42
827.966	504.48
828.152	424.61
828.338	-3.41
828.523	-171.35
828.709	25.26
828.894	459.43
829.08	-101.72
829.266	-73.04
829.451	2.73
829.637	397.99
829.822	84.65
830.008	-93.52
830.193	434.85
830.378	604.83
830.564	-11.61
830.749	-19.8
830.935	324.26
831.12	373.41
831.305	-46.42
831.491	31.4
831.676	-64.85
831.861	414.37
832.047	-7.51
832.232	-128.34
832.417	477.86
832.602	185
832.788	-97.62
832.973	-114
833.158	213.67
833.343	221.86
833.528	-9.56
833.714	33.45
833.899	328.36
834.084	672.42
834.269	80.55
834.454	12.97
834.639	414.37
834.824	176.81
835.009	125.61
835.194	62.12
835.379	352.93
835.564	574.11
835.749	51.88
835.934	-183.63
836.119	402.08
836.304	219.82
836.489	-163.15
836.674	199.34
836.859	148.14
837.044	492.2
837.228	66.22
837.413	-122.2
837.598	309.93
837.783	369.32
837.968	-5.46
838.152	-83.28
838.337	-245.07
838.522	500.39
838.707	410.28
838.891	133.8
839.076	352.93
839.261	475.81
839.445	15.02
839.63	58.03
839.815	623.27
839.999	281.25
840.184	-56.66
840.368	-46.42
840.553	404.13
840.737	381.6
840.922	-200.02
841.106	-220.5
841.291	-64.85
841.475	238.25
841.66	-15.7
841.844	33.45
842.029	871.07
842.213	-101.72
842.397	-7.51
842.582	-206.16
842.766	508.58
842.951	383.65
843.135	4.78
843.319	70.31
843.504	248.49
843.688	465.57
843.872	-251.22
844.056	-114
844.241	371.36
844.425	246.44
844.609	201.38
844.793	-308.56
844.977	410.28
845.161	275.11
845.346	-193.87
845.53	-11.61
845.714	236.2
845.898	649.89
846.082	-200.02
846.266	-46.42
846.45	281.25
846.634	297.64
846.818	-97.62
847.002	101.03
847.186	365.22
847.37	-15.7
847.554	-130.39
847.738	58.03
847.922	275.11
848.106	357.03
848.29	-122.2
848.473	-95.57
848.657	375.46
848.841	178.86
849.025	-27.99
849.209	-146.77
849.392	377.51
849.576	156.33
849.76	-269.65
849.944	137.9
850.127	623.27
850.311	-152.92
850.495	-212.31
850.678	-175.44
850.862	565.92
851.046	613.03
851.229	258.73
851.413	-42.32
851.596	215.72
851.78	234.15
851.964	125.61
852.147	-38.23
852.331	985.76
852.514	410.28
852.698	45.74
852.881	-169.3
853.065	477.86
853.248	311.97
853.431	98.99
853.615	74.41
853.798	764.57
853.982	318.12
854.165	133.8
854.348	-32.08
854.532	10.92
854.715	88.75
854.898	-27.99
855.081	19.11
855.265	629.41
855.448	518.82
855.631	-79.19
855.814	-27.99
855.997	473.76
856.181	277.16
856.364	27.31
856.547	-195.92
856.73	336.55
856.913	248.49
857.096	-218.45
857.279	119.46
857.462	103.08
857.645	449.19
857.828	53.93
858.011	88.75
858.194	137.9
858.377	418.47
858.56	-64.85
858.743	-44.37
858.926	31.4
859.109	367.27
859.292	-36.18
859.475	-87.38
859.658	524.96
859.841	336.55
860.023	-77.14
860.206	-114
860.389	228.01
860.572	596.64
860.755	4.78
860.937	-30.04
861.12	193.19
861.303	238.25
861.486	12.97
861.668	-40.28
861.851	359.08
862.034	311.97
862.216	105.13
862.399	-208.21
862.581	467.62
862.764	672.42
862.947	-5.46
863.129	-73.04
863.312	35.5
863.494	610.98
863.677	350.89
863.859	-159.06
864.042	328.36
864.224	608.93
864.406	-7.51
864.589	-89.43
864.771	373.41
864.954	-7.51
865.136	-120.15
865.318	-232.79
865.501	463.52
865.683	-173.39
865.865	-38.23
866.048	-19.8
866.23	318.12
866.412	236.2
866.594	-134.48
866.777	164.52
866.959	471.72
867.141	2.73
867.323	268.97
867.505	129.7
867.687	230.06
867.869	180.9
868.052	107.18
868.234	-36.18
868.416	185
868.598	354.98
868.78	-97.62
868.962	-126.29
869.144	506.53
869.326	488.1
869.508	6.83
869.69	-130.39
869.872	123.56
870.054	463.52
870.236	-97.62
870.417	-73.04
870.599	170.66
870.781	641.7
870.963	84.65
871.145	-79.19
871.327	-48.47
871.508	389.8
871.69	2.73
871.872	-62.8
872.054	211.62
872.235	367.27
872.417	76.46
872.599	-140.63
872.78	578.21
872.962	242.34
873.144	-163.15
873.325	0.68
873.507	606.88
873.689	275.11
873.87	-126.29
874.052	55.98
874.233	205.48
874.415	533.15
874.596	-32.08
874.778	-177.49
874.959	203.43
875.141	545.44
875.322	4.78
875.503	-101.72
875.685	316.07
875.866	-148.82
876.048	-150.87
876.229	-245.07
876.41	201.38
876.592	328.36
876.773	-157.01
876.954	-177.49
877.136	565.92
877.317	213.67
877.498	-138.58
877.679	-3.41
877.86	383.65
878.042	211.62
878.223	-103.76
878.404	305.83
878.585	330.41
878.766	711.33
878.947	148.14
879.128	146.09
879.309	387.75
879.49	543.39
879.672	-36.18
879.853	-5.46
880.034	25.26
880.215	150.18
880.396	82.6
880.576	-52.56
880.757	45.74
880.938	549.54
881.119	-214.35
881.3	-118.1
881.481	160.42
881.662	977.56
881.843	-116.05
882.023	-185.68
882.204	262.82
882.385	172.71
882.566	-68.95
882.747	-89.43
882.927	217.77
883.108	344.74
883.289	-95.57
883.469	109.22
883.65	111.27
883.831	275.11
884.011	70.31
884.192	-103.76
884.373	471.72
884.553	352.93
884.734	45.74
884.914	189.1
885.095	893.6
885.275	535.2
885.456	215.72
885.636	-191.83
885.817	193.19
885.997	213.67
886.178	-154.96
886.358	68.27
886.538	234.15
886.719	1217.18
886.899	-126.29
887.08	25.26
887.26	465.57
887.44	-3.41
887.621	-183.63
887.801	4.78
887.981	787.1
888.161	373.41
888.342	-56.66
888.522	-36.18
888.702	504.48
888.882	418.47
889.062	60.07
889.242	-236.88
889.423	666.27
889.603	369.32
889.783	101.03
889.963	-71
890.143	461.48
890.323	549.54
890.503	-34.13
890.683	41.64
890.863	260.77
891.043	328.36
891.223	23.21
891.403	107.18
891.583	275.11
891.763	264.87
891.943	60.07
892.122	-40.28
892.302	215.72
892.482	197.29
892.662	78.51
892.842	-48.47
893.022	256.68
893.201	80.55
893.381	137.9
893.561	-71
893.741	416.42
893.92	305.83
894.1	105.13
894.28	62.12
894.459	375.46
894.639	289.45
894.819	-21.85
894.998	25.26
895.178	291.49
895.357	197.29
895.537	-11.61
895.716	-173.39
895.896	185
896.075	576.16
896.255	78.51
896.434	-204.11
896.614	473.76
896.793	598.69
896.973	197.29
897.152	58.03
897.331	309.93
897.511	434.85
897.69	-210.26
897.87	92.84
898.049	367.27
898.228	178.86
898.407	258.73
898.587	135.85
898.766	80.55
898.945	389.8
899.124	236.2
899.304	74.41
899.483	369.32
899.662	604.83
899.841	-97.62
900.02	55.98
900.199	475.81
900.378	416.42
900.557	-91.48
900.737	-146.77
900.916	432.8
901.095	484
901.274	193.19
901.453	-93.52
901.632	90.79
901.811	66.22
901.989	-32.08
902.168	-81.24
902.347	461.48
902.526	172.71
902.705	-5.46
902.884	82.6
903.063	514.72
903.242	559.78
903.42	-68.95
903.599	98.99
903.778	426.66
903.957	721.57
904.135	133.8
904.314	98.99
904.493	363.17
904.672	402.08
904.85	64.17
905.029	-48.47
905.207	354.98
905.386	963.23
905.565	-79.19
905.743	-11.61
905.922	135.85
906.1	475.81
906.279	-62.8
906.457	-11.61
906.636	90.79
906.814	176.81
906.993	8.87
907.171	-40.28
907.35	445.09
907.528	504.48
907.707	266.92
907.885	-118.1
908.063	639.65
908.242	78.51
908.42	-50.52
908.598	-128.34
908.777	490.15
908.955	166.57
909.133	103.08
909.311	-179.54
909.49	182.95
909.668	215.72
909.846	64.17
910.024	-136.53
910.202	275.11
910.38	404.13
910.559	-134.48
910.737	-13.65
910.915	324.26
911.093	375.46
911.271	4.78
911.449	172.71
911.627	451.24
911.805	744.1
911.983	37.55
912.161	-73.04
912.339	365.22
912.517	619.17
912.695	133.8
912.872	53.93
913.05	53.93
913.228	281.25
913.406	43.69
913.584	-58.71
913.762	500.39
913.939	170.66
914.117	-111.96
914.295	-60.76
914.473	463.52
914.65	326.31
914.828	-15.7
915.006	-40.28
915.184	2.73
915.361	350.89
915.539	80.55
915.716	250.53
915.894	199.34
916.072	459.43
916.249	156.33
916.427	205.48
916.604	25.26
916.782	408.23
916.959	-73.04
917.137	8.87
917.314	354.98
917.492	418.47
917.669	174.76
917.847	156.33
918.024	332.45
918.201	41.64
918.379	172.71
918.556	45.74
918.733	510.63
918.911	232.1
919.088	209.58
919.265	23.21
919.442	365.22
919.62	230.06
919.797	-36.18
919.974	-73.04
920.151	324.26
920.328	256.68
920.506	-95.57
920.683	193.19
920.86	101.03
921.037	68.27
921.214	43.69
921.391	-58.71
921.568	514.72
921.745	150.18
921.922	96.94
922.099	-36.18
922.276	543.39
922.453	320.17
922.63	-46.42
922.807	293.54
922.984	223.91
923.161	127.66
923.338	-19.8
923.514	-68.95
923.691	252.58
923.868	332.45
924.045	-19.8
924.222	-103.76
924.399	311.97
924.575	582.31
924.752	64.17
924.929	105.13
925.105	373.41
925.282	117.42
925.459	19.11
925.635	78.51
925.812	273.06
925.989	117.42
926.165	98.99
926.342	-79.19
926.518	53.93
926.695	287.4
926.871	-5.46
927.048	-105.81
927.224	377.51
927.401	230.06
927.577	129.7
927.754	-152.92
927.93	488.1
928.107	305.83
928.283	-73.04
928.459	168.62
928.636	367.27
928.812	160.42
928.988	-3.41
929.165	-85.33
929.341	182.95
929.517	295.59
929.693	248.49
929.87	-175.44
930.046	375.46
930.222	123.56
930.398	6.83
930.574	96.94
930.751	248.49
930.927	105.13
931.103	51.88
931.279	12.97
931.455	45.74
931.631	332.45
931.807	-200.02
931.983	-62.8
932.159	-120.15
932.335	275.11
932.511	37.55
932.687	-3.41
932.863	283.3
933.039	201.38
933.215	-146.77
933.391	-101.72
933.566	287.4
933.742	228.01
933.918	10.92
934.094	-261.46
934.27	232.1
934.445	209.58
934.621	25.26
934.797	-21.85
934.973	457.38
935.148	322.21
935.324	-13.65
935.5	-261.46
935.675	496.29
935.851	285.35
936.027	82.6
936.202	62.12
936.378	320.17
936.553	230.06
936.729	348.84
936.904	-36.18
937.08	-73.04
937.255	88.75
937.431	-146.77
937.606	-128.34
937.782	197.29
937.957	318.12
938.133	21.16
938.308	-77.14
938.483	172.71
938.659	72.36
938.834	94.89
939.009	66.22
939.185	117.42
939.36	41.64
939.535	-220.5
939.71	107.18
939.886	500.39
940.061	420.52
940.236	211.62
940.411	-79.19
940.586	305.83
940.761	291.49
940.937	55.98
941.112	-130.39
941.287	238.25
941.462	191.14
941.637	-111.96
941.812	49.83
941.987	316.07
942.162	66.22
942.337	31.4
942.512	-52.56
942.687	443.04
942.862	422.56
943.037	-122.2
943.212	-277.84
943.386	152.23
943.561	203.43
943.736	180.9
943.911	271.01
944.086	332.45
944.26	223.91
944.435	-50.52
944.61	96.94
944.785	484
944.959	578.21
945.134	23.21
945.309	-144.72
945.483	39.59
945.658	404.13
945.833	-222.55
946.007	-128.34
946.182	506.53
946.357	-68.95
946.531	-130.39
946.706	-165.2
946.88	-220.5
947.055	283.3
947.229	-83.28
947.404	-185.68
947.578	426.66
947.752	12.97
947.927	-208.21
948.101	-226.64
948.276	203.43
948.45	168.62
948.624	-25.94
948.799	-157.01
948.973	320.17
949.147	-68.95
949.321	-38.23
949.496	-71
949.67	314.02
949.844	137.9
950.018	-27.99
950.193	-19.8
950.367	561.83
950.541	51.88
950.715	19.11
950.889	8.87
951.063	47.79
951.237	350.89
951.411	-318.8
951.585	-265.55
951.759	217.77
951.933	68.27
952.107	-124.24
952.281	-15.7
952.455	565.92
952.629	307.88
952.803	-130.39
952.977	-118.1
953.151	301.73
953.325	305.83
953.499	94.89
953.672	-167.25
953.846	-27.99
954.02	8.87
954.194	-247.12
954.368	-163.15
954.541	287.4
954.715	35.5
954.889	-1.37
955.062	-167.25
955.236	33.45
955.41	53.93
955.583	49.83
955.757	-326.99
955.93	12.97
956.104	-200.02
956.278	-134.48
956.451	-85.33
956.625	236.2
956.798	502.43
956.972	49.83
957.145	-169.3
957.319	213.67
957.492	111.27
957.665	-32.08
957.839	-202.07
958.012	262.82
958.185	70.31
958.359	-142.68
958.532	119.46
958.705	260.77
958.879	168.62
959.052	10.92
959.225	-310.61
959.398	60.07
959.572	225.96
959.745	-99.67
959.918	27.31
960.091	72.36
960.264	217.77
960.438	-152.92
960.611	-234.83
960.784	397.99
960.957	37.55
961.13	287.4
961.303	-224.59
961.476	113.32
961.649	264.87
961.822	-167.25
961.995	-40.28
962.168	264.87
962.341	228.01
962.514	-77.14
962.686	-220.5
962.859	223.91
963.032	279.21
963.205	-195.92
963.378	-294.22
963.551	170.66
963.723	115.37
963.896	35.5
964.069	-46.42
964.242	178.86
964.414	352.93
964.587	-27.99
964.76	-17.75
964.932	207.53
965.105	117.42
965.278	-107.86
965.45	-183.63
965.623	170.66
965.795	262.82
965.968	-101.72
966.14	-118.1
966.313	12.97
966.485	215.72
966.658	-60.76
966.83	-163.15
967.003	426.66
967.175	340.65
967.348	-75.09
967.52	-130.39
967.692	404.13
967.865	238.25
968.037	-85.33
968.209	258.73
968.382	74.41
968.554	279.21
968.726	-163.15
968.898	-85.33
969.071	154.28
969.243	258.73
969.415	-68.95
969.587	-48.47
969.759	598.69
969.932	328.36
970.104	-56.66
970.276	-351.57
970.448	-11.61
970.62	37.55
970.792	51.88
970.964	-64.85
971.136	629.41
971.308	260.77
971.48	-122.2
971.652	-118.1
971.824	574.11
971.996	101.03
972.168	-56.66
972.339	-54.61
972.511	365.22
972.683	137.9
972.855	86.7
973.027	-93.52
973.199	131.75
973.37	262.82
973.542	72.36
973.714	88.75
973.886	123.56
974.057	453.28
974.229	-179.54
974.401	-60.76
974.572	-83.28
974.744	-220.5
974.915	-171.35
975.087	-114
975.259	471.72
975.43	-15.7
975.602	-81.24
975.773	-165.2
975.945	-71
976.116	248.49
976.288	-101.72
976.459	49.83
976.63	17.07
976.802	324.26
976.973	-101.72
977.145	27.31
977.316	567.97
977.487	207.53
977.659	-30.04
977.83	-21.85
978.001	572.07
978.172	213.67
978.344	-212.31
978.515	-56.66
978.686	60.07
978.857	561.83
979.028	-99.67
979.2	-148.82
979.371	432.8
979.542	217.77
979.713	66.22
979.884	-496.97
980.055	-56.66
980.226	62.12
980.397	-114
980.568	-240.98
980.739	418.47
980.91	148.14
981.081	109.22
981.252	-220.5
981.423	295.59
981.594	393.89
981.765	-204.11
981.936	-19.8
982.106	182.95
982.277	377.51
982.448	-124.24
982.619	70.31
982.79	109.22
982.96	410.28
983.131	72.36
983.302	-318.8
983.472	78.51
983.643	252.58
983.814	68.27
983.984	-42.32
984.155	90.79
984.326	340.65
984.496	117.42
984.667	-118.1
984.837	31.4
985.008	393.89
985.178	27.31
985.349	-34.13
985.519	125.61
985.69	19.11
985.86	-1.37
986.031	-150.87
986.201	156.33
986.371	275.11
986.542	-187.73
986.712	-259.41
986.882	283.3
987.053	189.1
987.223	-173.39
987.393	12.97
987.563	4.78
987.734	252.58
987.904	225.96
988.074	-107.86
988.244	150.18
988.414	25.26
988.585	-214.35
988.755	12.97
988.925	66.22
989.095	434.85
989.265	-99.67
989.435	-64.85
989.605	332.45
989.775	252.58
989.945	180.9
990.115	-253.27
990.285	129.7
990.455	189.1
990.625	-50.52
990.795	-181.59
990.965	494.24
991.134	-89.43
991.304	-159.06
991.474	-58.71
991.644	225.96
991.814	443.04
991.984	-218.45
992.153	-128.34
992.323	78.51
992.493	98.99
992.662	-355.66
992.832	29.35
993.002	166.57
993.171	246.44
993.341	-355.66
993.511	-19.8
993.68	-27.99
993.85	244.39
994.019	-326.99
994.189	-206.16
994.358	215.72
994.528	-5.46
994.697	-394.58
994.867	-281.94
995.036	303.78
995.206	39.59
995.375	-197.97
995.544	-30.04
995.714	185
995.883	17.07
996.052	-17.75
996.222	-318.8
996.391	584.35
996.56	156.33
996.73	-265.55
996.899	-324.94
997.068	434.85
997.237	137.9
997.406	-234.83
997.576	-288.08
997.745	60.07
997.914	191.14
998.083	-386.38
998.252	-206.16
998.421	148.14
998.59	-50.52
998.759	-329.04
998.928	-349.52
999.097	311.97
999.266	137.9
999.435	-62.8
999.604	-333.14
999.773	600.74
999.942	66.22
1000.111	-365.9
1000.28	-343.38
1000.448	-134.48
1000.617	-134.48
1000.786	-46.42
1000.955	-292.18
1001.124	111.27
1001.292	735.9
1001.461	-234.83
1001.63	-273.75
1001.798	412.32
1001.967	379.56
1002.136	-300.37
1002.304	-202.07
1002.473	172.71
1002.642	53.93
1002.81	-105.81
1002.979	-271.7
1003.147	266.92
1003.316	613.03
1003.484	-296.27
1003.653	-320.85
1003.821	397.99
1003.99	-5.46
1004.158	-32.08
1004.327	-109.91
1004.495	242.34
1004.663	-138.58
1004.832	-107.86
1005	-355.66
1005.168	246.44
1005.337	182.95
1005.505	-388.43
1005.673	-77.14
1005.842	246.44
1006.01	162.47
1006.178	-316.75
1006.346	-279.89
1006.514	215.72
1006.683	275.11
1006.851	-259.41
1007.019	-357.71
1007.187	-167.25
1007.355	-363.86
1007.523	-345.42
1007.691	-431.44
1007.859	-152.92
1008.027	387.75
1008.195	-179.54
1008.363	-345.42
1008.531	334.5
1008.699	-36.18
1008.867	-349.52
1009.035	-304.46
1009.203	395.94
1009.37	131.75
1009.538	-224.59
1009.706	195.24
1009.874	201.38
1010.042	15.02
1010.209	-345.42
1010.377	-312.66
1010.545	275.11
1010.713	103.08
1010.88	-255.31
1011.048	-200.02
1011.216	25.26
1011.383	432.8
1011.551	-304.46
1011.718	-343.38
1011.886	305.83
1012.054	105.13
1012.221	-286.03
1012.389	-324.94
1012.556	109.22
1012.724	504.48
1012.891	-114
1013.058	-406.86
1013.226	283.3
1013.393	260.77
1013.561	-423.25
1013.728	-439.63
1013.895	303.78
1014.063	248.49
1014.23	-419.15
1014.397	-288.08
1014.565	285.35
1014.732	-73.04
1014.899	-298.32
1015.066	-429.39
1015.233	174.76
1015.401	281.25
1015.568	-159.06
1015.735	-200.02
1015.902	225.96
1016.069	156.33
1016.236	-245.07
1016.403	-263.51
1016.57	-99.67
1016.737	314.02
1016.904	-214.35
1017.071	-337.23
1017.238	-77.14
1017.405	316.07
1017.572	-243.03
1017.739	8.87
1017.906	189.1
1018.073	258.73
1018.24	-324.94
1018.407	-138.58
1018.573	232.1
1018.74	80.55
1018.907	-251.22
1019.074	-326.99
1019.241	375.46
1019.407	70.31
1019.574	-283.99
1019.741	-343.38
1019.907	176.81
1020.074	223.91
1020.241	-496.97
1020.407	-406.86
1020.574	287.4
1020.74	273.06
1020.907	-224.59
1021.073	-429.39
1021.24	512.67
1021.406	377.51
1021.573	-339.28
1021.739	-273.75
1021.906	352.93
1022.072	72.36
1022.239	-267.6
1022.405	-238.93
1022.571	160.42
1022.738	-130.39
1022.904	-243.03
1023.07	-236.88
1023.237	172.71
1023.403	361.13
1023.569	-267.6
1023.735	-126.29
1023.902	238.25
1024.068	180.9
1024.234	-253.27
1024.4	-324.94
1024.566	199.34
1024.732	330.41
1024.898	-255.31
1025.065	-392.53
1025.231	303.78
1025.397	-23.89
1025.563	-173.39
1025.729	-329.04
1025.895	-228.69
1026.061	-140.63
1026.227	-404.82
1026.392	-281.94
1026.558	320.17
1026.724	146.09
1026.89	-341.33
1027.056	-212.31
1027.222	197.29
1027.388	19.11
1027.553	-263.51
1027.719	-331.09
1027.885	524.96
1028.051	242.34
1028.216	-419.15
1028.382	-212.31
1028.548	350.89
1028.713	-15.7
1028.879	-316.75
1029.045	-105.81
1029.21	420.52
1029.376	377.51
1029.541	-204.11
1029.707	-191.83
1029.873	240.29
1030.038	322.21
1030.204	-286.03
1030.369	-238.93
1030.534	377.51
1030.7	62.12
1030.865	-204.11
1031.031	-294.22
1031.196	221.86
1031.361	178.86
1031.527	-234.83
1031.692	-349.52
1031.857	-226.64
1032.023	277.16
1032.188	-361.81
1032.353	-294.22
1032.518	484
1032.684	213.67
1032.849	-408.91
1033.014	-146.77
1033.179	252.58
1033.344	176.81
1033.509	-144.72
1033.674	-224.59
1033.839	281.25
1034.004	311.97
1034.17	-277.84
1034.335	-343.38
1034.5	-5.46
1034.664	-32.08
1034.829	-300.37
1034.994	-257.36
1035.159	199.34
1035.324	197.29
1035.489	-265.55
1035.654	-243.03
1035.819	459.43
1035.984	230.06
1036.148	-208.21
1036.313	-243.03
1036.478	365.22
1036.643	129.7
1036.807	-265.55
1036.972	-353.62
1037.137	418.47
1037.301	277.16
1037.466	-347.47
1037.631	-216.4
1037.795	338.6
1037.96	248.49
1038.124	-25.94
1038.289	-314.7
1038.454	299.69
1038.618	252.58
1038.783	-193.87
1038.947	-120.15
1039.111	205.48
1039.276	31.4
1039.44	-302.42
1039.605	271.01
1039.769	70.31
1039.933	187.05
1040.098	-200.02
1040.262	-44.37
1040.426	291.49
1040.591	309.93
1040.755	-349.52
1040.919	-253.27
1041.083	193.19
1041.248	6.83
1041.412	-341.33
1041.576	-294.22
1041.74	51.88
1041.904	344.74
1042.068	-257.36
1042.232	-255.31
1042.397	328.36
1042.561	205.48
1042.725	-417.1
1042.889	-75.09
1043.053	332.45
1043.217	365.22
1043.381	-124.24
1043.544	-331.09
1043.708	367.27
1043.872	-95.57
1044.036	-513.36
1044.2	-390.48
1044.364	434.85
1044.528	461.48
1044.691	3058.3
1044.855	-343.38
1045.019	316.07
1045.183	293.54
1045.346	-157.01
1045.51	-286.03
1045.674	285.35
1045.837	301.73
1046.001	-161.11
1046.165	-212.31
1046.328	664.22
1046.492	266.92
1046.655	-81.24
1046.819	-142.68
1046.983	72.36
1047.146	342.69
1047.31	-118.1
1047.473	-345.42
1047.636	215.72
1047.8	-5.46
1047.963	-187.73
1048.127	-173.39
1048.29	-48.47
