Data from Ink_Intensity_USB4F045381__78__00078.txt Node

Date: Mon Jul 17 10:55:07 EDT 2023
User: mmckonesweet
Spectrometer: USB4F04538
Trigger mode: 4
Integration Time (sec): 9.000000E-1
Scans to average: 1
Electric dark correction enabled: true
Nonlinearity correction enabled: false
Boxcar width: 0
XAxis mode: Wavelengths
Number of Pixels in Spectrum: 3648
>>>>>Begin Spectral Data<<<<<
345.52	-1006.41
345.736	-1006.41
345.952	-1006.41
346.168	-990.02
346.384	-977.73
346.6	-166.74
346.816	-205.65
347.032	-187.22
347.248	257.19
347.464	-273.23
347.68	-82.77
347.896	134.31
348.112	375.97
348.328	-43.86
348.544	-50
348.76	11.43
348.975	230.57
349.191	-187.22
349.407	-125.78
349.623	183.46
349.839	27.82
350.055	-121.68
350.27	146.6
350.486	236.71
350.702	384.16
350.918	267.43
351.133	-123.73
351.349	203.94
351.565	502.95
351.781	-144.21
351.996	31.91
352.212	384.16
352.428	-76.63
352.644	-80.72
352.859	-197.46
353.075	273.57
353.291	160.94
353.506	-47.96
353.722	-219.99
353.938	17.58
354.153	543.91
354.369	222.38
354.584	-154.45
354.8	332.97
355.016	-238.42
355.231	-154.45
355.447	-2.9
355.662	265.38
355.878	857.25
356.093	-238.42
356.309	-2.9
356.524	-138.07
356.74	328.87
356.955	-199.51
357.171	38.06
357.386	238.76
357.602	-154.45
357.817	-19.29
358.033	-105.3
358.248	423.08
358.464	220.33
358.679	11.43
358.895	-211.79
359.11	83.11
359.325	330.92
359.541	109.74
359.756	68.78
359.972	-234.32
360.187	287.91
360.402	-115.54
360.618	-86.87
360.833	1076.38
361.048	253.09
361.264	-129.88
361.479	-21.33
361.694	36.01
361.909	242.85
362.125	-105.3
362.34	-76.63
362.555	312.49
362.77	185.51
362.986	-176.98
363.201	-86.87
363.416	234.66
363.631	205.99
363.847	-156.5
364.062	-142.16
364.277	289.96
364.492	107.69
364.707	-68.44
364.922	-283.47
365.138	332.97
365.353	527.52
365.568	-195.41
365.783	-162.64
365.998	160.94
366.213	642.21
366.428	-154.45
366.643	212.14
366.858	418.98
367.073	341.16
367.288	107.69
367.503	-119.64
367.718	167.08
367.933	398.5
368.148	-158.55
368.363	42.15
368.578	21.67
368.793	611.49
369.008	-99.16
369.223	-154.45
369.438	259.24
369.653	515.23
369.868	-113.49
370.083	-148.31
370.298	169.13
370.513	474.28
370.728	177.32
370.943	-19.29
371.157	-80.72
371.372	642.21
371.587	-150.36
371.802	-113.49
372.017	130.22
372.232	464.04
372.446	1.19
372.661	-72.53
372.876	359.59
373.091	240.81
373.306	21.67
373.52	-140.12
373.735	-4.95
373.95	588.96
374.165	-70.48
374.379	42.15
374.594	64.68
374.809	257.19
375.023	158.89
375.238	-158.55
375.453	390.31
375.667	-97.11
375.882	7.34
376.097	-31.57
376.311	124.07
376.526	171.18
376.741	-41.81
376.955	273.57
377.17	685.22
377.384	713.89
377.599	93.35
377.813	-138.07
378.028	681.12
378.242	314.53
378.457	66.73
378.672	-154.45
378.886	228.52
379.101	40.11
379.315	-248.66
379.53	-31.57
379.744	296.1
379.958	365.73
380.173	33.96
380.387	-2.9
380.602	332.97
380.816	23.72
381.031	42.15
381.245	-4.95
381.459	382.12
381.674	912.54
381.888	-93.01
382.103	195.75
382.317	-72.53
382.531	717.98
382.746	144.55
382.96	23.72
383.174	13.48
383.388	572.58
383.603	179.37
383.817	-58.2
384.031	345.25
384.246	625.83
384.46	214.18
384.674	539.81
384.888	173.22
385.103	341.16
385.317	-107.35
385.531	162.98
385.745	591.01
385.959	492.71
386.174	60.59
386.388	-90.96
386.602	251.05
386.816	-25.43
387.03	148.65
387.244	132.26
387.458	269.48
387.672	588.96
387.887	-43.86
388.101	-21.33
388.315	545.95
388.529	427.17
388.743	42.15
388.957	38.06
389.171	509.09
389.385	66.73
389.599	25.77
389.813	341.16
390.027	437.41
390.241	877.73
390.455	126.12
390.669	156.84
390.883	154.79
391.097	560.29
391.311	318.63
391.525	91.31
391.738	496.8
391.952	418.98
392.166	300.2
392.38	48.3
392.594	570.53
392.808	672.93
393.022	218.28
393.236	115.88
393.449	517.28
393.663	461.99
393.877	9.39
394.091	197.8
394.305	234.66
394.518	177.32
394.732	66.73
394.946	169.13
395.16	763.04
395.373	341.16
395.587	115.88
395.801	173.22
396.015	666.78
396.228	566.43
396.442	144.55
396.656	29.87
396.869	677.02
397.083	738.46
397.297	249
397.51	259.24
397.724	703.65
397.938	435.36
398.151	7.34
398.365	42.15
398.578	459.94
398.792	793.76
399.005	312.49
399.219	246.95
399.433	476.32
399.646	523.43
399.86	390.31
400.073	400.55
400.287	668.83
400.5	328.87
400.714	322.73
400.927	314.53
401.141	679.07
401.354	1504.4
401.567	566.43
401.781	107.69
401.994	666.78
402.208	1059.99
402.421	351.4
402.635	246.95
402.848	504.99
403.061	683.17
403.275	421.03
403.488	273.57
403.701	894.11
403.915	672.93
404.128	386.21
404.341	306.34
404.555	646.3
404.768	418.98
404.981	466.08
405.195	242.85
405.408	926.88
405.621	799.9
405.834	554.15
406.048	259.24
406.261	814.24
406.474	908.44
406.687	347.3
406.9	523.43
407.114	570.53
407.327	660.64
407.54	148.65
407.753	236.71
407.966	398.5
408.179	797.85
408.392	296.1
408.605	259.24
408.819	705.7
409.032	648.35
409.245	464.04
409.458	642.21
409.671	773.28
409.884	814.24
410.097	208.04
410.31	535.71
410.523	773.28
410.736	523.43
410.949	394.4
411.162	427.17
411.375	1037.47
411.588	867.49
411.801	646.3
412.014	324.77
412.227	533.67
412.44	474.28
412.653	445.6
412.865	656.54
413.078	951.45
413.291	834.72
413.504	496.8
413.717	437.41
413.93	894.11
414.143	533.67
414.356	570.53
414.568	343.21
414.781	1033.37
414.994	717.98
415.207	599.2
415.42	599.2
415.632	959.64
415.845	1092.76
416.058	320.68
416.271	455.84
416.483	691.36
416.696	1129.63
416.909	521.38
417.121	582.82
417.334	959.64
417.547	1246.36
417.759	541.86
417.972	533.67
418.185	677.02
418.397	980.12
418.61	541.86
418.823	584.87
419.035	1213.59
419.248	873.63
419.46	627.87
419.673	744.61
419.885	910.49
420.098	806.05
420.311	599.2
420.523	412.84
420.736	978.08
420.948	908.44
421.161	646.3
421.373	500.9
421.586	906.4
421.798	738.46
422.01	525.47
422.223	711.84
422.435	717.98
422.648	1053.85
422.86	744.61
423.073	681.12
423.285	1172.63
423.497	619.68
423.71	617.63
423.922	683.17
424.134	947.36
424.347	1420.44
424.559	890.01
424.771	1049.75
424.984	844.96
425.196	1076.38
425.408	558.24
425.621	648.35
425.833	1268.89
426.045	1334.42
426.257	650.4
426.47	758.94
426.682	1207.45
426.894	1221.78
427.106	771.23
427.318	875.68
427.531	1076.38
427.743	1289.37
427.955	787.61
428.167	1272.98
428.379	1256.6
428.591	1068.19
428.804	902.3
429.016	861.34
429.228	1019.04
429.44	1266.84
429.652	1143.96
429.864	869.53
430.076	1174.68
430.288	1189.02
430.5	1004.7
430.712	1045.66
430.924	1434.77
431.136	1223.83
431.348	797.85
431.56	912.54
431.772	1178.78
431.984	1123.48
432.196	828.57
432.408	1098.91
432.62	1229.98
432.832	1488.02
433.044	1248.41
433.256	1195.16
433.468	1504.4
433.679	1004.7
433.891	1006.75
434.103	1338.52
434.315	1658
434.527	1606.8
434.739	1250.46
434.95	1191.06
435.162	1604.75
435.374	1193.11
435.586	1148.06
435.798	1254.55
436.009	1146.01
436.221	1361.05
436.433	1262.74
436.645	1240.22
436.856	1287.32
437.068	1711.25
437.28	1103
437.491	1539.22
437.703	1434.77
437.915	1555.6
438.126	1281.18
438.338	1502.36
438.55	1506.45
438.761	1692.82
438.973	1361.05
439.184	1320.09
439.396	1598.61
439.608	1727.63
439.819	1205.4
440.031	1373.33
440.242	1756.3
440.454	1770.64
440.665	1402.01
440.877	1621.14
441.088	1741.97
441.3	1494.16
441.511	1197.21
441.723	1332.37
441.934	1709.2
442.146	1760.4
442.357	1705.1
442.569	1692.82
442.78	1739.92
442.991	2010.25
443.203	1731.73
443.414	1387.67
443.626	2122.89
443.837	1612.95
444.048	1395.86
444.26	1475.73
444.471	1778.83
444.682	1991.82
444.894	1344.66
445.105	1338.52
445.316	1963.15
445.528	1954.96
445.739	1807.5
445.95	1680.53
446.161	1754.26
446.373	2086.03
446.584	1645.71
446.795	1606.8
447.006	2012.3
447.217	2339.97
447.429	1551.51
447.64	1608.85
447.851	2319.5
448.062	1836.17
448.273	1547.41
448.484	1633.43
448.695	2030.73
448.907	2000.01
449.118	1819.79
449.329	2045.07
449.54	1881.23
449.751	1631.38
449.962	1703.06
450.173	1764.5
450.384	2194.57
450.595	2391.17
450.806	1909.9
451.017	1817.74
451.228	2489.48
451.439	2397.32
451.65	1860.75
451.861	1772.69
452.072	1967.24
452.283	2096.27
452.494	2092.17
452.705	2002.06
452.915	2536.58
453.126	2200.71
453.337	1971.34
453.548	1983.63
453.759	2573.44
453.97	2772.1
454.181	2360.45
454.391	2094.22
454.602	2372.74
454.813	2462.85
455.024	2270.34
455.235	2114.7
455.445	2331.78
455.656	2475.14
455.867	2339.97
456.078	2172.04
456.288	2311.3
456.499	2528.39
456.71	2133.13
456.921	2516.1
457.131	2634.88
457.342	2540.68
457.553	2421.89
457.763	2126.99
457.974	2811.01
458.184	2749.57
458.395	2243.72
458.606	2319.5
458.816	3048.57
459.027	3265.66
459.237	2647.17
459.448	2327.69
459.659	3003.52
459.869	3234.94
460.08	2337.93
460.29	2870.4
460.501	3449.97
460.711	2878.59
460.922	2532.48
461.132	2630.79
461.343	3368.06
461.553	2577.54
461.764	2747.52
461.974	2679.94
462.184	3286.14
462.395	3171.45
462.605	2944.13
462.816	2702.47
463.026	3296.38
463.236	3458.17
463.447	2831.49
463.657	2917.5
463.867	3650.67
464.078	3167.35
464.288	3034.24
464.498	3136.63
464.709	3368.06
464.919	3279.99
465.129	3189.88
465.339	3089.53
465.55	3589.24
465.76	3697.78
465.97	3355.77
466.18	3202.17
466.391	3970.16
466.601	3546.23
466.811	3503.22
467.021	3208.31
467.231	4007.02
467.441	4019.31
467.651	3712.11
467.862	3439.73
468.072	4060.27
468.282	4260.97
468.492	3560.56
468.702	3759.22
468.912	4129.9
469.122	4713.57
469.332	4162.67
469.542	3830.9
469.752	4463.72
469.962	4416.62
470.172	3976.3
470.382	3914.86
470.592	4607.08
470.802	4707.43
471.012	4273.26
471.222	4289.64
471.432	4815.97
471.642	4719.71
471.852	4519.01
472.062	4379.75
472.272	4678.76
472.482	4543.59
472.691	4457.57
472.901	4381.8
473.111	4951.14
473.321	5512.28
473.531	4666.47
473.741	4951.14
473.95	5186.65
474.16	5395.54
474.37	5254.23
474.58	4916.32
474.79	5989.46
474.999	5583.96
475.209	5039.2
475.419	5213.28
475.628	5518.42
475.838	5934.16
476.048	5364.82
476.258	5481.56
476.467	6153.29
476.677	5710.93
476.886	6063.18
477.096	5878.86
477.306	5803.09
477.515	6319.18
477.725	5862.48
477.935	6087.76
478.144	6650.95
478.354	6267.98
478.563	6249.55
478.773	6267.98
478.982	6745.16
479.192	6886.47
479.401	6556.74
479.611	6472.78
479.82	6538.31
480.03	7031.87
480.239	6560.84
480.449	6546.5
480.658	7507
480.868	7144.51
481.077	7033.92
481.287	7011.39
481.496	7377.98
481.705	7513.14
481.915	7588.92
482.124	7502.9
482.333	7621.69
482.543	8080.43
482.752	7560.25
482.961	7371.83
483.171	8053.81
483.38	7756.85
483.589	8008.75
483.799	7896.11
484.008	8135.73
484.217	8350.76
484.426	8053.81
484.636	7857.2
484.845	8555.56
485.054	8037.42
485.263	8545.32
485.472	8320.04
485.682	9061.41
485.891	8700.97
486.1	8201.26
486.309	8762.4
486.518	9065.5
486.727	9323.55
486.936	8539.18
487.146	8907.81
487.355	9264.16
487.564	8977.44
487.773	9051.17
487.982	9026.59
488.191	9374.75
488.4	9606.17
488.609	9102.37
488.818	9462.81
489.027	10214.41
489.236	10191.89
489.445	9628.7
489.654	9417.75
489.863	10087.44
490.072	10091.54
490.281	10148.88
490.49	9653.27
490.698	10331.15
490.907	10624.01
491.116	10079.25
491.325	9942.03
491.534	10740.74
491.743	10681.35
491.952	10251.28
492.16	10191.89
492.369	10849.29
492.578	11039.75
492.787	10535.95
492.996	10185.74
493.204	10808.33
493.413	11404.28
493.622	10445.84
493.831	10437.64
494.039	11551.74
494.248	10982.4
494.457	10810.37
494.665	10941.44
494.874	11224.06
495.083	11815.93
495.291	11211.78
495.5	11152.38
495.709	11725.82
495.917	11844.6
496.126	11543.55
496.335	11295.74
496.543	11734.01
496.752	11830.26
496.96	11873.27
497.169	11656.18
497.377	11834.36
497.586	12217.33
497.794	11897.85
498.003	11666.42
498.211	11906.04
498.42	12401.65
498.628	12155.89
498.837	11955.19
499.045	12340.21
499.254	12665.83
499.462	12135.41
499.671	12284.91
499.879	12960.74
500.087	12907.49
500.296	12209.14
500.504	12463.08
500.713	12782.57
500.921	13480.92
501.129	12559.34
501.338	12602.35
501.546	13231.07
501.754	13067.24
501.962	12938.21
502.171	12852.2
502.379	13312.99
502.587	13630.43
502.795	12852.2
503.004	13118.43
503.212	13255.65
503.42	13683.67
503.628	13323.23
503.837	13136.87
504.045	13507.55
504.253	13906.9
504.461	13401.05
504.669	13618.14
504.877	13857.75
505.085	14126.04
505.294	13456.35
505.502	13521.88
505.71	13966.29
505.918	13951.96
506.126	13831.13
506.334	13601.76
506.542	14158.8
506.75	14169.04
506.958	14138.32
507.166	14097.36
507.374	14185.43
507.582	14654.41
507.79	14078.93
507.998	14187.47
508.206	14517.2
508.414	14478.29
508.622	14279.63
508.83	14269.39
509.037	15012.81
509.245	14281.68
509.453	14369.74
509.661	14339.02
509.869	15055.81
510.077	14939.08
510.285	14885.83
510.492	14455.76
510.7	15715.26
510.908	14760.91
511.116	14732.23
511.324	14478.29
511.531	14863.3
511.739	15162.31
511.947	15080.39
512.155	15074.24
512.362	15129.54
512.57	14861.26
512.778	15041.48
512.985	15096.77
513.193	15709.11
513.401	15840.18
513.608	15227.84
513.816	15270.85
514.024	15696.83
514.231	15846.33
514.439	15342.53
514.646	15342.53
514.854	16108.47
515.061	15707.07
515.269	15643.58
515.477	15598.52
515.684	15844.28
515.892	16165.81
516.099	15350.72
516.307	15688.64
516.514	16233.39
516.722	16819.11
516.929	15778.75
517.136	15739.83
517.344	16487.34
517.551	16487.34
517.759	16090.04
517.966	16188.34
518.173	16143.28
518.381	16554.93
518.588	16427.95
518.796	16200.63
519.003	16886.7
519.21	17032.1
519.418	16579.5
519.625	16653.23
519.832	16772.01
520.039	17081.25
520.247	16386.99
520.454	16888.74
520.661	17484.7
520.868	17173.41
521.076	16794.54
521.283	16638.89
521.49	17830.81
521.697	17138.6
521.904	16909.22
522.112	17097.64
522.319	17589.15
522.526	17265.57
522.733	17095.59
522.94	17146.79
523.147	17511.33
523.354	17669.02
523.561	17275.81
523.768	17241
523.975	17925.02
524.183	17890.2
524.39	17845.15
524.597	17427.36
524.804	17949.59
525.011	17820.57
525.218	17669.02
525.425	17888.15
525.632	18330.51
525.838	18045.85
526.045	17775.52
526.252	18154.39
526.459	19559.3
526.666	19219.33
526.873	18060.18
527.08	18072.47
527.287	18953.1
527.494	18664.33
527.701	18160.53
527.907	18219.92
528.114	18815.88
528.321	18578.32
528.528	18598.8
528.735	18621.33
528.941	18932.62
529.148	18443.15
529.355	18799.5
529.562	18492.3
529.768	19272.58
529.975	18838.41
530.182	18856.84
530.388	18590.61
530.595	19526.53
530.802	18819.98
531.008	19209.09
531.215	19346.31
531.422	19870.59
531.628	20329.33
531.835	19164.04
532.042	19213.19
532.248	19456.9
532.455	19981.18
532.661	19600.26
532.868	19489.67
533.074	19768.19
533.281	20116.34
533.487	19747.71
533.694	19456.9
533.9	20167.54
534.107	20249.46
534.313	19850.11
534.52	19751.81
534.726	20454.26
534.933	20595.57
535.139	19911.55
535.345	19921.79
535.552	20538.23
535.758	20462.45
535.965	20167.54
536.171	20140.92
536.377	21005.16
536.584	20894.57
536.79	20210.55
536.996	20568.94
537.203	20781.93
537.409	21015.4
537.615	20640.62
537.821	20505.46
538.028	21549.92
538.234	21187.43
538.44	20855.66
538.646	20749.17
538.853	21443.43
539.059	21076.84
539.265	21175.14
539.471	20669.3
539.677	21640.03
539.883	21363.56
540.09	20982.63
540.296	21717.86
540.502	21519.2
540.708	21353.32
540.914	21703.52
541.12	21465.96
541.326	22023
541.532	22160.22
541.738	21992.28
541.944	21789.53
542.15	22195.03
542.356	22137.69
542.562	21953.37
542.768	22016.86
542.974	22805.33
543.18	22698.83
543.386	21861.21
543.592	22176.6
543.798	23024.46
544.004	22692.69
544.21	22072.15
544.415	22074.2
544.621	22881.1
544.827	22768.46
545.033	22735.7
545.239	22383.45
545.445	22735.7
545.651	22913.87
545.856	22340.44
546.062	22707.02
546.268	23038.8
546.474	22528.85
546.679	22569.81
546.885	22760.27
547.091	23022.41
547.297	23384.9
547.502	22729.55
547.708	22786.89
547.914	22825.81
548.119	23341.89
548.325	22887.25
548.531	22561.62
548.736	23788.35
548.942	22973.26
549.147	22811.47
549.353	23391.05
549.559	23708.48
549.764	23368.52
549.97	23055.18
550.175	23313.22
550.381	23608.13
550.586	23155.53
550.792	23225.16
550.997	23331.65
551.203	23679.81
551.408	24226.62
551.614	23667.52
551.819	23718.72
552.025	24623.92
552.23	24517.43
552.435	23868.22
552.641	24355.64
552.846	24079.16
553.052	24589.11
553.257	24306.49
553.462	24429.37
553.668	24347.45
553.873	24531.76
554.078	24236.86
554.283	24521.52
554.489	24562.48
554.694	24847.15
554.899	24578.87
555.105	24703.79
555.31	24927.02
555.515	24922.93
555.72	24664.88
555.925	24525.62
556.131	25398.06
556.336	25107.24
556.541	24804.14
556.746	24798
556.951	25166.63
557.156	25281.32
557.361	25000.75
557.567	25240.36
557.772	25971.49
557.977	25479.97
558.182	25031.47
558.387	25154.35
558.592	25135.92
558.797	25719.59
559.002	24939.31
559.207	25457.45
559.412	25391.91
559.617	26051.36
559.822	25658.15
560.027	25443.11
560.232	25811.74
560.437	25836.32
560.642	25484.07
560.847	25522.98
561.051	25606.95
561.256	25985.82
561.461	25621.28
561.666	25416.49
561.871	26112.8
562.076	26106.65
562.281	25629.48
562.485	25617.19
562.69	25973.53
562.895	26391.32
563.1	25985.82
563.305	25588.52
563.509	26405.66
563.714	26880.78
563.919	25916.19
564.123	26198.81
564.328	26288.92
564.533	26714.9
564.737	26055.45
564.942	26053.41
565.147	26901.26
565.351	27153.16
565.556	26047.26
565.761	26264.35
565.965	26872.59
566.17	26620.69
566.374	26286.87
566.579	26456.85
566.784	26499.86
566.988	26667.8
567.193	26057.5
567.397	26673.94
567.602	26841.87
567.806	26893.07
568.011	26630.93
568.215	26729.23
568.42	27020.05
568.624	27198.22
568.828	27013.9
569.033	26768.15
569.237	27622.15
569.442	27441.93
569.646	26432.28
569.85	27038.48
570.055	27390.73
570.259	27448.07
570.463	27388.68
570.668	26993.42
570.872	27230.99
571.076	27710.21
571.281	27222.8
571.485	27532.04
571.689	27558.66
571.893	28177.15
572.098	27509.51
572.302	27212.56
572.506	28107.52
572.71	27798.27
572.914	27661.06
573.119	27759.36
573.323	28328.7
573.527	28148.48
573.731	27833.09
573.935	27958.02
574.139	28128
574.343	27650.82
574.547	27964.16
574.751	28054.27
574.955	28830.45
575.159	28412.67
575.364	27861.76
575.568	27886.34
575.772	28257.02
575.976	28662.52
576.18	28277.5
576.383	28320.51
576.587	28607.22
576.791	28793.59
576.995	27902.72
577.199	27966.21
577.403	28752.63
577.607	29311.72
577.811	28746.48
578.015	28795.64
578.219	28723.96
578.422	29139.69
578.626	28570.36
578.83	28914.42
579.034	29362.92
579.238	28982
579.442	28347.13
579.645	29448.94
579.849	29205.23
580.053	29483.75
580.257	28527.35
580.46	28709.62
580.664	29539.05
580.868	29174.51
581.071	29102.83
581.275	29344.49
581.479	28990.19
581.682	29545.19
581.886	29137.65
582.09	29299.44
582.293	29973.22
582.497	29797.09
582.7	29551.34
582.904	29612.77
583.107	29688.55
583.311	29729.51
583.515	29510.38
583.718	29604.58
583.922	30368.48
584.125	30345.95
584.329	29147.89
584.532	29975.27
584.735	30507.74
584.939	29950.69
585.142	29629.16
585.346	29434.6
585.549	30372.57
585.753	29999.84
585.956	30225.12
586.159	30261.98
586.363	30909.14
586.566	30612.18
586.769	29952.74
586.973	30085.86
587.176	30292.7
587.379	30995.15
587.582	30665.43
587.786	30753.49
587.989	30581.46
588.192	31187.66
588.395	30612.18
588.599	30806.74
588.802	31128.27
589.005	31011.54
589.208	31077.07
589.411	30864.08
589.615	31003.35
589.818	31496.91
590.021	31501
590.224	30968.53
590.427	31265.49
590.63	31343.31
590.833	30982.87
591.036	31767.24
591.239	31713.99
591.442	31552.2
591.645	31695.56
591.848	31310.54
592.051	31656.65
592.254	31922.88
592.457	31662.79
592.66	31435.47
592.863	31881.92
593.066	32117.44
593.269	31490.76
593.472	31920.84
593.675	32039.62
593.878	31883.97
594.081	31650.5
594.284	31744.71
594.486	32285.37
594.689	32496.31
594.892	31761.09
595.095	32199.36
595.298	32211.65
595.5	32426.68
595.703	32219.84
595.906	32092.86
596.109	32416.44
596.311	32711.35
596.514	32051.91
596.717	32357.05
596.92	32789.17
597.122	32731.83
597.325	31988.42
597.528	32481.98
597.73	33436.33
597.933	32539.32
598.136	32436.92
598.338	32328.38
598.541	33061.55
598.743	33325.74
598.946	32627.38
599.148	32594.62
599.351	33346.22
599.554	33481.39
599.756	32557.75
599.959	33432.24
600.161	33333.93
600.363	34022.05
600.566	33166
600.768	33198.77
600.971	33641.13
601.173	33675.94
601.376	32842.42
601.578	33274.54
601.78	33893.03
601.983	34165.41
602.185	33135.28
602.388	33274.54
602.59	33981.09
602.792	33499.82
602.995	33569.45
603.197	33016.5
603.399	33909.41
603.601	33538.73
603.804	33211.06
604.006	33344.17
604.208	33649.32
604.41	33155.76
604.613	33645.23
604.815	33565.35
605.017	34683.55
605.219	33551.02
605.421	33465
605.623	33757.86
605.826	34712.22
606.028	34372.25
606.23	33704.62
606.432	33630.89
606.634	34431.65
606.836	34503.32
607.038	33508.01
607.24	34091.68
607.442	34273.95
607.644	34357.92
607.846	33995.43
608.048	33841.83
608.25	34624.15
608.452	34103.97
608.654	33936.04
608.856	33422
609.058	34263.71
609.26	34732.7
609.462	34015.91
609.664	34345.63
609.866	34613.91
610.067	34714.26
610.269	34063.01
610.471	33979.04
610.673	34603.67
610.875	34781.85
611.077	34050.72
611.278	34251.42
611.48	34540.19
611.682	34722.46
611.884	34505.37
612.085	34052.77
612.287	34544.28
612.489	34415.26
612.69	34374.3
612.892	34527.9
613.094	34648.73
613.295	34400.93
613.497	34286.24
613.699	34167.46
613.9	35039.89
614.102	34794.14
614.304	34382.49
614.505	33872.55
614.707	34771.61
614.908	34349.73
615.11	34034.34
615.311	34691.74
615.513	34693.79
615.714	34925.21
615.916	34552.48
616.117	34765.46
616.319	34679.45
616.52	35068.56
616.722	34560.67
616.923	34583.19
617.124	35050.13
617.326	34841.24
617.527	34695.83
617.729	34601.63
617.93	34931.35
618.131	35402.38
618.333	34787.99
618.534	34552.48
618.735	34671.26
618.937	35332.75
619.138	34521.76
619.339	34751.13
619.54	35121.81
619.742	35232.4
619.943	34722.46
620.144	35005.08
620.345	35357.33
620.546	35906.18
620.748	34857.62
620.949	34742.94
621.15	35467.92
621.351	35484.3
621.552	34968.21
621.753	34906.77
621.954	34812.57
622.155	35431.05
622.356	34835.1
622.558	35144.34
622.759	35660.43
622.96	35226.26
623.161	34648.73
623.362	34661.02
623.563	35465.87
623.764	35136.15
623.965	35447.44
624.166	35553.93
624.366	35230.35
624.567	35912.33
624.768	34831
624.969	34945.69
625.17	35521.16
625.371	35934.85
625.572	35203.73
625.773	35000.98
625.973	35824.26
626.174	35613.32
626.375	35136.15
626.576	35332.75
626.777	35836.55
626.977	36258.43
627.178	35041.94
627.379	35588.75
627.58	35213.97
627.78	35779.21
627.981	35318.42
628.182	35601.04
628.382	36242.05
628.583	35807.88
628.784	35463.82
628.984	35283.6
629.185	36293.25
629.386	35607.18
629.586	35818.12
629.787	35441.29
629.987	36168.32
630.188	36108.93
630.388	35533.45
630.589	35613.32
630.79	36432.51
630.99	35904.13
631.191	36072.07
631.391	35742.35
631.591	35783.3
631.792	36622.97
631.992	36588.16
632.193	35967.62
632.393	36518.53
632.594	36332.16
632.794	35633.8
632.994	35783.3
633.195	36213.38
633.395	35920.52
633.595	36500.09
633.796	36428.41
633.996	36018.82
634.196	36366.98
634.397	35861.13
634.597	35951.24
634.797	36350.59
634.997	36510.33
635.198	36057.73
635.398	35998.34
635.598	36553.34
635.798	36909.69
635.998	36600.44
636.199	36321.92
636.399	36751.99
636.599	36024.96
636.799	36053.64
636.999	36534.91
637.199	36600.44
637.399	37022.33
637.599	36274.82
637.799	36360.83
637.999	36881.02
638.199	37180.02
638.399	36448.89
638.599	36379.26
638.799	36588.16
638.999	37638.76
639.199	36807.29
639.399	36352.64
639.599	37556.85
639.799	36692.6
639.999	36328.06
640.199	36326.02
640.399	36930.17
640.599	35805.83
640.799	37155.44
640.998	36797.05
641.198	37497.45
641.398	36881.02
641.598	36964.98
641.798	36788.86
641.997	37909.1
642.197	36944.5
642.397	37112.44
642.597	36905.59
642.796	37292.66
642.996	37405.3
643.196	36983.41
643.395	36235.91
643.595	37188.21
643.795	37159.54
643.994	37026.42
644.194	37186.16
644.394	37847.66
644.593	37714.54
644.793	37249.65
644.992	36997.75
645.192	37249.65
645.392	36821.62
645.591	37243.51
645.791	37720.68
645.99	37483.12
646.19	37577.33
646.389	37571.18
646.589	37409.39
646.788	37773.93
646.987	37575.28
647.187	37960.3
647.386	37866.09
647.586	37898.86
647.785	37851.75
647.984	37220.98
648.184	37872.23
648.383	37835.37
648.582	37616.24
648.782	37843.56
648.981	37761.64
649.18	37436.02
649.38	37939.82
649.579	37341.81
649.778	37687.92
649.977	38191.72
650.177	37937.77
650.376	37812.84
650.575	37626.48
650.774	38167.14
650.973	38103.65
651.173	37487.21
651.372	37470.83
651.571	38316.64
651.77	38038.12
651.969	37780.07
652.168	37917.29
652.367	37773.93
652.566	38029.93
652.765	37814.89
652.964	38171.24
653.163	38574.69
653.362	38523.49
653.561	37859.94
653.76	38095.46
653.959	37952.1
654.158	38552.16
654.357	38310.5
654.556	37982.82
654.755	38478.43
654.954	38572.64
655.153	37739.11
655.352	38664.8
655.551	38662.75
655.749	38505.06
655.948	38214.24
656.147	38187.62
656.346	38759
656.545	38480.48
656.743	38105.7
656.942	38539.87
657.141	38617.69
657.34	38429.28
657.538	38310.5
657.737	38695.52
657.936	38742.62
658.135	38570.59
658.333	38421.09
658.532	38533.73
658.731	39144.02
658.929	38687.32
659.128	38769.24
659.326	38505.06
659.525	39060.05
659.724	38675.04
659.922	38369.89
660.121	37700.2
660.319	38609.5
660.518	38150.76
660.716	37913.19
660.915	38560.35
661.113	39012.95
661.312	38832.73
661.51	38711.9
661.709	38572.64
661.907	38836.83
662.105	39205.46
662.304	38660.7
662.502	38918.74
662.701	39015
662.899	38621.79
663.097	38898.27
663.296	38716
663.494	39852.62
663.692	39350.87
663.891	38871.64
664.089	38435.42
664.287	39039.57
664.485	38965.85
664.684	38632.03
664.882	38523.49
665.08	39174.74
665.278	38832.73
665.476	38507.1
665.675	39017.05
665.873	38994.52
666.071	39236.18
666.269	38820.44
666.467	38562.4
666.665	39195.22
666.863	38576.73
667.061	39076.44
667.259	39064.15
667.457	39156.31
667.655	38892.12
667.853	39111.25
668.051	38705.76
668.249	38537.82
668.447	39234.13
668.645	38347.36
668.843	38902.36
669.041	39062.1
669.239	38515.29
669.437	39053.91
669.635	38707.8
669.833	38910.55
670.031	38928.98
670.229	38304.35
670.426	38871.64
670.624	38468.19
670.822	38361.7
671.02	38507.1
671.218	38750.81
671.415	38126.18
671.613	38589.02
671.811	38652.51
672.009	38341.22
672.206	39039.57
672.404	38445.66
672.602	38464.1
672.799	38554.21
672.997	39041.62
673.195	39168.6
673.392	38761.05
673.59	38384.22
673.788	38642.27
673.985	38105.7
674.183	38644.32
674.38	38505.06
674.578	39047.77
674.775	38664.8
674.973	38128.23
675.17	38226.53
675.368	38726.24
675.565	38922.84
675.763	38541.92
675.96	38333.03
676.158	39111.25
676.355	37894.76
676.553	38306.4
676.75	38066.79
676.947	38613.6
677.145	38337.12
677.342	38314.59
677.539	38234.72
677.737	38277.73
677.934	38605.41
678.131	38279.78
678.329	38548.06
678.526	38593.12
678.723	38675.04
678.92	38601.31
679.118	38365.79
679.315	38189.67
679.512	38756.96
679.709	38011.49
679.906	38214.24
680.104	38931.03
680.301	38474.34
680.498	37816.94
680.695	37825.13
680.892	38048.36
681.089	37622.38
681.286	38347.36
681.483	37536.37
681.68	38152.8
681.877	38378.08
682.075	38031.97
682.272	37982.82
682.469	38490.72
682.665	38337.12
682.862	37495.41
683.059	37808.75
683.256	38206.05
683.453	38390.37
683.65	38163.04
683.847	38175.33
684.044	37708.4
684.241	37767.79
684.438	37948.01
684.635	37649
684.831	38599.26
685.028	37868.14
685.225	37739.11
685.422	37724.78
685.619	37880.42
685.815	37671.53
686.012	37755.5
686.209	37339.76
686.405	37431.92
686.602	37812.84
686.799	37286.51
686.996	37411.44
687.192	37532.27
687.389	37898.86
687.586	37517.93
687.782	37702.25
687.979	37991.01
688.175	37859.94
688.372	37423.73
688.568	37489.26
688.765	37253.75
688.962	37902.95
689.158	37317.23
689.355	37102.2
689.551	37505.65
689.748	37376.62
689.944	37411.44
690.14	37028.47
690.337	37513.84
690.533	37454.45
690.73	37325.43
690.926	37558.89
691.123	37350
691.319	37610.09
691.515	37188.21
691.712	37229.17
691.908	37362.29
692.104	37585.52
692.301	37366.38
692.497	36768.38
692.693	37433.97
692.889	37384.82
693.086	36993.65
693.282	36684.41
693.478	36840.06
693.674	37263.99
693.87	36762.23
694.067	37335.66
694.263	37163.64
694.459	36971.13
694.655	37239.41
694.851	37071.48
695.047	37327.47
695.243	37589.61
695.439	36921.98
695.635	36682.36
695.831	37405.3
696.027	36651.64
696.224	36553.34
696.42	37190.26
696.615	37401.2
696.811	36915.83
697.007	36072.07
697.203	36565.63
697.399	36514.43
697.595	36573.82
697.791	36029.06
697.987	36592.25
698.183	36584.06
698.379	36127.36
698.575	36545.15
698.77	36315.78
698.966	36975.22
699.162	36827.77
699.358	36504.19
699.554	36512.38
699.749	36915.83
699.945	36782.71
700.141	36244.1
700.337	36438.65
700.532	36629.12
700.728	36407.94
700.924	36237.95
701.119	36307.58
701.315	36422.27
701.511	36678.27
701.706	36653.69
701.902	36190.85
702.097	36264.58
702.293	36354.69
702.489	36100.74
702.684	35936.9
702.88	36332.16
703.075	36395.65
703.271	35963.53
703.466	36141.7
703.662	35938.95
703.857	36889.21
704.053	35930.76
704.248	35779.21
704.443	36592.25
704.639	36543.1
704.834	36405.89
705.03	35975.81
705.225	36340.35
705.42	36369.02
705.616	35820.17
705.811	35549.84
706.006	36014.73
706.202	35932.81
706.397	35592.84
706.592	35740.3
706.787	35922.57
706.983	36072.07
707.178	36328.06
707.373	36067.97
707.568	36141.7
707.763	36074.12
707.959	35967.62
708.154	36106.88
708.349	36131.46
708.544	36332.16
708.739	35803.78
708.934	35496.59
709.129	36076.16
709.324	36045.44
709.519	36190.85
709.714	35441.29
709.909	36405.89
710.104	36014.73
710.299	35287.7
710.494	35482.25
710.689	35906.18
710.884	35566.22
711.079	35580.56
711.274	35836.55
711.469	36192.9
711.664	35586.7
711.859	35506.83
712.054	36061.83
712.249	35625.61
712.443	36051.59
712.638	35494.54
712.833	35367.57
713.028	35668.62
713.223	35297.94
713.417	35234.45
713.612	35527.31
713.807	35682.95
714.002	36080.26
714.196	35826.31
714.391	34984.6
714.586	36067.97
714.78	35484.3
714.975	34900.63
715.17	35127.95
715.364	35664.52
715.559	35791.5
715.754	34964.12
715.948	35007.12
716.143	35160.72
716.337	35672.71
716.532	35320.46
716.726	35275.41
716.921	35560.08
717.115	35816.07
717.31	34734.74
717.504	35676.81
717.699	35130
717.893	35177.11
718.088	34515.61
718.282	34427.55
718.476	34894.49
718.671	35105.43
718.865	34460.32
719.059	34462.36
719.254	34615.96
719.448	35095.19
719.642	36078.21
719.837	34189.98
720.031	35087
720.225	34865.81
720.419	34972.31
720.614	33913.51
720.808	34841.24
721.002	34505.37
721.196	34144.93
721.39	34013.86
721.585	34769.56
721.779	34572.96
721.973	34349.73
722.167	33962.66
722.361	34132.64
722.555	35111.57
722.749	33948.32
722.943	33952.42
723.137	33952.42
723.331	34474.65
723.525	33927.84
723.719	33608.36
723.913	34253.47
724.107	34212.51
724.301	33821.35
724.495	34060.96
724.689	34871.96
724.883	33862.31
725.077	33675.94
725.271	33749.67
725.465	34511.52
725.659	33905.32
725.853	34155.17
726.046	33514.16
726.24	33639.08
726.434	33931.94
726.628	33612.46
726.822	33784.49
727.015	34071.2
727.209	34005.67
727.403	33856.17
727.596	33536.68
727.79	34171.55
727.984	34149.03
728.177	33880.74
728.371	33929.89
728.565	34151.07
728.758	33772.2
728.952	33196.72
729.146	33628.84
729.339	34292.38
729.533	33966.76
729.726	33131.19
729.92	33465
730.113	34468.51
730.307	33661.61
730.5	33718.95
730.694	33655.47
730.887	33475.24
731.081	34073.25
731.274	33686.18
731.468	33485.48
731.661	33489.58
731.854	33690.28
732.048	33761.96
732.241	33497.77
732.435	33591.98
732.628	33721
732.821	33340.08
733.014	33413.8
733.208	33790.63
733.401	33860.26
733.594	33290.93
733.788	33020.59
733.981	33680.04
734.174	33639.08
734.367	33456.81
734.56	33573.55
734.754	33766.06
734.947	33999.52
735.14	33184.43
735.333	33229.49
735.526	33692.33
735.719	33290.93
735.912	33344.17
736.105	33227.44
736.298	33624.75
736.491	33419.95
736.684	33209.01
736.877	33036.98
737.07	33608.36
737.263	33350.32
737.456	33069.75
737.649	33149.62
737.842	33141.42
738.035	33419.95
738.228	32907.96
738.421	33063.6
738.614	33381.04
738.807	33823.4
739	32936.63
739.192	32721.59
739.385	33252.02
739.578	33614.51
739.771	33338.03
739.964	32875.19
740.156	33471.15
740.349	33039.03
740.542	33069.75
740.735	32713.4
740.927	32996.02
741.12	33315.5
741.313	32748.21
741.505	32889.52
741.698	33139.38
741.891	33327.79
742.083	33520.3
742.276	33229.49
742.468	33202.86
742.661	32998.07
742.854	32889.52
743.046	32563.9
743.239	33475.24
743.431	33280.69
743.624	33006.26
743.816	32805.56
744.009	33372.85
744.201	33170.1
744.393	32967.35
744.586	32582.33
744.778	32828.09
744.971	32867
745.163	32731.83
745.355	32686.78
745.548	32705.21
745.74	32606.91
745.932	32359.1
746.125	32746.17
746.317	33282.73
746.509	32916.15
746.702	32422.59
746.894	32604.86
747.086	32787.13
747.278	32785.08
747.471	32514.75
747.663	32572.09
747.855	32805.56
748.047	32604.86
748.239	32418.49
748.431	32572.09
748.623	32897.72
748.815	32641.72
749.008	32062.15
749.2	32123.58
749.392	32070.34
749.584	32185.02
749.776	32242.37
749.968	32418.49
750.16	32887.48
750.352	32004.8
750.544	32176.83
750.736	32049.86
750.928	32672.44
751.12	32254.65
751.311	31797.96
751.503	32449.21
751.695	32570.04
751.887	32326.33
752.079	31892.16
752.271	31808.2
752.463	32645.82
752.654	31853.25
752.846	32084.67
753.038	31914.69
753.23	32273.09
753.421	32139.97
753.613	31718.09
753.805	31648.46
753.997	32148.16
754.188	32234.17
754.38	31486.67
754.572	31355.6
754.763	31800.01
754.955	31513.29
755.146	31451.85
755.338	31501
755.53	31574.73
755.721	31750.85
755.913	31128.27
756.104	31169.23
756.296	31619.78
756.487	31726.28
756.679	30976.72
756.87	30894.8
757.062	31189.71
757.253	31421.13
757.445	31060.69
757.636	31187.66
757.827	31277.77
758.019	32004.8
758.21	31064.78
758.401	30954.19
758.593	31673.03
758.784	31378.12
758.975	30786.26
759.167	30921.43
759.358	31279.82
759.549	31363.79
759.74	30716.63
759.932	31015.63
760.123	31165.14
760.314	30986.96
760.505	30485.21
760.696	30591.7
760.888	31441.61
761.079	30812.88
761.27	30243.55
761.461	30626.52
761.652	31265.49
761.843	30190.3
762.034	30520.02
762.225	30550.74
762.416	30456.54
762.607	30690.01
762.798	30448.35
762.989	30337.76
763.18	31095.5
763.371	30325.47
763.562	30372.57
763.753	30149.34
763.944	30649.05
764.135	30581.46
764.326	30225.12
764.517	30188.25
764.708	30419.67
764.899	30270.17
765.089	29774.56
765.28	29760.23
765.471	30247.65
765.662	30304.99
765.853	30190.3
766.043	29602.53
766.234	30206.69
766.425	30374.62
766.615	29983.46
766.806	29854.44
766.997	30311.13
767.187	29948.64
767.378	29686.5
767.569	29154.03
767.759	29833.96
767.95	29876.96
768.141	29592.3
768.331	29238
768.522	29467.37
768.712	29858.53
768.903	29379.31
769.093	29219.56
769.284	29885.15
769.474	29602.53
769.665	28676.85
769.855	29111.02
770.046	29831.91
770.236	29065.97
770.426	29051.63
770.617	28648.18
770.807	28766.96
770.998	28988.14
771.188	28668.66
771.378	28930.8
771.569	28930.8
771.759	28789.49
771.949	27910.91
772.139	28310.27
772.33	28474.1
772.52	29403.88
772.71	28525.3
772.9	28367.61
773.09	29313.77
773.281	29072.11
773.471	28222.2
773.661	28959.47
773.851	28723.96
774.041	28494.58
774.231	28340.99
774.421	28652.28
774.611	28945.14
774.802	28244.73
774.992	28297.98
775.182	28111.61
775.372	28416.76
775.562	28433.14
775.752	27980.54
775.942	28054.27
776.131	28480.25
776.321	28404.47
776.511	28347.13
776.701	27919.1
776.891	28492.54
777.081	27833.09
777.271	27943.68
777.461	28097.28
777.651	28097.28
777.84	28130.05
778.03	27788.03
778.22	27972.35
778.41	28308.22
778.599	27865.86
778.789	27763.46
778.979	27695.88
779.169	27726.6
779.358	27915.01
779.548	27824.9
779.738	27390.73
779.927	27876.1
780.117	27683.59
780.307	27003.66
780.496	27065.1
780.686	28013.31
780.875	27816.71
781.065	27343.63
781.254	27147.02
781.444	27427.59
781.633	27222.8
781.823	26796.82
782.012	26815.25
782.202	27005.71
782.391	26886.93
782.581	26428.18
782.77	27204.36
782.96	27339.53
783.149	26546.97
783.338	26751.76
783.528	26741.52
783.717	27181.84
783.906	27312.91
784.096	26897.17
784.285	26491.67
784.474	26458.9
784.663	26680.08
784.853	26565.4
785.042	26585.88
785.231	26954.51
785.42	27185.93
785.61	26598.16
785.799	26370.84
785.988	26354.46
786.177	26540.82
786.366	26665.75
786.555	26714.9
786.744	26610.45
786.933	26395.42
787.122	26477.33
787.312	26297.11
787.501	26463
787.69	26448.66
787.879	26225.43
788.068	25746.21
788.257	26075.93
788.445	25744.16
788.634	25879.33
788.823	25914.14
789.012	26602.26
789.201	26303.26
789.39	25625.38
789.579	25553.7
789.768	25725.73
789.957	25901.86
790.145	25598.76
790.334	25672.48
790.523	25842.46
790.712	25930.53
790.9	25604.9
791.089	25764.64
791.278	26200.86
791.467	25813.79
791.655	25832.22
791.844	25942.81
792.033	25600.8
792.221	25611.04
792.41	25393.96
792.599	25391.91
792.787	25735.97
792.976	26075.93
793.164	25455.4
793.353	25492.26
793.541	25883.42
793.73	26108.7
793.918	25781.03
794.107	24984.37
794.295	25551.65
794.484	25506.6
794.672	25445.16
794.861	25234.22
795.049	25668.39
795.238	25434.92
795.426	25121.58
795.614	24853.3
795.803	25314.09
795.991	25371.43
796.179	25017.13
796.368	24871.73
796.556	25594.66
796.744	24886.06
796.932	24716.08
797.121	24490.8
797.309	24937.26
797.497	25295.66
797.685	24976.17
797.874	24830.77
798.062	25258.79
798.25	24974.13
798.438	24560.44
798.626	24685.36
798.814	25082.67
799.002	25731.87
799.19	24908.59
799.378	24628.02
799.566	24869.68
799.755	25445.16
799.943	24789.81
800.131	24527.67
800.318	24967.98
800.506	25041.71
800.694	24892.21
800.882	24644.4
801.07	25432.87
801.258	25000.75
801.446	24838.96
801.634	24793.9
801.822	25109.29
802.01	24587.06
802.197	25054
802.385	24773.42
802.573	25082.67
802.761	24859.44
802.949	24935.21
803.136	24605.49
803.324	25072.43
803.512	24982.32
803.699	24718.13
803.887	24718.13
804.075	25346.86
804.262	25047.85
804.45	25010.99
804.638	25137.96
804.825	25107.24
805.013	24951.6
805.201	24939.31
805.388	24812.34
805.576	25348.9
805.763	26252.06
805.951	25133.87
806.138	25533.22
806.326	26018.59
806.513	25285.42
806.701	25195.31
806.888	25023.28
807.075	25727.78
807.263	25760.55
807.45	25056.04
807.638	25508.65
807.825	26123.04
808.012	25781.03
808.2	25473.83
808.387	25565.99
808.574	25748.26
808.761	26272.54
808.949	25176.87
809.136	25430.82
809.323	25617.19
809.51	25910.05
809.698	25596.71
809.885	25672.48
810.072	25719.59
810.259	26073.88
810.446	25635.62
810.633	25482.02
810.82	26166.04
811.008	26256.15
811.195	25887.52
811.382	25465.64
811.569	25883.42
811.756	25471.78
811.943	25297.7
812.13	25680.67
812.317	25770.79
812.504	25740.07
812.691	25430.82
812.878	25494.31
813.064	26034.97
813.251	25674.53
813.438	25486.12
813.625	25703.2
813.812	25305.9
813.999	25543.46
814.186	25373.48
814.372	25387.82
814.559	25533.22
814.746	25957.15
814.933	25309.99
815.12	25518.89
815.306	25647.91
815.493	25453.35
815.68	25502.5
815.866	25334.57
816.053	25981.73
816.24	25918.24
816.426	25451.3
816.613	25199.4
816.799	25586.47
816.986	25830.18
817.173	24789.81
817.359	24970.03
817.546	25379.62
817.732	24896.3
817.919	24902.45
818.105	25344.81
818.292	25099.05
818.478	25836.32
818.665	25828.13
818.851	25189.16
819.037	25967.39
819.224	25525.03
819.41	24959.79
819.597	24726.32
819.783	25457.45
819.969	25586.47
820.156	24863.54
820.342	24736.56
820.528	25846.56
820.714	25166.63
820.901	25019.18
821.087	25037.61
821.273	25819.94
821.459	25000.75
821.646	24781.62
821.832	24920.88
822.018	25080.62
822.204	24888.11
822.39	24871.73
822.576	25072.43
822.762	25170.73
822.948	25441.06
823.134	25092.91
823.32	24529.72
823.507	24634.16
823.693	24558.39
823.879	24855.34
824.065	24380.21
824.25	24687.41
824.436	24527.67
824.622	24277.82
824.808	24568.63
824.994	24648.5
825.18	24445.75
825.366	24292.15
825.552	24507.19
825.738	24679.22
825.923	24824.62
826.109	24961.84
826.295	24034.11
826.481	24400.69
826.667	24554.29
826.852	23995.2
827.038	24230.71
827.224	24443.7
827.409	24830.77
827.595	23851.84
827.781	24087.36
827.966	24591.16
828.152	24292.15
828.338	24177.47
828.523	23604.03
828.709	23960.38
828.894	24533.81
829.08	23606.08
829.266	23649.09
829.451	24304.44
829.637	24234.81
829.822	23722.82
830.008	23458.63
830.193	23984.96
830.378	24212.28
830.564	23737.15
830.749	23604.03
830.935	23831.36
831.12	24017.72
831.305	23171.91
831.491	23436.1
831.676	23077.71
831.861	23495.49
832.047	23298.89
832.232	22719.31
832.417	23802.69
832.602	23601.99
832.788	23188.3
832.973	23315.27
833.158	23292.74
833.343	23462.72
833.528	23274.31
833.714	23245.64
833.899	23667.52
834.084	23700.29
834.269	23122.76
834.454	22897.49
834.639	23614.27
834.824	23042.89
835.009	23001.93
835.194	23135.05
835.379	23196.49
835.564	23438.15
835.749	22553.43
835.934	22723.41
836.119	23010.12
836.304	23139.15
836.489	22831.95
836.674	22868.81
836.859	22471.51
837.044	23061.32
837.228	22659.92
837.413	22543.19
837.598	23030.6
837.783	22844.24
837.968	22723.41
838.152	22279
838.337	22139.74
838.522	22944.59
838.707	22580.05
838.891	22455.12
839.076	22485.84
839.261	22784.85
839.445	22145.88
839.63	22315.86
839.815	22913.87
839.999	22160.22
840.184	21810.01
840.368	21982.04
840.553	22491.99
840.737	22477.65
840.922	22027.1
841.106	22305.62
841.291	21869.4
841.475	22115.16
841.66	21980
841.844	21777.25
842.029	22825.81
842.213	21893.98
842.397	21752.67
842.582	21576.55
842.766	22383.45
842.951	21943.13
843.135	21728.1
843.319	21633.89
843.504	21607.26
843.688	21932.89
843.872	21218.15
844.056	21879.64
844.241	22045.53
844.425	21758.81
844.609	21711.71
844.793	21322.6
844.977	21969.76
845.161	21707.62
845.346	21396.32
845.53	21267.3
845.714	21644.13
845.898	21425
846.082	21044.07
846.266	21361.51
846.45	21011.31
846.634	21459.81
846.818	21066.6
847.002	21336.93
847.186	21642.08
847.37	20984.68
847.554	20759.41
847.738	20947.82
847.922	21111.66
848.106	21298.02
848.29	20665.2
848.473	21031.79
848.657	21058.41
848.841	21105.51
849.025	20865.9
849.209	20603.76
849.392	21347.17
849.576	21402.47
849.76	20738.93
849.944	20783.98
850.127	21560.16
850.311	21027.69
850.495	20665.2
850.678	20605.81
850.862	21355.36
851.046	21285.73
851.229	20798.32
851.413	20104.06
851.596	20814.7
851.78	20714.35
851.964	20738.93
852.147	20669.3
852.331	21267.3
852.514	21300.07
852.698	20323.19
852.881	19936.12
853.065	20915.05
853.248	20226.93
853.431	20218.74
853.615	20161.4
853.798	20673.39
853.982	20548.47
854.165	19962.75
854.348	19972.99
854.532	20274.04
854.715	20335.48
854.898	20208.5
855.081	19991.42
855.265	20505.46
855.448	20425.59
855.631	19880.83
855.814	19913.59
855.997	20437.87
856.181	20069.24
856.364	19956.6
856.547	19807.1
856.73	20059
856.913	19964.79
857.096	19413.89
857.279	19694.46
857.462	19837.82
857.645	20044.66
857.828	19608.45
858.011	19874.68
858.194	19745.66
858.377	19776.38
858.56	19448.71
858.743	19327.88
858.926	19673.98
859.109	19716.99
859.292	19407.75
859.475	19215.24
859.658	20214.65
859.841	19874.68
860.023	19213.19
860.206	19420.03
860.389	19809.15
860.572	19680.13
860.755	19096.46
860.937	19084.17
861.12	19387.27
861.303	19383.17
861.486	18748.3
861.668	18744.2
861.851	19133.32
862.034	19391.36
862.216	18951.05
862.399	18570.13
862.581	19104.65
862.764	19213.19
862.947	18699.15
863.129	18666.38
863.312	18400.15
863.494	19374.98
863.677	18914.19
863.859	18238.36
864.042	18813.84
864.224	19080.07
864.406	18455.44
864.589	18127.77
864.771	18701.2
864.954	18039.7
865.136	18027.42
865.318	17978.26
865.501	18486.16
865.683	18084.76
865.865	17955.74
866.048	18142.1
866.23	18338.71
866.412	18332.56
866.594	17845.15
866.777	18330.51
866.959	18510.74
867.141	18242.45
867.323	18291.6
867.505	18187.16
867.687	18129.81
867.869	18221.97
868.052	17984.41
868.234	17886.11
868.416	17992.6
868.598	18373.52
868.78	17752.99
868.962	17781.66
869.144	18572.18
869.326	18262.93
869.508	18103.19
869.69	17474.46
869.872	18056.09
870.054	18516.88
870.236	17550.24
870.417	17707.93
870.599	18273.17
870.781	18242.45
870.963	17802.14
871.145	17707.93
871.327	17456.03
871.508	18031.51
871.69	17617.82
871.872	17709.98
872.054	17972.12
872.235	18049.94
872.417	17478.56
872.599	17425.31
872.78	18103.19
872.962	17787.8
873.144	17613.73
873.325	17544.09
873.507	18056.09
873.689	17970.07
873.87	17400.74
874.052	17660.83
874.233	17914.78
874.415	18023.32
874.596	17339.3
874.778	17410.98
874.959	17748.89
875.141	17920.92
875.322	17605.53
875.503	17626.01
875.685	18310.04
875.866	17257.38
876.048	17449.89
876.229	17501.09
876.41	17822.62
876.592	18000.79
876.773	17718.17
876.954	17380.26
877.136	18299.8
877.317	18002.84
877.498	17329.06
877.679	17548.19
877.86	17908.63
878.042	17785.76
878.223	17550.24
878.404	18099.09
878.585	18051.99
878.766	18592.65
878.947	18000.79
879.128	18004.89
879.309	18064.28
879.49	18051.99
879.672	17505.18
879.853	17834.91
880.034	17863.58
880.215	18156.44
880.396	17955.74
880.576	17615.77
880.757	17875.87
880.938	18834.32
881.119	17732.51
881.3	17882.01
881.481	18277.27
881.662	19164.04
881.843	17623.97
882.023	17877.91
882.204	18346.9
882.385	18172.82
882.566	17859.48
882.747	17912.73
882.927	18418.58
883.108	18400.15
883.289	17949.59
883.469	18604.94
883.65	18056.09
883.831	18299.8
884.011	18314.13
884.192	18105.24
884.373	18766.73
884.553	18572.18
884.734	18443.15
884.914	18805.64
885.095	19452.8
885.275	19065.74
885.456	18971.53
885.636	18443.15
885.817	18619.28
885.997	19108.74
886.178	18731.92
886.358	18690.96
886.538	18903.95
886.719	19696.51
886.899	18428.82
887.08	18701.2
887.26	19172.23
887.44	18674.57
887.621	18660.24
887.801	18738.06
887.981	19659.65
888.161	19278.72
888.342	18693.01
888.522	18742.16
888.702	19194.76
888.882	19276.68
889.062	18875.27
889.242	18408.34
889.423	19176.33
889.603	19084.17
889.783	19041.16
889.963	18725.77
890.143	19086.22
890.323	19090.31
890.503	18793.36
890.683	18768.78
890.863	18875.27
891.043	18901.9
891.223	18645.9
891.403	19041.16
891.583	19305.35
891.763	19137.41
891.943	18723.72
892.122	18789.26
892.302	19252.1
892.482	18951.05
892.662	19041.16
892.842	19233.67
893.022	19448.71
893.201	19186.57
893.381	19190.66
893.561	18744.2
893.741	19108.74
893.92	19256.2
894.1	18762.64
894.28	18887.56
894.459	19243.91
894.639	19159.94
894.819	19032.97
894.998	19155.85
895.178	19250.05
895.357	19260.29
895.537	18711.44
895.716	18791.31
895.896	19137.41
896.075	19702.65
896.255	18619.28
896.434	18606.99
896.614	19551.1
896.793	19741.57
896.973	18940.81
897.152	18965.39
897.331	19391.36
897.511	19454.85
897.69	18721.68
897.87	18647.95
898.049	19084.17
898.228	19426.18
898.407	19037.06
898.587	19133.32
898.766	18871.18
898.945	19080.07
899.124	18549.65
899.304	18789.26
899.483	19137.41
899.662	19393.41
899.841	18461.58
900.02	18432.91
900.199	19159.94
900.378	18891.66
900.557	18525.07
900.737	18666.38
900.916	18944.91
901.095	19078.02
901.274	18783.12
901.453	18457.49
901.632	18129.81
901.811	18396.05
901.989	18690.96
902.168	18135.96
902.347	18875.27
902.526	18178.97
902.705	18019.22
902.884	18066.33
903.063	19014.54
903.242	18637.71
903.42	17945.5
903.599	18391.95
903.778	18744.2
903.957	18752.4
904.135	18140.05
904.314	17886.11
904.493	18389.91
904.672	18391.95
904.85	17746.84
905.029	18103.19
905.207	18563.98
905.386	18897.8
905.565	17531.81
905.743	17796
905.922	17810.33
906.1	18291.6
906.279	17560.48
906.457	17736.6
906.636	17968.02
906.814	17746.84
906.993	17490.85
907.171	17630.11
907.35	17990.55
907.528	17972.12
907.707	17660.83
907.885	17165.22
908.063	17904.54
908.242	17525.66
908.42	17257.38
908.598	16958.38
908.777	17458.08
908.955	17236.9
909.133	17439.65
909.311	16878.51
909.49	17169.32
909.668	17132.45
909.846	17120.17
910.024	16894.89
910.202	17542.05
910.38	17503.14
910.559	17007.53
910.737	16802.73
910.915	17230.76
911.093	17318.82
911.271	16788.39
911.449	16933.8
911.627	17161.12
911.805	17427.36
911.983	16421.81
912.161	16491.44
912.339	17060.77
912.517	17003.43
912.695	16800.68
912.872	16604.08
913.05	16487.34
913.228	16741.29
913.406	16143.28
913.584	16554.93
913.762	16763.82
913.939	16473.01
914.117	16249.78
914.295	15924.15
914.473	16548.78
914.65	16559.02
914.828	15889.34
915.006	16057.27
915.184	16290.74
915.361	16319.41
915.539	15973.3
915.716	16190.39
915.894	16090.04
916.072	16499.63
916.249	16167.86
916.427	15963.06
916.604	15975.35
916.782	16171.96
916.959	15631.29
917.137	15549.37
917.314	16047.03
917.492	16178.1
917.669	15487.93
917.847	15449.02
918.024	15647.68
918.201	15424.45
918.379	15248.32
918.556	15309.76
918.733	15561.66
918.911	15504.32
919.088	15518.65
919.265	15098.82
919.442	15532.99
919.62	15236.03
919.797	15092.68
919.974	14666.7
920.151	15322.05
920.328	15129.54
920.506	14840.78
920.683	15227.84
920.86	14699.47
921.037	14820.3
921.214	14574.54
921.391	14474.19
921.568	15430.59
921.745	14509.01
921.922	14799.82
922.099	14492.62
922.276	14934.98
922.453	14906.31
922.63	14363.6
922.807	14816.2
922.984	14492.62
923.161	14375.89
923.338	14232.53
923.514	14064.6
923.691	14355.41
923.868	14365.65
924.045	13884.37
924.222	13734.87
924.399	14136.27
924.575	14044.12
924.752	13902.81
924.929	13884.37
925.105	14025.68
925.282	13605.85
925.459	13650.91
925.635	13448.16
925.812	13683.67
925.989	13417.44
926.165	13368.29
926.342	13118.43
926.518	12862.44
926.695	13315.04
926.871	12837.86
927.048	12946.41
927.224	13534.17
927.401	12964.84
927.577	12850.15
927.754	12700.65
927.93	13067.24
928.107	12995.56
928.283	12598.25
928.459	12667.88
928.636	12985.32
928.812	12491.76
928.988	12456.94
929.165	12481.52
929.341	12651.5
929.517	13087.71
929.693	12671.98
929.87	11803.64
930.046	12745.7
930.222	12235.76
930.398	11858.93
930.574	12356.59
930.751	12469.23
930.927	12207.09
931.103	11979.76
931.279	11633.66
931.455	11725.82
931.631	12006.39
931.807	11762.68
931.983	11668.47
932.159	11764.73
932.335	11820.02
932.511	11666.42
932.687	11367.42
932.863	11629.56
933.039	11484.16
933.215	11322.37
933.391	11070.47
933.566	11240.45
933.742	11273.21
933.918	10988.55
934.094	10589.19
934.27	10929.16
934.445	10628.1
934.621	10626.06
934.797	10355.72
934.973	10724.36
935.148	10480.65
935.324	9917.46
935.5	9784.34
935.675	10238.99
935.851	10140.69
936.027	9548.82
936.202	9419.8
936.378	9780.25
936.553	9524.25
936.729	9630.74
936.904	8905.76
937.08	8866.85
937.255	8873
937.431	8584.23
937.606	8567.85
937.782	8608.81
937.957	8637.48
938.133	8240.17
938.308	7873.59
938.483	8311.85
938.659	7984.18
938.834	7797.81
939.009	7459.9
939.185	7654.45
939.36	7351.35
939.535	6966.34
939.71	7365.69
939.886	7488.57
940.061	7318.59
940.236	7136.32
940.411	6896.71
940.586	7023.68
940.761	6999.1
940.937	6558.79
941.112	6483.02
941.287	6825.03
941.462	6456.39
941.637	6190.16
941.812	6278.22
941.987	6566.98
942.162	6153.29
942.337	6229.07
942.512	6044.75
942.687	6341.71
942.862	6329.42
943.037	5950.54
943.212	5553.24
943.386	5870.67
943.561	6206.54
943.736	5919.82
943.911	6098
944.086	6098
944.26	6218.83
944.435	5825.62
944.61	5956.69
944.785	6069.33
944.959	6349.9
945.134	5917.78
945.309	5581.91
945.483	5672.02
945.658	6190.16
945.833	5227.61
946.007	5633.11
946.182	6184.01
946.357	5649.49
946.531	5571.67
946.706	5596.25
946.88	5559.38
947.055	5876.82
947.229	5463.13
947.404	5586.01
947.578	6057.04
947.752	5788.75
947.927	5579.86
948.101	5641.3
948.276	5837.91
948.45	5907.54
948.624	5641.3
948.799	5522.52
948.973	6036.56
949.147	5403.74
949.321	5743.7
949.496	5715.03
949.67	6276.17
949.844	5954.64
950.018	5702.74
950.193	5551.19
950.367	6212.68
950.541	5827.67
950.715	5862.48
950.889	5751.89
951.063	5907.54
951.237	6042.7
951.411	5573.72
951.585	5289.05
951.759	5868.63
951.933	5835.86
952.107	5694.55
952.281	5694.55
952.455	6190.16
952.629	5997.65
952.803	5667.92
952.977	5710.93
953.151	6034.51
953.325	5893.2
953.499	5809.23
953.672	5196.89
953.846	5557.33
954.02	5708.88
954.194	5485.65
954.368	5403.74
954.541	5876.82
954.715	5430.36
954.889	5530.71
955.062	5454.94
955.236	5815.38
955.41	5694.55
955.583	5702.74
955.757	5313.63
955.93	5770.32
956.104	5547.09
956.278	5563.48
956.451	5612.63
956.625	5854.29
956.798	6214.73
956.972	5649.49
957.145	5368.92
957.319	5688.4
957.492	5477.46
957.665	5604.44
957.839	5295.19
958.012	5801.04
958.185	5626.96
958.359	5497.94
958.532	5704.79
958.705	5856.34
958.879	5735.51
959.052	5416.02
959.225	5076.06
959.398	5395.54
959.572	5594.2
959.745	5381.21
959.918	5317.72
960.091	5430.36
960.264	5493.85
960.438	5180.51
960.611	5207.13
960.784	5624.92
960.957	5426.26
961.13	5688.4
961.303	5135.45
961.476	5391.45
961.649	5737.56
961.822	5131.36
961.995	5491.8
962.168	5583.96
962.341	5354.58
962.514	5164.12
962.686	5203.04
962.859	5409.88
963.032	5405.78
963.205	5020.77
963.378	4891.74
963.551	5583.96
963.723	5250.14
963.896	5180.51
964.069	5377.11
964.242	5379.16
964.414	5618.77
964.587	5241.95
964.76	5071.97
964.932	5446.74
965.105	5143.64
965.278	5071.97
965.45	5104.73
965.623	5389.4
965.795	5438.55
965.968	5000.29
966.14	4871.26
966.313	5180.51
966.485	5264.47
966.658	5045.34
966.83	4959.33
967.003	5534.81
967.175	5397.59
967.348	4957.28
967.52	4875.36
967.692	5600.34
967.865	5319.77
968.037	4906.08
968.209	5237.85
968.382	4969.57
968.554	5379.16
968.726	4990.05
968.898	4963.42
969.071	5293.15
969.243	5129.31
969.415	4881.5
969.587	5028.96
969.759	5608.53
969.932	5289.05
970.104	4830.3
970.276	4449.38
970.448	4889.7
970.62	4869.22
970.792	4963.42
970.964	4897.89
971.136	5604.44
971.308	5416.02
971.48	4748.39
971.652	4760.67
971.824	5354.58
971.996	4883.55
972.168	4709.47
972.339	4805.73
972.511	5289.05
972.683	5074.01
972.855	5031.01
973.027	4768.87
973.199	5092.44
973.37	5043.29
973.542	4775.01
973.714	4904.03
973.886	4768.87
974.057	5104.73
974.229	4627.56
974.401	4705.38
974.572	4545.64
974.744	4318.31
974.915	4469.86
975.087	4314.22
975.259	5031.01
975.43	4480.1
975.602	4527.21
975.773	4220.01
975.945	4611.17
976.116	4850.78
976.288	4379.75
976.459	4514.92
976.63	4736.1
976.802	4725.86
976.973	4394.09
977.145	4537.45
977.316	5031.01
977.487	5112.92
977.659	4547.69
977.83	4392.04
978.001	5002.33
978.172	4598.88
978.344	4420.71
978.515	4301.93
978.686	4521.06
978.857	4990.05
979.028	4363.37
979.2	4238.44
979.371	4932.7
979.542	4523.11
979.713	4543.59
979.884	3916.91
980.055	4361.32
980.226	4471.91
980.397	4342.89
980.568	4267.11
980.739	4873.31
980.91	4369.51
981.081	4387.94
981.252	4195.43
981.423	4629.6
981.594	4637.8
981.765	4187.24
981.936	4146.28
982.106	4277.35
982.277	4549.73
982.448	4146.28
982.619	4205.67
982.79	4258.92
982.96	4392.04
983.131	4187.24
983.302	3865.71
983.472	4267.11
983.643	4451.43
983.814	4322.41
983.984	4148.33
984.155	4162.67
984.326	4535.4
984.496	4074.6
984.667	3959.92
984.837	4009.07
985.008	4453.48
985.178	4191.34
985.349	4054.12
985.519	4113.52
985.69	4023.41
985.86	3904.62
986.031	3826.8
986.201	4224.11
986.371	4263.02
986.542	3820.66
986.712	3650.67
986.882	4267.11
987.053	4291.69
987.223	3910.77
987.393	3921.01
987.563	4037.74
987.734	4252.78
987.904	4131.95
988.074	3726.45
988.244	4254.83
988.414	3865.71
988.585	3800.18
988.755	3892.34
988.925	3896.43
989.095	4529.25
989.265	3634.29
989.435	3703.92
989.605	4066.41
989.775	4125.8
989.945	4062.32
990.115	3495.03
990.285	4015.21
990.455	4033.65
990.625	3826.8
990.795	3691.63
990.965	4191.34
991.134	3656.82
991.304	3540.08
991.474	3628.15
991.644	3834.99
991.814	4248.68
991.984	3490.93
992.153	3538.04
992.323	3761.27
992.493	3785.84
992.662	3282.04
992.832	3865.71
993.002	3882.1
993.171	4000.88
993.341	3396.73
993.511	3757.17
993.68	3671.15
993.85	3957.87
994.019	3333.24
994.189	3333.24
994.358	3822.7
994.528	3550.32
994.697	3114.11
994.867	3339.38
995.036	3744.88
995.206	3552.37
995.375	3345.53
995.544	3622
995.714	3636.34
995.883	3601.52
996.052	3624.05
996.222	3196.03
996.391	4084.84
996.56	3679.35
996.73	3222.65
996.899	3130.49
997.068	3906.67
997.237	3624.05
997.406	3189.88
997.576	3116.16
997.745	3527.8
997.914	3417.21
998.083	3085.44
998.252	3118.2
998.421	3478.65
998.59	3155.07
998.759	2931.84
998.928	2811.01
999.097	3581.04
999.266	3490.93
999.435	3241.08
999.604	2884.73
999.773	3765.36
999.942	3265.66
1000.111	2716.8
1000.28	2827.39
1000.448	2950.27
1000.617	3042.43
1000.786	3056.76
1000.955	2798.72
1001.124	3445.88
1001.292	3959.92
1001.461	2770.05
1001.63	2944.13
1001.798	3533.94
1001.967	3501.17
1002.136	2798.72
1002.304	2706.56
1002.473	3163.26
1002.642	3263.61
1002.81	2886.78
1002.979	2770.05
1003.147	3271.8
1003.316	3656.82
1003.484	2974.85
1003.653	2733.18
1003.821	3409.01
1003.99	3085.44
1004.158	2878.59
1004.327	2806.91
1004.495	3204.22
1004.663	2903.17
1004.832	2825.34
1005	2516.1
1005.168	3112.06
1005.337	3103.87
1005.505	2579.59
1005.673	2864.25
1005.842	2948.22
1006.01	3064.96
1006.178	2563.2
1006.346	2757.76
1006.514	3107.96
1006.683	3312.76
1006.851	2540.68
1007.019	2477.19
1007.187	2722.95
1007.355	2532.48
1007.523	2471.04
1007.691	2425.99
1007.859	2514.05
1008.027	3116.16
1008.195	2540.68
1008.363	2309.26
1008.531	3079.29
1008.699	2602.11
1008.867	2245.77
1009.035	2425.99
1009.203	3067
1009.37	2837.63
1009.538	2538.63
1009.706	2839.68
1009.874	2839.68
1010.042	2731.14
1010.209	2169.99
1010.377	2376.84
1010.545	2905.21
1010.713	2802.82
1010.88	2335.88
1011.048	2413.7
1011.216	2608.26
1011.383	3026.04
1011.551	2352.26
1011.718	2376.84
1011.886	2909.31
1012.054	2395.27
1012.221	2188.43
1012.389	2155.66
1012.556	2579.59
1012.724	3015.8
1012.891	2280.58
1013.058	2034.83
1013.226	2827.39
1013.393	2749.57
1013.561	2169.99
1013.728	2122.89
1013.895	2698.37
1014.063	2505.86
1014.23	2182.28
1014.397	2223.24
1014.565	2729.09
1014.732	2335.88
1014.899	2143.37
1015.066	2034.83
1015.233	2516.1
1015.401	2516.1
1015.568	2077.83
1015.735	2245.77
1015.902	2362.5
1016.069	2423.94
1016.236	2165.9
1016.403	2006.16
1016.57	2198.67
1016.737	2440.33
1016.904	2057.36
1017.071	1985.68
1017.238	2172.04
1017.405	2518.15
1017.572	1959.05
1017.739	2122.89
1017.906	2409.61
1018.073	2466.95
1018.24	1846.41
1018.407	1977.48
1018.573	2569.35
1018.74	2122.89
1018.907	1963.15
1019.074	1821.84
1019.241	2409.61
1019.407	2239.62
1019.574	1725.58
1019.741	1725.58
1019.907	2223.24
1020.074	2274.44
1020.241	1660.05
1020.407	1758.35
1020.574	2303.11
1020.74	2315.4
1020.907	1987.72
1021.073	1701.01
1021.24	2724.99
1021.406	2522.24
1021.573	1729.68
1021.739	1799.31
1021.906	2309.26
1022.072	2176.14
1022.239	1754.26
1022.405	1764.5
1022.571	2094.22
1022.738	1987.72
1022.904	1725.58
1023.07	1746.06
1023.237	2079.88
1023.403	2241.67
1023.569	1637.52
1023.735	1692.82
1023.902	2069.64
1024.068	2139.27
1024.234	1625.23
1024.4	1653.91
1024.566	1965.2
1024.732	2155.66
1024.898	1723.54
1025.065	1430.68
1025.231	2126.99
1025.397	1778.83
1025.563	1592.47
1025.729	1440.92
1025.895	1385.62
1026.061	1580.18
1026.227	1359
1026.392	1526.93
1026.558	2126.99
1026.724	1989.77
1026.89	1477.78
1027.056	1565.84
1027.222	1977.48
1027.388	1870.99
1027.553	1504.4
1027.719	1393.81
1027.885	2221.19
1028.051	1830.03
1028.216	1285.27
1028.382	1512.6
1028.548	2022.54
1028.713	1688.72
1028.879	1248.41
1029.045	1537.17
1029.21	2104.46
1029.376	1979.53
1029.541	1473.68
1029.707	1412.25
1029.873	1868.94
1030.038	1862.8
1030.204	1328.28
1030.369	1522.84
1030.534	1774.74
1030.7	1641.62
1030.865	1381.53
1031.031	1268.89
1031.196	1770.64
1031.361	1737.87
1031.527	1221.78
1031.692	1272.98
1031.857	1258.65
1032.023	1774.74
1032.188	1193.11
1032.353	1281.18
1032.518	2026.64
1032.684	1635.47
1032.849	1225.88
1033.014	1291.41
1033.179	1741.97
1033.344	1617.04
1033.509	1270.94
1033.674	1221.78
1033.839	1746.06
1034.004	1873.04
1034.17	1164.44
1034.335	1117.34
1034.5	1522.84
1034.664	1512.6
1034.829	1115.29
1034.994	1217.69
1035.159	1625.23
1035.324	1709.2
1035.489	1098.91
1035.654	1119.39
1035.819	1756.3
1035.984	1623.19
1036.148	1125.53
1036.313	1199.26
1036.478	1684.62
1036.643	1496.21
1036.807	1029.27
1036.972	971.93
1037.137	1868.94
1037.301	1535.12
1037.466	1010.84
1037.631	1180.82
1037.795	1817.74
1037.96	1475.73
1038.124	1168.54
1038.289	1019.04
1038.454	1563.79
1038.618	1555.6
1038.783	1068.19
1038.947	1037.47
1039.111	1420.44
1039.276	1313.94
1039.44	1039.51
1039.605	1516.69
1039.769	1367.19
1039.933	1402.01
1040.098	1064.09
1040.262	1221.78
1040.426	1582.23
1040.591	1512.6
1040.755	890.01
1040.919	939.16
1041.083	1467.54
1041.248	1207.45
1041.412	724.13
1041.576	908.44
1041.74	1201.3
1041.904	1461.4
1042.068	832.67
1042.232	808.09
1042.397	1512.6
1042.561	1287.32
1042.725	582.82
1042.889	971.93
1043.053	1422.48
1043.217	1428.63
1043.381	953.5
1043.544	736.42
1043.708	1395.86
1043.872	990.36
1044.036	642.21
1044.2	754.85
1044.364	1543.32
1044.528	1516.69
1044.691	4054.12
1044.855	742.56
1045.019	1449.11
1045.183	1324.18
1045.346	941.21
1045.51	707.74
1045.674	1307.8
1045.837	1328.28
1046.001	799.9
1046.165	728.22
1046.328	1705.1
1046.492	1160.34
1046.655	1041.56
1046.819	810.14
1046.983	1035.42
1047.146	1219.74
1047.31	894.11
1047.473	568.48
1047.636	1113.24
1047.8	918.68
1047.963	789.66
1048.127	672.93
1048.29	992.41
