Data from Ink_Intensity_USB4F045381__25__00025.txt Node

Date: Mon Jul 17 09:45:27 EDT 2023
User: mmckonesweet
Spectrometer: USB4F04538
Trigger mode: 4
Integration Time (sec): 9.000000E-1
Scans to average: 1
Electric dark correction enabled: true
Nonlinearity correction enabled: false
Boxcar width: 0
XAxis mode: Wavelengths
Number of Pixels in Spectrum: 3648
>>>>>Begin Spectral Data<<<<<
345.52	-989.85
345.736	-989.85
345.952	-989.85
346.168	-942.75
346.384	-952.99
346.6	-105.13
346.816	-236.2
347.032	-209.58
347.248	259.41
347.464	-191.14
347.68	-47.79
347.896	62.8
348.112	310.61
348.328	-39.59
348.544	-64.17
348.76	-10.92
348.975	271.7
349.191	-187.05
349.407	-152.23
349.623	77.14
349.839	-78.51
350.055	-191.14
350.27	-31.4
350.486	107.86
350.702	324.94
350.918	126.29
351.133	-238.25
351.349	136.53
351.565	353.62
351.781	-189.1
351.996	-8.87
352.212	236.88
352.428	-223.91
352.644	-238.25
352.859	-266.92
353.075	236.88
353.291	-68.27
353.506	-86.7
353.722	-246.44
353.938	-121.51
354.153	406.86
354.369	81.24
354.584	-166.57
354.8	230.74
355.016	-377.51
355.231	-176.81
355.447	23.89
355.662	50.52
355.878	818.5
356.093	-305.83
356.309	-66.22
356.524	-256.68
356.74	148.82
356.955	-180.9
357.171	13.65
357.386	83.28
357.602	-264.87
357.817	-33.45
358.033	-101.03
358.248	230.74
358.464	116.05
358.679	-101.03
358.895	-361.13
359.11	-98.99
359.325	324.94
359.541	251.22
359.756	-33.45
359.972	-303.78
360.187	140.63
360.402	-211.62
360.618	-182.95
360.833	929.1
361.048	68.95
361.264	-217.77
361.479	-84.65
361.694	25.94
361.909	171.35
362.125	-150.18
362.34	-98.99
362.555	148.82
362.77	25.94
362.986	-275.11
363.201	-127.66
363.416	212.31
363.631	50.52
363.847	-225.96
364.062	-158.38
364.277	134.48
364.492	136.53
364.707	-117.42
364.922	-305.83
365.138	165.2
365.353	277.84
365.568	-256.68
365.783	-101.03
365.998	73.04
366.213	525.65
366.428	-223.91
366.643	-25.26
366.858	288.08
367.073	226.64
367.288	-113.32
367.503	-289.45
367.718	30.04
367.933	341.33
368.148	-281.25
368.363	-82.6
368.578	-23.21
368.793	456.01
369.008	-178.86
369.223	-228.01
369.438	202.07
369.653	351.57
369.868	-260.77
370.083	-273.06
370.298	111.96
370.513	255.31
370.728	1.37
370.943	-129.7
371.157	-275.11
371.372	478.54
371.587	-297.64
371.802	-234.15
372.017	-17.07
372.232	308.56
372.446	-53.93
372.661	-373.41
372.876	144.72
373.091	107.86
373.306	-70.31
373.52	-295.59
373.735	-191.14
373.95	326.99
374.165	-105.13
374.379	-119.46
374.594	-221.86
374.809	46.42
375.023	38.23
375.238	-187.05
375.453	208.21
375.667	-301.73
375.882	-213.67
376.097	-213.67
376.311	-47.79
376.526	-37.55
376.741	-174.76
376.955	62.8
377.17	513.36
377.384	511.31
377.599	-35.5
377.813	-287.4
378.028	486.73
378.242	95.57
378.457	-107.18
378.672	-383.65
378.886	111.96
379.101	-68.27
379.315	-363.17
379.53	-203.43
379.744	56.66
379.958	157.01
380.173	-172.71
380.387	-170.66
380.602	95.57
380.816	-164.52
381.031	-105.13
381.245	-158.38
381.459	128.34
381.674	2395.44
381.888	-252.58
382.103	93.52
382.317	-260.77
382.531	427.34
382.746	-94.89
382.96	-162.47
383.174	-135.85
383.388	341.33
383.603	128.34
383.817	-328.36
384.031	214.35
384.246	380.24
384.46	66.9
384.674	296.27
384.888	-47.79
385.103	-15.02
385.317	-221.86
385.531	-92.84
385.745	261.46
385.959	263.51
386.174	-205.48
386.388	-174.76
386.602	-17.07
386.816	-158.38
387.03	-94.89
387.244	-84.65
387.458	40.28
387.672	275.79
387.887	-291.49
388.101	-287.4
388.315	370
388.529	25.94
388.743	-195.24
388.957	-244.39
389.171	306.51
389.385	-252.58
389.599	-197.29
389.813	66.9
390.027	150.87
390.241	580.94
390.455	-82.6
390.669	-66.22
390.883	-144.04
391.097	370
391.311	-64.17
391.525	-144.04
391.738	193.87
391.952	109.91
392.166	-29.35
392.38	-238.25
392.594	181.59
392.808	279.89
393.022	-88.75
393.236	-39.59
393.449	136.53
393.663	77.14
393.877	-264.87
394.091	-137.9
394.305	-23.21
394.518	-174.76
394.732	-236.2
394.946	-176.81
395.16	384.34
395.373	5.46
395.587	-162.47
395.801	-195.24
396.015	341.33
396.228	183.63
396.442	-234.15
396.656	-219.82
396.869	238.93
397.083	308.56
397.297	-39.59
397.51	-141.99
397.724	343.38
397.938	152.92
398.151	-359.08
398.365	-320.17
398.578	208.21
398.792	318.8
399.005	-27.31
399.219	-133.8
399.433	161.11
399.646	140.63
399.86	13.65
400.073	34.13
400.287	173.39
400.5	-27.31
400.714	21.85
400.927	-107.18
401.141	99.67
401.354	963.91
401.567	200.02
401.781	-201.38
401.994	214.35
402.208	527.69
402.421	-101.03
402.635	-144.04
402.848	58.71
403.061	263.51
403.275	-37.55
403.488	-180.9
403.701	468.3
403.915	273.75
404.128	56.66
404.341	-72.36
404.555	144.72
404.768	21.85
404.981	44.37
405.195	-256.68
405.408	523.6
405.621	273.75
405.834	-0.68
406.048	-187.05
406.261	361.81
406.474	443.73
406.687	-174.76
406.9	1.37
407.114	-55.98
407.327	161.11
407.54	-236.2
407.753	-197.29
407.966	-51.88
408.179	247.12
408.392	-275.11
408.605	-234.15
408.819	130.39
409.032	179.54
409.245	-137.9
409.458	38.23
409.671	247.12
409.884	206.16
410.097	-254.63
410.31	11.61
410.523	175.44
410.736	-62.12
410.949	-66.22
411.162	-12.97
411.375	419.15
411.588	306.51
411.801	9.56
412.014	-146.09
412.227	1.37
412.44	-94.89
412.653	-101.03
412.865	-10.92
413.078	265.55
413.291	146.77
413.504	-35.5
413.717	-137.9
413.93	173.39
414.143	-152.23
414.356	-127.66
414.568	-297.64
414.781	206.16
414.994	60.76
415.207	-45.74
415.42	-58.03
415.632	257.36
415.845	501.07
416.058	-258.73
416.271	-266.92
416.483	75.09
416.696	365.9
416.909	-88.75
417.121	-105.13
417.334	128.34
417.547	556.36
417.759	-213.67
417.972	-277.16
418.185	-45.74
418.397	296.27
418.61	-139.94
418.823	-195.24
419.035	435.53
419.248	62.8
419.46	-66.22
419.673	-80.55
419.885	261.46
420.098	-35.5
420.311	-117.42
420.523	-256.68
420.736	202.07
420.948	99.67
421.161	-88.75
421.373	-311.97
421.586	103.76
421.798	-107.18
422.01	-275.11
422.223	-27.31
422.435	-70.31
422.648	206.16
422.86	-35.5
423.073	-64.17
423.285	324.94
423.497	-191.14
423.71	-174.76
423.922	-90.79
424.134	202.07
424.347	427.34
424.559	114
424.771	128.34
424.984	21.85
425.196	126.29
425.408	-309.93
425.621	-189.1
425.833	365.9
426.045	347.47
426.257	-156.33
426.47	-168.62
426.682	232.79
426.894	167.25
427.106	-135.85
427.318	-115.37
427.531	-10.92
427.743	181.59
427.955	-115.37
428.167	251.22
428.379	206.16
428.591	17.75
428.804	-74.41
429.016	-248.49
429.228	-2.73
429.44	159.06
429.652	124.24
429.864	-314.02
430.076	32.08
430.288	13.65
430.5	-8.87
430.712	-10.92
430.924	302.42
431.136	157.01
431.348	-232.1
431.56	-170.66
431.772	9.56
431.984	-154.28
432.196	-197.29
432.408	-86.7
432.62	-23.21
432.832	142.68
433.044	107.86
433.256	-0.68
433.468	136.53
433.679	-228.01
433.891	-225.96
434.103	40.28
434.315	349.52
434.527	271.7
434.739	23.89
434.95	-64.17
435.162	329.04
435.374	-35.5
435.586	-60.07
435.798	-154.28
436.009	-109.22
436.221	40.28
436.433	-66.22
436.645	-68.27
436.856	-33.45
437.068	400.72
437.28	-160.42
437.491	138.58
437.703	165.2
437.915	140.63
438.126	-58.03
438.338	161.11
438.55	13.65
438.761	283.99
438.973	-29.35
439.184	-25.26
439.396	189.78
439.608	408.91
439.819	-178.86
440.031	-10.92
440.242	247.12
440.454	245.07
440.665	-58.03
440.877	46.42
441.088	257.36
441.3	11.61
441.511	-201.38
441.723	-76.46
441.934	175.44
442.146	71
442.357	83.28
442.569	202.07
442.78	144.72
442.991	564.56
443.203	181.59
443.414	-215.72
443.626	370
443.837	-31.4
444.048	-172.71
444.26	-207.53
444.471	130.39
444.682	347.47
444.894	-268.97
445.105	-209.58
445.316	240.98
445.528	222.55
445.739	91.48
445.95	34.13
446.161	202.07
446.373	382.29
446.584	13.65
446.795	21.85
447.006	249.17
447.217	470.35
447.429	-176.81
447.64	-166.57
447.851	384.34
448.062	87.38
448.273	-203.43
448.484	-74.41
448.695	314.7
448.907	68.95
449.118	13.65
449.329	99.67
449.54	1.37
449.751	-33.45
449.962	-82.6
450.173	-105.13
450.384	464.21
450.595	425.29
450.806	-80.55
451.017	-41.64
451.228	501.07
451.439	363.86
451.65	-35.5
451.861	-277.16
452.072	3.41
452.283	95.57
452.494	140.63
452.705	-154.28
452.915	476.49
453.126	243.03
453.337	-72.36
453.548	-125.61
453.759	292.18
453.97	632.14
454.181	130.39
454.391	17.75
454.602	290.13
454.813	359.76
455.024	93.52
455.235	-66.22
455.445	197.97
455.656	329.04
455.867	163.15
456.078	5.46
456.288	60.76
456.499	216.4
456.71	-144.04
456.921	283.99
457.131	318.8
457.342	206.16
457.553	44.37
457.763	-72.36
457.974	363.86
458.184	333.14
458.395	-113.32
458.606	-113.32
458.816	476.49
459.027	650.57
459.237	85.33
459.448	-178.86
459.659	501.07
459.869	695.63
460.08	-168.62
460.29	73.04
460.501	714.06
460.711	128.34
460.922	-94.89
461.132	-115.37
461.343	787.79
461.553	-25.26
461.764	-25.26
461.974	95.57
462.184	443.73
462.395	286.03
462.605	62.8
462.816	-94.89
463.026	247.12
463.236	447.82
463.447	56.66
463.657	27.99
463.867	451.92
464.078	58.71
464.288	30.04
464.498	109.91
464.709	351.57
464.919	273.75
465.129	157.01
465.339	36.18
465.55	415.06
465.76	372.05
465.97	120.15
466.18	71
466.391	382.29
466.601	333.14
466.811	161.11
467.021	-49.83
467.231	374.1
467.441	509.26
467.651	122.2
467.862	-228.01
468.072	206.16
468.282	701.77
468.492	77.14
468.702	189.78
468.912	378.19
469.122	810.31
469.332	406.86
469.542	64.85
469.752	490.83
469.962	300.37
470.172	66.9
470.382	83.28
470.592	585.04
470.802	628.04
471.012	240.98
471.222	83.28
471.432	548.17
471.642	511.31
471.852	281.94
472.062	103.76
472.272	331.09
472.482	187.73
472.691	101.72
472.901	58.71
473.111	402.77
473.321	877.9
473.531	116.05
473.741	302.42
473.95	499.02
474.16	619.85
474.37	288.08
474.58	120.15
474.79	746.83
474.999	554.32
475.209	187.73
475.419	302.42
475.628	318.8
475.838	697.67
476.048	259.41
476.258	161.11
476.467	707.91
476.677	279.89
476.886	464.21
477.096	308.56
477.306	359.76
477.515	818.5
477.725	337.23
477.935	355.66
478.144	757.07
478.354	337.23
478.563	378.19
478.773	367.95
478.982	623.95
479.192	894.28
479.401	427.34
479.611	185.68
479.82	265.55
480.03	658.76
480.239	288.08
480.449	308.56
480.658	1013.06
480.868	474.45
481.077	392.53
481.287	378.19
481.496	660.81
481.705	937.29
481.915	609.61
482.124	662.86
482.333	660.81
482.543	982.34
482.752	437.58
482.961	353.62
483.171	705.87
483.38	673.1
483.589	533.84
483.799	435.53
484.008	597.32
484.217	906.57
484.426	578.89
484.636	359.76
484.845	734.54
485.054	464.21
485.263	734.54
485.472	421.2
485.682	1142.08
485.891	814.41
486.1	359.76
486.309	433.49
486.518	918.86
486.727	1068.36
486.936	511.31
487.146	640.33
487.355	1135.94
487.564	621.9
487.773	570.7
487.982	484.69
488.191	699.72
488.4	795.98
488.609	509.26
488.818	527.69
489.027	1353.02
489.236	1144.13
489.445	572.75
489.654	560.46
489.863	1142.08
490.072	902.47
490.281	927.05
490.49	529.74
490.698	1197.38
490.907	1197.38
491.116	660.81
491.325	519.5
491.534	1271.11
491.743	1064.26
491.952	869.7
492.16	802.12
492.369	1035.59
492.578	1140.04
492.787	826.7
492.996	755.02
493.204	843.08
493.413	1342.78
493.622	494.93
493.831	595.28
494.039	1383.74
494.248	748.87
494.457	720.2
494.665	652.62
494.874	1064.26
495.083	1426.75
495.291	724.3
495.5	646.48
495.709	1201.48
495.917	1033.54
496.126	886.09
496.335	771.4
496.543	914.76
496.752	1094.98
496.96	1011.01
497.169	607.56
497.377	1113.41
497.586	1281.35
497.794	1047.88
498.003	607.56
498.211	1076.55
498.42	1430.85
498.628	886.09
498.837	716.11
499.045	1258.82
499.254	1115.46
499.462	855.37
499.671	779.59
499.879	1439.04
500.087	1312.07
500.296	890.18
500.504	918.86
500.713	1236.29
500.921	1717.56
501.129	894.28
501.338	1019.21
501.546	1207.62
501.754	1316.16
501.962	961.86
502.171	886.09
502.379	1287.49
502.587	1705.28
502.795	933.19
503.004	982.34
503.212	1168.71
503.42	1510.72
503.628	1031.49
503.837	1148.23
504.045	1443.14
504.253	1664.32
504.461	947.53
504.669	922.95
504.877	1377.6
505.085	1619.26
505.294	898.38
505.502	1168.71
505.71	1363.26
505.918	1520.96
506.126	1109.32
506.334	1025.35
506.542	1172.8
506.75	1389.89
506.958	1181
507.166	1094.98
507.374	1221.95
507.582	1779
507.79	1146.18
507.998	998.73
508.206	1443.14
508.414	1385.79
508.622	1113.41
508.83	1088.84
509.037	1824.06
509.245	1267.01
509.453	994.63
509.661	1109.32
509.869	1604.92
510.077	1213.76
510.285	1150.28
510.492	824.65
510.7	1971.51
510.908	1328.45
511.116	1156.42
511.324	1178.95
511.531	1373.5
511.739	1371.46
511.947	1310.02
512.155	1396.03
512.362	1480
512.57	1205.57
512.778	1144.13
512.985	1013.06
513.193	1703.23
513.401	1885.5
513.608	1252.67
513.816	1156.42
514.024	1649.98
514.231	1783.1
514.439	1252.67
514.646	1310.02
514.854	1684.8
515.061	1635.64
515.269	1176.9
515.477	1310.02
515.684	1234.24
515.892	1779
516.099	1172.8
516.307	1084.74
516.514	1721.66
516.722	1903.93
516.929	1363.26
517.136	1254.72
517.344	1844.54
517.551	1574.21
517.759	1279.3
517.966	1305.92
518.173	1443.14
518.381	1625.4
518.588	1389.89
518.796	1357.12
519.003	1756.47
519.21	1637.69
519.418	1402.18
519.625	1719.61
519.832	1600.83
520.039	1623.36
520.247	1264.96
520.454	1361.22
520.661	1779
520.868	1717.56
521.076	1387.84
521.283	1490.24
521.49	2229.56
521.697	1744.19
521.904	1482.05
522.112	1516.86
522.319	1797.43
522.526	1807.67
522.733	1475.9
522.94	1443.14
523.147	1633.6
523.354	1975.61
523.561	1273.15
523.768	1539.39
523.975	2131.25
524.183	1805.63
524.39	1590.59
524.597	1365.31
524.804	1643.84
525.011	1645.88
525.218	1426.75
525.425	1559.87
525.632	2108.73
525.838	1582.4
526.045	1559.87
526.252	1467.71
526.459	2755.88
526.666	2581.81
526.873	1584.45
527.08	1535.29
527.287	2110.77
527.494	1983.8
527.701	1637.69
527.907	1471.81
528.114	2061.62
528.321	1674.56
528.528	1664.32
528.735	1592.64
528.941	1762.62
529.148	1760.57
529.355	1762.62
529.562	1623.36
529.768	2262.32
529.975	1688.89
530.182	1697.08
530.388	1535.29
530.595	2180.4
530.802	1537.34
531.008	1971.51
531.215	1692.99
531.422	2686.25
531.628	2641.2
531.835	1850.68
532.042	1883.45
532.248	1856.83
532.455	2004.28
532.661	1785.15
532.868	1764.67
533.074	2000.18
533.281	2307.38
533.487	1766.71
533.694	1811.77
533.9	1813.82
534.107	2139.44
534.313	1850.68
534.52	1727.8
534.726	2282.8
534.933	2481.46
535.139	1697.08
535.345	1740.09
535.552	2239.8
535.758	2106.68
535.965	1899.83
536.171	1879.35
536.377	2286.9
536.584	2389.3
536.79	1840.44
536.996	2016.57
537.203	2094.39
537.409	2168.12
537.615	1983.8
537.821	2043.19
538.028	2407.73
538.234	2358.58
538.44	1846.59
538.646	1930.55
538.853	2381.11
539.059	2094.39
539.265	2499.89
539.471	1703.23
539.677	2405.68
539.883	2198.84
540.09	1877.3
540.296	2293.04
540.502	2264.37
540.708	2123.06
540.914	2104.63
541.12	1977.66
541.326	2331.95
541.532	2250.04
541.738	2186.55
541.944	2084.15
542.15	2540.85
542.356	2245.94
542.562	1961.27
542.768	2125.11
542.974	2987.3
543.18	2747.69
543.386	2106.68
543.592	2016.57
543.798	2737.45
544.004	2684.2
544.21	2051.38
544.415	2063.67
544.621	2372.91
544.827	2626.86
545.033	2141.49
545.239	2403.63
545.445	2239.8
545.651	2508.08
545.856	2067.77
546.062	2127.16
546.268	2299.19
546.474	2407.73
546.679	2151.73
546.885	2303.28
547.091	2315.57
547.297	2889
547.502	2329.91
547.708	2051.38
547.914	2334
548.119	2549.04
548.325	2159.92
548.531	2067.77
548.736	2876.71
548.942	2286.9
549.147	2278.71
549.353	2342.19
549.559	2766.12
549.764	2628.91
549.97	2383.15
550.175	2280.75
550.381	2555.18
550.586	2284.85
550.792	2344.24
550.997	2344.24
551.203	2618.67
551.408	2667.82
551.614	2213.17
551.819	2229.56
552.025	2909.48
552.23	2956.58
552.435	2354.48
552.641	2635.05
552.846	2319.67
553.052	2970.92
553.257	2641.2
553.462	2405.68
553.668	2448.69
553.873	2989.35
554.078	2336.05
554.283	2516.27
554.489	2729.26
554.694	2698.54
554.899	2305.33
555.105	2721.07
555.31	2800.94
555.515	2762.03
555.72	2526.51
555.925	2477.36
556.131	2850.09
556.336	2536.75
556.541	2610.48
556.746	2374.96
556.951	3022.12
557.156	3065.13
557.361	2616.62
557.567	2610.48
557.772	3163.43
557.977	2942.25
558.182	2637.1
558.387	2532.65
558.592	2708.78
558.797	3044.65
559.002	2764.08
559.207	2651.44
559.412	2772.27
559.617	3323.17
559.822	2606.38
560.027	2475.31
560.232	2995.5
560.437	3022.12
560.642	2463.02
560.847	2614.57
561.051	2854.19
561.256	2962.73
561.461	2534.7
561.666	2483.5
561.871	2934.06
562.076	3026.22
562.281	2694.44
562.485	2710.83
562.69	3138.85
562.895	3085.61
563.1	2719.02
563.305	2665.77
563.509	3179.81
563.714	3450.14
563.919	2743.6
564.123	2653.48
564.328	2878.76
564.533	3259.68
564.737	2673.96
564.942	2745.64
565.147	3292.45
565.351	3548.45
565.556	2704.68
565.761	2872.62
565.965	3188
566.17	2821.42
566.374	2915.62
566.579	2657.58
566.784	2966.82
566.988	2983.21
567.193	2704.68
567.397	2741.55
567.602	2809.13
567.806	3128.61
568.011	2860.33
568.215	2749.74
568.42	2923.82
568.624	3067.17
568.828	2737.45
569.033	2958.63
569.237	3310.88
569.442	3101.99
569.646	2686.25
569.85	2854.19
570.055	3048.74
570.259	3171.62
570.463	3145
570.668	2899.24
570.872	2962.73
571.076	3118.37
571.281	2999.59
571.485	3097.89
571.689	3087.65
571.893	3392.8
572.098	3007.78
572.302	2968.87
572.506	3239.2
572.71	3231.01
572.914	2958.63
573.119	2977.06
573.323	3544.35
573.527	3591.45
573.731	3036.46
573.935	3007.78
574.139	3231.01
574.343	3005.74
574.547	2901.29
574.751	3011.88
574.955	3564.83
575.159	3538.21
575.364	2911.53
575.568	3052.84
575.772	3347.75
575.976	3611.93
576.18	2999.59
576.383	3009.83
576.587	3523.87
576.791	3411.23
576.995	2868.52
577.199	2948.39
577.403	3564.83
577.607	3630.37
577.811	3011.88
578.015	3298.59
578.219	3509.54
578.422	3564.83
578.626	3192.1
578.83	3446.05
579.034	3638.56
579.238	3503.39
579.442	3265.83
579.645	3691.8
579.849	3503.39
580.053	3497.25
580.257	3243.3
580.46	3222.82
580.664	3722.52
580.868	3386.66
581.071	3378.47
581.275	3341.6
581.479	3153.19
581.682	3400.99
581.886	3130.66
582.09	3331.36
582.293	3753.24
582.497	3743
582.7	3466.53
582.904	3302.69
583.107	3437.86
583.311	3339.55
583.515	3540.26
583.718	3407.14
583.922	3538.21
584.125	3923.23
584.329	3276.07
584.532	3517.73
584.735	3822.88
584.939	3736.86
585.142	3251.49
585.346	3296.55
585.549	3763.48
585.753	3560.74
585.956	3351.84
586.159	3507.49
586.363	4132.12
586.566	3589.41
586.769	3376.42
586.973	3325.22
587.176	3806.49
587.379	4042.01
587.582	3745.05
587.786	3650.85
587.989	3620.13
588.192	4160.79
588.395	3583.26
588.599	3732.76
588.802	3783.96
589.005	3773.72
589.208	3478.82
589.411	3566.88
589.615	3867.93
589.818	4154.65
590.021	3712.28
590.224	3720.48
590.427	3927.32
590.63	3958.04
590.833	3435.81
591.036	3499.3
591.239	3759.39
591.442	3605.79
591.645	3775.77
591.848	3695.9
592.051	3835.16
592.254	4138.26
592.457	3638.56
592.66	3759.39
592.863	3912.99
593.066	3872.03
593.269	3693.85
593.472	3642.65
593.675	3802.4
593.878	4125.97
594.081	3835.16
594.284	3527.97
594.486	4205.85
594.689	3968.28
594.892	3898.65
595.095	3685.66
595.298	4019.48
595.5	3933.47
595.703	4099.35
595.906	3904.79
596.109	4369.68
596.311	4183.32
596.514	3575.07
596.717	3777.82
596.92	4310.29
597.122	4224.28
597.325	3732.76
597.528	3794.2
597.73	4478.23
597.933	4076.82
598.136	3847.45
598.338	3677.47
598.541	4205.85
598.743	4406.55
598.946	4039.96
599.148	3945.75
599.351	4298
599.554	4410.64
599.756	4009.24
599.959	4033.82
600.161	4508.94
600.363	4738.32
600.566	4078.87
600.768	3937.56
600.971	4572.43
601.173	4252.95
601.376	3829.02
601.578	4009.24
601.78	4277.52
601.983	4979.98
602.185	3792.16
602.388	4103.45
602.59	4240.66
602.792	4076.82
602.995	4293.91
603.197	4056.34
603.399	4412.69
603.601	4351.25
603.804	4074.78
604.006	4005.14
604.208	4042.01
604.41	3794.2
604.613	4324.63
604.815	3962.14
605.017	4873.48
605.219	4033.82
605.421	4308.24
605.623	4214.04
605.826	4740.36
606.028	4580.62
606.23	4130.07
606.432	4095.25
606.634	4674.83
606.836	4662.54
607.038	4054.3
607.24	4326.68
607.442	4420.88
607.644	4265.24
607.846	4261.14
608.048	4136.21
608.25	4580.62
608.452	4218.13
608.654	4263.19
608.856	4005.14
609.058	4373.78
609.26	4398.35
609.462	4148.5
609.664	4164.89
609.866	4846.86
610.067	4709.65
610.269	4414.74
610.471	4216.09
610.673	4375.83
610.875	4717.84
611.077	3955.99
611.278	4338.96
611.48	4566.29
611.682	4896.01
611.884	4478.23
612.085	4363.54
612.287	4146.45
612.489	4365.59
612.69	4082.97
612.892	4402.45
613.094	4775.18
613.295	4457.75
613.497	4195.61
613.699	4257.04
613.9	4889.87
614.102	4758.8
614.304	4379.92
614.505	4103.45
614.707	4603.15
614.908	4554
615.11	4275.48
615.311	4351.25
615.513	4769.04
615.714	4744.46
615.916	4130.07
616.117	4392.21
616.319	4459.79
616.52	4746.51
616.722	4455.7
616.923	4304.15
617.124	4875.53
617.326	4762.89
617.527	4431.12
617.729	4732.17
617.93	4687.12
618.131	4721.93
618.333	4349.2
618.534	4386.07
618.735	4398.35
618.937	4977.93
619.138	4230.42
619.339	4386.07
619.54	4877.58
619.742	4533.52
619.943	4576.53
620.144	4572.43
620.345	4807.95
620.546	4746.51
620.748	4424.98
620.949	4592.91
621.15	4758.8
621.351	4701.45
621.552	4377.87
621.753	4363.54
621.954	4373.78
622.155	5106.95
622.356	4410.64
622.558	4603.15
622.759	4683.02
622.96	5154.05
623.161	4640.01
623.362	4535.57
623.563	4709.65
623.764	4672.78
623.965	4642.06
624.166	4834.57
624.366	4603.15
624.567	4744.46
624.768	4369.68
624.969	4510.99
625.17	4615.44
625.371	4932.87
625.572	4609.3
625.773	4388.11
625.973	4908.3
626.174	5035.27
626.375	4726.03
626.576	4730.13
626.777	4994.31
626.977	5414.15
627.178	4609.3
627.379	4652.3
627.58	4760.84
627.78	4789.52
627.981	4594.96
628.182	4797.71
628.382	5123.34
628.583	4535.57
628.784	4443.41
628.984	4623.63
629.185	5190.92
629.386	4848.91
629.586	4670.73
629.787	4599.06
629.987	5178.63
630.188	4912.39
630.388	4713.74
630.589	4640.01
630.79	5463.3
630.99	5096.71
631.191	4887.82
631.391	4805.9
631.591	5068.04
631.792	5315.84
631.992	4836.62
632.193	4861.2
632.393	5395.72
632.594	4977.93
632.794	4822.28
632.994	4949.26
633.195	5065.99
633.395	4812.04
633.595	4560.14
633.796	5047.56
633.996	4820.24
634.196	5278.98
634.397	4732.17
634.597	4810
634.797	4875.53
634.997	5330.18
635.198	4963.59
635.398	4584.72
635.598	5123.34
635.798	5143.81
635.998	5154.05
636.199	4777.23
636.399	4930.83
636.599	4742.41
636.799	4773.13
636.999	5025.03
637.199	5154.05
637.399	5369.09
637.599	4900.11
637.799	4863.24
637.999	5037.32
638.199	5401.86
638.399	4678.93
638.599	4982.03
638.799	5065.99
638.999	5567.74
639.199	5094.66
639.399	5084.42
639.599	5502.21
639.799	4906.25
639.999	4713.74
640.199	4826.38
640.399	5133.58
640.599	5043.46
640.799	5207.3
640.998	5094.66
641.198	5434.63
641.398	5199.11
641.598	5242.12
641.798	5027.08
641.997	6067.45
642.197	5336.32
642.397	5154.05
642.597	4906.25
642.796	5424.39
642.996	5733.63
643.196	5190.92
643.395	4769.04
643.595	5291.27
643.795	4820.24
643.994	5014.79
644.194	5127.43
644.394	5430.53
644.593	5119.24
644.793	4879.63
644.992	5246.21
645.192	5408
645.392	5084.42
645.591	5113.1
645.791	5070.09
645.99	5401.86
646.19	5143.81
646.389	5119.24
646.589	5262.6
646.788	5479.68
646.987	5348.61
647.187	5399.81
647.386	5401.86
647.586	5383.43
647.785	5678.33
647.984	5158.15
648.184	5315.84
648.383	5131.53
648.582	5252.36
648.782	5328.13
648.981	5178.63
649.18	5158.15
649.38	5385.48
649.579	5217.54
649.778	5158.15
649.977	5467.39
650.177	5518.59
650.376	5258.5
650.575	5162.25
650.774	5704.96
650.973	5383.43
651.173	5065.99
651.372	5268.74
651.571	5491.97
651.77	5788.92
651.969	5303.56
652.168	5369.09
652.367	5207.3
652.566	5614.85
652.765	5037.32
652.964	5629.18
653.163	6034.68
653.362	5356.8
653.561	5393.67
653.76	5340.42
653.959	5346.56
654.158	5434.63
654.357	5612.8
654.556	5260.55
654.755	5618.94
654.954	5836.03
655.153	5285.12
655.352	5387.52
655.551	5913.85
655.749	5233.93
655.948	5434.63
656.147	5432.58
656.346	5637.38
656.545	5510.4
656.743	5459.2
656.942	5481.73
657.141	5508.35
657.34	5385.48
657.538	5244.17
657.737	5184.77
657.936	5563.65
658.135	5827.84
658.333	5250.31
658.532	5385.48
658.731	6081.78
658.929	5815.55
659.128	5639.42
659.326	5276.93
659.525	6073.59
659.724	5526.78
659.922	5192.97
660.121	5174.53
660.319	5844.22
660.518	5465.35
660.716	5338.37
660.915	5477.63
661.113	6022.39
661.312	5448.96
661.51	5547.26
661.709	5481.73
661.907	5723.39
662.105	5938.43
662.304	5424.39
662.502	5610.75
662.701	6067.45
662.899	5551.36
663.097	5682.43
663.296	5444.87
663.494	6094.07
663.692	6292.73
663.891	5430.53
664.089	5344.52
664.287	5752.06
664.485	6016.25
664.684	5498.11
664.882	5715.2
665.08	5715.2
665.278	5807.36
665.476	5455.11
665.675	5854.46
665.873	6315.25
666.071	6030.59
666.269	5539.07
666.467	5727.49
666.665	5917.95
666.863	5717.25
667.061	5602.56
667.259	5727.49
667.457	5874.94
667.655	5862.65
667.853	5303.56
668.051	5848.32
668.249	5702.91
668.447	5876.99
668.645	5500.16
668.843	5625.09
669.041	5735.68
669.239	5618.94
669.437	5682.43
669.635	5647.62
669.833	5598.46
670.031	5956.86
670.229	5809.4
670.426	5557.5
670.624	5623.04
670.822	5799.16
671.02	5631.23
671.218	5631.23
671.415	5418.24
671.613	5854.46
671.811	5735.68
672.009	5739.77
672.206	5948.67
672.404	5924.09
672.602	5901.56
672.799	5733.63
672.997	5897.47
673.195	6128.89
673.392	5694.72
673.59	5491.97
673.788	5805.31
673.985	5414.15
674.183	5833.98
674.38	5541.12
674.578	5881.08
674.775	5545.22
674.973	5469.44
675.17	5559.55
675.368	6098.17
675.565	6063.35
675.763	5664
675.96	5569.79
676.158	6327.54
676.355	5657.85
676.553	5668.09
676.75	5776.64
676.947	5686.53
677.145	5801.21
677.342	5713.15
677.539	5868.8
677.737	5915.9
677.934	6325.49
678.131	5756.16
678.329	5664
678.526	6382.84
678.723	5926.14
678.92	5719.29
679.118	5651.71
679.315	5561.6
679.512	6296.82
679.709	5690.62
679.906	5725.44
680.104	6184.18
680.301	6073.59
680.498	5629.18
680.695	5682.43
680.892	5637.38
681.089	5760.25
681.286	5666.05
681.483	5577.98
681.68	5958.91
681.877	6089.98
682.075	5674.24
682.272	5942.52
682.469	5825.79
682.665	5903.61
682.862	5455.11
683.059	5502.21
683.256	5776.64
683.453	5801.21
683.65	5858.56
683.847	5790.97
684.044	5782.78
684.241	5618.94
684.438	5772.54
684.635	5508.35
684.831	6405.36
685.028	6198.52
685.225	5416.19
685.422	5823.74
685.619	5893.37
685.815	5690.62
686.012	5684.48
686.209	5805.31
686.405	5625.09
686.602	6012.15
686.799	5350.66
686.996	5604.61
687.192	5582.08
687.389	6214.9
687.586	5717.25
687.782	5702.91
687.979	6194.42
688.175	6175.99
688.372	5534.98
688.568	5616.9
688.765	5788.92
688.962	6235.38
689.158	5586.18
689.355	5440.77
689.551	6036.73
689.748	5633.28
689.944	5672.19
690.14	5553.41
690.337	5963
690.533	5704.96
690.73	5778.69
690.926	5752.06
691.123	5903.61
691.319	5768.45
691.515	5606.66
691.712	5829.88
691.908	5901.56
692.104	6003.96
692.301	5727.49
692.497	5616.9
692.693	5991.67
692.889	6069.5
693.086	5979.39
693.282	5485.83
693.478	5948.67
693.674	6286.58
693.87	5643.52
694.067	5440.77
694.263	5899.52
694.459	5713.15
694.655	5704.96
694.851	5715.2
695.047	5745.92
695.243	6030.59
695.439	5807.36
695.635	5541.12
695.831	5809.4
696.027	5815.55
696.224	5604.61
696.42	5979.39
696.615	6155.51
696.811	5928.19
697.007	5297.41
697.203	5633.28
697.399	5833.98
697.595	5911.8
697.791	5637.38
697.987	5700.86
698.183	5606.66
698.379	5575.94
698.575	5633.28
698.77	5756.16
698.966	5991.67
699.162	5946.62
699.358	5727.49
699.554	5518.59
699.749	5909.76
699.945	6085.88
700.141	5541.12
700.337	5885.18
700.532	5821.69
700.728	5612.8
700.924	5530.88
701.119	5539.07
701.315	5838.08
701.511	5633.28
701.706	5729.53
701.902	5455.11
702.097	5793.02
702.293	5924.09
702.489	5647.62
702.684	5711.1
702.88	5815.55
703.075	5778.69
703.271	5680.38
703.466	5408
703.662	5956.86
703.857	6030.59
704.053	5602.56
704.248	5717.25
704.443	6049.02
704.639	5907.71
704.834	5709.05
705.03	5387.52
705.225	6173.94
705.42	5940.47
705.616	5811.45
705.811	5596.42
706.006	5561.6
706.202	5569.79
706.397	5780.73
706.592	5440.77
706.787	5831.93
706.983	5838.08
707.178	5928.19
707.373	5408
707.568	6044.92
707.763	6012.15
707.959	5637.38
708.154	5500.16
708.349	5711.1
708.544	5870.84
708.739	5858.56
708.934	5303.56
709.129	5985.53
709.324	5950.71
709.519	5557.5
709.714	5481.73
709.909	6124.79
710.104	5743.87
710.299	5623.04
710.494	5713.15
710.689	6003.96
710.884	5729.53
711.079	5645.57
711.274	6036.73
711.469	5965.05
711.664	5735.68
711.859	5539.07
712.054	5733.63
712.249	5905.66
712.443	6145.27
712.638	5580.03
712.833	5514.5
713.028	5725.44
713.223	5750.01
713.417	5694.72
713.612	5498.11
713.807	5889.28
714.002	6290.68
714.196	5807.36
714.391	5442.82
714.586	5985.53
714.78	5719.29
714.975	5502.21
715.17	5754.11
715.364	5690.62
715.559	6012.15
715.754	5432.58
715.948	5541.12
716.143	6001.91
716.337	5883.13
716.532	5862.65
716.726	5563.65
716.921	6026.49
717.115	6296.82
717.31	5356.8
717.504	5965.05
717.699	5696.77
717.893	5950.71
718.088	5434.63
718.282	5569.79
718.476	5809.4
718.671	5819.64
718.865	5582.08
719.059	5567.74
719.254	5754.11
719.448	6061.3
719.642	6726.89
719.837	5362.95
720.031	5739.77
720.225	6032.63
720.419	5629.18
720.614	5483.78
720.808	5903.61
721.002	5575.94
721.196	5350.66
721.39	5483.78
721.585	6051.07
721.779	5719.29
721.973	5547.26
722.167	5311.75
722.361	5686.53
722.555	5799.16
722.749	5414.15
722.943	5463.3
723.137	5559.55
723.331	5709.05
723.525	5301.51
723.719	5446.91
723.913	5784.83
724.107	6006.01
724.301	5221.64
724.495	5588.22
724.689	6161.66
724.883	5942.52
725.077	5547.26
725.271	5469.44
725.465	6063.35
725.659	5645.57
725.853	5731.58
726.046	5340.42
726.24	5526.78
726.434	5860.6
726.628	5379.33
726.822	5524.74
727.015	5977.34
727.209	5911.8
727.403	5453.06
727.596	5182.73
727.79	6065.4
727.984	6061.3
728.177	5483.78
728.371	5590.27
728.565	5940.47
728.758	5422.34
728.952	5403.91
729.146	5506.31
729.339	5846.27
729.533	5743.87
729.726	5549.31
729.92	5444.87
730.113	6055.16
730.307	5815.55
730.5	5649.66
730.694	5610.75
730.887	5700.86
731.081	5829.88
731.274	5459.2
731.468	5657.85
731.661	5668.09
731.854	5526.78
732.048	5600.51
732.241	5369.09
732.435	5532.93
732.628	5803.26
732.821	5453.06
733.014	5311.75
733.208	5446.91
733.401	5876.99
733.594	5424.39
733.788	5592.32
733.981	5920
734.174	5678.33
734.367	5321.99
734.56	5571.84
734.754	5807.36
734.947	5778.69
735.14	5336.32
735.333	5506.31
735.526	5850.36
735.719	5553.41
735.912	5416.19
736.105	5397.76
736.298	5512.45
736.491	5485.83
736.684	5389.57
736.877	5432.58
737.07	5682.43
737.263	6069.5
737.456	5461.25
737.649	5504.26
737.842	5641.47
738.035	5725.44
738.228	5573.89
738.421	5539.07
738.614	6057.21
738.807	5807.36
739	5383.43
739.192	5371.14
739.385	5690.62
739.578	5934.33
739.771	5717.25
739.964	5448.96
740.156	5938.43
740.349	5635.33
740.542	5659.9
740.735	5375.24
740.927	5469.44
741.12	5633.28
741.313	5362.95
741.505	5446.91
741.698	5782.78
741.891	5721.34
742.083	5672.19
742.276	5655.81
742.468	5727.49
742.661	5428.48
742.854	5451.01
743.046	5461.25
743.239	6075.64
743.431	5711.1
743.624	5494.02
743.816	5223.69
744.009	5664
744.201	5825.79
744.393	5723.39
744.586	5311.75
744.778	5915.9
744.971	5573.89
745.163	5573.89
745.355	5469.44
745.548	5690.62
745.74	5547.26
745.932	5584.13
746.125	5379.33
746.317	6333.68
746.509	5653.76
746.702	5571.84
746.894	5448.96
747.086	5795.07
747.278	5977.34
747.471	5596.42
747.663	5477.63
747.855	5596.42
748.047	5926.14
748.239	5387.52
748.431	5377.28
748.623	5915.9
748.815	5924.09
749.008	5166.34
749.2	5297.41
749.392	5840.12
749.584	5584.13
749.776	5528.83
749.968	5557.5
750.16	6063.35
750.352	5483.78
750.544	5463.3
750.736	5414.15
750.928	5717.25
751.12	5588.22
751.311	5311.75
751.503	5573.89
751.695	5747.97
751.887	5534.98
752.079	5039.37
752.271	5387.52
752.463	6450.42
752.654	5864.7
752.846	5477.63
753.038	5401.86
753.23	5508.35
753.421	5698.81
753.613	5319.94
753.805	5684.48
753.997	5782.78
754.188	5526.78
754.38	5307.65
754.572	5229.83
754.763	5534.98
754.955	5756.16
755.146	5391.62
755.338	5418.24
755.53	5530.88
755.721	5453.06
755.913	5082.38
756.104	5109
756.296	5567.74
756.487	5698.81
756.679	5291.27
756.87	5131.53
757.062	5399.81
757.253	5715.2
757.445	5207.3
757.636	5549.31
757.827	5391.62
758.019	6112.5
758.21	5063.94
758.401	5313.8
758.593	5852.41
758.784	5709.05
758.975	5154.05
759.167	5213.45
759.358	5590.27
759.549	5573.89
759.74	5268.74
759.932	5227.78
760.123	5803.26
760.314	5149.96
760.505	5440.77
760.696	5223.69
760.888	6003.96
761.079	5461.25
761.27	5131.53
761.461	5127.43
761.652	5795.07
761.843	5444.87
762.034	5123.34
762.225	5641.47
762.416	5383.43
762.607	5270.79
762.798	5178.63
762.989	5182.73
763.18	6186.23
763.371	5330.18
763.562	5129.48
763.753	5201.16
763.944	5741.82
764.135	5588.22
764.326	5410.05
764.517	5131.53
764.708	5287.17
764.899	5315.84
765.089	5076.23
765.28	5055.75
765.471	5512.45
765.662	5375.24
765.853	5156.1
766.043	5086.47
766.234	5446.91
766.425	5526.78
766.615	5156.1
766.806	5063.94
766.997	5500.16
767.187	5395.72
767.378	5004.55
767.569	4965.64
767.759	5379.33
767.95	5575.94
768.141	5330.18
768.331	5094.66
768.522	5172.49
768.712	5446.91
768.903	4902.15
769.093	4998.41
769.284	5723.39
769.474	5285.12
769.665	4853
769.855	4766.99
770.046	5434.63
770.236	5373.19
770.426	5326.08
770.617	4971.79
770.807	5360.9
770.998	4986.12
771.188	5068.04
771.378	5020.94
771.569	5360.9
771.759	5352.71
771.949	4877.58
772.139	4879.63
772.33	5346.56
772.52	5623.04
772.71	5053.7
772.9	4748.56
773.09	5553.41
773.281	5651.71
773.471	4973.83
773.661	4891.91
773.851	5399.81
774.041	4961.55
774.231	4887.82
774.421	4990.22
774.611	5565.7
774.802	5049.61
774.992	5002.5
775.182	4762.89
775.372	4969.74
775.562	5281.03
775.752	4728.08
775.942	4912.39
776.131	5467.39
776.321	5121.29
776.511	5045.51
776.701	4715.79
776.891	5143.81
777.081	4793.61
777.271	5027.08
777.461	4853
777.651	5125.38
777.84	5334.28
778.03	4891.91
778.22	4726.03
778.41	5268.74
778.599	4853
778.789	4850.96
778.979	4674.83
779.169	5111.05
779.358	4951.31
779.548	5096.71
779.738	4785.42
779.927	4957.45
780.117	4816.14
780.307	4912.39
780.496	4560.14
780.686	5209.35
780.875	5420.29
781.065	4781.32
781.254	4748.56
781.444	4963.59
781.633	5010.7
781.823	4672.78
782.012	4728.08
782.202	4810
782.391	5035.27
782.581	4498.7
782.77	4982.03
782.96	5213.45
783.149	4986.12
783.338	4644.11
783.528	4615.44
783.717	5080.33
783.906	5070.09
784.096	4789.52
784.285	4701.45
784.474	4711.69
784.663	4699.41
784.853	4805.9
785.042	4617.49
785.231	4812.04
785.42	5133.58
785.61	4680.97
785.799	4609.3
785.988	4705.55
786.177	4705.55
786.366	4541.71
786.555	4893.96
786.744	5139.72
786.933	4807.95
787.122	4707.6
787.312	4535.57
787.501	4891.91
787.69	4945.16
787.879	4707.6
788.068	4588.82
788.257	4650.25
788.445	4693.26
788.634	4713.74
788.823	4447.51
789.012	5453.06
789.201	4955.4
789.39	4556.05
789.579	4535.57
789.768	4762.89
789.957	4885.77
790.145	4609.3
790.334	4572.43
790.523	4840.72
790.712	4652.3
790.9	4580.62
791.089	4390.16
791.278	5068.04
791.467	4748.56
791.655	4539.66
791.844	4883.72
792.033	4650.25
792.221	4707.6
792.41	4644.11
792.599	4351.25
792.787	5063.94
792.976	4752.65
793.164	4330.77
793.353	4566.29
793.541	4900.11
793.73	4873.48
793.918	4676.88
794.107	4404.5
794.295	4707.6
794.484	4801.8
794.672	4398.35
794.861	4461.84
795.049	4803.85
795.238	5178.63
795.426	4259.09
795.614	4619.53
795.803	4740.36
795.991	5049.61
796.179	4338.96
796.368	4570.38
796.556	5049.61
796.744	4465.94
796.932	4445.46
797.121	4461.84
797.309	4515.09
797.497	4881.67
797.685	4334.87
797.874	4418.83
798.062	4513.04
798.25	5084.42
798.438	4406.55
798.626	4521.23
798.814	4805.9
799.002	5219.59
799.19	4676.88
799.378	4562.19
799.566	4871.43
799.755	5158.15
799.943	4521.23
800.131	4302.1
800.318	4676.88
800.506	4834.57
800.694	4431.12
800.882	4474.13
801.07	4896.01
801.258	4746.51
801.446	4605.2
801.634	4314.39
801.822	4683.02
802.01	4568.34
802.197	4371.73
802.385	4701.45
802.573	4699.41
802.761	4547.86
802.949	4588.82
803.136	4224.28
803.324	5041.42
803.512	4601.1
803.699	4519.18
803.887	4343.06
804.075	4998.41
804.262	4510.99
804.45	4259.09
804.638	4568.34
804.825	4386.07
805.013	4791.56
805.201	4517.14
805.388	4422.93
805.576	4637.97
805.763	5199.11
805.951	4453.65
806.138	4738.32
806.326	5342.47
806.513	4680.97
806.701	4562.19
806.888	4506.9
807.075	4936.97
807.263	5270.79
807.45	4480.27
807.638	4717.84
807.825	5287.17
808.012	4973.83
808.2	4584.72
808.387	4857.1
808.574	4885.77
808.761	5129.48
808.949	4467.99
809.136	4666.64
809.323	4711.69
809.51	4973.83
809.698	4949.26
809.885	4666.64
810.072	4812.04
810.259	5031.18
810.446	4588.82
810.633	4470.03
810.82	5102.86
811.008	5104.9
811.195	4846.86
811.382	4781.32
811.569	4941.07
811.756	4515.09
811.943	4693.26
812.13	4601.1
812.317	4601.1
812.504	4836.62
812.691	4707.6
812.878	4697.36
813.064	5219.59
813.251	4912.39
813.438	4693.26
813.625	4769.04
813.812	4631.82
813.999	4793.61
814.186	4711.69
814.372	4824.33
814.559	4779.28
814.746	5004.55
814.933	4576.53
815.12	4756.75
815.306	4740.36
815.493	4576.53
815.68	4580.62
815.866	4541.71
816.053	5025.03
816.24	5303.56
816.426	4793.61
816.613	4633.87
816.799	5080.33
816.986	5254.41
817.173	4723.98
817.359	4551.95
817.546	4916.49
817.732	4672.78
817.919	4398.35
818.105	4810
818.292	4748.56
818.478	5035.27
818.665	4850.96
818.851	4670.73
819.037	5348.61
819.224	4885.77
819.41	4670.73
819.597	4531.47
819.783	5100.81
819.969	4914.44
820.156	4705.55
820.342	4592.91
820.528	5528.83
820.714	4834.57
820.901	4914.44
821.087	4599.06
821.273	5205.25
821.459	4711.69
821.646	4531.47
821.832	4420.88
822.018	4789.52
822.204	4695.31
822.39	4707.6
822.576	4680.97
822.762	4992.27
822.948	4836.62
823.134	4867.34
823.32	4613.39
823.507	4769.04
823.693	4646.16
823.879	4977.93
824.065	4642.06
824.25	4814.09
824.436	4494.61
824.622	4568.34
824.808	4412.69
824.994	4697.36
825.18	4623.63
825.366	4220.18
825.552	4388.11
825.738	4662.54
825.923	4756.75
826.109	4705.55
826.295	4476.18
826.481	4496.66
826.667	4588.82
826.852	4580.62
827.038	4470.03
827.224	4930.83
827.409	5180.68
827.595	4318.48
827.781	4717.84
827.966	4859.15
828.152	4893.96
828.338	4349.2
828.523	4306.2
828.709	4584.72
828.894	5045.51
829.08	4470.03
829.266	4281.62
829.451	4506.9
829.637	4701.45
829.822	4437.27
830.008	4199.7
830.193	4996.36
830.378	5033.22
830.564	4523.28
830.749	4304.15
830.935	4607.25
831.12	4726.03
831.305	4427.03
831.491	4402.45
831.676	4355.35
831.861	4730.13
832.047	4465.94
832.232	4361.49
832.417	4775.18
832.602	4711.69
832.788	4238.61
832.973	4255
833.158	4470.03
833.343	4685.07
833.528	4267.28
833.714	4261.14
833.899	4646.16
834.084	4967.69
834.269	4490.51
834.454	4289.81
834.639	4707.6
834.824	4580.62
835.009	4537.62
835.194	4496.66
835.379	4734.22
835.564	4998.41
835.749	4341.01
835.934	4322.58
836.119	4715.79
836.304	4554
836.489	4351.25
836.674	4498.7
836.859	4166.93
837.044	4689.17
837.228	4300.05
837.413	4263.19
837.598	4631.82
837.783	4687.12
837.968	4343.06
838.152	4037.91
838.337	4107.54
838.522	4723.98
838.707	4838.67
838.891	4424.98
839.076	4637.97
839.261	4838.67
839.445	4199.7
839.63	4298
839.815	4777.23
839.999	4298
840.184	4201.75
840.368	4283.67
840.553	4531.47
840.737	4779.28
840.922	4179.22
841.106	4046.1
841.291	4123.93
841.475	4510.99
841.66	4140.31
841.844	4125.97
842.029	5045.51
842.213	4125.97
842.397	4066.58
842.582	3986.71
842.766	4599.06
842.951	4517.14
843.135	4064.54
843.319	4259.09
843.504	4447.51
843.688	4533.52
843.872	4109.59
844.056	3908.89
844.241	4422.93
844.425	4324.63
844.609	4343.06
844.793	3806.49
844.977	4562.19
845.161	4345.11
845.346	3773.72
845.53	4048.15
845.714	4164.89
845.898	4748.56
846.082	3955.99
846.266	4007.19
846.45	4162.84
846.634	4312.34
846.818	4105.49
847.002	4263.19
847.186	4439.31
847.37	3953.95
847.554	3759.39
847.738	4023.58
847.922	4228.37
848.106	4338.96
848.29	3874.07
848.473	4039.96
848.657	4349.2
848.841	4031.77
849.025	3994.9
849.209	3906.84
849.392	4506.9
849.576	4207.89
849.76	3826.97
849.944	4132.12
850.127	4646.16
850.311	3822.88
850.495	3751.2
850.678	3990.81
850.862	4594.96
851.046	4455.7
851.229	4121.88
851.413	3777.82
851.596	4138.26
851.78	4168.98
851.964	4142.36
852.147	3912.99
852.331	4838.67
852.514	4525.33
852.698	4087.06
852.881	3841.31
853.065	4496.66
853.248	4185.37
853.431	4134.17
853.615	3982.62
853.798	4578.58
853.982	4093.21
854.165	4076.82
854.348	3896.6
854.532	3837.21
854.715	4003.1
854.898	3974.42
855.081	3847.45
855.265	4527.38
855.448	4447.51
855.631	3806.49
855.814	3867.93
855.997	4388.11
856.181	4037.91
856.364	3943.71
856.547	3650.85
856.73	4160.79
856.913	4021.53
857.096	3757.34
857.279	3814.68
857.462	3761.44
857.645	4330.77
857.828	3923.23
858.011	4011.29
858.194	3884.31
858.377	4177.17
858.56	3624.22
858.743	3861.79
858.926	3818.78
859.109	4125.97
859.292	3622.17
859.475	3622.17
859.658	4341.01
859.841	4298
860.023	3704.09
860.206	3663.13
860.389	3917.08
860.572	4359.44
860.755	3812.64
860.937	3726.62
861.12	3816.73
861.303	3994.9
861.486	3786.01
861.668	3722.52
861.851	4076.82
862.034	4003.1
862.216	3769.63
862.399	3411.23
862.581	3869.98
862.764	4211.99
862.947	3773.72
863.129	3593.5
863.312	3521.82
863.494	4201.75
863.677	3943.71
863.859	3450.14
864.042	4093.21
864.224	4216.09
864.406	3732.76
864.589	3482.91
864.771	3953.95
864.954	3648.8
865.136	3546.4
865.318	3474.72
865.501	3984.66
865.683	3368.23
865.865	3470.62
866.048	3536.16
866.23	3859.74
866.412	3826.97
866.594	3396.9
866.777	3650.85
866.959	4037.91
867.141	3493.15
867.323	3790.11
867.505	3783.96
867.687	3743
867.869	3798.3
868.052	3679.52
868.234	3470.62
868.416	3816.73
868.598	3941.66
868.78	3552.54
868.962	3360.03
869.144	3982.62
869.326	4072.73
869.508	3374.37
869.69	3478.82
869.872	3454.24
870.054	4013.34
870.236	3284.26
870.417	3292.45
870.599	3790.11
870.781	4064.54
870.963	3499.3
871.145	3368.23
871.327	3466.53
871.508	3777.82
871.69	3521.82
871.872	3368.23
872.054	3673.37
872.235	3730.72
872.417	3532.06
872.599	3478.82
872.78	3872.03
872.962	3558.69
873.144	3192.1
873.325	3349.79
873.507	3996.95
873.689	3679.52
873.87	3370.27
874.052	3634.46
874.233	3796.25
874.415	4023.58
874.596	3550.5
874.778	3353.89
874.959	3695.9
875.141	3904.79
875.322	3433.76
875.503	3226.92
875.685	3736.86
875.866	3482.91
876.048	3419.43
876.229	3261.73
876.41	3556.64
876.592	3722.52
876.773	3482.91
876.954	3110.18
877.136	4027.67
877.317	3439.9
877.498	3224.87
877.679	3507.49
877.86	3923.23
878.042	3638.56
878.223	3392.8
878.404	3654.94
878.585	3904.79
878.766	4181.27
878.947	3861.79
879.128	3732.76
879.309	4013.34
879.49	3962.14
879.672	3487.01
879.853	3439.9
880.034	3388.71
880.215	3663.13
880.396	3579.17
880.576	3487.01
880.757	3728.67
880.938	4052.25
881.119	3534.11
881.3	3538.21
881.481	3622.17
881.662	4666.64
881.843	3347.75
882.023	3513.63
882.204	3687.71
882.385	3869.98
882.566	3476.77
882.747	3433.76
882.927	3783.96
883.108	3722.52
883.289	3419.43
883.469	3822.88
883.65	3732.76
883.831	3790.11
884.011	3931.42
884.192	3544.35
884.373	4107.54
884.553	3988.76
884.734	3755.29
884.914	4009.24
885.095	4324.63
885.275	4302.1
885.456	3839.26
885.636	3388.71
885.817	3851.55
885.997	3962.14
886.178	3605.79
886.358	3624.22
886.538	3908.89
886.719	4865.29
886.899	3564.83
887.08	3783.96
887.26	4287.76
887.44	3726.62
887.621	3523.87
887.801	3745.05
887.981	4556.05
888.161	4066.58
888.342	3779.87
888.522	3802.4
888.702	4175.13
888.882	4138.26
889.062	3822.88
889.242	3636.51
889.423	4439.31
889.603	4201.75
889.783	3960.09
889.963	3714.33
890.143	4052.25
890.323	4244.76
890.503	3794.2
890.683	3929.37
890.863	4285.72
891.043	4054.3
891.223	3896.6
891.403	3978.52
891.583	4042.01
891.763	4037.91
891.943	3853.59
892.122	3687.71
892.302	4179.22
892.482	3947.8
892.662	3982.62
892.842	3775.77
893.022	4123.93
893.201	3835.16
893.381	3829.02
893.561	3937.56
893.741	4222.23
893.92	4181.27
894.1	3792.16
894.28	4039.96
894.459	4234.52
894.639	4140.31
894.819	3636.51
894.998	3935.51
895.178	4062.49
895.357	4023.58
895.537	3808.54
895.716	3724.57
895.896	4021.53
896.075	4205.85
896.255	3798.3
896.434	3814.68
896.614	4279.57
896.793	4396.31
896.973	3851.55
897.152	3915.03
897.331	4111.64
897.511	4449.55
897.69	3579.17
897.87	3882.27
898.049	4085.01
898.228	4058.39
898.407	3835.16
898.587	3857.69
898.766	3994.9
898.945	4066.58
899.124	3929.37
899.304	3839.26
899.483	4046.1
899.662	4476.18
899.841	3671.33
900.02	3796.25
900.199	4285.72
900.378	4132.12
900.557	3685.66
900.737	3681.57
900.916	3960.09
901.095	4111.64
901.274	3927.32
901.453	3724.57
901.632	3798.3
901.811	3853.59
901.989	3697.95
902.168	3560.74
902.347	4007.19
902.526	3771.68
902.705	3743
902.884	3796.25
903.063	4130.07
903.242	4011.29
903.42	3628.32
903.599	3808.54
903.778	4209.94
903.957	4345.11
904.135	3708.19
904.314	3607.84
904.493	4035.86
904.672	3996.95
904.85	3743
905.029	3558.69
905.207	3960.09
905.386	4556.05
905.565	3501.34
905.743	3689.76
905.922	3730.72
906.1	4003.1
906.279	3458.34
906.457	3618.08
906.636	3743
906.814	3796.25
906.993	3548.45
907.171	3523.87
907.35	3884.31
907.528	4060.44
907.707	3777.82
907.885	3552.54
908.063	4150.55
908.242	3538.21
908.42	3511.58
908.598	3339.55
908.777	3890.46
908.955	3675.42
909.133	3597.6
909.311	3349.79
909.49	3736.86
909.668	3589.41
909.846	3532.06
910.024	3390.75
910.202	3683.61
910.38	3736.86
910.559	3323.17
910.737	3376.42
910.915	3833.11
911.093	3601.69
911.271	3413.28
911.449	3624.22
911.627	3730.72
911.805	4197.65
911.983	3415.33
912.161	3349.79
912.339	3743
912.517	4017.43
912.695	3573.02
912.872	3364.13
913.05	3376.42
913.228	3530.02
913.406	3403.04
913.584	3327.27
913.762	3818.78
913.939	3351.84
914.117	3333.41
914.295	3093.8
914.473	3833.11
914.65	3636.51
914.828	3257.64
915.006	3319.07
915.184	3235.11
915.361	3546.4
915.539	3403.04
915.716	3513.63
915.894	3622.17
916.072	3585.31
916.249	3384.61
916.427	3355.94
916.604	3482.91
916.782	3654.94
916.959	3126.57
917.137	3138.85
917.314	3560.74
917.492	3630.37
917.669	3231.01
917.847	3224.87
918.024	3456.29
918.201	3257.64
918.379	3376.42
918.556	3247.4
918.733	3542.3
918.911	3298.59
919.088	3298.59
919.265	3151.14
919.442	3366.18
919.62	3435.81
919.797	2909.48
919.974	2884.91
920.151	3392.8
920.328	3257.64
920.506	3075.37
920.683	3228.96
920.86	3130.66
921.037	2987.3
921.214	2899.24
921.391	3003.69
921.568	3437.86
921.745	3185.96
921.922	3042.6
922.099	2874.67
922.276	3556.64
922.453	3233.06
922.63	2872.62
922.807	3237.16
922.984	3192.1
923.161	2958.63
923.338	2936.1
923.514	2895.15
923.691	3091.75
923.868	3282.21
924.045	3046.69
924.222	2798.89
924.399	3079.46
924.575	3300.64
924.752	2923.82
924.929	2956.58
925.105	3206.44
925.282	2782.51
925.459	2708.78
925.635	2954.54
925.812	3091.75
925.989	2901.29
926.165	2805.03
926.342	2645.29
926.518	2661.68
926.695	3116.33
926.871	2813.23
927.048	2573.61
927.224	2999.59
927.401	2774.32
927.577	2784.55
927.754	2630.96
927.93	3118.37
928.107	3104.04
928.283	2692.4
928.459	2749.74
928.636	3069.22
928.812	2889
928.988	2551.09
929.165	2483.5
929.341	2706.73
929.517	2778.41
929.693	2827.56
929.87	2293.04
930.046	2919.72
930.222	2581.81
930.398	2469.17
930.574	2551.09
930.751	2692.4
930.927	2501.94
931.103	2403.63
931.279	2516.27
931.455	2436.4
931.631	2673.96
931.807	2270.51
931.983	2377.01
932.159	2184.5
932.335	2647.34
932.511	2391.34
932.687	2309.43
932.863	2612.53
933.039	2643.25
933.215	2168.12
933.391	2192.69
933.566	2381.11
933.742	2528.56
933.918	2323.76
934.094	2028.85
934.27	2530.61
934.445	2467.12
934.621	2413.87
934.797	2168.12
934.973	2647.34
935.148	2487.6
935.324	2084.15
935.5	1924.41
935.675	2567.47
935.851	2219.32
936.027	1932.6
936.202	1895.74
936.378	2114.87
936.553	2094.39
936.729	2204.98
936.904	1854.78
937.08	1852.73
937.255	1785.15
937.431	1750.33
937.606	1510.72
937.782	1770.81
937.957	1910.07
938.133	1658.17
938.308	1695.04
938.483	1740.09
938.659	1561.92
938.834	1658.17
939.009	1453.38
939.185	1701.18
939.36	1443.14
939.535	1303.87
939.71	1590.59
939.886	1901.88
940.061	1854.78
940.236	1574.21
940.411	1408.32
940.586	1537.34
940.761	1713.47
940.937	1443.14
941.112	1248.58
941.287	1480
941.462	1541.44
941.637	1086.79
941.812	1244.48
941.987	1549.63
942.162	1594.69
942.337	1267.01
942.512	1305.92
942.687	1533.25
942.862	1643.84
943.037	1146.18
943.212	922.95
943.386	1334.59
943.561	1406.27
943.736	1365.31
943.911	1480
944.086	1361.22
944.26	1502.53
944.435	1152.32
944.61	1338.69
944.785	1776.95
944.959	1789.24
945.134	1264.96
945.309	1078.6
945.483	1195.33
945.658	1611.07
945.833	918.86
946.007	988.49
946.182	1649.98
946.357	1140.04
946.531	1125.7
946.706	1013.06
946.88	970.05
947.055	1420.61
947.229	1189.19
947.404	1035.59
947.578	1576.25
947.752	1183.04
947.927	1017.16
948.101	978.25
948.276	1383.74
948.45	1383.74
948.624	1269.06
948.799	1099.08
948.973	1453.38
949.147	1000.77
949.321	1191.24
949.496	1148.23
949.67	1389.89
949.844	1344.83
950.018	1092.93
950.193	1115.46
950.367	1858.87
950.541	1228.1
950.715	1275.2
950.889	1146.18
951.063	1267.01
951.237	1500.48
951.411	937.29
951.585	869.7
951.759	1373.5
951.933	1246.53
952.107	1033.54
952.281	1320.26
952.455	1670.46
952.629	1541.44
952.803	1066.31
952.977	1058.12
953.151	1549.63
953.325	1410.37
953.499	1242.43
953.672	947.53
953.846	1137.99
954.02	1123.65
954.194	1129.8
954.368	1080.64
954.541	1516.86
954.715	1150.28
954.889	1144.13
955.062	1092.93
955.236	1318.21
955.41	1301.83
955.583	1172.8
955.757	941.38
955.93	1254.72
956.104	1029.45
956.278	1094.98
956.451	1170.76
956.625	1398.08
956.798	1787.19
956.972	1258.82
957.145	972.1
957.319	1281.35
957.492	1350.98
957.665	1115.46
957.839	1113.41
958.012	1269.06
958.185	1172.8
958.359	1078.6
958.532	1312.07
958.705	1502.53
958.879	1285.44
959.052	1150.28
959.225	986.44
959.398	1246.53
959.572	1359.17
959.745	1017.16
959.918	1094.98
960.091	1045.83
960.264	1432.9
960.438	929.1
960.611	935.24
960.784	1336.64
960.957	1156.42
961.13	1477.95
961.303	1004.87
961.476	1230.15
961.649	1529.15
961.822	943.43
961.995	1158.47
962.168	1373.5
962.341	1234.24
962.514	1101.12
962.686	1056.07
962.859	1320.26
963.032	1381.7
963.205	1037.64
963.378	951.62
963.551	1332.55
963.723	1291.59
963.896	1115.46
964.069	1150.28
964.242	1168.71
964.414	1387.84
964.587	1170.76
964.76	1178.95
964.932	1201.48
965.105	1189.19
965.278	1017.16
965.45	1045.83
965.623	1295.68
965.795	1338.69
965.968	1004.87
966.14	1109.32
966.313	1152.32
966.485	1189.19
966.658	1060.17
966.83	888.14
967.003	1490.24
967.175	1396.03
967.348	992.58
967.52	1111.36
967.692	1514.81
967.865	1258.82
968.037	998.73
968.209	1244.48
968.382	1125.7
968.554	1402.18
968.726	1131.84
968.898	865.61
969.071	1127.75
969.243	1213.76
969.415	970.05
969.587	1029.45
969.759	1637.69
969.932	1414.46
970.104	1043.78
970.276	601.42
970.448	1049.93
970.62	996.68
970.792	1076.55
970.964	1004.87
971.136	1654.08
971.308	1269.06
971.48	953.67
971.652	965.96
971.824	1498.43
971.996	1054.02
972.168	949.57
972.339	1064.26
972.511	1291.59
972.683	1049.93
972.855	1193.28
973.027	976.2
973.199	1094.98
973.37	1279.3
973.542	1109.32
973.714	1115.46
973.886	1084.74
974.057	1287.49
974.229	881.99
974.401	935.24
974.572	890.18
974.744	654.67
974.915	904.52
975.087	916.81
975.259	1426.75
975.43	1019.21
975.602	865.61
975.773	765.26
975.945	802.12
976.116	1226.05
976.288	830.79
976.459	992.58
976.63	994.63
976.802	1203.52
976.973	980.29
977.145	1041.73
977.316	1520.96
977.487	1350.98
977.659	1109.32
977.83	890.18
978.001	1531.2
978.172	1189.19
978.344	834.89
978.515	984.39
978.686	922.95
978.857	1439.04
979.028	951.62
979.2	816.46
979.371	1346.88
979.542	1086.79
979.713	1058.12
979.884	447.82
980.055	945.48
980.226	1006.92
980.397	685.39
980.568	673.1
980.739	1234.24
980.91	918.86
981.081	1019.21
981.252	771.4
981.423	1226.05
981.594	1250.63
981.765	718.15
981.936	898.38
982.106	1154.37
982.277	1189.19
982.448	726.35
982.619	943.43
982.79	927.05
982.96	1293.63
983.131	884.04
983.302	644.43
983.472	945.48
983.643	1054.02
983.814	970.05
983.984	855.37
984.155	978.25
984.326	1281.35
984.496	877.9
984.667	759.11
984.837	857.42
985.008	1287.49
985.178	953.67
985.349	857.42
985.519	918.86
985.69	890.18
985.86	816.46
986.031	646.48
986.201	953.67
986.371	1097.03
986.542	650.57
986.712	623.95
986.882	1152.32
987.053	1076.55
987.223	582.99
987.393	881.99
987.563	849.22
987.734	1111.36
987.904	1062.21
988.074	675.15
988.244	1033.54
988.414	802.12
988.585	755.02
988.755	828.74
988.925	908.62
989.095	1256.77
989.265	677.2
989.435	783.69
989.605	1039.69
989.775	1051.97
989.945	1002.82
990.115	646.48
990.285	892.23
990.455	912.71
990.625	855.37
990.795	767.31
990.965	1230.15
991.134	767.31
991.304	640.33
991.474	648.52
991.644	1125.7
991.814	1312.07
991.984	628.04
992.153	578.89
992.323	871.75
992.493	857.42
992.662	550.22
992.832	814.41
993.002	910.66
993.171	935.24
993.341	511.31
993.511	767.31
993.68	683.34
993.85	990.53
994.019	509.26
994.189	513.36
994.358	908.62
994.528	812.36
994.697	343.38
994.867	537.93
995.036	990.53
995.206	791.88
995.375	613.71
995.544	808.27
995.714	904.52
995.883	732.49
996.052	816.46
996.222	314.7
996.391	1408.32
996.56	752.97
996.73	587.08
996.899	525.65
997.068	1224
997.237	789.83
997.406	470.35
997.576	372.05
997.745	828.74
997.914	849.22
998.083	355.66
998.252	570.7
998.421	873.8
998.59	677.2
998.759	390.48
998.928	413.01
999.097	1023.3
999.266	908.62
999.435	660.81
999.604	341.33
999.773	1307.97
999.942	707.91
1000.111	402.77
1000.28	288.08
1000.448	533.84
1000.617	654.67
1000.786	638.28
1000.955	333.14
1001.124	789.83
1001.292	1377.6
1001.461	486.73
1001.63	370
1001.798	1092.93
1001.967	1033.54
1002.136	337.23
1002.304	400.72
1002.473	806.22
1002.642	775.5
1002.81	574.8
1002.979	400.72
1003.147	1002.82
1003.316	1357.12
1003.484	404.82
1003.653	351.57
1003.821	1129.8
1003.99	671.05
1004.158	507.21
1004.327	529.74
1004.495	898.38
1004.663	488.78
1004.832	601.42
1005	275.79
1005.168	785.74
1005.337	795.98
1005.505	320.85
1005.673	492.88
1005.842	804.17
1006.01	775.5
1006.178	269.65
1006.346	431.44
1006.514	750.92
1006.683	968.01
1006.851	392.53
1007.019	286.03
1007.187	380.24
1007.355	228.69
1007.523	189.78
1007.691	269.65
1007.859	453.97
1008.027	867.66
1008.195	478.54
1008.363	226.64
1008.531	875.85
1008.699	427.34
1008.867	329.04
1009.035	296.27
1009.203	959.81
1009.37	728.39
1009.538	337.23
1009.706	804.17
1009.874	570.7
1010.042	529.74
1010.209	189.78
1010.377	240.98
1010.545	832.84
1010.713	691.53
1010.88	259.41
1011.048	378.19
1011.216	470.35
1011.383	881.99
1011.551	210.26
1011.718	279.89
1011.886	828.74
1012.054	615.76
1012.221	236.88
1012.389	308.56
1012.556	478.54
1012.724	980.29
1012.891	384.34
1013.058	89.43
1013.226	757.07
1013.393	795.98
1013.561	195.92
1013.728	79.19
1013.895	802.12
1014.063	699.72
1014.23	167.25
1014.397	265.55
1014.565	820.55
1014.732	511.31
1014.899	95.57
1015.066	161.11
1015.233	580.94
1015.401	695.63
1015.568	308.56
1015.735	404.82
1015.902	595.28
1016.069	742.73
1016.236	339.28
1016.403	177.49
1016.57	316.75
1016.737	752.97
1016.904	308.56
1017.071	132.44
1017.238	480.59
1017.405	716.11
1017.572	210.26
1017.739	460.11
1017.906	609.61
1018.073	750.92
1018.24	269.65
1018.407	257.36
1018.573	818.5
1018.74	492.88
1018.907	306.51
1019.074	116.05
1019.241	761.16
1019.407	566.6
1019.574	222.55
1019.741	157.01
1019.907	679.24
1020.074	736.59
1020.241	36.18
1020.407	101.72
1020.574	638.28
1020.74	613.71
1020.907	183.63
1021.073	226.64
1021.24	978.25
1021.406	820.55
1021.573	126.29
1021.739	216.4
1021.906	599.37
1022.072	488.78
1022.239	181.59
1022.405	173.39
1022.571	413.01
1022.738	406.86
1022.904	183.63
1023.07	204.11
1023.237	517.45
1023.403	814.41
1023.569	218.45
1023.735	226.64
1023.902	511.31
1024.068	550.22
1024.234	81.24
1024.4	146.77
1024.566	615.76
1024.732	691.53
1024.898	210.26
1025.065	-113.32
1025.231	619.85
1025.397	488.78
1025.563	195.92
1025.729	116.05
1025.895	38.23
1026.061	269.65
1026.227	21.85
1026.392	152.92
1026.558	755.02
1026.724	593.23
1026.89	109.91
1027.056	257.36
1027.222	490.83
1027.388	390.48
1027.553	142.68
1027.719	83.28
1027.885	871.75
1028.051	578.89
1028.216	-21.16
1028.382	118.1
1028.548	677.2
1028.713	413.01
1028.879	48.47
1029.045	294.22
1029.21	728.39
1029.376	664.91
1029.541	216.4
1029.707	109.91
1029.873	542.03
1030.038	607.56
1030.204	97.62
1030.369	118.1
1030.534	529.74
1030.7	326.99
1030.865	187.73
1031.031	68.95
1031.196	556.36
1031.361	437.58
1031.527	58.71
1031.692	101.72
1031.857	95.57
1032.023	529.74
1032.188	-17.07
1032.353	185.68
1032.518	838.98
1032.684	515.41
1032.849	-37.55
1033.014	132.44
1033.179	628.04
1033.344	544.08
1033.509	163.15
1033.674	66.9
1033.839	560.46
1034.004	488.78
1034.17	66.9
1034.335	5.46
1034.5	312.66
1034.664	181.59
1034.829	120.15
1034.994	97.62
1035.159	605.52
1035.324	406.86
1035.489	144.72
1035.654	30.04
1035.819	759.11
1035.984	482.64
1036.148	224.59
1036.313	83.28
1036.478	623.95
1036.643	326.99
1036.807	38.23
1036.972	9.56
1037.137	730.44
1037.301	441.68
1037.466	-150.18
1037.631	159.06
1037.795	732.49
1037.96	519.5
1038.124	296.27
1038.289	-0.68
1038.454	519.5
1038.618	574.8
1038.783	66.9
1038.947	134.48
1039.111	478.54
1039.276	269.65
1039.44	-62.12
1039.605	431.44
1039.769	226.64
1039.933	388.43
1040.098	87.38
1040.262	347.47
1040.426	619.85
1040.591	453.97
1040.755	68.95
1040.919	68.95
1041.083	439.63
1041.248	255.31
1041.412	-55.98
1041.576	-35.5
1041.74	267.6
1041.904	585.04
1042.068	-4.78
1042.232	124.24
1042.397	544.08
1042.561	462.16
1042.725	-215.72
1042.889	154.96
1043.053	484.69
1043.217	525.65
1043.381	23.89
1043.544	-107.18
1043.708	675.15
1043.872	128.34
1044.036	-199.34
1044.2	-39.59
1044.364	636.24
1044.528	736.59
1044.691	2960.68
1044.855	-2.73
1045.019	580.94
1045.183	468.3
1045.346	81.24
1045.51	-0.68
1045.674	458.06
1045.837	568.65
1046.001	44.37
1046.165	-92.84
1046.328	910.66
1046.492	460.11
1046.655	202.07
1046.819	105.81
1046.983	193.87
1047.146	486.73
1047.31	105.81
1047.473	-176.81
1047.636	394.58
1047.8	197.97
1047.963	56.66
1048.127	-33.45
1048.29	253.27
