Data from Ink_Intensity_USB4F045381__125__00125.txt Node

Date: Mon Jul 17 11:13:06 EDT 2023
User: mmckonesweet
Spectrometer: USB4F04538
Trigger mode: 4
Integration Time (sec): 9.000000E-1
Scans to average: 1
Electric dark correction enabled: true
Nonlinearity correction enabled: false
Boxcar width: 0
XAxis mode: Wavelengths
Number of Pixels in Spectrum: 3648
>>>>>Begin Spectral Data<<<<<
345.52	-1001.46
345.736	-1001.46
345.952	-1001.46
346.168	-1009.65
346.384	-1017.84
346.6	-81.92
346.816	-260.09
347.032	-176.13
347.248	256
347.464	-243.71
347.68	-73.73
347.896	55.3
348.112	409.59
348.328	-90.11
348.544	-63.49
348.76	40.96
348.975	227.32
349.191	-133.12
349.407	-245.76
349.623	2.05
349.839	-192.51
350.055	-155.65
350.27	38.91
350.486	161.79
350.702	335.87
350.918	237.56
351.133	-184.32
351.349	180.22
351.565	409.59
351.781	-208.89
351.996	-147.45
352.212	288.76
352.428	-155.65
352.644	-184.32
352.859	-198.65
353.075	260.09
353.291	26.62
353.506	-149.5
353.722	-174.08
353.938	-75.77
354.153	491.51
354.369	79.87
354.584	-217.08
354.8	280.57
355.016	-362.49
355.231	-239.61
355.447	-77.82
355.662	174.08
355.878	757.75
356.093	-403.45
356.309	-71.68
356.524	-284.67
356.74	217.08
356.955	-274.43
357.171	20.48
357.386	163.84
357.602	-258.04
357.817	-151.55
358.033	-165.89
358.248	296.96
358.464	131.07
358.679	-133.12
358.895	-309.24
359.11	-10.24
359.325	253.95
359.541	-73.73
359.756	-22.53
359.972	-288.76
360.187	141.31
360.402	-194.56
360.618	-139.26
360.833	1038.32
361.048	141.31
361.264	-153.6
361.479	-108.54
361.694	30.72
361.909	280.57
362.125	-182.27
362.34	-176.13
362.555	413.69
362.77	53.25
362.986	-317.44
363.201	-215.04
363.416	163.84
363.631	49.15
363.847	-247.8
364.062	-190.46
364.277	157.69
364.492	102.4
364.707	-118.78
364.922	-397.31
365.138	223.23
365.353	305.15
365.568	-198.65
365.783	-169.98
365.998	120.83
366.213	612.34
366.428	-186.37
366.643	38.91
366.858	290.81
367.073	219.13
367.288	-133.12
367.503	-319.48
367.718	45.06
367.933	405.5
368.148	-301.05
368.363	-145.41
368.578	-20.48
368.793	436.22
369.008	-137.21
369.223	-243.71
369.438	161.79
369.653	374.78
369.868	-223.23
370.083	-303.1
370.298	118.78
370.513	493.56
370.728	30.72
370.943	-233.47
371.157	-192.51
371.372	503.8
371.587	-321.53
371.802	-268.28
372.017	137.21
372.232	454.65
372.446	-43.01
372.661	-217.08
372.876	204.8
373.091	208.89
373.306	-118.78
373.52	-219.13
373.735	-219.13
373.95	421.88
374.165	-40.96
374.379	-227.32
374.594	-112.64
374.809	126.97
375.023	129.02
375.238	-317.44
375.453	260.09
375.667	-235.52
375.882	-202.75
376.097	-253.95
376.311	12.29
376.526	0
376.741	-172.03
376.955	118.78
377.17	534.52
377.384	493.56
377.599	-16.38
377.813	-264.19
378.028	634.87
378.242	212.99
378.457	-90.11
378.672	-356.35
378.886	116.73
379.101	-49.15
379.315	-339.96
379.53	-96.25
379.744	247.8
379.958	194.56
380.173	-221.18
380.387	-208.89
380.602	92.16
380.816	-202.75
381.031	-194.56
381.245	-233.47
381.459	155.65
381.674	2701.27
381.888	-268.28
382.103	57.34
382.317	-163.84
382.531	530.42
382.746	-47.1
382.96	-143.36
383.174	-53.25
383.388	456.7
383.603	26.62
383.817	-380.92
384.031	149.5
384.246	501.75
384.46	-59.39
384.674	305.15
384.888	18.43
385.103	83.97
385.317	-266.24
385.531	-133.12
385.745	382.97
385.959	346.11
386.174	-235.52
386.388	-264.19
386.602	-8.19
386.816	-45.06
387.03	-129.02
387.244	-96.25
387.458	2.05
387.672	376.83
387.887	-286.72
388.101	-286.72
388.315	303.1
388.529	204.8
388.743	-186.37
388.957	-342.01
389.171	315.39
389.385	-225.28
389.599	-161.79
389.813	30.72
390.027	274.43
390.241	634.87
390.455	-110.59
390.669	-139.26
390.883	-118.78
391.097	370.68
391.311	102.4
391.525	-161.79
391.738	184.32
391.952	174.08
392.166	-45.06
392.38	-237.56
392.594	335.87
392.808	352.25
393.022	-141.31
393.236	-129.02
393.449	225.28
393.663	237.56
393.877	-286.72
394.091	-57.34
394.305	-129.02
394.518	-100.35
394.732	-319.48
394.946	-174.08
395.16	501.75
395.373	104.45
395.587	-176.13
395.801	-217.08
396.015	280.57
396.228	155.65
396.442	-278.52
396.656	-415.74
396.869	303.1
397.083	399.35
397.297	-83.97
397.51	-145.41
397.724	348.15
397.938	143.36
398.151	-290.81
398.365	-239.61
398.578	301.05
398.792	362.49
399.005	-4.1
399.219	-100.35
399.433	98.3
399.646	219.13
399.86	49.15
400.073	-81.92
400.287	198.65
400.5	-28.67
400.714	-69.63
400.927	-30.72
401.141	212.99
401.354	1026.03
401.567	247.8
401.781	-321.53
401.994	280.57
402.208	585.72
402.421	-129.02
402.635	-178.17
402.848	59.39
403.061	247.8
403.275	-26.62
403.488	-237.56
403.701	503.8
403.915	239.61
404.128	34.82
404.341	-184.32
404.555	235.52
404.768	34.82
404.981	79.87
405.195	-204.8
405.408	477.18
405.621	301.05
405.834	-12.29
406.048	-208.89
406.261	436.22
406.474	530.42
406.687	-198.65
406.9	-100.35
407.114	45.06
407.327	235.52
407.54	-301.05
407.753	-272.38
407.966	-120.83
408.179	161.79
408.392	-198.65
408.605	-270.33
408.819	165.89
409.032	153.6
409.245	-229.37
409.458	112.64
409.671	221.18
409.884	237.56
410.097	-368.63
410.31	-24.58
410.523	217.08
410.736	-61.44
410.949	-69.63
411.162	-96.25
411.375	440.31
411.588	395.26
411.801	61.44
412.014	-247.8
412.227	-28.67
412.44	-69.63
412.653	-145.41
412.865	12.29
413.078	251.9
413.291	174.08
413.504	-88.06
413.717	-219.13
413.93	102.4
414.143	-178.17
414.356	-102.4
414.568	-284.67
414.781	266.24
414.994	141.31
415.207	-57.34
415.42	-61.44
415.632	243.71
415.845	546.81
416.058	-378.87
416.271	-270.33
416.483	43.01
416.696	497.66
416.909	-141.31
417.121	-143.36
417.334	169.98
417.547	526.33
417.759	-206.84
417.972	-268.28
418.185	-6.14
418.397	241.66
418.61	-120.83
418.823	-235.52
419.035	387.07
419.248	10.24
419.46	-174.08
419.673	-61.44
419.885	149.5
420.098	-135.17
420.311	-208.89
420.523	-401.4
420.736	176.13
420.948	75.77
421.161	-180.22
421.373	-387.07
421.586	100.35
421.798	-174.08
422.01	-311.29
422.223	-126.97
422.435	-63.49
422.648	212.99
422.86	-178.17
423.073	-149.5
423.285	307.2
423.497	-329.72
423.71	-266.24
423.922	-274.43
424.134	102.4
424.347	423.93
424.559	26.62
424.771	-10.24
424.984	-30.72
425.196	124.93
425.408	-364.54
425.621	-354.3
425.833	305.15
426.045	385.02
426.257	-292.86
426.47	-221.18
426.682	153.6
426.894	122.88
427.106	-182.27
427.318	-63.49
427.531	-131.07
427.743	274.43
427.955	-172.03
428.167	282.62
428.379	131.07
428.591	-77.82
428.804	-108.54
429.016	-290.81
429.228	-45.06
429.44	133.12
429.652	100.35
429.864	-253.95
430.076	14.34
430.288	-6.14
430.5	-40.96
430.712	-47.1
430.924	327.67
431.136	92.16
431.348	-321.53
431.56	-239.61
431.772	69.63
431.984	-104.45
432.196	-198.65
432.408	-190.46
432.62	18.43
432.832	221.18
433.044	73.73
433.256	-18.43
433.468	126.97
433.679	-307.2
433.891	-284.67
434.103	-34.82
434.315	364.54
434.527	208.89
434.739	-10.24
434.95	-210.94
435.162	301.05
435.374	-65.54
435.586	-114.69
435.798	-188.41
436.009	-215.04
436.221	-22.53
436.433	-141.31
436.645	-112.64
436.856	-2.05
437.068	354.3
437.28	-112.64
437.491	147.45
437.703	235.52
437.915	118.78
438.126	-176.13
438.338	36.86
438.55	-90.11
438.761	241.66
438.973	-145.41
439.184	-122.88
439.396	69.63
439.608	256
439.819	-268.28
440.031	-81.92
440.242	284.67
440.454	223.23
440.665	-169.98
440.877	-94.21
441.088	247.8
441.3	-45.06
441.511	-321.53
441.723	-247.8
441.934	186.37
442.146	69.63
442.357	-92.16
442.569	100.35
442.78	55.3
442.991	520.18
443.203	45.06
443.414	-251.9
443.626	395.26
443.837	-129.02
444.048	-219.13
444.26	-387.07
444.471	90.11
444.682	284.67
444.894	-413.69
445.105	-272.38
445.316	333.82
445.528	190.46
445.739	-36.86
445.95	-139.26
446.161	182.27
446.373	233.47
446.584	-239.61
446.795	-264.19
447.006	184.32
447.217	407.55
447.429	-247.8
447.64	-233.47
447.851	415.74
448.062	65.53
448.273	-352.25
448.484	-178.17
448.695	167.93
448.907	30.72
449.118	-79.87
449.329	14.34
449.54	-47.1
449.751	-135.17
449.962	-190.46
450.173	-196.61
450.384	335.87
450.595	419.83
450.806	-178.17
451.017	-100.35
451.228	337.91
451.439	313.34
451.65	-172.03
451.861	-403.45
452.072	-163.84
452.283	98.3
452.494	-12.29
452.705	-192.51
452.915	487.42
453.126	258.04
453.337	-131.07
453.548	-241.66
453.759	241.66
453.97	532.47
454.181	65.53
454.391	-169.98
454.602	208.89
454.813	262.14
455.024	-38.91
455.235	-204.8
455.445	219.13
455.656	90.11
455.867	34.82
456.078	-172.03
456.288	-28.67
456.499	159.74
456.71	-241.66
456.921	61.44
457.131	182.27
457.342	86.01
457.553	-71.68
457.763	-202.75
457.974	307.2
458.184	231.42
458.395	-206.84
458.606	-196.61
458.816	356.35
459.027	464.89
459.237	-51.2
459.448	-350.2
459.659	356.35
459.869	651.25
460.08	-395.26
460.29	-34.82
460.501	552.95
460.711	-77.82
460.922	-276.48
461.132	-208.89
461.343	716.79
461.553	-192.51
461.764	-256
461.974	-229.37
462.184	268.28
462.395	225.28
462.605	-92.16
462.816	-290.81
463.026	145.41
463.236	387.07
463.447	-225.28
463.657	-237.56
463.867	331.77
464.078	16.38
464.288	-124.93
464.498	-172.03
464.709	55.3
464.919	63.49
465.129	-108.54
465.339	-266.24
465.55	165.89
465.76	309.24
465.97	-112.64
466.18	-194.56
466.391	333.82
466.601	157.69
466.811	-79.87
467.021	-329.72
467.231	133.12
467.441	428.03
467.651	-102.4
467.862	-350.2
468.072	34.82
468.282	350.2
468.492	-190.46
468.702	-120.83
468.912	133.12
469.122	698.36
469.332	34.82
469.542	-129.02
469.752	372.73
469.962	200.7
470.172	-288.76
470.382	-174.08
470.592	352.25
470.802	362.49
471.012	-43.01
471.222	-129.02
471.432	366.59
471.642	280.57
471.852	-30.72
472.062	-198.65
472.272	59.39
472.482	-47.1
472.691	-272.38
472.901	-276.48
473.111	215.04
473.321	677.88
473.531	-247.8
473.741	28.67
473.95	202.75
474.16	344.06
474.37	-51.2
474.58	-196.61
474.79	593.91
474.999	315.39
475.209	-155.65
475.419	-137.21
475.628	77.82
475.838	344.06
476.048	-26.62
476.258	-210.94
476.467	450.55
476.677	-22.53
476.886	71.68
477.096	-22.53
477.306	-22.53
477.515	452.6
477.725	-51.2
477.935	26.62
478.144	475.13
478.354	30.72
478.563	-83.97
478.773	-81.92
478.982	366.59
479.192	473.08
479.401	-10.24
479.611	-192.51
479.82	-51.2
480.03	296.96
480.239	-75.77
480.449	-272.38
480.658	595.96
480.868	65.53
481.077	-40.96
481.287	-120.83
481.496	276.48
481.705	606.2
481.915	198.65
482.124	260.09
482.333	305.15
482.543	583.67
482.752	67.58
482.961	-122.88
483.171	399.35
483.38	139.26
483.589	6.14
483.799	-155.65
484.008	155.65
484.217	346.11
484.426	-26.62
484.636	-151.55
484.845	227.32
485.054	-38.91
485.263	305.15
485.472	-30.72
485.682	557.05
485.891	309.24
486.1	-108.54
486.309	-51.2
486.518	397.31
486.727	632.82
486.936	-63.49
487.146	77.82
487.355	579.58
487.564	59.39
487.773	4.1
487.982	-36.86
488.191	131.07
488.4	376.83
488.609	18.43
488.818	10.24
489.027	845.81
489.236	587.77
489.445	51.2
489.654	-30.72
489.863	534.52
490.072	282.62
490.281	358.39
490.49	79.87
490.698	729.08
490.907	749.56
491.116	79.87
491.325	-83.97
491.534	720.88
491.743	452.6
491.952	198.65
492.16	159.74
492.369	497.66
492.578	593.91
492.787	141.31
492.996	-79.87
493.204	143.36
493.413	745.46
493.622	-120.83
493.831	-126.97
494.039	792.56
494.248	36.86
494.457	28.67
494.665	-22.53
494.874	438.27
495.083	786.42
495.291	172.03
495.5	-26.62
495.709	567.29
495.917	368.63
496.126	274.43
496.335	32.77
496.543	249.85
496.752	509.94
496.96	346.11
497.169	-12.29
497.377	415.74
497.586	677.88
497.794	292.86
498.003	-40.96
498.211	313.34
498.42	763.89
498.628	106.49
498.837	-61.44
499.045	565.24
499.254	452.6
499.462	47.1
499.671	126.97
499.879	880.63
500.087	661.49
500.296	139.26
500.504	145.41
500.713	544.76
500.921	921.59
501.129	129.02
501.338	153.6
501.546	591.86
501.754	471.03
501.962	157.69
502.171	124.93
502.379	522.23
502.587	886.77
502.795	208.89
503.004	120.83
503.212	448.51
503.42	655.35
503.628	135.17
503.837	247.8
504.045	587.77
504.253	956.4
504.461	126.97
504.669	36.86
504.877	710.65
505.085	854
505.294	102.4
505.502	458.74
505.71	587.77
505.918	684.02
506.126	202.75
506.334	215.04
506.542	497.66
506.75	575.48
506.958	299
507.166	151.55
507.374	354.3
507.582	987.12
507.79	325.63
507.998	212.99
508.206	604.15
508.414	563.19
508.622	215.04
508.83	253.95
509.037	1005.55
509.245	454.65
509.453	270.33
509.661	86.01
509.869	700.41
510.077	413.69
510.285	397.31
510.492	16.38
510.7	1114.09
510.908	489.46
511.116	292.86
511.324	264.19
511.531	485.37
511.739	614.39
511.947	477.18
512.155	606.2
512.362	557.05
512.57	370.68
512.778	278.52
512.985	149.5
513.193	929.78
513.401	962.55
513.608	288.76
513.816	358.39
514.024	718.84
514.231	901.11
514.439	276.48
514.646	319.48
514.854	862.19
515.061	985.07
515.269	268.28
515.477	419.83
515.684	466.94
515.892	757.75
516.099	153.6
516.307	155.65
516.514	845.81
516.722	1122.29
516.929	415.74
517.136	296.96
517.344	1060.85
517.551	714.74
517.759	395.26
517.966	555
518.173	501.75
518.381	684.02
518.588	432.12
518.796	307.2
519.003	935.92
519.21	653.3
519.418	370.68
519.625	708.6
519.832	729.08
520.039	782.32
520.247	100.35
520.454	407.55
520.661	1075.18
520.868	792.56
521.076	421.88
521.283	464.89
521.49	1241.07
521.697	823.28
521.904	526.33
522.112	399.35
522.319	901.11
522.526	888.82
522.733	382.97
522.94	358.39
523.147	763.89
523.354	894.96
523.561	436.22
523.768	626.68
523.975	1110
524.183	897.01
524.39	577.53
524.597	354.3
524.804	858.1
525.011	647.16
525.218	432.12
525.425	473.08
525.632	1073.14
525.838	600.05
526.045	415.74
526.252	430.07
526.459	2017.25
526.666	1552.36
526.873	440.31
527.08	569.34
527.287	1304.56
527.494	1120.24
527.701	403.45
527.907	471.03
528.114	1015.79
528.321	804.85
528.528	548.86
528.735	563.19
528.941	702.45
529.148	854
529.355	702.45
529.562	534.52
529.768	1267.69
529.975	739.32
530.182	700.41
530.388	591.86
530.595	1099.76
530.802	624.63
531.008	681.97
531.215	661.49
531.422	1304.56
531.628	1677.29
531.835	714.74
532.042	710.65
532.248	811
532.455	985.07
532.661	669.69
532.868	567.29
533.074	1116.14
533.281	1228.78
533.487	849.91
533.694	638.97
533.9	751.6
534.107	1124.33
534.313	675.83
534.52	591.86
534.726	1167.34
534.933	1486.83
535.139	657.4
535.345	571.38
535.552	987.12
535.758	1124.33
535.965	845.81
536.171	628.73
536.377	1210.35
536.584	1322.99
536.79	792.56
536.996	839.67
537.203	976.88
537.409	1173.49
537.615	831.48
537.821	919.54
538.028	1265.64
538.234	1284.08
538.44	788.47
538.646	847.86
538.853	1261.55
539.059	1062.9
539.265	1142.77
539.471	645.11
539.677	1312.75
539.883	976.88
540.09	774.13
540.296	1230.83
540.502	1173.49
540.708	1009.65
540.914	1019.89
541.12	755.7
541.326	1275.88
541.532	1101.81
541.738	903.15
541.944	878.58
542.15	1435.63
542.356	1140.72
542.562	849.91
542.768	952.31
542.974	1726.44
543.18	1740.77
543.386	999.41
543.592	739.32
543.798	1644.52
544.004	1423.34
544.21	833.52
544.415	1040.37
544.621	1312.75
544.827	1544.17
545.033	899.06
545.239	1124.33
545.445	968.69
545.651	1333.23
545.856	940.02
546.062	935.92
546.268	1163.25
546.474	1279.98
546.679	1042.42
546.885	1099.76
547.091	1140.72
547.297	1722.34
547.502	1112.05
547.708	913.39
547.914	1224.69
548.119	1454.06
548.325	993.26
548.531	962.55
548.736	1804.26
548.942	1218.54
549.147	989.17
549.353	1284.08
549.559	1714.15
549.764	1415.15
549.97	1089.52
550.175	1030.13
550.381	1533.93
550.586	1331.18
550.792	1226.73
550.997	1091.57
551.203	1519.59
551.408	1624.04
551.614	933.87
551.819	1069.04
552.025	1920.99
552.23	1869.8
552.435	1066.99
552.641	1394.67
552.846	1353.71
553.052	1701.86
553.257	1230.83
553.462	1079.28
553.668	1286.12
553.873	1601.51
554.078	1257.45
554.283	1193.97
554.489	1521.64
554.694	1531.88
554.899	1126.38
555.105	1404.91
555.31	1652.71
555.515	1615.85
555.72	1341.42
555.925	1144.81
556.131	1755.11
556.336	1441.77
556.541	1269.74
556.746	1304.56
556.951	1796.07
557.156	1925.09
557.361	1398.76
557.567	1372.14
557.772	2021.35
557.977	1730.53
558.182	1296.36
558.387	1263.6
558.592	1460.2
558.797	1982.43
559.002	1464.3
559.207	1558.5
559.412	1665
559.617	2207.71
559.822	1271.79
560.027	1259.5
560.232	1748.97
560.437	1794.02
560.642	1267.69
560.847	1378.28
561.051	1728.49
561.256	1867.75
561.461	1447.91
561.666	1419.24
561.871	1695.72
562.076	1945.57
562.281	1513.45
562.485	1341.42
562.69	1828.84
562.895	1908.71
563.1	1501.16
563.305	1337.32
563.509	2082.78
563.714	2437.08
563.919	1509.35
564.123	1431.53
564.328	1742.82
564.533	2133.98
564.737	1535.98
564.942	1503.21
565.147	2156.51
565.351	2254.81
565.556	1583.08
565.761	1667.05
565.965	2009.06
566.17	1648.61
566.374	1468.39
566.579	1474.54
566.784	1892.32
566.988	1636.33
567.193	1474.54
567.397	1638.37
567.602	1624.04
567.806	1877.99
568.011	1650.66
568.215	1765.35
568.42	1845.22
568.624	1964
568.828	1517.54
569.033	1820.64
569.237	2050.02
569.442	1992.67
569.646	1404.91
569.85	1660.9
570.055	2000.87
570.259	2050.02
570.463	1880.04
570.668	1708.01
570.872	1892.32
571.076	1976.29
571.281	1830.88
571.485	1845.22
571.689	1972.19
571.893	2242.53
572.098	1769.44
572.302	1705.96
572.506	2181.09
572.71	2060.26
572.914	1828.84
573.119	1640.42
573.323	2340.83
573.527	2342.88
573.731	1697.77
573.935	1566.7
574.139	2150.37
574.343	1943.52
574.547	1873.89
574.751	1861.6
574.955	2475.99
575.159	2488.28
575.364	1804.26
575.568	1746.92
575.772	2076.64
575.976	2435.03
576.18	1812.45
576.383	1677.29
576.587	2529.24
576.791	2314.2
576.995	1853.41
577.199	1617.9
577.403	2359.26
577.607	2496.47
577.811	1697.77
578.015	2002.91
578.219	2271.2
578.422	2494.43
578.626	2054.11
578.83	2017.25
579.034	2596.82
579.238	2340.83
579.442	2029.54
579.645	2473.95
579.849	2103.26
580.053	2365.4
580.257	1914.85
580.46	2213.85
580.664	2617.3
580.868	2475.99
581.071	2281.44
581.275	2129.89
581.479	2088.93
581.682	2557.91
581.886	1945.57
582.09	2209.76
582.293	2459.61
582.497	2562.01
582.7	2246.62
582.904	2002.91
583.107	2248.67
583.311	2385.88
583.515	2197.47
583.718	2168.8
583.922	2549.72
584.125	2901.97
584.329	2066.4
584.532	2303.96
584.735	2801.62
584.939	2510.81
585.142	1947.62
585.346	2164.7
585.549	2424.79
585.753	2482.14
585.956	2193.37
586.159	2289.63
586.363	2922.45
586.566	2705.37
586.769	2230.24
586.973	2129.89
587.176	2836.44
587.379	2922.45
587.582	2621.4
587.786	2553.82
587.989	2633.69
588.192	3362.76
588.395	2346.97
588.599	2652.12
588.802	2869.2
589.005	2670.55
589.208	2361.31
589.411	2400.22
589.615	2947.03
589.818	2955.22
590.021	2617.3
590.224	2496.47
590.427	2775
590.63	2775
590.833	2213.85
591.036	2373.6
591.239	2643.93
591.442	2586.58
591.645	2787.29
591.848	2385.88
592.051	2828.24
592.254	3045.33
592.457	2480.09
592.66	2648.02
592.863	2590.68
593.066	2877.4
593.269	2455.51
593.472	2584.54
593.675	2547.67
593.878	3176.4
594.081	2506.71
594.284	2367.45
594.486	3055.57
594.689	2994.13
594.892	2623.45
595.095	2803.67
595.298	3086.29
595.5	2930.64
595.703	2951.12
595.906	2746.33
596.109	3229.65
596.311	3155.92
596.514	2445.27
596.717	2881.49
596.92	3250.13
597.122	3084.24
597.325	2549.72
597.528	2674.65
597.73	3401.68
597.933	2934.74
598.136	2693.08
598.338	2349.02
598.541	3172.3
598.743	3342.28
598.946	2758.61
599.148	2844.63
599.351	3424.2
599.554	3354.57
599.756	3002.32
599.959	3006.42
600.161	3373
600.363	3780.55
600.566	3106.77
600.768	2938.84
600.971	3588.04
601.173	3393.48
601.376	2836.44
601.578	2840.53
601.78	3368.91
601.983	3841.99
602.185	2947.03
602.388	3166.16
602.59	3338.19
602.792	3194.83
602.995	3151.82
603.197	3028.95
603.399	3452.88
603.601	3450.83
603.804	3123.15
604.006	2914.26
604.208	3188.69
604.41	2809.81
604.613	3250.13
604.815	2895.83
605.017	3917.76
605.219	3155.92
605.421	3348.43
605.623	3117.01
605.826	3815.37
606.028	3665.86
606.23	3119.06
606.432	3178.45
606.634	3868.61
606.836	3776.45
607.038	3061.71
607.24	3248.08
607.442	3459.02
607.644	3538.89
607.846	3336.14
608.048	3114.96
608.25	3815.37
608.452	3209.17
608.654	3231.69
608.856	3016.66
609.058	3481.55
609.26	3575.75
609.462	3319.76
609.664	3399.63
609.866	3782.6
610.067	3696.58
610.269	3430.35
610.471	3313.61
610.673	3430.35
610.875	3688.39
611.077	2996.18
611.278	3311.57
611.48	3629
611.682	4065.22
611.884	3434.44
612.085	3471.31
612.287	3467.21
612.489	3727.3
612.69	3237.84
612.892	3461.07
613.094	3895.24
613.295	3747.78
613.497	3235.79
613.699	3385.29
613.9	3993.54
614.102	3837.89
614.304	3522.51
614.505	3229.65
614.707	3819.46
614.908	3678.15
615.11	3260.37
615.311	3524.55
615.513	3829.7
615.714	3977.16
615.916	3360.72
616.117	3522.51
616.319	3612.62
616.52	3934.15
616.722	3405.77
616.923	3575.75
617.124	4155.33
617.326	3948.48
617.527	3590.09
617.729	3635.14
617.93	3893.19
618.131	4026.31
618.333	3583.95
618.534	3585.99
618.735	3788.74
618.937	4229.06
619.138	3413.96
619.339	3483.59
619.54	3993.54
619.742	3766.21
619.943	3796.93
620.144	3618.76
620.345	4091.84
620.546	4290.49
620.748	3569.61
620.949	3700.68
621.15	3815.37
621.351	3835.85
621.552	3561.42
621.753	3567.56
621.954	3624.9
622.155	4464.57
622.356	3657.67
622.558	3913.67
622.759	4075.46
622.96	4339.65
623.161	3715.02
623.362	3622.86
623.563	4171.71
623.764	4048.83
623.965	3786.69
624.166	3968.96
624.366	3905.48
624.567	4040.64
624.768	3411.92
624.969	3672.01
625.17	4065.22
625.371	4231.1
625.572	3911.62
625.773	3905.48
625.973	4345.79
626.174	4315.07
626.375	3983.3
626.576	3944.39
626.777	4423.61
626.977	4661.18
627.178	3876.8
627.379	4143.04
627.58	4235.2
627.78	4231.1
627.981	3985.35
628.182	4071.36
628.382	4335.55
628.583	3907.52
628.784	3991.49
628.984	3930.05
629.185	4569.02
629.386	4515.77
629.586	4083.65
629.787	4089.79
629.987	4552.63
630.188	4331.45
630.388	4016.07
630.589	4042.69
630.79	4810.68
630.99	4220.86
631.191	4257.73
631.391	4255.68
631.591	4497.34
631.792	4818.87
631.992	4321.21
632.193	4065.22
632.393	4618.17
632.594	4437.95
632.794	4153.28
632.994	4339.65
633.195	4310.97
633.395	4491.2
633.595	4106.18
633.796	4569.02
633.996	4224.96
634.196	4919.22
634.397	4122.56
634.597	4319.17
634.797	4249.54
634.997	4947.89
635.198	4450.24
635.398	3987.4
635.598	4511.68
635.798	4911.03
635.998	4736.95
636.199	4278.21
636.399	4415.42
636.599	4483
636.799	4470.72
636.999	4511.68
637.199	4712.38
637.399	4876.21
637.599	4396.99
637.799	4523.96
637.999	4566.97
638.199	5017.52
638.399	4345.79
638.599	4405.18
638.799	4695.99
638.999	5199.79
639.199	4743.1
639.399	4546.49
639.599	5038
639.799	4396.99
639.999	4405.18
640.199	4370.37
640.399	4841.4
640.599	4878.26
640.799	4532.15
640.998	4698.04
641.198	4970.42
641.398	4865.97
641.598	4777.91
641.798	4685.75
641.997	5732.26
642.197	4913.08
642.397	4798.39
642.597	4462.52
642.796	5062.58
642.996	5164.98
643.196	4829.11
643.395	4530.11
643.595	5132.21
643.795	4483
643.994	4763.58
644.194	4732.86
644.394	5076.91
644.593	5250.99
644.793	4483
644.992	4861.88
645.192	5083.06
645.392	4523.96
645.591	4806.58
645.791	4749.24
645.99	5130.16
646.19	4958.13
646.389	4863.93
646.589	4857.78
646.788	5187.5
646.987	5232.56
647.187	5222.32
647.386	5054.39
647.586	5253.04
647.785	5257.14
647.984	4872.12
648.184	4898.74
648.383	4906.93
648.582	5091.25
648.782	5031.86
648.981	4904.89
649.18	4986.8
649.38	5279.66
649.579	4925.36
649.778	4956.08
649.977	5271.47
650.177	5294
650.376	4827.06
650.575	4804.53
650.774	5597.1
650.973	5040.05
651.173	4884.41
651.372	5152.69
651.571	5398.45
651.77	5580.71
651.969	4954.04
652.168	5023.67
652.367	5091.25
652.566	5435.31
652.765	4982.71
652.964	5359.53
653.163	5865.38
653.362	5199.79
653.561	5216.18
653.76	4958.13
653.959	5330.86
654.158	5629.87
654.357	5312.43
654.556	5300.14
654.755	5484.46
654.954	5527.47
655.153	5115.83
655.352	5398.45
655.551	5820.33
655.749	5412.78
655.948	5265.33
656.147	5330.86
656.346	5762.98
656.545	5463.98
656.743	5277.62
656.942	5439.4
657.141	5597.1
657.34	5285.81
657.538	5322.67
657.737	5246.9
657.936	5461.93
658.135	5709.74
658.333	5310.38
658.532	5517.23
658.731	6281.12
658.929	5748.65
659.128	5582.76
659.326	5398.45
659.525	5836.71
659.724	5828.52
659.922	5130.16
660.121	5269.42
660.319	5564.33
660.518	5478.32
660.716	5414.83
660.915	5498.8
661.113	6242.21
661.312	5593
661.51	5564.33
661.709	5472.17
661.907	5910.44
662.105	5998.5
662.304	5623.72
662.502	5566.38
662.701	6211.49
662.899	5541.8
663.097	6018.98
663.296	5412.78
663.494	6139.81
663.692	6156.19
663.891	5314.48
664.089	5525.42
664.287	5910.44
664.485	6203.3
664.684	5582.76
664.882	5803.94
665.08	5912.49
665.278	5812.14
665.476	5568.43
665.675	6053.8
665.873	6377.37
666.071	6287.26
666.269	5683.11
666.467	5894.05
666.665	5803.94
666.863	5877.67
667.061	5859.24
667.259	5816.23
667.457	6082.47
667.655	6303.65
667.853	5849
668.051	5797.8
668.249	5730.22
668.447	6137.76
668.645	5681.07
668.843	6033.32
669.041	6145.95
669.239	5765.03
669.437	5832.61
669.635	5922.73
669.833	5928.87
670.031	6164.39
670.229	5994.4
670.426	5990.31
670.624	5961.64
670.822	5939.11
671.02	5920.68
671.218	5633.96
671.415	5849
671.613	6123.43
671.811	5920.68
672.009	5967.78
672.206	6447.01
672.404	6254.5
672.602	6268.83
672.799	6051.75
672.997	6408.09
673.195	6379.42
673.392	6070.18
673.59	5928.87
673.788	6395.81
673.985	5814.18
674.183	6123.43
674.38	6027.17
674.578	6414.24
674.775	5982.12
674.973	5879.72
675.17	5906.34
675.368	6604.7
675.565	6352.8
675.763	5949.35
675.96	6018.98
676.158	6594.46
676.355	6092.71
676.553	5969.83
676.75	5961.64
676.947	6252.45
677.145	6176.67
677.342	6193.06
677.539	6195.11
677.737	6330.27
677.934	6786.97
678.131	6238.11
678.329	6109.09
678.526	6774.68
678.723	6561.69
678.92	6252.45
679.118	6123.43
679.315	6002.6
679.512	6668.19
679.709	6256.54
679.906	6287.26
680.104	6555.55
680.301	6397.85
680.498	5959.59
680.695	6092.71
680.892	6133.67
681.089	6229.92
681.286	6119.33
681.483	5922.73
681.68	6438.81
681.877	6477.73
682.075	6223.78
682.272	6416.29
682.469	6506.4
682.665	6244.26
682.862	6098.85
683.059	5937.06
683.256	6573.98
683.453	6508.44
683.65	6410.14
683.847	6317.98
684.044	6352.8
684.241	6205.35
684.438	6430.62
684.635	6010.79
684.831	6844.31
685.028	7047.06
685.225	6330.27
685.422	6377.37
685.619	6453.15
685.815	6508.44
686.012	6428.57
686.209	6229.92
686.405	6170.53
686.602	6746.01
686.799	6129.57
686.996	6256.54
687.192	6248.35
687.389	6942.61
687.586	6119.33
687.782	6440.86
687.979	6852.5
688.175	6727.58
688.372	6375.33
688.568	6246.3
688.765	6236.06
688.962	6924.18
689.158	6688.67
689.355	6252.45
689.551	6649.75
689.748	6485.92
689.944	6502.3
690.14	6207.39
690.337	6825.88
690.533	6582.17
690.73	6666.14
690.926	6496.16
691.123	6809.5
691.319	6647.71
691.515	6193.06
691.712	6410.14
691.908	6809.5
692.104	6616.99
692.301	6510.49
692.497	6287.26
692.693	6696.86
692.889	7047.06
693.086	6553.5
693.282	6164.39
693.478	6707.1
693.674	6930.33
693.87	6451.1
694.067	6086.56
694.263	6737.82
694.459	6490.01
694.655	6535.07
694.851	6582.17
695.047	6823.83
695.243	6731.67
695.439	6551.45
695.635	6440.86
695.831	6805.4
696.027	6657.95
696.224	6252.45
696.42	6619.03
696.615	7079.83
696.811	6850.46
697.007	6287.26
697.203	6539.16
697.399	6967.19
697.595	7020.44
697.791	6543.26
697.987	6721.43
698.183	6526.88
698.379	6731.67
698.575	6604.7
698.77	6350.75
698.966	6920.09
699.162	7083.92
699.358	6438.81
699.554	6760.34
699.749	6975.38
699.945	6940.57
700.141	6674.33
700.337	6530.97
700.532	6870.94
700.728	6576.03
700.924	6379.42
701.119	6373.28
701.315	6961.05
701.511	6596.51
701.706	6727.58
701.902	6389.66
702.097	6823.83
702.293	6948.76
702.489	6768.54
702.684	6508.44
702.88	6901.65
703.075	6690.71
703.271	6625.18
703.466	6619.03
703.662	6944.66
703.857	7133.08
704.053	6639.51
704.248	6555.55
704.443	6858.65
704.639	7128.98
704.834	6711.19
705.03	6541.21
705.225	7202.71
705.42	7274.38
705.616	6641.56
705.811	6567.84
706.006	6905.75
706.202	6619.03
706.397	6713.24
706.592	6547.36
706.787	6891.41
706.983	6926.23
707.178	6901.65
707.373	6883.22
707.568	7198.61
707.763	7278.48
707.959	6662.04
708.154	6676.38
708.349	6944.66
708.544	7010.2
708.739	7020.44
708.934	6553.5
709.129	7133.08
709.324	7083.92
709.519	6635.42
709.714	6588.32
709.909	7196.56
710.104	6979.48
710.299	6641.56
710.494	6799.26
710.689	7104.4
710.884	6967.19
711.079	7042.96
711.274	6930.33
711.469	7094.16
711.664	7088.02
711.859	6875.03
712.054	7042.96
712.249	7292.82
712.443	7253.91
712.638	6756.25
712.833	6879.13
713.028	6999.96
713.223	6940.57
713.417	7028.63
713.612	6860.7
713.807	7284.62
714.002	7604.11
714.196	7045.01
714.391	6657.95
714.586	7161.75
714.78	7210.9
714.975	6746.01
715.17	6813.59
715.364	6989.72
715.559	7272.34
715.754	6453.15
715.948	6860.7
716.143	7538.57
716.337	7194.51
716.532	7233.43
716.726	6741.91
716.921	7155.6
717.115	7591.82
717.31	6752.15
717.504	7499.66
717.699	7128.98
717.893	7204.75
718.088	6608.8
718.282	6670.23
718.476	7092.12
718.671	7192.47
718.865	6915.99
719.059	6903.7
719.254	6977.43
719.448	7462.8
719.642	8261.51
719.837	6598.56
720.031	7356.3
720.225	7399.31
720.419	6774.68
720.614	6895.51
720.808	7303.06
721.002	7079.83
721.196	6836.12
721.39	6844.31
721.585	7346.06
721.779	7077.78
721.973	6969.24
722.167	6590.36
722.361	7131.03
722.555	7497.61
722.749	6915.99
722.943	6762.39
723.137	6932.37
723.331	7280.53
723.525	6770.58
723.719	6864.79
723.913	7341.97
724.107	7442.32
724.301	6911.89
724.495	7081.88
724.689	7468.94
724.883	7491.47
725.077	6850.46
725.271	6881.17
725.465	7501.71
725.659	7026.58
725.853	6981.53
726.046	6856.6
726.24	6981.53
726.434	7227.28
726.628	7010.2
726.822	7018.39
727.015	7518.09
727.209	7456.65
727.403	6977.43
727.596	6727.58
727.79	7595.92
727.984	7167.89
728.177	7112.6
728.371	6868.89
728.565	7415.69
728.758	7024.53
728.952	6897.56
729.146	7151.51
729.339	7655.31
729.533	7247.76
729.726	7122.84
729.92	6965.14
730.113	7618.44
730.307	7464.85
730.5	7145.36
730.694	7122.84
730.887	7008.15
731.081	7534.48
731.274	6922.13
731.468	7124.88
731.661	7384.98
731.854	7122.84
732.048	7290.77
732.241	7149.46
732.435	7288.72
732.628	7315.34
732.821	7190.42
733.014	6913.94
733.208	7155.6
733.401	7643.02
733.594	6979.48
733.788	6977.43
733.981	7489.42
734.174	7495.57
734.367	7096.21
734.56	7268.24
734.754	7579.53
734.947	7415.69
735.14	6889.37
735.333	7313.3
735.526	7458.7
735.719	7171.99
735.912	7118.74
736.105	7040.92
736.298	7319.44
736.491	7235.47
736.684	7088.02
736.877	6969.24
737.07	7382.93
737.263	7577.48
737.456	7124.88
737.649	7030.68
737.842	7352.21
738.035	7315.34
738.228	7264.15
738.421	7464.85
738.614	7802.76
738.807	7643.02
739	6956.95
739.192	7278.48
739.385	7569.29
739.578	7563.15
739.771	7354.26
739.964	7143.31
740.156	7516.05
740.349	7432.08
740.542	7518.09
740.735	7169.94
740.927	7135.12
741.12	7305.1
741.313	7192.47
741.505	7274.38
741.698	7552.91
741.891	7665.55
742.083	7440.27
742.276	7206.8
742.468	7640.97
742.661	7454.61
742.854	7403.41
743.046	7352.21
743.239	8007.56
743.431	7307.15
743.624	7448.46
743.816	7239.57
744.009	7528.33
744.201	7714.7
744.393	7653.26
744.586	7147.41
744.778	7849.86
744.971	7464.85
745.163	7282.58
745.355	7354.26
745.548	7653.26
745.74	7339.92
745.932	7491.47
746.125	7403.41
746.317	7950.21
746.509	7538.57
746.702	7493.52
746.894	7466.89
747.086	7587.72
747.278	7833.48
747.471	7341.97
747.663	7356.3
747.855	7698.31
748.047	8005.51
748.239	7370.64
748.431	7221.14
748.623	7974.79
748.815	7882.63
749.008	7161.75
749.2	7341.97
749.392	7796.62
749.584	7698.31
749.776	7503.76
749.968	7505.81
750.16	8126.34
750.352	7477.13
750.544	7395.22
750.736	7241.62
750.928	7872.39
751.12	7366.54
751.311	7309.2
751.503	7399.31
751.695	7823.24
751.887	7653.26
752.079	7120.79
752.271	7210.9
752.463	8357.76
752.654	7931.78
752.846	7360.4
753.038	7233.43
753.23	7491.47
753.421	7794.57
753.613	7270.29
753.805	7833.48
753.997	7829.38
754.188	7757.71
754.38	7374.74
754.572	7448.46
754.763	7407.5
754.955	7839.62
755.146	7350.16
755.338	7413.65
755.53	7813
755.721	7436.17
755.913	7284.62
756.104	7139.22
756.296	7522.19
756.487	7745.42
756.679	7358.35
756.87	7395.22
757.062	7313.3
757.253	7704.46
757.445	7118.74
757.636	7532.43
757.827	7516.05
758.019	8357.76
758.21	7456.65
758.401	7214.99
758.593	8048.52
758.784	7884.68
758.975	7151.51
759.167	7163.79
759.358	7563.15
759.549	7972.74
759.74	7145.36
759.932	7370.64
760.123	8081.28
760.314	7286.67
760.505	7341.97
760.696	7182.23
760.888	7800.71
761.079	7294.86
761.27	7301.01
761.461	7053.2
761.652	7765.9
761.843	7522.19
762.034	7462.8
762.225	7514
762.416	7354.26
762.607	7450.51
762.798	7376.78
762.989	7298.96
763.18	8308.61
763.371	7499.66
763.562	7247.76
763.753	7272.34
763.944	7997.32
764.135	7782.28
764.326	7411.6
764.517	7116.69
764.708	7579.53
764.899	7589.77
765.089	7090.07
765.28	7077.78
765.471	7640.97
765.662	7632.78
765.853	7419.79
766.043	6952.85
766.234	7788.43
766.425	7780.23
766.615	7235.47
766.806	7247.76
766.997	7602.06
767.187	7475.09
767.378	7018.39
767.569	6836.12
767.759	7690.12
767.95	7436.17
768.141	7358.35
768.331	7225.23
768.522	7341.97
768.712	7653.26
768.903	7186.32
769.093	7092.12
769.284	7913.35
769.474	7427.98
769.665	6959
769.855	7042.96
770.046	7624.59
770.236	7260.05
770.426	7366.54
770.617	7016.34
770.807	7438.22
770.998	7628.68
771.188	7239.57
771.378	7141.27
771.569	7616.4
771.759	7780.23
771.949	7116.69
772.139	6946.71
772.33	7378.83
772.52	7806.86
772.71	7010.2
772.9	6940.57
773.09	7780.23
773.281	7600.01
773.471	7180.18
773.661	7092.12
773.851	7495.57
774.041	7178.13
774.231	6997.91
774.421	7395.22
774.611	7769.99
774.802	7358.35
774.992	7165.84
775.182	6999.96
775.372	7458.7
775.562	7647.12
775.752	7176.08
775.942	7032.72
776.131	7657.36
776.321	7432.08
776.511	7057.3
776.701	7022.48
776.891	7649.16
777.081	7149.46
777.271	7092.12
777.461	7100.31
777.651	7526.29
777.84	7546.76
778.03	7135.12
778.22	6864.79
778.41	7763.85
778.599	7012.24
778.789	7026.58
778.979	6743.96
779.169	7358.35
779.358	7145.36
779.548	7468.94
779.738	6995.86
779.927	7272.34
780.117	7141.27
780.307	7040.92
780.496	6920.09
780.686	7245.71
780.875	7747.47
781.065	6887.32
781.254	6948.76
781.444	7292.82
781.633	7321.49
781.823	7071.64
782.012	6899.61
782.202	7040.92
782.391	7206.8
782.581	6842.26
782.77	7153.55
782.96	7376.78
783.149	6948.76
783.338	6909.85
783.528	6893.46
783.717	7337.87
783.906	7583.63
784.096	7128.98
784.285	6834.07
784.474	6979.48
784.663	6952.85
784.853	6893.46
785.042	6840.22
785.231	7137.17
785.42	7458.7
785.61	7047.06
785.799	6774.68
785.988	7137.17
786.177	7106.45
786.366	6948.76
786.555	7112.6
786.744	7419.79
786.933	7325.58
787.122	6735.77
787.312	7114.64
787.501	6954.9
787.69	7309.2
787.879	6752.15
788.068	6946.71
788.257	6879.13
788.445	7065.49
788.634	6969.24
788.823	6877.08
789.012	7741.32
789.201	7477.13
789.39	6746.01
789.579	6829.98
789.768	7157.65
789.957	7286.67
790.145	6971.29
790.334	6715.29
790.523	6928.28
790.712	7128.98
790.9	7065.49
791.089	6770.58
791.278	7305.1
791.467	7100.31
791.655	6907.8
791.844	7313.3
792.033	7010.2
792.221	6932.37
792.41	6823.83
792.599	6530.97
792.787	7253.91
792.976	7374.74
793.164	6807.45
793.353	6739.87
793.541	7174.03
793.73	7440.27
793.918	7081.88
794.107	6817.69
794.295	6940.57
794.484	7321.49
794.672	6922.13
794.861	6854.55
795.049	7055.25
795.238	7456.65
795.426	6625.18
795.614	6797.21
795.803	7239.57
795.991	7309.2
796.179	6621.08
796.368	6772.63
796.556	7346.06
796.744	6791.06
796.932	6684.57
797.121	6829.98
797.309	7028.63
797.497	7344.02
797.685	6852.5
797.874	6879.13
798.062	6911.89
798.25	7417.74
798.438	6737.82
798.626	6760.34
798.814	6975.38
799.002	7536.52
799.19	7081.88
799.378	6784.92
799.566	7307.15
799.755	7194.51
799.943	6948.76
800.131	6825.88
800.318	7245.71
800.506	7171.99
800.694	6698.91
800.882	6889.37
801.07	7526.29
801.258	7038.87
801.446	6789.02
801.634	6993.81
801.822	7067.54
802.01	7110.55
802.197	6877.08
802.385	6954.9
802.573	7286.67
802.761	6864.79
802.949	6950.81
803.136	6725.53
803.324	7430.03
803.512	7174.03
803.699	6887.32
803.887	6698.91
804.075	7554.96
804.262	7171.99
804.45	6760.34
804.638	7034.77
804.825	7165.84
805.013	7124.88
805.201	7126.93
805.388	6803.35
805.576	7229.33
805.763	7860.1
805.951	7026.58
806.138	7305.1
806.326	7694.22
806.513	7401.36
806.701	7208.85
806.888	7038.87
807.075	7526.29
807.263	7876.49
807.45	7059.35
807.638	7073.68
807.825	7708.55
808.012	7405.45
808.2	7204.75
808.387	7251.86
808.574	7358.35
808.761	7602.06
808.949	7002.01
809.136	7280.53
809.323	7290.77
809.51	7245.71
809.698	7511.95
809.885	7393.17
810.072	7372.69
810.259	7712.65
810.446	7352.21
810.633	7282.58
810.82	7761.8
811.008	7819.14
811.195	7516.05
811.382	7524.24
811.569	7628.68
811.756	7423.89
811.943	7464.85
812.13	7241.62
812.317	7507.85
812.504	7552.91
812.691	7454.61
812.878	7444.37
813.064	7985.03
813.251	7597.96
813.438	7329.68
813.625	7452.56
813.812	7536.52
813.999	7694.22
814.186	7329.68
814.372	7272.34
814.559	7655.31
814.746	8036.23
814.933	7370.64
815.12	7544.72
815.306	7475.09
815.493	7348.11
815.68	7370.64
815.866	7270.29
816.053	7999.37
816.24	8038.28
816.426	7534.48
816.613	7411.6
816.799	7890.82
816.986	7964.55
817.173	7423.89
817.359	7296.91
817.546	7600.01
817.732	7434.13
817.919	7223.19
818.105	7460.75
818.292	7473.04
818.478	7810.95
818.665	7577.48
818.851	7272.34
819.037	8218.5
819.224	7726.99
819.41	7020.44
819.597	7360.4
819.783	8058.76
819.969	7720.84
820.156	7368.59
820.342	7198.61
820.528	8451.97
820.714	7516.05
820.901	7530.38
821.087	7368.59
821.273	8161.16
821.459	7581.58
821.646	7364.5
821.832	7249.81
822.018	7696.27
822.204	7669.64
822.39	7372.69
822.576	7151.51
822.762	7806.86
822.948	7663.5
823.134	7514
823.32	7374.74
823.507	7470.99
823.693	7829.38
823.879	7647.12
824.065	7190.42
824.25	7577.48
824.436	7350.16
824.622	7288.72
824.808	7206.8
824.994	7571.34
825.18	7319.44
825.366	7264.15
825.552	7301.01
825.738	7726.99
825.923	7626.64
826.109	7516.05
826.295	7311.25
826.481	7387.02
826.667	7423.89
826.852	7528.33
827.038	7104.4
827.224	7794.57
827.409	7907.21
827.595	7169.94
827.781	7442.32
827.966	7835.53
828.152	7741.32
828.338	7450.51
828.523	7120.79
828.709	7458.7
828.894	7702.41
829.08	7292.82
829.266	7104.4
829.451	7395.22
829.637	7550.86
829.822	7118.74
830.008	7272.34
830.193	7681.93
830.378	7937.93
830.564	7514
830.749	7030.68
830.935	7700.36
831.12	7780.23
831.305	7040.92
831.491	7264.15
831.676	7145.36
831.861	7548.81
832.047	7245.71
832.232	7143.31
832.417	7681.93
832.602	7692.17
832.788	6963.09
832.973	6811.54
833.158	7503.76
833.343	7270.29
833.528	7214.99
833.714	7192.47
833.899	7554.96
834.084	7780.23
834.269	7214.99
834.454	6928.28
834.639	7571.34
834.824	7432.08
835.009	7378.83
835.194	7432.08
835.379	7524.24
835.564	7692.17
835.749	7206.8
835.934	7047.06
836.119	7511.95
836.304	7530.38
836.489	7258
836.674	7184.27
836.859	7196.56
837.044	7735.18
837.228	7151.51
837.413	6926.23
837.598	7448.46
837.783	7614.35
837.968	7057.3
838.152	6770.58
838.337	6782.87
838.522	7724.94
838.707	7610.25
838.891	6993.81
839.076	7372.69
839.261	7301.01
839.445	7131.03
839.63	6891.41
839.815	7528.33
839.999	7143.31
840.184	6866.84
840.368	7040.92
840.553	7337.87
840.737	7530.38
840.922	6881.17
841.106	6817.69
841.291	6846.36
841.475	7313.3
841.66	6983.57
841.844	6793.11
842.029	7870.34
842.213	6840.22
842.397	6922.13
842.582	6674.33
842.766	7403.41
842.951	7321.49
843.135	7040.92
843.319	6983.57
843.504	7147.41
843.688	7477.13
843.872	6643.61
844.056	6901.65
844.241	7270.29
844.425	7085.97
844.609	6946.71
844.793	6664.09
844.977	7382.93
845.161	7171.99
845.346	6641.56
845.53	6641.56
845.714	7026.58
845.898	7456.65
846.082	6711.19
846.266	6795.16
846.45	7024.53
846.634	7204.75
846.818	6875.03
847.002	6999.96
847.186	7212.95
847.37	6746.01
847.554	6762.39
847.738	6848.41
847.922	6971.29
848.106	7010.2
848.29	6670.23
848.473	6913.94
848.657	7106.45
848.841	6909.85
849.025	6576.03
849.209	6389.66
849.392	7012.24
849.576	6817.69
849.76	6662.04
849.944	6860.7
850.127	7317.39
850.311	6657.95
850.495	6590.36
850.678	6537.12
850.862	7063.44
851.046	7303.06
851.229	6778.78
851.413	6459.29
851.596	6842.26
851.78	6842.26
851.964	6838.17
852.147	6967.19
852.331	7567.24
852.514	7241.62
852.698	6641.56
852.881	6393.76
853.065	7018.39
853.248	7012.24
853.431	6741.91
853.615	6567.84
853.798	7378.83
853.982	6891.41
854.165	6862.74
854.348	6342.56
854.532	6522.78
854.715	6805.4
854.898	6645.66
855.081	6586.27
855.265	7214.99
855.448	7298.96
855.631	6670.23
855.814	6492.06
855.997	6965.14
856.181	6875.03
856.364	6418.33
856.547	6451.1
856.73	6811.54
856.913	6827.93
857.096	6322.08
857.279	6651.8
857.462	6727.58
857.645	7059.35
857.828	6598.56
858.011	6520.73
858.194	6616.99
858.377	6934.42
858.56	6410.14
858.743	6346.66
858.926	6541.21
859.109	6942.61
859.292	6381.47
859.475	6510.49
859.658	6918.04
859.841	6864.79
860.023	6279.07
860.206	6350.75
860.389	6846.36
860.572	6975.38
860.755	6512.54
860.937	6219.68
861.12	6739.87
861.303	6666.14
861.486	6401.95
861.668	6277.02
861.851	6844.31
862.034	6770.58
862.216	6342.56
862.399	5959.59
862.581	6616.99
862.764	6813.59
862.947	6244.26
863.129	6305.7
863.312	6195.11
863.494	6932.37
863.677	6561.69
863.859	6088.61
864.042	6623.13
864.224	6856.6
864.406	6291.36
864.589	6049.7
864.771	6680.47
864.954	6066.08
865.136	6086.56
865.318	5988.26
865.501	6606.75
865.683	6148
865.865	5994.4
866.048	6080.42
866.23	6434.72
866.412	6373.28
866.594	5986.21
866.777	6260.64
866.959	6401.95
867.141	6188.96
867.323	6283.17
867.505	6258.59
867.687	6360.99
867.869	6293.41
868.052	6051.75
868.234	5902.25
868.416	6365.09
868.598	6401.95
868.78	6246.3
868.962	5914.53
869.144	6686.62
869.326	6526.88
869.508	6191.01
869.69	5965.73
869.872	6215.59
870.054	6688.67
870.236	6035.36
870.417	6043.56
870.599	6170.53
870.781	6807.45
870.963	6410.14
871.145	6082.47
871.327	6215.59
871.508	6592.41
871.69	6113.19
871.872	6127.52
872.054	6326.18
872.235	6461.34
872.417	6088.61
872.599	5785.51
872.78	6696.86
872.962	6350.75
873.144	5830.57
873.325	6035.36
873.507	6612.89
873.689	6272.93
873.87	5955.49
874.052	6141.86
874.233	6309.79
874.415	6567.84
874.596	6012.84
874.778	5988.26
874.959	6326.18
875.141	6434.72
875.322	6074.28
875.503	5853.09
875.685	6416.29
875.866	5820.33
876.048	6043.56
876.229	5908.39
876.41	6303.65
876.592	6576.03
876.773	6047.65
876.954	5865.38
877.136	6727.58
877.317	6336.42
877.498	5988.26
877.679	6203.3
877.86	6352.8
878.042	6287.26
878.223	6053.8
878.404	6320.03
878.585	6426.53
878.766	6875.03
878.947	6422.43
879.128	6188.96
879.309	6483.87
879.49	6852.5
879.672	6326.18
879.853	6303.65
880.034	6260.64
880.215	6293.41
880.396	6395.81
880.576	6260.64
880.757	6578.08
880.938	6864.79
881.119	6150.05
881.3	6432.67
881.481	6453.15
881.662	7546.76
881.843	6143.91
882.023	6180.77
882.204	6608.8
882.385	6659.99
882.566	6346.66
882.747	6393.76
882.927	6631.32
883.108	6752.15
883.289	6309.79
883.469	6696.86
883.65	6793.11
883.831	6743.96
884.011	6524.83
884.192	6569.88
884.373	7133.08
884.553	6776.73
884.734	6662.04
884.914	6821.78
885.095	7532.43
885.275	7174.03
885.456	6860.7
885.636	6473.63
885.817	6907.8
885.997	6838.17
886.178	6645.66
886.358	6698.91
886.538	6856.6
886.719	7741.32
886.899	6479.77
887.08	6758.3
887.26	7149.46
887.44	6612.89
887.621	6657.95
887.801	6737.82
887.981	7397.26
888.161	7153.55
888.342	6461.34
888.522	6604.7
888.702	7124.88
888.882	7417.74
889.062	6784.92
889.242	6508.44
889.423	7401.36
889.603	7294.86
889.783	6875.03
889.963	6674.33
890.143	7260.05
890.323	7329.68
890.503	6752.15
890.683	6936.47
890.863	6946.71
891.043	7219.09
891.223	6932.37
891.403	6907.8
891.583	7057.3
891.763	7227.28
891.943	6973.33
892.122	6842.26
892.302	7131.03
892.482	7178.13
892.662	6920.09
892.842	6784.92
893.022	7139.22
893.201	6815.64
893.381	6971.29
893.561	6770.58
893.741	7196.56
893.92	7323.54
894.1	6944.66
894.28	6721.43
894.459	7362.45
894.639	7229.33
894.819	6674.33
894.998	6979.48
895.178	7255.95
895.357	7214.99
895.537	6723.48
895.716	6651.8
895.896	7104.4
896.075	7440.27
896.255	6838.17
896.434	6567.84
896.614	7440.27
896.793	7534.48
896.973	7022.48
897.152	7024.53
897.331	7319.44
897.511	7411.6
897.69	6571.93
897.87	6959
898.049	7378.83
898.228	7104.4
898.407	7124.88
898.587	7008.15
898.766	6842.26
898.945	7403.41
899.124	7049.11
899.304	7110.55
899.483	7274.38
899.662	7604.11
899.841	6635.42
900.02	6616.99
900.199	7229.33
900.378	7153.55
900.557	6842.26
900.737	6715.29
900.916	7307.15
901.095	7274.38
901.274	7133.08
901.453	6795.16
901.632	6561.69
901.811	6934.42
901.989	6770.58
902.168	6735.77
902.347	7251.86
902.526	7059.35
902.705	6725.53
902.884	6680.47
903.063	7190.42
903.242	7366.54
903.42	6698.91
903.599	6993.81
903.778	7409.55
903.957	7198.61
904.135	7063.44
904.314	6764.44
904.493	6965.14
904.672	7139.22
904.85	6858.65
905.029	6629.27
905.207	6938.52
905.386	7706.51
905.565	6647.71
905.743	6739.87
905.922	6934.42
906.1	7124.88
906.279	6375.33
906.457	6569.88
906.636	6838.17
906.814	6809.5
906.993	6397.85
907.171	6483.87
907.35	6926.23
907.528	7112.6
907.707	6887.32
907.885	6322.08
908.063	7255.95
908.242	6539.16
908.42	6594.46
908.598	6229.92
908.777	6891.41
908.955	6739.87
909.133	6535.07
909.311	6313.89
909.49	6786.97
909.668	6510.49
909.846	6653.85
910.024	6248.35
910.202	6703
910.38	6940.57
910.559	6150.05
910.737	6137.76
910.915	6664.09
911.093	6748.06
911.271	6352.8
911.449	6729.63
911.627	6649.75
911.805	7030.68
911.983	6354.85
912.161	6160.29
912.339	6500.25
912.517	6985.62
912.695	6567.84
912.872	6137.76
913.05	6211.49
913.228	6510.49
913.406	6248.35
913.584	6096.8
913.762	6703
913.939	6207.39
914.117	6248.35
914.295	6096.8
914.473	6424.48
914.65	6653.85
914.828	6098.85
915.006	6129.57
915.184	6014.88
915.361	6291.36
915.539	6102.95
915.716	6322.08
915.894	6328.22
916.072	6565.79
916.249	6211.49
916.427	6035.36
916.604	5992.36
916.782	6203.3
916.959	5894.05
917.137	5896.1
917.314	6289.31
917.492	6442.91
917.669	5898.15
917.847	5973.92
918.024	6234.02
918.201	5889.96
918.379	5928.87
918.556	5988.26
918.733	6291.36
918.911	5875.62
919.088	6162.34
919.265	5906.34
919.442	6293.41
919.62	6109.09
919.797	5738.41
919.974	5597.1
920.151	6102.95
920.328	5928.87
920.506	5722.02
920.683	6117.28
920.86	5672.87
921.037	5738.41
921.214	5597.1
921.391	5533.61
921.568	6326.18
921.745	5787.56
921.922	5670.83
922.099	5556.14
922.276	6160.29
922.453	5756.84
922.63	5496.75
922.807	5730.22
922.984	5795.75
923.161	5691.31
923.338	5531.56
923.514	5427.12
923.691	5683.11
923.868	5699.5
924.045	5310.38
924.222	5171.12
924.399	5717.93
924.575	5865.38
924.752	5455.79
924.929	5402.54
925.105	5779.37
925.282	5306.29
925.459	5216.18
925.635	5285.81
925.812	5486.51
925.989	5242.8
926.165	5179.31
926.342	4980.66
926.518	5089.2
926.695	5404.59
926.871	5109.68
927.048	4988.85
927.224	5533.61
927.401	5107.63
927.577	5031.86
927.754	4925.36
927.93	5433.26
928.107	5535.66
928.283	4933.56
928.459	5019.57
928.636	5347.25
928.812	4964.28
928.988	4730.81
929.165	4644.79
929.341	5107.63
929.517	5263.28
929.693	5007.28
929.87	4571.07
930.046	5171.12
930.222	4730.81
930.398	4700.09
930.574	5015.48
930.751	4882.36
930.927	4790.2
931.103	4749.24
931.279	4495.29
931.455	4706.23
931.631	4923.32
931.807	4341.69
931.983	4544.44
932.159	4460.48
932.335	4876.21
932.511	4507.58
932.687	4616.12
932.863	4706.23
933.039	4710.33
933.215	4290.49
933.391	4073.41
933.566	4272.06
933.742	4532.15
933.918	4360.13
934.094	4081.6
934.27	4456.38
934.445	4472.76
934.621	4308.93
934.797	3913.67
934.973	4575.16
935.148	4409.28
935.324	3975.11
935.5	3942.34
935.675	4372.41
935.851	4216.77
936.027	3938.24
936.202	3864.52
936.378	4106.18
936.553	3932.1
936.729	4067.27
936.904	3682.25
937.08	3590.09
937.255	3567.56
937.431	3422.16
937.606	3327.95
937.782	3516.36
937.957	3540.94
938.133	3229.65
938.308	3160.02
938.483	3393.48
938.659	3168.21
938.834	3168.21
939.009	2967.51
939.185	3170.26
939.36	3008.47
939.535	2537.43
939.71	2818
939.886	3395.53
940.061	3172.3
940.236	2985.94
940.411	2822.1
940.586	3088.34
940.761	2998.23
940.937	2713.56
941.112	2432.99
941.287	2803.67
941.462	2766.81
941.637	2330.59
941.812	2498.52
941.987	2856.92
942.162	2584.54
942.337	2519
942.512	2510.81
942.687	2912.21
942.862	2947.03
943.037	2195.42
943.212	2066.4
943.386	2549.72
943.561	2688.98
943.736	2635.74
943.911	2652.12
944.086	2648.02
944.26	2562.01
944.435	2301.92
944.61	2353.12
944.785	2869.2
944.959	2916.31
945.134	2369.5
945.309	2234.33
945.483	2377.69
945.658	2557.91
945.833	2033.63
946.007	2031.58
946.182	2942.93
946.357	2174.94
946.531	2170.85
946.706	2222.05
946.88	2121.7
947.055	2533.34
947.229	2203.61
947.404	2156.51
947.578	2660.31
947.752	2320.35
947.927	2109.41
948.101	2111.46
948.276	2494.43
948.45	2451.42
948.624	2406.36
948.799	2238.43
948.973	2664.41
949.147	2242.53
949.321	2334.68
949.496	2189.28
949.67	2734.04
949.844	2439.13
950.018	2238.43
950.193	2295.77
950.367	2877.4
950.541	2328.54
950.715	2428.89
950.889	2365.4
951.063	2324.44
951.237	2713.56
951.411	2023.39
951.585	2131.94
951.759	2533.34
951.933	2394.08
952.107	2279.39
952.281	2381.79
952.455	2779.09
952.629	2703.32
952.803	2230.24
952.977	2277.34
953.151	2674.65
953.325	2516.95
953.499	2312.16
953.672	2103.26
953.846	2213.85
954.02	2322.4
954.194	2088.93
954.368	2242.53
954.541	2580.44
954.715	2349.02
954.889	2342.88
955.062	2099.17
955.236	2373.6
955.41	2457.56
955.583	2355.16
955.757	2021.35
955.93	2394.08
956.104	2105.31
956.278	2199.52
956.451	2209.76
956.625	2516.95
956.798	2793.43
956.972	2441.18
957.145	2080.74
957.319	2549.72
957.492	2377.69
957.665	2396.12
957.839	2201.57
958.012	2494.43
958.185	2394.08
958.359	1986.53
958.532	2306.01
958.705	2668.5
958.879	2488.28
959.052	2166.75
959.225	1951.71
959.398	2392.03
959.572	2385.88
959.745	2127.84
959.918	2156.51
960.091	2344.92
960.264	2533.34
960.438	1943.52
960.611	1978.34
960.784	2516.95
960.957	2224.09
961.13	2463.71
961.303	2068.45
961.476	2365.4
961.649	2613.21
961.822	1976.29
961.995	2205.66
962.168	2484.19
962.341	2506.71
962.514	2209.76
962.686	2052.06
962.859	2447.32
963.032	2445.27
963.205	2154.46
963.378	1923.04
963.551	2488.28
963.723	2410.46
963.896	2226.14
964.069	2269.15
964.242	2338.78
964.414	2643.93
964.587	2238.43
964.76	2148.32
964.932	2387.93
965.105	2164.7
965.278	2052.06
965.45	2066.4
965.623	2310.11
965.795	2557.91
965.968	2254.81
966.14	2097.12
966.313	2244.57
966.485	2365.4
966.658	2101.22
966.83	2004.96
967.003	2467.8
967.175	2455.51
967.348	2047.97
967.52	2021.35
967.692	2629.59
967.865	2406.36
968.037	2056.16
968.209	2346.97
968.382	2275.29
968.554	2408.41
968.726	2076.64
968.898	1939.43
969.071	2355.16
969.243	2486.23
969.415	1968.1
969.587	2148.32
969.759	2682.84
969.932	2373.6
970.104	2011.11
970.276	1816.55
970.448	2064.35
970.62	2174.94
970.792	2103.26
970.964	2047.97
971.136	2688.98
971.308	2377.69
971.48	2011.11
971.652	1873.89
971.824	2623.45
971.996	2131.94
972.168	2070.5
972.339	2050.02
972.511	2533.34
972.683	2168.8
972.855	2217.95
973.027	2052.06
973.199	2152.42
973.37	2426.84
973.542	2103.26
973.714	2156.51
973.886	2066.4
974.057	2455.51
974.229	1812.45
974.401	1806.31
974.572	2009.06
974.744	1828.84
974.915	1933.28
975.087	1763.3
975.259	2590.68
975.43	1970.15
975.602	1867.75
975.773	1877.99
975.945	1959.91
976.116	2187.23
976.288	1845.22
976.459	2156.51
976.63	2064.35
976.802	2090.98
976.973	1769.44
977.145	2056.16
977.316	2537.43
977.487	2441.18
977.659	2027.49
977.83	1935.33
978.001	2512.86
978.172	2142.18
978.344	1791.97
978.515	1886.18
978.686	1972.19
978.857	2467.8
979.028	1902.56
979.2	1714.15
979.371	2312.16
979.542	2060.26
979.713	1947.62
979.884	1533.93
980.055	1890.28
980.226	1947.62
980.397	1882.08
980.568	1621.99
980.739	2189.28
980.91	1976.29
981.081	1882.08
981.252	1701.86
981.423	2115.55
981.594	2267.1
981.765	1783.78
981.936	1810.4
982.106	2037.73
982.277	2277.34
982.448	1738.73
982.619	1906.66
982.79	1865.7
982.96	2093.02
983.131	1882.08
983.302	1519.59
983.472	1898.47
983.643	1961.95
983.814	1779.68
983.984	1701.86
984.155	1843.17
984.326	2148.32
984.496	1796.07
984.667	1648.61
984.837	1693.67
985.008	2082.78
985.178	1880.04
985.349	1759.21
985.519	1871.84
985.69	1701.86
985.86	1779.68
986.031	1583.08
986.201	1923.04
986.371	2107.36
986.542	1566.7
986.712	1503.21
986.882	1968.1
987.053	1976.29
987.223	1456.11
987.393	1757.16
987.563	1847.27
987.734	1984.48
987.904	1972.19
988.074	1550.31
988.244	1828.84
988.414	1812.45
988.585	1607.66
988.755	1828.84
988.925	1781.73
989.095	2285.53
989.265	1490.92
989.435	1689.57
989.605	1906.66
989.775	1959.91
989.945	1916.9
990.115	1320.94
990.285	1785.83
990.455	1933.28
990.625	1597.42
990.795	1544.17
990.965	2045.92
991.134	1644.52
991.304	1452.01
991.474	1486.83
991.644	1669.09
991.814	2283.49
991.984	1460.2
992.153	1415.15
992.323	1697.77
992.493	1716.2
992.662	1259.5
992.832	1689.57
993.002	1783.78
993.171	1734.63
993.341	1417.19
993.511	1646.57
993.68	1593.32
993.85	1941.47
994.019	1261.55
994.189	1404.91
994.358	1820.64
994.528	1656.81
994.697	1224.69
994.867	1394.67
995.036	1853.41
995.206	1589.22
995.375	1378.28
995.544	1533.93
995.714	1798.12
995.883	1552.36
996.052	1636.33
996.222	1243.12
996.391	2103.26
996.56	1673.19
996.73	1222.64
996.899	1239.02
997.068	1982.43
997.237	1570.79
997.406	1288.17
997.576	1245.16
997.745	1718.25
997.914	1591.27
998.083	1140.72
998.252	1277.93
998.421	1490.92
998.59	1470.44
998.759	1210.35
998.928	1187.82
999.097	2002.91
999.266	1804.26
999.435	1406.95
999.604	1140.72
999.773	2033.63
999.942	1527.78
1000.111	1236.97
1000.28	1075.18
1000.448	1316.84
1000.617	1386.47
1000.786	1433.58
1000.955	1036.27
1001.124	1662.95
1001.292	2185.18
1001.461	1171.44
1001.63	1218.54
1001.798	1839.08
1001.967	1734.63
1002.136	1122.29
1002.304	1204.21
1002.473	1613.8
1002.642	1466.35
1002.81	1292.27
1002.979	1153.01
1003.147	1617.9
1003.316	1943.52
1003.484	1165.29
1003.653	1085.42
1003.821	1820.64
1003.99	1384.43
1004.158	1339.37
1004.327	1271.79
1004.495	1589.22
1004.663	1374.19
1004.832	1290.22
1005	983.02
1005.168	1505.26
1005.337	1470.44
1005.505	976.88
1005.673	1226.73
1005.842	1595.37
1006.01	1529.83
1006.178	980.98
1006.346	976.88
1006.514	1519.59
1006.683	1789.92
1006.851	1110
1007.019	972.79
1007.187	1136.62
1007.355	882.67
1007.523	899.06
1007.691	899.06
1007.859	935.92
1008.027	1632.23
1008.195	1169.39
1008.363	927.73
1008.531	1505.26
1008.699	1273.84
1008.867	931.83
1009.035	1042.42
1009.203	1619.94
1009.37	1341.42
1009.538	1066.99
1009.706	1441.77
1009.874	1341.42
1010.042	1265.64
1010.209	935.92
1010.377	940.02
1010.545	1452.01
1010.713	1318.89
1010.88	935.92
1011.048	915.44
1011.216	1243.12
1011.383	1607.66
1011.551	792.56
1011.718	841.72
1011.886	1509.35
1012.054	1384.43
1012.221	790.52
1012.389	704.5
1012.556	1173.49
1012.724	1640.42
1012.891	1026.03
1013.058	739.32
1013.226	1361.9
1013.393	1363.95
1013.561	712.69
1013.728	626.68
1013.895	1378.28
1014.063	1329.13
1014.23	655.35
1014.397	804.85
1014.565	1378.28
1014.732	1110
1014.899	827.38
1015.066	677.88
1015.233	1267.69
1015.401	1335.28
1015.568	774.13
1015.735	964.59
1015.902	1206.25
1016.069	1355.76
1016.236	776.18
1016.403	782.32
1016.57	983.02
1016.737	1327.08
1016.904	886.77
1017.071	700.41
1017.238	1028.08
1017.405	1239.02
1017.572	827.38
1017.739	964.59
1017.906	1189.87
1018.073	1304.56
1018.24	698.36
1018.407	739.32
1018.573	1361.9
1018.74	1071.09
1018.907	839.67
1019.074	538.62
1019.241	1261.55
1019.407	1150.96
1019.574	851.95
1019.741	628.73
1019.907	1087.47
1020.074	1310.7
1020.241	555
1020.407	620.53
1020.574	1183.73
1020.74	1157.1
1020.907	804.85
1021.073	665.59
1021.24	1517.54
1021.406	1390.57
1021.573	569.34
1021.739	739.32
1021.906	1284.08
1022.072	1021.94
1022.239	716.79
1022.405	714.74
1022.571	993.26
1022.738	796.66
1022.904	550.9
1023.07	796.66
1023.237	1212.4
1023.403	1288.17
1023.569	692.21
1023.735	589.81
1023.902	1116.14
1024.068	1095.66
1024.234	567.29
1024.4	593.91
1024.566	976.88
1024.732	1181.68
1024.898	559.1
1025.065	407.55
1025.231	1142.77
1025.397	870.39
1025.563	643.06
1025.729	501.75
1025.895	468.98
1026.061	739.32
1026.227	444.41
1026.392	528.38
1026.558	1165.29
1026.724	1021.94
1026.89	477.18
1027.056	714.74
1027.222	978.93
1027.388	845.81
1027.553	550.9
1027.719	376.83
1027.885	1357.8
1028.051	1050.61
1028.216	292.86
1028.382	534.52
1028.548	1107.95
1028.713	833.52
1028.879	366.59
1029.045	694.26
1029.21	1263.6
1029.376	1089.52
1029.541	575.48
1029.707	544.76
1029.873	1054.7
1030.038	1066.99
1030.204	403.45
1030.369	522.23
1030.534	1026.03
1030.7	784.37
1030.865	536.57
1031.031	409.59
1031.196	993.26
1031.361	849.91
1031.527	409.59
1031.692	399.35
1031.857	466.94
1032.023	970.74
1032.188	354.3
1032.353	442.36
1032.518	1214.45
1032.684	862.19
1032.849	249.85
1033.014	493.56
1033.179	1003.5
1033.344	903.15
1033.509	536.57
1033.674	430.07
1033.839	1005.55
1034.004	989.17
1034.17	548.86
1034.335	456.7
1034.5	759.8
1034.664	641.01
1034.829	354.3
1034.994	509.94
1035.159	819.19
1035.324	808.95
1035.489	313.34
1035.654	331.77
1035.819	1206.25
1035.984	888.82
1036.148	468.98
1036.313	380.92
1036.478	1019.89
1036.643	770.04
1036.807	362.49
1036.972	290.81
1037.137	1036.27
1037.301	813.04
1037.466	274.43
1037.631	346.11
1037.795	991.22
1037.96	804.85
1038.124	550.9
1038.289	337.91
1038.454	968.69
1038.618	862.19
1038.783	411.64
1038.947	372.73
1039.111	743.41
1039.276	585.72
1039.44	342.01
1039.605	901.11
1039.769	604.15
1039.933	706.55
1040.098	434.17
1040.262	573.43
1040.426	970.74
1040.591	870.39
1040.755	325.63
1040.919	305.15
1041.083	851.95
1041.248	595.96
1041.412	190.46
1041.576	284.67
1041.74	622.58
1041.904	821.24
1042.068	331.77
1042.232	415.74
1042.397	905.2
1042.561	788.47
1042.725	22.53
1042.889	395.26
1043.053	796.66
1043.217	806.9
1043.381	362.49
1043.544	190.46
1043.708	1001.46
1043.872	325.63
1044.036	28.67
1044.2	61.44
1044.364	825.33
1044.528	1032.18
1044.691	3356.62
1044.855	55.3
1045.019	831.48
1045.183	765.94
1045.346	309.24
1045.51	196.61
1045.674	692.21
1045.837	804.85
1046.001	276.48
1046.165	215.04
1046.328	1118.19
1046.492	755.7
1046.655	374.78
1046.819	317.44
1046.983	448.51
1047.146	751.6
1047.31	333.82
1047.473	155.65
1047.636	718.84
1047.8	485.37
1047.963	296.96
1048.127	206.84
1048.29	460.79
