Data from Ink_Intensity_USB4F045381__191__00191.txt Node

Date: Mon Jul 17 11:44:52 EDT 2023
User: mmckonesweet
Spectrometer: USB4F04538
Trigger mode: 4
Integration Time (sec): 9.000000E-1
Scans to average: 1
Electric dark correction enabled: true
Nonlinearity correction enabled: false
Boxcar width: 0
XAxis mode: Wavelengths
Number of Pixels in Spectrum: 3648
>>>>>Begin Spectral Data<<<<<
345.52	-1076.21
345.736	-1076.21
345.952	-1076.21
346.168	-1057.78
346.384	-969.71
346.6	-93.18
346.816	-273.4
347.032	-283.64
347.248	297.98
347.464	-148.48
347.68	-54.27
347.896	87.04
348.112	334.84
348.328	-35.84
348.544	-111.61
348.76	87.04
348.975	193.53
349.191	-271.36
349.407	-203.77
349.623	-3.07
349.839	-68.61
350.055	-150.53
350.27	-27.65
350.486	185.34
350.702	340.99
350.918	277.5
351.133	-207.87
351.349	74.75
351.565	349.18
351.781	-254.97
351.996	72.7
352.212	234.49
352.428	-236.54
352.644	-119.81
352.859	-269.31
353.075	164.86
353.291	87.04
353.506	-144.38
353.722	-273.4
353.938	-101.37
354.153	361.47
354.369	76.8
354.584	-195.58
354.8	279.55
355.016	-295.93
355.231	-265.21
355.447	-203.77
355.662	128
355.878	787.44
356.093	-353.27
356.309	-101.37
356.524	-326.65
356.74	230.4
356.955	-265.21
357.171	23.55
357.386	95.23
357.602	-306.17
357.817	-68.61
358.033	-216.06
358.248	345.08
358.464	144.38
358.679	-203.77
358.895	-304.12
359.11	-39.94
359.325	238.59
359.541	-48.13
359.756	-80.89
359.972	-326.65
360.187	177.15
360.402	-240.64
360.618	-234.49
360.833	982
361.048	87.04
361.264	-244.73
361.479	-87.04
361.694	1.02
361.909	142.33
362.125	-183.29
362.34	-74.75
362.555	142.33
362.77	87.04
362.986	-306.17
363.201	-230.4
363.416	123.9
363.631	-11.26
363.847	-224.25
364.062	-154.62
364.277	216.06
364.492	97.28
364.707	-109.57
364.922	-510.97
365.138	195.58
365.353	318.46
365.568	-334.84
365.783	-211.96
365.998	74.75
366.213	527.35
366.428	-269.31
366.643	29.7
366.858	259.07
367.073	193.53
367.288	-199.68
367.503	-275.45
367.718	87.04
367.933	273.4
368.148	-308.22
368.363	-52.22
368.578	-50.18
368.793	424.95
369.008	-177.15
369.223	-289.79
369.438	162.81
369.653	381.95
369.868	-343.03
370.083	-228.35
370.298	35.84
370.513	281.6
370.728	19.46
370.943	-209.92
371.157	-252.92
371.372	574.46
371.587	-273.4
371.802	-336.89
372.017	48.13
372.232	472.06
372.446	-54.27
372.661	-216.06
372.876	150.53
373.091	199.68
373.306	-113.66
373.52	-211.96
373.735	-302.08
373.95	396.28
374.165	-158.72
374.379	-193.53
374.594	-146.43
374.809	87.04
375.023	21.5
375.238	-246.78
375.453	236.54
375.667	-177.15
375.882	-203.77
376.097	-168.96
376.311	15.36
376.526	9.22
376.741	-279.55
376.955	25.6
377.17	474.1
377.384	570.36
377.599	-115.71
377.813	-259.07
378.028	584.7
378.242	74.75
378.457	-109.57
378.672	-392.19
378.886	-25.6
379.101	-68.61
379.315	-406.52
379.53	-171.01
379.744	261.12
379.958	197.63
380.173	-140.29
380.387	-193.53
380.602	125.95
380.816	-209.92
381.031	-158.72
381.245	-162.81
381.459	80.89
381.674	2733.01
381.888	-246.78
382.103	21.5
382.317	-158.72
382.531	431.1
382.746	-117.76
382.96	-142.33
383.174	-156.67
383.388	424.95
383.603	-41.98
383.817	-275.45
384.031	121.85
384.246	431.1
384.46	-44.03
384.674	332.79
384.888	-21.5
385.103	-11.26
385.317	-318.46
385.531	-80.89
385.745	349.18
385.959	228.35
386.174	-236.54
386.388	-263.16
386.602	17.41
386.816	-64.51
387.03	-117.76
387.244	-183.29
387.458	91.13
387.672	312.32
387.887	-328.7
388.101	-349.18
388.315	306.17
388.529	66.56
388.743	-246.78
388.957	-322.56
389.171	291.84
389.385	-238.59
389.599	-232.44
389.813	-9.22
390.027	148.48
390.241	617.46
390.455	-207.87
390.669	-187.39
390.883	-199.68
391.097	349.18
391.311	-21.5
391.525	-195.58
391.738	156.67
391.952	140.29
392.166	-48.13
392.38	-273.4
392.594	214.01
392.808	297.98
393.022	-93.18
393.236	-183.29
393.449	154.62
393.663	103.42
393.877	-248.83
394.091	-115.71
394.305	-33.79
394.518	-168.96
394.732	-359.42
394.946	-158.72
395.16	410.62
395.373	121.85
395.587	-295.93
395.801	-265.21
396.015	293.88
396.228	152.57
396.442	-234.49
396.656	-353.27
396.869	291.84
397.083	449.53
397.297	-144.38
397.51	-160.77
397.724	361.47
397.938	91.13
398.151	-353.27
398.365	-295.93
398.578	191.49
398.792	332.79
399.005	3.07
399.219	-201.72
399.433	138.24
399.646	203.77
399.86	3.07
400.073	-72.7
400.287	230.4
400.5	48.13
400.714	-74.75
400.927	-89.09
401.141	173.05
401.354	1057.78
401.567	228.35
401.781	-265.21
401.994	338.94
402.208	539.64
402.421	-171.01
402.635	-166.91
402.848	-9.22
403.061	283.64
403.275	-21.5
403.488	-283.64
403.701	500.73
403.915	191.49
404.128	-31.74
404.341	-179.2
404.555	128
404.768	3.07
404.981	1.02
405.195	-193.53
405.408	410.62
405.621	254.97
405.834	68.61
406.048	-322.56
406.261	367.61
406.474	437.24
406.687	-228.35
406.9	-64.51
407.114	103.42
407.327	160.77
407.54	-371.71
407.753	-302.08
407.966	-207.87
408.179	103.42
408.392	-263.16
408.605	-429.05
408.819	115.71
409.032	181.25
409.245	-228.35
409.458	-52.22
409.671	107.52
409.884	197.63
410.097	-297.98
410.31	-23.55
410.523	148.48
410.736	-74.75
410.949	-132.09
411.162	-148.48
411.375	451.58
411.588	142.33
411.801	-52.22
412.014	-261.12
412.227	-7.17
412.44	-58.37
412.653	-238.59
412.865	-31.74
413.078	203.77
413.291	181.25
413.504	-105.47
413.717	-246.78
413.93	273.4
414.143	-271.36
414.356	-183.29
414.568	-330.75
414.781	263.16
414.994	119.81
415.207	-68.61
415.42	-142.33
415.632	195.58
415.845	437.24
416.058	-367.61
416.271	-371.71
416.483	-33.79
416.696	472.06
416.909	-195.58
417.121	-269.31
417.334	173.05
417.547	545.78
417.759	-236.54
417.972	-220.16
418.185	-72.7
418.397	201.72
418.61	-191.49
418.823	-175.1
419.035	451.58
419.248	-1.02
419.46	-142.33
419.673	-70.65
419.885	152.57
420.098	-39.94
420.311	-232.44
420.523	-353.27
420.736	160.77
420.948	-56.32
421.161	-156.67
421.373	-377.85
421.586	160.77
421.798	-148.48
422.01	-367.61
422.223	-27.65
422.435	-113.66
422.648	181.25
422.86	-252.92
423.073	-191.49
423.285	269.31
423.497	-351.23
423.71	-238.59
423.922	-216.06
424.134	179.2
424.347	367.61
424.559	-39.94
424.771	70.65
424.984	-111.61
425.196	123.9
425.408	-338.94
425.621	-343.03
425.833	195.58
426.045	365.56
426.257	-289.79
426.47	-220.16
426.682	97.28
426.894	111.61
427.106	-201.72
427.318	-142.33
427.531	-160.77
427.743	185.34
427.955	-156.67
428.167	130.05
428.379	144.38
428.591	-154.62
428.804	-130.05
429.016	-297.98
429.228	-117.76
429.44	179.2
429.652	3.07
429.864	-410.62
430.076	-27.65
430.288	-31.74
430.5	-164.86
430.712	-99.33
430.924	238.59
431.136	99.33
431.348	-396.28
431.56	-232.44
431.772	54.27
431.984	-107.52
432.196	-361.47
432.408	-236.54
432.62	-23.55
432.832	154.62
433.044	187.39
433.256	-35.84
433.468	181.25
433.679	-330.75
433.891	-285.69
434.103	70.65
434.315	349.18
434.527	150.53
434.739	-99.33
434.95	-199.68
435.162	218.11
435.374	-82.94
435.586	-211.96
435.798	-216.06
436.009	-207.87
436.221	-93.18
436.433	-232.44
436.645	-220.16
436.856	-78.85
437.068	238.59
437.28	-277.5
437.491	95.23
437.703	70.65
437.915	64.51
438.126	-136.19
438.338	25.6
438.55	-37.89
438.761	154.62
438.973	-148.48
439.184	-185.34
439.396	-44.03
439.608	283.64
439.819	-340.99
440.031	-74.75
440.242	244.73
440.454	80.89
440.665	-238.59
440.877	-117.76
441.088	160.77
441.3	15.36
441.511	-343.03
441.723	-257.02
441.934	93.18
442.146	-33.79
442.357	-13.31
442.569	82.94
442.78	-48.13
442.991	381.95
443.203	177.15
443.414	-369.66
443.626	318.46
443.837	-156.67
444.048	-261.12
444.26	-371.71
444.471	-3.07
444.682	240.64
444.894	-363.51
445.105	-365.56
445.316	205.82
445.528	195.58
445.739	-60.42
445.95	-162.81
446.161	91.13
446.373	300.03
446.584	-304.12
446.795	-244.73
447.006	152.57
447.217	383.99
447.429	-336.89
447.64	-400.38
447.851	320.51
448.062	15.36
448.273	-418.81
448.484	-226.3
448.695	158.72
448.907	-56.32
449.118	-195.58
449.329	-68.61
449.54	-76.8
449.751	-132.09
449.962	-195.58
450.173	-281.6
450.384	300.03
450.595	314.36
450.806	-271.36
451.017	-281.6
451.228	414.71
451.439	285.69
451.65	-181.25
451.861	-431.1
452.072	-232.44
452.283	33.79
452.494	-93.18
452.705	-216.06
452.915	386.04
453.126	125.95
453.337	-154.62
453.548	-293.88
453.759	300.03
453.97	492.54
454.181	48.13
454.391	-117.76
454.602	125.95
454.813	109.57
455.024	-168.96
455.235	-273.4
455.445	19.46
455.656	197.63
455.867	-72.7
456.078	-257.02
456.288	-56.32
456.499	134.14
456.71	-254.97
456.921	56.32
457.131	195.58
457.342	48.13
457.553	-101.37
457.763	-175.1
457.974	107.52
458.184	209.92
458.395	-320.51
458.606	-281.6
458.816	234.49
459.027	484.34
459.237	-62.46
459.448	-379.9
459.659	326.65
459.869	605.17
460.08	-433.15
460.29	-156.67
460.501	496.63
460.711	-44.03
460.922	-381.95
461.132	-263.16
461.343	621.56
461.553	-355.32
461.764	-259.07
461.974	-295.93
462.184	279.55
462.395	97.28
462.605	-162.81
462.816	-306.17
463.026	-1.02
463.236	310.27
463.447	-330.75
463.657	-273.4
463.867	248.83
464.078	-76.8
464.288	-207.87
464.498	-306.17
464.709	1.02
464.919	-35.84
465.129	-214.01
465.339	-318.46
465.55	109.57
465.76	226.3
465.97	-238.59
466.18	-207.87
466.391	187.39
466.601	119.81
466.811	-181.25
467.021	-355.32
467.231	152.57
467.441	324.6
467.651	-201.72
467.862	-502.78
468.072	-23.55
468.282	302.08
468.492	-347.13
468.702	-162.81
468.912	35.84
469.122	537.59
469.332	-37.89
469.542	-279.55
469.752	162.81
469.962	25.6
470.172	-287.74
470.382	-265.21
470.592	150.53
470.802	304.12
471.012	-105.47
471.222	-211.96
471.432	211.96
471.642	128
471.852	-105.47
472.062	-265.21
472.272	-19.46
472.482	-220.16
472.691	-349.18
472.901	-336.89
473.111	82.94
473.321	580.6
473.531	-359.42
473.741	-175.1
473.95	125.95
474.16	93.18
474.37	-107.52
474.58	-404.47
474.79	558.07
474.999	46.08
475.209	-322.56
475.419	-316.41
475.628	-115.71
475.838	361.47
476.048	-201.72
476.258	-363.51
476.467	297.98
476.677	-195.58
476.886	-9.22
477.096	-211.96
477.306	-123.9
477.515	279.55
477.725	-152.57
477.935	-146.43
478.144	334.84
478.354	-185.34
478.563	-236.54
478.773	-240.64
478.982	232.44
479.192	367.61
479.401	-66.56
479.611	-345.08
479.82	-236.54
480.03	107.52
480.239	-240.64
480.449	-443.39
480.658	390.14
480.868	-105.47
481.077	-138.24
481.287	-183.29
481.496	87.04
481.705	351.23
481.915	37.89
482.124	-48.13
482.333	134.14
482.543	343.03
482.752	-218.11
482.961	-361.47
483.171	146.43
483.38	1.02
483.589	-220.16
483.799	-316.41
484.008	-58.37
484.217	250.88
484.426	-240.64
484.636	-347.13
484.845	128
485.054	-310.27
485.263	-48.13
485.472	-287.74
485.682	431.1
485.891	56.32
486.1	-355.32
486.309	-326.65
486.518	183.29
486.727	302.08
486.936	-347.13
487.146	-64.51
487.355	349.18
487.564	-240.64
487.773	-291.84
487.982	-248.83
488.191	-123.9
488.4	-39.94
488.609	-218.11
488.818	-263.16
489.027	537.59
489.236	367.61
489.445	-252.92
489.654	-297.98
489.863	242.68
490.072	62.46
490.281	78.85
490.49	-187.39
490.698	336.89
490.907	390.14
491.116	-224.25
491.325	-345.08
491.534	287.74
491.743	89.09
491.952	-189.44
492.16	-224.25
492.369	160.77
492.578	240.64
492.787	-132.09
492.996	-351.23
493.204	-244.73
493.413	447.48
493.622	-508.92
493.831	-408.57
494.039	431.1
494.248	-230.4
494.457	-406.52
494.665	-418.81
494.874	201.72
495.083	414.71
495.291	-252.92
495.5	-314.36
495.709	238.59
495.917	74.75
496.126	-150.53
496.335	-297.98
496.543	-117.76
496.752	144.38
496.96	-52.22
497.169	-332.79
497.377	29.7
497.586	234.49
497.794	-111.61
498.003	-486.39
498.211	-54.27
498.42	410.62
498.628	-134.14
498.837	-412.67
499.045	150.53
499.254	76.8
499.462	-269.31
499.671	-398.33
499.879	506.87
500.087	166.91
500.296	-261.12
500.504	-234.49
500.713	121.85
500.921	500.73
501.129	-183.29
501.338	-265.21
501.546	62.46
501.754	74.75
501.962	-254.97
502.171	-379.9
502.379	136.19
502.587	424.95
502.795	-211.96
503.004	-322.56
503.212	74.75
503.42	293.88
503.628	-175.1
503.837	-119.81
504.045	168.96
504.253	431.1
504.461	-257.02
504.669	-457.72
504.877	187.39
505.085	365.56
505.294	-408.57
505.502	-132.09
505.71	101.37
505.918	164.86
506.126	-367.61
506.334	-355.32
506.542	9.22
506.75	44.03
506.958	-62.46
507.166	-234.49
507.374	-97.28
507.582	467.96
507.79	-261.12
507.998	-334.84
508.206	115.71
508.414	78.85
508.622	-361.47
508.83	-263.16
509.037	349.18
509.245	-109.57
509.453	-390.14
509.661	-343.03
509.869	164.86
510.077	23.55
510.285	-187.39
510.492	-572.41
510.7	605.17
510.908	-148.48
511.116	-211.96
511.324	-334.84
511.531	-152.57
511.739	64.51
511.947	-21.5
512.155	-7.17
512.362	95.23
512.57	-291.84
512.778	-310.27
512.985	-420.86
513.193	232.44
513.401	304.12
513.608	-205.82
513.816	-269.31
514.024	150.53
514.231	295.93
514.439	-234.49
514.646	-308.22
514.854	193.53
515.061	287.74
515.269	-263.16
515.477	-318.46
515.684	-246.78
515.892	293.88
516.099	-418.81
516.307	-437.24
516.514	230.4
516.722	412.67
516.929	-334.84
517.136	-371.71
517.344	386.04
517.551	95.23
517.759	-244.73
517.966	-173.05
518.173	-62.46
518.381	-41.98
518.588	-189.44
518.796	-259.07
519.003	267.26
519.21	-21.5
519.418	-371.71
519.625	-23.55
519.832	-44.03
520.039	136.19
520.247	-476.15
520.454	-220.16
520.661	195.58
520.868	164.86
521.076	-281.6
521.283	-238.59
521.49	572.41
521.697	218.11
521.904	-244.73
522.112	-211.96
522.319	201.72
522.526	111.61
522.733	-367.61
522.94	-392.19
523.147	25.6
523.354	158.72
523.561	-386.04
523.768	-166.91
523.975	193.53
524.183	-76.8
524.39	-261.12
524.597	-480.25
524.804	52.22
525.011	-132.09
525.218	-394.23
525.425	-416.76
525.632	308.22
525.838	-142.33
526.045	-263.16
526.252	-412.67
526.459	1051.63
526.666	865.27
526.873	-355.32
527.08	-345.08
527.287	435.19
527.494	119.81
527.701	-427
527.907	-312.32
528.114	144.38
528.321	-93.18
528.528	-236.54
528.735	-322.56
528.941	-150.53
529.148	-66.56
529.355	-185.34
529.562	-324.6
529.768	367.61
529.975	-119.81
530.182	-216.06
530.388	-363.51
530.595	263.16
530.802	-254.97
531.008	-156.67
531.215	-238.59
531.422	414.71
531.628	631.8
531.835	-222.2
532.042	-216.06
532.248	-115.71
532.455	29.7
532.661	-203.77
532.868	-318.46
533.074	97.28
533.281	259.07
533.487	-216.06
533.694	-314.36
533.9	-277.5
534.107	123.9
534.313	-289.79
534.52	-418.81
534.726	295.93
534.933	431.1
535.139	-371.71
535.345	-441.34
535.552	89.09
535.758	107.52
535.965	-205.82
536.171	-289.79
536.377	189.44
536.584	381.95
536.79	-300.03
536.996	-277.5
537.203	103.42
537.409	97.28
537.615	-195.58
537.821	-148.48
538.028	228.35
538.234	195.58
538.44	-269.31
538.646	-125.95
538.853	91.13
539.059	-29.7
539.265	111.61
539.471	-474.1
539.677	181.25
539.883	-78.85
540.09	-295.93
540.296	95.23
540.502	-33.79
540.708	-156.67
540.914	-93.18
541.12	-318.46
541.326	152.57
541.532	-31.74
541.738	-197.63
541.944	-156.67
542.15	238.59
542.356	-138.24
542.562	-412.67
542.768	-224.25
542.974	629.75
543.18	607.22
543.386	-293.88
543.592	-492.54
543.798	381.95
544.004	357.37
544.21	-326.65
544.415	-158.72
544.621	91.13
544.827	361.47
545.033	-367.61
545.239	-7.17
545.445	-189.44
545.651	115.71
545.856	-353.27
546.062	-328.7
546.268	-179.2
546.474	80.89
546.679	-238.59
546.885	-228.35
547.091	-138.24
547.297	521.21
547.502	-257.02
547.708	-388.09
547.914	-193.53
548.119	105.47
548.325	-396.28
548.531	-394.23
548.736	392.19
548.942	-252.92
549.147	-334.84
549.353	-95.23
549.559	326.65
549.764	142.33
549.97	-322.56
550.175	-377.85
550.381	76.8
550.586	-142.33
550.792	-191.49
550.997	-277.5
551.203	175.1
551.408	236.54
551.614	-306.17
551.819	-367.61
552.025	463.86
552.23	506.87
552.435	-338.94
552.641	-84.99
552.846	-181.25
553.052	257.02
553.257	-150.53
553.462	-285.69
553.668	-142.33
553.873	316.41
554.078	-410.62
554.283	-400.38
554.489	46.08
554.694	-46.08
554.899	-379.9
555.105	-111.61
555.31	125.95
555.515	216.06
555.72	-142.33
555.925	-330.75
556.131	181.25
556.336	-72.7
556.541	-340.99
556.746	-453.63
556.951	353.27
557.156	455.67
557.361	-232.44
557.567	-156.67
557.772	515.06
557.977	142.33
558.182	-295.93
558.387	-320.51
558.592	-171.01
558.797	353.27
559.002	-171.01
559.207	-207.87
559.412	-33.79
559.617	455.67
559.822	-279.55
560.027	-367.61
560.232	41.98
560.437	148.48
560.642	-410.62
560.847	-392.19
561.051	48.13
561.256	113.66
561.461	-216.06
561.666	-410.62
561.871	60.42
562.076	177.15
562.281	-257.02
562.485	-408.57
562.69	240.64
562.895	201.72
563.1	-343.03
563.305	-383.99
563.509	320.51
563.714	582.65
563.919	-324.6
564.123	-244.73
564.328	21.5
564.533	330.75
564.737	-183.29
564.942	-359.42
565.147	375.8
565.351	490.49
565.556	-166.91
565.761	-211.96
565.965	54.27
566.17	-173.05
566.374	-259.07
566.579	-312.32
566.784	97.28
566.988	-156.67
567.193	-427
567.397	-347.13
567.602	-257.02
567.806	-138.24
568.011	-271.36
568.215	-271.36
568.42	-64.51
568.624	-93.18
568.828	-379.9
569.033	-173.05
569.237	201.72
569.442	183.29
569.646	-386.04
569.85	-240.64
570.055	23.55
570.259	37.89
570.463	-7.17
570.668	-261.12
570.872	27.65
571.076	52.22
571.281	-142.33
571.485	-160.77
571.689	-48.13
571.893	177.15
572.098	-207.87
572.302	-273.4
572.506	115.71
572.71	-11.26
572.914	-189.44
573.119	-281.6
573.323	367.61
573.527	267.26
573.731	-295.93
573.935	-320.51
574.139	60.42
574.343	-142.33
574.547	-283.64
574.751	-269.31
574.955	275.45
575.159	304.12
575.364	-279.55
575.568	-328.7
575.772	5.12
575.976	302.08
576.18	-302.08
576.383	-461.82
576.587	320.51
576.791	191.49
576.995	-531.45
577.199	-445.43
577.403	207.87
577.607	300.03
577.811	-443.39
578.015	-185.34
578.219	31.74
578.422	187.39
578.626	-216.06
578.83	-103.42
579.034	275.45
579.238	91.13
579.442	-338.94
579.645	109.57
579.849	-33.79
580.053	56.32
580.257	-267.26
580.46	-150.53
580.664	209.92
580.868	99.33
581.071	-84.99
581.275	-195.58
581.479	-277.5
581.682	154.62
581.886	-355.32
582.09	-146.43
582.293	160.77
582.497	173.05
582.7	-105.47
582.904	-363.51
583.107	27.65
583.311	7.17
583.515	-191.49
583.718	-257.02
583.922	226.3
584.125	455.67
584.329	-314.36
584.532	-109.57
584.735	252.92
584.939	138.24
585.142	-467.96
585.346	-291.84
585.549	62.46
585.753	-130.05
585.956	-275.45
586.159	-154.62
586.363	353.27
586.566	119.81
586.769	-312.32
586.973	-388.09
587.176	146.43
587.379	326.65
587.582	89.09
587.786	-25.6
587.989	7.17
588.192	707.57
588.395	-119.81
588.599	9.22
588.802	29.7
589.005	199.68
589.208	-257.02
589.411	-269.31
589.615	314.36
589.818	418.81
590.021	-29.7
590.224	-97.28
590.427	328.7
590.63	171.01
590.833	-424.95
591.036	-345.08
591.239	-66.56
591.442	-117.76
591.645	-39.94
591.848	-314.36
592.051	101.37
592.254	377.85
592.457	-220.16
592.66	-279.55
592.863	-17.41
593.066	144.38
593.269	-263.16
593.472	-128
593.675	-257.02
593.878	232.44
594.081	-203.77
594.284	-322.56
594.486	201.72
594.689	23.55
594.892	-119.81
595.095	-236.54
595.298	152.57
595.5	-68.61
595.703	-244.73
595.906	-132.09
596.109	318.46
596.311	240.64
596.514	-527.35
596.717	-209.92
596.92	218.11
597.122	115.71
597.325	-543.74
597.528	-277.5
597.73	375.8
597.933	70.65
598.136	-300.03
598.338	-541.69
598.541	99.33
598.743	326.65
598.946	-304.12
599.148	-224.25
599.351	244.73
599.554	310.27
599.756	-130.05
599.959	-244.73
600.161	326.65
600.363	617.46
600.566	-3.07
600.768	-259.07
600.971	443.39
601.173	138.24
601.376	-271.36
601.578	-160.77
601.78	140.29
601.983	549.88
602.185	-314.36
602.388	-46.08
602.59	146.43
602.792	-144.38
602.995	1.02
603.197	-310.27
603.399	304.12
603.601	103.42
603.804	-164.86
604.006	-355.32
604.208	-11.26
604.41	-353.27
604.613	1.02
604.815	-283.64
605.017	439.29
605.219	-41.98
605.421	128
605.623	-189.44
605.826	406.52
606.028	379.9
606.23	-248.83
606.432	-275.45
606.634	418.81
606.836	381.95
607.038	-297.98
607.24	-117.76
607.442	103.42
607.644	107.52
607.846	-66.56
608.048	-164.86
608.25	345.08
608.452	-17.41
608.654	-203.77
608.856	-492.54
609.058	-25.6
609.26	152.57
609.462	-125.95
609.664	-203.77
609.866	523.26
610.067	291.84
610.269	-82.94
610.471	-207.87
610.673	-41.98
610.875	232.44
611.077	-334.84
611.278	-125.95
611.48	48.13
611.682	515.06
611.884	-164.86
612.085	-203.77
612.287	-193.53
612.489	164.86
612.69	-357.37
612.892	-154.62
613.094	343.03
613.295	171.01
613.497	-363.51
613.699	-179.2
613.9	474.1
614.102	226.3
614.304	-158.72
614.505	-336.89
614.707	-11.26
614.908	21.5
615.11	-351.23
615.311	-154.62
615.513	222.2
615.714	283.64
615.916	-297.98
616.117	-156.67
616.319	-44.03
616.52	300.03
616.722	-191.49
616.923	-150.53
617.124	252.92
617.326	177.15
617.527	-117.76
617.729	-44.03
617.93	226.3
618.131	297.98
618.333	-236.54
618.534	-119.81
618.735	-33.79
618.937	386.04
619.138	-312.32
619.339	-316.41
619.54	134.14
619.742	-29.7
619.943	-91.13
620.144	-252.92
620.345	267.26
620.546	209.92
620.748	-328.7
620.949	-191.49
621.15	7.17
621.351	115.71
621.552	-244.73
621.753	-394.23
621.954	-340.99
622.155	580.6
622.356	-314.36
622.558	-46.08
622.759	15.36
622.96	463.86
623.161	-220.16
623.362	-136.19
623.563	74.75
623.764	203.77
623.965	-146.43
624.166	-44.03
624.366	58.37
624.567	113.66
624.768	-478.2
624.969	-193.53
625.17	-66.56
625.371	279.55
625.572	-125.95
625.773	-267.26
625.973	269.31
626.174	293.88
626.375	-125.95
626.576	-89.09
626.777	99.33
626.977	660.47
627.178	-250.88
627.379	-91.13
627.58	95.23
627.78	82.94
627.981	-138.24
628.182	-144.38
628.382	392.19
628.583	-257.02
628.784	-371.71
628.984	-138.24
629.185	187.39
629.386	222.2
629.586	-123.9
629.787	-277.5
629.987	218.11
630.188	-7.17
630.388	-154.62
630.589	-99.33
630.79	668.66
630.99	136.19
631.191	-164.86
631.391	-93.18
631.591	242.68
631.792	488.44
631.992	-62.46
632.193	-175.1
632.393	459.77
632.594	-5.12
632.794	-220.16
632.994	-74.75
633.195	44.03
633.395	113.66
633.595	-207.87
633.796	-19.46
633.996	-113.66
634.196	422.91
634.397	-306.17
634.597	-72.7
634.797	-56.32
634.997	474.1
635.198	82.94
635.398	-297.98
635.598	191.49
635.798	308.22
635.998	261.12
636.199	-287.74
636.399	-74.75
636.599	-101.37
636.799	-214.01
636.999	48.13
637.199	261.12
637.399	304.12
637.599	-175.1
637.799	-66.56
637.999	3.07
638.199	365.56
638.399	-265.21
638.599	-156.67
638.799	265.21
638.999	539.64
639.199	13.31
639.399	-119.81
639.599	490.49
639.799	-134.14
639.999	-248.83
640.199	-203.77
640.399	152.57
640.599	128
640.799	-72.7
640.998	89.09
641.198	390.14
641.398	152.57
641.598	-117.76
641.798	-125.95
641.997	1078.26
642.197	91.13
642.397	-84.99
642.597	-113.66
642.796	209.92
642.996	476.15
643.196	21.5
643.395	-240.64
643.595	230.4
643.795	-338.94
643.994	-29.7
644.194	-52.22
644.394	285.69
644.593	166.91
644.793	-310.27
644.992	-33.79
645.192	207.87
645.392	-355.32
645.591	-76.8
645.791	-150.53
645.99	205.82
646.19	119.81
646.389	-134.14
646.589	-87.04
646.788	267.26
646.987	211.96
647.187	164.86
647.386	46.08
647.586	9.22
647.785	277.5
647.984	-140.29
648.184	-97.28
648.383	-60.42
648.582	39.94
648.782	-117.76
648.981	-93.18
649.18	-93.18
649.38	160.77
649.579	-191.49
649.778	-203.77
649.977	193.53
650.177	269.31
650.376	-195.58
650.575	-277.5
650.774	478.2
650.973	-97.28
651.173	-277.5
651.372	-52.22
651.571	162.81
651.77	330.75
651.969	-199.68
652.168	-78.85
652.367	-123.9
652.566	103.42
652.765	-277.5
652.964	181.25
653.163	627.7
653.362	72.7
653.561	-154.62
653.76	-134.14
653.959	-93.18
654.158	187.39
654.357	152.57
654.556	-99.33
654.755	187.39
654.954	336.89
655.153	-144.38
655.352	-76.8
655.551	304.12
655.749	-103.42
655.948	-29.7
656.147	-68.61
656.346	168.96
656.545	48.13
656.743	-76.8
656.942	-138.24
657.141	101.37
657.34	-62.46
657.538	-121.85
657.737	-140.29
657.936	23.55
658.135	230.4
658.333	-113.66
658.532	-29.7
658.731	568.31
658.929	375.8
659.128	175.1
659.326	-162.81
659.525	406.52
659.724	70.65
659.922	-369.66
660.121	-211.96
660.319	117.76
660.518	-27.65
660.716	-246.78
660.915	-207.87
661.113	482.3
661.312	-236.54
661.51	13.31
661.709	-228.35
661.907	275.45
662.105	529.4
662.304	-66.56
662.502	-64.51
662.701	418.81
662.899	37.89
663.097	193.53
663.296	-295.93
663.494	451.58
663.692	556.02
663.891	-211.96
664.089	-191.49
664.287	263.16
664.485	482.3
664.684	-171.01
664.882	-64.51
665.08	115.71
665.278	189.44
665.476	-322.56
665.675	173.05
665.873	568.31
666.071	402.43
666.269	-107.52
666.467	140.29
666.665	248.83
666.863	197.63
667.061	41.98
667.259	-23.55
667.457	179.2
667.655	257.02
667.853	-224.25
668.051	-19.46
668.249	-50.18
668.447	246.78
668.645	-154.62
668.843	130.05
669.041	351.23
669.239	-5.12
669.437	46.08
669.635	-21.5
669.833	109.57
670.031	365.56
670.229	7.17
670.426	15.36
670.624	31.74
670.822	-39.94
671.02	-72.7
671.218	-93.18
671.415	-68.61
671.613	214.01
671.811	13.31
672.009	-93.18
672.206	328.7
672.404	261.12
672.602	99.33
672.799	-25.6
672.997	263.16
673.195	377.85
673.392	33.79
673.59	-195.58
673.788	216.06
673.985	-371.71
674.183	58.37
674.38	-113.66
674.578	394.23
674.775	3.07
674.973	-218.11
675.17	-146.43
675.368	504.82
675.565	224.25
675.763	-164.86
675.96	-173.05
676.158	451.58
676.355	125.95
676.553	-150.53
676.75	-121.85
676.947	175.1
677.145	80.89
677.342	95.23
677.539	99.33
677.737	197.63
677.934	719.86
678.131	125.95
678.329	-134.14
678.526	601.08
678.723	218.11
678.92	19.46
679.118	-91.13
679.315	-171.01
679.512	541.69
679.709	-52.22
679.906	-3.07
680.104	418.81
680.301	115.71
680.498	-156.67
680.695	-179.2
680.892	78.85
681.089	11.26
681.286	17.41
681.483	-107.52
681.68	261.12
681.877	328.7
682.075	-31.74
682.272	189.44
682.469	261.12
682.665	128
682.862	-248.83
683.059	-338.94
683.256	177.15
683.453	201.72
683.65	84.99
683.847	-15.36
684.044	37.89
684.241	-21.5
684.438	150.53
684.635	-162.81
684.831	627.7
685.028	656.37
685.225	-80.89
685.422	44.03
685.619	60.42
685.815	222.2
686.012	1.02
686.209	76.8
686.405	-95.23
686.602	365.56
686.799	-203.77
686.996	-179.2
687.192	-27.65
687.389	615.41
687.586	-171.01
687.782	7.17
687.979	558.07
688.175	504.82
688.372	60.42
688.568	-78.85
688.765	76.8
688.962	510.97
689.158	107.52
689.355	-166.91
689.551	398.33
689.748	35.84
689.944	-3.07
690.14	-181.25
690.337	447.48
690.533	54.27
690.73	130.05
690.926	17.41
691.123	277.5
691.319	156.67
691.515	-107.52
691.712	150.53
691.908	336.89
692.104	189.44
692.301	72.7
692.497	-117.76
692.693	455.67
692.889	310.27
693.086	121.85
693.282	-304.12
693.478	214.01
693.674	558.07
693.87	-3.07
694.067	-156.67
694.263	300.03
694.459	64.51
694.655	121.85
694.851	109.57
695.047	291.84
695.243	480.25
695.439	207.87
695.635	-27.65
695.831	326.65
696.027	306.17
696.224	5.12
696.42	308.22
696.615	539.64
696.811	470.01
697.007	-257.02
697.203	-25.6
697.399	363.51
697.595	447.48
697.791	-166.91
697.987	203.77
698.183	-35.84
698.379	60.42
698.575	-7.17
698.77	41.98
698.966	365.56
699.162	447.48
699.358	15.36
699.554	27.65
699.749	398.33
699.945	381.95
700.141	119.81
700.337	107.52
700.532	173.05
700.728	23.55
700.924	-46.08
701.119	-142.33
701.315	353.27
701.511	177.15
701.706	78.85
701.902	-273.4
702.097	297.98
702.293	367.61
702.489	89.09
702.684	-23.55
702.88	281.6
703.075	87.04
703.271	66.56
703.466	-115.71
703.662	173.05
703.857	328.7
704.053	-44.03
704.248	97.28
704.443	353.27
704.639	390.14
704.834	62.46
705.03	-87.04
705.225	322.56
705.42	513.02
705.616	216.06
705.811	17.41
706.006	216.06
706.202	41.98
706.397	181.25
706.592	-156.67
706.787	287.74
706.983	269.31
707.178	250.88
707.373	97.28
707.568	343.03
707.763	560.12
707.959	-23.55
708.154	-70.65
708.349	283.64
708.544	304.12
708.739	218.11
708.934	-19.46
709.129	424.95
709.324	486.39
709.519	-46.08
709.714	-60.42
709.909	523.26
710.104	435.19
710.299	17.41
710.494	68.61
710.689	400.38
710.884	181.25
711.079	181.25
711.274	340.99
711.469	267.26
711.664	322.56
711.859	-3.07
712.054	181.25
712.249	394.23
712.443	449.53
712.638	-150.53
712.833	54.27
713.028	300.03
713.223	177.15
713.417	197.63
713.612	52.22
713.807	406.52
714.002	830.45
714.196	209.92
714.391	39.94
714.586	453.63
714.78	220.16
714.975	82.94
715.17	66.56
715.364	148.48
715.559	525.3
715.754	-175.1
715.948	21.5
716.143	748.53
716.337	314.36
716.532	322.56
716.726	-39.94
716.921	338.94
717.115	730.1
717.31	-130.05
717.504	502.78
717.699	224.25
717.893	572.41
718.088	-46.08
718.282	-119.81
718.476	336.89
718.671	470.01
718.865	46.08
719.059	78.85
719.254	261.12
719.448	635.89
719.642	1262.57
719.837	-142.33
720.031	424.95
720.225	566.26
720.419	152.57
720.614	15.36
720.808	513.02
721.002	195.58
721.196	-50.18
721.39	1.02
721.585	578.55
721.779	439.29
721.973	41.98
722.167	-154.62
722.361	347.13
722.555	556.02
722.749	9.22
722.943	44.03
723.137	82.94
723.331	422.91
723.525	50.18
723.719	125.95
723.913	447.48
724.107	574.46
724.301	31.74
724.495	136.19
724.689	711.67
724.883	615.41
725.077	-25.6
725.271	82.94
725.465	615.41
725.659	328.7
725.853	242.68
726.046	-103.42
726.24	136.19
726.434	578.55
726.628	134.14
726.822	158.72
727.015	543.74
727.209	578.55
727.403	66.56
727.596	-58.37
727.79	463.86
727.984	547.83
728.177	76.8
728.371	211.96
728.565	601.08
728.758	99.33
728.952	-11.26
729.146	37.89
729.339	572.41
729.533	265.21
729.726	50.18
729.92	-62.46
730.113	533.5
730.307	332.79
730.5	103.42
730.694	62.46
730.887	189.44
731.081	504.82
731.274	-44.03
731.468	54.27
731.661	273.4
731.854	105.47
732.048	54.27
732.241	25.6
732.435	250.88
732.628	312.32
732.821	48.13
733.014	-25.6
733.208	54.27
733.401	439.29
733.594	93.18
733.788	31.74
733.981	648.18
734.174	349.18
734.367	99.33
734.56	209.92
734.754	478.2
734.947	330.75
735.14	39.94
735.333	107.52
735.526	435.19
735.719	203.77
735.912	-1.02
736.105	58.37
736.298	343.03
736.491	164.86
736.684	64.51
736.877	-15.36
737.07	398.33
737.263	689.14
737.456	123.9
737.649	-11.26
737.842	140.29
738.035	398.33
738.228	101.37
738.421	228.35
738.614	586.74
738.807	484.34
739	-89.09
739.192	76.8
739.385	312.32
739.578	414.71
739.771	408.57
739.964	113.66
740.156	492.54
740.349	281.6
740.542	242.68
740.735	-35.84
740.927	91.13
741.12	168.96
741.313	66.56
741.505	197.63
741.698	404.47
741.891	398.33
742.083	304.12
742.276	103.42
742.468	250.88
742.661	406.52
742.854	84.99
743.046	27.65
743.239	752.63
743.431	246.78
743.624	191.49
743.816	-35.84
744.009	244.73
744.201	463.86
744.393	293.88
744.586	-1.02
744.778	644.09
744.971	293.88
745.163	136.19
745.355	91.13
745.548	367.61
745.74	259.07
745.932	177.15
746.125	93.18
746.317	873.46
746.509	375.8
746.702	173.05
746.894	187.39
747.086	451.58
747.278	578.55
747.471	312.32
747.663	177.15
747.855	414.71
748.047	736.24
748.239	21.5
748.431	64.51
748.623	801.78
748.815	721.91
749.008	-3.07
749.2	-23.55
749.392	572.41
749.584	461.82
749.776	181.25
749.968	332.79
750.16	787.44
750.352	404.47
750.544	185.34
750.736	1.02
750.928	588.79
751.12	306.17
751.311	144.38
751.503	248.83
751.695	472.06
751.887	437.24
752.079	-78.85
752.271	209.92
752.463	1244.14
752.654	568.31
752.846	238.59
753.038	166.91
753.23	271.36
753.421	644.09
753.613	156.67
753.805	406.52
753.997	525.3
754.188	594.93
754.38	62.46
754.572	136.19
754.763	246.78
754.955	492.54
755.146	214.01
755.338	275.45
755.53	470.01
755.721	404.47
755.913	-60.42
756.104	99.33
756.296	355.32
756.487	582.65
756.679	66.56
756.87	179.2
757.062	308.22
757.253	502.78
757.445	128
757.636	193.53
757.827	365.56
758.019	941.04
758.21	48.13
758.401	82.94
758.593	938.99
758.784	723.96
758.975	29.7
759.167	1.02
759.358	472.06
759.549	611.32
759.74	107.52
759.932	64.51
760.123	705.53
760.314	291.84
760.505	281.6
760.696	64.51
760.888	848.88
761.079	326.65
761.27	111.61
761.461	-23.55
761.652	775.16
761.843	261.12
762.034	193.53
762.225	422.91
762.416	345.08
762.607	386.04
762.798	209.92
762.989	128
763.18	1203.18
763.371	353.27
763.562	91.13
763.753	140.29
763.944	578.55
764.135	683
764.326	257.02
764.517	168.96
764.708	467.96
764.899	525.3
765.089	152.57
765.28	-11.26
765.471	392.19
765.662	560.12
765.853	279.55
766.043	7.17
766.234	590.84
766.425	590.84
766.615	154.62
766.806	103.42
766.997	754.68
767.187	502.78
767.378	195.58
767.569	-64.51
767.759	556.02
767.95	367.61
768.141	318.46
768.331	134.14
768.522	459.77
768.712	574.46
768.903	140.29
769.093	-37.89
769.284	887.79
769.474	498.68
769.665	-52.22
769.855	5.12
770.046	558.07
770.236	304.12
770.426	343.03
770.617	68.61
770.807	480.25
770.998	304.12
771.188	287.74
771.378	64.51
771.569	596.98
771.759	504.82
771.949	87.04
772.139	-84.99
772.33	508.92
772.52	717.81
772.71	140.29
772.9	48.13
773.09	850.93
773.281	730.1
773.471	130.05
773.661	162.81
773.851	590.84
774.041	330.75
774.231	74.75
774.421	297.98
774.611	877.55
774.802	465.91
774.992	181.25
775.182	-60.42
775.372	472.06
775.562	654.33
775.752	185.34
775.942	76.8
776.131	736.24
776.321	623.61
776.511	232.44
776.701	35.84
776.891	660.47
777.081	148.48
777.271	242.68
777.461	156.67
777.651	652.28
777.84	740.34
778.03	300.03
778.22	103.42
778.41	803.83
778.599	263.16
778.789	293.88
778.979	164.86
779.169	476.15
779.358	420.86
779.548	494.58
779.738	138.24
779.927	570.36
780.117	228.35
780.307	230.4
780.496	-48.13
780.686	537.59
780.875	975.86
781.065	64.51
781.254	173.05
781.444	455.67
781.633	410.62
781.823	54.27
782.012	134.14
782.202	371.71
782.391	424.95
782.581	76.8
782.77	316.41
782.96	656.37
783.149	427
783.338	218.11
783.528	-66.56
783.717	678.9
783.906	689.14
784.096	275.45
784.285	80.89
784.474	308.22
784.663	173.05
784.853	209.92
785.042	285.69
785.231	424.95
785.42	656.37
785.61	242.68
785.799	97.28
785.988	355.32
786.177	312.32
786.366	269.31
786.555	388.09
786.744	619.51
786.933	429.05
787.122	150.53
787.312	70.65
787.501	283.64
787.69	588.79
787.879	160.77
788.068	93.18
788.257	168.96
788.445	291.84
788.634	246.78
788.823	72.7
789.012	938.99
789.201	867.31
789.39	166.91
789.579	76.8
789.768	508.92
789.957	459.77
790.145	154.62
790.334	-50.18
790.523	324.6
790.712	414.71
790.9	287.74
791.089	74.75
791.278	812.02
791.467	513.02
791.655	431.1
791.844	723.96
792.033	300.03
792.221	328.7
792.41	328.7
792.599	13.31
792.787	586.74
792.976	605.17
793.164	-17.41
793.353	250.88
793.541	588.79
793.73	660.47
793.918	216.06
794.107	236.54
794.295	443.39
794.484	523.26
794.672	263.16
794.861	160.77
795.049	590.84
795.238	891.89
795.426	78.85
795.614	340.99
795.803	586.74
795.991	816.12
796.179	140.29
796.368	123.9
796.556	773.11
796.744	293.88
796.932	146.43
797.121	195.58
797.309	455.67
797.497	648.18
797.685	261.12
797.874	162.81
798.062	390.14
798.25	705.53
798.438	152.57
798.626	115.71
798.814	635.89
799.002	1086.45
799.19	402.43
799.378	277.5
799.566	750.58
799.755	807.92
799.943	482.3
800.131	173.05
800.318	611.32
800.506	580.6
800.694	148.48
800.882	281.6
801.07	650.23
801.258	488.44
801.446	283.64
801.634	218.11
801.822	437.24
802.01	515.06
802.197	168.96
802.385	463.86
802.573	490.49
802.761	269.31
802.949	267.26
803.136	66.56
803.324	709.62
803.512	537.59
803.699	300.03
803.887	64.51
804.075	916.47
804.262	377.85
804.45	105.47
804.638	283.64
804.825	273.4
805.013	283.64
805.201	246.78
805.388	89.09
805.576	510.97
805.763	918.51
805.951	201.72
806.138	410.62
806.326	963.57
806.513	676.85
806.701	383.99
806.888	236.54
807.075	564.22
807.263	988.14
807.45	99.33
807.638	463.86
807.825	982
808.012	781.3
808.2	240.64
808.387	558.07
808.574	697.33
808.761	857.07
808.949	197.63
809.136	283.64
809.323	365.56
809.51	490.49
809.698	545.78
809.885	390.14
810.072	498.68
810.259	687.09
810.446	263.16
810.633	261.12
810.82	832.5
811.008	885.75
811.195	470.01
811.382	369.66
811.569	517.11
811.756	236.54
811.943	361.47
812.13	275.45
812.317	498.68
812.504	379.9
812.691	267.26
812.878	338.94
813.064	959.47
813.251	603.13
813.438	177.15
813.625	375.8
813.812	500.73
813.999	576.5
814.186	347.13
814.372	310.27
814.559	617.46
814.746	902.13
814.933	373.75
815.12	564.22
815.306	472.06
815.493	365.56
815.68	252.92
815.866	295.93
816.053	789.49
816.24	1082.35
816.426	390.14
816.613	263.16
816.799	709.62
816.986	840.69
817.173	300.03
817.359	197.63
817.546	627.7
817.732	283.64
817.919	13.31
818.105	373.75
818.292	433.15
818.478	705.53
818.665	498.68
818.851	275.45
819.037	1053.68
819.224	705.53
819.41	263.16
819.597	277.5
819.783	977.91
819.969	670.71
820.156	304.12
820.342	226.3
820.528	1311.72
820.714	578.55
820.901	623.61
821.087	304.12
821.273	1049.58
821.459	506.87
821.646	205.82
821.832	248.83
822.018	564.22
822.204	699.38
822.39	361.47
822.576	271.36
822.762	742.39
822.948	644.09
823.134	529.4
823.32	332.79
823.507	433.15
823.693	633.85
823.879	717.81
824.065	275.45
824.25	578.55
824.436	328.7
824.622	359.42
824.808	226.3
824.994	451.58
825.18	443.39
825.366	277.5
825.552	302.08
825.738	445.43
825.923	771.06
826.109	599.03
826.295	328.7
826.481	431.1
826.667	586.74
826.852	543.74
827.038	283.64
827.224	869.36
827.409	1022.96
827.595	152.57
827.781	599.03
827.966	910.32
828.152	865.27
828.338	375.8
828.523	226.3
828.709	400.38
828.894	928.75
829.08	359.42
829.266	228.35
829.451	406.52
829.637	783.35
829.822	463.86
830.008	300.03
830.193	803.83
830.378	936.95
830.564	369.66
830.749	275.45
830.935	746.48
831.12	756.72
831.305	320.51
831.491	472.06
831.676	435.19
831.861	832.5
832.047	386.04
832.232	162.81
832.417	812.02
832.602	642.04
832.788	252.92
832.973	355.32
833.158	594.93
833.343	627.7
833.528	338.94
833.714	416.76
833.899	721.91
834.084	1014.77
834.269	541.69
834.454	318.46
834.639	852.98
834.824	572.41
835.009	431.1
835.194	556.02
835.379	728.05
835.564	1127.41
835.749	504.82
835.934	293.88
836.119	713.72
836.304	656.37
836.489	295.93
836.674	510.97
836.859	390.14
837.044	906.23
837.228	406.52
837.413	168.96
837.598	660.47
837.783	830.45
837.968	373.75
838.152	287.74
838.337	183.29
838.522	971.76
838.707	869.36
838.891	662.52
839.076	836.6
839.261	879.6
839.445	375.8
839.63	506.87
839.815	1088.5
839.999	568.31
840.184	369.66
840.368	398.33
840.553	812.02
840.737	844.79
840.922	379.9
841.106	242.68
841.291	488.44
841.475	633.85
841.66	375.8
841.844	453.63
842.029	1285.1
842.213	437.24
842.397	406.52
842.582	197.63
842.766	955.38
842.951	906.23
843.135	445.43
843.319	459.77
843.504	672.76
843.688	867.31
843.872	175.1
844.056	320.51
844.241	777.2
844.425	541.69
844.609	537.59
844.793	164.86
844.977	910.32
845.161	769.01
845.346	216.06
845.53	365.56
845.714	543.74
845.898	1033.2
846.082	152.57
846.266	383.99
846.45	707.57
846.634	656.37
846.818	343.03
847.002	478.2
847.186	787.44
847.37	447.48
847.554	375.8
847.738	480.25
847.922	715.77
848.106	683
848.29	246.78
848.473	480.25
848.657	807.92
848.841	611.32
849.025	406.52
849.209	160.77
849.392	857.07
849.576	525.3
849.76	160.77
849.944	474.1
850.127	971.76
850.311	408.57
850.495	285.69
850.678	216.06
850.862	945.14
851.046	1000.43
851.229	693.24
851.413	269.31
851.596	728.05
851.78	619.51
851.964	582.65
852.147	439.29
852.331	1516.52
852.514	967.67
852.698	472.06
852.881	220.16
853.065	926.71
853.248	660.47
853.431	572.41
853.615	459.77
853.798	1307.63
853.982	689.14
854.165	556.02
854.348	347.13
854.532	447.48
854.715	607.22
854.898	443.39
855.081	431.1
855.265	979.95
855.448	1012.72
855.631	367.61
855.814	334.84
855.997	916.47
856.181	742.39
856.364	433.15
856.547	316.41
856.73	754.68
856.913	726
857.096	371.71
857.279	523.26
857.462	529.4
857.645	840.69
857.828	523.26
858.011	513.02
858.194	551.93
858.377	812.02
858.56	300.03
858.743	402.43
858.926	433.15
859.109	750.58
859.292	431.1
859.475	261.12
859.658	963.57
859.841	834.55
860.023	336.89
860.206	236.54
860.389	662.52
860.572	1014.77
860.755	353.27
860.937	351.23
861.12	676.85
861.303	627.7
861.486	472.06
861.668	351.23
861.851	875.51
862.034	869.36
862.216	537.59
862.399	232.44
862.581	873.46
862.764	1100.78
862.947	488.44
863.129	361.47
863.312	451.58
863.494	1014.77
863.677	726
863.859	324.6
864.042	912.37
864.224	1039.34
864.406	521.21
864.589	236.54
864.771	828.4
864.954	596.98
865.136	367.61
865.318	158.72
865.501	848.88
865.683	338.94
865.865	316.41
866.048	437.24
866.23	691.19
866.412	611.32
866.594	291.84
866.777	418.81
866.959	807.92
867.141	549.88
867.323	662.52
867.505	562.17
867.687	715.77
867.869	760.82
868.052	457.72
868.234	281.6
868.416	693.24
868.598	914.42
868.78	398.33
868.962	375.8
869.144	865.27
869.326	922.61
869.508	439.29
869.69	373.75
869.872	562.17
870.054	852.98
870.236	308.22
870.417	361.47
870.599	633.85
870.781	1074.16
870.963	590.84
871.145	332.79
871.327	424.95
871.508	900.08
871.69	422.91
871.872	484.34
872.054	644.09
872.235	762.87
872.417	533.5
872.599	269.31
872.78	1147.89
872.962	695.29
873.144	240.64
873.325	400.38
873.507	1045.49
873.689	709.62
873.87	345.08
874.052	508.92
874.233	687.09
874.415	834.55
874.596	439.29
874.778	300.03
874.959	695.29
875.141	936.95
875.322	402.43
875.503	381.95
875.685	758.77
875.866	404.47
876.048	357.37
876.229	291.84
876.41	680.95
876.592	865.27
876.773	459.77
876.954	275.45
877.136	984.05
877.317	619.51
877.498	248.83
877.679	449.53
877.86	744.44
878.042	744.44
878.223	414.71
878.404	678.9
878.585	795.64
878.766	1225.71
878.947	695.29
879.128	644.09
879.309	852.98
879.49	1037.3
879.672	578.55
879.853	533.5
880.034	570.36
880.215	617.46
880.396	539.64
880.576	404.47
880.757	549.88
880.938	1111.02
881.119	412.67
881.3	420.86
881.481	664.57
881.662	1545.19
881.843	433.15
882.023	363.51
882.204	687.09
882.385	779.25
882.566	404.47
882.747	470.01
882.927	719.86
883.108	793.59
883.289	410.62
883.469	635.89
883.65	517.11
883.831	754.68
884.011	648.18
884.192	359.42
884.373	963.57
884.553	812.02
884.734	611.32
884.914	775.16
885.095	1407.98
885.275	1190.89
885.456	824.31
885.636	363.51
885.817	766.96
885.997	816.12
886.178	371.71
886.358	570.36
886.538	709.62
886.719	1823.72
886.899	484.34
887.08	537.59
887.26	984.05
887.44	513.02
887.621	353.27
887.801	672.76
887.981	1309.68
888.161	1016.82
888.342	506.87
888.522	562.17
888.702	1090.54
888.882	1086.45
889.062	605.17
889.242	240.64
889.423	1297.39
889.603	846.84
889.783	660.47
889.963	576.5
890.143	895.99
890.323	1106.93
890.503	553.98
890.683	631.8
890.863	742.39
891.043	818.16
891.223	615.41
891.403	750.58
891.583	785.4
891.763	873.46
891.943	656.37
892.122	476.15
892.302	832.5
892.482	769.01
892.662	748.53
892.842	605.17
893.022	1006.58
893.201	703.48
893.381	728.05
893.561	496.63
893.741	1045.49
893.92	924.66
894.1	744.44
894.28	701.43
894.459	977.91
894.639	922.61
894.819	480.25
894.998	711.67
895.178	900.08
895.357	965.62
895.537	566.26
895.716	453.63
895.896	846.84
896.075	1240.05
896.255	490.49
896.434	336.89
896.614	1111.02
896.793	1121.26
896.973	738.29
897.152	824.31
897.331	891.89
897.511	1106.93
897.69	375.8
897.87	672.76
898.049	1078.26
898.228	852.98
898.407	750.58
898.587	764.92
898.766	619.51
898.945	1180.65
899.124	922.61
899.304	748.53
899.483	992.24
899.662	1397.74
899.841	584.7
900.02	482.3
900.199	1127.41
900.378	898.03
900.557	484.34
900.737	453.63
900.916	967.67
901.095	1057.78
901.274	920.56
901.453	377.85
901.632	637.94
901.811	771.06
901.989	580.6
902.168	502.78
902.347	1065.97
902.526	779.25
902.705	535.54
902.884	642.04
903.063	1147.89
903.242	1213.42
903.42	541.69
903.599	752.63
903.778	1086.45
903.957	1235.95
904.135	742.39
904.314	730.1
904.493	932.85
904.672	1063.92
904.85	590.84
905.029	631.8
905.207	967.67
905.386	1539.05
905.565	541.69
905.743	619.51
905.922	807.92
906.1	1068.02
906.279	455.67
906.457	586.74
906.636	717.81
906.814	807.92
906.993	676.85
907.171	545.78
907.35	996.34
907.528	1094.64
907.707	820.21
907.885	588.79
908.063	1276.91
908.242	627.7
908.42	654.33
908.598	390.14
908.777	1029.1
908.955	746.48
909.133	838.64
909.311	574.46
909.49	791.54
909.668	842.74
909.846	603.13
910.024	379.9
910.202	846.84
910.38	873.46
910.559	386.04
910.737	545.78
910.915	918.51
911.093	951.28
911.271	623.61
911.449	777.2
911.627	941.04
911.805	1364.97
911.983	599.03
912.161	619.51
912.339	988.14
912.517	1106.93
912.695	869.36
912.872	709.62
913.05	762.87
913.228	1061.87
913.406	660.47
913.584	539.64
913.762	1061.87
913.939	670.71
914.117	547.83
914.295	472.06
914.473	1031.15
914.65	922.61
914.828	568.31
915.006	465.91
915.184	494.58
915.361	1020.91
915.539	674.81
915.716	752.63
915.894	988.14
916.072	1018.86
916.249	906.23
916.427	760.82
916.604	609.27
916.782	930.8
916.959	541.69
917.137	615.41
917.314	955.38
917.492	1012.72
917.669	742.39
917.847	738.29
918.024	920.56
918.201	642.04
918.379	609.27
918.556	566.26
918.733	1113.07
918.911	838.64
919.088	705.53
919.265	566.26
919.442	918.51
919.62	820.21
919.797	474.1
919.974	502.78
920.151	842.74
920.328	889.84
920.506	629.75
920.683	801.78
920.86	566.26
921.037	592.89
921.214	607.22
921.391	527.35
921.568	914.42
921.745	715.77
921.922	656.37
922.099	541.69
922.276	1160.17
922.453	906.23
922.63	539.64
922.807	979.95
922.984	891.89
923.161	709.62
923.338	586.74
923.514	506.87
923.691	680.95
923.868	955.38
924.045	549.88
924.222	467.96
924.399	861.17
924.575	1176.56
924.752	619.51
924.929	678.9
925.105	906.23
925.282	635.89
925.459	570.36
925.635	553.98
925.812	711.67
925.989	617.46
926.165	629.75
926.342	457.72
926.518	599.03
926.695	791.54
926.871	484.34
927.048	377.85
927.224	916.47
927.401	771.06
927.577	529.4
927.754	394.23
927.93	1051.63
928.107	1047.54
928.283	531.45
928.459	758.77
928.636	955.38
928.812	683
928.988	377.85
929.165	332.79
929.341	662.52
929.517	791.54
929.693	791.54
929.87	320.51
930.046	924.66
930.222	551.93
930.398	502.78
930.574	687.09
930.751	791.54
930.927	592.89
931.103	605.17
931.279	519.16
931.455	547.83
931.631	740.34
931.807	320.51
931.983	381.95
932.159	443.39
932.335	805.88
932.511	523.26
932.687	517.11
932.863	832.5
933.039	793.59
933.215	304.12
933.391	361.47
933.566	754.68
933.742	742.39
933.918	422.91
934.094	304.12
934.27	750.58
934.445	683
934.621	517.11
934.797	316.41
934.973	869.36
935.148	777.2
935.324	316.41
935.5	250.88
935.675	820.21
935.851	693.24
936.027	379.9
936.202	390.14
936.378	709.62
936.553	537.59
936.729	791.54
936.904	373.75
937.08	470.01
937.255	377.85
937.431	422.91
937.606	179.2
937.782	537.59
937.957	685.05
938.133	398.33
938.308	293.88
938.483	646.13
938.659	330.75
938.834	365.56
939.009	226.3
939.185	439.29
939.36	283.64
939.535	1.02
939.71	410.62
939.886	785.4
940.061	654.33
940.236	461.82
940.411	193.53
940.586	660.47
940.761	713.72
940.937	265.21
941.112	150.53
941.287	615.41
941.462	500.73
941.637	175.1
941.812	252.92
941.987	570.36
942.162	502.78
942.337	265.21
942.512	250.88
942.687	611.32
942.862	644.09
943.037	168.96
943.212	-115.71
943.386	300.03
943.561	467.96
943.736	351.23
943.911	470.01
944.086	502.78
944.26	508.92
944.435	267.26
944.61	226.3
944.785	773.11
944.959	822.26
945.134	330.75
945.309	173.05
945.483	308.22
945.658	740.34
945.833	-93.18
946.007	33.79
946.182	859.12
946.357	209.92
946.531	103.42
946.706	121.85
946.88	171.01
947.055	455.67
947.229	62.46
947.404	97.28
947.578	644.09
947.752	283.64
947.927	70.65
948.101	82.94
948.276	418.81
948.45	553.98
948.624	357.37
948.799	132.09
948.973	500.73
949.147	130.05
949.321	275.45
949.496	275.45
949.67	717.81
949.844	295.93
950.018	183.29
950.193	152.57
950.367	887.79
950.541	328.7
950.715	263.16
950.889	328.7
951.063	316.41
951.237	619.51
951.411	-17.41
951.585	-17.41
951.759	535.54
951.933	412.67
952.107	246.78
952.281	357.37
952.455	701.43
952.629	629.75
952.803	70.65
952.977	140.29
953.151	549.88
953.325	504.82
953.499	291.84
953.672	-15.36
953.846	152.57
954.02	310.27
954.194	93.18
954.368	105.47
954.541	549.88
954.715	304.12
954.889	328.7
955.062	58.37
955.236	371.71
955.41	281.6
955.583	218.11
955.757	-52.22
955.93	338.94
956.104	103.42
956.278	128
956.451	91.13
956.625	510.97
956.798	816.12
956.972	340.99
957.145	39.94
957.319	435.19
957.492	398.33
957.665	357.37
957.839	164.86
958.012	510.97
958.185	218.11
958.359	148.48
958.532	400.38
958.705	494.58
958.879	398.33
959.052	134.14
959.225	-33.79
959.398	379.9
959.572	504.82
959.745	134.14
959.918	193.53
960.091	308.22
960.264	515.06
960.438	80.89
960.611	87.04
960.784	570.36
960.957	230.4
961.13	594.93
961.303	119.81
961.476	441.34
961.649	629.75
961.822	52.22
961.995	259.07
962.168	433.15
962.341	519.16
962.514	87.04
962.686	103.42
962.859	472.06
963.032	437.24
963.205	128
963.378	-41.98
963.551	508.92
963.723	480.25
963.896	316.41
964.069	267.26
964.242	388.09
964.414	744.44
964.587	175.1
964.76	228.35
964.932	447.48
965.105	377.85
965.278	164.86
965.45	232.44
965.623	416.76
965.795	611.32
965.968	201.72
966.14	144.38
966.313	338.94
966.485	470.01
966.658	179.2
966.83	105.47
967.003	621.56
967.175	537.59
967.348	140.29
967.52	234.49
967.692	750.58
967.865	566.26
968.037	173.05
968.209	353.27
968.382	435.19
968.554	629.75
968.726	228.35
968.898	121.85
969.071	529.4
969.243	525.3
969.415	220.16
969.587	267.26
969.759	918.51
969.932	472.06
970.104	177.15
970.276	21.5
970.448	168.96
970.62	252.92
970.792	267.26
970.964	234.49
971.136	840.69
971.308	556.02
971.48	144.38
971.652	121.85
971.824	691.19
971.996	369.66
972.168	234.49
972.339	199.68
972.511	678.9
972.683	379.9
972.855	338.94
973.027	164.86
973.199	379.9
973.37	504.82
973.542	261.12
973.714	433.15
973.886	340.99
974.057	623.61
974.229	128
974.401	62.46
974.572	95.23
974.744	-1.02
974.915	74.75
975.087	154.62
975.259	748.53
975.43	252.92
975.602	130.05
975.773	140.29
975.945	203.77
976.116	521.21
976.288	44.03
976.459	283.64
976.63	295.93
976.802	463.86
976.973	119.81
977.145	291.84
977.316	814.07
977.487	435.19
977.659	287.74
977.83	87.04
978.001	779.25
978.172	365.56
978.344	80.89
978.515	144.38
978.686	293.88
978.857	746.48
979.028	269.31
979.2	-3.07
979.371	648.18
979.542	476.15
979.713	338.94
979.884	-285.69
980.055	171.01
980.226	310.27
980.397	119.81
980.568	76.8
980.739	637.94
980.91	343.03
981.081	291.84
981.252	132.09
981.423	537.59
981.594	631.8
981.765	33.79
981.936	345.08
982.106	328.7
982.277	601.08
982.448	142.33
982.619	343.03
982.79	218.11
982.96	613.37
983.131	226.3
983.302	-44.03
983.472	314.36
983.643	492.54
983.814	242.68
983.984	160.77
984.155	357.37
984.326	537.59
984.496	308.22
984.667	148.48
984.837	275.45
985.008	748.53
985.178	357.37
985.349	164.86
985.519	353.27
985.69	156.67
985.86	125.95
986.031	91.13
986.201	433.15
986.371	517.11
986.542	93.18
986.712	-19.46
986.882	490.49
987.053	443.39
987.223	11.26
987.393	300.03
987.563	195.58
987.734	455.67
987.904	402.43
988.074	175.1
988.244	414.71
988.414	203.77
988.585	56.32
988.755	285.69
988.925	310.27
989.095	756.72
989.265	91.13
989.435	179.2
989.605	642.04
989.775	420.86
989.945	418.81
990.115	-7.17
990.285	308.22
990.455	338.94
990.625	91.13
990.795	37.89
990.965	594.93
991.134	230.4
991.304	31.74
991.474	70.65
991.644	375.8
991.814	734.2
991.984	-58.37
992.153	48.13
992.323	316.41
992.493	310.27
992.662	-80.89
992.832	261.12
993.002	377.85
993.171	330.75
993.341	-128
993.511	177.15
993.68	234.49
993.85	564.22
994.019	-23.55
994.189	9.22
994.358	375.8
994.528	152.57
994.697	-207.87
994.867	-15.36
995.036	480.25
995.206	244.73
995.375	-3.07
995.544	148.48
995.714	488.44
995.883	312.32
996.052	156.67
996.222	-187.39
996.391	855.03
996.56	377.85
996.73	-66.56
996.899	-50.18
997.068	603.13
997.237	357.37
997.406	-5.12
997.576	-93.18
997.745	390.14
997.914	383.99
998.083	-66.56
998.252	-33.79
998.421	369.66
998.59	125.95
998.759	-101.37
998.928	-171.01
999.097	685.05
999.266	386.04
999.435	173.05
999.604	-140.29
999.773	791.54
999.942	257.02
1000.111	-121.85
1000.28	-76.8
1000.448	72.7
1000.617	37.89
1000.786	132.09
1000.955	-97.28
1001.124	361.47
1001.292	906.23
1001.461	-70.65
1001.63	-9.22
1001.798	596.98
1001.967	617.46
1002.136	-58.37
1002.304	-48.13
1002.473	386.04
1002.642	271.36
1002.81	119.81
1002.979	-134.14
1003.147	523.26
1003.316	809.97
1003.484	68.61
1003.653	-91.13
1003.821	601.08
1003.99	228.35
1004.158	240.64
1004.327	132.09
1004.495	351.23
1004.663	136.19
1004.832	33.79
1005	-175.1
1005.168	388.09
1005.337	359.42
1005.505	-179.2
1005.673	80.89
1005.842	494.58
1006.01	318.46
1006.178	-109.57
1006.346	-25.6
1006.514	396.28
1006.683	539.64
1006.851	-183.29
1007.019	-109.57
1007.187	35.84
1007.355	-121.85
1007.523	-347.13
1007.691	-60.42
1007.859	-68.61
1008.027	639.99
1008.195	-41.98
1008.363	-191.49
1008.531	357.37
1008.699	82.94
1008.867	-119.81
1009.035	1.02
1009.203	558.07
1009.37	279.55
1009.538	-103.42
1009.706	324.6
1009.874	312.32
1010.042	300.03
1010.209	-166.91
1010.377	-191.49
1010.545	447.48
1010.713	304.12
1010.88	-125.95
1011.048	-15.36
1011.216	234.49
1011.383	678.9
1011.551	-89.09
1011.718	-189.44
1011.886	531.45
1012.054	222.2
1012.221	-103.42
1012.389	-105.47
1012.556	250.88
1012.724	664.57
1012.891	-15.36
1013.058	-199.68
1013.226	429.05
1013.393	412.67
1013.561	-269.31
1013.728	-236.54
1013.895	467.96
1014.063	390.14
1014.23	-207.87
1014.397	-183.29
1014.565	529.4
1014.732	111.61
1014.899	-197.63
1015.066	-173.05
1015.233	177.15
1015.401	390.14
1015.568	-60.42
1015.735	35.84
1015.902	287.74
1016.069	388.09
1016.236	-97.28
1016.403	-146.43
1016.57	68.61
1016.737	408.57
1016.904	-60.42
1017.071	-216.06
1017.238	144.38
1017.405	478.2
1017.572	-117.76
1017.739	82.94
1017.906	365.56
1018.073	445.43
1018.24	-162.81
1018.407	-91.13
1018.573	504.82
1018.74	285.69
1018.907	-78.85
1019.074	-273.4
1019.241	482.3
1019.407	353.27
1019.574	-113.66
1019.741	-201.72
1019.907	304.12
1020.074	459.77
1020.241	-361.47
1020.407	-240.64
1020.574	332.79
1020.74	388.09
1020.907	-82.94
1021.073	-113.66
1021.24	719.86
1021.406	613.37
1021.573	-181.25
1021.739	-187.39
1021.906	398.33
1022.072	201.72
1022.239	-109.57
1022.405	-54.27
1022.571	244.73
1022.738	37.89
1022.904	-134.14
1023.07	-19.46
1023.237	201.72
1023.403	474.1
1023.569	-132.09
1023.735	-105.47
1023.902	310.27
1024.068	271.36
1024.234	-228.35
1024.4	-123.9
1024.566	306.17
1024.732	367.61
1024.898	-93.18
1025.065	-322.56
1025.231	465.91
1025.397	203.77
1025.563	-164.86
1025.729	-211.96
1025.895	-203.77
1026.061	62.46
1026.227	-267.26
1026.392	-109.57
1026.558	476.15
1026.724	310.27
1026.89	-171.01
1027.056	-80.89
1027.222	300.03
1027.388	209.92
1027.553	-199.68
1027.719	-166.91
1027.885	513.02
1028.051	343.03
1028.216	-277.5
1028.382	-142.33
1028.548	414.71
1028.713	130.05
1028.879	-271.36
1029.045	-11.26
1029.21	424.95
1029.376	533.5
1029.541	-162.81
1029.707	-140.29
1029.873	371.71
1030.038	470.01
1030.204	-113.66
1030.369	-7.17
1030.534	480.25
1030.7	136.19
1030.865	-121.85
1031.031	-199.68
1031.196	326.65
1031.361	328.7
1031.527	-72.7
1031.692	-197.63
1031.857	-166.91
1032.023	394.23
1032.188	-140.29
1032.353	-164.86
1032.518	670.71
1032.684	316.41
1032.849	-283.64
1033.014	-142.33
1033.179	453.63
1033.344	340.99
1033.509	-99.33
1033.674	-224.25
1033.839	357.37
1034.004	392.19
1034.17	-162.81
1034.335	-250.88
1034.5	183.29
1034.664	91.13
1034.829	-211.96
1034.994	-132.09
1035.159	281.6
1035.324	277.5
1035.489	-84.99
1035.654	-191.49
1035.819	619.51
1035.984	238.59
1036.148	-140.29
1036.313	-60.42
1036.478	447.48
1036.643	302.08
1036.807	-168.96
1036.972	-236.54
1037.137	457.72
1037.301	304.12
1037.466	-310.27
1037.631	-74.75
1037.795	506.87
1037.96	273.4
1038.124	1.02
1038.289	-238.59
1038.454	332.79
1038.618	377.85
1038.783	-134.14
1038.947	-31.74
1039.111	209.92
1039.276	93.18
1039.44	-238.59
1039.605	302.08
1039.769	162.81
1039.933	254.97
1040.098	-39.94
1040.262	82.94
1040.426	494.58
1040.591	386.04
1040.755	-224.25
1040.919	-119.81
1041.083	224.25
1041.248	181.25
1041.412	-297.98
1041.576	-185.34
1041.74	179.2
1041.904	361.47
1042.068	-138.24
1042.232	-109.57
1042.397	416.76
1042.561	334.84
1042.725	-359.42
1042.889	-48.13
1043.053	414.71
1043.217	367.61
1043.381	25.6
1043.544	-211.96
1043.708	502.78
1043.872	17.41
1044.036	-371.71
1044.2	-254.97
1044.364	480.25
1044.528	490.49
1044.691	4883.38
1044.855	-222.2
1045.019	478.2
1045.183	363.51
1045.346	-99.33
1045.51	-334.84
1045.674	330.75
1045.837	437.24
1046.001	-136.19
1046.165	-185.34
1046.328	775.16
1046.492	308.22
1046.655	25.6
1046.819	-95.23
1046.983	125.95
1047.146	375.8
1047.31	-15.36
1047.473	-349.18
1047.636	275.45
1047.8	-3.07
1047.963	-105.47
1048.127	-285.69
1048.29	44.03
