Data from Ink_Intensity_USB4F045381__11__00011.txt Node

Date: Mon Jul 17 09:33:09 EDT 2023
User: mmckonesweet
Spectrometer: USB4F04538
Trigger mode: 4
Integration Time (sec): 9.000000E-1
Scans to average: 1
Electric dark correction enabled: true
Nonlinearity correction enabled: false
Boxcar width: 0
XAxis mode: Wavelengths
Number of Pixels in Spectrum: 3648
>>>>>Begin Spectral Data<<<<<
345.52	-925
345.736	-925
345.952	-925
346.168	-838.98
346.384	-927.05
346.6	-109.91
346.816	-300.37
347.032	-214.35
347.248	201.38
347.464	-171.35
347.68	-105.81
347.896	98.99
348.112	426.66
348.328	62.12
348.544	-93.52
348.76	-27.99
348.975	234.15
349.191	-228.69
349.407	-122.2
349.623	-17.75
349.839	-81.24
350.055	4.78
350.27	139.94
350.486	182.95
350.702	383.65
350.918	307.88
351.133	-159.06
351.349	144.04
351.565	318.12
351.781	-173.39
351.996	-17.75
352.212	377.51
352.428	-193.87
352.644	-99.67
352.859	-185.68
353.075	340.65
353.291	-19.8
353.506	-99.67
353.722	-138.58
353.938	-50.52
354.153	490.15
354.369	117.42
354.584	-109.91
354.8	115.37
355.016	-316.75
355.231	-163.15
355.447	0.68
355.662	105.13
355.878	909.98
356.093	-247.12
356.309	-9.56
356.524	-226.64
356.74	148.14
356.955	-124.24
357.171	176.81
357.386	144.04
357.602	-208.21
357.817	51.88
358.033	-167.25
358.248	324.26
358.464	146.09
358.679	-50.52
358.895	-318.8
359.11	74.41
359.325	303.78
359.541	283.3
359.756	31.4
359.972	-302.42
360.187	185
360.402	-134.48
360.618	-93.52
360.833	807.58
361.048	238.25
361.264	-144.72
361.479	47.79
361.694	-9.56
361.909	203.43
362.125	-114
362.34	-44.37
362.555	232.1
362.77	12.97
362.986	-214.35
363.201	-103.76
363.416	207.53
363.631	47.79
363.847	-118.1
364.062	-128.34
364.277	213.67
364.492	164.52
364.707	-13.65
364.922	-253.27
365.138	283.3
365.353	389.8
365.568	-140.63
365.783	-93.52
365.998	21.16
366.213	600.74
366.428	-185.68
366.643	154.28
366.858	309.93
367.073	103.08
367.288	-101.72
367.503	-171.35
367.718	160.42
367.933	314.02
368.148	-210.26
368.363	-46.42
368.578	66.22
368.793	424.61
369.008	-109.91
369.223	-161.11
369.438	260.77
369.653	453.28
369.868	-157.01
370.083	-114
370.298	70.31
370.513	404.13
370.728	154.28
370.943	-73.04
371.157	-116.05
371.372	559.78
371.587	-243.03
371.802	-126.29
372.017	103.08
372.232	477.86
372.446	72.36
372.661	-249.17
372.876	330.41
373.091	219.82
373.306	10.92
373.52	-173.39
373.735	-83.28
373.95	479.91
374.165	15.02
374.379	2.73
374.594	-103.76
374.809	103.08
375.023	127.66
375.238	-130.39
375.453	299.69
375.667	-232.79
375.882	58.03
376.097	-109.91
376.311	152.23
376.526	45.74
376.741	-124.24
376.955	156.33
377.17	592.55
377.384	604.83
377.599	-44.37
377.813	-101.72
378.028	602.79
378.242	297.64
378.457	-42.32
378.672	-286.03
378.886	43.69
379.101	-21.85
379.315	-181.59
379.53	-75.09
379.744	156.33
379.958	178.86
380.173	55.98
380.387	-62.8
380.602	242.34
380.816	-1.37
381.031	-13.65
381.245	-9.56
381.459	332.45
381.674	914.08
381.888	-75.09
382.103	311.97
382.317	-91.48
382.531	572.07
382.746	43.69
382.96	29.35
383.174	-27.99
383.388	545.44
383.603	201.38
383.817	-107.86
384.031	213.67
384.246	572.07
384.46	168.62
384.674	441
384.888	160.42
385.103	201.38
385.317	-107.86
385.531	64.17
385.745	420.52
385.959	430.76
386.174	-107.86
386.388	-181.59
386.602	176.81
386.816	12.97
387.03	29.35
387.244	80.55
387.458	111.27
387.672	465.57
387.887	-159.06
388.101	-114
388.315	406.18
388.529	277.16
388.743	113.32
388.957	-17.75
389.171	420.52
389.385	-19.8
389.599	72.36
389.813	260.77
390.027	373.41
390.241	674.46
390.455	70.31
390.669	2.73
390.883	21.16
391.097	582.31
391.311	207.53
391.525	78.51
391.738	287.4
391.952	295.59
392.166	137.9
392.38	-21.85
392.594	373.41
392.808	449.19
393.022	195.24
393.236	133.8
393.449	281.25
393.663	324.26
393.877	-64.85
394.091	101.03
394.305	2.73
394.518	101.03
394.732	-15.7
394.946	168.62
395.16	561.83
395.373	305.83
395.587	2.73
395.801	-15.7
396.015	416.42
396.228	336.55
396.442	-5.46
396.656	-34.13
396.869	481.96
397.083	637.6
397.297	252.58
397.51	64.17
397.724	522.91
397.938	332.45
398.151	-32.08
398.365	-46.42
398.578	375.46
398.792	590.5
399.005	191.14
399.219	113.32
399.433	287.4
399.646	346.79
399.86	256.68
400.073	279.21
400.287	500.39
400.5	152.23
400.714	219.82
400.927	176.81
401.141	477.86
401.354	1256.09
401.567	408.23
401.781	-64.85
401.994	586.4
402.208	803.49
402.421	185
402.635	223.91
402.848	316.07
403.061	522.91
403.275	285.35
403.488	154.28
403.701	823.97
403.915	510.63
404.128	320.17
404.341	207.53
404.555	455.33
404.768	260.77
404.981	371.36
405.195	225.96
405.408	785.05
405.621	484
405.834	348.84
406.048	96.94
406.261	729.76
406.474	823.97
406.687	154.28
406.9	389.8
407.114	258.73
407.327	377.51
407.54	68.27
407.753	70.31
407.966	129.7
408.179	613.03
408.392	250.53
408.605	137.9
408.819	496.29
409.032	473.76
409.245	154.28
409.458	432.8
409.671	498.34
409.884	543.39
410.097	86.7
410.31	416.42
410.523	527.01
410.736	291.49
410.949	367.27
411.162	283.3
411.375	862.88
411.588	619.17
411.801	416.42
412.014	336.55
412.227	400.04
412.44	494.24
412.653	307.88
412.865	336.55
413.078	711.33
413.291	520.87
413.504	326.31
413.717	291.49
413.93	645.79
414.143	326.31
414.356	316.07
414.568	113.32
414.781	674.46
414.994	551.59
415.207	455.33
415.42	307.88
415.632	647.84
415.845	934.56
416.058	180.9
416.271	254.63
416.483	467.62
416.696	926.36
416.909	289.45
417.121	287.4
417.334	651.94
417.547	1047.19
417.759	336.55
417.972	332.45
418.185	410.28
418.397	803.49
418.61	338.6
418.823	377.51
419.035	881.31
419.248	584.35
419.46	522.91
419.673	545.44
419.885	754.34
420.098	484
420.311	404.13
420.523	287.4
420.736	694.94
420.948	565.92
421.161	484
421.373	168.62
421.586	711.33
421.798	365.22
422.01	279.21
422.223	506.53
422.435	477.86
422.648	623.27
422.86	418.47
423.073	443.04
423.285	856.73
423.497	309.93
423.71	410.28
423.922	387.75
424.134	848.54
424.347	979.61
424.559	651.94
424.771	735.9
424.984	510.63
425.196	735.9
425.408	328.36
425.621	402.08
425.833	897.69
426.045	967.32
426.257	408.23
426.47	488.1
426.682	813.73
426.894	789.15
427.106	563.87
427.318	547.49
427.531	563.87
427.743	942.75
427.955	588.45
428.167	1014.43
428.379	955.04
428.591	725.66
428.804	660.13
429.016	522.91
429.228	639.65
429.44	895.64
429.652	789.15
429.864	428.71
430.076	703.14
430.288	762.53
430.5	725.66
430.712	686.75
430.924	1047.19
431.136	793.25
431.348	498.34
431.56	547.49
431.772	834.21
431.984	795.29
432.196	561.83
432.408	639.65
432.62	686.75
432.832	936.6
433.044	996
433.256	848.54
433.468	1094.3
433.679	586.4
433.891	600.74
434.103	940.7
434.315	1272.47
434.527	1147.55
434.739	873.12
434.95	875.17
435.162	1170.07
435.374	887.45
435.586	862.88
435.798	719.52
436.009	666.27
436.221	948.89
436.433	758.43
436.645	858.78
436.856	836.25
437.068	1233.56
437.28	795.29
437.491	1151.64
437.703	1055.39
437.915	1102.49
438.126	916.12
438.338	1065.63
438.55	1049.24
438.761	1153.69
438.973	920.22
439.184	912.03
439.396	1075.87
439.608	1280.66
439.819	774.81
440.031	1092.25
440.242	1215.13
440.454	1317.53
440.665	1039
440.877	1086.11
441.088	1147.55
441.3	1110.68
441.511	752.29
441.723	899.74
441.934	1221.27
442.146	1141.4
442.357	1182.36
442.569	1280.66
442.78	1075.87
442.991	1510.04
443.203	1393.3
443.414	907.93
443.626	1522.32
443.837	1127.07
444.048	862.88
444.26	944.8
444.471	1170.07
444.682	1374.87
444.894	895.64
445.105	748.19
445.316	1452.69
445.528	1350.29
445.739	1329.81
445.95	1186.46
446.161	1251.99
446.373	1464.98
446.584	1239.7
446.795	1208.98
447.006	1407.64
447.217	1819.28
447.429	955.04
447.64	971.42
447.851	1618.58
448.062	1340.05
448.273	1020.57
448.484	1159.83
448.695	1495.7
448.907	1221.27
449.118	1274.52
449.329	1497.75
449.54	1282.71
449.751	1161.88
449.962	1155.74
450.173	1258.14
450.384	1667.73
450.595	1755.79
450.806	1243.8
451.017	1174.17
451.228	1735.31
451.439	1735.31
451.65	1272.47
451.861	1032.86
452.072	1303.19
452.283	1399.45
452.494	1446.55
452.705	1176.22
452.915	1899.15
453.126	1649.3
453.337	1381.01
453.548	1286.81
453.759	1837.71
453.97	2054.8
454.181	1653.39
454.391	1297.05
454.602	1669.78
454.813	1718.93
455.024	1530.52
455.235	1401.49
455.445	1720.98
455.656	1723.02
455.867	1659.54
456.078	1479.32
456.288	1536.66
456.499	1731.22
456.71	1452.69
456.921	1708.69
457.131	1780.37
457.342	1854.09
457.553	1794.7
457.763	1626.77
457.974	1976.97
458.184	2013.84
458.395	1520.28
458.606	1499.8
458.816	1991.31
459.027	2331.27
459.237	1831.57
459.448	1581.71
459.659	2062.99
459.869	2542.21
460.08	1700.5
460.29	1942.16
460.501	2417.29
460.711	1835.66
460.922	1716.88
461.132	1866.38
461.343	2634.37
461.553	1759.89
461.764	1839.76
461.974	1864.33
462.184	2204.3
462.395	2122.38
462.605	2087.56
462.816	1905.29
463.026	2171.53
463.236	2392.71
463.447	2099.85
463.657	2114.19
463.867	2491.01
464.078	2185.87
464.288	2062.99
464.498	2126.47
464.709	2321.03
464.919	2206.35
465.129	2210.44
465.339	2280.07
465.55	2486.92
465.76	2640.51
465.97	2304.65
466.18	2235.02
466.391	2542.21
466.601	2599.55
466.811	2419.33
467.021	2292.36
467.231	2706.05
467.441	2708.1
467.651	2495.11
467.862	2194.06
468.072	2617.99
468.282	3009.15
468.492	2509.44
468.702	2587.27
468.912	2808.45
469.122	3363.45
469.332	3035.77
469.542	2521.73
469.752	3103.36
469.962	2923.13
470.172	2691.71
470.382	2792.06
470.592	3160.7
470.802	3375.74
471.012	3054.2
471.222	2878.08
471.432	3359.35
471.642	3291.77
471.852	3170.94
472.062	3064.44
472.272	3265.14
472.482	3261.05
472.691	3158.65
472.901	3168.89
473.111	3490.42
473.321	3873.39
473.531	3283.58
473.741	3447.41
473.95	3596.92
474.16	3764.85
474.37	3525.24
474.58	3287.67
474.79	4164.2
474.999	3809.9
475.209	3371.64
475.419	3775.09
475.628	3981.93
475.838	4209.26
476.048	3719.79
476.258	3807.86
476.467	4301.42
476.677	4043.37
476.886	4225.64
477.096	4170.35
477.306	4078.19
477.515	4551.27
477.725	4137.58
477.935	4184.68
478.144	4625
478.354	4354.66
478.563	4350.57
478.773	4426.34
478.982	4717.15
479.192	4960.86
479.401	4573.8
479.611	4442.73
479.82	4610.66
480.03	4854.37
480.239	4647.52
480.449	4637.28
480.658	5370.46
480.868	5061.21
481.077	4909.66
481.287	4889.18
481.496	5466.71
481.705	5710.42
481.915	5280.35
482.124	5403.22
482.333	5462.62
482.543	5663.32
482.752	5319.26
482.961	5325.4
483.171	5735
483.38	5603.93
483.589	5368.41
483.799	5388.89
484.008	5724.76
484.217	6048.33
484.426	5780.05
484.636	5501.53
484.845	6023.76
485.054	5624.4
485.263	6056.53
485.472	5878.35
485.682	6552.13
485.891	6034
486.1	5769.81
486.309	5933.65
486.518	6498.89
486.727	6812.23
486.936	6070.86
487.146	6310.47
487.355	6767.17
487.564	6300.23
487.773	6330.95
487.982	6390.35
488.191	6449.74
488.4	6611.53
488.609	6380.11
488.818	6713.92
489.027	7453.24
489.236	7184.96
489.445	6939.2
489.654	6842.95
489.863	7270.97
490.072	7135.81
490.281	7193.15
490.49	6896.19
490.698	7524.92
490.907	7395.9
491.116	7133.76
491.325	6916.67
491.534	7533.11
491.743	7389.75
491.952	7238.2
492.16	7412.28
492.369	7615.03
492.578	7684.66
492.787	7524.92
492.996	7526.97
493.204	7365.18
493.413	8229.42
493.622	7287.36
493.831	7369.27
494.039	8276.52
494.248	7670.33
494.457	7768.63
494.665	7750.2
494.874	8106.54
495.083	8495.66
495.291	7961.14
495.5	8006.19
495.709	8219.18
495.917	8290.86
496.126	8245.8
496.335	8313.39
496.543	8223.28
496.752	8403.5
496.96	8366.63
497.169	8194.61
497.377	8526.38
497.586	8829.48
497.794	8542.76
498.003	8288.81
498.211	8645.16
498.42	8925.73
498.628	8747.56
498.837	8563.24
499.045	8673.83
499.254	8708.65
499.462	8741.41
499.671	8735.27
499.879	9210.4
500.087	9269.79
500.296	8704.55
500.504	8872.48
500.713	9155.1
500.921	9804.31
501.129	8780.32
501.338	8862.24
501.546	9296.41
501.754	9015.84
501.962	8944.16
502.171	9034.27
502.379	9603.61
502.587	9810.45
502.795	9255.45
503.004	9165.34
503.212	9382.43
503.42	9798.17
503.628	9345.56
503.837	9630.23
504.045	9835.03
504.253	10181.14
504.461	9527.83
504.669	9450.01
504.877	10179.09
505.085	10168.85
505.294	9470.49
505.502	9734.68
505.71	10002.96
505.918	10205.71
506.126	9755.16
506.334	9640.47
506.542	9951.76
506.75	10045.97
506.958	10172.94
507.166	9818.64
507.374	9992.72
507.582	10539.53
507.79	10254.86
507.998	10048.02
508.206	10369.55
508.414	10404.36
508.622	9857.56
508.83	10199.57
509.037	10584.59
509.245	10416.65
509.453	10050.07
509.661	10304.01
509.869	10777.09
510.077	10504.71
510.285	10428.94
510.492	10232.33
510.7	11299.33
510.908	10549.77
511.116	10557.96
511.324	10697.22
511.531	10846.73
511.739	10824.2
511.947	10963.46
512.155	10934.79
512.362	10908.16
512.57	10664.46
512.778	10789.38
512.985	10582.54
513.193	11106.82
513.401	11371.01
513.608	10785.29
513.816	11016.71
514.024	11346.43
514.231	11248.13
514.439	11168.26
514.646	11194.88
514.854	11502.08
515.061	11342.33
515.269	11022.85
515.477	10908.16
515.684	11264.51
515.892	11694.58
516.099	11102.72
516.307	11248.13
516.514	11776.5
516.722	11835.89
516.929	11497.98
517.136	11301.37
517.344	11790.84
517.551	11813.37
517.759	11373.05
517.966	11633.15
518.173	11780.6
518.381	11782.65
518.588	11878.9
518.796	11391.48
519.003	12202.48
519.21	11901.43
519.418	11629.05
519.625	12014.07
519.832	11915.76
520.039	12102.13
520.247	11780.6
520.454	11866.61
520.661	12515.82
520.868	12186.1
521.076	12227.06
521.283	12118.51
521.49	12880.36
521.697	12462.57
521.904	12204.53
522.112	12048.88
522.319	12634.6
522.526	12419.57
522.733	12442.09
522.94	12218.86
523.147	12440.04
523.354	12831.21
523.561	12546.54
523.768	12540.4
523.975	13142.5
524.183	12958.18
524.39	12669.42
524.597	12466.67
524.804	12923.37
525.011	12839.4
525.218	12634.6
525.425	12825.06
525.632	13488.6
525.838	12726.76
526.045	12734.95
526.252	13093.35
526.459	13978.07
526.666	13707.74
526.873	13216.22
527.08	13089.25
527.287	13451.74
527.494	13396.45
527.701	13292
527.907	12755.43
528.114	13486.56
528.321	13382.11
528.528	13390.3
528.735	13335.01
528.941	13398.49
529.148	13181.41
529.355	13550.04
529.562	13205.99
529.768	14033.36
529.975	13429.21
530.182	13666.78
530.388	13574.62
530.595	14092.76
530.802	13392.35
531.008	13791.7
531.215	13890.01
531.422	14621.13
531.628	14776.78
531.835	13937.11
532.042	14008.79
532.248	13875.67
532.455	14100.95
532.661	13988.31
532.868	13930.97
533.074	14287.31
533.281	14539.21
533.487	14197.2
533.694	13949.4
533.9	14215.63
534.107	14625.23
534.313	14158.29
534.52	14246.35
534.726	14678.47
534.933	14989.77
535.139	14340.56
535.345	14418.38
535.552	14674.38
535.758	14809.54
535.965	14604.75
536.171	14637.52
536.377	14954.95
536.584	15202.75
536.79	14379.47
536.996	14911.94
537.203	15092.16
537.409	15047.11
537.615	14733.77
537.821	15057.35
538.028	15409.6
538.234	15299.01
538.44	15096.26
538.646	14776.78
538.853	15299.01
539.059	14997.96
539.265	15253.95
539.471	14776.78
539.677	15516.09
539.883	15464.89
540.09	15030.73
540.296	15665.6
540.502	15641.02
540.708	15163.84
540.914	15688.12
541.12	15061.44
541.326	15821.24
541.532	15765.95
541.738	15661.5
541.944	15395.26
542.15	16064.95
542.356	15692.22
542.562	15524.29
542.768	15641.02
542.974	16548.27
543.18	16351.67
543.386	15843.77
543.592	15518.14
543.798	16279.99
544.004	16730.54
544.21	16001.46
544.415	16116.15
544.621	16505.26
544.827	16695.72
545.033	16378.29
545.239	16382.38
545.445	16429.49
545.651	16638.38
545.856	16406.96
546.062	16388.53
546.268	16429.49
546.474	16718.25
546.679	16497.07
546.885	16398.77
547.091	16347.57
547.297	17058.21
547.502	16531.89
547.708	16519.6
547.914	16472.5
548.119	17047.97
548.325	16302.51
548.531	16153.01
548.736	17191.33
548.942	16578.99
549.147	16644.52
549.353	16943.53
549.559	17328.55
549.764	17064.36
549.97	16742.83
550.175	16933.29
550.381	17443.23
550.586	16918.95
550.792	16732.59
550.997	17025.45
551.203	17340.83
551.408	17412.51
551.614	16984.49
551.819	17074.6
552.025	17754.52
552.23	18039.19
552.435	17437.09
552.641	17936.79
552.846	17389.99
553.052	18119.06
553.257	17412.51
553.462	17822.11
553.668	17789.34
553.873	18121.11
554.078	17682.84
554.283	17863.07
554.489	17858.97
554.694	18082.2
554.899	17725.85
555.105	18022.81
555.31	18450.83
555.515	18211.22
555.72	18043.29
555.925	17887.64
556.131	18540.94
556.336	18200.98
556.541	18119.06
556.746	17820.06
556.951	18426.26
557.156	18274.71
557.361	18397.59
557.567	18354.58
557.772	19014.02
557.977	18461.07
558.182	18280.85
558.387	18268.56
558.592	18436.5
558.797	18571.66
559.002	18268.56
559.207	18446.74
559.412	18305.43
559.617	19083.66
559.822	18383.25
560.027	18256.28
560.232	18766.22
560.437	18954.63
560.642	18358.67
560.847	18590.09
561.051	18692.49
561.256	18680.21
561.461	18473.36
561.666	18551.18
561.871	18991.5
562.076	18807.18
562.281	19011.98
562.485	18604.43
562.69	19040.65
562.895	19200.39
563.1	18975.11
563.305	18846.09
563.509	19401.09
563.714	19767.68
563.919	18842
564.123	18598.29
564.328	19237.25
564.533	19644.8
564.737	18923.91
564.942	19038.6
565.147	19798.4
565.351	19745.15
565.556	19247.49
565.761	19349.89
565.965	19493.25
566.17	19177.86
566.374	18919.82
566.579	19194.25
566.784	19419.52
566.988	19440
567.193	19298.69
567.397	19272.07
567.602	19403.14
567.806	19257.73
568.011	19620.22
568.215	19749.25
568.42	19677.57
568.624	19798.4
568.828	19476.87
569.033	19962.23
569.237	20042.1
569.442	20203.89
569.646	19321.22
569.85	20031.86
570.055	20138.36
570.259	20142.46
570.463	20121.98
570.668	19829.12
570.872	19784.06
571.076	19976.57
571.281	19827.07
571.485	20001.15
571.689	20119.93
571.893	20021.63
572.098	20033.91
572.302	20259.19
572.506	20349.3
572.71	20126.07
572.914	20349.3
573.119	20572.53
573.323	20775.28
573.527	20849
573.731	20382.07
573.935	20228.47
574.139	20648.3
574.343	19990.91
574.547	20400.5
574.751	20302.2
574.955	20877.68
575.159	20785.52
575.364	20787.57
575.568	20382.07
575.772	20574.58
575.976	21059.95
576.18	20488.56
576.383	20533.62
576.587	21223.78
576.791	21219.69
576.995	20560.24
577.199	20636.02
577.403	21264.74
577.607	21567.84
577.811	20902.25
578.015	21074.28
578.219	21111.14
578.422	21211.49
578.626	21135.72
578.83	21211.49
579.034	21655.9
579.238	21408.1
579.442	21221.73
579.645	21537.12
579.849	21156.2
580.053	21623.14
580.257	21090.66
580.46	21123.43
580.664	21735.77
580.868	21553.51
581.071	21248.36
581.275	21338.47
581.479	21350.76
581.682	21748.06
581.886	21373.28
582.09	21686.62
582.293	21639.52
582.497	21987.68
582.7	21705.06
582.904	21729.63
583.107	21743.97
583.311	21758.3
583.515	21936.48
583.718	21680.48
583.922	22022.49
584.125	22403.41
584.329	21752.16
584.532	21952.86
584.735	22350.17
584.939	22053.21
585.142	21573.99
585.346	21856.61
585.549	22182.23
585.753	22282.58
585.956	22010.2
586.159	22376.79
586.363	22937.93
586.566	22759.76
586.769	22063.45
586.973	21987.68
587.176	22819.15
587.379	22757.71
587.582	22944.08
587.786	22233.43
587.989	22714.7
588.192	22876.49
588.395	22421.84
588.599	22796.62
588.802	22954.32
589.005	22796.62
589.208	22788.43
589.411	22995.28
589.615	23200.07
589.818	23451.97
590.021	22991.18
590.224	22870.35
590.427	23228.74
590.63	23238.98
590.833	22602.07
591.036	23095.63
591.239	22935.88
591.442	22925.64
591.645	23431.49
591.848	23224.65
592.051	23378.25
592.254	23685.44
592.457	23009.61
592.66	23075.15
592.863	23785.79
593.066	23726.4
593.269	23390.53
593.472	23497.03
593.675	23435.59
593.878	23712.06
594.081	23542.08
594.284	23431.49
594.486	23783.74
594.689	23626.05
594.892	22991.18
595.095	23294.28
595.298	23929.15
595.5	23556.42
595.703	24043.84
595.906	23601.47
596.109	24303.93
596.311	24113.47
596.514	23654.72
596.717	24160.57
596.92	24758.58
597.122	24330.55
597.325	23929.15
597.528	23808.32
597.73	24922.41
597.933	23904.57
598.136	24047.93
598.338	23679.3
598.541	24156.47
598.743	24977.71
598.946	24082.75
599.148	24383.8
599.351	24314.17
599.554	24604.98
599.756	24459.57
599.959	24766.77
600.161	24830.26
600.363	25313.58
600.566	24586.55
600.768	24123.71
600.971	24897.84
601.173	24828.21
601.376	24598.84
601.578	24375.61
601.78	25227.56
601.983	25391.4
602.185	24361.27
602.388	24918.32
602.59	24717.62
602.792	24557.88
602.995	24561.97
603.197	24047.93
603.399	25041.2
603.601	25016.62
603.804	24385.85
604.006	24641.84
604.208	24783.15
604.41	24721.71
604.613	25078.06
604.815	24944.94
605.017	25868.58
605.219	24797.49
605.421	24889.65
605.623	25112.88
605.826	25461.03
606.028	25807.14
606.23	25078.06
606.432	25112.88
606.634	25973.02
606.836	25569.57
607.038	24697.14
607.24	25102.64
607.442	25506.09
607.644	25221.42
607.846	25385.26
608.048	24887.6
608.25	25383.21
608.452	25458.98
608.654	25317.67
608.856	25018.67
609.058	25674.02
609.26	25592.1
609.462	25289
609.664	25461.03
609.866	25442.6
610.067	25604.39
610.269	25346.34
610.471	25121.07
610.673	25467.17
610.875	25569.57
611.077	25317.67
611.278	25309.48
611.48	25577.76
611.682	25950.49
611.884	25479.46
612.085	25432.36
612.287	25518.37
612.489	25712.93
612.69	25229.61
612.892	25528.61
613.094	25870.62
613.295	25626.92
613.497	25381.16
613.699	25293.1
613.9	26108.19
614.102	26112.28
614.304	25385.26
614.505	25499.94
614.707	25747.75
614.908	25723.17
615.11	25604.39
615.311	25811.23
615.513	25858.34
615.714	25970.97
615.916	25665.83
616.117	25790.75
616.319	25690.4
616.52	26380.57
616.722	25665.83
616.923	25620.77
617.124	26323.22
617.326	25946.4
617.527	25944.35
617.729	25979.17
617.93	25964.83
618.131	26278.17
618.333	26065.18
618.534	26165.53
618.735	25977.12
618.937	26401.05
619.138	26044.7
619.339	25919.78
619.54	26013.98
619.742	26024.22
619.943	26284.31
620.144	25846.05
620.345	26085.66
620.546	26523.93
620.748	26081.56
620.949	26321.18
621.15	26157.34
621.351	26370.33
621.552	25938.21
621.753	25790.75
621.954	26382.62
622.155	26237.21
622.356	26423.58
622.558	26126.62
622.759	26448.15
622.96	26290.46
623.161	26013.98
623.362	26061.08
623.563	26747.15
623.764	26341.66
623.965	26374.42
624.166	26704.15
624.366	26501.4
624.567	26290.46
624.768	25897.25
624.969	25874.72
625.17	26804.5
625.371	26829.07
625.572	26487.06
625.773	26118.43
625.973	26853.65
626.174	26652.95
626.375	26726.67
626.576	26954
626.777	26669.33
626.977	26900.75
627.178	26360.09
627.379	26786.07
627.58	26485.01
627.78	26652.95
627.981	26442.01
628.182	26530.07
628.382	27173.13
628.583	26575.13
628.784	26532.12
628.984	26726.67
629.185	27207.95
629.386	26587.41
629.586	26616.08
629.787	26634.52
629.987	26843.41
630.188	26618.13
630.388	26460.44
630.589	26460.44
630.79	27595.01
630.99	27228.43
631.191	27187.47
631.391	27089.17
631.591	27130.12
631.792	27275.53
631.992	26908.94
632.193	27048.21
632.393	27210
632.594	26749.2
632.794	26652.95
632.994	27021.58
633.195	26874.13
633.395	26810.64
633.595	27072.78
633.796	27095.31
633.996	26962.19
634.196	27515.14
634.397	27107.6
634.597	27371.78
634.797	26964.24
634.997	27623.69
635.198	27287.82
635.398	27136.27
635.598	27320.59
635.798	27457.8
635.998	27123.98
636.199	26892.56
636.399	27724.04
636.599	27164.94
636.799	27236.62
636.999	27506.95
637.199	27685.12
637.399	27564.29
637.599	27267.34
637.799	27263.24
637.999	27328.78
638.199	27871.49
638.399	27355.4
638.599	27314.44
638.799	27844.87
638.999	28252.41
639.199	27654.4
639.399	27328.78
639.599	27971.84
639.799	26919.18
639.999	27328.78
640.199	27123.98
640.399	27904.26
640.599	27351.31
640.799	27828.48
640.998	28055.81
641.198	27697.41
641.398	27873.54
641.598	27336.97
641.798	27627.78
641.997	28643.57
642.197	27783.43
642.397	27617.54
642.597	27732.23
642.796	28064
642.996	28317.95
643.196	27810.05
643.395	27545.86
643.595	28010.75
643.795	27089.17
643.994	27590.92
644.194	27779.33
644.394	28080.38
644.593	28102.91
644.793	27750.66
644.992	28229.88
645.192	28037.37
645.392	27625.73
645.591	27670.79
645.791	28229.88
645.99	28606.71
646.19	28375.29
646.389	28602.61
646.589	28352.76
646.788	28594.42
646.987	28139.77
647.187	28199.16
647.386	28129.53
647.586	28328.19
647.785	28311.8
647.984	28072.19
648.184	28391.67
648.383	28190.97
648.582	28582.13
648.782	28182.78
648.981	28492.02
649.18	27941.12
649.38	28647.67
649.579	28379.39
649.778	28051.71
649.977	28774.64
650.177	28532.98
650.376	28391.67
650.575	28365.05
650.774	28815.6
650.973	28453.11
651.173	28152.06
651.372	27990.27
651.571	28696.82
651.77	28827.89
651.969	28451.06
652.168	28956.91
652.367	28381.43
652.566	28772.6
652.765	28498.17
652.964	28846.32
653.163	29202.67
653.362	28553.46
653.561	28698.87
653.76	28582.13
653.959	28723.44
654.158	29141.23
654.357	28715.25
654.556	28594.42
654.755	28993.78
654.954	29026.54
655.153	28473.59
655.352	29008.11
655.551	29255.92
655.749	28999.92
655.948	28748.02
656.147	29106.41
656.346	28936.43
656.545	28729.59
656.743	28774.64
656.942	28457.21
657.141	28754.16
657.34	28825.84
657.538	28821.75
657.737	28797.17
657.936	28963.06
658.135	29001.97
658.333	29012.21
658.532	28858.61
658.731	29395.18
658.929	29239.53
659.128	28983.54
659.326	28512.5
659.525	29497.58
659.724	28977.39
659.922	28860.66
660.121	28913.91
660.319	28872.95
660.518	29180.14
660.716	28750.07
660.915	28700.92
661.113	29571.3
661.312	28961.01
661.51	29503.72
661.709	29171.95
661.907	29366.51
662.105	29663.46
662.304	29114.61
662.502	29190.38
662.701	29712.61
662.899	29436.14
663.097	29647.08
663.296	29276.4
663.494	29419.75
663.692	29522.15
663.891	29104.37
664.089	28567.8
664.287	29397.23
664.485	29724.9
664.684	29364.46
664.882	29200.62
665.08	29350.12
665.278	29712.61
665.476	29100.27
665.675	29470.95
665.873	29886.69
666.071	29542.63
666.269	29221.1
666.467	29352.17
666.665	29407.47
666.863	29112.56
667.061	29688.04
667.259	29233.39
667.457	29579.5
667.655	29288.68
667.853	29495.53
668.051	29366.51
668.249	29212.91
668.447	29403.37
668.645	28707.06
668.843	29602.02
669.041	29712.61
669.239	29444.33
669.437	29327.6
669.635	29278.44
669.833	29333.74
670.031	29675.75
670.229	29012.21
670.426	29348.07
670.624	29356.27
670.822	29411.56
671.02	29233.39
671.218	29094.13
671.415	29161.71
671.613	29303.02
671.811	29079.79
672.009	29399.27
672.206	29587.69
672.404	29188.33
672.602	29456.62
672.799	29634.79
672.997	29575.4
673.195	29753.57
673.392	29450.47
673.59	28997.87
673.788	29374.7
673.985	28905.71
674.183	29026.54
674.38	29296.88
674.578	29509.86
674.775	29231.34
674.973	28449.02
675.17	29034.74
675.368	29589.74
675.565	29503.72
675.763	29331.69
675.96	28719.35
676.158	29296.88
676.355	28778.74
676.553	29155.57
676.75	28788.98
676.947	29520.1
677.145	29110.51
677.342	29118.7
677.539	29294.83
677.737	29065.46
677.934	29485.29
678.131	29331.69
678.329	29106.41
678.526	29444.33
678.723	29563.11
678.92	28975.34
679.118	29036.78
679.315	28483.83
679.512	29167.85
679.709	28727.54
679.906	28821.75
680.104	29352.17
680.301	29464.81
680.498	28739.83
680.695	28854.51
680.892	28854.51
681.089	28698.87
681.286	28686.58
681.483	28426.49
681.68	28666.1
681.877	28907.76
682.075	28555.51
682.272	28967.15
682.469	29143.28
682.665	28834.03
682.862	28590.33
683.059	28711.16
683.256	28961.01
683.453	29008.11
683.65	29268.2
683.847	28733.68
684.044	28864.75
684.241	28424.44
684.438	29352.17
684.635	28494.07
684.831	29602.02
685.028	29331.69
685.225	28788.98
685.422	28954.86
685.619	28819.7
685.815	28616.95
686.012	28477.69
686.209	28182.78
686.405	28467.45
686.602	28418.3
686.799	28248.32
686.996	28254.46
687.192	28297.47
687.389	29012.21
687.586	27996.42
687.782	28324.09
687.979	28741.88
688.175	28635.38
688.372	28455.16
688.568	28356.86
688.765	28467.45
688.962	28838.13
689.158	28264.7
689.355	27885.83
689.551	28686.58
689.748	28367.1
689.944	28461.3
690.14	28176.64
690.337	28897.52
690.533	28508.41
690.73	28430.58
690.926	28541.18
691.123	28453.11
691.319	28229.88
691.515	28266.75
691.712	28535.03
691.908	28313.85
692.104	28559.61
692.301	28086.53
692.497	28141.82
692.693	28545.27
692.889	28956.91
693.086	28281.08
693.282	27982.08
693.478	28291.32
693.674	28780.79
693.87	27764.99
694.067	27853.06
694.263	27877.63
694.459	28276.99
694.655	28023.04
694.851	28260.6
695.047	28236.03
695.243	28139.77
695.439	28358.91
695.635	27691.27
695.831	28125.44
696.027	27902.21
696.224	27842.82
696.42	27961.6
696.615	28547.32
696.811	28401.91
697.007	27959.55
697.203	27971.84
697.399	28207.36
697.595	28365.05
697.791	27971.84
697.987	28066.05
698.183	28129.53
698.379	27910.4
698.575	27988.22
698.77	27896.06
698.966	27957.5
699.162	28295.42
699.358	27846.91
699.554	27631.88
699.749	28248.32
699.945	28193.02
700.141	27644.16
700.337	28098.81
700.532	27683.08
700.728	28010.75
700.924	27709.7
701.119	27500.81
701.315	27857.15
701.511	27531.53
701.706	27685.12
701.902	27248.91
702.097	27283.72
702.293	27648.26
702.489	27480.33
702.684	27461.9
702.88	27736.32
703.075	27713.8
703.271	27388.17
703.466	27447.56
703.662	27961.6
703.857	28080.38
704.053	27578.63
704.248	27506.95
704.443	28010.75
704.639	27742.47
704.834	27359.5
705.03	27074.83
705.225	27668.74
705.42	27894.02
705.616	27441.42
705.811	27085.07
706.006	27494.66
706.202	27879.68
706.397	27506.95
706.592	27205.9
706.787	27791.62
706.983	27345.16
707.178	28047.61
707.373	27562.25
707.568	27564.29
707.763	27947.26
707.959	27552.01
708.154	27250.95
708.349	27531.53
708.544	27470.09
708.739	27078.93
708.934	27205.9
709.129	27662.6
709.324	27906.3
709.519	27232.52
709.714	27283.72
709.909	27787.52
710.104	27089.17
710.299	27064.59
710.494	27435.27
710.689	27193.61
710.884	27054.35
711.079	27523.33
711.274	27181.32
711.469	27537.67
711.664	27492.62
711.859	27171.08
712.054	27554.05
712.249	27173.13
712.443	26976.53
712.638	26593.56
712.833	26706.2
713.028	26691.86
713.223	26638.61
713.417	27207.95
713.612	27189.52
713.807	27398.41
714.002	27748.61
714.196	27035.92
714.391	27242.76
714.586	27263.24
714.78	27210
714.975	27017.49
715.17	26835.22
715.364	27140.36
715.559	27244.81
715.754	26333.46
715.948	26620.18
716.143	27253
716.337	27076.88
716.532	27171.08
716.726	26734.87
716.921	27359.5
717.115	27422.98
717.31	26542.36
717.504	26904.85
717.699	26943.76
717.893	26966.29
718.088	26532.12
718.282	26878.22
718.476	26992.91
718.671	26476.82
718.865	26777.87
719.059	26282.27
719.254	26478.87
719.448	26896.66
719.642	27533.57
719.837	25880.86
720.031	26640.66
720.225	26577.17
720.419	26378.52
720.614	25878.82
720.808	26591.51
721.002	26247.45
721.196	26143
721.39	26284.31
721.585	26781.97
721.779	26243.35
721.973	26130.72
722.167	25637.16
722.361	26374.42
722.555	26638.61
722.749	25790.75
722.943	26218.78
723.137	26136.86
723.331	26542.36
723.525	25983.26
723.719	25741.6
723.913	26474.77
724.107	26292.51
724.301	25727.27
724.495	26071.32
724.689	26368.28
724.883	26355.99
725.077	25743.65
725.271	26095.9
725.465	26478.87
725.659	25803.04
725.853	25780.51
726.046	25760.03
726.24	25508.13
726.434	25690.4
726.628	25891.1
726.822	25614.63
727.015	26312.99
727.209	25741.6
727.403	25727.27
727.596	25778.47
727.79	26298.65
727.984	26347.8
728.177	25979.17
728.371	25999.65
728.565	26169.63
728.758	25823.52
728.952	25905.44
729.146	25889.06
729.339	26315.03
729.533	25739.55
729.726	25831.71
729.92	25717.03
730.113	26476.82
730.307	26130.72
730.5	25786.66
730.694	25870.62
730.887	26112.28
731.081	26013.98
731.274	25893.15
731.468	25422.12
731.661	25717.03
731.854	25674.02
732.048	25880.86
732.241	25432.36
732.435	25827.62
732.628	25938.21
732.821	25887.01
733.014	25841.95
733.208	25895.2
733.401	26089.76
733.594	25590.05
733.788	25671.97
733.981	26042.65
734.174	25981.21
734.367	25628.96
734.56	25678.11
734.754	26063.13
734.947	26075.42
735.14	25620.77
735.333	25608.48
735.526	25968.93
735.719	25268.52
735.912	25250.09
736.105	25569.57
736.298	25547.04
736.491	25469.22
736.684	24961.33
736.877	25305.38
737.07	25430.31
737.263	25798.94
737.456	25272.62
737.649	25274.66
737.842	25528.61
738.035	25499.94
738.228	25399.59
738.421	25661.73
738.614	25944.35
738.807	25727.27
739	25334.06
739.192	24918.32
739.385	25338.15
739.578	25739.55
739.771	25702.69
739.964	25420.07
740.156	25669.92
740.349	25442.6
740.542	25833.76
740.735	25362.73
740.927	25577.76
741.12	25334.06
741.313	25448.74
741.505	25719.07
741.698	25469.22
741.891	25729.31
742.083	25379.11
742.276	25426.21
742.468	25688.35
742.661	25647.4
742.854	25540.9
743.046	24994.09
743.239	25979.17
743.431	25426.21
743.624	25342.25
743.816	25145.64
744.009	25223.47
744.201	25510.18
744.393	25176.36
744.586	24820.02
744.778	25270.57
744.971	25241.9
745.163	25422.12
745.355	25479.46
745.548	25446.69
745.74	25332.01
745.932	25542.95
746.125	25643.3
746.317	25889.06
746.509	25590.05
746.702	25280.81
746.894	25102.64
747.086	25325.86
747.278	25633.06
747.471	24967.47
747.663	25190.7
747.855	25262.38
748.047	25676.07
748.239	24822.06
748.431	24690.99
748.623	25159.98
748.815	25192.75
749.008	24650.03
749.2	24469.81
749.392	24977.71
749.584	24707.38
749.776	24926.51
749.968	24789.3
750.16	25395.5
750.352	24682.8
750.544	24684.85
750.736	24445.24
750.928	25090.35
751.12	24420.66
751.311	24482.1
751.503	24564.02
751.695	25071.92
751.887	24533.3
752.079	24508.72
752.271	24686.9
752.463	25446.69
752.654	24424.76
752.846	24336.7
753.038	24396.09
753.23	24604.98
753.421	24723.76
753.613	24541.49
753.805	24793.39
753.997	24777.01
754.188	24736.05
754.38	24172.86
754.572	24408.37
754.763	24420.66
754.955	24439.09
755.146	24326.46
755.338	24506.68
755.53	24422.71
755.721	24158.52
755.913	23660.87
756.104	23861.57
756.296	24101.18
756.487	24531.25
756.679	24092.99
756.87	23931.2
757.062	23978.3
757.253	24471.86
757.445	23693.63
757.636	24226.1
757.827	24295.74
758.019	24725.81
758.21	23880
758.401	23832.89
758.593	24205.63
758.784	24265.02
758.975	23613.76
759.167	23402.82
759.358	24424.76
759.549	24643.89
759.74	23615.81
759.932	24140.09
760.123	23980.35
760.314	23980.35
760.505	23763.26
760.696	23593.28
760.888	24430.9
761.079	23624
761.27	23322.95
761.461	23331.14
761.652	24111.42
761.843	23193.93
762.034	23185.74
762.225	23595.33
762.416	23720.26
762.607	23527.75
762.798	23298.38
762.989	23281.99
763.18	24179
763.371	23560.52
763.562	23437.64
763.753	23120.2
763.944	23853.37
764.135	23253.32
764.326	23259.46
764.517	23001.42
764.708	23218.5
764.899	23533.89
765.089	23083.34
765.28	23015.76
765.471	23507.27
765.662	23681.35
765.853	23167.31
766.043	22958.41
766.234	23241.03
766.425	22937.93
766.615	22878.54
766.806	22784.33
766.997	23273.8
767.187	23034.19
767.378	23230.79
767.569	22462.8
767.759	22987.08
767.95	23433.54
768.141	23042.38
768.331	22974.8
768.522	22872.4
768.712	23107.91
768.903	22675.79
769.093	22761.81
769.284	23212.36
769.474	22845.77
769.665	22184.28
769.855	22253.91
770.046	22557.01
770.236	22765.9
770.426	22665.55
770.617	22206.81
770.807	22880.59
770.998	22581.59
771.188	22755.66
771.378	22425.94
771.569	22575.44
771.759	22978.89
771.949	22161.75
772.139	22440.28
772.33	22665.55
772.52	22825.29
772.71	22006.11
772.9	21678.43
773.09	22763.86
773.281	22620.5
773.471	21815.65
773.661	21791.07
773.851	22188.38
774.041	21780.83
774.231	21872.99
774.421	21887.32
774.611	22401.36
774.802	22182.23
774.992	21729.63
775.182	21315.94
775.372	22321.49
775.562	22049.11
775.752	21977.44
775.942	21678.43
776.131	22337.88
776.321	22077.79
776.511	21756.25
776.701	21195.11
776.891	21856.61
777.081	21436.77
777.271	21719.39
777.461	21621.09
777.651	21772.64
777.84	21758.3
778.03	21459.3
778.22	21182.82
778.41	21946.72
778.599	21023.08
778.789	21412.2
778.979	21088.62
779.169	21625.18
779.358	21383.52
779.548	21963.1
779.738	21234.02
779.927	21170.54
780.117	21332.33
780.307	21045.61
780.496	21156.2
780.686	21643.62
780.875	22016.35
781.065	21188.97
781.254	20924.78
781.444	21397.86
781.633	21580.13
781.823	21131.62
782.012	20894.06
782.202	20849
782.391	21207.4
782.581	20939.12
782.77	21064.04
782.96	21440.87
783.149	20652.4
783.338	20697.45
783.528	20816.24
783.717	21277.03
783.906	21115.24
784.096	20844.91
784.285	20633.97
784.474	20963.69
784.663	20656.5
784.853	20611.44
785.042	20580.72
785.231	20883.82
785.42	20691.31
785.61	20179.32
785.799	20420.98
785.988	20767.09
786.177	20373.88
786.366	20627.82
786.555	20775.28
786.744	20867.44
786.933	20554.1
787.122	20480.37
787.312	20474.23
787.501	20623.73
787.69	20633.97
787.879	20463.99
788.068	20201.85
788.257	19949.95
788.445	20394.36
788.634	20423.03
788.823	19915.13
789.012	21131.62
789.201	20531.57
789.39	19888.51
789.579	19624.32
789.768	19904.89
789.957	19976.57
790.145	19890.56
790.334	19620.22
790.523	19886.46
790.712	19970.43
790.9	20015.48
791.089	19691.9
791.278	20390.26
791.467	20109.69
791.655	20140.41
791.844	20212.09
792.033	19616.13
792.221	19982.71
792.41	19747.2
792.599	19347.84
792.787	20345.2
792.976	20130.17
793.164	19560.83
793.353	19865.98
793.541	20187.51
793.73	20009.34
793.918	19849.6
794.107	19546.5
794.295	19730.81
794.484	19855.74
794.672	19509.63
794.861	19569.02
795.049	19786.11
795.238	20070.78
795.426	19489.15
795.614	19409.28
795.803	19761.53
795.991	19777.92
796.179	19444.1
796.368	19417.47
796.556	19648.89
796.744	19091.85
796.932	19325.32
797.121	19048.84
797.309	19437.95
797.497	19583.36
797.685	19292.55
797.874	19333.51
798.062	19419.52
798.25	19464.58
798.438	19470.72
798.626	19206.53
798.814	19470.72
799.002	19732.86
799.19	19446.15
799.378	19251.59
799.566	19497.35
799.755	19734.91
799.943	19677.57
800.131	19089.8
800.318	19638.65
800.506	19425.67
800.694	19028.36
800.882	19220.87
801.07	20017.53
801.258	19315.08
801.446	19532.16
801.634	18952.59
801.822	19431.81
802.01	19575.17
802.197	19245.44
802.385	19517.82
802.573	19566.98
802.761	19423.62
802.949	19444.1
803.136	19093.9
803.324	19868.03
803.512	19399.04
803.699	19171.72
803.887	18919.82
804.075	19532.16
804.262	19556.74
804.45	19210.63
804.638	19466.63
804.825	19503.49
805.013	19788.16
805.201	19624.32
805.388	19339.65
805.576	19730.81
805.763	20173.17
805.951	19491.2
806.138	19607.94
806.326	20472.18
806.513	19652.99
806.701	19669.37
806.888	19583.36
807.075	19650.94
807.263	20035.96
807.45	19229.06
807.638	19652.99
807.825	20308.34
808.012	19683.71
808.2	19546.5
808.387	19812.73
808.574	20003.19
808.761	20113.78
808.949	19689.85
809.136	19822.97
809.323	19868.03
809.51	19509.63
809.698	19607.94
809.885	19310.98
810.072	19665.28
810.259	19890.56
810.446	19509.63
810.633	19523.97
810.82	20371.83
811.008	20148.6
811.195	20001.15
811.382	20111.74
811.569	19872.12
811.756	19702.14
811.943	19751.29
812.13	19810.68
812.317	20230.52
812.504	20236.66
812.691	20031.86
812.878	19843.45
813.064	20087.16
813.251	20005.24
813.438	19638.65
813.625	19526.02
813.812	19794.3
813.999	19698.05
814.186	19808.64
814.372	19822.97
814.559	19825.02
814.746	20064.63
814.933	19655.04
815.12	20103.54
815.306	19470.72
815.493	19597.7
815.68	20246.9
815.866	19884.41
816.053	20121.98
816.24	20193.65
816.426	19718.53
816.613	19503.49
816.799	20081.02
816.986	20234.61
817.173	19663.23
817.359	19575.17
817.546	19816.83
817.732	19628.42
817.919	19382.66
818.105	19923.32
818.292	19634.56
818.478	20072.82
818.665	19511.68
818.851	19435.91
819.037	20185.46
819.224	19827.07
819.41	19673.47
819.597	19300.74
819.783	20162.93
819.969	19843.45
820.156	19628.42
820.342	19192.2
820.528	20343.16
820.714	19542.4
820.901	19882.36
821.087	19417.47
821.273	19788.16
821.459	19331.46
821.646	19163.53
821.832	19343.75
822.018	19523.97
822.204	19288.45
822.39	19317.12
822.576	18850.19
822.762	19585.41
822.948	19085.7
823.134	19427.71
823.32	19040.65
823.507	18831.76
823.693	19509.63
823.879	19591.55
824.065	19110.28
824.25	19169.67
824.436	18784.65
824.622	18739.6
824.808	19016.07
824.994	18682.25
825.18	18743.69
825.366	18684.3
825.552	18907.53
825.738	19163.53
825.923	19210.63
826.109	19181.96
826.295	18928.01
826.481	18665.87
826.667	19100.04
826.852	19050.89
827.038	18885
827.224	19224.97
827.409	19767.68
827.595	18631.05
827.781	19001.74
827.966	19257.73
828.152	19001.74
828.338	18899.34
828.523	18534.8
828.709	19190.15
828.894	19079.56
829.08	18792.84
829.266	18815.37
829.451	18715.02
829.637	18647.44
829.822	18428.31
830.008	18729.36
830.193	18921.87
830.378	18741.64
830.564	18954.63
830.749	18272.66
830.935	18782.6
831.12	18817.42
831.305	18049.43
831.491	18432.4
831.676	18182.55
831.861	18502.03
832.047	18489.74
832.232	18135.45
832.417	18635.15
832.602	18270.61
832.788	18078.1
832.973	17682.84
833.158	18172.31
833.343	18192.79
833.528	18403.73
833.714	18485.65
833.899	18614.67
834.084	18925.96
834.269	18082.2
834.454	17897.88
834.639	18313.62
834.824	18635.15
835.009	18405.78
835.194	18028.95
835.379	18219.41
835.564	18016.66
835.749	17695.13
835.934	17930.65
836.119	18051.48
836.304	17973.66
836.489	17830.3
836.674	17963.42
836.859	17586.59
837.044	18391.44
837.228	18092.44
837.413	17682.84
837.598	18043.29
837.783	17795.48
837.968	17858.97
838.152	17611.17
838.337	17252.77
838.522	18000.28
838.707	18010.52
838.891	17607.07
839.076	17619.36
839.261	17791.39
839.445	17299.87
839.63	17441.18
839.815	17953.18
839.999	17346.98
840.184	17215.91
840.368	17314.21
840.553	17938.84
840.737	17676.7
840.922	17385.89
841.106	17297.83
841.291	17242.53
841.475	17621.41
841.66	16886.18
841.844	17252.77
842.029	17785.24
842.213	17193.38
842.397	16945.58
842.582	16886.18
842.766	17592.73
842.951	17512.86
843.135	17303.97
843.319	17000.87
843.504	17150.37
843.688	17578.4
843.872	16730.54
844.056	16834.99
844.241	17082.79
844.425	16976.3
844.609	17027.49
844.793	16714.16
844.977	17162.66
845.161	16718.25
845.346	16550.32
845.53	16697.77
845.714	17072.55
845.898	17191.33
846.082	16572.85
846.266	16726.44
846.45	16908.71
846.634	17172.9
846.818	16730.54
847.002	16722.35
847.186	16912.81
847.37	16585.13
847.554	16486.83
847.738	16791.98
847.922	17064.36
848.106	16785.83
848.29	16425.39
848.473	16556.46
848.657	16755.11
848.841	16873.9
849.025	16277.94
849.209	16099.76
849.392	16683.44
849.576	16593.33
849.76	16257.46
849.944	16529.84
850.127	16578.99
850.311	16134.58
850.495	15991.22
850.678	15602.11
850.862	16572.85
851.046	16560.56
851.229	16300.47
851.413	16060.85
851.596	16163.25
851.78	16089.53
851.964	16316.85
852.147	16132.53
852.331	16730.54
852.514	16679.34
852.698	16083.38
852.881	15667.64
853.065	16249.27
853.248	16171.44
853.431	15827.39
853.615	15862.2
853.798	16454.06
853.982	16214.45
854.165	15849.91
854.348	15438.27
854.532	15583.68
854.715	15784.38
854.898	15866.3
855.081	15591.87
855.265	16177.59
855.448	16159.16
855.631	15698.36
855.814	15540.67
855.997	16312.75
856.181	15811
856.364	15694.27
856.547	15557.05
856.73	15761.85
856.913	15772.09
857.096	15270.34
857.279	15282.63
857.462	15536.57
857.645	15790.52
857.828	15737.27
858.011	15493.57
858.194	15327.68
858.377	15653.31
858.56	15323.58
858.743	15389.12
858.926	15376.83
859.109	15634.88
859.292	15192.51
859.475	15358.4
859.658	15634.88
859.841	15415.74
860.023	14944.71
860.206	14766.54
860.389	15573.44
860.572	15616.44
860.755	14911.94
860.937	15063.49
861.12	15382.98
861.303	15258.05
861.486	15073.73
861.668	15184.32
861.851	15385.02
862.034	15110.6
862.216	14936.52
862.399	14522.83
862.581	15057.35
862.764	15159.75
862.947	14688.71
863.129	14483.92
863.312	14680.52
863.494	15090.12
863.677	14612.94
863.859	14375.38
864.042	14844.36
864.224	14965.19
864.406	14373.33
864.589	14178.77
864.771	14952.9
864.954	14672.33
865.136	14238.16
865.318	14103
865.501	14684.62
865.683	14662.09
865.865	14385.62
866.048	14322.13
866.23	14682.57
866.412	14608.84
866.594	14088.66
866.777	14381.52
866.959	14606.8
867.141	14326.22
867.323	14293.46
867.505	14283.22
867.687	14193.11
867.869	14232.02
868.052	14148.05
868.234	14105.04
868.416	14180.82
868.598	14895.56
868.78	14195.15
868.962	14127.57
869.144	14623.18
869.326	14342.61
869.508	14146
869.69	14146
869.872	14201.3
870.054	14471.63
870.236	14027.22
870.417	13998.55
870.599	14078.42
870.781	14873.03
870.963	13982.17
871.145	13959.64
871.327	13900.25
871.508	14256.59
871.69	14062.04
871.872	13806.04
872.054	14043.6
872.235	14223.83
872.417	13912.53
872.599	13818.33
872.78	14496.21
872.962	13996.5
873.144	13844.95
873.325	13941.21
873.507	14463.44
873.689	14066.13
873.87	13746.65
874.052	13976.02
874.233	14117.33
874.415	14119.38
874.596	13906.39
874.778	13595.1
874.959	13988.31
875.141	14225.87
875.322	13847
875.503	13720.03
875.685	14115.28
875.866	13562.33
876.048	13840.86
876.229	13838.81
876.41	14191.06
876.592	14303.7
876.773	13906.39
876.954	13570.52
877.136	14512.59
877.317	13953.49
877.498	13511.13
877.679	13912.53
877.86	14256.59
878.042	13988.31
878.223	13603.29
878.404	14340.56
878.585	14299.6
878.766	14498.25
878.947	14211.54
879.128	14066.13
879.309	14117.33
879.49	14266.83
879.672	13908.44
879.853	13849.05
880.034	13996.5
880.215	14156.24
880.396	14262.74
880.576	14307.79
880.757	14092.76
880.938	14719.43
881.119	14055.89
881.3	13910.49
881.481	14117.33
881.662	14967.24
881.843	14203.35
882.023	14234.07
882.204	14514.64
882.385	14379.47
882.566	14064.08
882.747	14189.01
882.927	14223.83
883.108	14449.1
883.289	14258.64
883.469	14565.84
883.65	14172.63
883.831	14758.35
884.011	14492.11
884.192	14406.09
884.373	14674.38
884.553	14819.78
884.734	14840.26
884.914	14782.92
885.095	15567.29
885.275	15309.25
885.456	15024.58
885.636	14602.7
885.817	15086.02
885.997	14823.88
886.178	14596.56
886.358	14682.57
886.538	15071.68
886.719	15708.6
886.899	14694.86
887.08	14868.94
887.26	15430.08
887.44	14776.78
887.621	14639.56
887.801	14838.22
887.981	15696.32
888.161	14975.43
888.342	14823.88
888.522	14957
888.702	15153.6
888.882	14905.8
889.062	15149.51
889.242	14680.52
889.423	15821.24
889.603	15102.4
889.783	15092.16
889.963	14922.18
890.143	15235.52
890.323	15466.94
890.503	15000.01
890.683	15092.16
890.863	15350.21
891.043	14967.24
891.223	15002.05
891.403	15088.07
891.583	15219.14
891.763	14924.23
891.943	15073.73
892.122	15047.11
892.302	15053.25
892.482	14875.08
892.662	15036.87
892.842	14832.07
893.022	15065.54
893.201	15030.73
893.381	14905.8
893.561	14793.16
893.741	15172.04
893.92	15159.75
894.1	14922.18
894.28	14971.33
894.459	14973.38
894.639	15290.82
894.819	14707.15
894.998	14868.94
895.178	15192.51
895.357	15172.04
895.537	14772.68
895.716	14490.06
895.896	15036.87
896.075	15454.65
896.255	14963.14
896.434	14879.18
896.614	15311.3
896.793	15333.82
896.973	14787.02
897.152	14911.94
897.331	15161.8
897.511	15155.65
897.69	14524.88
897.87	15235.52
898.049	15094.21
898.228	15112.64
898.407	14862.79
898.587	14827.98
898.766	14832.07
898.945	15092.16
899.124	14918.09
899.304	14731.72
899.483	15219.14
899.662	15331.78
899.841	14625.23
900.02	14350.8
900.199	15157.7
900.378	14807.5
900.557	14612.94
900.737	14430.67
900.916	14870.98
901.095	14838.22
901.274	14836.17
901.453	14465.49
901.632	14635.47
901.811	14496.21
901.989	14608.84
902.168	14371.28
902.347	14922.18
902.526	14496.21
902.705	14315.98
902.884	14578.12
903.063	14815.69
903.242	14766.54
903.42	14465.49
903.599	14371.28
903.778	14735.82
903.957	14537.16
904.135	14326.22
904.314	14209.49
904.493	14377.42
904.672	14469.58
904.85	14250.45
905.029	14074.32
905.207	14461.39
905.386	14883.27
905.565	13959.64
905.743	14006.74
905.922	13996.5
906.1	14461.39
906.279	13885.91
906.457	13984.21
906.636	14119.38
906.814	14039.51
906.993	13808.09
907.171	13914.58
907.35	13992.41
907.528	14242.26
907.707	13879.77
907.885	13611.48
908.063	14451.15
908.242	13808.09
908.42	13640.15
908.598	13531.61
908.777	14043.6
908.955	13703.64
909.133	13916.63
909.311	13406.69
909.49	13933.01
909.668	13691.35
909.846	13564.38
910.024	13222.37
910.202	13818.33
910.38	13857.24
910.559	12929.51
910.737	13027.81
910.915	13693.4
911.093	13654.49
911.271	13433.31
911.449	13799.9
911.627	13849.05
911.805	13873.62
911.983	13402.59
912.161	13267.42
912.339	13570.52
912.517	13808.09
912.695	13423.07
912.872	12982.76
913.05	12933.61
913.228	13445.6
913.406	13271.52
913.584	13138.4
913.762	13371.87
913.939	12988.9
914.117	12646.89
914.295	12620.27
914.473	12857.83
914.65	13300.19
914.828	12663.27
915.006	12581.35
915.184	12769.77
915.361	13160.93
915.539	12741.1
915.716	12734.95
915.894	12673.51
916.072	13040.1
916.249	12591.59
916.427	12616.17
916.604	12667.37
916.782	12640.75
916.959	12268.02
917.137	12286.45
917.314	12607.98
917.492	12530.16
917.669	12413.42
917.847	12028.4
918.024	12274.16
918.201	12032.5
918.379	12028.4
918.556	12120.56
918.733	12501.48
918.911	12079.6
919.088	12302.83
919.265	12229.1
919.442	12237.3
919.62	12038.64
919.797	11786.74
919.974	11725.3
920.151	12151.28
920.328	12079.6
920.506	12014.07
920.683	12116.47
920.86	11543.03
921.037	11903.48
921.214	11661.82
921.391	11747.83
921.568	11829.75
921.745	11360.77
921.922	11293.18
922.099	11295.23
922.276	12042.74
922.453	11815.41
922.63	11241.98
922.807	11559.42
922.984	11581.95
923.161	11313.66
923.338	11422.2
923.514	11090.43
923.691	11452.92
923.868	11411.96
924.045	10867.2
924.222	11004.42
924.399	11139.58
924.575	11610.62
924.752	11184.64
924.929	10992.13
925.105	11219.46
925.282	10803.72
925.459	10865.16
925.635	10803.72
925.812	10689.03
925.989	10648.07
926.165	10514.95
926.342	10086.93
926.518	10324.49
926.695	10744.33
926.871	10238.48
927.048	10168.85
927.224	10721.8
927.401	10357.26
927.577	10426.89
927.754	10103.31
927.93	10435.08
928.107	10371.6
928.283	9937.43
928.459	10265.1
928.636	10242.57
928.812	9978.39
928.988	9693.72
929.165	9562.65
929.341	9970.19
929.517	9925.14
929.693	9777.69
929.87	9318.94
930.046	9906.71
930.222	9708.05
930.398	9511.45
930.574	9746.97
930.751	9697.81
930.927	9726.49
931.103	9529.88
931.279	9374.24
931.455	9304.6
931.631	9611.8
931.807	9081.38
931.983	8960.55
932.159	9105.95
932.335	9384.48
932.511	9097.76
932.687	8987.17
932.863	9214.49
933.039	9177.63
933.215	8897.06
933.391	8596.01
933.566	8892.96
933.742	8929.83
933.918	8579.62
934.094	8458.79
934.27	8696.36
934.445	8661.54
934.621	8387.11
934.797	8170.03
934.973	8600.1
935.148	8466.99
935.324	7852.59
935.5	7608.89
935.675	8383.02
935.851	7823.92
936.027	7797.3
936.202	7619.13
936.378	7748.15
936.553	7508.54
936.729	7453.24
936.904	7193.15
937.08	6984.26
937.255	6877.76
937.431	6574.66
937.606	6529.61
937.782	6756.93
937.957	6754.88
938.133	6609.48
938.308	6349.39
938.483	6443.59
938.659	6148.68
938.834	6085.2
939.009	6271.56
939.185	6060.62
939.36	5898.83
939.535	5511.77
939.71	5792.34
939.886	6122.06
940.061	5812.82
940.236	5583.45
940.411	5503.57
940.586	5489.24
940.761	5589.59
940.937	5225.05
941.112	5241.43
941.287	5356.12
941.462	5259.87
941.637	5010.01
941.812	4911.71
941.987	5100.12
942.162	5253.72
942.337	4997.73
942.512	4815.46
942.687	5171.8
942.862	5177.95
943.037	4739.68
943.212	4457.06
943.386	5055.07
943.561	4942.43
943.736	4663.91
943.911	4993.63
944.086	4975.2
944.26	5042.78
944.435	4637.28
944.61	4678.24
944.785	5036.64
944.959	5118.56
945.134	4483.69
945.309	4461.16
945.483	4366.95
945.658	4842.08
945.833	4096.62
946.007	4422.25
946.182	4987.49
946.357	4244.07
946.531	4346.47
946.706	4377.19
946.88	4229.74
947.055	4735.59
947.229	4452.97
947.404	4412.01
947.578	4946.53
947.752	4563.56
947.927	4362.86
948.101	4342.38
948.276	4631.14
948.45	4649.57
948.624	4700.77
948.799	4227.69
948.973	4612.71
949.147	4373.1
949.321	4510.31
949.496	4577.89
949.67	4844.13
949.844	4545.13
950.018	4450.92
950.193	4379.24
950.367	5001.82
950.541	4448.87
950.715	4586.08
950.889	4586.08
951.063	4420.2
951.237	4698.72
951.411	4217.45
951.585	4170.35
951.759	4620.9
951.933	4647.52
952.107	4334.18
952.281	4581.99
952.455	5096.03
952.629	4854.37
952.803	4555.37
952.977	4287.08
953.151	4788.83
953.325	4682.34
953.499	4784.74
953.672	4344.42
953.846	4543.08
954.02	4545.13
954.194	4244.07
954.368	4338.28
954.541	4592.23
954.715	4289.13
954.889	4424.3
955.062	4233.83
955.236	4530.79
955.41	4258.41
955.583	4559.46
955.757	4192.87
955.93	4260.46
956.104	4065.9
956.278	4317.8
956.451	4614.76
956.625	4635.24
956.798	4880.99
956.972	4668
957.145	4098.67
957.319	4444.77
957.492	4457.06
957.665	4342.38
957.839	4297.32
958.012	4448.87
958.185	4309.61
958.359	4315.75
958.532	4358.76
958.705	4819.55
958.879	4444.77
959.052	4323.94
959.225	4043.37
959.398	4432.49
959.572	4450.92
959.745	4170.35
959.918	4418.15
960.091	4289.13
960.264	4430.44
960.438	4026.99
960.611	4135.53
960.784	4575.84
960.957	4141.68
961.13	4495.97
961.303	3961.45
961.476	4254.31
961.649	4512.36
961.822	4139.63
961.995	4170.35
962.168	4430.44
962.341	4246.12
962.514	4031.09
962.686	4063.85
962.859	4395.62
963.032	4401.77
963.205	4037.23
963.378	3912.3
963.551	4385.38
963.723	4313.7
963.896	4285.03
964.069	4215.4
964.242	4387.43
964.414	4491.88
964.587	4287.08
964.76	4289.13
964.932	4266.6
965.105	4291.18
965.278	3983.98
965.45	4242.03
965.623	4211.31
965.795	4436.58
965.968	4133.48
966.14	3920.49
966.313	4008.56
966.485	4213.35
966.658	4006.51
966.83	3861.1
967.003	4409.96
967.175	4254.31
967.348	3943.02
967.52	3963.5
967.692	4440.68
967.865	4307.56
968.037	3875.44
968.209	4104.81
968.382	4082.28
968.554	4297.32
968.726	3977.84
968.898	3930.73
969.071	4141.68
969.243	4166.25
969.415	4035.18
969.587	3897.97
969.759	4579.94
969.932	4219.5
970.104	3928.69
970.276	3658.35
970.448	3893.87
970.62	3912.3
970.792	3893.87
970.964	3824.24
971.136	4446.82
971.308	4117.1
971.48	3854.96
971.652	3662.45
971.824	4315.75
971.996	3783.28
972.168	3887.73
972.339	3887.73
972.511	4127.34
972.683	3797.62
972.855	4014.7
973.027	3801.71
973.199	3877.49
973.37	4010.61
973.542	3848.82
973.714	3820.14
973.886	3928.69
974.057	4043.37
974.229	3517.05
974.401	3742.32
974.572	3613.3
974.744	3484.28
974.915	3596.92
975.087	3637.88
975.259	4178.54
975.43	3650.16
975.602	3625.59
975.773	3410.55
975.945	3709.55
976.116	3949.17
976.288	3611.25
976.459	3787.38
976.63	3521.14
976.802	3680.88
976.973	3428.98
977.145	3558
977.316	4131.44
977.487	4143.72
977.659	3578.48
977.83	3551.86
978.001	4110.96
978.172	3586.68
978.344	3312.25
978.515	3469.94
978.686	3662.45
978.857	3844.72
979.028	3457.65
979.2	3244.67
979.371	3779.18
979.542	3699.31
979.713	3461.75
979.884	3048.06
980.055	3490.42
980.226	3515
980.397	3445.37
980.568	3234.43
980.739	3783.28
980.91	3494.52
981.081	3420.79
981.252	3267.19
981.423	3613.3
981.594	3785.33
981.765	3248.76
981.936	3302.01
982.106	3572.34
982.277	3793.52
982.448	3322.49
982.619	3435.13
982.79	3267.19
982.96	3668.59
983.131	3416.69
983.302	2806.4
983.472	3324.54
983.643	3533.43
983.814	3404.41
983.984	3267.19
984.155	3289.72
984.326	3701.36
984.496	3232.38
984.667	3191.42
984.837	3224.19
985.008	3465.85
985.178	3271.29
985.349	3113.6
985.519	3170.94
985.69	2998.91
985.86	3041.92
986.031	3011.2
986.201	3312.25
986.371	3336.82
986.542	2978.43
986.712	2867.84
986.882	3248.76
987.053	3326.58
987.223	2818.69
987.393	3203.71
987.563	3172.99
987.734	3265.14
987.904	3297.91
988.074	2916.99
988.244	3314.3
988.414	3193.47
988.585	3003
988.755	3082.88
988.925	3129.98
989.095	3576.44
989.265	2906.75
989.435	3041.92
989.605	3363.45
989.775	3418.74
989.945	3240.57
990.115	2867.84
990.285	3023.48
990.455	3205.75
990.625	2919.04
990.795	2886.27
990.965	3451.51
991.134	2714.24
991.304	2857.6
991.474	2779.78
991.644	3011.2
991.814	3367.54
991.984	2785.92
992.153	2736.77
992.323	2859.65
992.493	2992.76
992.662	2470.53
992.832	2947.71
993.002	3082.88
993.171	2990.72
993.341	2742.91
993.511	2953.85
993.68	2724.48
993.85	3031.68
994.019	2464.39
994.189	2628.23
994.358	2982.53
994.528	2634.37
994.697	2491.01
994.867	2589.32
995.036	2898.56
995.206	2759.3
995.375	2617.99
995.544	2767.49
995.714	2880.13
995.883	2738.82
996.052	2683.52
996.222	2405
996.391	3328.63
996.56	2732.67
996.73	2552.45
996.899	2460.29
997.068	3140.22
997.237	2732.67
997.406	2441.86
997.576	2359.94
997.745	2548.36
997.914	2732.67
998.083	2302.6
998.252	2577.03
998.421	2663.04
998.59	2546.31
998.759	2300.55
998.928	2341.51
999.097	2927.23
999.266	2757.25
999.435	2521.73
999.604	2355.85
999.773	3078.78
999.942	2497.16
1000.111	2169.48
1000.28	2237.06
1000.448	2216.58
1000.617	2302.6
1000.786	2488.96
1000.955	2257.54
1001.124	2550.4
1001.292	3308.15
1001.461	2439.81
1001.63	2255.5
1001.798	2923.13
1001.967	2751.1
1002.136	2185.87
1002.304	2251.4
1002.473	2570.88
1002.642	2556.55
1002.81	2208.39
1002.979	2251.4
1003.147	2632.32
1003.316	3072.64
1003.484	2128.52
1003.653	2144.91
1003.821	2720.39
1003.99	2325.13
1004.158	2265.74
1004.327	2249.35
1004.495	2433.67
1004.663	2157.19
1004.832	2370.18
1005	2028.17
1005.168	2501.25
1005.337	2505.35
1005.505	2005.64
1005.673	2144.91
1005.842	2495.11
1006.01	2534.02
1006.178	2001.55
1006.346	2073.23
1006.514	2488.96
1006.683	2589.32
1006.851	2015.88
1007.019	1938.06
1007.187	2036.36
1007.355	1888.91
1007.523	1942.16
1007.691	1792.66
1007.859	1888.91
1008.027	2425.48
1008.195	2038.41
1008.363	1946.25
1008.531	2513.54
1008.699	2007.69
1008.867	1843.85
1009.035	1921.68
1009.203	2517.64
1009.37	2081.42
1009.538	1944.2
1009.706	2185.87
1009.874	2015.88
1010.042	2099.85
1010.209	1774.22
1010.377	1802.9
1010.545	2345.61
1010.713	2173.58
1010.88	1858.19
1011.048	1757.84
1011.216	2005.64
1011.383	2388.61
1011.551	1802.9
1011.718	1692.3
1011.886	2267.78
1012.054	2015.88
1012.221	1798.8
1012.389	1686.16
1012.556	1962.64
1012.724	2366.09
1012.891	1872.53
1013.058	1620.63
1013.226	2144.91
1013.393	2329.22
1013.561	1518.23
1013.728	1450.64
1013.895	2085.51
1014.063	2060.94
1014.23	1553.04
1014.397	1720.98
1014.565	2042.51
1014.732	1907.34
1014.899	1675.92
1015.066	1573.52
1015.233	1856.14
1015.401	1991.31
1015.568	1710.74
1015.735	1798.8
1015.902	1915.53
1016.069	1968.78
1016.236	1565.33
1016.403	1544.85
1016.57	1704.59
1016.737	2013.84
1016.904	1604.24
1017.071	1536.66
1017.238	1786.51
1017.405	1995.4
1017.572	1438.36
1017.739	1634.96
1017.906	1878.67
1018.073	1913.49
1018.24	1405.59
1018.407	1606.29
1018.573	2083.47
1018.74	1745.55
1018.907	1645.2
1019.074	1325.72
1019.241	1927.82
1019.407	1682.07
1019.574	1487.51
1019.741	1401.49
1019.907	1702.54
1020.074	1733.26
1020.241	1268.38
1020.407	1381.01
1020.574	1903.25
1020.74	1829.52
1020.907	1395.35
1021.073	1192.6
1021.24	2202.25
1021.406	1983.12
1021.573	1305.24
1021.739	1338.01
1021.906	1825.42
1022.072	1602.19
1022.239	1282.71
1022.405	1247.9
1022.571	1667.73
1022.738	1546.9
1022.904	1256.09
1023.07	1333.91
1023.237	1618.58
1023.403	1854.09
1023.569	1299.09
1023.735	1262.23
1023.902	1604.24
1024.068	1643.15
1024.234	1213.08
1024.4	1307.29
1024.566	1671.83
1024.732	1921.68
1024.898	1278.62
1025.065	1135.26
1025.231	1813.13
1025.397	1530.52
1025.563	1245.85
1025.729	1182.36
1025.895	1079.96
1026.061	1274.52
1026.227	959.13
1026.392	1243.8
1026.558	1763.98
1026.724	1536.66
1026.89	1084.06
1027.056	1231.51
1027.222	1626.77
1027.388	1227.42
1027.553	1184.41
1027.719	1053.34
1027.885	1827.47
1028.051	1546.9
1028.216	983.71
1028.382	1192.6
1028.548	1641.11
1028.713	1301.14
1028.879	1047.19
1029.045	1221.27
1029.21	1677.97
1029.376	1536.66
1029.541	1163.93
1029.707	1147.55
1029.873	1389.21
1030.038	1544.85
1030.204	1010.33
1030.369	1086.11
1030.534	1510.04
1030.7	1333.91
1030.865	1104.54
1031.031	936.6
1031.196	1399.45
1031.361	1401.49
1031.527	963.23
1031.692	987.8
1031.857	897.69
1032.023	1403.54
1032.188	924.32
1032.353	1090.2
1032.518	1682.07
1032.684	1391.25
1032.849	889.5
1033.014	1036.95
1033.179	1522.32
1033.344	1405.59
1033.509	940.7
1033.674	998.04
1033.839	1381.01
1034.004	1442.45
1034.17	858.78
1034.335	791.2
1034.5	1125.02
1034.664	1118.87
1034.829	881.31
1034.994	928.41
1035.159	1331.86
1035.324	1235.61
1035.489	942.75
1035.654	813.73
1035.819	1475.22
1035.984	1159.83
1036.148	903.84
1036.313	821.92
1036.478	1403.54
1036.643	1213.08
1036.807	783.01
1036.972	809.63
1037.137	1424.02
1037.301	1151.64
1037.466	737.95
1037.631	897.69
1037.795	1446.55
1037.96	1165.98
1038.124	996
1038.289	674.46
1038.454	1307.29
1038.618	1274.52
1038.783	795.29
1038.947	1012.38
1039.111	1245.85
1039.276	1018.52
1039.44	688.8
1039.605	1141.4
1039.769	1024.67
1039.933	973.47
1040.098	869.02
1040.262	1036.95
1040.426	1329.81
1040.591	1110.68
1040.755	709.28
1040.919	746.14
1041.083	1122.97
1041.248	959.13
1041.412	676.51
1041.576	660.13
1041.74	973.47
1041.904	1237.66
1042.068	684.7
1042.232	768.67
1042.397	1145.5
1042.561	1047.19
1042.725	518.82
1042.889	846.49
1043.053	1168.02
1043.217	1165.98
1043.381	832.16
1043.544	572.07
1043.708	1200.79
1043.872	744.1
1044.036	400.04
1044.2	588.45
1044.364	1153.69
1044.528	1397.4
1044.691	3201.66
1044.855	572.07
1045.019	1129.11
1045.183	1012.38
1045.346	680.61
1045.51	576.16
1045.674	944.8
1045.837	1118.87
1046.001	733.86
1046.165	590.5
1046.328	1594
1046.492	1069.72
1046.655	764.57
1046.819	721.57
1046.983	725.66
1047.146	1104.54
1047.31	725.66
1047.473	524.96
1047.636	836.25
1047.8	752.29
1047.963	668.32
1048.127	543.39
1048.29	758.43
