Data from Ink_Intensity_USB4F045381__107__00107.txt Node

Date: Mon Jul 17 11:06:56 EDT 2023
User: mmckonesweet
Spectrometer: USB4F04538
Trigger mode: 4
Integration Time (sec): 9.000000E-1
Scans to average: 1
Electric dark correction enabled: true
Nonlinearity correction enabled: false
Boxcar width: 0
XAxis mode: Wavelengths
Number of Pixels in Spectrum: 3648
>>>>>Begin Spectral Data<<<<<
345.52	-1029.1
345.736	-1029.1
345.952	-1029.1
346.168	-928.75
346.384	-1031.15
346.6	-177.15
346.816	-289.79
347.032	-134.14
347.248	281.6
347.464	-158.72
347.68	-107.52
347.896	56.32
348.112	371.71
348.328	-58.37
348.544	-74.75
348.76	-46.08
348.975	336.89
349.191	-232.44
349.407	-254.97
349.623	64.51
349.839	-87.04
350.055	-142.33
350.27	-29.7
350.486	193.53
350.702	320.51
350.918	257.02
351.133	-119.81
351.349	134.14
351.565	379.9
351.781	-226.3
351.996	23.55
352.212	375.8
352.428	-50.18
352.644	-119.81
352.859	-222.2
353.075	302.08
353.291	31.74
353.506	-111.61
353.722	-263.16
353.938	13.31
354.153	513.02
354.369	91.13
354.584	-201.72
354.8	242.68
355.016	-361.47
355.231	-246.78
355.447	-21.5
355.662	158.72
355.878	717.81
356.093	-345.08
356.309	-37.89
356.524	-222.2
356.74	263.16
356.955	-277.5
357.171	56.32
357.386	189.44
357.602	-142.33
357.817	11.26
358.033	-193.53
358.248	361.47
358.464	97.28
358.679	-160.77
358.895	-340.99
359.11	-41.98
359.325	297.98
359.541	117.76
359.756	-17.41
359.972	-226.3
360.187	136.19
360.402	-224.25
360.618	-171.01
360.833	1025.01
361.048	136.19
361.264	-82.94
361.479	-27.65
361.694	82.94
361.909	205.82
362.125	-240.64
362.34	-150.53
362.555	271.36
362.77	168.96
362.986	-330.75
363.201	-130.05
363.416	136.19
363.631	-25.6
363.847	-193.53
364.062	-123.9
364.277	146.43
364.492	97.28
364.707	-138.24
364.922	-396.28
365.138	314.36
365.353	330.75
365.568	-293.88
365.783	-136.19
365.998	84.99
366.213	560.12
366.428	-248.83
366.643	68.61
366.858	248.83
367.073	191.49
367.288	-107.52
367.503	-308.22
367.718	56.32
367.933	306.17
368.148	-345.08
368.363	-62.46
368.578	138.24
368.793	357.37
369.008	-214.01
369.223	-279.55
369.438	183.29
369.653	470.01
369.868	-300.03
370.083	-218.11
370.298	58.37
370.513	371.71
370.728	93.18
370.943	-144.38
371.157	-156.67
371.372	578.55
371.587	-367.61
371.802	-267.26
372.017	54.27
372.232	420.86
372.446	-87.04
372.661	-297.98
372.876	234.49
373.091	166.91
373.306	-25.6
373.52	-246.78
373.735	-125.95
373.95	383.99
374.165	-160.77
374.379	-125.95
374.594	-189.44
374.809	158.72
375.023	52.22
375.238	-254.97
375.453	218.11
375.667	-267.26
375.882	-193.53
376.097	-177.15
376.311	11.26
376.526	19.46
376.741	-168.96
376.955	52.22
377.17	519.16
377.384	580.6
377.599	-138.24
377.813	-242.68
378.028	617.46
378.242	173.05
378.457	-99.33
378.672	-357.37
378.886	99.33
379.101	-21.5
379.315	-326.65
379.53	-123.9
379.744	144.38
379.958	177.15
380.173	-93.18
380.387	-238.59
380.602	183.29
380.816	-187.39
381.031	-193.53
381.245	-115.71
381.459	162.81
381.674	1723.37
381.888	-222.2
382.103	101.37
382.317	-244.73
382.531	400.38
382.746	-23.55
382.96	-193.53
383.174	-150.53
383.388	494.58
383.603	132.09
383.817	-297.98
384.031	-9.22
384.246	504.82
384.46	17.41
384.674	334.84
384.888	19.46
385.103	76.8
385.317	-287.74
385.531	-74.75
385.745	347.13
385.959	271.36
386.174	-207.87
386.388	-291.84
386.602	-21.5
386.816	-216.06
387.03	-80.89
387.244	-123.9
387.458	105.47
387.672	381.95
387.887	-222.2
388.101	-271.36
388.315	316.41
388.529	84.99
388.743	-168.96
388.957	-209.92
389.171	293.88
389.385	-130.05
389.599	-199.68
389.813	64.51
390.027	205.82
390.241	674.81
390.455	-115.71
390.669	-125.95
390.883	-91.13
391.097	408.57
391.311	44.03
391.525	-234.49
391.738	265.21
391.952	191.49
392.166	-105.47
392.38	-271.36
392.594	257.02
392.808	306.17
393.022	-76.8
393.236	-52.22
393.449	199.68
393.663	232.44
393.877	-283.64
394.091	-87.04
394.305	-78.85
394.518	-136.19
394.732	-314.36
394.946	-117.76
395.16	480.25
395.373	103.42
395.587	-287.74
395.801	-123.9
396.015	293.88
396.228	173.05
396.442	-312.32
396.656	-398.33
396.869	388.09
397.083	379.9
397.297	-123.9
397.51	-189.44
397.724	375.8
397.938	177.15
398.151	-332.79
398.365	-347.13
398.578	252.92
398.792	400.38
399.005	-33.79
399.219	-160.77
399.433	150.53
399.646	177.15
399.86	39.94
400.073	-62.46
400.287	197.63
400.5	1.02
400.714	-56.32
400.927	-125.95
401.141	183.29
401.354	1127.41
401.567	222.2
401.781	-291.84
401.994	257.02
402.208	519.16
402.421	-160.77
402.635	-152.57
402.848	37.89
403.061	281.6
403.275	-64.51
403.488	-240.64
403.701	508.92
403.915	279.55
404.128	37.89
404.341	-136.19
404.555	142.33
404.768	78.85
404.981	54.27
405.195	-185.34
405.408	447.48
405.621	207.87
405.834	-29.7
406.048	-175.1
406.261	424.95
406.474	424.95
406.687	-207.87
406.9	-84.99
407.114	76.8
407.327	175.1
407.54	-322.56
407.753	-279.55
407.966	-41.98
408.179	220.16
408.392	-193.53
408.605	-332.79
408.819	207.87
409.032	183.29
409.245	-144.38
409.458	13.31
409.671	246.78
409.884	271.36
410.097	-310.27
410.31	5.12
410.523	275.45
410.736	7.17
410.949	-107.52
411.162	-148.48
411.375	455.67
411.588	343.03
411.801	27.65
412.014	-240.64
412.227	70.65
412.44	-87.04
412.653	-164.86
412.865	-54.27
413.078	332.79
413.291	277.5
413.504	-68.61
413.717	-115.71
413.93	277.5
414.143	-80.89
414.356	-130.05
414.568	-365.56
414.781	396.28
414.994	89.09
415.207	-76.8
415.42	-68.61
415.632	246.78
415.845	601.08
416.058	-291.84
416.271	-197.63
416.483	-54.27
416.696	504.82
416.909	-218.11
417.121	-189.44
417.334	138.24
417.547	537.59
417.759	-177.15
417.972	-177.15
418.185	60.42
418.397	177.15
418.61	-152.57
418.823	-199.68
419.035	539.64
419.248	74.75
419.46	-66.56
419.673	-144.38
419.885	136.19
420.098	3.07
420.311	-168.96
420.523	-353.27
420.736	269.31
420.948	171.01
421.161	-224.25
421.373	-316.41
421.586	101.37
421.798	-91.13
422.01	-310.27
422.223	-70.65
422.435	-101.37
422.648	232.44
422.86	-183.29
423.073	-209.92
423.285	400.38
423.497	-257.02
423.71	-183.29
423.922	-218.11
424.134	244.73
424.347	451.58
424.559	93.18
424.771	179.2
424.984	5.12
425.196	183.29
425.408	-273.4
425.621	-275.45
425.833	338.94
426.045	441.34
426.257	-275.45
426.47	-197.63
426.682	105.47
426.894	261.12
427.106	-138.24
427.318	-91.13
427.531	-78.85
427.743	257.02
427.955	-132.09
428.167	302.08
428.379	203.77
428.591	37.89
428.804	3.07
429.016	-271.36
429.228	52.22
429.44	140.29
429.652	76.8
429.864	-324.6
430.076	15.36
430.288	56.32
430.5	-70.65
430.712	19.46
430.924	297.98
431.136	64.51
431.348	-394.23
431.56	-164.86
431.772	-17.41
431.984	-3.07
432.196	-214.01
432.408	-224.25
432.62	-17.41
432.832	189.44
433.044	136.19
433.256	50.18
433.468	275.45
433.679	-300.03
433.891	-228.35
434.103	60.42
434.315	441.34
434.527	171.01
434.739	-89.09
434.95	-250.88
435.162	357.37
435.374	-7.17
435.586	-87.04
435.798	-166.91
436.009	-218.11
436.221	-3.07
436.433	-103.42
436.645	-199.68
436.856	-11.26
437.068	338.94
437.28	-187.39
437.491	171.01
437.703	187.39
437.915	166.91
438.126	-138.24
438.338	160.77
438.55	56.32
438.761	230.4
438.973	-109.57
439.184	-119.81
439.396	89.09
439.608	324.6
439.819	-193.53
440.031	-19.46
440.242	244.73
440.454	312.32
440.665	-140.29
440.877	7.17
441.088	263.16
441.3	115.71
441.511	-226.3
441.723	-211.96
441.934	207.87
442.146	89.09
442.357	25.6
442.569	89.09
442.78	95.23
442.991	572.41
443.203	189.44
443.414	-261.12
443.626	406.52
443.837	-33.79
444.048	-150.53
444.26	-308.22
444.471	175.1
444.682	371.71
444.894	-193.53
445.105	-201.72
445.316	363.51
445.528	343.03
445.739	-46.08
445.95	-150.53
446.161	263.16
446.373	429.05
446.584	-66.56
446.795	-119.81
447.006	281.6
447.217	472.06
447.429	-275.45
447.64	-234.49
447.851	328.7
448.062	113.66
448.273	-216.06
448.484	-183.29
448.695	265.21
448.907	19.46
449.118	-21.5
449.329	146.43
449.54	-5.12
449.751	-78.85
449.962	-78.85
450.173	-58.37
450.384	369.66
450.595	476.15
450.806	-95.23
451.017	-80.89
451.228	410.62
451.439	365.56
451.65	-21.5
451.861	-351.23
452.072	-41.98
452.283	146.43
452.494	136.19
452.705	-91.13
452.915	508.92
453.126	267.26
453.337	-66.56
453.548	-91.13
453.759	404.47
453.97	631.8
454.181	209.92
454.391	-105.47
454.602	156.67
454.813	404.47
455.024	-50.18
455.235	-3.07
455.445	234.49
455.656	281.6
455.867	107.52
456.078	-128
456.288	70.65
456.499	295.93
456.71	-257.02
456.921	123.9
457.131	265.21
457.342	193.53
457.553	23.55
457.763	-58.37
457.974	355.32
458.184	367.61
458.395	-125.95
458.606	-158.72
458.816	439.29
459.027	605.17
459.237	44.03
459.448	-181.25
459.659	433.15
459.869	742.39
460.08	-144.38
460.29	72.7
460.501	646.13
460.711	21.5
460.922	-195.58
461.132	-78.85
461.343	1012.72
461.553	-52.22
461.764	-17.41
461.974	-37.89
462.184	449.53
462.395	285.69
462.605	80.89
462.816	-158.72
463.026	240.64
463.236	601.08
463.447	-56.32
463.657	-33.79
463.867	457.72
464.078	142.33
464.288	-44.03
464.498	-41.98
464.709	287.74
464.919	168.96
465.129	-1.02
465.339	-46.08
465.55	359.42
465.76	533.5
465.97	13.31
466.18	-58.37
466.391	363.51
466.601	351.23
466.811	17.41
467.021	-107.52
467.231	369.66
467.441	574.46
467.651	64.51
467.862	-150.53
468.072	291.84
468.282	588.79
468.492	58.37
468.702	191.49
468.912	273.4
469.122	859.12
469.332	338.94
469.542	-37.89
469.752	588.79
469.962	392.19
470.172	-19.46
470.382	15.36
470.592	551.93
470.802	621.56
471.012	291.84
471.222	136.19
471.432	472.06
471.642	484.34
471.852	224.25
472.062	68.61
472.272	359.42
472.482	175.1
472.691	5.12
472.901	11.26
473.111	392.19
473.321	973.81
473.531	97.28
473.741	171.01
473.95	465.91
474.16	470.01
474.37	275.45
474.58	70.65
474.79	809.97
474.999	629.75
475.209	119.81
475.419	113.66
475.628	441.34
475.838	670.71
476.048	281.6
476.258	50.18
476.467	642.04
476.677	322.56
476.886	486.39
477.096	234.49
477.306	322.56
477.515	750.58
477.725	336.89
477.935	257.02
478.144	826.36
478.354	361.47
478.563	209.92
478.773	187.39
478.982	635.89
479.192	822.26
479.401	316.41
479.611	220.16
479.82	420.86
480.03	666.61
480.239	248.83
480.449	224.25
480.658	912.37
480.868	404.47
481.077	480.25
481.287	338.94
481.496	707.57
481.705	949.23
481.915	594.93
482.124	625.65
482.333	715.77
482.543	943.09
482.752	388.09
482.961	422.91
483.171	775.16
483.38	527.35
483.589	453.63
483.799	273.4
484.008	676.85
484.217	902.13
484.426	525.3
484.636	259.07
484.845	658.42
485.054	373.75
485.263	707.57
485.472	457.72
485.682	1076.21
485.891	779.25
486.1	371.71
486.309	537.59
486.518	916.47
486.727	1119.21
486.936	478.2
487.146	601.08
487.355	1127.41
487.564	687.09
487.773	537.59
487.982	484.34
488.191	654.33
488.4	885.75
488.609	560.12
488.818	584.7
489.027	1291.24
489.236	1227.76
489.445	519.16
489.654	431.1
489.863	1068.02
490.072	857.07
490.281	1022.96
490.49	687.09
490.698	1283.05
490.907	1342.44
491.116	654.33
491.325	551.93
491.534	1317.87
491.743	1031.15
491.952	762.87
492.16	754.68
492.369	1088.5
492.578	1289.2
492.787	826.36
492.996	592.89
493.204	922.61
493.413	1502.19
493.622	488.44
493.831	635.89
494.039	1315.82
494.248	699.38
494.457	711.67
494.665	689.14
494.874	1162.22
495.083	1491.95
495.291	887.79
495.5	740.34
495.709	1209.33
495.917	1082.35
496.126	959.47
496.335	787.44
496.543	1072.11
496.752	1096.69
496.96	1080.3
497.169	678.9
497.377	1041.39
497.586	1289.2
497.794	1035.25
498.003	601.08
498.211	1108.98
498.42	1496.04
498.628	996.34
498.837	805.88
499.045	1256.43
499.254	1264.62
499.462	932.85
499.671	775.16
499.879	1629.16
500.087	1389.55
500.296	953.33
500.504	1027.06
500.713	1291.24
500.921	1803.24
501.129	910.32
501.338	988.14
501.546	1305.58
501.754	1299.44
501.962	986.1
502.171	941.04
502.379	1426.41
502.587	1653.73
502.795	916.47
503.004	1031.15
503.212	1348.59
503.42	1600.49
503.628	1194.99
503.837	1240.05
504.045	1467.37
504.253	1700.84
504.461	1084.4
504.669	850.93
504.877	1602.54
505.085	1625.06
505.294	1010.67
505.502	1217.52
505.71	1418.22
505.918	1508.33
506.126	1104.88
506.334	1297.39
506.542	1430.51
506.75	1457.13
506.958	1321.96
507.166	1223.66
507.374	1383.4
507.582	1952.74
507.79	1317.87
507.998	1045.49
508.206	1512.42
508.414	1575.91
508.622	1039.34
508.83	1291.24
509.037	1815.52
509.245	1461.23
509.453	1174.51
509.661	1188.85
509.869	1745.89
510.077	1498.09
510.285	1350.64
510.492	1086.45
510.7	2092
510.908	1483.75
511.116	1371.12
511.324	1238
511.531	1506.28
511.739	1672.17
511.947	1354.73
512.155	1616.87
512.362	1778.66
512.57	1440.75
512.778	1367.02
512.985	1186.8
513.193	1842.15
513.401	2075.62
513.608	1520.62
513.816	1393.64
514.024	1889.25
514.231	1889.25
514.439	1397.74
514.646	1491.95
514.854	1962.98
515.061	2026.47
515.269	1369.07
515.477	1412.07
515.684	1534.95
515.892	1985.51
516.099	1428.46
516.307	1324.01
516.514	1942.5
516.722	2241.5
516.929	1590.25
517.136	1504.23
517.344	2028.51
517.551	1936.35
517.759	1459.18
517.966	1561.58
518.173	1829.86
518.381	1813.48
518.588	1721.32
518.796	1604.58
519.003	2046.94
519.21	1864.68
519.418	1676.26
519.625	1852.39
519.832	2100.19
520.039	2092
520.247	1508.33
520.454	1668.07
520.661	2309.08
520.868	2055.14
521.076	1682.41
521.283	1688.55
521.49	2544.6
521.697	2145.25
521.904	1645.54
522.112	1752.04
522.319	2210.78
522.526	2165.73
522.733	1696.74
522.94	1764.33
523.147	2141.15
523.354	2354.14
523.561	1594.34
523.768	1928.16
523.975	2378.72
524.183	2163.68
524.39	1813.48
524.597	1709.03
524.804	2096.1
525.011	1952.74
525.218	1790.95
525.425	1860.58
525.632	2468.83
525.838	2059.23
526.045	1784.8
526.252	1879.01
526.459	3134.42
526.666	3154.9
526.873	1946.59
527.08	1854.44
527.287	2681.82
527.494	2456.54
527.701	1768.42
527.907	1956.83
528.114	2427.87
528.321	2282.46
528.528	2087.9
528.735	2030.56
528.941	2145.25
529.148	2085.86
529.355	2102.24
529.562	2016.23
529.768	2782.17
529.975	2329.56
530.182	2055.14
530.388	1960.93
530.595	2687.96
530.802	2132.96
531.008	2296.8
531.215	2151.39
531.422	2755.54
531.628	3136.46
531.835	2165.73
532.042	2284.51
532.248	2358.24
532.455	2603.99
532.661	2294.75
532.868	2114.53
533.074	2657.24
533.281	2765.78
533.487	2270.17
533.694	2149.34
533.9	2376.67
534.107	2649.05
534.313	2190.3
534.52	2169.82
534.726	2862.04
534.933	3079.12
535.139	2243.55
535.345	2186.21
535.552	2837.46
535.758	2780.12
535.965	2495.45
536.171	2350.04
536.377	2837.46
536.584	3072.98
536.79	2368.48
536.996	2468.83
537.203	2788.31
537.409	2870.23
537.615	2452.44
537.821	2558.94
538.028	2849.75
538.234	3070.93
538.44	2573.27
538.646	2542.55
538.853	2956.24
539.059	2700.25
539.265	2894.8
539.471	2417.63
539.677	3185.62
539.883	2946
540.09	2487.26
540.296	3136.46
540.502	2989.01
540.708	2943.96
540.914	2829.27
541.12	2649.05
541.326	3156.94
541.532	2943.96
541.738	2759.64
541.944	2816.98
542.15	3374.03
542.356	2964.43
542.562	2581.46
542.768	2796.5
542.974	3658.7
543.18	3668.94
543.386	2773.97
543.592	2716.63
543.798	3328.97
544.004	3482.57
544.21	2880.47
544.415	3040.21
544.621	3156.94
544.827	3546.06
545.033	2771.93
545.239	3371.98
545.445	3136.46
545.651	3228.62
545.856	2896.85
546.062	2866.13
546.268	3105.74
546.474	3249.1
546.679	2898.9
546.885	2948.05
547.091	3230.67
547.297	3619.78
547.502	2995.15
547.708	2915.28
547.914	3142.61
548.119	3488.71
548.325	2935.76
548.531	3027.92
548.736	3804.1
548.942	3150.8
549.147	3099.6
549.353	3224.53
549.559	3709.9
549.764	3533.77
549.97	3034.07
550.175	3120.08
550.381	3652.55
550.586	3351.5
550.792	3064.79
550.997	3279.82
551.203	3468.24
551.408	3630.02
551.614	3144.66
551.819	3093.46
552.025	3935.17
552.23	4123.59
552.435	3234.77
552.641	3558.35
552.846	3394.51
553.052	3972.04
553.257	3466.19
553.462	3316.69
553.668	3537.87
553.873	4008.9
554.078	3183.57
554.283	3453.9
554.489	3789.77
554.694	3603.4
554.899	3263.44
555.105	3615.69
555.31	3828.68
555.515	3951.56
555.72	3494.86
555.925	3486.67
556.131	3986.37
556.336	3599.31
556.541	3476.43
556.746	3421.13
556.951	4144.06
557.156	4125.63
557.361	3746.76
557.567	3955.65
557.772	4363.2
557.977	4004.8
558.182	3535.82
558.387	3488.71
558.592	3720.14
558.797	4348.86
559.002	3728.33
559.207	3832.77
559.412	4015.04
559.617	4430.78
559.822	3748.81
560.027	3591.11
560.232	4209.6
560.437	4135.87
560.642	3662.79
560.847	3720.14
561.051	4086.72
561.256	3992.52
561.461	3847.11
561.666	3687.37
561.871	4197.31
562.076	4230.08
562.281	3816.39
562.485	3826.63
562.69	4342.72
562.895	4369.34
563.1	3849.16
563.305	3709.9
563.509	4600.76
563.714	4783.03
563.919	3834.82
564.123	3828.68
564.328	4213.7
564.533	4404.16
564.737	3996.61
564.942	4068.29
565.147	4807.61
565.351	4844.47
565.556	4109.25
565.761	4084.67
565.965	4363.2
566.17	4015.04
566.374	3978.18
566.579	3845.06
566.784	4291.52
566.988	4291.52
567.193	3961.8
567.397	4066.24
567.602	4142.02
567.806	4504.51
568.011	4238.27
568.215	4125.63
568.42	4445.12
568.624	4541.37
568.828	4193.22
569.033	4324.29
569.237	4682.68
569.442	4666.3
569.646	3984.32
569.85	4271.04
570.055	4490.17
570.259	4651.96
570.463	4447.16
570.668	4355.01
570.872	4633.53
571.076	4707.26
571.281	4547.51
571.485	4469.69
571.689	4725.69
571.893	4801.46
572.098	4512.7
572.302	4398.01
572.506	5036.98
572.71	4582.33
572.914	4520.89
573.119	4461.5
573.323	5155.76
573.527	5145.52
573.731	4701.11
573.935	4443.07
574.139	4971.44
574.343	4658.1
574.547	4664.25
574.751	4590.52
574.955	5157.81
575.159	5102.51
575.364	4623.29
575.568	4672.44
575.772	4928.44
575.976	5211.06
576.18	4608.95
576.383	4553.66
576.587	5262.26
576.791	5086.13
576.995	4631.48
577.199	4453.31
577.403	5217.2
577.607	5215.15
577.811	4740.02
578.015	4940.72
578.219	5180.34
578.422	5274.54
578.626	4955.06
578.83	4852.66
579.034	5307.31
579.238	5086.13
579.442	4764.6
579.645	5417.9
579.849	5125.04
580.053	5256.11
580.257	5049.27
580.46	4987.83
580.664	5542.83
580.868	5532.59
581.071	5139.38
581.275	5211.06
581.479	5049.27
581.682	5282.74
581.886	4942.77
582.09	5204.91
582.293	5602.22
582.497	5413.81
582.7	5211.06
582.904	4930.48
583.107	5428.14
583.311	5479.34
583.515	5315.5
583.718	5170.1
583.922	5612.46
584.125	5964.71
584.329	5120.95
584.532	5348.27
584.735	5733.29
584.939	5555.12
585.142	5190.58
585.346	5299.12
585.549	5757.86
585.753	5567.4
585.956	5440.43
586.159	5462.96
586.363	5977
586.566	5694.38
586.769	5344.17
586.973	5278.64
587.176	5948.33
587.379	6011.81
587.582	5772.2
587.786	5667.75
587.989	5919.65
588.192	6384.54
588.395	5661.61
588.599	5878.69
588.802	5960.61
589.005	5874.6
589.208	5594.03
589.411	5591.98
589.615	6237.09
589.818	6419.36
590.021	5845.93
590.224	5755.82
590.427	6337.44
590.63	6192.03
590.833	5540.78
591.036	5630.89
591.239	5798.82
591.442	5845.93
591.645	6146.98
591.848	5817.26
592.051	6155.17
592.254	6331.3
592.457	5776.3
592.66	6011.81
592.863	6099.87
593.066	6259.62
593.269	6114.21
593.472	5985.19
593.675	5911.46
593.878	6394.78
594.081	6034.34
594.284	5847.97
594.486	6499.23
594.689	6290.34
594.892	6022.05
595.095	5991.33
595.298	6441.89
595.5	6192.03
595.703	6081.44
595.906	6228.9
596.109	6673.31
596.311	6581.15
596.514	5999.52
596.717	6253.47
596.92	6742.94
597.122	6634.39
597.325	5872.55
597.528	6165.41
597.73	6912.92
597.933	6691.74
598.136	6204.32
598.338	5870.5
598.541	6884.25
598.743	6937.49
598.946	6333.34
599.148	6462.37
599.351	6849.43
599.554	7066.52
599.756	6355.87
599.959	6445.98
600.161	6912.92
600.363	7269.27
600.566	6771.61
600.768	6497.18
600.971	7121.81
601.173	6949.78
601.376	6663.07
601.578	6575
601.78	7074.71
601.983	7322.51
602.185	6544.28
602.388	6802.33
602.59	7173.01
602.792	6673.31
602.995	6806.42
603.197	6622.11
603.399	7232.4
603.601	6818.71
603.804	6679.45
604.006	6785.94
604.208	6843.29
604.41	6460.32
604.613	6620.06
604.815	6595.48
605.017	7482.25
605.219	6796.18
605.421	7025.56
605.623	6777.75
605.826	7410.57
606.028	7424.91
606.23	6798.23
606.432	6871.96
606.634	7685
606.836	7342.99
607.038	6759.32
607.24	7084.95
607.442	7185.3
607.644	7275.41
607.846	7035.8
608.048	7130
608.25	7555.98
608.452	6966.17
608.654	7060.37
608.856	6773.66
609.058	7244.69
609.26	7598.99
609.462	7164.82
609.664	7181.2
609.866	7902.09
610.067	7594.89
610.269	7254.93
610.471	7240.59
610.673	7297.94
610.875	7486.35
611.077	7041.94
611.278	7336.85
611.48	7687.05
611.682	8002.44
611.884	7287.7
612.085	7252.88
612.287	7289.74
612.489	7621.52
612.69	7021.46
612.892	7244.69
613.094	7873.42
613.295	7580.56
613.497	6990.74
613.699	7367.57
613.9	7822.22
614.102	7883.66
614.304	7312.27
614.505	7097.24
614.707	7635.85
614.908	7611.28
615.11	7107.48
615.311	7357.33
615.513	7695.24
615.714	7865.22
615.916	7334.8
616.117	7531.41
616.319	7732.11
616.52	7801.74
616.722	7336.85
616.923	7553.93
617.124	7971.72
617.326	7852.94
617.527	7598.99
617.729	7646.09
617.93	7990.15
618.131	7967.62
618.333	7465.87
618.534	7695.24
618.735	7523.21
618.937	8110.98
619.138	7457.68
619.339	7588.75
619.54	7912.33
619.742	8065.92
619.943	7773.07
620.144	7619.47
620.345	8137.6
620.546	8207.23
620.748	7678.86
620.949	7658.38
621.15	8102.79
621.351	7981.96
621.552	7560.08
621.753	7527.31
621.954	7799.69
622.155	8553.34
622.356	7619.47
622.558	7936.9
622.759	8004.49
622.96	8403.84
623.161	7730.06
623.362	8002.44
623.563	8125.32
623.764	8156.04
623.965	7771.02
624.166	7984.01
624.366	8151.94
624.567	8350.59
624.768	7523.21
624.969	7811.98
625.17	8168.32
625.371	8264.58
625.572	7979.91
625.773	7738.25
625.973	8444.8
626.174	8473.47
626.375	8207.23
626.576	7947.14
626.777	8366.98
626.977	8932.22
627.178	7941
627.379	8240
627.58	8358.78
627.78	8256.39
627.981	8147.84
628.182	8235.91
628.382	8799.1
628.583	8194.95
628.784	8151.94
628.984	8252.29
629.185	8741.75
629.386	8561.53
629.586	8405.89
629.787	7975.81
629.987	8625.02
630.188	8526.72
630.388	8129.41
630.589	8477.57
630.79	8975.22
630.99	8618.88
631.191	8317.83
631.391	8745.85
631.591	8854.39
631.792	9075.57
631.992	8653.69
632.193	8551.29
632.393	9225.08
632.594	8674.17
632.794	8369.02
632.994	8563.58
633.195	8698.75
633.395	8866.68
633.595	8393.6
633.796	8776.57
633.996	8733.56
634.196	9110.39
634.397	8461.18
634.597	8610.68
634.797	8684.41
634.997	9147.25
635.198	8721.27
635.398	8432.51
635.598	8846.2
635.798	9329.52
635.998	8770.43
636.199	8682.36
636.399	8711.04
636.599	8547.2
636.799	8715.13
636.999	8917.88
637.199	9153.4
637.399	9300.85
637.599	8622.97
637.799	8842.11
637.999	8997.75
638.199	9481.07
638.399	8895.35
638.599	8944.5
638.799	9333.62
638.999	9558.89
639.199	9075.57
639.399	8960.89
639.599	9642.86
639.799	8997.75
639.999	8792.95
640.199	8924.02
640.399	9362.29
640.599	9294.71
640.799	9057.14
640.998	9137.01
641.198	9601.9
641.398	9143.16
641.598	9180.02
641.798	9182.07
641.997	10277.73
642.197	9284.47
642.397	9044.85
642.597	9075.57
642.796	9567.09
642.996	9712.49
643.196	9302.9
643.395	9024.37
643.595	9653.1
643.795	9067.38
643.994	9137.01
644.194	9397.1
644.394	9632.62
644.593	9542.51
644.793	9206.64
644.992	9558.89
645.192	9790.31
645.392	9292.66
645.591	9386.86
645.791	9319.28
645.99	9616.24
646.19	9644.91
646.389	9597.81
646.589	9397.1
646.788	10001.26
646.987	9771.88
647.187	9640.81
647.386	9628.53
647.586	9649
647.785	10068.84
647.984	9579.37
648.184	9657.2
648.383	9769.83
648.582	9882.47
648.782	9569.13
648.981	9638.76
649.18	9620.33
649.38	9788.27
649.579	9712.49
649.778	9476.98
649.977	10058.6
650.177	10013.54
650.376	9552.75
650.575	9603.95
650.774	10468.19
650.973	9718.64
651.173	9593.71
651.372	9702.25
651.571	10195.81
651.77	10277.73
651.969	9835.37
652.168	9831.27
652.367	10007.4
652.566	10316.64
652.765	9751.4
652.964	9999.21
653.163	10652.51
653.362	10271.59
653.561	9839.47
653.76	10015.59
653.959	10015.59
654.158	10247.01
654.357	10193.76
654.556	9923.43
654.755	10175.33
654.954	10384.23
655.153	9921.38
655.352	10005.35
655.551	10703.71
655.749	10294.11
655.948	9964.39
656.147	10283.88
656.346	10558.3
656.545	10263.4
656.743	10013.54
656.942	10179.43
657.141	10310.5
657.34	10212.2
657.538	10156.9
657.737	10294.11
657.936	10330.98
658.135	10402.66
658.333	10117.99
658.532	10302.31
658.731	10924.89
658.929	10693.47
659.128	10623.84
659.326	10269.54
659.525	10660.7
659.724	10642.27
659.922	10285.92
660.121	10298.21
660.319	10730.33
660.518	10105.7
660.716	10185.57
660.915	10316.64
661.113	10888.03
661.312	10351.46
661.51	10500.96
661.709	10302.31
661.907	10789.72
662.105	11066.2
662.304	10310.5
662.502	10570.59
662.701	11162.45
662.899	10672.99
663.097	10885.98
663.296	10345.31
663.494	11062.1
663.692	11377.49
663.891	10531.68
664.089	10451.81
664.287	10787.68
664.485	11168.6
664.684	10455.9
664.882	10668.89
665.08	10646.37
665.278	10820.44
665.476	10429.28
665.675	10935.13
665.873	11465.55
666.071	11166.55
666.269	10605.41
666.467	10689.37
666.665	11060.06
666.863	10713.95
667.061	10933.08
667.259	10812.25
667.457	10892.12
667.655	10943.32
667.853	10505.06
668.051	10709.85
668.249	11043.67
668.447	10982.23
668.645	10720.09
668.843	11058.01
669.041	11223.89
669.239	10935.13
669.437	10775.39
669.635	11058.01
669.833	11111.25
670.031	11414.35
670.229	10926.94
670.426	10986.33
670.624	10949.46
670.822	10795.87
671.02	10857.31
671.218	10908.51
671.415	10711.9
671.613	11115.35
671.811	10722.14
672.009	10910.55
672.206	11408.21
672.404	11000.66
672.602	11025.24
672.799	11115.35
672.997	11365.2
673.195	11533.14
673.392	10996.57
673.59	11117.4
673.788	11381.59
673.985	10754.91
674.183	11090.77
674.38	11137.88
674.578	11371.35
674.775	11119.45
674.973	10840.92
675.17	11111.25
675.368	11625.29
675.565	11453.27
675.763	11002.71
675.96	10873.69
676.158	11711.31
676.355	11195.22
676.553	11062.1
676.75	11004.76
676.947	11297.62
677.145	11275.09
677.342	11283.28
677.539	11043.67
677.737	11293.52
677.934	11739.98
678.131	11119.45
678.329	11299.67
678.526	11836.24
678.723	11631.44
678.92	11090.77
679.118	11201.37
679.315	11090.77
679.512	11707.21
679.709	11060.06
679.906	11023.19
680.104	11746.12
680.301	11377.49
680.498	11158.36
680.695	10992.47
680.892	11172.69
681.089	11307.86
681.286	11453.27
681.483	11027.29
681.68	11506.51
681.877	11619.15
682.075	11180.89
682.272	11305.81
682.469	11529.04
682.665	11215.7
682.862	11058.01
683.059	11045.72
683.256	11524.94
683.453	11434.83
683.65	11250.52
683.847	11326.29
684.044	11365.2
684.241	11199.32
684.438	11424.59
684.635	11006.81
684.831	11889.48
685.028	11744.08
685.225	11109.21
685.422	11320.15
685.619	11424.59
685.815	11578.19
686.012	11244.37
686.209	11348.82
686.405	11365.2
686.602	11588.43
686.799	11004.76
686.996	11496.27
687.192	11256.66
687.389	11979.59
687.586	11373.39
687.782	11266.9
687.979	11805.52
688.175	11680.59
688.372	11430.74
688.568	11385.68
688.765	11465.55
688.962	11838.28
689.158	11365.2
689.355	11127.64
689.551	11862.86
689.748	11537.23
689.944	11574.1
690.14	11135.83
690.337	11791.18
690.533	11471.7
690.73	11375.44
690.926	11320.15
691.123	11643.73
691.319	11547.47
691.515	11113.3
691.712	11613.01
691.908	11924.3
692.104	11836.24
692.301	11643.73
692.497	11025.24
692.693	11768.65
692.889	11660.11
693.086	11537.23
693.282	11062.1
693.478	11481.94
693.674	12041.03
693.87	11324.24
694.067	11182.93
694.263	11838.28
694.459	11545.42
694.655	11592.53
694.851	11565.9
695.047	11739.98
695.243	11770.7
695.439	11483.98
695.635	11318.1
695.831	11709.26
696.027	11613.01
696.224	11266.9
696.42	11795.28
696.615	12024.65
696.811	11764.56
697.007	11221.84
697.203	11488.08
697.399	11529.04
697.595	12041.03
697.791	11078.49
697.987	11570
698.183	11295.57
698.379	11465.55
698.575	11490.13
698.77	11430.74
698.966	11733.84
699.162	11883.34
699.358	11391.83
699.554	11293.52
699.749	11678.54
699.945	11965.26
700.141	11373.39
700.337	11570
700.532	11817.8
700.728	11318.1
700.924	11545.42
701.119	11254.61
701.315	11613.01
701.511	11574.1
701.706	11739.98
701.902	11371.35
702.097	11686.73
702.293	12153.67
702.489	11613.01
702.684	11586.38
702.88	11676.49
703.075	11502.42
703.271	11506.51
703.466	11373.39
703.662	11735.88
703.857	11912.01
704.053	11395.92
704.248	11692.88
704.443	11653.97
704.639	11811.66
704.834	11686.73
705.03	11522.9
705.225	11854.67
705.42	12090.18
705.616	11481.94
705.811	11641.68
706.006	11686.73
706.202	11703.12
706.397	11813.71
706.592	11486.03
706.787	11936.59
706.983	11631.44
707.178	11942.73
707.373	11621.2
707.568	11936.59
707.763	11959.11
707.959	11647.82
708.154	11467.6
708.349	11709.26
708.544	11918.15
708.739	11922.25
708.934	11365.2
709.129	11844.43
709.324	12161.86
709.519	11473.74
709.714	11488.08
709.909	12499.78
710.104	11830.09
710.299	11838.28
710.494	11883.34
710.689	12098.38
710.884	11914.06
711.079	11826
711.274	11969.35
711.469	12243.78
711.664	11762.51
711.859	11627.34
712.054	11725.65
712.249	11971.4
712.443	12192.58
712.638	11590.48
712.833	11397.97
713.028	11889.48
713.223	11746.12
713.417	12026.7
713.612	11428.69
713.807	11973.45
714.002	12342.08
714.196	11633.49
714.391	11428.69
714.586	11721.55
714.78	11703.12
714.975	11615.05
715.17	11672.4
715.364	11955.02
715.559	12317.51
715.754	11436.88
715.948	11602.77
716.143	12270.4
716.337	11717.45
716.532	11905.87
716.726	11737.93
716.921	12254.02
717.115	12405.57
717.31	11438.93
717.504	12053.32
717.699	11727.69
717.893	12045.13
718.088	11457.36
718.282	11459.41
718.476	11793.23
718.671	11879.24
718.865	11469.65
719.059	11643.73
719.254	11854.67
719.448	12176.2
719.642	13060.92
719.837	11514.7
720.031	12077.9
720.225	12114.76
720.419	11570
720.614	11258.71
720.808	12022.6
721.002	11909.96
721.196	11469.65
721.39	11651.92
721.585	12088.14
721.779	12065.61
721.973	11504.46
722.167	11242.32
722.361	11537.23
722.555	12151.62
722.749	11604.81
722.943	11565.9
723.137	11414.35
723.331	11701.07
723.525	11488.08
723.719	11656.01
723.913	11754.32
724.107	12143.43
724.301	11567.95
724.495	11627.34
724.689	12305.22
724.883	12036.94
725.077	11580.24
725.271	11676.49
725.465	12030.79
725.659	11727.69
725.853	11782.99
726.046	11512.66
726.24	11576.14
726.434	11934.54
726.628	11643.73
726.822	11699.02
727.015	12069.7
727.209	12168.01
727.403	11590.48
727.596	11516.75
727.79	11885.39
727.984	12092.23
728.177	11721.55
728.371	11502.42
728.565	12202.82
728.758	11840.33
728.952	11477.84
729.146	11645.77
729.339	12168.01
729.533	11715.41
729.726	11596.62
729.92	11752.27
730.113	12346.18
730.307	11950.92
730.5	11600.72
730.694	11633.49
730.887	11844.43
731.081	12178.25
731.274	11653.97
731.468	12034.89
731.661	11866.95
731.854	11801.42
732.048	11561.81
732.241	11766.6
732.435	11830.09
732.628	12045.13
732.821	11674.45
733.014	11791.18
733.208	11799.37
733.401	12260.16
733.594	11699.02
733.788	11735.88
733.981	12444.48
734.174	12290.88
734.367	11471.7
734.56	11926.35
734.754	12041.03
734.947	12102.47
735.14	11606.86
735.333	11952.97
735.526	12251.97
735.719	11850.57
735.912	11805.52
736.105	11844.43
736.298	12051.27
736.491	11952.97
736.684	11981.64
736.877	11543.38
737.07	12303.17
737.263	12497.73
737.456	11922.25
737.649	11680.59
737.842	11944.78
738.035	12112.71
738.228	11686.73
738.421	11983.69
738.614	12163.91
738.807	12337.99
739	11660.11
739.192	11510.61
739.385	12055.37
739.578	12260.16
739.771	12014.41
739.964	11705.17
740.156	12129.09
740.349	11907.91
740.542	12118.86
740.735	11670.35
740.927	11832.14
741.12	11991.88
741.313	11782.99
741.505	12133.19
741.698	12274.5
741.891	12184.39
742.083	12030.79
742.276	11828.04
742.468	12325.7
742.661	11973.45
742.854	12002.12
743.046	11832.14
743.239	12548.93
743.431	12211.01
743.624	11983.69
743.816	11897.67
744.009	12170.05
744.201	12264.26
744.393	12110.66
744.586	11805.52
744.778	12303.17
744.971	12327.75
745.163	11922.25
745.355	11952.97
745.548	12268.36
745.74	11959.11
745.932	11991.88
746.125	11805.52
746.317	12811.07
746.509	12182.34
746.702	11782.99
746.894	11840.33
747.086	12081.99
747.278	12475.2
747.471	11840.33
747.663	11957.07
747.855	12172.1
748.047	12579.65
748.239	11774.8
748.431	11893.58
748.623	12434.24
748.815	12434.24
749.008	11912.01
749.2	11754.32
749.392	12092.23
749.584	12208.97
749.776	12059.46
749.968	12041.03
750.16	12659.52
750.352	12108.62
750.544	11991.88
750.736	11629.39
750.928	12249.93
751.12	12266.31
751.311	12010.31
751.503	11901.77
751.695	12276.55
751.887	12170.05
752.079	11852.62
752.271	11606.86
752.463	12835.64
752.654	12276.55
752.846	11858.76
753.038	11793.23
753.23	12034.89
753.421	12217.16
753.613	11713.36
753.805	12254.02
753.997	12071.75
754.188	12243.78
754.38	11764.56
754.572	11889.48
754.763	12155.72
754.955	12223.3
755.146	11858.76
755.338	11746.12
755.53	12172.1
755.721	12077.9
755.913	11500.37
756.104	11666.25
756.296	11797.32
756.487	12278.6
756.679	11836.24
756.87	11694.93
757.062	11752.27
757.253	12184.39
757.445	11653.97
757.636	11879.24
757.827	11889.48
758.019	12417.86
758.21	11699.02
758.401	11803.47
758.593	12512.07
758.784	12251.97
758.975	11543.38
759.167	11582.29
759.358	11971.4
759.549	12235.59
759.74	11623.25
759.932	11604.81
760.123	12184.39
760.314	11838.28
760.505	11739.98
760.696	11543.38
760.888	12370.76
761.079	11787.08
761.27	11440.98
761.461	11357.01
761.652	12256.07
761.843	11971.4
762.034	11717.45
762.225	11821.9
762.416	11897.67
762.607	11701.07
762.798	11619.15
762.989	11316.05
763.18	12870.46
763.371	11672.4
763.562	11656.01
763.753	11692.88
763.944	12041.03
764.135	12075.85
764.326	11627.34
764.517	11496.27
764.708	11606.86
764.899	11948.87
765.089	11436.88
765.28	11330.39
765.471	11909.96
765.662	11756.36
765.853	11848.52
766.043	11488.08
766.234	11981.64
766.425	11873.1
766.615	11610.96
766.806	11275.09
766.997	11840.33
767.187	11699.02
767.378	11471.7
767.569	11137.88
767.759	11815.76
767.95	11760.46
768.141	11613.01
768.331	11311.96
768.522	11453.27
768.712	11795.28
768.903	11498.32
769.093	11297.62
769.284	11873.1
769.474	11717.45
769.665	11248.47
769.855	11103.06
770.046	11557.71
770.236	11574.1
770.426	11402.07
770.617	11137.88
770.807	11815.76
770.998	11512.66
771.188	11488.08
771.378	11256.66
771.569	11709.26
771.759	11586.38
771.949	11090.77
772.139	11062.1
772.33	11258.71
772.52	11946.83
772.71	11275.09
772.9	11105.11
773.09	11842.38
773.281	11733.84
773.471	11027.29
773.661	11041.62
773.851	11567.95
774.041	11422.55
774.231	10976.09
774.421	11357.01
774.611	11748.17
774.802	11410.26
774.992	11068.25
775.182	11066.2
775.372	11252.56
775.562	11631.44
775.752	10885.98
775.942	11006.81
776.131	11445.07
776.321	11205.46
776.511	10847.07
776.701	10978.14
776.891	11662.16
777.081	11021.14
777.271	11209.56
777.461	11055.96
777.651	11363.15
777.84	11699.02
778.03	11092.82
778.22	11070.3
778.41	11608.91
778.599	11055.96
778.789	11045.72
778.979	11004.76
779.169	11250.52
779.358	11250.52
779.548	11385.68
779.738	10931.03
779.927	11357.01
780.117	11053.91
780.307	10881.88
780.496	10615.65
780.686	11379.54
780.875	11326.29
781.065	10881.88
781.254	10863.45
781.444	11076.44
781.633	11230.04
781.823	10668.89
782.012	10666.85
782.202	10980.18
782.391	10834.78
782.581	10390.37
782.77	10935.13
782.96	11203.41
783.149	10928.99
783.338	10935.13
783.528	10615.65
783.717	11213.65
783.906	11377.49
784.096	10920.79
784.285	10799.96
784.474	10736.48
784.663	10765.15
784.853	10963.8
785.042	10675.04
785.231	10898.27
785.42	11139.93
785.61	10949.46
785.799	10750.81
785.988	10918.75
786.177	10767.2
786.366	10701.66
786.555	10984.28
786.744	11164.5
786.933	10742.62
787.122	10584.93
787.312	10558.3
787.501	10552.16
787.69	11033.43
787.879	10668.89
788.068	10337.12
788.257	10388.32
788.445	10625.89
788.634	10660.7
788.823	10511.2
789.012	11742.03
789.201	11279.19
789.39	10660.7
789.579	10494.82
789.768	10619.74
789.957	10849.11
790.145	10658.65
790.334	10513.25
790.523	10531.68
790.712	10722.14
790.9	10615.65
791.089	10333.03
791.278	11064.15
791.467	10914.65
791.655	10896.22
791.844	11203.41
792.033	10595.17
792.221	10619.74
792.41	10554.21
792.599	10197.86
792.787	10894.17
792.976	10609.5
793.164	10161
793.353	10586.97
793.541	10984.28
793.73	11006.81
793.918	10439.52
794.107	10464.1
794.295	10611.55
794.484	10601.31
794.672	10304.35
794.861	10230.63
795.049	10808.16
795.238	11164.5
795.426	10212.2
795.614	10351.46
795.803	10650.46
795.991	10826.59
796.179	10343.27
796.368	10416.99
796.556	11072.34
796.744	10263.4
796.932	10267.49
797.121	10150.76
797.309	10361.7
797.497	10701.66
797.685	10277.73
797.874	10468.19
798.062	10617.69
798.25	10797.92
798.438	10263.4
798.626	10177.38
798.814	10871.64
799.002	11246.42
799.19	10498.91
799.378	10287.97
799.566	10892.12
799.755	10894.17
799.943	10589.02
800.131	10189.67
800.318	10748.76
800.506	10683.23
800.694	10353.51
800.882	10347.36
801.07	10951.51
801.258	10523.49
801.446	10480.48
801.634	10363.75
801.822	10558.3
802.01	10726.24
802.197	10533.73
802.385	10701.66
802.573	10804.06
802.761	10625.89
802.949	10474.34
803.136	10451.81
803.324	11180.89
803.512	10761.05
803.699	10451.81
803.887	10220.39
804.075	11041.62
804.262	10720.09
804.45	10556.25
804.638	10629.98
804.825	10615.65
805.013	10713.95
805.201	10611.55
805.388	10470.24
805.576	10726.24
805.763	11404.11
805.951	10525.54
806.138	11058.01
806.326	11375.44
806.513	11227.99
806.701	10675.04
806.888	10615.65
807.075	11225.94
807.263	11240.28
807.45	10330.98
807.638	10720.09
807.825	11516.75
808.012	11184.98
808.2	10931.03
808.387	11062.1
808.574	11154.26
808.761	11268.95
808.949	10662.75
809.136	10728.28
809.323	10994.52
809.51	11078.49
809.698	11035.48
809.885	11135.83
810.072	11039.58
810.259	11250.52
810.446	10988.38
810.633	10838.87
810.82	11391.83
811.008	11461.46
811.195	11400.02
811.382	10998.62
811.569	11203.41
811.756	10873.69
811.943	10814.3
812.13	10812.25
812.317	10982.23
812.504	11078.49
812.691	10992.47
812.878	11062.1
813.064	11445.07
813.251	11174.74
813.438	11086.68
813.625	11115.35
813.812	11240.28
813.999	11146.07
814.186	10922.84
814.372	11058.01
814.559	11279.19
814.746	11645.77
814.933	10806.11
815.12	11123.54
815.306	11012.95
815.493	11068.25
815.68	10842.97
815.866	10888.03
816.053	11598.67
816.24	11574.1
816.426	11197.27
816.613	10980.18
816.799	11408.21
816.986	11651.92
817.173	11017.05
817.359	10787.68
817.546	11279.19
817.732	11055.96
817.919	10845.02
818.105	11117.4
818.292	11107.16
818.478	11158.36
818.665	11244.37
818.851	10818.39
819.037	11776.84
819.224	11203.41
819.41	10736.48
819.597	10914.65
819.783	11715.41
819.969	11275.09
820.156	10941.27
820.342	11121.49
820.528	11965.26
820.714	11098.97
820.901	11125.59
821.087	10892.12
821.273	11684.69
821.459	11058.01
821.646	10916.7
821.832	10734.43
822.018	11180.89
822.204	11182.93
822.39	10892.12
822.576	10754.91
822.762	11287.38
822.948	11184.98
823.134	11213.65
823.32	10791.77
823.507	10877.79
823.693	11129.69
823.879	11094.87
824.065	10857.31
824.25	11342.67
824.436	10660.7
824.622	10945.37
824.808	10849.11
824.994	10922.84
825.18	10765.15
825.366	10687.32
825.552	10572.64
825.738	10914.65
825.923	10890.07
826.109	11064.15
826.295	10527.58
826.481	10724.19
826.667	10812.25
826.852	10980.18
827.038	10550.11
827.224	11201.37
827.409	11529.04
827.595	10689.37
827.781	10816.35
827.966	11197.27
828.152	11242.32
828.338	10716
828.523	10488.67
828.709	10818.39
828.894	11209.56
829.08	10779.48
829.266	10455.9
829.451	10689.37
829.637	10980.18
829.822	10599.26
830.008	10746.72
830.193	11027.29
830.378	11139.93
830.564	10668.89
830.749	10156.9
830.935	10871.64
831.12	10804.06
831.305	10191.72
831.491	10593.12
831.676	10337.12
831.861	10804.06
832.047	10349.41
832.232	10271.59
832.417	11021.14
832.602	10771.29
832.788	10382.18
832.973	10335.07
833.158	10584.93
833.343	10832.73
833.528	10617.69
833.714	10398.56
833.899	10632.03
834.084	10951.51
834.269	10361.7
834.454	10302.31
834.639	10941.27
834.824	10951.51
835.009	10476.38
835.194	10349.41
835.379	10564.45
835.564	10939.23
835.749	10341.22
835.934	10091.37
836.119	10853.21
836.304	10693.47
836.489	10212.2
836.674	10566.49
836.859	10464.1
837.044	10894.17
837.228	10464.1
837.413	9974.63
837.598	10500.96
837.783	10754.91
837.968	10337.12
838.152	10152.81
838.337	9923.43
838.522	10974.04
838.707	10521.44
838.891	10359.65
839.076	10670.94
839.261	10433.38
839.445	10122.09
839.63	10341.22
839.815	10777.44
839.999	10333.03
840.184	10093.41
840.368	10351.46
840.553	10582.88
840.737	10498.91
840.922	9866.09
841.106	9802.6
841.291	9995.11
841.475	10279.78
841.66	10070.89
841.844	10009.45
842.029	10980.18
842.213	10113.89
842.397	9845.61
842.582	9687.92
842.766	10589.02
842.951	10464.1
843.135	10015.59
843.319	9972.58
843.504	10337.12
843.688	10369.89
843.872	9775.98
844.056	10040.17
844.241	10300.26
844.425	10115.94
844.609	9995.11
844.793	9663.34
844.977	10365.79
845.161	10117.99
845.346	9601.9
845.53	9874.28
845.714	10261.35
845.898	10382.18
846.082	9560.94
846.266	9898.86
846.45	9991.02
846.634	10034.02
846.818	9526.13
847.002	9970.54
847.186	10314.59
847.37	9747.31
847.554	9653.1
847.738	9747.31
847.922	10052.45
848.106	10058.6
848.29	9558.89
848.473	9571.18
848.657	10152.81
848.841	10113.89
849.025	9595.76
849.209	9364.34
849.392	10091.37
849.576	10005.35
849.76	9415.54
849.944	9763.69
850.127	10378.08
850.311	9653.1
850.495	9530.22
850.678	9253.75
850.862	10130.28
851.046	10277.73
851.229	9747.31
851.413	9431.92
851.596	9849.71
851.78	9812.84
851.964	9872.23
852.147	9395.06
852.331	10550.11
852.514	10111.85
852.698	9511.79
852.881	9257.84
853.065	10195.81
853.248	9790.31
853.431	9560.94
853.615	9446.26
853.798	10103.65
853.982	9896.81
854.165	9573.23
854.348	9470.83
854.532	9587.57
854.715	9569.13
854.898	9446.26
855.081	9343.86
855.265	9935.72
855.448	9878.38
855.631	9382.77
855.814	9466.74
855.997	9927.53
856.181	9614.19
856.364	9347.95
856.547	9223.03
856.73	9509.74
856.913	9612.14
857.096	9118.58
857.279	9442.16
857.462	9517.93
857.645	9698.16
857.828	9372.53
858.011	9456.5
858.194	9358.19
858.377	9587.57
858.56	9313.14
858.743	9329.52
858.926	9063.29
859.109	9360.24
859.292	9167.73
859.475	8995.7
859.658	9702.25
859.841	9433.97
860.023	8989.56
860.206	8989.56
860.389	9556.85
860.572	9816.94
860.755	9235.32
860.937	8964.98
861.12	9163.64
861.303	9333.62
861.486	9163.64
861.668	8805.24
861.851	9509.74
862.034	9433.97
862.216	9073.53
862.399	8881.02
862.581	9268.08
862.764	9479.02
862.947	8995.7
863.129	9057.14
863.312	8874.87
863.494	9599.85
863.677	9028.47
863.859	8647.55
864.042	9476.98
864.224	9384.82
864.406	8729.47
864.589	8575.87
864.771	9051
864.954	8690.56
865.136	8629.12
865.318	8338.3
865.501	9018.23
865.683	8553.34
865.865	8610.68
866.048	8496
866.23	9038.71
866.412	8991.61
866.594	8633.21
866.777	8579.97
866.959	9085.81
867.141	8737.66
867.323	8864.63
867.505	8737.66
867.687	8844.15
867.869	8893.3
868.052	8725.37
868.234	8715.13
868.416	8883.06
868.598	9032.57
868.78	8627.07
868.962	8530.81
869.144	9151.35
869.326	9163.64
869.508	8647.55
869.69	8577.92
869.872	8780.67
870.054	9038.71
870.236	8506.24
870.417	8430.46
870.599	8717.18
870.781	9345.91
870.963	8637.31
871.145	8680.32
871.327	8594.3
871.508	9071.48
871.69	8387.46
871.872	8477.57
872.054	8776.57
872.235	9020.28
872.417	8567.68
872.599	8498.05
872.78	9472.88
872.962	9089.91
873.144	8272.77
873.325	8524.67
873.507	9106.29
873.689	8807.29
873.87	8477.57
874.052	8614.78
874.233	8825.72
874.415	9096.05
874.596	8694.65
874.778	8420.22
874.959	8928.12
875.141	8921.98
875.322	8418.18
875.503	8477.57
875.685	8987.51
875.866	8240
876.048	8434.56
876.229	8242.05
876.41	8788.86
876.592	8901.5
876.773	8422.27
876.954	8342.4
877.136	9288.56
877.317	8790.91
877.498	8547.2
877.679	8555.39
877.86	8897.4
878.042	8825.72
878.223	8506.24
878.404	8934.26
878.585	9157.49
878.766	9522.03
878.947	8854.39
879.128	8735.61
879.309	9249.65
879.49	9198.45
879.672	8842.11
879.853	8919.93
880.034	8737.66
880.215	9126.77
880.396	8952.7
880.576	8465.28
880.757	8758.14
880.938	9204.6
881.119	8590.2
881.3	8680.32
881.481	8825.72
881.662	9874.28
881.843	8592.25
882.023	8872.82
882.204	9292.66
882.385	9069.43
882.566	8729.47
882.747	8856.44
882.927	9091.96
883.108	9216.88
883.289	8848.25
883.469	9190.26
883.65	9141.11
883.831	9372.53
884.011	9204.6
884.192	9012.09
884.373	9612.14
884.553	9341.81
884.734	9089.91
884.914	9169.78
885.095	10048.36
885.275	9827.18
885.456	9386.86
885.636	9044.85
885.817	9413.49
885.997	9245.55
886.178	9290.61
886.358	9304.95
886.538	9247.6
886.719	10509.15
886.899	8983.41
887.08	9184.12
887.26	9765.74
887.44	9012.09
887.621	9051
887.801	9395.06
887.981	10230.63
888.161	9724.78
888.342	9274.23
888.522	9251.7
888.702	9773.93
888.882	9872.23
889.062	9315.19
889.242	9284.47
889.423	9931.62
889.603	9665.39
889.783	9427.82
889.963	9331.57
890.143	9929.58
890.323	9792.36
890.503	9444.21
890.683	9225.08
890.863	9708.4
891.043	9667.44
891.223	9427.82
891.403	9735.02
891.583	9694.06
891.763	9784.17
891.943	9624.43
892.122	9468.78
892.302	9681.77
892.482	9677.68
892.662	9565.04
892.842	9362.29
893.022	9759.6
893.201	9509.74
893.381	9644.91
893.561	9628.53
893.741	9882.47
893.92	10005.35
894.1	9546.61
894.28	9624.43
894.459	10031.97
894.639	9878.38
894.819	9546.61
894.998	9698.16
895.178	10105.7
895.357	10054.5
895.537	9364.34
895.716	9442.16
895.896	9614.19
896.075	10087.27
896.255	9468.78
896.434	9399.15
896.614	10015.59
896.793	9966.44
896.973	9661.29
897.152	9560.94
897.331	9900.9
897.511	9847.66
897.69	9196.4
897.87	9761.64
898.049	9911.14
898.228	9833.32
898.407	9606
898.587	9640.81
898.766	9425.78
898.945	9810.79
899.124	9608.05
899.304	9489.26
899.483	9855.85
899.662	10103.65
899.841	9337.71
900.02	9384.82
900.199	10115.94
900.378	9988.97
900.557	9448.3
900.737	8981.37
900.916	9778.03
901.095	9661.29
901.274	9757.55
901.453	9167.73
901.632	9186.16
901.811	9296.75
901.989	9245.55
902.168	9124.72
902.347	9737.07
902.526	9489.26
902.705	9276.27
902.884	9380.72
903.063	9927.53
903.242	9771.88
903.42	8891.26
903.599	9341.81
903.778	9694.06
903.957	9853.8
904.135	9223.03
904.314	9413.49
904.493	9386.86
904.672	9562.99
904.85	9274.23
905.029	9173.88
905.207	9415.54
905.386	10105.7
905.565	8987.51
905.743	9016.18
905.922	9175.92
906.1	9579.37
906.279	9036.66
906.457	9046.9
906.636	9220.98
906.814	9202.55
906.993	8985.46
907.171	8964.98
907.35	9352.05
907.528	9440.11
907.707	9270.13
907.885	8944.5
908.063	9485.17
908.242	9034.61
908.42	8790.91
908.598	8686.46
908.777	9212.79
908.955	8983.41
909.133	9028.47
909.311	8641.4
909.49	9112.44
909.668	8907.64
909.846	8528.77
910.024	8532.86
910.202	9180.02
910.38	9300.85
910.559	8637.31
910.737	8567.68
910.915	8971.13
911.093	8924.02
911.271	8696.7
911.449	8702.84
911.627	9096.05
911.805	9276.27
911.983	8477.57
912.161	8575.87
912.339	8727.42
912.517	9083.77
912.695	8688.51
912.872	8422.27
913.05	8786.81
913.228	8723.32
913.406	8473.47
913.584	8328.06
913.762	8694.65
913.939	8342.4
914.117	8264.58
914.295	8188.8
914.473	8692.6
914.65	8661.88
914.828	8289.15
915.006	8313.73
915.184	8424.32
915.361	8479.61
915.539	8364.93
915.716	8479.61
915.894	8592.25
916.072	8610.68
916.249	8354.69
916.427	8268.67
916.604	8407.94
916.782	8582.01
916.959	8186.76
917.137	7947.14
917.314	8598.4
917.492	8477.57
917.669	8074.12
917.847	7908.23
918.024	8330.11
918.201	8127.36
918.379	7971.72
918.556	7928.71
918.733	8543.1
918.911	8100.74
919.088	8074.12
919.265	7850.89
919.442	8141.7
919.62	8031.11
919.797	7648.14
919.974	7621.52
920.151	8100.74
920.328	7994.25
920.506	7799.69
920.683	8137.6
920.86	7842.7
921.037	7783.31
921.214	7582.6
921.391	7844.74
921.568	8240
921.745	7728.01
921.922	7445.39
922.099	7267.22
922.276	8096.64
922.453	7926.66
922.63	7359.38
922.807	7596.94
922.984	7701.39
923.161	7388.05
923.338	7453.58
923.514	7273.36
923.691	7693.19
923.868	7533.45
924.045	7164.82
924.222	7101.33
924.399	7650.19
924.575	7676.81
924.752	7383.95
924.929	7197.59
925.105	7523.21
925.282	7191.44
925.459	7173.01
925.635	7134.1
925.812	7355.28
925.989	7130
926.165	7134.1
926.342	6853.53
926.518	7060.37
926.695	7179.15
926.871	6945.69
927.048	6661.02
927.224	7426.96
927.401	6957.97
927.577	6847.38
927.754	6675.35
927.93	7369.62
928.107	7068.56
928.283	6560.67
928.459	6966.17
928.636	7138.2
928.812	6804.38
928.988	6683.55
929.165	6488.99
929.341	6742.94
929.517	6781.85
929.693	6810.52
929.87	6314.91
930.046	6765.46
930.222	6556.57
930.398	6192.03
930.574	6419.36
930.751	6712.22
930.927	6529.95
931.103	6329.25
931.279	6445.98
931.455	6405.02
931.631	6505.37
931.807	5913.51
931.983	6038.44
932.159	6089.64
932.335	6466.46
932.511	6085.54
932.687	5993.38
932.863	6450.08
933.039	6249.38
933.215	5843.88
933.391	5630.89
933.566	6116.26
933.742	6138.79
933.918	5809.06
934.094	5540.78
934.27	5854.12
934.445	5938.09
934.621	5786.54
934.797	5565.36
934.973	5774.25
935.148	5796.78
935.324	5321.65
935.5	5141.43
935.675	5893.03
935.851	5338.03
936.027	5170.1
936.202	5084.08
936.378	5518.25
936.553	5139.38
936.729	5321.65
936.904	4750.26
937.08	4668.34
937.255	4625.34
937.431	4473.79
937.606	4414.4
937.782	4524.99
937.957	4602.81
938.133	4473.79
938.308	4217.79
938.483	4459.45
938.659	4277.18
938.834	4250.56
939.009	3939.27
939.185	4174.78
939.36	3937.22
939.535	3525.58
939.71	3996.61
939.886	4201.41
940.061	4144.06
940.236	3976.13
940.411	3548.11
940.586	3886.02
940.761	3951.56
940.937	3412.94
941.112	3421.13
941.287	3757
941.462	3765.19
941.637	3230.67
941.812	3408.84
941.987	3716.04
942.162	3505.1
942.337	3468.24
942.512	3222.48
942.687	3677.13
942.862	3664.84
943.037	3034.07
943.212	2862.04
943.386	3404.75
943.561	3470.28
943.736	3382.22
943.911	3351.5
944.086	3496.91
944.26	3398.6
944.435	3046.35
944.61	3075.03
944.785	3601.35
944.959	3718.09
945.134	3040.21
945.309	2839.51
945.483	3218.38
945.658	3564.49
945.833	2855.89
946.007	2819.03
946.182	3640.26
946.357	2956.24
946.531	2935.76
946.706	2984.91
946.88	2960.34
947.055	3269.58
947.229	2946
947.404	2976.72
947.578	3345.36
947.752	3103.7
947.927	2788.31
948.101	2821.08
948.276	3308.49
948.45	3347.4
948.624	3331.02
948.799	2960.34
948.973	3115.98
949.147	2859.99
949.321	2999.25
949.496	2866.13
949.67	3519.43
949.844	3197.9
950.018	2878.42
950.193	2862.04
950.367	3759.05
950.541	3152.85
950.715	3107.79
950.889	3197.9
951.063	3126.22
951.237	3419.08
951.411	2761.69
951.585	2823.12
951.759	3238.86
951.933	3189.71
952.107	2898.9
952.281	3060.69
952.455	3615.69
952.629	3478.47
952.803	3062.74
952.977	2843.6
953.151	3369.93
953.325	3328.97
953.499	3118.03
953.672	2853.84
953.846	3019.73
954.02	3185.62
954.194	3052.5
954.368	2937.81
954.541	3398.6
954.715	3081.17
954.889	3171.28
955.062	2966.48
955.236	3113.94
955.41	3204.05
955.583	3142.61
955.757	2849.75
955.93	3042.26
956.104	2931.67
956.278	2925.52
956.451	2968.53
956.625	3173.33
956.798	3584.97
956.972	3118.03
957.145	2802.65
957.319	3132.37
957.492	3163.09
957.665	3109.84
957.839	2866.13
958.012	3191.76
958.185	2993.11
958.359	2872.28
958.532	3124.18
958.705	3212.24
958.879	3070.93
959.052	2970.58
959.225	2730.97
959.398	3099.6
959.572	3191.76
959.745	2755.54
959.918	2888.66
960.091	3105.74
960.264	3222.48
960.438	2755.54
960.611	2819.03
960.784	3476.43
960.957	2929.62
961.13	3271.63
961.303	2759.64
961.476	3113.94
961.649	3163.09
961.822	2790.36
961.995	3044.31
962.168	3308.49
962.341	3148.75
962.514	2767.83
962.686	2763.73
962.859	3142.61
963.032	3175.38
963.205	2700.25
963.378	2759.64
963.551	3193.81
963.723	3083.22
963.896	3070.93
964.069	2853.84
964.242	3001.3
964.414	3128.27
964.587	2716.63
964.76	2892.76
964.932	3044.31
965.105	3003.35
965.278	2690.01
965.45	2759.64
965.623	2972.63
965.795	3107.79
965.968	2835.41
966.14	2739.16
966.313	3044.31
966.485	3048.4
966.658	2868.18
966.83	2638.81
967.003	3300.3
967.175	3099.6
967.348	2804.69
967.52	2536.41
967.692	3351.5
967.865	2968.53
968.037	2776.02
968.209	3091.41
968.382	2980.82
968.554	3234.77
968.726	2816.98
968.898	2700.25
969.071	3099.6
969.243	2964.43
969.415	2657.24
969.587	2624.47
969.759	3488.71
969.932	3118.03
970.104	2743.25
970.276	2315.23
970.448	2808.79
970.62	2757.59
970.792	2841.56
970.964	2716.63
971.136	3302.35
971.308	3169.23
971.48	2554.84
971.652	2681.82
971.824	3294.16
971.996	2687.96
972.168	2728.92
972.339	2665.43
972.511	3199.95
972.683	2825.17
972.855	2943.96
973.027	2616.28
973.199	2903
973.37	3062.74
973.542	2819.03
973.714	2698.2
973.886	2845.65
974.057	3093.46
974.229	2382.81
974.401	2513.88
974.572	2460.63
974.744	2399.2
974.915	2456.54
975.087	2511.83
975.259	3230.67
975.43	2593.75
975.602	2536.41
975.773	2393.05
975.945	2577.37
976.116	2886.61
976.288	2348
976.459	2503.64
976.63	2587.61
976.802	2681.82
976.973	2431.96
977.145	2681.82
977.316	3032.02
977.487	3009.49
977.659	2616.28
977.83	2458.59
978.001	3138.51
978.172	2667.48
978.344	2436.06
978.515	2368.48
978.686	2659.29
978.857	2778.07
979.028	2485.21
979.2	2345.95
979.371	2878.42
979.542	2649.05
979.713	2544.6
979.884	2102.24
980.055	2487.26
980.226	2505.69
980.397	2354.14
980.568	2200.54
980.739	2882.52
980.91	2534.36
981.081	2436.06
981.252	2208.73
981.423	2690.01
981.594	2788.31
981.765	2325.47
981.936	2345.95
982.106	2661.34
982.277	2784.21
982.448	2194.4
982.619	2550.75
982.79	2526.17
982.96	2814.93
983.131	2329.56
983.302	2069.47
983.472	2409.44
983.643	2577.37
983.814	2427.87
983.984	2120.67
984.155	2423.77
984.326	2704.34
984.496	2331.61
984.667	2282.46
984.837	2227.17
985.008	2716.63
985.178	2429.91
985.349	2157.54
985.519	2368.48
985.69	2190.3
985.86	2194.4
986.031	2173.92
986.201	2477.02
986.371	2608.09
986.542	2038.75
986.712	2048.99
986.882	2560.98
987.053	2556.89
987.223	2083.81
987.393	2231.26
987.563	2239.45
987.734	2513.88
987.904	2431.96
988.074	2196.45
988.244	2366.43
988.414	2135.01
988.585	2051.04
988.755	2077.66
988.925	2403.29
989.095	2687.96
989.265	2014.18
989.435	2182.11
989.605	2517.98
989.775	2511.83
989.945	2391
990.115	2040.8
990.285	2261.98
990.455	2323.42
990.625	2108.38
990.795	1969.12
990.965	2581.46
991.134	2042.85
991.304	1960.93
991.474	1907.68
991.644	2364.38
991.814	2655.19
991.984	1803.24
992.153	1934.31
992.323	2126.82
992.493	2227.17
992.662	1817.57
992.832	2085.86
993.002	2139.1
993.171	2243.55
993.341	1887.2
993.511	2089.95
993.68	2151.39
993.85	2241.5
994.019	1760.23
994.189	1801.19
994.358	2290.65
994.528	1866.72
994.697	1711.08
994.867	1821.67
995.036	2401.24
995.206	2106.34
995.375	1889.25
995.544	1936.35
995.714	2218.97
995.883	2012.13
996.052	1940.45
996.222	1573.86
996.391	2573.27
996.56	2247.65
996.73	1743.85
996.899	1739.75
997.068	2321.37
997.237	2116.58
997.406	1784.8
997.576	1698.79
997.745	1971.17
997.914	2100.19
998.083	1567.72
998.252	1817.57
998.421	2124.77
998.59	1790.95
998.759	1629.16
998.928	1516.52
999.097	2354.14
999.266	2003.94
999.435	1911.78
999.604	1414.12
999.773	2577.37
999.942	1895.4
1000.111	1516.52
1000.28	1446.89
1000.448	1752.04
1000.617	1836
1000.786	1766.37
1000.955	1383.4
1001.124	1983.46
1001.292	2640.86
1001.461	1532.9
1001.63	1608.68
1001.798	2304.99
1001.967	2110.43
1002.136	1440.75
1002.304	1534.95
1002.473	1993.7
1002.642	1942.5
1002.81	1555.43
1002.979	1389.55
1003.147	2055.14
1003.316	2335.71
1003.484	1539.05
1003.653	1510.38
1003.821	2051.04
1003.99	1911.78
1004.158	1612.78
1004.327	1541.1
1004.495	1864.68
1004.663	1625.06
1004.832	1588.2
1005	1264.62
1005.168	1811.43
1005.337	1833.96
1005.505	1305.58
1005.673	1627.11
1005.842	1991.65
1006.01	1938.4
1006.178	1401.83
1006.346	1453.03
1006.514	1887.2
1006.683	2018.27
1006.851	1420.27
1007.019	1291.24
1007.187	1432.55
1007.355	1381.35
1007.523	1264.62
1007.691	1274.86
1007.859	1407.98
1008.027	1969.12
1008.195	1338.35
1008.363	1154.03
1008.531	1829.86
1008.699	1620.97
1008.867	1371.12
1009.035	1281
1009.203	2003.94
1009.37	1641.45
1009.538	1338.35
1009.706	1743.85
1009.874	1627.11
1010.042	1602.54
1010.209	1158.13
1010.377	1289.2
1010.545	1768.42
1010.713	1565.67
1010.88	1194.99
1011.048	1301.48
1011.216	1405.93
1011.383	1909.73
1011.551	1246.19
1011.718	1256.43
1011.886	1895.4
1012.054	1575.91
1012.221	1254.38
1012.389	1244.14
1012.556	1348.59
1012.724	2026.47
1012.891	1420.27
1013.058	986.1
1013.226	1653.73
1013.393	1715.17
1013.561	1100.78
1013.728	1094.64
1013.895	1727.46
1014.063	1610.73
1014.23	963.57
1014.397	1084.4
1014.565	1801.19
1014.732	1389.55
1014.899	1123.31
1015.066	1111.02
1015.233	1498.09
1015.401	1539.05
1015.568	1098.74
1015.735	1172.46
1015.902	1364.97
1016.069	1526.76
1016.236	1090.54
1016.403	984.05
1016.57	1240.05
1016.737	1592.3
1016.904	1133.55
1017.071	992.24
1017.238	1223.66
1017.405	1571.82
1017.572	1014.77
1017.739	1246.19
1017.906	1623.02
1018.073	1602.54
1018.24	926.71
1018.407	1033.2
1018.573	1606.63
1018.74	1324.01
1018.907	1102.83
1019.074	818.16
1019.241	1620.97
1019.407	1326.06
1019.574	961.52
1019.741	879.6
1019.907	1338.35
1020.074	1500.14
1020.241	713.72
1020.407	879.6
1020.574	1440.75
1020.74	1397.74
1020.907	947.19
1021.073	857.07
1021.24	1868.77
1021.406	1649.64
1021.573	826.36
1021.739	861.17
1021.906	1469.42
1022.072	1266.67
1022.239	908.27
1022.405	953.33
1022.571	1252.33
1022.738	971.76
1022.904	756.72
1023.07	934.9
1023.237	1270.76
1023.403	1487.85
1023.569	861.17
1023.735	916.47
1023.902	1311.72
1024.068	1299.44
1024.234	623.61
1024.4	826.36
1024.566	1332.2
1024.732	1362.92
1024.898	789.49
1025.065	683
1025.231	1422.31
1025.397	1164.27
1025.563	832.5
1025.729	781.3
1025.895	805.88
1026.061	961.52
1026.227	617.46
1026.392	781.3
1026.558	1410.03
1026.724	1324.01
1026.89	719.86
1027.056	902.13
1027.222	1293.29
1027.388	988.14
1027.553	752.63
1027.719	701.43
1027.885	1543.14
1028.051	1205.23
1028.216	484.34
1028.382	744.44
1028.548	1250.28
1028.713	945.14
1028.879	441.34
1029.045	857.07
1029.21	1405.93
1029.376	1317.87
1029.541	719.86
1029.707	789.49
1029.873	1186.8
1030.038	1285.1
1030.204	654.33
1030.369	695.29
1030.534	1242.09
1030.7	965.62
1030.865	752.63
1031.031	617.46
1031.196	1219.57
1031.361	1117.17
1031.527	629.75
1031.692	599.03
1031.857	752.63
1032.023	1149.93
1032.188	517.11
1032.353	715.77
1032.518	1420.27
1032.684	998.38
1032.849	496.63
1033.014	611.32
1033.179	1219.57
1033.344	1096.69
1033.509	744.44
1033.674	625.65
1033.839	1289.2
1034.004	1102.83
1034.17	551.93
1034.335	482.3
1034.5	838.64
1034.664	867.31
1034.829	576.5
1034.994	685.05
1035.159	998.38
1035.324	1098.74
1035.489	609.27
1035.654	527.35
1035.819	1299.44
1035.984	957.43
1036.148	660.47
1036.313	592.89
1036.478	1235.95
1036.643	846.84
1036.807	453.63
1036.972	545.78
1037.137	1221.61
1037.301	852.98
1037.466	367.61
1037.631	709.62
1037.795	1086.45
1037.96	949.23
1038.124	631.8
1038.289	437.24
1038.454	1006.58
1038.618	1035.25
1038.783	527.35
1038.947	545.78
1039.111	973.81
1039.276	859.12
1039.44	582.65
1039.605	955.38
1039.769	832.5
1039.933	924.66
1040.098	599.03
1040.262	732.15
1040.426	1074.16
1040.591	1012.72
1040.755	373.75
1040.919	480.25
1041.083	955.38
1041.248	756.72
1041.412	322.56
1041.576	404.47
1041.74	754.68
1041.904	998.38
1042.068	347.13
1042.232	539.64
1042.397	1117.17
1042.561	848.88
1042.725	191.49
1042.889	588.79
1043.053	986.1
1043.217	932.85
1043.381	488.44
1043.544	279.55
1043.708	1070.06
1043.872	592.89
1044.036	134.14
1044.2	293.88
1044.364	1006.58
1044.528	1156.08
1044.691	3273.68
1044.855	269.31
1045.019	1035.25
1045.183	986.1
1045.346	480.25
1045.51	340.99
1045.674	959.47
1045.837	932.85
1046.001	394.23
1046.165	343.03
1046.328	1283.05
1046.492	840.69
1046.655	513.02
1046.819	412.67
1046.983	615.41
1047.146	889.84
1047.31	543.74
1047.473	242.68
1047.636	728.05
1047.8	590.84
1047.963	412.67
1048.127	257.02
1048.29	609.27
