Data from Ink_Intensity_USB4F045381__71__00071.txt Node

Date: Mon Jul 17 10:38:04 EDT 2023
User: mmckonesweet
Spectrometer: USB4F04538
Trigger mode: 4
Integration Time (sec): 9.000000E-1
Scans to average: 1
Electric dark correction enabled: true
Nonlinearity correction enabled: false
Boxcar width: 0
XAxis mode: Wavelengths
Number of Pixels in Spectrum: 3648
>>>>>Begin Spectral Data<<<<<
345.52	-1019.21
345.736	-1019.21
345.952	-1019.21
346.168	-1097.03
346.384	-1004.87
346.6	-136.53
346.816	-300.37
347.032	-157.01
347.248	291.49
347.464	-243.03
347.68	-89.43
347.896	92.84
348.112	418.47
348.328	-101.72
348.544	-58.71
348.76	-30.04
348.975	314.02
349.191	-271.7
349.407	-245.07
349.623	6.83
349.839	-13.65
350.055	-114
350.27	8.87
350.486	82.6
350.702	336.55
350.918	223.91
351.133	-187.73
351.349	160.42
351.565	436.9
351.781	-251.22
351.996	17.07
352.212	275.11
352.428	-142.68
352.644	-216.4
352.859	-261.46
353.075	316.07
353.291	58.03
353.506	-128.34
353.722	-179.54
353.938	-48.47
354.153	410.28
354.369	90.79
354.584	-240.98
354.8	254.63
355.016	-402.77
355.231	-259.41
355.447	-77.14
355.662	189.1
355.878	793.25
356.093	-359.76
356.309	-32.08
356.524	-316.75
356.74	258.73
356.955	-212.31
357.171	-68.95
357.386	152.23
357.602	-273.75
357.817	-101.72
358.033	-232.79
358.248	311.97
358.464	111.27
358.679	-144.72
358.895	-324.94
359.11	-36.18
359.325	291.49
359.541	37.55
359.756	-25.94
359.972	-363.86
360.187	185
360.402	-165.2
360.618	-144.72
360.833	989.85
361.048	51.88
361.264	-175.44
361.479	-107.86
361.694	-38.23
361.909	111.27
362.125	-214.35
362.34	-171.35
362.555	199.34
362.77	72.36
362.986	-290.13
363.201	-216.4
363.416	148.14
363.631	35.5
363.847	-193.87
364.062	-179.54
364.277	141.99
364.492	113.32
364.707	-200.02
364.922	-396.62
365.138	232.1
365.353	332.45
365.568	-259.41
365.783	-134.48
365.998	82.6
366.213	551.59
366.428	-283.99
366.643	-11.61
366.858	187.05
367.073	144.04
367.288	-81.24
367.503	-286.03
367.718	148.14
367.933	234.15
368.148	-314.7
368.363	-122.2
368.578	-21.85
368.793	422.56
369.008	-197.97
369.223	-320.85
369.438	189.1
369.653	350.89
369.868	-265.55
370.083	-286.03
370.298	109.22
370.513	438.95
370.728	-1.37
370.943	-183.63
371.157	-150.87
371.372	533.15
371.587	-312.66
371.802	-226.64
372.017	10.92
372.232	453.28
372.446	-32.08
372.661	-384.34
372.876	250.53
373.091	113.32
373.306	-111.96
373.52	-247.12
373.735	-154.96
373.95	338.6
374.165	-132.44
374.379	-220.5
374.594	-173.39
374.809	137.9
375.023	35.5
375.238	-236.88
375.453	107.18
375.667	-206.16
375.882	-224.59
376.097	-200.02
376.311	4.78
376.526	-3.41
376.741	-312.66
376.955	94.89
377.17	518.82
377.384	445.09
377.599	-93.52
377.813	-310.61
378.028	547.49
378.242	125.61
378.457	-109.91
378.672	-374.1
378.886	29.35
379.101	-79.19
379.315	-400.72
379.53	-114
379.744	168.62
379.958	146.09
380.173	-132.44
380.387	-212.31
380.602	98.99
380.816	-187.73
381.031	-206.16
381.245	-140.63
381.459	219.82
381.674	2638.47
381.888	-204.11
382.103	-3.41
382.317	-200.02
382.531	424.61
382.746	-85.33
382.96	-197.97
383.174	-169.3
383.388	488.1
383.603	37.55
383.817	-228.69
384.031	133.8
384.246	453.28
384.46	-1.37
384.674	242.34
384.888	45.74
385.103	72.36
385.317	-290.13
385.531	-42.32
385.745	266.92
385.959	254.63
386.174	-230.74
386.388	-322.9
386.602	-3.41
386.816	-165.2
387.03	-134.48
387.244	-206.16
387.458	78.51
387.672	240.29
387.887	-277.84
388.101	-347.47
388.315	326.31
388.529	160.42
388.743	-240.98
388.957	-208.21
389.171	242.34
389.385	-200.02
389.599	-222.55
389.813	86.7
390.027	178.86
390.241	610.98
390.455	-122.2
390.669	-214.35
390.883	-48.47
391.097	340.65
391.311	-13.65
391.525	-195.92
391.738	215.72
391.952	119.46
392.166	-81.24
392.38	-265.55
392.594	262.82
392.808	289.45
393.022	-140.63
393.236	-179.54
393.449	164.52
393.663	156.33
393.877	-339.28
394.091	-126.29
394.305	-187.73
394.518	-83.28
394.732	-286.03
394.946	-189.78
395.16	410.28
395.373	49.83
395.587	-232.79
395.801	-243.03
396.015	287.4
396.228	160.42
396.442	-302.42
396.656	-337.23
396.869	371.36
397.083	408.23
397.297	-144.72
397.51	-177.49
397.724	309.93
397.938	123.56
398.151	-396.62
398.365	-302.42
398.578	252.58
398.792	328.36
399.005	-50.52
399.219	-105.81
399.433	51.88
399.646	185
399.86	-75.09
400.073	-1.37
400.287	180.9
400.5	-23.89
400.714	35.5
400.927	-122.2
401.141	252.58
401.354	1092.25
401.567	252.58
401.781	-290.13
401.994	242.34
402.208	625.31
402.421	-154.96
402.635	-140.63
402.848	31.4
403.061	193.19
403.275	-56.66
403.488	-294.22
403.701	449.19
403.915	266.92
404.128	-23.89
404.341	-161.11
404.555	180.9
404.768	-64.85
404.981	-17.75
405.195	-269.65
405.408	404.13
405.621	252.58
405.834	27.31
406.048	-185.68
406.261	373.41
406.474	285.35
406.687	-243.03
406.9	-23.89
407.114	62.12
407.327	111.27
407.54	-320.85
407.753	-341.33
407.966	-179.54
408.179	168.62
408.392	-228.69
408.605	-437.58
408.819	162.47
409.032	193.19
409.245	-222.55
409.458	49.83
409.671	168.62
409.884	170.66
410.097	-335.18
410.31	-77.14
410.523	234.15
410.736	-46.42
410.949	-140.63
411.162	-136.53
411.375	350.89
411.588	295.59
411.801	-38.23
412.014	-238.93
412.227	-44.37
412.44	-83.28
412.653	-234.83
412.865	-89.43
413.078	283.3
413.291	135.85
413.504	-93.52
413.717	-220.5
413.93	223.91
414.143	-116.05
414.356	-126.29
414.568	-353.62
414.781	295.59
414.994	66.22
415.207	-150.87
415.42	-132.44
415.632	264.87
415.845	533.15
416.058	-312.66
416.271	-363.86
416.483	51.88
416.696	451.24
416.909	-216.4
417.121	-370
417.334	131.75
417.547	488.1
417.759	-214.35
417.972	-304.46
418.185	-50.52
418.397	246.44
418.61	-175.44
418.823	-236.88
419.035	424.61
419.248	8.87
419.46	-136.53
419.673	-73.04
419.885	125.61
420.098	4.78
420.311	-128.34
420.523	-388.43
420.736	115.37
420.948	53.93
421.161	-171.35
421.373	-329.04
421.586	66.22
421.798	-189.78
422.01	-374.1
422.223	-50.52
422.435	-169.3
422.648	209.58
422.86	-195.92
423.073	-216.4
423.285	256.68
423.497	-304.46
423.71	-232.79
423.922	-253.27
424.134	111.27
424.347	367.27
424.559	0.68
424.771	58.03
424.984	-50.52
425.196	121.51
425.408	-345.42
425.621	-290.13
425.833	236.2
426.045	273.06
426.257	-359.76
426.47	-126.29
426.682	41.64
426.894	94.89
427.106	-197.97
427.318	-238.93
427.531	-118.1
427.743	246.44
427.955	-269.65
428.167	250.53
428.379	144.04
428.591	8.87
428.804	-83.28
429.016	-251.22
429.228	-109.91
429.44	148.14
429.652	43.69
429.864	-322.9
430.076	-68.95
430.288	33.45
430.5	-130.39
430.712	-105.81
430.924	287.4
431.136	82.6
431.348	-312.66
431.56	-167.25
431.772	-89.43
431.984	-103.76
432.196	-267.6
432.408	-191.83
432.62	-19.8
432.832	107.18
433.044	103.08
433.256	-68.95
433.468	162.47
433.679	-320.85
433.891	-292.18
434.103	-58.71
434.315	334.5
434.527	119.46
434.739	-79.19
434.95	-193.87
435.162	215.72
435.374	-99.67
435.586	-152.92
435.798	-304.46
436.009	-228.69
436.221	-23.89
436.433	-187.73
436.645	-204.11
436.856	-50.52
437.068	234.15
437.28	-283.99
437.491	68.27
437.703	70.31
437.915	96.94
438.126	-214.35
438.338	35.5
438.55	-60.76
438.761	123.56
438.973	-222.55
439.184	-232.79
439.396	98.99
439.608	111.27
439.819	-214.35
440.031	-44.37
440.242	121.51
440.454	217.77
440.665	-171.35
440.877	-109.91
441.088	180.9
441.3	-42.32
441.511	-351.57
441.723	-124.24
441.934	74.41
442.146	70.31
442.357	-36.18
442.569	70.31
442.78	135.85
442.991	449.19
443.203	150.18
443.414	-322.9
443.626	352.93
443.837	-107.86
444.048	-236.88
444.26	-326.99
444.471	41.64
444.682	217.77
444.894	-386.38
445.105	-359.76
445.316	268.97
445.528	70.31
445.739	-163.15
445.95	-134.48
446.161	35.5
446.373	303.78
446.584	-154.96
446.795	-208.21
447.006	170.66
447.217	357.03
447.429	-306.51
447.64	-279.89
447.851	375.46
448.062	62.12
448.273	-361.81
448.484	-253.27
448.695	168.62
448.907	-111.96
449.118	-118.1
449.329	-5.46
449.54	-101.72
449.751	-148.82
449.962	-208.21
450.173	-218.45
450.384	287.4
450.595	262.82
450.806	-142.68
451.017	-218.45
451.228	342.69
451.439	185
451.65	-251.22
451.861	-462.16
452.072	-157.01
452.283	-99.67
452.494	-68.95
452.705	-263.51
452.915	481.96
453.126	101.03
453.337	-97.62
453.548	-302.42
453.759	242.34
453.97	459.43
454.181	-17.75
454.391	-286.03
454.602	43.69
454.813	123.56
455.024	-171.35
455.235	-286.03
455.445	68.27
455.656	148.14
455.867	-46.42
456.078	-279.89
456.288	-91.48
456.499	62.12
456.71	-255.31
456.921	23.21
457.131	217.77
457.342	82.6
457.553	-81.24
457.763	-245.07
457.974	125.61
458.184	205.48
458.395	-294.22
458.606	-277.84
458.816	219.82
459.027	428.71
459.237	-75.09
459.448	-370
459.659	330.41
459.869	606.88
460.08	-370
460.29	-56.66
460.501	418.47
460.711	-138.58
460.922	-408.91
461.132	-279.89
461.343	668.32
461.553	-218.45
461.764	-197.97
461.974	-222.55
462.184	172.71
462.395	168.62
462.605	-224.59
462.816	-310.61
463.026	31.4
463.236	283.3
463.447	-343.38
463.657	-171.35
463.867	225.96
464.078	35.5
464.288	-171.35
464.498	-169.3
464.709	45.74
464.919	-89.43
465.129	-230.74
465.339	-288.08
465.55	109.22
465.76	176.81
465.97	-189.78
466.18	-263.51
466.391	219.82
466.601	94.89
466.811	-220.5
467.021	-372.05
467.231	154.28
467.441	305.83
467.651	-208.21
467.862	-437.58
468.072	2.73
468.282	271.01
468.492	-286.03
468.702	-222.55
468.912	8.87
469.122	596.64
469.332	25.26
469.542	-288.08
469.752	172.71
469.962	45.74
470.172	-261.46
470.382	-316.75
470.592	137.9
470.802	209.58
471.012	-173.39
471.222	-273.75
471.432	219.82
471.642	127.66
471.852	-75.09
472.062	-300.37
472.272	-25.94
472.482	-263.51
472.691	-400.72
472.901	-331.09
473.111	60.07
473.321	565.92
473.531	-341.33
473.741	-181.59
473.95	170.66
474.16	146.09
474.37	-154.96
474.58	-396.62
474.79	545.44
474.999	193.19
475.209	-247.12
475.419	-283.99
475.628	-19.8
475.838	258.73
476.048	-218.45
476.258	-380.24
476.467	328.36
476.677	-144.72
476.886	-71
477.096	-136.53
477.306	-124.24
477.515	301.73
477.725	-169.3
477.935	-286.03
478.144	314.02
478.354	-85.33
478.563	-257.36
478.773	-257.36
478.982	240.29
479.192	246.44
479.401	-157.01
479.611	-314.7
479.82	-181.59
480.03	23.21
480.239	-318.8
480.449	-351.57
480.658	457.38
480.868	-169.3
481.077	-146.77
481.287	-136.53
481.496	80.55
481.705	328.36
481.915	17.07
482.124	12.97
482.333	53.93
482.543	336.55
482.752	-167.25
482.961	-318.8
483.171	98.99
483.38	78.51
483.589	-148.82
483.799	-290.13
484.008	-38.23
484.217	232.1
484.426	-281.94
484.636	-345.42
484.845	33.45
485.054	-265.55
485.263	8.87
485.472	-269.65
485.682	359.08
485.891	21.16
486.1	-396.62
486.309	-222.55
486.518	113.32
486.727	354.98
486.936	-326.99
487.146	-150.87
487.355	252.58
487.564	-228.69
487.773	-251.22
487.982	-210.26
488.191	-85.33
488.4	-60.76
488.609	-189.78
488.818	-230.74
489.027	570.02
489.236	371.36
489.445	-228.69
489.654	-382.29
489.863	189.1
490.072	17.07
490.281	45.74
490.49	-290.13
490.698	316.07
490.907	397.99
491.116	-169.3
491.325	-384.34
491.534	336.55
491.743	-1.37
491.952	-134.48
492.16	-165.2
492.369	166.57
492.578	156.33
492.787	-62.8
492.996	-171.35
493.204	-77.14
493.413	443.04
493.622	-449.87
493.831	-408.91
494.039	375.46
494.248	-154.96
494.457	-273.75
494.665	-437.58
494.874	168.62
495.083	508.58
495.291	-179.54
495.5	-339.28
495.709	191.14
495.917	12.97
496.126	-150.87
496.335	-396.62
496.543	-134.48
496.752	111.27
496.96	8.87
497.169	-431.44
497.377	-21.85
497.586	258.73
497.794	-114
498.003	-515.41
498.211	-15.7
498.42	389.8
498.628	-265.55
498.837	-361.81
499.045	88.75
499.254	-54.61
499.462	-277.84
499.671	-331.09
499.879	430.76
500.087	221.86
500.296	-357.71
500.504	-222.55
500.713	78.51
500.921	590.5
501.129	-294.22
501.338	-257.36
501.546	58.03
501.754	98.99
501.962	-208.21
502.171	-402.77
502.379	117.42
502.587	416.42
502.795	-150.87
503.004	-316.75
503.212	-3.41
503.42	273.06
503.628	-257.36
503.837	-189.78
504.045	115.37
504.253	316.07
504.461	-314.7
504.669	-396.62
504.877	117.42
505.085	385.7
505.294	-458.06
505.502	-134.48
505.71	19.11
505.918	152.23
506.126	-263.51
506.334	-355.66
506.542	-13.65
506.75	109.22
506.958	-167.25
507.166	-251.22
507.374	12.97
507.582	477.86
507.79	-150.87
507.998	-290.13
508.206	74.41
508.414	133.8
508.622	-286.03
508.83	-240.98
509.037	346.79
509.245	-77.14
509.453	-302.42
509.661	-388.43
509.869	195.24
510.077	-23.89
510.285	-130.39
510.492	-552.27
510.7	606.88
510.908	-109.91
511.116	-263.51
511.324	-306.51
511.531	-40.28
511.739	19.11
511.947	-124.24
512.155	21.16
512.362	27.31
512.57	-263.51
512.778	-347.47
512.985	-372.05
513.193	203.43
513.401	293.54
513.608	-183.63
513.816	-382.29
514.024	119.46
514.231	367.27
514.439	-294.22
514.646	-333.14
514.854	238.25
515.061	283.3
515.269	-269.65
515.477	-243.03
515.684	-238.93
515.892	289.45
516.099	-413.01
516.307	-402.77
516.514	248.49
516.722	477.86
516.929	-245.07
517.136	-351.57
517.344	283.3
517.551	76.46
517.759	-294.22
517.966	-191.83
518.173	-36.18
518.381	29.35
518.588	-183.63
518.796	-324.94
519.003	185
519.21	10.92
519.418	-312.66
519.625	-68.95
519.832	-56.66
520.039	53.93
520.247	-415.06
520.454	-245.07
520.661	170.66
520.868	254.63
521.076	-236.88
521.283	-220.5
521.49	570.02
521.697	117.42
521.904	-204.11
522.112	-216.4
522.319	193.19
522.526	78.51
522.733	-370
522.94	-320.85
523.147	-17.75
523.354	193.19
523.561	-400.72
523.768	-68.95
523.975	238.25
524.183	-9.56
524.39	-197.97
524.597	-460.11
524.804	27.31
525.011	-142.68
525.218	-232.79
525.425	-310.61
525.632	289.45
525.838	-159.06
526.045	-283.99
526.252	-359.76
526.459	948.89
526.666	828.06
526.873	-347.47
527.08	-281.94
527.287	303.78
527.494	201.38
527.701	-410.96
527.907	-329.04
528.114	90.79
528.321	-11.61
528.528	-243.03
528.735	-400.72
528.941	-101.72
529.148	-111.96
529.355	-212.31
529.562	-290.13
529.768	375.46
529.975	-66.9
530.182	-290.13
530.388	-359.76
530.595	178.86
530.802	-257.36
531.008	-240.98
531.215	-230.74
531.422	561.83
531.628	737.95
531.835	-245.07
532.042	-157.01
532.248	-146.77
532.455	4.78
532.661	-243.03
532.868	-292.18
533.074	131.75
533.281	307.88
533.487	-214.35
533.694	-372.05
533.9	-230.74
534.107	103.08
534.313	-388.43
534.52	-320.85
534.726	250.53
534.933	506.53
535.139	-398.67
535.345	-431.44
535.552	88.75
535.758	-85.33
535.965	-300.37
536.171	-294.22
536.377	187.05
536.584	361.13
536.79	-331.09
536.996	-116.05
537.203	70.31
537.409	150.18
537.615	-146.77
537.821	-107.86
538.028	146.09
538.234	137.9
538.44	-288.08
538.646	-191.83
538.853	127.66
539.059	-140.63
539.265	160.42
539.471	-408.91
539.677	271.01
539.883	-136.53
540.09	-306.51
540.296	131.75
540.502	-54.61
540.708	-165.2
540.914	-103.76
541.12	-281.94
541.326	107.18
541.532	-44.37
541.738	-267.6
541.944	-218.45
542.15	207.53
542.356	-64.85
542.562	-318.8
542.768	-167.25
542.974	549.54
543.18	449.19
543.386	-271.7
543.592	-482.64
543.798	305.83
544.004	254.63
544.21	-339.28
544.415	-175.44
544.621	94.89
544.827	219.82
545.033	-464.21
545.239	-81.24
545.445	-222.55
545.651	92.84
545.856	-240.98
546.062	-281.94
546.268	-68.95
546.474	-27.99
546.679	-304.46
546.885	-251.22
547.091	-173.39
547.297	514.72
547.502	-204.11
547.708	-380.24
547.914	-212.31
548.119	178.86
548.325	-396.62
548.531	-415.06
548.736	406.18
548.942	-157.01
549.147	-347.47
549.353	-71
549.559	244.39
549.764	121.51
549.97	-288.08
550.175	-281.94
550.381	193.19
550.586	-93.52
550.792	-208.21
550.997	-245.07
551.203	172.71
551.408	117.42
551.614	-394.58
551.819	-294.22
552.025	471.72
552.23	377.51
552.435	-404.82
552.641	-189.78
552.846	-218.45
553.052	266.92
553.257	-109.91
553.462	-318.8
553.668	-224.59
553.873	254.63
554.078	-392.53
554.283	-273.75
554.489	129.7
554.694	-11.61
554.899	-370
555.105	-62.8
555.31	189.1
555.515	185
555.72	-232.79
555.925	-298.32
556.131	205.48
556.336	-159.06
556.541	-304.46
556.746	-372.05
556.951	275.11
557.156	357.03
557.361	-177.49
557.567	-255.31
557.772	490.15
557.977	162.47
558.182	-240.98
558.387	-314.7
558.592	-177.49
558.797	264.87
559.002	-163.15
559.207	-224.59
559.412	27.31
559.617	434.85
559.822	-367.95
560.027	-306.51
560.232	-15.7
560.437	131.75
560.642	-382.29
560.847	-337.23
561.051	74.41
561.256	39.59
561.461	-212.31
561.666	-410.96
561.871	31.4
562.076	230.06
562.281	-253.27
562.485	-382.29
562.69	141.99
562.895	309.93
563.1	-271.7
563.305	-400.72
563.509	311.97
563.714	586.4
563.919	-349.52
564.123	-257.36
564.328	-66.9
564.533	287.4
564.737	-187.73
564.942	-279.89
565.147	340.65
565.351	488.1
565.556	-132.44
565.761	-195.92
565.965	109.22
566.17	-152.92
566.374	-300.37
566.579	-402.77
566.784	62.12
566.988	-107.86
567.193	-400.72
567.397	-343.38
567.602	-372.05
567.806	-17.75
568.011	-370
568.215	-277.84
568.42	-30.04
568.624	-25.94
568.828	-298.32
569.033	-36.18
569.237	129.7
569.442	152.23
569.646	-443.73
569.85	-255.31
570.055	-19.8
570.259	96.94
570.463	-58.71
570.668	-290.13
570.872	-40.28
571.076	-54.61
571.281	-144.72
571.485	-179.54
571.689	-9.56
571.893	266.92
572.098	-148.82
572.302	-275.79
572.506	90.79
572.71	-5.46
572.914	-279.89
573.119	-263.51
573.323	410.28
573.527	260.77
573.731	-286.03
573.935	-312.66
574.139	144.04
574.343	-187.73
574.547	-281.94
574.751	-281.94
574.955	367.27
575.159	316.07
575.364	-292.18
575.568	-370
575.772	-54.61
575.976	236.2
576.18	-290.13
576.383	-470.35
576.587	279.21
576.791	103.08
576.995	-460.11
577.199	-435.53
577.403	244.39
577.607	176.81
577.811	-433.49
578.015	-154.96
578.219	117.42
578.422	170.66
578.626	-181.59
578.83	-105.81
579.034	363.17
579.238	25.26
579.442	-390.48
579.645	78.51
579.849	-19.8
580.053	-15.7
580.257	-265.55
580.46	-189.78
580.664	172.71
580.868	137.9
581.071	-185.68
581.275	-181.59
581.479	-234.83
581.682	123.56
581.886	-316.75
582.09	-138.58
582.293	281.25
582.497	232.1
582.7	-52.56
582.904	-359.76
583.107	111.27
583.311	-15.7
583.515	-230.74
583.718	-257.36
583.922	154.28
584.125	385.7
584.329	-333.14
584.532	-101.72
584.735	375.46
584.939	90.79
585.142	-331.09
585.346	-277.84
585.549	86.7
585.753	-23.89
585.956	-226.64
586.159	-154.96
586.363	467.62
586.566	27.31
586.769	-333.14
586.973	-382.29
587.176	178.86
587.379	242.34
587.582	21.16
587.786	-114
587.989	53.93
588.192	539.3
588.395	-202.07
588.599	66.22
588.802	6.83
589.005	197.29
589.208	-275.79
589.411	-249.17
589.615	152.23
589.818	344.74
590.021	21.16
590.224	-206.16
590.427	152.23
590.63	150.18
590.833	-449.87
591.036	-308.56
591.239	-36.18
591.442	-120.15
591.645	-109.91
591.848	-263.51
592.051	62.12
592.254	250.53
592.457	-286.03
592.66	-200.02
592.863	-134.48
593.066	119.46
593.269	-294.22
593.472	-197.97
593.675	-189.78
593.878	228.01
594.081	-134.48
594.284	-310.61
594.486	139.94
594.689	113.32
594.892	-183.63
595.095	-200.02
595.298	94.89
595.5	-85.33
595.703	-116.05
595.906	-173.39
596.109	293.54
596.311	225.96
596.514	-460.11
596.717	-206.16
596.92	242.34
597.122	162.47
597.325	-437.58
597.528	-324.94
597.73	340.65
597.933	-5.46
598.136	-257.36
598.338	-539.98
598.541	29.35
598.743	228.01
598.946	-171.35
599.148	-247.12
599.351	264.87
599.554	189.1
599.756	-134.48
599.959	-304.46
600.161	209.58
600.363	553.63
600.566	-27.99
600.768	-300.37
600.971	473.76
601.173	193.19
601.376	-230.74
601.578	-247.12
601.78	178.86
601.983	658.08
602.185	-298.32
602.388	-89.43
602.59	76.46
602.792	-109.91
602.995	-34.13
603.197	-271.7
603.399	185
603.601	131.75
603.804	-283.99
604.006	-279.89
604.208	47.79
604.41	-460.11
604.613	-64.85
604.815	-329.04
605.017	574.11
605.219	-134.48
605.421	98.99
605.623	-310.61
605.826	400.04
606.028	369.32
606.23	-236.88
606.432	-230.74
606.634	434.85
606.836	332.45
607.038	-326.99
607.24	-23.89
607.442	29.35
607.644	2.73
607.846	-87.38
608.048	-294.22
608.25	281.25
608.452	-89.43
608.654	-216.4
608.856	-460.11
609.058	-64.85
609.26	176.81
609.462	-97.62
609.664	-157.01
609.866	484
610.067	217.77
610.269	-32.08
610.471	-89.43
610.673	-3.41
610.875	217.77
611.077	-376.14
611.278	-109.91
611.48	27.31
611.682	486.05
611.884	-150.87
612.085	-130.39
612.287	-216.4
612.489	201.38
612.69	-410.96
612.892	-224.59
613.094	275.11
613.295	-5.46
613.497	-232.79
613.699	-197.97
613.9	307.88
614.102	332.45
614.304	-249.17
614.505	-410.96
614.707	58.03
614.908	47.79
615.11	-410.96
615.311	-159.06
615.513	180.9
615.714	209.58
615.916	-394.58
616.117	-159.06
616.319	27.31
616.52	252.58
616.722	-206.16
616.923	-286.03
617.124	328.36
617.326	174.76
617.527	-114
617.729	53.93
617.93	176.81
618.131	246.44
618.333	-206.16
618.534	-179.54
618.735	-101.72
618.937	375.46
619.138	-361.81
619.339	-329.04
619.54	107.18
619.742	-56.66
619.943	-116.05
620.144	-197.97
620.345	262.82
620.546	262.82
620.748	-290.13
620.949	-118.1
621.15	43.69
621.351	160.42
621.552	-232.79
621.753	-306.51
621.954	-320.85
622.155	471.72
622.356	-296.27
622.558	-64.85
622.759	-3.41
622.96	490.15
623.161	-138.58
623.362	-222.55
623.563	96.94
623.764	64.17
623.965	-191.83
624.166	-54.61
624.366	-48.47
624.567	174.76
624.768	-431.44
624.969	-253.27
625.17	-9.56
625.371	123.56
625.572	-206.16
625.773	-255.31
625.973	234.15
626.174	189.1
626.375	-56.66
626.576	-154.96
626.777	158.38
626.977	594.59
627.178	-230.74
627.379	-214.35
627.58	10.92
627.78	111.27
627.981	-136.53
628.182	-126.29
628.382	287.4
628.583	-269.65
628.784	-359.76
628.984	-126.29
629.185	266.92
629.386	240.29
629.586	-81.24
629.787	-304.46
629.987	225.96
630.188	-19.8
630.388	-183.63
630.589	-171.35
630.79	688.8
630.99	74.41
631.191	-232.79
631.391	-97.62
631.591	213.67
631.792	516.77
631.992	-83.28
632.193	-236.88
632.393	481.96
632.594	131.75
632.794	-208.21
632.994	-87.38
633.195	15.02
633.395	49.83
633.595	-234.83
633.796	62.12
633.996	-93.52
634.196	348.84
634.397	-345.42
634.597	-105.81
634.797	-105.81
634.997	426.66
635.198	49.83
635.398	-277.84
635.598	131.75
635.798	418.47
635.998	228.01
636.199	-222.55
636.399	-122.2
636.599	-126.29
636.799	-189.78
636.999	45.74
637.199	213.67
637.399	275.11
637.599	-154.96
637.799	-68.95
637.999	-118.1
638.199	385.7
638.399	-277.84
638.599	-253.27
638.799	174.76
638.999	539.3
639.199	-89.43
639.399	-58.71
639.599	418.47
639.799	-134.48
639.999	-281.94
640.199	-339.28
640.399	111.27
640.599	189.1
640.799	-87.38
640.998	21.16
641.198	344.74
641.398	232.1
641.598	-114
641.798	-138.58
641.997	1041.05
642.197	109.22
642.397	-36.18
642.597	-197.97
642.796	242.34
642.996	410.28
643.196	33.45
643.395	-290.13
643.595	119.46
643.795	-263.51
643.994	-185.68
644.194	-85.33
644.394	271.01
644.593	129.7
644.793	-308.56
644.992	-11.61
645.192	189.1
645.392	-257.36
645.591	-79.19
645.791	-77.14
645.99	252.58
646.19	-34.13
646.389	-134.48
646.589	-173.39
646.788	164.52
646.987	180.9
647.187	-68.95
647.386	35.5
647.586	31.4
647.785	293.54
647.984	-206.16
648.184	-83.28
648.383	-122.2
648.582	2.73
648.782	-77.14
648.981	-36.18
649.18	-122.2
649.38	70.31
649.579	-216.4
649.778	-222.55
649.977	137.9
650.177	107.18
650.376	-275.79
650.575	-281.94
650.774	422.56
650.973	-71
651.173	-367.95
651.372	-150.87
651.571	82.6
651.77	256.68
651.969	-269.65
652.168	-54.61
652.367	-202.07
652.566	12.97
652.765	-228.69
652.964	29.35
653.163	604.83
653.362	66.22
653.561	-189.78
653.76	-216.4
653.959	-91.48
654.158	154.28
654.357	72.36
654.556	-218.45
654.755	168.62
654.954	213.67
655.153	-163.15
655.352	-114
655.551	340.65
655.749	-38.23
655.948	-97.62
656.147	-128.34
656.346	148.14
656.545	64.17
656.743	-136.53
656.942	-134.48
657.141	31.4
657.34	-101.72
657.538	-118.1
657.737	-204.11
657.936	-15.7
658.135	209.58
658.333	-230.74
658.532	39.59
658.731	479.91
658.929	193.19
659.128	78.51
659.326	-238.93
659.525	389.8
659.724	17.07
659.922	-376.14
660.121	-236.88
660.319	105.13
660.518	-167.25
660.716	-247.12
660.915	-249.17
661.113	365.22
661.312	-208.21
661.51	4.78
661.709	-245.07
661.907	162.47
662.105	426.66
662.304	-109.91
662.502	-126.29
662.701	365.22
662.899	-5.46
663.097	166.57
663.296	-363.86
663.494	309.93
663.692	414.37
663.891	-222.55
664.089	-277.84
664.287	160.42
664.485	361.13
664.684	-220.5
664.882	17.07
665.08	27.31
665.278	111.27
665.476	-259.41
665.675	164.52
665.873	557.73
666.071	307.88
666.269	-118.1
666.467	70.31
666.665	109.22
666.863	58.03
667.061	-25.94
667.259	-181.59
667.457	70.31
667.655	254.63
667.853	-296.27
668.051	-9.56
668.249	-95.57
668.447	203.43
668.645	-263.51
668.843	133.8
669.041	148.14
669.239	-38.23
669.437	-91.48
669.635	-27.99
669.833	-109.91
670.031	225.96
670.229	-1.37
670.426	-62.8
670.624	15.02
670.822	-85.33
671.02	-245.07
671.218	-52.56
671.415	-216.4
671.613	187.05
671.811	47.79
672.009	-107.86
672.206	225.96
672.404	144.04
672.602	98.99
672.799	-105.81
672.997	90.79
673.195	281.25
673.392	-40.28
673.59	-331.09
673.788	332.45
673.985	-451.92
674.183	-52.56
674.38	-128.34
674.578	211.62
674.775	-81.24
674.973	-195.92
675.17	-204.11
675.368	473.76
675.565	187.05
675.763	-261.46
675.96	-146.77
676.158	340.65
676.355	70.31
676.553	-202.07
676.75	-183.63
676.947	49.83
677.145	39.59
677.342	-25.94
677.539	-56.66
677.737	55.98
677.934	584.35
678.131	25.26
678.329	-222.55
678.526	447.14
678.723	309.93
678.92	-50.52
679.118	-68.95
679.315	-146.77
679.512	443.04
679.709	-138.58
679.906	-60.76
680.104	336.55
680.301	33.45
680.498	-210.26
680.695	-195.92
680.892	-15.7
681.089	-46.42
681.286	-62.8
681.483	-220.5
681.68	260.77
681.877	326.31
682.075	-89.43
682.272	84.65
682.469	164.52
682.665	4.78
682.862	-228.69
683.059	-304.46
683.256	205.48
683.453	107.18
683.65	-85.33
683.847	-134.48
684.044	35.5
684.241	-179.54
684.438	-62.8
684.635	-265.55
684.831	463.52
685.028	653.98
685.225	-136.53
685.422	70.31
685.619	17.07
685.815	41.64
686.012	-30.04
686.209	-27.99
686.405	-193.87
686.602	262.82
686.799	-195.92
686.996	-232.79
687.192	-210.26
687.389	436.9
687.586	-240.98
687.782	-171.35
687.979	545.44
688.175	385.7
688.372	-54.61
688.568	-146.77
688.765	-66.9
688.962	424.61
689.158	98.99
689.355	-318.8
689.551	293.54
689.748	-93.52
689.944	-11.61
690.14	-290.13
690.337	283.3
690.533	-46.42
690.73	-11.61
690.926	-36.18
691.123	230.06
691.319	129.7
691.515	-251.22
691.712	74.41
691.908	221.86
692.104	150.18
692.301	47.79
692.497	-226.64
692.693	316.07
692.889	228.01
693.086	66.22
693.282	-232.79
693.478	96.94
693.674	531.11
693.87	-154.96
694.067	-204.11
694.263	244.39
694.459	-17.75
694.655	37.55
694.851	12.97
695.047	309.93
695.243	316.07
695.439	94.89
695.635	-148.82
695.831	328.36
696.027	180.9
696.224	-107.86
696.42	266.92
696.615	467.62
696.811	283.3
697.007	-238.93
697.203	-163.15
697.399	232.1
697.595	412.32
697.791	-167.25
697.987	29.35
698.183	-165.2
698.379	-60.76
698.575	-154.96
698.77	6.83
698.966	309.93
699.162	404.13
699.358	8.87
699.554	-124.24
699.749	250.53
699.945	314.02
700.141	-21.85
700.337	29.35
700.532	58.03
700.728	-95.57
700.924	-124.24
701.119	-214.35
701.315	176.81
701.511	127.66
701.706	-5.46
701.902	-306.51
702.097	115.37
702.293	219.82
702.489	-40.28
702.684	-73.04
702.88	78.51
703.075	17.07
703.271	-50.52
703.466	-286.03
703.662	78.51
703.857	219.82
704.053	-240.98
704.248	-87.38
704.443	422.56
704.639	266.92
704.834	-32.08
705.03	-122.2
705.225	303.78
705.42	359.08
705.616	12.97
705.811	-187.73
706.006	-7.51
706.202	66.22
706.397	-23.89
706.592	-206.16
706.787	168.62
706.983	144.04
707.178	154.28
707.373	29.35
707.568	328.36
707.763	381.6
707.959	-73.04
708.154	-185.68
708.349	176.81
708.544	182.95
708.739	78.51
708.934	-171.35
709.129	385.7
709.324	445.09
709.519	-245.07
709.714	-243.03
709.909	438.95
710.104	172.71
710.299	-44.37
710.494	-124.24
710.689	316.07
710.884	137.9
711.079	31.4
711.274	172.71
711.469	230.06
711.664	158.38
711.859	-193.87
712.054	-48.47
712.249	217.77
712.443	430.76
712.638	-179.54
712.833	-189.78
713.028	139.94
713.223	115.37
713.417	162.47
713.612	-146.77
713.807	326.31
714.002	664.22
714.196	72.36
714.391	-64.85
714.586	266.92
714.78	74.41
714.975	-99.67
715.17	-126.29
715.364	-34.13
715.559	348.84
715.754	-363.86
715.948	-93.52
716.143	557.73
716.337	217.77
716.532	139.94
716.726	-148.82
716.921	309.93
717.115	553.63
717.31	-286.03
717.504	397.99
717.699	60.07
717.893	381.6
718.088	-230.74
718.282	-269.65
718.476	176.81
718.671	240.29
718.865	-64.85
719.059	-85.33
719.254	119.46
719.448	467.62
719.642	1182.36
719.837	-331.09
720.031	293.54
720.225	408.23
720.419	21.16
720.614	-142.68
720.808	311.97
721.002	25.26
721.196	-144.72
721.39	-75.09
721.585	422.56
721.779	268.97
721.973	-9.56
722.167	-294.22
722.361	234.15
722.555	350.89
722.749	-122.2
722.943	-163.15
723.137	-93.52
723.331	246.44
723.525	-111.96
723.719	-122.2
723.913	240.29
724.107	473.76
724.301	-204.11
724.495	-73.04
724.689	600.74
724.883	549.54
725.077	-193.87
725.271	-126.29
725.465	404.13
725.659	45.74
725.853	72.36
726.046	-185.68
726.24	29.35
726.434	391.84
726.628	-93.52
726.822	-68.95
727.015	410.28
727.209	397.99
727.403	-101.72
727.596	-245.07
727.79	268.97
727.984	383.65
728.177	-60.76
728.371	-93.52
728.565	381.6
728.758	-83.28
728.952	-136.53
729.146	-146.77
729.339	283.3
729.533	166.57
729.726	-46.42
729.92	-197.97
730.113	469.67
730.307	187.05
730.5	-111.96
730.694	-195.92
730.887	78.51
731.081	211.62
731.274	-216.4
731.468	-120.15
731.661	72.36
731.854	78.51
732.048	-52.56
732.241	-163.15
732.435	-15.7
732.628	119.46
732.821	-7.51
733.014	-161.11
733.208	-212.31
733.401	252.58
733.594	-118.1
733.788	-85.33
733.981	492.2
734.174	197.29
734.367	-34.13
734.56	-30.04
734.754	285.35
734.947	162.47
735.14	-243.03
735.333	-56.66
735.526	271.01
735.719	-42.32
735.912	-144.72
736.105	-179.54
736.298	152.23
736.491	62.12
736.684	-181.59
736.877	-171.35
737.07	234.15
737.263	404.13
737.456	-71
737.649	-257.36
737.842	0.68
738.035	156.33
738.228	-19.8
738.421	15.02
738.614	412.32
738.807	297.64
739	-339.28
739.192	-202.07
739.385	178.86
739.578	250.53
739.771	195.24
739.964	-159.06
740.156	238.25
740.349	90.79
740.542	109.22
740.735	-226.64
740.927	-75.09
741.12	-122.2
741.313	-181.59
741.505	66.22
741.698	162.47
741.891	242.34
742.083	80.55
742.276	-148.82
742.468	49.83
742.661	131.75
742.854	-54.61
743.046	-142.68
743.239	588.45
743.431	19.11
743.624	-50.52
743.816	-281.94
744.009	25.26
744.201	289.45
744.393	6.83
744.586	-228.69
744.778	402.08
744.971	35.5
745.163	39.59
745.355	-48.47
745.548	101.03
745.74	29.35
745.932	0.68
746.125	-148.82
746.317	639.65
746.509	254.63
746.702	-27.99
746.894	-48.47
747.086	205.48
747.278	385.7
747.471	64.17
747.663	-58.71
747.855	191.14
748.047	492.2
748.239	-226.64
748.431	-195.92
748.623	522.91
748.815	527.01
749.008	-195.92
749.2	-173.39
749.392	314.02
749.584	176.81
749.776	-36.18
749.968	-7.51
750.16	479.91
750.352	78.51
750.544	-44.37
750.736	-183.63
750.928	258.73
751.12	189.1
751.311	-97.62
751.503	-25.94
751.695	236.2
751.887	174.76
752.079	-281.94
752.271	-159.06
752.463	914.08
752.654	348.84
752.846	12.97
753.038	-46.42
753.23	-107.86
753.421	303.78
753.613	-56.66
753.805	82.6
753.997	381.6
754.188	264.87
754.38	-144.72
754.572	-83.28
754.763	74.41
754.955	230.06
755.146	-17.75
755.338	88.75
755.53	283.3
755.721	74.41
755.913	-281.94
756.104	-214.35
756.296	101.03
756.487	420.52
756.679	-212.31
756.87	-146.77
757.062	74.41
757.253	279.21
757.445	-68.95
757.636	8.87
757.827	111.27
758.019	823.97
758.21	-240.98
758.401	-105.81
758.593	723.62
758.784	467.62
758.975	-269.65
759.167	-179.54
759.358	107.18
759.549	393.89
759.74	-148.82
759.932	-103.76
760.123	475.81
760.314	-36.18
760.505	25.26
760.696	-101.72
760.888	619.17
761.079	72.36
761.27	-154.96
761.461	-333.14
761.652	463.52
761.843	8.87
762.034	-107.86
762.225	197.29
762.416	92.84
762.607	119.46
762.798	-23.89
762.989	-93.52
763.18	1014.43
763.371	-17.75
763.562	-46.42
763.753	-68.95
763.944	422.56
764.135	393.89
764.326	53.93
764.517	-134.48
764.708	154.28
764.899	295.59
765.089	-148.82
765.28	-259.41
765.471	176.81
765.662	324.26
765.853	-46.42
766.043	-195.92
766.234	443.04
766.425	400.04
766.615	-64.85
766.806	-216.4
766.997	418.47
767.187	262.82
767.378	-77.14
767.569	-345.42
767.759	238.25
767.95	154.28
768.141	4.78
768.331	-124.24
768.522	146.09
768.712	297.64
768.903	-185.68
769.093	-236.88
769.284	529.06
769.474	189.1
769.665	-249.17
769.855	-302.42
770.046	328.36
770.236	29.35
770.426	94.89
770.617	-187.73
770.807	156.33
770.998	109.22
771.188	82.6
771.378	-148.82
771.569	357.03
771.759	293.54
771.949	-283.99
772.139	-384.34
772.33	264.87
772.52	428.71
772.71	-99.67
772.9	-236.88
773.09	535.2
773.281	467.62
773.471	-173.39
773.661	-163.15
773.851	463.52
774.041	15.02
774.231	-191.83
774.421	12.97
774.611	514.72
774.802	86.7
774.992	-83.28
775.182	-220.5
775.372	96.94
775.562	324.26
775.752	-93.52
775.942	-58.71
776.131	410.28
776.321	273.06
776.511	-154.96
776.701	-240.98
776.891	328.36
777.081	-11.61
777.271	-114
777.461	-154.96
777.651	340.65
777.84	414.37
778.03	-21.85
778.22	-132.44
778.41	504.48
778.599	-109.91
778.789	-101.72
778.979	-161.11
779.169	195.24
779.358	225.96
779.548	246.44
779.738	-267.6
779.927	164.52
780.117	-103.76
780.307	-30.04
780.496	-361.81
780.686	185
780.875	598.69
781.065	-142.68
781.254	-146.77
781.444	156.33
781.633	121.51
781.823	-134.48
782.012	-165.2
782.202	92.84
782.391	152.23
782.581	-191.83
782.77	31.4
782.96	342.69
783.149	29.35
783.338	-171.35
783.528	-361.81
783.717	332.45
783.906	441
784.096	-13.65
784.285	-216.4
784.474	29.35
784.663	0.68
784.853	-64.85
785.042	-124.24
785.231	51.88
785.42	336.55
785.61	-60.76
785.799	-202.07
785.988	60.07
786.177	139.94
786.366	-130.39
786.555	82.6
786.744	348.84
786.933	58.03
787.122	-200.02
787.312	-202.07
787.501	-36.18
787.69	275.11
787.879	-132.44
788.068	-193.87
788.257	-66.9
788.445	31.4
788.634	-103.76
788.823	-185.68
789.012	735.9
789.201	512.67
789.39	-32.08
789.579	-175.44
789.768	62.12
789.957	156.33
790.145	-177.49
790.334	-435.53
790.523	78.51
790.712	6.83
790.9	-77.14
791.089	-335.18
791.278	344.74
791.467	137.9
791.655	103.08
791.844	287.4
792.033	19.11
792.221	111.27
792.41	-154.96
792.599	-273.75
792.787	275.11
792.976	373.41
793.164	-253.27
793.353	-181.59
793.541	404.13
793.73	277.16
793.918	-54.61
794.107	-93.52
794.295	111.27
794.484	137.9
794.672	-189.78
794.861	-87.38
795.049	275.11
795.238	559.78
795.426	-249.17
795.614	-27.99
795.803	207.53
795.991	488.1
796.179	-138.58
796.368	-116.05
796.556	457.38
796.744	-73.04
796.932	-140.63
797.121	-255.31
797.309	-1.37
797.497	373.41
797.685	-105.81
797.874	-230.74
798.062	45.74
798.25	506.53
798.438	-204.11
798.626	-142.68
798.814	295.59
799.002	676.51
799.19	113.32
799.378	-109.91
799.566	406.18
799.755	504.48
799.943	10.92
800.131	-142.68
800.318	246.44
800.506	299.69
800.694	-138.58
800.882	113.32
801.07	443.04
801.258	41.64
801.446	-169.3
801.634	-105.81
801.822	174.76
802.01	64.17
802.197	-148.82
802.385	-21.85
802.573	197.29
802.761	-48.47
802.949	-122.2
803.136	-345.42
803.324	381.6
803.512	219.82
803.699	-5.46
803.887	-378.19
804.075	379.56
804.262	33.45
804.45	-281.94
804.638	-77.14
804.825	-56.66
805.013	-60.76
805.201	-105.81
805.388	-263.51
805.576	-9.56
805.763	537.25
805.951	-189.78
806.138	70.31
806.326	516.77
806.513	223.91
806.701	-89.43
806.888	-126.29
807.075	266.92
807.263	563.87
807.45	-265.55
807.638	4.78
807.825	592.55
808.012	447.14
808.2	-154.96
808.387	33.45
808.574	258.73
808.761	469.67
808.949	-159.06
809.136	-36.18
809.323	4.78
809.51	-48.47
809.698	154.28
809.885	-48.47
810.072	271.01
810.259	314.02
810.446	-60.76
810.633	-148.82
810.82	363.17
811.008	512.67
811.195	86.7
811.382	-134.48
811.569	144.04
811.756	-118.1
811.943	-68.95
812.13	-163.15
812.317	-34.13
812.504	6.83
812.691	-40.28
812.878	74.41
813.064	416.42
813.251	150.18
813.438	-247.12
813.625	90.79
813.812	66.22
813.999	107.18
814.186	-21.85
814.372	29.35
814.559	172.71
814.746	447.14
814.933	-52.56
815.12	53.93
815.306	62.12
815.493	-75.09
815.68	-214.35
815.866	-95.57
816.053	359.08
816.24	627.36
816.426	-50.52
816.613	-240.98
816.799	348.84
816.986	287.4
817.173	-101.72
817.359	-83.28
817.546	242.34
817.732	-189.78
817.919	-410.96
818.105	-77.14
818.292	-30.04
818.478	260.77
818.665	-1.37
818.851	-175.44
819.037	635.55
819.224	139.94
819.41	-140.63
819.597	-144.72
819.783	537.25
819.969	240.29
820.156	-48.47
820.342	-222.55
820.528	877.21
820.714	94.89
820.901	211.62
821.087	-173.39
821.273	610.98
821.459	119.46
821.646	-206.16
821.832	-165.2
822.018	187.05
822.204	154.28
822.39	-32.08
822.576	-220.5
822.762	305.83
822.948	174.76
823.134	82.6
823.32	-13.65
823.507	-105.81
823.693	195.24
823.879	252.58
824.065	-126.29
824.25	154.28
824.436	-130.39
824.622	-68.95
824.808	-218.45
824.994	-27.99
825.18	-85.33
825.366	-261.46
825.552	-120.15
825.738	37.55
825.923	441
826.109	176.81
826.295	-163.15
826.481	-118.1
826.667	53.93
826.852	105.13
827.038	-234.83
827.224	381.6
827.409	524.96
827.595	-283.99
827.781	78.51
827.966	395.94
828.152	361.13
828.338	-114
828.523	-249.17
828.709	12.97
828.894	434.85
829.08	-32.08
829.266	-91.48
829.451	0.68
829.637	252.58
829.822	31.4
830.008	-175.44
830.193	397.99
830.378	545.44
830.564	-1.37
830.749	-197.97
830.935	307.88
831.12	348.84
831.305	-240.98
831.491	0.68
831.676	-77.14
831.861	332.45
832.047	-138.58
832.232	-263.51
832.417	373.41
832.602	86.7
832.788	-181.59
832.973	-224.59
833.158	41.64
833.343	160.42
833.528	-38.23
833.714	-36.18
833.899	301.73
834.084	545.44
834.269	119.46
834.454	-93.52
834.639	373.41
834.824	70.31
835.009	53.93
835.194	39.59
835.379	283.3
835.564	479.91
835.749	-7.51
835.934	-157.01
836.119	334.5
836.304	193.19
836.489	-109.91
836.674	111.27
836.859	-19.8
837.044	510.63
837.228	4.78
837.413	-271.7
837.598	232.1
837.783	393.89
837.968	-77.14
838.152	-222.55
838.337	-288.08
838.522	469.67
838.707	299.69
838.891	60.07
839.076	281.25
839.261	430.76
839.445	-83.28
839.63	-46.42
839.815	600.74
839.999	119.46
840.184	-93.52
840.368	-138.58
840.553	367.27
840.737	377.51
840.922	-212.31
841.106	-132.44
841.291	-87.38
841.475	219.82
841.66	-66.9
841.844	-118.1
842.029	828.06
842.213	-81.24
842.397	-44.37
842.582	-232.79
842.766	432.8
842.951	385.7
843.135	-97.62
843.319	-58.71
843.504	123.56
843.688	434.85
843.872	-269.65
844.056	-183.63
844.241	311.97
844.425	176.81
844.609	90.79
844.793	-212.31
844.977	406.18
845.161	277.16
845.346	-322.9
845.53	-122.2
845.714	131.75
845.898	533.15
846.082	-267.6
846.266	-95.57
846.45	146.09
846.634	217.77
846.818	-140.63
847.002	12.97
847.186	234.15
847.37	-109.91
847.554	-150.87
847.738	94.89
847.922	264.87
848.106	240.29
848.29	-126.29
848.473	-44.37
848.657	365.22
848.841	19.11
849.025	-56.66
849.209	-236.88
849.392	395.94
849.576	201.38
849.76	-324.94
849.944	33.45
850.127	424.61
850.311	-27.99
850.495	-273.75
850.678	-224.59
850.862	447.14
851.046	451.24
851.229	111.27
851.413	-161.11
851.596	203.43
851.78	96.94
851.964	58.03
852.147	-75.09
852.331	961.18
852.514	467.62
852.698	-40.28
852.881	-240.98
853.065	287.4
853.248	123.56
853.431	-15.7
853.615	-71
853.798	658.08
853.982	338.6
854.165	76.46
854.348	-150.87
854.532	-64.85
854.715	29.35
854.898	-81.24
855.081	-214.35
855.265	481.96
855.448	645.79
855.631	-89.43
855.814	-189.78
855.997	293.54
856.181	72.36
856.364	-42.32
856.547	-265.55
856.73	209.58
856.913	232.1
857.096	-273.75
857.279	78.51
857.462	0.68
857.645	414.37
857.828	29.35
858.011	94.89
858.194	-1.37
858.377	453.28
858.56	-253.27
858.743	-75.09
858.926	-81.24
859.109	228.01
859.292	-60.76
859.475	-240.98
859.658	379.56
859.841	332.45
860.023	-200.02
860.206	-220.5
860.389	156.33
860.572	496.29
860.755	-42.32
860.937	-40.28
861.12	178.86
861.303	221.86
861.486	-17.75
861.668	-134.48
861.851	287.4
862.034	213.67
862.216	33.45
862.399	-271.7
862.581	324.26
862.764	615.07
862.947	0.68
863.129	-161.11
863.312	-40.28
863.494	490.15
863.677	348.84
863.859	-277.84
864.042	326.31
864.224	481.96
864.406	-40.28
864.589	-216.4
864.771	379.56
864.954	-56.66
865.136	-118.1
865.318	-226.64
865.501	369.32
865.683	-202.07
865.865	-148.82
866.048	-144.72
866.23	342.69
866.412	148.14
866.594	-193.87
866.777	55.98
866.959	314.02
867.141	139.94
867.323	135.85
867.505	49.83
867.687	174.76
867.869	240.29
868.052	-23.89
868.234	-175.44
868.416	172.71
868.598	344.74
868.78	-81.24
868.962	-269.65
869.144	381.6
869.326	324.26
869.508	-89.43
869.69	-208.21
869.872	96.94
870.054	500.39
870.236	-279.89
870.417	-126.29
870.599	166.57
870.781	588.45
870.963	62.12
871.145	-183.63
871.327	-93.52
871.508	381.6
871.69	-60.76
871.872	10.92
872.054	103.08
872.235	256.68
872.417	25.26
872.599	-150.87
872.78	555.68
872.962	234.15
873.144	-329.04
873.325	-36.18
873.507	385.7
873.689	209.58
873.87	-222.55
874.052	-5.46
874.233	178.86
874.415	381.6
874.596	-118.1
874.778	-195.92
874.959	180.9
875.141	432.8
875.322	-75.09
875.503	-204.11
875.685	236.2
875.866	-202.07
876.048	-177.49
876.229	-212.31
876.41	111.27
876.592	234.15
876.773	-81.24
876.954	-222.55
877.136	570.02
877.317	33.45
877.498	-355.66
877.679	-3.41
877.86	275.11
878.042	90.79
878.223	-132.44
878.404	162.47
878.585	264.87
878.766	608.93
878.947	187.05
879.128	113.32
879.309	303.78
879.49	467.62
879.672	-50.52
879.853	74.41
880.034	-126.29
880.215	80.55
880.396	15.02
880.576	-114
880.757	27.31
880.938	539.3
881.119	-183.63
881.3	-187.73
881.481	6.83
881.662	1030.81
881.843	-220.5
882.023	-339.28
882.204	225.96
882.385	92.84
882.566	-148.82
882.747	-163.15
882.927	123.56
883.108	223.91
883.289	-150.87
883.469	25.26
883.65	76.46
883.831	139.94
884.011	90.79
884.192	-138.58
884.373	277.16
884.553	195.24
884.734	82.6
884.914	135.85
885.095	852.64
885.275	572.07
885.456	205.48
885.636	-212.31
885.817	74.41
885.997	82.6
886.178	-175.44
886.358	-19.8
886.538	152.23
886.719	1110.68
886.899	-169.3
887.08	-56.66
887.26	377.51
887.44	-36.18
887.621	-253.27
887.801	19.11
887.981	625.31
888.161	305.83
888.342	-62.8
888.522	10.92
888.702	348.84
888.882	416.42
889.062	47.79
889.242	-390.48
889.423	553.63
889.603	281.25
889.783	-21.85
889.963	-179.54
890.143	410.28
890.323	424.61
890.503	-87.38
890.683	-73.04
890.863	137.9
891.043	191.14
891.223	17.07
891.403	82.6
891.583	105.13
891.763	193.19
891.943	-64.85
892.122	-197.97
892.302	164.52
892.482	119.46
892.662	23.21
892.842	-23.89
893.022	271.01
893.201	141.99
893.381	51.88
893.561	-103.76
893.741	273.06
893.92	246.44
894.1	70.31
894.28	33.45
894.459	359.08
894.639	244.39
894.819	-124.24
894.998	2.73
895.178	264.87
895.357	287.4
895.537	-118.1
895.716	-220.5
895.896	144.04
896.075	559.78
896.255	-68.95
896.434	-296.27
896.614	342.69
896.793	508.58
896.973	41.64
897.152	23.21
897.331	293.54
897.511	422.56
897.69	-236.88
897.87	12.97
898.049	359.08
898.228	160.42
898.407	154.28
898.587	29.35
898.766	-15.7
898.945	318.12
899.124	201.38
899.304	-11.61
899.483	266.92
899.662	588.45
899.841	-171.35
900.02	-95.57
900.199	471.72
900.378	240.29
900.557	-95.57
900.737	-212.31
900.916	336.55
901.095	397.99
901.274	225.96
901.453	-165.2
901.632	-85.33
901.811	6.83
901.989	-159.06
902.168	-146.77
902.347	393.89
902.526	53.93
902.705	-36.18
902.884	10.92
903.063	461.48
903.242	488.1
903.42	-183.63
903.599	55.98
903.778	541.35
903.957	629.41
904.135	66.22
904.314	94.89
904.493	363.17
904.672	324.26
904.85	35.5
905.029	-101.72
905.207	336.55
905.386	903.84
905.565	-253.27
905.743	-3.41
905.922	45.74
906.1	387.75
906.279	-228.69
906.457	-167.25
906.636	98.99
906.814	70.31
906.993	-97.62
907.171	-251.22
907.35	365.22
907.528	404.13
907.707	176.81
907.885	-150.87
908.063	576.16
908.242	51.88
908.42	-44.37
908.598	-261.46
908.777	371.36
908.955	137.9
909.133	129.7
909.311	-146.77
909.49	178.86
909.668	197.29
909.846	-81.24
910.024	-273.75
910.202	135.85
910.38	275.11
910.559	-185.68
910.737	-138.58
910.915	307.88
911.093	266.92
911.271	-19.8
911.449	131.75
911.627	328.36
911.805	688.8
911.983	-64.85
912.161	-122.2
912.339	344.74
912.517	455.33
912.695	115.37
912.872	64.17
913.05	6.83
913.228	307.88
913.406	-56.66
913.584	-42.32
913.762	367.27
913.939	88.75
914.117	-128.34
914.295	-118.1
914.473	332.45
914.65	303.78
914.828	-73.04
915.006	-101.72
915.184	-93.52
915.361	262.82
915.539	25.26
915.716	150.18
915.894	277.16
916.072	426.66
916.249	146.09
916.427	178.86
916.604	-19.8
916.782	305.83
916.959	-140.63
917.137	-13.65
917.314	178.86
917.492	293.54
917.669	39.59
917.847	25.26
918.024	293.54
918.201	47.79
918.379	12.97
918.556	-54.61
918.733	379.56
918.911	131.75
919.088	174.76
919.265	-75.09
919.442	283.3
919.62	189.1
919.797	-64.85
919.974	-163.15
920.151	203.43
920.328	170.66
920.506	-48.47
920.683	74.41
920.86	-17.75
921.037	78.51
921.214	49.83
921.391	-99.67
921.568	416.42
921.745	125.61
921.922	-7.51
922.099	-107.86
922.276	520.87
922.453	236.2
922.63	-95.57
922.807	307.88
922.984	199.34
923.161	53.93
923.338	-11.61
923.514	-187.73
923.691	182.95
923.868	275.11
924.045	-9.56
924.222	-173.39
924.399	242.34
924.575	471.72
924.752	2.73
924.929	6.83
925.105	359.08
925.282	10.92
925.459	-48.47
925.635	-66.9
925.812	150.18
925.989	111.27
926.165	51.88
926.342	-154.96
926.518	-21.85
926.695	217.77
926.871	-157.01
927.048	-134.48
927.224	371.36
927.401	133.8
927.577	4.78
927.754	-177.49
927.93	357.03
928.107	379.56
928.283	-99.67
928.459	23.21
928.636	316.07
928.812	60.07
928.988	2.73
929.165	-154.96
929.341	152.23
929.517	307.88
929.693	228.01
929.87	-247.12
930.046	252.58
930.222	119.46
930.398	-185.68
930.574	58.03
930.751	213.67
930.927	-36.18
931.103	31.4
931.279	10.92
931.455	-85.33
931.631	228.01
931.807	-224.59
931.983	-173.39
932.159	-114
932.335	242.34
932.511	-36.18
932.687	-124.24
932.863	271.01
933.039	135.85
933.215	-148.82
933.391	-142.68
933.566	205.48
933.742	223.91
933.918	-56.66
934.094	-191.83
934.27	209.58
934.445	252.58
934.621	45.74
934.797	-142.68
934.973	350.89
935.148	326.31
935.324	-134.48
935.5	-294.22
935.675	461.48
935.851	232.1
936.027	-64.85
936.202	25.26
936.378	328.36
936.553	101.03
936.729	391.84
936.904	-169.3
937.08	-34.13
937.255	160.42
937.431	-122.2
937.606	-224.59
937.782	98.99
937.957	205.48
938.133	109.22
938.308	-144.72
938.483	176.81
938.659	19.11
938.834	-46.42
939.009	-183.63
939.185	62.12
939.36	-40.28
939.535	-263.51
939.71	0.68
939.886	475.81
940.061	334.5
940.236	82.6
940.411	25.26
940.586	271.01
940.761	307.88
940.937	-107.86
941.112	-105.81
941.287	225.96
941.462	127.66
941.637	-93.52
941.812	-9.56
941.987	279.21
942.162	176.81
942.337	10.92
942.512	-17.75
942.687	379.56
942.862	340.65
943.037	-195.92
943.212	-326.99
943.386	53.93
943.561	234.15
943.736	64.17
943.911	258.73
944.086	293.54
944.26	215.72
944.435	-68.95
944.61	25.26
944.785	471.72
944.959	578.21
945.134	23.21
945.309	-173.39
945.483	-30.04
945.658	350.89
945.833	-347.47
946.007	-216.4
946.182	553.63
946.357	-107.86
946.531	-99.67
946.706	-136.53
946.88	-187.73
947.055	160.42
947.229	-161.11
947.404	-279.89
947.578	309.93
947.752	47.79
947.927	-286.03
948.101	-312.66
948.276	213.67
948.45	135.85
948.624	-11.61
948.799	-142.68
948.973	135.85
949.147	-171.35
949.321	-116.05
949.496	-114
949.67	406.18
949.844	117.42
950.018	-140.63
950.193	-140.63
950.367	570.02
950.541	-3.41
950.715	-50.52
950.889	82.6
951.063	-9.56
951.237	291.49
951.411	-339.28
951.585	-273.75
951.759	322.21
951.933	119.46
952.107	-204.11
952.281	41.64
952.455	426.66
952.629	250.53
952.803	-175.44
952.977	-142.68
953.151	299.69
953.325	260.77
953.499	74.41
953.672	-292.18
953.846	-142.68
954.02	-48.47
954.194	-169.3
954.368	-146.77
954.541	215.72
954.715	-34.13
954.889	31.4
955.062	-220.5
955.236	-11.61
955.41	8.87
955.583	17.07
955.757	-339.28
955.93	-23.89
956.104	-183.63
956.278	-187.73
956.451	-101.72
956.625	201.38
956.798	545.44
956.972	82.6
957.145	-148.82
957.319	60.07
957.492	98.99
957.665	-44.37
957.839	-200.02
958.012	187.05
958.185	-44.37
958.359	-140.63
958.532	86.7
958.705	293.54
958.879	135.85
959.052	-77.14
959.225	-343.38
959.398	78.51
959.572	101.03
959.745	-79.19
959.918	-64.85
960.091	-32.08
960.264	172.71
960.438	-200.02
960.611	-159.06
960.784	402.08
960.957	47.79
961.13	197.29
961.303	-183.63
961.476	74.41
961.649	303.78
961.822	-296.27
961.995	-58.71
962.168	197.29
962.341	164.52
962.514	-191.83
962.686	-191.83
962.859	135.85
963.032	187.05
963.205	-232.79
963.378	-359.76
963.551	162.47
963.723	162.47
963.896	47.79
964.069	84.65
964.242	111.27
964.414	350.89
964.587	-85.33
964.76	-32.08
964.932	125.61
965.105	86.7
965.278	-71
965.45	-197.97
965.623	43.69
965.795	295.59
965.968	-95.57
966.14	-105.81
966.313	39.59
966.485	137.9
966.658	-107.86
966.83	-236.88
967.003	412.32
967.175	293.54
967.348	-150.87
967.52	-93.52
967.692	422.56
967.865	164.52
968.037	-85.33
968.209	111.27
968.382	64.17
968.554	309.93
968.726	-114
968.898	-146.77
969.071	180.9
969.243	219.82
969.415	-42.32
969.587	-27.99
969.759	639.65
969.932	225.96
970.104	-44.37
970.276	-421.2
970.448	12.97
970.62	-77.14
970.792	0.68
970.964	-89.43
971.136	606.88
971.308	197.29
971.48	-146.77
971.652	-109.91
971.824	465.57
971.996	41.64
972.168	-87.38
972.339	-95.57
972.511	309.93
972.683	101.03
972.855	53.93
973.027	-73.04
973.199	121.51
973.37	305.83
973.542	8.87
973.714	80.55
973.886	23.21
974.057	340.65
974.229	-148.82
974.401	-68.95
974.572	-101.72
974.744	-286.03
974.915	-150.87
975.087	-157.01
975.259	459.43
975.43	-77.14
975.602	-124.24
975.773	-214.35
975.945	-44.37
976.116	228.01
976.288	-277.84
976.459	96.94
976.63	-3.41
976.802	234.15
976.973	-288.08
977.145	139.94
977.316	582.31
977.487	481.96
977.659	-68.95
977.83	-150.87
978.001	506.53
978.172	168.62
978.344	-167.25
978.515	-114
978.686	-7.51
978.857	451.24
979.028	-134.48
979.2	-183.63
979.371	332.45
979.542	152.23
979.713	37.55
979.884	-429.39
980.055	-62.8
980.226	78.51
980.397	-165.2
980.568	-179.54
980.739	266.92
980.91	105.13
981.081	62.12
981.252	-187.73
981.423	193.19
981.594	309.93
981.765	-224.59
981.936	-3.41
982.106	125.61
982.277	369.32
982.448	-185.68
982.619	23.21
982.79	72.36
982.96	354.98
983.131	-60.76
983.302	-286.03
983.472	-23.89
983.643	191.14
983.814	-17.75
983.984	-206.16
984.155	-73.04
984.326	434.85
984.496	-23.89
984.667	-181.59
984.837	-9.56
985.008	418.47
985.178	123.56
985.349	-48.47
985.519	60.07
985.69	-27.99
985.86	-9.56
986.031	-240.98
986.201	242.34
986.371	266.92
986.542	-308.56
986.712	-372.05
986.882	254.63
987.053	185
987.223	-230.74
987.393	62.12
987.563	55.98
987.734	211.62
987.904	174.76
988.074	-154.96
988.244	139.94
988.414	-1.37
988.585	-152.92
988.755	-34.13
988.925	125.61
989.095	463.52
989.265	-177.49
989.435	-44.37
989.605	213.67
989.775	295.59
989.945	80.55
990.115	-179.54
990.285	64.17
990.455	209.58
990.625	12.97
990.795	-212.31
990.965	467.62
991.134	-120.15
991.304	-236.88
991.474	-224.59
991.644	154.28
991.814	424.61
991.984	-253.27
992.153	-181.59
992.323	37.55
992.493	86.7
992.662	-355.66
992.832	8.87
993.002	164.52
993.171	131.75
993.341	-326.99
993.511	-66.9
993.68	-46.42
993.85	144.04
994.019	-345.42
994.189	-294.22
994.358	74.41
994.528	66.22
994.697	-400.72
994.867	-333.14
995.036	244.39
995.206	45.74
995.375	-191.83
995.544	-27.99
995.714	162.47
995.883	31.4
996.052	-3.41
996.222	-388.43
996.391	512.67
996.56	144.04
996.73	-251.22
996.899	-363.86
997.068	393.89
997.237	103.08
997.406	-210.26
997.576	-361.81
997.745	137.9
997.914	185
998.083	-396.62
998.252	-224.59
998.421	111.27
998.59	-17.75
998.759	-355.66
998.928	-329.04
999.097	373.41
999.266	178.86
999.435	-103.76
999.604	-394.58
999.773	447.14
999.942	47.79
1000.111	-304.46
1000.28	-453.97
1000.448	-181.59
1000.617	-89.43
1000.786	-103.76
1000.955	-296.27
1001.124	53.93
1001.292	711.33
1001.461	-249.17
1001.63	-316.75
1001.798	389.8
1001.967	279.21
1002.136	-380.24
1002.304	-353.62
1002.473	160.42
1002.642	135.85
1002.81	-157.01
1002.979	-271.7
1003.147	230.06
1003.316	653.98
1003.484	-312.66
1003.653	-320.85
1003.821	316.07
1003.99	2.73
1004.158	-93.52
1004.327	-107.86
1004.495	213.67
1004.663	-101.72
1004.832	-114
1005	-355.66
1005.168	260.77
1005.337	150.18
1005.505	-367.95
1005.673	-77.14
1005.842	174.76
1006.01	230.06
1006.178	-359.76
1006.346	-236.88
1006.514	246.44
1006.683	316.07
1006.851	-249.17
1007.019	-378.19
1007.187	-60.76
1007.355	-419.15
1007.523	-392.53
1007.691	-427.34
1007.859	-310.61
1008.027	336.55
1008.195	-306.51
1008.363	-439.63
1008.531	240.29
1008.699	-146.77
1008.867	-396.62
1009.035	-265.55
1009.203	348.84
1009.37	113.32
1009.538	-249.17
1009.706	199.34
1009.874	131.75
1010.042	0.68
1010.209	-372.05
1010.377	-417.1
1010.545	305.83
1010.713	66.22
1010.88	-245.07
1011.048	-245.07
1011.216	-73.04
1011.383	369.32
1011.551	-294.22
1011.718	-494.93
1011.886	309.93
1012.054	105.13
1012.221	-253.27
1012.389	-306.51
1012.556	-15.7
1012.724	479.91
1012.891	-99.67
1013.058	-431.44
1013.226	205.48
1013.393	326.31
1013.561	-404.82
1013.728	-445.77
1013.895	299.69
1014.063	209.58
1014.23	-390.48
1014.397	-347.47
1014.565	266.92
1014.732	-32.08
1014.899	-351.57
1015.066	-372.05
1015.233	8.87
1015.401	195.24
1015.568	-236.88
1015.735	-146.77
1015.902	78.51
1016.069	70.31
1016.236	-310.61
1016.403	-298.32
1016.57	-136.53
1016.737	277.16
1016.904	-212.31
1017.071	-361.81
1017.238	-126.29
1017.405	334.5
1017.572	-240.98
1017.739	-50.52
1017.906	207.53
1018.073	322.21
1018.24	-298.32
1018.407	-290.13
1018.573	254.63
1018.74	33.45
1018.907	-191.83
1019.074	-404.82
1019.241	332.45
1019.407	41.64
1019.574	-294.22
1019.741	-410.96
1019.907	246.44
1020.074	172.71
1020.241	-413.01
1020.407	-357.71
1020.574	228.01
1020.74	180.9
1020.907	-247.12
1021.073	-351.57
1021.24	592.55
1021.406	412.32
1021.573	-406.86
1021.739	-310.61
1021.906	234.15
1022.072	88.75
1022.239	-298.32
1022.405	-185.68
1022.571	156.33
1022.738	-58.71
1022.904	-247.12
1023.07	-234.83
1023.237	70.31
1023.403	252.58
1023.569	-177.49
1023.735	-206.16
1023.902	156.33
1024.068	199.34
1024.234	-318.8
1024.4	-292.18
1024.566	178.86
1024.732	242.34
1024.898	-359.76
1025.065	-404.82
1025.231	262.82
1025.397	-50.52
1025.563	-214.35
1025.729	-318.8
1025.895	-392.53
1026.061	-101.72
1026.227	-431.44
1026.392	-167.25
1026.558	320.17
1026.724	244.39
1026.89	-306.51
1027.056	-243.03
1027.222	213.67
1027.388	10.92
1027.553	-343.38
1027.719	-345.42
1027.885	365.22
1028.051	178.86
1028.216	-427.34
1028.382	-257.36
1028.548	303.78
1028.713	27.31
1028.879	-408.91
1029.045	-109.91
1029.21	414.37
1029.376	311.97
1029.541	-281.94
1029.707	-329.04
1029.873	299.69
1030.038	223.91
1030.204	-353.62
1030.369	-208.21
1030.534	254.63
1030.7	-52.56
1030.865	-292.18
1031.031	-310.61
1031.196	182.95
1031.361	113.32
1031.527	-347.47
1031.692	-263.51
1031.857	-228.69
1032.023	287.4
1032.188	-425.29
1032.353	-232.79
1032.518	498.34
1032.684	98.99
1032.849	-413.01
1033.014	-253.27
1033.179	215.72
1033.344	197.29
1033.509	-146.77
1033.674	-271.7
1033.839	334.5
1034.004	246.44
1034.17	-306.51
1034.335	-396.62
1034.5	27.31
1034.664	-48.47
1034.829	-326.99
1034.994	-146.77
1035.159	197.29
1035.324	193.19
1035.489	-140.63
1035.654	-263.51
1035.819	426.66
1035.984	246.44
1036.148	-189.78
1036.313	-294.22
1036.478	279.21
1036.643	141.99
1036.807	-279.89
1036.972	-351.57
1037.137	449.19
1037.301	139.94
1037.466	-478.54
1037.631	-159.06
1037.795	352.93
1037.96	144.04
1038.124	-15.7
1038.289	-314.7
1038.454	309.93
1038.618	252.58
1038.783	-228.69
1038.947	-101.72
1039.111	242.34
1039.276	78.51
1039.44	-269.65
1039.605	170.66
1039.769	53.93
1039.933	90.79
1040.098	-249.17
1040.262	-101.72
1040.426	326.31
1040.591	324.26
1040.755	-318.8
1040.919	-316.75
1041.083	340.65
1041.248	176.81
1041.412	-425.29
1041.576	-359.76
1041.74	29.35
1041.904	309.93
1042.068	-290.13
1042.232	-234.83
1042.397	395.94
1042.561	201.38
1042.725	-476.49
1042.889	-44.37
1043.053	332.45
1043.217	195.24
1043.381	-177.49
1043.544	-355.66
1043.708	410.28
1043.872	-136.53
1044.036	-445.77
1044.2	-392.53
1044.364	459.43
1044.528	494.24
1044.691	2830.98
1044.855	-343.38
1045.019	408.23
1045.183	291.49
1045.346	-126.29
1045.51	-281.94
1045.674	170.66
1045.837	248.49
1046.001	-273.75
1046.165	-261.46
1046.328	633.5
1046.492	246.44
1046.655	-48.47
1046.819	-134.48
1046.983	0.68
1047.146	275.11
1047.31	-101.72
1047.473	-406.86
1047.636	107.18
1047.8	-54.61
1047.963	-240.98
1048.127	-283.99
1048.29	15.02
