Data from Ink_Intensity_USB4F045381__121__00121.txt Node

Date: Mon Jul 17 11:11:36 EDT 2023
User: mmckonesweet
Spectrometer: USB4F04538
Trigger mode: 4
Integration Time (sec): 9.000000E-1
Scans to average: 1
Electric dark correction enabled: true
Nonlinearity correction enabled: false
Boxcar width: 0
XAxis mode: Wavelengths
Number of Pixels in Spectrum: 3648
>>>>>Begin Spectral Data<<<<<
345.52	-1029.96
345.736	-1029.96
345.952	-1029.96
346.168	-993.09
346.384	-1038.15
346.6	-186.19
346.816	-194.39
347.032	-157.52
347.248	317.61
347.464	-212.82
347.68	-98.13
347.896	131.24
348.112	374.95
348.328	-5.97
348.544	-87.89
348.76	-63.32
348.975	182.44
349.191	-229.2
349.407	-216.91
349.623	10.41
349.839	-12.12
350.055	-202.58
350.27	28.84
350.486	84.14
350.702	370.85
350.918	180.39
351.133	-126.8
351.349	151.72
351.565	366.76
351.781	-206.67
351.996	94.38
352.212	346.28
352.428	-141.14
352.644	-175.95
352.859	-251.73
353.075	340.13
353.291	86.19
353.506	-145.24
353.722	-169.81
353.938	-55.12
354.153	430.24
354.369	174.25
354.584	-157.52
354.8	282.79
355.016	-261.97
355.231	-278.35
355.447	-71.51
355.662	108.71
355.878	772.25
356.093	-331.6
356.309	16.55
356.524	-243.54
356.74	258.21
356.955	-141.14
357.171	-1.88
357.386	198.82
357.602	-190.29
357.817	-94.04
358.033	-149.33
358.248	344.23
358.464	198.82
358.679	-79.7
358.895	-264.02
359.11	22.7
359.325	305.32
359.541	-22.36
359.756	4.27
359.972	-206.67
360.187	102.57
360.402	-159.57
360.618	-153.43
360.833	913.56
361.048	145.58
361.264	-143.19
361.479	-61.27
361.694	-36.69
361.909	198.82
362.125	-227.15
362.34	-87.89
362.555	280.74
362.77	112.81
362.986	-223.06
363.201	-221.01
363.416	116.9
363.631	59.56
363.847	-309.07
364.062	-235.35
364.277	178.34
364.492	143.53
364.707	-188.24
364.922	-378.7
365.138	282.79
365.353	276.65
365.568	-317.26
365.783	-182.1
365.998	86.19
366.213	524.45
366.428	-218.96
366.643	75.95
366.858	241.83
367.073	213.16
367.288	-157.52
367.503	-272.21
367.718	143.53
367.933	370.85
368.148	-300.88
368.363	-87.89
368.578	-8.02
368.793	387.24
369.008	-223.06
369.223	-175.95
369.438	194.73
369.653	391.33
369.868	-255.83
370.083	-266.07
370.298	161.96
370.513	372.9
370.728	75.95
370.943	-143.19
371.157	-112.47
371.372	520.35
371.587	-315.22
371.802	-223.06
372.017	82.09
372.232	446.63
372.446	-85.84
372.661	-245.59
372.876	223.4
373.091	293.03
373.306	-112.47
373.52	-239.44
373.735	-178
373.95	415.91
374.165	-124.76
374.379	-137.04
374.594	-38.74
374.809	161.96
375.023	26.79
375.238	-268.11
375.453	235.69
375.667	-210.77
375.882	-143.19
376.097	-190.29
376.311	-10.07
376.526	100.52
376.741	-235.35
376.955	129.19
377.17	604.32
377.384	524.45
377.599	-42.84
377.813	-218.96
378.028	669.86
378.242	223.4
378.457	-42.84
378.672	-345.94
378.886	71.85
379.101	-65.36
379.315	-309.07
379.53	-137.04
379.744	149.67
379.958	198.82
380.173	-171.86
380.387	-180.05
380.602	243.88
380.816	-120.66
381.031	-149.33
381.245	-114.52
381.459	221.35
381.674	2674.82
381.888	-235.35
382.103	96.43
382.317	-218.96
382.531	561.31
382.746	-53.08
382.96	-196.43
383.174	-30.55
383.388	397.48
383.603	28.84
383.817	-266.07
384.031	159.91
384.246	465.06
384.46	-22.36
384.674	313.51
384.888	84.14
385.103	200.87
385.317	-251.73
385.531	-102.23
385.745	313.51
385.959	301.22
386.174	-178
386.388	-184.15
386.602	59.56
386.816	-67.41
387.03	-55.12
387.244	-71.51
387.458	172.2
387.672	364.71
387.887	-214.87
388.101	-249.68
388.315	428.2
388.529	112.81
388.743	-81.75
388.957	-218.96
389.171	333.99
389.385	-264.02
389.599	-175.95
389.813	63.66
390.027	151.72
390.241	553.12
390.455	-175.95
390.669	-153.43
390.883	-69.46
391.097	364.71
391.311	37.03
391.525	-178
391.738	243.88
391.952	153.77
392.166	-120.66
392.38	-255.83
392.594	297.13
392.808	317.61
393.022	-169.81
393.236	-169.81
393.449	258.21
393.663	192.68
393.877	-227.15
394.091	-130.9
394.305	-1.88
394.518	-79.7
394.732	-247.63
394.946	-87.89
395.16	383.14
395.373	180.39
395.587	-284.5
395.801	-128.85
396.015	311.46
396.228	129.19
396.442	-200.53
396.656	-235.35
396.869	428.2
397.083	465.06
397.297	-165.71
397.51	-114.52
397.724	370.85
397.938	211.11
398.151	-276.31
398.365	-204.63
398.578	252.07
398.792	305.32
399.005	-10.07
399.219	-102.23
399.433	123.05
399.646	231.59
399.86	80.04
400.073	69.8
400.287	186.54
400.5	53.42
400.714	51.37
400.927	-67.41
401.141	321.7
401.354	1116.31
401.567	141.48
401.781	-309.07
401.994	315.56
402.208	624.8
402.421	-132.95
402.635	-102.23
402.848	-30.55
403.061	317.61
403.275	-44.88
403.488	-227.15
403.701	516.26
403.915	342.18
404.128	61.61
404.341	-266.07
404.555	139.43
404.768	6.31
404.981	-10.07
405.195	-190.29
405.408	446.63
405.621	258.21
405.834	45.23
406.048	-178
406.261	432.29
406.474	465.06
406.687	-169.81
406.9	-59.22
407.114	34.99
407.327	219.3
407.54	-268.11
407.753	-235.35
407.966	-100.18
408.179	278.69
408.392	-247.63
408.605	-325.46
408.819	180.39
409.032	129.19
409.245	-276.31
409.458	41.13
409.671	202.92
409.884	280.74
410.097	-227.15
410.31	73.9
410.523	180.39
410.736	12.46
410.949	-71.51
411.162	-128.85
411.375	450.72
411.588	387.24
411.801	-14.17
412.014	-268.11
412.227	88.23
412.44	-10.07
412.653	-186.19
412.865	84.14
413.078	293.03
413.291	125.1
413.504	2.22
413.717	-151.38
413.93	284.84
414.143	-141.14
414.356	-108.37
414.568	-315.22
414.781	188.58
414.994	51.37
415.207	-51.03
415.42	-153.43
415.632	305.32
415.845	575.65
416.058	-280.4
416.271	-214.87
416.483	88.23
416.696	469.16
416.909	-149.33
417.121	-145.24
417.334	223.4
417.547	567.46
417.759	-59.22
417.972	-247.63
418.185	-10.07
418.397	217.26
418.61	-149.33
418.823	-175.95
419.035	420
419.248	24.75
419.46	-100.18
419.673	-18.26
419.885	217.26
420.098	59.56
420.311	-100.18
420.523	-386.9
420.736	293.03
420.948	129.19
421.161	-157.52
421.373	-350.03
421.586	166.06
421.798	-8.02
422.01	-208.72
422.223	-59.22
422.435	-91.99
422.648	254.12
422.86	-180.05
423.073	-192.34
423.285	364.71
423.497	-229.2
423.71	-180.05
423.922	-264.02
424.134	157.86
424.347	422.05
424.559	-16.21
424.771	127.14
424.984	-77.65
425.196	188.58
425.408	-407.38
425.621	-272.21
425.833	272.55
426.045	338.09
426.257	-292.69
426.47	-126.8
426.682	137.38
426.894	151.72
427.106	-153.43
427.318	-48.98
427.531	-112.47
427.743	215.21
427.955	-188.24
428.167	358.57
428.379	96.43
428.591	127.14
428.804	-55.12
429.016	-155.47
429.228	2.22
429.44	229.54
429.652	-1.88
429.864	-272.21
430.076	75.95
430.288	-87.89
430.5	-77.65
430.712	-85.84
430.924	313.51
431.136	135.34
431.348	-380.75
431.56	-118.61
431.772	67.75
431.984	-59.22
432.196	-204.63
432.408	-237.39
432.62	-38.74
432.832	170.15
433.044	45.23
433.256	6.31
433.468	233.64
433.679	-247.63
433.891	-218.96
434.103	43.18
434.315	370.85
434.527	241.83
434.739	-143.19
434.95	-130.9
435.162	321.7
435.374	-48.98
435.586	-157.52
435.798	-198.48
436.009	-175.95
436.221	108.71
436.433	-157.52
436.645	-83.8
436.856	-55.12
437.068	299.17
437.28	-128.85
437.491	141.48
437.703	250.02
437.915	178.34
438.126	-63.32
438.338	96.43
438.55	82.09
438.761	241.83
438.973	-173.91
439.184	-141.14
439.396	147.62
439.608	299.17
439.819	-259.92
440.031	-44.88
440.242	223.4
440.454	276.65
440.665	-173.91
440.877	2.22
441.088	139.43
441.3	2.22
441.511	-286.54
441.723	-274.26
441.934	170.15
442.146	53.42
442.357	45.23
442.569	215.21
442.78	94.38
442.991	454.82
443.203	225.45
443.414	-327.5
443.626	319.65
443.837	-137.04
444.048	-190.29
444.26	-309.07
444.471	92.33
444.682	290.98
444.894	-341.84
445.105	-321.36
445.316	319.65
445.528	266.41
445.739	-104.28
445.95	-89.94
446.161	192.68
446.373	467.11
446.584	-114.52
446.795	-151.38
447.006	260.26
447.217	489.64
447.429	-223.06
447.64	-309.07
447.851	299.17
448.062	84.14
448.273	-313.17
448.484	-137.04
448.695	288.93
448.907	-59.22
449.118	-79.7
449.329	14.51
449.54	-81.75
449.751	-130.9
449.962	-116.56
450.173	-126.8
450.384	360.61
450.595	444.58
450.806	-175.95
451.017	-67.41
451.228	393.38
451.439	282.79
451.65	-132.95
451.861	-350.03
452.072	-75.6
452.283	125.1
452.494	-57.17
452.705	-180.05
452.915	409.76
453.126	159.91
453.337	-128.85
453.548	-165.71
453.759	301.22
453.97	655.52
454.181	43.18
454.391	-128.85
454.602	57.51
454.813	297.13
455.024	-40.79
455.235	-165.71
455.445	192.68
455.656	278.69
455.867	39.08
456.078	-153.43
456.288	22.7
456.499	100.52
456.71	-227.15
456.921	153.77
457.131	182.44
457.342	149.67
457.553	-38.74
457.763	-130.9
457.974	215.21
458.184	344.23
458.395	-202.58
458.606	-300.88
458.816	368.81
459.027	456.87
459.237	-28.5
459.448	-307.02
459.659	432.29
459.869	579.75
460.08	-292.69
460.29	-102.23
460.501	495.78
460.711	-8.02
460.922	-296.78
461.132	-202.58
461.343	805.02
461.553	-208.72
461.764	-118.61
461.974	-114.52
462.184	301.22
462.395	198.82
462.605	-108.37
462.816	-225.11
463.026	129.19
463.236	405.67
463.447	-221.01
463.657	-128.85
463.867	247.97
464.078	116.9
464.288	-79.7
464.498	-169.81
464.709	166.06
464.919	39.08
465.129	-104.28
465.339	-173.91
465.55	209.06
465.76	280.74
465.97	-118.61
466.18	-206.67
466.391	348.33
466.601	252.07
466.811	-65.36
467.021	-304.98
467.231	137.38
467.441	452.77
467.651	-143.19
467.862	-333.65
468.072	129.19
468.282	477.35
468.492	-100.18
468.702	-53.08
468.912	82.09
469.122	649.38
469.332	149.67
469.542	-210.77
469.752	207.02
469.962	151.72
470.172	-208.72
470.382	-137.04
470.592	385.19
470.802	393.38
471.012	-18.26
471.222	-132.95
471.432	370.85
471.642	403.62
471.852	-77.65
472.062	-227.15
472.272	125.1
472.482	-104.28
472.691	-135
472.901	-206.67
473.111	207.02
473.321	649.38
473.531	-178
473.741	-30.55
473.95	321.7
474.16	288.93
474.37	-1.88
474.58	-227.15
474.79	587.94
474.999	411.81
475.209	-264.02
475.419	-73.56
475.628	61.61
475.838	469.16
476.048	-14.17
476.258	-157.52
476.467	413.86
476.677	69.8
476.886	174.25
477.096	32.94
477.306	59.56
477.515	479.4
477.725	-22.36
477.935	6.31
478.144	499.88
478.354	92.33
478.563	-10.07
478.773	-104.28
478.982	325.8
479.192	471.2
479.401	32.94
479.611	-128.85
479.82	6.31
480.03	315.56
480.239	-28.5
480.449	-186.19
480.658	620.71
480.868	104.62
481.077	65.71
481.287	-96.08
481.496	338.09
481.705	551.07
481.915	256.17
482.124	227.5
482.333	254.12
482.543	598.18
482.752	49.32
482.961	-63.32
483.171	350.37
483.38	239.78
483.589	129.19
483.799	4.27
484.008	143.53
484.217	551.07
484.426	104.62
484.636	-147.28
484.845	327.85
485.054	16.55
485.263	338.09
485.472	34.99
485.682	645.28
485.891	313.51
486.1	-77.65
486.309	30.89
486.518	475.3
486.727	546.98
486.936	-91.99
487.146	161.96
487.355	671.9
487.564	133.29
487.773	61.61
487.982	67.75
488.191	118.95
488.4	401.57
488.609	18.6
488.818	90.28
489.027	981.15
489.236	639.14
489.445	28.84
489.654	61.61
489.863	514.21
490.072	358.57
490.281	393.38
490.49	143.53
490.698	719.01
490.907	733.34
491.116	133.29
491.325	90.28
491.534	665.76
491.743	428.2
491.952	229.54
492.16	174.25
492.369	503.97
492.578	630.95
492.787	221.35
492.996	-75.6
493.204	274.6
493.413	766.11
493.622	-112.47
493.831	-77.65
494.039	774.3
494.248	110.76
494.457	80.04
494.665	-38.74
494.874	489.64
495.083	948.38
495.291	174.25
495.5	63.66
495.709	618.66
495.917	469.16
496.126	182.44
496.335	63.66
496.543	422.05
496.752	456.87
496.96	417.96
497.169	-36.69
497.377	403.62
497.586	696.48
497.794	264.36
498.003	-61.27
498.211	364.71
498.42	725.15
498.628	262.31
498.837	118.95
499.045	567.46
499.254	493.73
499.462	256.17
499.671	108.71
499.879	786.59
500.087	651.42
500.296	209.06
500.504	256.17
500.713	561.31
500.921	1001.63
501.129	247.97
501.338	198.82
501.546	559.27
501.754	602.27
501.962	125.1
502.171	116.9
502.379	559.27
502.587	1018.01
502.795	231.59
503.004	264.36
503.212	641.18
503.42	805.02
503.628	293.03
503.837	364.71
504.045	751.78
504.253	907.42
504.461	235.69
504.669	229.54
504.877	755.87
505.085	964.76
505.294	92.33
505.502	499.88
505.71	583.84
505.918	723.1
506.126	227.5
506.334	272.55
506.542	592.03
506.75	645.28
506.958	301.22
507.166	293.03
507.374	448.68
507.582	960.67
507.79	397.48
507.998	307.37
508.206	776.35
508.414	741.54
508.622	286.89
508.83	409.76
509.037	997.53
509.245	452.77
509.453	274.6
509.661	223.4
509.869	950.43
510.077	467.11
510.285	489.64
510.492	55.47
510.7	1247.38
510.908	620.71
511.116	374.95
511.324	333.99
511.531	612.51
511.739	630.95
511.947	415.91
512.155	669.86
512.362	698.53
512.57	364.71
512.778	325.8
512.985	200.87
513.193	903.32
513.401	985.24
513.608	493.73
513.816	405.67
514.024	780.45
514.231	1024.16
514.439	370.85
514.646	366.76
514.854	911.52
515.061	975
515.269	401.57
515.477	444.58
515.684	489.64
515.892	934.04
516.099	278.69
516.307	362.66
516.514	805.02
516.722	1061.02
516.929	501.92
517.136	428.2
517.344	1071.26
517.551	845.98
517.759	428.2
517.966	393.38
518.173	723.1
518.381	731.3
518.588	577.7
518.796	458.92
519.003	940.19
519.21	848.03
519.418	485.54
519.625	807.07
519.832	837.79
520.039	907.42
520.247	399.52
520.454	561.31
520.661	1030.3
520.868	983.2
521.076	471.2
521.283	600.23
521.49	1405.08
521.697	946.33
521.904	596.13
522.112	575.65
522.319	1026.2
522.526	911.52
522.733	485.54
522.94	518.31
523.147	940.19
523.354	1140.89
523.561	395.43
523.768	706.72
523.975	1171.61
524.183	983.2
524.39	676
524.597	479.4
524.804	850.08
525.011	663.71
525.218	632.99
525.425	557.22
525.632	1198.23
525.838	706.72
526.045	628.9
526.252	510.11
526.459	1900.69
526.666	1851.53
526.873	608.42
527.08	585.89
527.287	1349.78
527.494	1134.75
527.701	530.59
527.907	481.44
528.114	1138.84
528.321	874.65
528.528	764.06
528.735	690.34
528.941	743.58
529.148	780.45
529.355	772.25
529.562	725.15
529.768	1380.5
529.975	921.76
530.182	637.09
530.388	686.24
530.595	1237.14
530.802	759.97
531.008	882.85
531.215	802.97
531.422	1396.89
531.628	1753.23
531.835	888.99
532.042	737.44
532.248	981.15
532.455	1069.21
532.661	868.51
532.868	706.72
533.074	1067.16
533.281	1255.58
533.487	817.31
533.694	696.48
533.9	837.79
534.107	1224.86
534.313	739.49
534.52	762.02
534.726	1280.15
534.933	1577.11
535.139	696.48
535.345	686.24
535.552	1329.3
535.758	1108.12
535.965	903.32
536.171	843.93
536.377	1282.2
536.584	1405.08
536.79	983.2
536.996	966.81
537.203	1259.67
537.409	1411.22
537.615	905.37
537.821	1020.06
538.028	1360.02
538.234	1388.69
538.44	819.36
538.646	1018.01
538.853	1312.92
539.059	1151.13
539.265	1388.69
539.471	762.02
539.677	1487
539.883	1198.23
540.09	891.04
540.296	1390.74
540.502	1190.04
540.708	1046.68
540.914	1247.38
541.12	993.44
541.326	1491.09
541.532	1218.71
541.738	1093.79
541.944	1065.11
542.15	1714.32
542.356	1308.82
542.562	897.18
542.768	1063.07
542.974	1861.77
543.18	1882.25
543.386	1063.07
543.592	997.53
543.798	1628.31
544.004	1632.4
544.21	1091.74
544.415	1218.71
544.621	1437.84
544.827	1642.64
545.033	1005.72
545.239	1357.97
545.445	1126.55
545.651	1560.72
545.856	1142.94
546.062	1171.61
546.268	1296.53
546.474	1460.37
546.679	1110.17
546.885	1069.21
547.091	1357.97
547.297	1929.36
547.502	1255.58
547.708	1018.01
547.914	1280.15
548.119	1656.98
548.325	1073.31
548.531	972.96
548.736	1919.12
548.942	1298.58
549.147	1274.01
549.353	1495.19
549.559	1788.05
549.764	1630.35
549.97	1214.62
550.175	1251.48
550.381	1710.22
550.586	1489.04
550.792	1353.88
550.997	1208.47
551.203	1620.11
551.408	1783.95
551.614	1132.7
551.819	1257.62
552.025	2015.37
552.23	2013.32
552.435	1228.95
552.641	1437.84
552.846	1472.66
553.052	1890.45
553.257	1511.57
553.462	1370.26
553.668	1470.61
553.873	1949.84
554.078	1357.97
554.283	1341.59
554.489	1808.53
554.694	1779.86
554.899	1333.4
555.105	1665.17
555.31	1697.94
555.515	1980.56
555.72	1497.24
555.925	1349.78
556.131	1861.77
556.336	1624.21
556.541	1413.27
556.746	1394.84
556.951	2201.74
557.156	2183.31
557.361	1616.02
557.567	1542.29
557.772	2406.53
557.977	1964.17
558.182	1480.85
558.387	1507.48
558.592	1663.12
558.797	2189.45
559.002	1525.91
559.207	1642.64
559.412	1892.49
559.617	2265.22
559.822	1468.56
560.027	1566.87
560.232	1814.67
560.437	2048.14
560.642	1337.49
560.847	1462.42
561.051	1986.7
561.256	1968.27
561.461	1654.93
561.666	1417.37
561.871	2019.47
562.076	1935.5
562.281	1689.74
562.485	1429.65
562.69	2125.96
562.895	2015.37
563.1	1702.03
563.305	1560.72
563.509	2218.12
563.714	2570.37
563.919	1609.87
564.123	1552.53
564.328	1951.88
564.533	2365.57
564.737	1831.05
564.942	1685.65
565.147	2424.97
565.351	2523.27
565.556	1849.49
565.761	1937.55
565.965	2123.91
566.17	1921.17
566.374	1824.91
566.579	1693.84
566.784	2099.34
566.988	2101.39
567.193	1722.51
567.397	1745.04
567.602	1777.81
567.806	2017.42
568.011	1898.64
568.215	1863.82
568.42	2050.19
568.624	1964.17
568.828	1869.97
569.033	1919.12
569.237	2332.81
569.442	2390.15
569.646	1757.33
569.85	1826.96
570.055	2164.87
570.259	2308.23
570.463	2027.66
570.668	2005.13
570.872	2275.46
571.076	2080.91
571.281	2056.33
571.485	1980.56
571.689	2263.18
571.893	2396.29
572.098	2177.16
572.302	1951.88
572.506	2476.16
572.71	2103.43
572.914	2107.53
573.119	1992.84
573.323	2539.65
573.527	2580.61
573.731	1968.27
573.935	1962.12
574.139	2451.59
574.343	2138.25
574.547	2136.2
574.751	2136.2
574.955	2611.33
575.159	2640
575.364	1990.8
575.568	1878.16
575.772	2338.95
575.976	2660.48
576.18	2050.19
576.383	1992.84
576.587	2695.3
576.791	2537.6
576.995	1953.93
577.199	1945.74
577.403	2623.62
577.607	2746.5
577.811	1994.89
578.015	2246.79
578.219	2508.93
578.422	2648.19
578.626	2265.22
578.83	2416.77
579.034	2685.06
579.238	2607.23
579.442	2242.7
579.645	2578.56
579.849	2472.07
580.053	2705.54
580.257	2312.33
580.46	2322.57
580.664	2756.74
580.868	2881.66
581.071	2629.76
581.275	2351.24
581.479	2263.18
581.682	2773.12
581.886	2308.23
582.09	2363.53
582.293	2898.05
582.497	2984.06
582.7	2578.56
582.904	2343.05
583.107	2744.45
583.311	2633.86
583.515	2500.74
583.718	2373.77
583.922	2838.66
584.125	3104.89
584.329	2341
584.532	2660.48
584.735	3022.97
584.939	2781.31
585.142	2353.29
585.346	2330.76
585.549	2971.77
585.753	2654.34
585.956	2519.17
586.159	2711.68
586.363	3143.8
586.566	3041.4
586.769	2488.45
586.973	2345.09
587.176	2885.76
587.379	3221.63
587.582	2877.57
587.786	2805.89
587.989	2812.03
588.192	3543.16
588.395	2703.49
588.599	2967.68
588.802	3049.6
589.005	3065.98
589.208	2603.14
589.411	2652.29
589.615	3180.67
589.818	3440.76
590.021	2973.82
590.224	2779.26
590.427	3229.82
590.63	3074.17
590.833	2549.89
591.036	2758.78
591.239	2857.09
591.442	2949.25
591.645	2996.35
591.848	2607.23
592.051	3031.16
592.254	3156.09
592.457	2848.9
592.66	2943.1
592.863	3065.98
593.066	3166.33
593.269	2783.36
593.472	2939.01
593.675	2924.67
593.878	3340.41
594.081	2912.38
594.284	2939.01
594.486	3281.02
594.689	3229.82
594.892	3008.64
595.095	2945.15
595.298	3407.99
595.5	3094.65
595.703	3139.71
595.906	3037.31
596.109	3608.69
596.311	3422.33
596.514	2748.54
596.717	3018.88
596.92	3610.74
597.122	3467.38
597.325	2771.07
597.528	2975.87
597.73	3731.57
597.933	3420.28
598.136	3010.68
598.338	2846.85
598.541	3516.53
598.743	3668.08
598.946	3141.75
599.148	3178.62
599.351	3762.29
599.554	3631.22
599.756	3221.63
599.959	3205.24
600.161	3725.43
600.363	4087.92
600.566	3338.36
600.768	3186.81
600.971	3952.75
601.173	3680.37
601.376	3158.14
601.578	3414.13
601.78	3688.56
601.983	4208.75
602.185	3274.87
602.388	3436.66
602.59	3711.09
602.792	3498.1
602.995	3545.2
603.197	3367.03
603.399	3829.87
603.601	3653.75
603.804	3250.3
604.006	3369.08
604.208	3590.26
604.41	3291.26
604.613	3496.05
604.815	3485.81
605.017	4161.64
605.219	3543.16
605.421	3776.63
605.623	3369.08
605.826	3987.57
606.028	4049
606.23	3508.34
606.432	3270.78
606.634	4233.32
606.836	3944.56
607.038	3358.84
607.24	3612.79
607.442	3780.72
607.644	3717.23
607.846	3577.97
608.048	3481.72
608.25	4274.28
608.452	3588.21
608.654	3696.75
608.856	3262.58
609.058	3770.48
609.26	3903.6
609.462	3647.6
609.664	3676.27
609.866	4231.27
610.067	4065.39
610.269	3623.03
610.471	3520.63
610.673	3946.61
610.875	4155.5
611.077	3401.85
611.278	3745.91
611.48	3862.64
611.682	4411.5
611.884	3770.48
612.085	3698.8
612.287	3848.3
612.489	4094.06
612.69	3502.2
612.892	3737.71
613.094	4118.64
613.295	4149.36
613.497	3473.53
613.699	3856.5
613.9	4419.69
614.102	4368.49
614.304	3666.03
614.505	3524.72
614.707	3999.85
614.908	4278.38
615.11	3582.07
615.311	3924.08
615.513	4139.12
615.714	4337.77
615.916	3750
616.117	3905.65
616.319	4163.69
616.52	4231.27
616.722	3854.45
616.923	3690.61
617.124	4395.11
617.326	4358.25
617.527	4026.48
617.729	4352.1
617.93	4491.37
618.131	4452.45
618.333	3868.78
618.534	3885.17
618.735	4034.67
618.937	4513.89
619.138	3858.54
619.339	3799.15
619.54	4323.43
619.742	4143.21
619.943	4188.27
620.144	4079.72
620.345	4436.07
620.546	4405.35
620.748	3954.8
620.949	4229.23
621.15	4229.23
621.351	4382.82
621.552	3987.57
621.753	3745.91
621.954	4053.1
622.155	4839.52
622.356	4022.38
622.558	4311.14
622.759	4391.02
622.96	4843.62
623.161	4061.29
623.362	4108.4
623.563	4376.68
623.764	4425.83
623.965	4196.46
624.166	4425.83
624.366	4429.93
624.567	4616.29
624.768	4065.39
624.969	4130.92
625.17	4372.58
625.371	4579.43
625.572	4370.54
625.773	4104.3
625.973	4610.15
626.174	4679.78
626.375	4466.79
626.576	4395.11
626.777	4683.88
626.977	5040.22
627.178	4294.76
627.379	4567.14
627.58	4677.73
627.78	4612.2
627.981	4427.88
628.182	4571.24
628.382	4927.58
628.583	4393.06
628.784	4216.94
628.984	4397.16
629.185	4900.96
629.386	4872.29
629.586	4517.99
629.787	4411.5
629.987	4839.52
630.188	4704.35
630.388	4456.55
630.589	4440.17
630.79	5408.86
630.99	4724.83
631.191	4669.54
631.391	4528.23
631.591	5005.41
631.792	5109.85
631.992	4728.93
632.193	4526.18
632.393	5351.51
632.594	4868.19
632.794	4524.13
632.994	4782.18
633.195	4749.41
633.395	4839.52
633.595	4595.81
633.796	4802.66
633.996	4974.69
634.196	5167.2
634.397	4479.08
634.597	4722.79
634.797	4614.24
634.997	5337.18
635.198	4780.13
635.398	4466.79
635.598	4982.88
635.798	5371.99
635.998	5064.8
636.199	4591.72
636.399	4862.05
636.599	4833.38
636.799	4765.79
636.999	5103.71
637.199	5116
637.399	5195.87
637.599	4909.15
637.799	4892.77
637.999	4804.71
638.199	5533.78
638.399	4851.81
638.599	4966.49
638.799	5187.68
638.999	5531.73
639.199	5081.18
639.399	4982.88
639.599	5417.05
639.799	4816.99
639.999	4812.9
640.199	4808.8
640.399	5210.2
640.599	5126.24
640.799	4986.97
640.998	5085.28
641.198	5701.72
641.398	5271.64
641.598	5107.8
641.798	5120.09
641.997	6150.22
642.197	5402.71
642.397	5363.8
642.597	4864.1
642.796	5548.12
642.996	5630.04
643.196	5097.56
643.395	5052.51
643.595	5355.61
643.795	4913.25
643.994	5294.17
644.194	5204.06
644.394	5632.08
644.593	5376.09
644.793	5285.98
644.992	5345.37
645.192	5597.27
645.392	5023.84
645.591	5216.35
645.791	5257.31
645.99	5460.06
646.19	5425.24
646.389	5279.83
646.589	5249.11
646.788	5773.39
646.987	5591.13
647.187	5455.96
647.386	5408.86
647.586	5550.17
647.785	5736.53
647.984	5462.1
648.184	5417.05
648.383	5621.84
648.582	5703.76
648.782	5501.01
648.981	5525.59
649.18	5392.47
649.38	5742.68
649.579	5484.63
649.778	5423.19
649.977	5812.31
650.177	5679.19
650.376	5515.35
650.575	5369.94
650.774	6121.55
650.973	5496.92
651.173	5163.1
651.372	5564.5
651.571	5896.27
651.77	6023.25
651.969	5406.81
652.168	5605.46
652.367	5548.12
652.566	5826.64
652.765	5328.99
652.964	5769.3
653.163	6211.66
653.362	5814.35
653.561	5490.77
653.76	5597.27
653.959	5687.38
654.158	5828.69
654.357	6008.91
654.556	5814.35
654.755	6121.55
654.954	6002.77
655.153	5840.98
655.352	5855.31
655.551	6342.73
655.749	5765.2
655.948	5695.57
656.147	5816.4
656.346	6135.89
656.545	5957.71
656.743	5861.46
656.942	5947.47
657.141	5996.62
657.34	5797.97
657.538	5853.27
657.737	5648.47
657.936	6043.73
658.135	6246.48
658.333	5797.97
658.532	5947.47
658.731	6459.46
658.929	6350.92
659.128	6213.71
659.326	5761.11
659.525	6576.2
659.724	6105.17
659.922	5644.37
660.121	5808.21
660.319	6084.69
660.518	5996.62
660.716	5754.96
660.915	5949.52
661.113	6629.45
661.312	5826.64
661.51	6125.65
661.709	5861.46
661.907	6371.4
662.105	6735.94
662.304	6006.86
662.502	6154.32
662.701	6555.72
662.899	6236.24
663.097	6389.83
663.296	6086.73
663.494	6594.63
663.692	6916.16
663.891	5912.66
664.089	5924.94
664.287	6498.38
664.485	6623.3
664.684	6035.53
664.882	6037.58
665.08	6619.21
665.278	6412.36
665.476	5892.18
665.675	6350.92
665.873	6764.61
666.071	6754.37
666.269	6195.28
666.467	6424.65
666.665	6578.25
666.863	6395.98
667.061	6424.65
667.259	6178.89
667.457	6418.5
667.655	6594.63
667.853	6088.78
668.051	6295.63
668.249	6287.43
668.447	6512.71
668.645	6117.45
668.843	6516.81
669.041	6752.32
669.239	6318.15
669.437	6346.83
669.635	6436.94
669.833	6383.69
670.031	6664.26
670.229	6355.02
670.426	6445.13
670.624	6531.14
670.822	6365.26
671.02	6344.78
671.218	6635.59
671.415	6463.56
671.613	6885.44
671.811	6506.57
672.009	6549.57
672.206	6701.12
672.404	6703.17
672.602	6637.64
672.799	6516.81
672.997	6916.16
673.195	7049.28
673.392	6465.61
673.59	6240.33
673.788	6813.76
673.985	6150.22
674.183	6490.18
674.38	6365.26
674.578	6869.06
674.775	6502.47
674.973	6334.54
675.17	6346.83
675.368	7041.09
675.565	6809.67
675.763	6481.99
675.96	6443.08
676.158	6840.39
676.355	6699.08
676.553	6522.95
676.75	6412.36
676.947	6815.81
677.145	6535.24
677.342	6627.4
677.539	6578.25
677.737	6760.52
677.934	7325.75
678.131	6928.45
678.329	6527.05
678.526	7159.87
678.723	6903.87
678.92	6781
679.118	6606.92
679.315	6592.58
679.512	7159.87
679.709	6475.85
679.906	6768.71
680.104	7239.74
680.301	6912.07
680.498	6604.87
680.695	6758.47
680.892	6686.79
681.089	6834.24
681.286	6752.32
681.483	6473.8
681.68	7016.51
681.877	7288.89
682.075	6862.91
682.272	6836.29
682.469	6838.34
682.665	6955.07
682.862	6527.05
683.059	6416.46
683.256	7098.43
683.453	6967.36
683.65	6727.75
683.847	6873.15
684.044	7030.85
684.241	6617.16
684.438	6789.19
684.635	6606.92
684.831	7311.42
685.028	7399.48
685.225	6606.92
685.422	6852.67
685.619	6854.72
685.815	6879.3
686.012	6932.54
686.209	6649.93
686.405	6809.67
686.602	7260.22
686.799	6592.58
686.996	6686.79
687.192	6981.7
687.389	7481.4
687.586	6760.52
687.782	6885.44
687.979	7428.15
688.175	7374.91
688.372	6819.91
688.568	7112.77
688.765	6897.73
688.962	7381.05
689.158	6881.35
689.355	6711.36
689.551	7254.08
689.748	6781
689.944	6987.84
690.14	6735.94
690.337	7301.18
690.533	7047.23
690.73	6864.96
690.926	7061.57
691.123	7204.92
691.319	7024.7
691.515	6826.05
691.712	7080
691.908	7014.46
692.104	7096.38
692.301	7071.81
692.497	6840.39
692.693	7335.99
692.889	7362.62
693.086	6975.55
693.282	6828.1
693.478	7065.66
693.674	7700.53
693.87	6891.59
694.067	6887.49
694.263	7147.58
694.459	7084.09
694.655	7112.77
694.851	7032.9
695.047	7305.28
695.243	7280.7
695.439	7112.77
695.635	6936.64
695.831	7252.03
696.027	7178.3
696.224	6871.11
696.42	7481.4
696.615	7514.17
696.811	7323.71
697.007	6903.87
697.203	7006.27
697.399	7356.47
697.595	7702.58
697.791	6969.41
697.987	7211.07
698.183	7055.42
698.379	7022.66
698.575	6940.74
698.77	6867.01
698.966	7505.98
699.162	7567.42
699.358	7090.24
699.554	6965.31
699.749	7604.28
699.945	7489.59
700.141	7145.53
700.337	7180.35
700.532	7282.75
700.728	6912.07
700.924	7239.74
701.119	6828.1
701.315	7366.71
701.511	7321.66
701.706	7166.01
701.902	6981.7
702.097	7604.28
702.293	7364.67
702.489	7258.17
702.684	7112.77
702.88	7182.4
703.075	7274.56
703.271	7155.77
703.466	7204.92
703.662	7286.84
703.857	7667.77
704.053	7303.23
704.248	7284.8
704.443	7512.12
704.639	7434.3
704.834	7157.82
705.03	7055.42
705.225	7512.12
705.42	7809.08
705.616	7428.15
705.811	7020.61
706.006	7303.23
706.202	7419.96
706.397	7204.92
706.592	7190.59
706.787	7559.22
706.983	7352.38
707.178	7321.66
707.373	7297.08
707.568	7938.1
707.763	7493.69
707.959	7180.35
708.154	7170.11
708.349	7452.73
708.544	7700.53
708.739	7360.57
708.934	7278.65
709.129	7686.2
709.324	7733.3
709.519	7243.84
709.714	7166.01
709.909	7927.86
710.104	7706.68
710.299	7335.99
710.494	7163.97
710.689	7628.85
710.884	7475.26
711.079	7381.05
711.274	7499.83
711.469	7602.23
711.664	7516.22
711.859	7268.41
712.054	7514.17
712.249	7858.23
712.443	7778.36
712.638	7198.78
712.833	7131.2
713.028	7538.74
713.223	7419.96
713.417	7669.81
713.612	7231.55
713.807	7800.88
714.002	8009.78
714.196	7538.74
714.391	7194.68
714.586	7809.08
714.78	7557.18
714.975	7405.63
715.17	7374.91
715.364	7452.73
715.559	7909.43
715.754	6993.98
715.948	7282.75
716.143	7997.49
716.337	7573.56
716.532	7772.21
716.726	7395.39
716.921	7854.13
717.115	8155.18
717.31	7231.55
717.504	7819.32
717.699	7503.93
717.893	7786.55
718.088	7444.54
718.282	7344.19
718.476	7628.85
718.671	7555.13
718.865	7284.8
719.059	7401.53
719.254	7473.21
719.448	7897.14
719.642	8753.19
719.837	7249.98
720.031	7706.68
720.225	7628.85
720.419	7356.47
720.614	7186.49
720.808	7804.98
721.002	7610.42
721.196	7352.38
721.39	7292.99
721.585	7788.6
721.779	7743.54
721.973	7356.47
722.167	7118.91
722.361	7649.33
722.555	8056.88
722.749	7335.99
722.943	7327.8
723.137	7184.45
723.331	7755.83
723.525	7389.24
723.719	7325.75
723.913	7895.09
724.107	7985.2
724.301	7383.1
724.495	7612.47
724.689	7985.2
724.883	8114.22
725.077	7333.95
725.271	7532.6
725.465	7862.32
725.659	7774.26
725.853	7381.05
726.046	7288.89
726.24	7524.41
726.434	7901.23
726.628	7458.87
726.822	7403.58
727.015	8075.31
727.209	8153.13
727.403	7362.62
727.596	7381.05
727.79	7745.59
727.984	7809.08
728.177	7755.83
728.371	7542.84
728.565	7790.64
728.758	7626.81
728.952	7348.28
729.146	7612.47
729.339	7817.27
729.533	7587.89
729.726	7548.98
729.92	7385.15
730.113	8024.11
730.307	7858.23
730.5	7577.66
730.694	7446.59
730.887	7727.16
731.081	7841.84
731.274	7282.75
731.468	7659.57
731.661	7745.59
731.854	7753.78
732.048	7555.13
732.241	7491.64
732.435	7725.11
732.628	7829.56
732.821	7520.31
733.014	7632.95
733.208	7581.75
733.401	8007.73
733.594	7573.56
733.788	7413.82
733.981	8325.16
734.174	7905.33
734.367	7643.19
734.56	7729.2
734.754	8013.87
734.947	7854.13
735.14	7708.73
735.333	7657.53
735.526	8054.83
735.719	7843.89
735.912	7614.52
736.105	7598.13
736.298	7942.19
736.491	7788.6
736.684	7669.81
736.877	7374.91
737.07	7964.72
737.263	8218.67
737.456	7665.72
737.649	7768.12
737.842	7950.39
738.035	7964.72
738.228	7669.81
738.421	7964.72
738.614	8237.1
738.807	8212.53
739	7536.7
739.192	7512.12
739.385	8280.11
739.578	8087.6
739.771	8067.12
739.964	7710.77
740.156	7934
740.349	7968.82
740.542	8048.69
740.735	7501.88
740.927	7718.96
741.12	7690.29
741.313	7862.32
741.505	7854.13
741.698	8245.29
741.891	8230.96
742.083	7970.87
742.276	7723.06
742.468	8085.55
742.661	7731.25
742.854	7817.27
743.046	7675.96
743.239	8468.52
743.431	8081.46
743.624	7802.93
743.816	7546.94
744.009	8060.98
744.201	8261.68
744.393	8063.02
744.586	7669.81
744.778	8384.55
744.971	7929.91
745.163	7729.2
745.355	8040.5
745.548	8040.5
745.74	7794.74
745.932	7958.58
746.125	7964.72
746.317	8679.46
746.509	8020.02
746.702	7925.81
746.894	7854.13
747.086	8183.85
747.278	8355.88
747.471	8032.3
747.663	7925.81
747.855	7962.67
748.047	8396.84
748.239	7864.37
748.431	7587.89
748.623	8566.82
748.815	8312.88
749.008	7866.42
749.2	7936.05
749.392	8349.74
749.584	8329.26
749.776	7936.05
749.968	8054.83
750.16	8378.41
750.352	8073.26
750.544	7876.66
750.736	7745.59
750.928	8226.86
751.12	8009.78
751.311	8005.68
751.503	7950.39
751.695	8259.63
751.887	8017.97
752.079	7723.06
752.271	7876.66
752.463	9005.09
752.654	8103.98
752.846	7825.46
753.038	7923.76
753.23	8007.73
753.421	8278.06
753.613	7786.55
753.805	7931.95
753.997	8460.33
754.188	8106.03
754.38	7542.84
754.572	7909.43
754.763	8120.37
754.955	8374.31
755.146	7794.74
755.338	8069.17
755.53	8292.4
755.721	8165.42
755.913	7657.53
756.104	7678.01
756.296	8038.45
756.487	8161.33
756.679	7688.25
756.87	7800.88
757.062	8028.21
757.253	8503.34
757.445	7751.73
757.636	7868.47
757.827	7997.49
758.019	8742.95
758.21	7626.81
758.401	7794.74
758.593	8507.43
758.784	8472.62
758.975	7710.77
759.167	7675.96
759.358	7989.3
759.549	8362.03
759.74	7870.51
759.932	7919.67
760.123	8312.88
760.314	7993.39
760.505	8050.74
760.696	7759.92
760.888	8411.18
761.079	8052.78
761.27	7770.16
761.461	7737.4
761.652	8384.55
761.843	8130.61
762.034	7784.5
762.225	7995.44
762.416	8101.94
762.607	8013.87
762.798	7764.02
762.989	7850.03
763.18	8652.84
763.371	8042.54
763.562	7792.69
763.753	7653.43
763.944	8235.05
764.135	8286.25
764.326	8089.65
764.517	7768.12
764.708	8128.56
764.899	7999.54
765.089	7739.44
765.28	7548.98
765.471	8011.82
765.662	8134.7
765.853	7632.95
766.043	7471.16
766.234	8128.56
766.425	8241.2
766.615	7712.82
766.806	7612.47
766.997	8370.22
767.187	7952.43
767.378	7622.71
767.569	7432.25
767.759	8063.02
767.95	8003.63
768.141	7905.33
768.331	7716.92
768.522	7940.15
768.712	8024.11
768.903	7608.37
769.093	7680.05
769.284	8433.71
769.474	7981.1
769.665	7379
769.855	7618.61
770.046	7985.2
770.236	7858.23
770.426	7804.98
770.617	7591.99
770.807	7827.51
770.998	7833.65
771.188	7587.89
771.378	7462.97
771.569	8122.41
771.759	8089.65
771.949	7497.78
772.139	7483.45
772.33	7993.39
772.52	8157.23
772.71	7405.63
772.9	7391.29
773.09	8288.3
773.281	8138.8
773.471	7301.18
773.661	7575.61
773.851	8020.02
774.041	7651.38
774.231	7432.25
774.421	7804.98
774.611	8118.32
774.802	7661.62
774.992	7782.45
775.182	7469.11
775.372	7684.15
775.562	8017.97
775.752	7510.07
775.942	7616.57
776.131	8177.71
776.321	7927.86
776.511	7645.24
776.701	7512.12
776.891	7864.37
777.081	7718.96
777.271	7497.78
777.461	7635
777.651	8099.89
777.84	7985.2
778.03	7458.87
778.22	7462.97
778.41	7954.48
778.599	7682.1
778.789	7501.88
778.979	7448.63
779.169	7972.91
779.358	7780.4
779.548	7786.55
779.738	7139.39
779.927	7723.06
780.117	7559.22
780.307	7399.48
780.496	7104.57
780.686	7825.46
780.875	8173.61
781.065	7551.03
781.254	7553.08
781.444	7602.23
781.633	7694.39
781.823	7266.36
782.012	7264.32
782.202	7686.2
782.391	7702.58
782.581	7194.68
782.77	7626.81
782.96	7974.96
783.149	7538.74
783.338	7411.77
783.528	7299.13
783.717	7962.67
783.906	7968.82
784.096	7428.15
784.285	7344.19
784.474	7442.49
784.663	7655.48
784.853	7295.04
785.042	7370.81
785.231	7612.47
785.42	7874.61
785.61	7626.81
785.799	7116.86
785.988	7481.4
786.177	7598.13
786.366	7401.53
786.555	7477.3
786.744	7702.58
786.933	7411.77
787.122	7245.88
787.312	7135.29
787.501	7458.87
787.69	7688.25
787.879	7284.8
788.068	7272.51
788.257	7385.15
788.445	7325.75
788.634	7428.15
788.823	7200.83
789.012	8251.44
789.201	7995.44
789.39	7313.47
789.579	7344.19
789.768	7579.7
789.957	7555.13
790.145	7194.68
790.334	7123.01
790.523	7376.95
790.712	7630.9
790.9	7362.62
791.089	7114.81
791.278	7759.92
791.467	7495.74
791.655	7428.15
791.844	7743.54
792.033	7366.71
792.221	7481.4
792.41	7219.26
792.599	6977.6
792.787	7815.22
792.976	7579.7
793.164	7260.22
793.353	7284.8
793.541	7540.79
793.73	7680.05
793.918	7301.18
794.107	7170.11
794.295	7278.65
794.484	7678.01
794.672	7374.91
794.861	7092.29
795.049	7589.94
795.238	7837.75
795.426	6996.03
795.614	7274.56
795.803	7426.11
795.991	7913.52
796.179	7096.38
796.368	7159.87
796.556	7608.37
796.744	7131.2
796.932	7235.64
797.121	7088.19
797.309	7364.67
797.497	7694.39
797.685	7063.61
797.874	7272.51
798.062	7467.06
798.25	7831.6
798.438	7139.39
798.626	7104.57
798.814	7637.05
799.002	8126.51
799.19	7366.71
799.378	7311.42
799.566	7661.62
799.755	7878.71
799.943	7254.08
800.131	7225.4
800.318	7628.85
800.506	7610.42
800.694	7305.28
800.882	7338.04
801.07	7723.06
801.258	7481.4
801.446	7311.42
801.634	7178.3
801.822	7575.61
802.01	7618.61
802.197	7274.56
802.385	7456.82
802.573	7487.54
802.761	7424.06
802.949	7338.04
803.136	7309.37
803.324	7856.18
803.512	7524.41
803.699	7272.51
803.887	6938.69
804.075	7968.82
804.262	7501.88
804.45	7235.64
804.638	7456.82
804.825	7440.44
805.013	7548.98
805.201	7407.67
805.388	7419.96
805.576	7471.16
805.763	8075.31
805.951	7514.17
806.138	7614.52
806.326	8169.52
806.513	7735.35
806.701	7647.29
806.888	7338.04
807.075	7983.15
807.263	8216.62
807.45	7432.25
807.638	7413.82
807.825	8321.07
808.012	8167.47
808.2	7499.83
808.387	7739.44
808.574	7893.04
808.761	8181.81
808.949	7624.76
809.136	7571.51
809.323	7524.41
809.51	7776.31
809.698	7952.43
809.885	7831.6
810.072	7739.44
810.259	8259.63
810.446	7727.16
810.633	7518.26
810.82	8122.41
811.008	8304.68
811.195	7790.64
811.382	7725.11
811.569	8020.02
811.756	7669.81
811.943	7817.27
812.13	7868.47
812.317	7962.67
812.504	7745.59
812.691	7921.71
812.878	7899.19
813.064	8292.4
813.251	8015.92
813.438	7651.38
813.625	7772.21
813.812	8120.37
813.999	8001.58
814.186	7694.39
814.372	7843.89
814.559	8155.18
814.746	8497.19
814.933	7716.92
815.12	7968.82
815.306	7884.85
815.493	7997.49
815.68	7876.66
815.866	7909.43
816.053	8308.78
816.24	8560.68
816.426	7909.43
816.613	7809.08
816.799	8335.4
816.986	8351.79
817.173	7526.46
817.359	7616.57
817.546	8169.52
817.732	7843.89
817.919	7602.23
818.105	7837.75
818.292	7958.58
818.478	8153.13
818.665	8048.69
818.851	7731.25
819.037	8736.81
819.224	8108.08
819.41	7702.58
819.597	7751.73
819.783	8376.36
819.969	8155.18
820.156	7919.67
820.342	7716.92
820.528	8839.2
820.714	7999.54
820.901	8196.14
821.087	7893.04
821.273	8448.04
821.459	7772.21
821.646	7813.17
821.832	7774.26
822.018	8230.96
822.204	8101.94
822.39	7858.23
822.576	7635
822.762	8263.72
822.948	8144.94
823.134	7972.91
823.32	7647.29
823.507	7884.85
823.693	7981.1
823.879	8230.96
824.065	7809.08
824.25	8038.45
824.436	7696.44
824.622	7723.06
824.808	7710.77
824.994	7747.64
825.18	7745.59
825.366	7557.18
825.552	7708.73
825.738	7796.79
825.923	8063.02
826.109	7923.76
826.295	7591.99
826.481	7761.97
826.667	7841.84
826.852	7800.88
827.038	7440.44
827.224	8192.05
827.409	8343.6
827.595	7481.4
827.781	7645.24
827.966	8120.37
828.152	8101.94
828.338	7534.65
828.523	7667.77
828.709	7684.15
828.894	7997.49
829.08	7661.62
829.266	7577.66
829.451	7696.44
829.637	7985.2
829.822	7800.88
830.008	7589.94
830.193	8177.71
830.378	8179.76
830.564	7718.96
830.749	7540.79
830.935	7852.08
831.12	8024.11
831.305	7501.88
831.491	7786.55
831.676	7389.24
831.861	8099.89
832.047	7659.57
832.232	7528.5
832.417	7907.38
832.602	7686.2
832.788	7409.72
832.973	7374.91
833.158	7772.21
833.343	7798.84
833.528	7495.74
833.714	7561.27
833.899	7735.35
834.084	8357.93
834.269	7739.44
834.454	7465.02
834.639	7960.63
834.824	7716.92
835.009	7641.14
835.194	7534.65
835.379	7909.43
835.564	7921.71
835.749	7696.44
835.934	7424.06
836.119	7825.46
836.304	7882.8
836.489	7340.09
836.674	7469.11
836.859	7473.21
837.044	8038.45
837.228	7458.87
837.413	7350.33
837.598	7888.95
837.783	7833.65
837.968	7397.43
838.152	7096.38
838.337	7264.32
838.522	7784.5
838.707	7741.49
838.891	7254.08
839.076	7841.84
839.261	7809.08
839.445	7297.08
839.63	7604.28
839.815	7999.54
839.999	7393.34
840.184	7297.08
840.368	7325.75
840.553	7616.57
840.737	7852.08
840.922	7301.18
841.106	7344.19
841.291	7469.11
841.475	7602.23
841.66	7288.89
841.844	7278.65
842.029	8187.95
842.213	7381.05
842.397	7284.8
842.582	7170.11
842.766	7907.38
842.951	7616.57
843.135	7190.59
843.319	7180.35
843.504	7520.31
843.688	7639.09
843.872	6938.69
844.056	6828.1
844.241	7436.35
844.425	7505.98
844.609	7360.57
844.793	7065.66
844.977	7651.38
845.161	7505.98
845.346	7077.95
845.53	7352.38
845.714	7333.95
845.898	7700.53
846.082	7096.38
846.266	7092.29
846.45	7331.9
846.634	7655.48
846.818	7057.47
847.002	7284.8
847.186	7579.7
847.37	7098.43
847.554	7065.66
847.738	7139.39
847.922	7469.11
848.106	7522.36
848.29	6936.64
848.473	7143.49
848.657	7573.56
848.841	7131.2
849.025	7012.42
849.209	6924.35
849.392	7606.33
849.576	7407.67
849.76	6854.72
849.944	7024.7
850.127	7622.71
850.311	7055.42
850.495	6985.79
850.678	6867.01
850.862	7706.68
851.046	7845.94
851.229	7108.67
851.413	6934.59
851.596	7321.66
851.78	7190.59
851.964	7137.34
852.147	6975.55
852.331	7993.39
852.514	7538.74
852.698	7096.38
852.881	6660.17
853.065	7448.63
853.248	7239.74
853.431	7090.24
853.615	7057.47
853.798	7757.88
853.982	7342.14
854.165	7049.28
854.348	6934.59
854.532	7041.09
854.715	7172.16
854.898	6860.87
855.081	6850.63
855.265	7510.07
855.448	7579.7
855.631	6686.79
855.814	6762.56
855.997	7393.34
856.181	7069.76
856.364	6903.87
856.547	6686.79
856.73	7241.79
856.913	7108.67
857.096	6760.52
857.279	6854.72
857.462	6918.21
857.645	7237.69
857.828	6930.5
858.011	6944.83
858.194	6830.15
858.377	7288.89
858.56	6744.13
858.743	6778.95
858.926	6694.98
859.109	7022.66
859.292	6729.8
859.475	6498.38
859.658	7424.06
859.841	6950.98
860.023	6576.2
860.206	6481.99
860.389	6998.08
860.572	7317.56
860.755	6506.57
860.937	6549.57
861.12	6920.26
861.303	6842.43
861.486	6783.04
861.668	6846.53
861.851	7106.62
862.034	7022.66
862.216	6727.75
862.399	6465.61
862.581	6918.21
862.764	7098.43
862.947	6584.39
863.129	6561.86
863.312	6621.25
863.494	7118.91
863.677	6813.76
863.859	6342.73
864.042	6971.46
864.224	7190.59
864.406	6539.33
864.589	6228.04
864.771	6981.7
864.954	6760.52
865.136	6504.52
865.318	6334.54
865.501	6760.52
865.683	6301.77
865.865	6361.16
866.048	6436.94
866.23	6662.21
866.412	6789.19
866.594	6301.77
866.777	6498.38
866.959	6848.58
867.141	6565.96
867.323	6795.33
867.505	6557.77
867.687	6656.07
867.869	6817.86
868.052	6441.03
868.234	6234.19
868.416	6684.74
868.598	6881.35
868.78	6193.23
868.962	6156.36
869.144	6993.98
869.326	6764.61
869.508	6377.55
869.69	6256.72
869.872	6625.35
870.054	7008.32
870.236	6068.3
870.417	6369.35
870.599	6553.67
870.781	7065.66
870.963	6492.23
871.145	6283.34
871.327	6414.41
871.508	6846.53
871.69	6158.41
871.872	6303.82
872.054	6760.52
872.235	6731.84
872.417	6289.48
872.599	6156.36
872.78	6924.35
872.962	6541.38
873.144	6150.22
873.325	6418.5
873.507	6885.44
873.689	6672.45
873.87	6258.76
874.052	6451.27
874.233	6580.29
874.415	6924.35
874.596	6510.66
874.778	6082.64
874.959	6547.53
875.141	6826.05
875.322	6441.03
875.503	6352.97
875.685	6879.3
875.866	6342.73
876.048	6332.49
876.229	6293.58
876.41	6498.38
876.592	6856.77
876.773	6502.47
876.954	6252.62
877.136	6957.12
877.317	6703.17
877.498	6297.67
877.679	6555.72
877.86	6766.66
878.042	6512.71
878.223	6369.35
878.404	6789.19
878.585	6910.02
878.766	6985.79
878.947	6735.94
879.128	6688.84
879.309	6658.12
879.49	7114.81
879.672	6703.17
879.853	6535.24
880.034	6602.82
880.215	6703.17
880.396	6670.4
880.576	6578.25
880.757	6727.75
880.938	7118.91
881.119	6617.16
881.3	6279.24
881.481	6484.04
881.662	7587.89
881.843	6586.44
882.023	6555.72
882.204	7010.37
882.385	6752.32
882.566	6701.12
882.747	6506.57
882.927	6891.59
883.108	7018.56
883.289	6690.88
883.469	7030.85
883.65	7026.75
883.831	6957.12
884.011	7139.39
884.192	6793.28
884.373	7354.43
884.553	7090.24
884.734	6983.74
884.914	7024.7
885.095	7653.43
885.275	7393.34
885.456	7379
885.636	6770.76
885.817	7129.15
885.997	7180.35
886.178	6776.9
886.358	6852.67
886.538	7172.16
886.719	8286.25
886.899	6815.81
887.08	7030.85
887.26	7534.65
887.44	6973.5
887.621	6907.97
887.801	7047.23
887.981	7956.53
888.161	7661.62
888.342	7063.61
888.522	6967.36
888.702	7481.4
888.882	7567.42
889.062	7141.44
889.242	6932.54
889.423	7551.03
889.603	7307.32
889.783	7026.75
889.963	7043.14
890.143	7546.94
890.323	7694.39
890.503	7249.98
890.683	7004.22
890.863	7424.06
891.043	7354.43
891.223	7221.31
891.403	7295.04
891.583	7505.98
891.763	7469.11
891.943	7192.64
892.122	7192.64
892.302	7495.74
892.482	7372.86
892.662	7333.95
892.842	7252.03
893.022	7385.15
893.201	7344.19
893.381	7440.44
893.561	6975.55
893.741	7776.31
893.92	7510.07
894.1	7356.47
894.28	7286.84
894.459	7469.11
894.639	7661.62
894.819	7106.62
894.998	7362.62
895.178	7743.54
895.357	7555.13
895.537	7120.96
895.716	7176.25
895.896	7565.37
896.075	8013.87
896.255	7141.44
896.434	6965.31
896.614	7694.39
896.793	7639.09
896.973	7366.71
897.152	7297.08
897.331	7628.85
897.511	7563.32
897.69	7080
897.87	7397.43
898.049	7579.7
898.228	7510.07
898.407	7243.84
898.587	7327.8
898.766	7284.8
898.945	7639.09
899.124	7448.63
899.304	7182.4
899.483	7514.17
899.662	7864.37
899.841	6965.31
900.02	7051.33
900.199	7678.01
900.378	7368.76
900.557	6981.7
900.737	7108.67
900.916	7491.64
901.095	7587.89
901.274	7321.66
901.453	7034.94
901.632	7260.22
901.811	7125.05
901.989	7102.53
902.168	7209.02
902.347	7606.33
902.526	7028.8
902.705	7137.34
902.884	7137.34
903.063	7770.16
903.242	7555.13
903.42	7116.86
903.599	6998.08
903.778	7471.16
903.957	7721.01
904.135	7168.06
904.314	7178.3
904.493	7397.43
904.672	7561.27
904.85	7080
905.029	6887.49
905.207	7288.89
905.386	8050.74
905.565	6910.02
905.743	6932.54
905.922	6928.45
906.1	7565.37
906.279	6809.67
906.457	6662.21
906.636	7139.39
906.814	7096.38
906.993	6938.69
907.171	6897.73
907.35	7321.66
907.528	7342.14
907.707	7022.66
907.885	6660.17
908.063	7397.43
908.242	6950.98
908.42	6783.04
908.598	6598.73
908.777	7260.22
908.955	6803.52
909.133	6959.17
909.311	6465.61
909.49	6899.78
909.668	7153.73
909.846	6807.62
910.024	6563.91
910.202	7080
910.38	7041.09
910.559	6600.77
910.737	6580.29
910.915	7161.92
911.093	6756.42
911.271	6737.99
911.449	6748.23
911.627	6983.74
911.805	7335.99
911.983	6664.26
912.161	6459.46
912.339	6920.26
912.517	7260.22
912.695	6668.36
912.872	6602.82
913.05	6498.38
913.228	6817.86
913.406	6424.65
913.584	6230.09
913.762	6903.87
913.939	6588.49
914.117	6365.26
914.295	6481.99
914.473	6789.19
914.65	6711.36
914.828	6199.37
915.006	6223.95
915.184	6254.67
915.361	6709.32
915.539	6322.25
915.716	6469.7
915.894	6565.96
916.072	6879.3
916.249	6441.03
916.427	6455.37
916.604	6326.35
916.782	6672.45
916.959	6195.28
917.137	6207.56
917.314	6629.45
917.492	6656.07
917.669	6203.47
917.847	6248.52
918.024	6686.79
918.201	6289.48
918.379	6275.15
918.556	6080.59
918.733	6570.05
918.911	6289.48
919.088	6309.96
919.265	5933.14
919.442	6580.29
919.62	6096.97
919.797	5978.19
919.974	5881.94
920.151	6264.91
920.328	6293.58
920.506	5779.54
920.683	6185.04
920.86	5859.41
921.037	5994.58
921.214	5875.79
921.391	5920.85
921.568	6420.55
921.745	5994.58
921.922	5970
922.099	5943.38
922.276	6424.65
922.453	6156.36
922.63	5582.93
922.807	5994.58
922.984	6013.01
923.161	5793.87
923.338	5679.19
923.514	5644.37
923.691	5951.57
923.868	6060.11
924.045	5630.04
924.222	5632.08
924.399	6135.89
924.575	6086.73
924.752	5748.82
924.929	5572.69
925.105	6123.6
925.282	5613.65
925.459	5574.74
925.635	5546.07
925.812	5732.44
925.989	5591.13
926.165	5441.62
926.342	5410.9
926.518	5355.61
926.695	5714
926.871	5458.01
927.048	5179.48
927.224	5726.29
927.401	5597.27
927.577	5365.85
927.754	5187.68
927.93	5683.28
928.107	5705.81
928.283	5230.68
928.459	5412.95
928.636	5482.58
928.812	5412.95
928.988	4976.73
929.165	5017.69
929.341	5349.47
929.517	5560.41
929.693	5265.5
929.87	4747.36
930.046	5359.7
930.222	5234.78
930.398	4911.2
930.574	5015.65
930.751	5249.11
930.927	5064.8
931.103	5072.99
931.279	5091.42
931.455	4993.12
931.631	5294.17
931.807	4671.59
931.983	4638.82
932.159	4767.84
932.335	5093.47
932.511	4800.61
932.687	4622.44
932.863	4921.44
933.039	4806.75
933.215	4460.65
933.391	4429.93
933.566	4675.68
933.742	4935.78
933.918	4450.41
934.094	4307.05
934.27	4814.95
934.445	4663.4
934.621	4483.17
934.797	4122.73
934.973	4745.31
935.148	4593.76
935.324	4192.36
935.5	3827.82
935.675	4673.64
935.851	4300.91
936.027	4153.45
936.202	3965.04
936.378	4167.79
936.553	4159.6
936.729	4259.95
936.904	3698.8
937.08	3672.18
937.255	3670.13
937.431	3479.67
937.606	3516.53
937.782	3704.95
937.957	3639.41
938.133	3504.25
938.308	3225.72
938.483	3592.31
938.659	3244.15
938.834	3256.44
939.009	3082.36
939.185	3387.51
939.36	2996.35
939.535	2666.63
939.71	3172.47
939.886	3315.83
940.061	3113.08
940.236	3010.68
940.411	2762.88
940.586	3168.38
940.761	3303.54
940.937	2746.5
941.112	2736.26
941.287	3027.07
941.462	2916.48
941.637	2621.57
941.812	2592.9
941.987	2873.47
942.162	2787.46
942.337	2664.58
942.512	2588.8
942.687	3065.98
942.862	3004.54
943.037	2379.91
943.212	2228.36
943.386	2650.24
943.561	2601.09
943.736	2754.69
943.911	2658.43
944.086	2719.87
944.26	2656.39
944.435	2441.35
944.61	2631.81
944.785	2871.42
944.959	3104.89
945.134	2404.49
945.309	2283.66
945.483	2488.45
945.658	2756.74
945.833	2097.29
946.007	2095.24
946.182	3016.83
946.357	2240.65
946.531	2461.83
946.706	2347.14
946.88	2234.5
947.055	2658.43
947.229	2269.32
947.404	2322.57
947.578	2812.03
947.752	2543.75
947.927	2285.7
948.101	2166.92
948.276	2584.71
948.45	2568.32
948.624	2410.63
948.799	2353.29
948.973	2721.92
949.147	2265.22
949.321	2422.92
949.496	2242.7
949.67	2816.13
949.844	2627.71
950.018	2402.44
950.193	2314.38
950.367	3068.03
950.541	2470.02
950.715	2502.79
950.889	2517.12
951.063	2502.79
951.237	2771.07
951.411	2105.48
951.585	2275.46
951.759	2719.87
951.933	2539.65
952.107	2353.29
952.281	2537.6
952.455	2904.19
952.629	2738.3
952.803	2363.53
952.977	2269.32
953.151	2723.97
953.325	2617.47
953.499	2582.66
953.672	2183.31
953.846	2338.95
954.02	2486.4
954.194	2232.46
954.368	2271.37
954.541	2705.54
954.715	2486.4
954.889	2402.44
955.062	2353.29
955.236	2463.88
955.41	2558.08
955.583	2435.21
955.757	2115.72
955.93	2467.97
956.104	2162.83
956.278	2295.94
956.451	2484.36
956.625	2627.71
956.798	3039.36
956.972	2513.03
957.145	2076.81
957.319	2635.91
957.492	2465.93
957.665	2465.93
957.839	2199.69
958.012	2513.03
958.185	2353.29
958.359	2295.94
958.532	2541.7
958.705	2814.08
958.879	2693.25
959.052	2295.94
959.225	1960.08
959.398	2414.73
959.572	2574.47
959.745	2205.83
959.918	2328.71
960.091	2355.33
960.264	2629.76
960.438	2037.9
960.611	2074.76
960.784	2683.01
960.957	2338.95
961.13	2680.96
961.303	2214.02
961.476	2437.25
961.649	2783.36
961.822	2185.35
961.995	2228.36
962.168	2535.56
962.341	2529.41
962.514	2240.65
962.686	2336.9
962.859	2541.7
963.032	2672.77
963.205	2273.42
963.378	1894.54
963.551	2472.07
963.723	2336.9
963.896	2384.01
964.069	2347.14
964.242	2367.62
964.414	2676.87
964.587	2246.79
964.76	2324.62
964.932	2445.45
965.105	2427.01
965.278	2099.34
965.45	2179.21
965.623	2431.11
965.795	2697.35
965.968	2152.59
966.14	2193.55
966.313	2363.53
966.485	2355.33
966.658	2105.48
966.83	2171.02
967.003	2621.57
967.175	2558.08
967.348	2035.85
967.52	2240.65
967.692	2674.82
967.865	2513.03
968.037	2132.11
968.209	2494.6
968.382	2287.75
968.554	2574.47
968.726	2140.3
968.898	2035.85
969.071	2363.53
969.243	2416.77
969.415	2179.21
969.587	2207.88
969.759	2803.84
969.932	2517.12
970.104	1923.21
970.276	1790.1
970.448	2140.3
970.62	2234.5
970.792	2341
970.964	2064.52
971.136	2695.3
971.308	2478.21
971.48	2033.8
971.652	1925.26
971.824	2676.87
971.996	2187.4
972.168	2072.72
972.339	2027.66
972.511	2543.75
972.683	2275.46
972.855	2240.65
973.027	2150.54
973.199	2279.56
973.37	2451.59
973.542	2181.26
973.714	2142.35
973.886	2369.67
974.057	2437.25
974.229	2017.42
974.401	1917.07
974.572	1943.69
974.744	1894.54
974.915	1923.21
975.087	1861.77
975.259	2599.04
975.43	2097.29
975.602	2068.62
975.773	1933.45
975.945	2082.95
976.116	2496.64
976.288	1867.92
976.459	2066.57
976.63	2027.66
976.802	2242.7
976.973	1927.31
977.145	2177.16
977.316	2623.62
977.487	2535.56
977.659	2097.29
977.83	1884.3
978.001	2568.32
978.172	2226.31
978.344	1874.06
978.515	1992.84
978.686	2154.63
978.857	2527.36
979.028	1894.54
979.2	1876.11
979.371	2381.96
979.542	2078.86
979.713	2056.33
979.884	1482.9
980.055	1894.54
980.226	2050.19
980.397	1745.04
980.568	1829.01
980.739	2336.9
980.91	2082.95
981.081	1994.89
981.252	1747.09
981.423	2148.49
981.594	2259.08
981.765	1779.86
981.936	1988.75
982.106	2070.67
982.277	2326.66
982.448	1722.51
982.619	2050.19
982.79	1915.02
982.96	2308.23
983.131	1953.93
983.302	1536.15
983.472	1982.6
983.643	2109.58
983.814	2017.42
983.984	1679.51
984.155	1951.88
984.326	2283.66
984.496	1771.66
984.667	1757.33
984.837	1917.07
985.008	2218.12
985.178	2052.24
985.349	1880.21
985.519	2046.09
985.69	1747.09
985.86	1751.18
986.031	1652.88
986.201	2087.05
986.371	2123.91
986.542	1542.29
986.712	1532.05
986.882	2099.34
987.053	2027.66
987.223	1566.87
987.393	1894.54
987.563	1775.76
987.734	2109.58
987.904	2099.34
988.074	1646.74
988.244	2005.13
988.414	1771.66
988.585	1605.78
988.755	1757.33
988.925	1847.44
989.095	2254.98
989.265	1589.39
989.435	1814.67
989.605	1978.51
989.775	1955.98
989.945	1923.21
990.115	1513.62
990.285	1919.12
990.455	1865.87
990.625	1728.66
990.795	1527.96
990.965	2216.07
991.134	1712.27
991.304	1501.33
991.474	1468.56
991.644	1978.51
991.814	2181.26
991.984	1376.41
992.153	1564.82
992.323	1796.24
992.493	1742.99
992.662	1374.36
992.832	1718.42
993.002	1859.73
993.171	1708.18
993.341	1372.31
993.511	1704.08
993.68	1745.04
993.85	2005.13
994.019	1394.84
994.189	1390.74
994.358	1867.92
994.528	1734.8
994.697	1263.77
994.867	1446.04
995.036	2009.23
995.206	1673.36
995.375	1339.54
995.544	1652.88
995.714	1753.23
995.883	1583.25
996.052	1755.28
996.222	1210.52
996.391	2271.37
996.56	1742.99
996.73	1308.82
996.899	1245.34
997.068	2113.67
997.237	1783.95
997.406	1269.91
997.576	1308.82
997.745	1779.86
997.914	1597.59
998.083	1288.34
998.252	1323.16
998.421	1671.31
998.59	1501.33
998.759	1329.3
998.928	1149.08
999.097	1843.34
999.266	1742.99
999.435	1427.6
999.604	1095.83
999.773	2044.04
999.942	1542.29
1000.111	1140.89
1000.28	1120.41
1000.448	1568.91
1000.617	1357.97
1000.786	1454.23
1000.955	1198.23
1001.124	1599.63
1001.292	2240.65
1001.461	1269.91
1001.63	1216.66
1001.798	1917.07
1001.967	1941.65
1002.136	1128.6
1002.304	1173.66
1002.473	1585.3
1002.642	1683.6
1002.81	1259.67
1002.979	1263.77
1003.147	1749.14
1003.316	2044.04
1003.484	1251.48
1003.653	1233.05
1003.821	1804.43
1003.99	1476.76
1004.158	1269.91
1004.327	1362.07
1004.495	1654.93
1004.663	1333.4
1004.832	1452.18
1005	1083.55
1005.168	1507.48
1005.337	1452.18
1005.505	1083.55
1005.673	1321.11
1005.842	1683.6
1006.01	1525.91
1006.178	1069.21
1006.346	1142.94
1006.514	1575.06
1006.683	1794.19
1006.851	1120.41
1007.019	985.24
1007.187	1196.18
1007.355	975
1007.523	809.12
1007.691	866.46
1007.859	1079.45
1008.027	1642.64
1008.195	1110.17
1008.363	972.96
1008.531	1634.45
1008.699	1372.31
1008.867	878.75
1009.035	1003.68
1009.203	1706.13
1009.37	1357.97
1009.538	1097.88
1009.706	1460.37
1009.874	1370.26
1010.042	1314.97
1010.209	915.61
1010.377	821.41
1010.545	1519.76
1010.713	1196.18
1010.88	968.86
1011.048	993.44
1011.216	1120.41
1011.383	1659.03
1011.551	909.47
1011.718	833.69
1011.886	1587.35
1012.054	1362.07
1012.221	917.66
1012.389	899.23
1012.556	1323.16
1012.724	1740.94
1012.891	960.67
1013.058	796.83
1013.226	1413.27
1013.393	1405.08
1013.561	798.88
1013.728	702.62
1013.895	1460.37
1014.063	1411.22
1014.23	821.41
1014.397	831.65
1014.565	1462.42
1014.732	1175.7
1014.899	872.61
1015.066	854.17
1015.233	1247.38
1015.401	1421.46
1015.568	925.85
1015.735	1050.78
1015.902	1136.79
1016.069	1339.54
1016.236	829.6
1016.403	708.77
1016.57	948.38
1016.737	1480.85
1016.904	944.28
1017.071	741.54
1017.238	936.09
1017.405	1374.36
1017.572	809.12
1017.739	919.71
1017.906	1304.73
1018.073	1345.69
1018.24	729.25
1018.407	829.6
1018.573	1460.37
1018.74	1132.7
1018.907	813.21
1019.074	669.86
1019.241	1353.88
1019.407	1173.66
1019.574	714.91
1019.741	667.81
1019.907	1190.04
1020.074	1296.53
1020.241	499.88
1020.407	686.24
1020.574	1063.07
1020.74	1241.24
1020.907	776.35
1021.073	692.38
1021.24	1605.78
1021.406	1493.14
1021.573	669.86
1021.739	739.49
1021.906	1329.3
1022.072	1038.49
1022.239	790.69
1022.405	700.58
1022.571	1124.51
1022.738	854.17
1022.904	682.14
1023.07	676
1023.237	1013.92
1023.403	1257.62
1023.569	678.05
1023.735	694.43
1023.902	1124.51
1024.068	1075.35
1024.234	555.17
1024.4	612.51
1024.566	1185.94
1024.732	1212.57
1024.898	592.03
1025.065	417.96
1025.231	1167.51
1025.397	1001.63
1025.563	653.47
1025.729	583.84
1025.895	585.89
1026.061	800.93
1026.227	479.4
1026.392	624.8
1026.558	1218.71
1026.724	1069.21
1026.89	501.92
1027.056	598.18
1027.222	936.09
1027.388	837.79
1027.553	563.36
1027.719	493.73
1027.885	1392.79
1028.051	1093.79
1028.216	370.85
1028.382	549.03
1028.548	1046.68
1028.713	895.13
1028.879	420
1029.045	710.82
1029.21	1192.09
1029.376	1181.85
1029.541	635.04
1029.707	573.6
1029.873	1075.35
1030.038	1001.63
1030.204	493.73
1030.369	575.65
1030.534	1114.27
1030.7	784.54
1030.865	583.84
1031.031	428.2
1031.196	1042.59
1031.361	911.52
1031.527	473.25
1031.692	397.48
1031.857	463.01
1032.023	985.24
1032.188	350.37
1032.353	477.35
1032.518	1278.1
1032.684	899.23
1032.849	348.33
1033.014	549.03
1033.179	1050.78
1033.344	903.32
1033.509	506.02
1033.674	422.05
1033.839	1118.36
1034.004	989.34
1034.17	460.96
1034.335	348.33
1034.5	782.49
1034.664	733.34
1034.829	331.94
1034.994	532.64
1035.159	852.13
1035.324	1034.39
1035.489	432.29
1035.654	288.93
1035.819	1056.92
1035.984	794.78
1036.148	395.43
1036.313	538.79
1036.478	1040.54
1036.643	815.26
1036.807	354.47
1036.972	307.37
1037.137	970.91
1037.301	766.11
1037.466	288.93
1037.631	503.97
1037.795	1073.31
1037.96	843.93
1038.124	608.42
1038.289	268.45
1038.454	866.46
1038.618	921.76
1038.783	346.28
1038.947	499.88
1039.111	809.12
1039.276	653.47
1039.44	346.28
1039.605	913.56
1039.769	833.69
1039.933	759.97
1040.098	333.99
1040.262	632.99
1040.426	923.8
1040.591	921.76
1040.755	225.45
1040.919	381.09
1041.083	874.65
1041.248	698.53
1041.412	166.06
1041.576	301.22
1041.74	624.8
1041.904	958.62
1042.068	280.74
1042.232	350.37
1042.397	872.61
1042.561	866.46
1042.725	55.47
1042.889	407.72
1043.053	835.74
1043.217	792.73
1043.381	442.53
1043.544	247.97
1043.708	1046.68
1043.872	391.33
1044.036	43.18
1044.2	121
1044.364	981.15
1044.528	1038.49
1044.691	5021.79
1044.855	176.3
1045.019	895.13
1045.183	805.02
1045.346	444.58
1045.51	196.78
1045.674	776.35
1045.837	870.56
1046.001	280.74
1046.165	311.46
1046.328	1140.89
1046.492	762.02
1046.655	403.62
1046.819	407.72
1046.983	555.17
1047.146	702.62
1047.31	247.97
1047.473	18.6
1047.636	708.77
1047.8	440.48
1047.963	290.98
1048.127	227.5
1048.29	549.03
