Data from Ink_Intensity_USB4F045381__86__00086.txt Node

Date: Mon Jul 17 10:57:05 EDT 2023
User: mmckonesweet
Spectrometer: USB4F04538
Trigger mode: 4
Integration Time (sec): 9.000000E-1
Scans to average: 1
Electric dark correction enabled: true
Nonlinearity correction enabled: false
Boxcar width: 0
XAxis mode: Wavelengths
Number of Pixels in Spectrum: 3648
>>>>>Begin Spectral Data<<<<<
345.52	-1027.74
345.736	-1027.74
345.952	-1027.74
346.168	-1033.88
346.384	-1001.12
346.6	-149.16
346.816	-235.18
347.032	-263.85
347.248	328.02
347.464	-206.5
347.68	-87.72
347.896	82.26
348.112	325.97
348.328	-44.71
348.544	-128.68
348.76	112.98
348.975	266.58
349.191	-222.89
349.407	-196.26
349.623	49.49
349.839	-61.1
350.055	-91.82
350.27	67.92
350.486	225.62
350.702	340.3
350.918	260.43
351.133	-128.68
351.349	207.19
351.565	457.04
351.781	-247.46
351.996	35.16
352.212	356.69
352.428	-52.91
352.644	-210.6
352.859	-200.36
353.075	307.54
353.291	153.94
353.506	-11.95
353.722	-140.97
353.938	-38.57
354.153	422.22
354.369	178.51
354.584	-169.64
354.8	235.86
355.016	-255.65
355.231	-153.26
355.447	-110.25
355.662	117.08
355.878	917.83
356.093	-237.22
356.309	-5.8
356.524	-190.12
356.74	287.06
356.955	-237.22
357.171	-57
357.386	164.18
357.602	-153.26
357.817	12.63
358.033	-54.95
358.248	454.99
358.464	276.82
358.679	-140.97
358.895	-163.5
359.11	69.97
359.325	231.76
359.541	166.23
359.756	59.73
359.972	-282.28
360.187	289.1
360.402	-140.97
360.618	-112.3
360.833	1053
361.048	143.7
361.264	-134.82
361.479	35.16
361.694	26.96
361.909	287.06
362.125	-134.82
362.34	-126.63
362.555	330.06
362.77	174.42
362.986	-235.18
363.201	-169.64
363.416	215.38
363.631	-13.99
363.847	-179.88
364.062	-110.25
364.277	291.15
364.492	178.51
364.707	-140.97
364.922	-308.9
365.138	332.11
365.353	409.94
365.568	-247.46
365.783	-173.74
365.998	151.89
366.213	579.92
366.428	-249.51
366.643	115.03
366.858	252.24
367.073	198.99
367.288	-128.68
367.503	-59.05
367.718	123.22
367.933	350.54
368.148	-161.45
368.363	-1.71
368.578	164.18
368.793	543.05
369.008	-97.96
369.223	-149.16
369.438	293.2
369.653	450.89
369.868	-208.55
370.083	-95.91
370.298	178.51
370.513	481.61
370.728	78.16
370.943	-138.92
371.157	-136.87
371.372	686.41
371.587	-192.17
371.802	-235.18
372.017	147.8
372.232	538.96
372.446	6.49
372.661	-229.03
372.876	252.24
373.091	266.58
373.306	-22.19
373.52	-71.34
373.735	-48.81
373.95	547.15
374.165	-36.52
374.379	0.34
374.594	-24.23
374.809	194.9
375.023	84.31
375.238	-155.3
375.453	358.74
375.667	-140.97
375.882	14.68
376.097	-95.91
376.311	72.02
376.526	-1.71
376.741	-210.6
376.955	137.56
377.17	624.97
377.384	610.64
377.599	-1.71
377.813	-128.68
378.028	743.75
378.242	287.06
378.457	72.02
378.672	-226.98
378.886	151.89
379.101	35.16
379.315	-198.31
379.53	31.06
379.744	256.34
379.958	362.83
380.173	-87.72
380.387	-34.47
380.602	229.71
380.816	-75.43
381.031	-52.91
381.245	-22.19
381.459	203.09
381.674	2703.66
381.888	-48.81
382.103	131.41
382.317	-128.68
382.531	516.43
382.746	74.07
382.96	-106.15
383.174	2.39
383.388	551.24
383.603	190.8
383.817	-177.83
384.031	272.72
384.246	590.16
384.46	63.83
384.674	338.26
384.888	194.9
385.103	121.17
385.317	-85.67
385.531	112.98
385.745	526.67
385.959	418.13
386.174	-81.58
386.388	-59.05
386.602	143.7
386.816	-67.24
387.03	94.55
387.244	-13.99
387.458	264.53
387.672	534.86
387.887	-147.11
388.101	-89.77
388.315	514.38
388.529	233.81
388.743	-32.43
388.957	-112.3
389.171	448.85
389.385	-71.34
389.599	39.25
389.813	211.28
390.027	305.49
390.241	842.06
390.455	-13.99
390.669	6.49
390.883	117.08
391.097	575.82
391.311	264.53
391.525	-5.8
391.738	407.89
391.952	360.78
392.166	53.59
392.38	-13.99
392.594	432.46
392.808	586.06
393.022	51.54
393.236	96.6
393.449	473.42
393.663	352.59
393.877	-77.48
394.091	121.17
394.305	55.64
394.518	102.74
394.732	-136.87
394.946	14.68
395.16	616.78
395.373	319.82
395.587	-36.52
395.801	-13.99
396.015	532.81
396.228	504.14
396.442	-83.63
396.656	-188.07
396.869	426.32
397.083	649.55
397.297	137.56
397.51	57.68
397.724	551.24
397.938	373.07
398.151	-134.82
398.365	-71.34
398.578	514.38
398.792	608.59
399.005	248.15
399.219	51.54
399.433	411.98
399.646	395.6
399.86	254.29
400.073	264.53
400.287	454.99
400.5	242
400.714	182.61
400.927	127.32
401.141	461.13
401.354	1247.55
401.567	401.74
401.781	-93.87
401.994	530.77
402.208	833.86
402.421	133.46
402.635	129.36
402.848	264.53
403.061	616.78
403.275	231.76
403.488	92.5
403.701	629.07
403.915	547.15
404.128	274.77
404.341	129.36
404.555	522.57
404.768	319.82
404.981	342.35
405.195	47.44
405.408	739.66
405.621	467.28
405.834	321.87
406.048	67.92
406.261	715.08
406.474	797
406.687	90.45
406.9	264.53
407.114	403.79
407.327	401.74
407.54	88.4
407.753	6.49
407.966	229.71
408.179	579.92
408.392	106.84
408.605	-5.8
408.819	457.04
409.032	538.96
409.245	84.31
409.458	389.46
409.671	551.24
409.884	649.55
410.097	41.3
410.31	491.85
410.523	573.77
410.736	379.22
410.949	237.91
411.162	174.42
411.375	825.67
411.588	612.68
411.801	432.46
412.014	170.32
412.227	450.89
412.44	387.41
412.653	198.99
412.865	385.36
413.078	672.08
413.291	608.59
413.504	287.06
413.717	209.23
413.93	690.51
414.143	221.52
414.356	346.45
414.568	33.11
414.781	729.42
414.994	510.29
415.207	323.92
415.42	338.26
415.632	672.08
415.845	934.22
416.058	170.32
416.271	182.61
416.483	526.67
416.696	987.46
416.909	285.01
417.121	256.34
417.334	680.27
417.547	903.5
417.759	260.43
417.972	268.63
418.185	356.69
418.397	694.6
418.61	219.47
418.823	256.34
419.035	923.98
419.248	620.88
419.46	409.94
419.673	420.17
419.885	588.11
420.098	547.15
420.311	323.92
420.523	125.27
420.736	747.85
420.948	465.23
421.161	395.6
421.373	117.08
421.586	641.36
421.798	498
422.01	207.19
422.223	536.91
422.435	422.22
422.648	829.77
422.86	366.93
423.073	387.41
423.285	860.49
423.497	354.64
423.71	360.78
423.922	379.22
424.134	674.12
424.347	1030.47
424.559	598.35
424.771	805.19
424.984	612.68
425.196	661.84
425.408	178.51
425.621	395.6
425.833	944.45
426.045	979.27
426.257	342.35
426.47	461.13
426.682	756.04
426.894	751.95
427.106	491.85
427.318	502.09
427.531	493.9
427.743	846.15
427.955	508.24
428.167	799.05
428.379	825.67
428.591	663.88
428.804	688.46
429.016	424.27
429.228	649.55
429.44	844.1
429.652	729.42
429.864	452.94
430.076	704.84
430.288	723.27
430.5	479.57
430.712	633.16
430.924	1077.57
431.136	833.86
431.348	461.13
431.56	465.23
431.772	768.33
431.984	739.66
432.196	571.72
432.408	506.19
432.62	700.75
432.832	936.26
433.044	889.16
433.256	729.42
433.468	1032.52
433.679	620.88
433.891	553.29
434.103	901.45
434.315	1136.96
434.527	1188.16
434.739	801.1
434.95	618.83
435.162	1204.55
435.374	788.81
435.586	833.86
435.798	657.74
436.009	784.71
436.221	872.78
436.433	782.67
436.645	733.51
436.856	837.96
437.068	1202.5
437.28	627.02
437.491	1034.57
437.703	1132.87
437.915	1122.63
438.126	780.62
438.338	1028.42
438.55	936.26
438.761	1083.72
438.973	848.2
439.184	794.95
439.396	1096
439.608	1306.95
439.819	706.89
440.031	903.5
440.242	1157.44
440.454	1237.31
440.665	946.5
440.877	1038.66
441.088	1268.03
441.3	1046.85
441.511	690.51
441.723	854.34
441.934	1227.07
442.146	1100.1
442.357	1063.24
442.569	1313.09
442.78	1188.16
442.991	1612.09
443.203	1276.23
443.414	801.1
443.626	1493.31
443.837	1085.76
444.048	936.26
444.26	708.94
444.471	1241.41
444.682	1370.43
444.894	790.86
445.105	772.43
445.316	1487.17
445.528	1411.39
445.739	1225.03
445.95	1083.72
446.161	1220.93
446.373	1581.37
446.584	1093.96
446.795	1009.99
447.006	1501.5
447.217	1659.2
447.429	880.97
447.64	938.31
447.851	1646.91
448.062	1333.57
448.273	997.7
448.484	1104.2
448.695	1476.93
448.907	1229.12
449.118	1200.45
449.329	1440.06
449.54	1265.99
449.751	1091.91
449.962	1087.81
450.173	1067.33
450.384	1691.96
450.595	1683.77
450.806	1286.47
451.017	1165.64
451.228	1749.31
451.439	1618.24
451.65	1151.3
451.861	1009.99
452.072	1175.88
452.283	1407.3
452.494	1356.1
452.705	1071.43
452.915	1737.02
453.126	1632.57
453.337	1390.91
453.548	1315.14
453.759	1849.66
453.97	2074.93
454.181	1540.41
454.391	1364.29
454.602	1618.24
454.813	1792.31
455.024	1435.97
455.235	1390.91
455.445	1716.54
455.656	1714.49
455.867	1587.52
456.078	1456.45
456.288	1587.52
456.499	1874.23
456.71	1313.09
456.921	1653.05
457.131	1861.94
457.342	1708.35
457.553	1474.88
457.763	1507.65
457.974	1997.11
458.184	2083.13
458.395	1585.47
458.606	1481.02
458.816	2103.61
459.027	2296.11
459.237	1698.11
459.448	1579.33
459.659	2011.45
459.869	2478.38
460.08	1509.69
460.29	1970.49
460.501	2433.33
460.711	2003.25
460.922	1603.9
461.132	1702.2
461.343	2666.8
461.553	1718.59
461.764	1816.89
461.974	1913.14
462.184	2339.12
462.395	2208.05
462.605	2021.69
462.816	1784.12
463.026	2179.38
463.236	2505.01
463.447	1872.18
463.657	1874.23
463.867	2550.06
464.078	2150.71
464.288	1947.96
464.498	2009.4
464.709	2380.08
464.919	2179.38
465.129	2167.09
465.339	2066.74
465.55	2386.22
465.76	2584.88
465.97	2332.98
466.18	2191.67
466.391	2650.41
466.601	2556.21
466.811	2435.38
467.021	2140.47
467.231	2765.1
467.441	2906.41
467.651	2470.19
467.862	2240.82
468.072	2697.52
468.282	3066.15
468.492	2406.7
468.702	2552.11
468.912	2740.52
469.122	3520.8
469.332	2890.03
469.542	2554.16
469.752	3148.07
469.962	3086.63
470.172	2763.05
470.382	2779.43
470.592	3283.24
470.802	3502.37
471.012	2953.51
471.222	2998.57
471.432	3391.78
471.642	3311.91
471.852	3154.21
472.062	3037.48
472.272	3205.41
472.482	3060.01
472.691	3133.73
472.901	3012.9
473.111	3461.41
473.321	4000.02
473.531	3336.48
473.741	3483.94
473.95	3746.08
474.16	3784.99
474.37	3453.22
474.58	3354.91
474.79	4350.23
474.999	4004.12
475.209	3610.91
475.419	3803.42
475.628	3916.06
475.838	4260.12
476.048	3852.57
476.258	3774.75
476.467	4329.75
476.677	4063.51
476.886	4174.1
477.096	4198.68
477.306	4061.46
477.515	4626.7
477.725	4262.16
477.935	4243.73
478.144	4720.91
478.354	4360.47
478.563	4292.88
478.773	4319.51
478.982	4929.8
479.192	4933.9
479.401	4471.06
479.611	4413.71
479.82	4761.87
480.03	4972.81
480.239	4626.7
480.449	4688.14
480.658	5441.79
480.868	4935.95
481.077	4864.27
481.287	4821.26
481.496	5284.1
481.705	5343.49
481.915	5249.29
482.124	5404.93
482.333	5601.54
482.543	5761.28
482.752	5331.2
482.961	5345.54
483.171	5712.13
483.38	5486.85
483.589	5474.56
483.799	5380.36
484.008	5712.13
484.217	6113.53
484.426	5572.86
484.636	5570.82
484.845	5927.16
485.054	5685.5
485.263	6033.66
485.472	5882.11
485.682	6580.46
485.891	6369.52
486.1	5851.39
486.309	6027.51
486.518	6562.03
486.727	6666.48
486.936	6088.95
487.146	6334.71
487.355	6928.62
487.564	6521.07
487.773	6457.59
487.982	6387.96
488.191	6553.84
488.4	6959.34
488.609	6551.79
488.818	6584.56
489.027	7526.63
489.236	7461.09
489.445	6912.24
489.654	6832.37
489.863	7448.8
490.072	7166.18
490.281	7436.52
490.49	6936.81
490.698	7608.55
490.907	7743.71
491.116	7117.03
491.325	7008.49
491.534	7815.39
491.743	7559.39
491.952	7379.17
492.16	7649.5
492.369	7715.04
492.578	7942.36
492.787	7563.49
492.996	7477.48
493.204	7641.31
493.413	8358.1
493.622	7500
493.831	7561.44
494.039	8284.37
494.248	7768.29
494.457	7735.52
494.665	7817.44
494.874	8351.96
495.083	8747.22
495.291	8024.28
495.5	8108.25
495.709	8552.66
495.917	8358.1
496.126	8265.94
496.335	8255.7
496.543	8331.48
496.752	8468.69
496.96	8480.98
497.169	8311
497.377	8759.5
497.586	9060.56
497.794	8607.95
498.003	8526.04
498.211	8956.11
498.42	9459.91
498.628	8677.58
498.837	8755.41
499.045	9072.84
499.254	8939.72
499.462	8784.08
499.671	8810.7
499.879	9631.94
500.087	9347.27
500.296	8927.44
500.504	8956.11
500.713	9380.04
500.921	9918.65
501.129	9017.55
501.338	9021.64
501.546	9519.3
501.754	9439.43
501.962	9369.8
502.171	9308.36
502.379	9808.06
502.587	10090.68
502.795	9597.12
503.004	9365.7
503.212	9656.51
503.42	10113.21
503.628	9603.27
503.837	9859.26
504.045	10143.93
504.253	10721.46
504.461	9638.08
504.669	9590.98
504.877	10455.22
505.085	10715.31
505.294	9799.87
505.502	9980.09
505.71	10139.83
505.918	10531
506.126	9738.43
506.334	9873.6
506.542	10582.2
506.75	10379.45
506.958	10358.97
507.166	10383.54
507.374	10381.49
507.582	10991.79
507.79	10367.16
507.998	10332.34
508.206	10858.67
508.414	10711.22
508.622	10508.47
508.83	10229.95
509.037	11032.75
509.245	10492.09
509.453	10541.24
509.661	10494.13
509.869	11188.39
510.077	11094.19
510.285	10793.14
510.492	10244.28
510.7	11751.59
510.908	10877.1
511.116	10727.6
511.324	10815.66
511.531	11010.22
511.739	11335.85
511.947	11440.29
512.155	11124.91
512.362	11233.45
512.57	10997.93
512.778	11266.22
512.985	11020.46
513.193	11690.15
513.401	11876.51
513.608	11274.41
513.816	11303.08
514.024	11694.24
514.231	12026.01
514.439	11372.71
514.646	11296.94
514.854	12054.69
515.061	11911.33
515.269	11454.63
515.477	11604.13
515.684	11679.91
515.892	12126.36
516.099	11428.01
516.307	11565.22
516.514	12298.39
516.722	12439.7
516.929	11749.54
517.136	11757.73
517.344	12531.86
517.551	12370.07
517.759	11729.06
517.966	11980.96
518.173	11989.15
518.381	12298.39
518.588	12146.84
518.796	12056.73
519.003	12654.74
519.21	12480.66
519.418	11896.99
519.625	12601.49
519.832	12449.94
520.039	12626.07
520.247	12257.43
520.454	12525.72
520.661	12871.82
520.868	12822.67
521.076	12568.73
521.283	12550.29
521.49	13461.64
521.697	13170.83
521.904	12855.44
522.112	12671.12
522.319	12974.22
522.526	13064.33
522.733	12935.31
522.94	12773.52
523.147	13136.01
523.354	13371.53
523.561	13025.42
523.768	13226.12
523.975	13404.3
524.183	13185.16
524.39	13158.54
524.597	13119.63
524.804	13258.89
525.011	13330.57
525.218	13232.27
525.425	13334.67
525.632	13949.06
525.838	13484.17
526.045	13379.72
526.252	13596.81
526.459	14946.42
526.666	14565.5
526.873	13502.6
527.08	13637.77
527.287	14211.2
527.494	14192.76
527.701	13607.05
527.907	13543.56
528.114	14143.61
528.321	14162.05
528.528	13715.59
528.735	14047.36
528.941	14205.05
529.148	13918.34
529.355	13961.34
529.562	13969.54
529.768	14796.92
529.975	14110.85
530.182	14180.48
530.388	14065.79
530.595	14600.31
530.802	14252.16
531.008	14495.86
531.215	14278.78
531.422	15442.03
531.628	15523.94
531.835	14575.73
532.042	14751.86
532.248	14715
532.455	15083.63
532.661	14772.34
532.868	14461.05
533.074	14975.09
533.281	15278.19
533.487	14710.9
533.694	14762.1
533.9	15042.67
534.107	15298.67
534.313	15044.72
534.52	15198.32
534.726	15683.69
534.933	16001.12
535.139	15183.98
535.345	15190.13
535.552	15700.07
535.758	15802.47
535.965	15220.85
536.171	15300.72
536.377	15937.63
536.584	16029.79
536.79	15292.52
536.996	15620.2
537.203	15931.49
537.409	15994.98
537.615	15390.83
537.821	15845.48
538.028	15933.54
538.234	16347.23
538.44	15730.79
538.646	15925.35
538.853	16451.67
539.059	15878.24
539.265	16156.77
539.471	15941.73
539.677	16500.83
539.883	16167.01
540.09	16058.46
540.296	16431.19
540.502	16255.07
540.708	16398.43
540.914	16425.05
541.12	16099.42
541.326	16918.61
541.532	16808.02
541.738	16717.91
541.944	16697.43
542.15	17221.71
542.356	17014.87
542.562	16668.76
542.768	16779.35
542.974	17389.64
543.18	17614.92
543.386	16986.19
543.592	16830.55
543.798	17588.3
544.004	17424.46
544.21	16955.47
544.415	17154.13
544.621	17416.27
544.827	17520.71
545.033	17311.82
545.239	17582.15
545.445	17475.66
545.651	17819.72
545.856	17188.94
546.062	17365.07
546.268	17522.76
546.474	17795.14
546.679	17285.2
546.885	17434.7
547.091	17594.44
547.297	18149.44
547.502	17471.56
547.708	17457.23
547.914	17389.64
548.119	18251.84
548.325	17432.65
548.531	17336.4
548.736	18255.93
548.942	17797.19
549.147	17514.57
549.353	17877.06
549.559	18417.72
549.764	18151.49
549.97	17645.64
550.175	17967.17
550.381	18589.75
550.586	17981.51
550.792	18094.15
550.997	18032.71
551.203	18583.61
551.408	18595.9
551.614	18096.19
551.819	18288.7
552.025	19048.5
552.23	19251.25
552.435	18350.14
552.641	18749.5
552.846	18755.64
553.052	19128.37
553.257	18841.65
553.462	18753.59
553.668	18767.93
553.873	19093.55
554.078	18651.19
554.283	18901.04
554.489	19269.68
554.694	19392.56
554.899	18634.81
555.105	19152.95
555.31	19275.82
555.515	19546.16
555.72	19210.29
555.925	18982.96
556.131	19599.4
556.336	19324.97
556.541	19404.85
556.746	19118.13
556.951	19642.41
557.156	19789.86
557.361	19462.19
557.567	19503.15
557.772	20148.26
557.977	19699.75
558.182	19189.81
558.387	19644.46
558.592	19746.86
558.797	19879.97
559.002	19513.39
559.207	19599.4
559.412	19892.26
559.617	20256.8
559.822	19470.38
560.027	19726.38
560.232	20070.44
560.437	20207.65
560.642	19775.53
560.847	19857.45
561.051	20021.28
561.256	20191.27
561.461	19900.45
561.666	19951.65
561.871	20512.8
562.076	20375.58
562.281	20006.95
562.485	19830.82
562.69	20750.36
562.895	20678.68
563.1	20297.76
563.305	20240.42
563.509	20867.09
563.714	20799.51
563.919	20258.85
564.123	20285.47
564.328	20645.91
564.533	21098.52
564.737	20107.3
564.942	20570.14
565.147	20764.7
565.351	21241.87
565.556	20596.76
565.761	20695.07
565.965	21162
566.17	20523.04
566.374	20793.37
566.579	20336.67
566.784	21020.69
566.988	21092.37
567.193	20879.38
567.397	20731.93
567.602	20801.56
567.806	21252.11
568.011	20715.55
568.215	20949.01
568.42	21364.75
568.624	21270.54
568.828	20959.25
569.033	21069.84
569.237	21618.7
569.442	21606.41
569.646	20811.8
569.85	21282.83
570.055	21524.49
570.259	21731.34
570.463	21489.68
570.668	21524.49
570.872	21450.77
571.076	21590.03
571.281	21813.26
571.485	21725.19
571.689	21946.37
571.893	21901.32
572.098	21901.32
572.302	21594.12
572.506	22212.61
572.71	21946.37
572.914	21811.21
573.119	21729.29
573.323	22593.53
573.527	22382.59
573.731	22069.25
573.935	21991.43
574.139	22325.25
574.343	21837.83
574.547	22013.96
574.751	22272
574.955	22630.4
575.159	22831.1
575.364	22190.08
575.568	21895.18
575.772	22519.81
575.976	22798.33
576.18	22384.64
576.383	22427.65
576.587	23025.65
576.791	22771.71
576.995	22226.95
577.199	22597.63
577.403	22956.02
577.607	23164.92
577.811	22343.68
578.015	22710.27
578.219	23033.85
578.422	23119.86
578.626	22628.35
578.83	22831.1
579.034	23267.31
579.238	23287.79
579.442	22949.88
579.645	23293.94
579.849	23214.07
580.053	23545.84
580.257	22747.13
580.46	23119.86
580.664	23330.8
580.868	23504.88
581.071	23300.08
581.275	23130.1
581.479	22962.17
581.682	23484.4
581.886	23087.09
582.09	23248.88
582.293	24053.73
582.497	23971.82
582.7	23603.18
582.904	23201.78
583.107	23838.7
583.311	23652.33
583.515	23599.09
583.718	23728.11
583.922	24102.89
584.125	24238.05
584.329	23633.9
584.532	23881.7
584.735	24446.94
584.939	23924.71
585.142	23285.75
585.346	24020.97
585.549	24336.35
585.753	24055.78
585.956	24072.17
586.159	24061.93
586.363	24981.46
586.566	24557.53
586.769	24117.22
586.973	24102.89
587.176	24659.93
587.379	24895.45
587.582	24903.64
587.786	24645.6
587.989	24694.75
588.192	25520.08
588.395	24285.15
588.599	24932.31
588.802	24774.62
589.005	24797.15
589.208	24811.48
589.411	24227.81
589.615	24940.5
589.818	25475.02
590.021	25010.14
590.224	24895.45
590.427	25364.43
590.63	25346
590.833	25212.88
591.036	24848.35
591.239	25513.94
591.442	25155.54
591.645	25503.7
591.848	25323.47
592.051	25335.76
592.254	25825.23
592.457	25255.89
592.66	25567.18
592.863	25524.18
593.066	25833.42
593.269	25442.26
593.472	25511.89
593.675	25782.22
593.878	25765.84
594.081	25829.32
594.284	25513.94
594.486	25954.25
594.689	26058.7
594.892	25452.5
595.095	25915.34
595.298	26175.43
595.5	25921.48
595.703	26007.5
595.906	25941.96
596.109	26591.17
596.311	26240.96
596.514	25765.84
596.717	26251.2
596.92	27056.06
597.122	26881.98
597.325	25710.54
597.528	26165.19
597.73	26826.68
597.933	26630.08
598.136	26163.14
598.338	26111.94
598.541	26841.02
598.743	26881.98
598.946	26253.25
599.148	26396.61
599.351	26781.63
599.554	27297.72
599.756	26582.98
599.959	27045.82
600.161	26986.43
600.363	27699.12
600.566	26963.9
600.768	26914.75
600.971	27127.74
601.173	27156.41
601.376	26640.32
601.578	26742.72
601.78	27307.96
601.983	27967.4
602.185	26898.36
602.388	27152.31
602.59	27090.87
602.792	27527.09
602.995	27402.16
603.197	27031.48
603.399	27664.3
603.601	27522.99
603.804	26951.61
604.006	27324.34
604.208	27426.74
604.41	26879.93
604.613	27072.44
604.815	26972.09
605.017	27959.21
605.219	27160.5
605.421	27400.12
605.623	27596.72
605.826	27674.54
606.028	27817.9
606.23	27412.4
606.432	27166.65
606.634	28104.62
606.836	27789.23
607.038	27396.02
607.24	27965.35
607.442	28047.27
607.644	27609.01
607.846	27785.13
608.048	27774.89
608.25	28231.59
608.452	27887.53
608.654	27504.56
608.856	27426.74
609.058	27641.78
609.26	28276.65
609.462	27881.39
609.664	27848.62
609.866	28514.21
610.067	28401.57
610.269	27805.61
610.471	27918.25
610.673	28127.14
610.875	28336.04
611.077	27723.69
611.278	27862.96
611.48	28065.71
611.682	28657.57
611.884	28077.99
612.085	28045.23
612.287	28030.89
612.489	28712.86
612.69	27836.33
612.892	28207.01
613.094	28458.92
613.295	28047.27
613.497	28133.29
613.699	28325.8
613.9	29018.01
614.102	28374.95
614.304	28157.86
614.505	28041.13
614.707	28067.75
614.908	28219.3
615.11	28049.32
615.311	28290.98
615.513	28626.85
615.714	28581.79
615.916	28297.13
616.117	28440.48
616.319	28536.74
616.52	28813.21
616.722	27934.64
616.923	28551.07
617.124	29063.07
617.326	28514.21
617.527	28471.2
617.729	28528.55
617.93	28880.8
618.131	28800.93
618.333	28385.19
618.534	28575.65
618.735	28581.79
618.937	28753.82
619.138	28534.69
619.339	28372.9
619.54	29052.83
619.742	28790.69
619.943	28886.94
620.144	28903.32
620.345	29185.94
620.546	29165.46
620.748	28868.51
620.949	28641.18
621.15	28956.57
621.351	28587.94
621.552	28731.29
621.753	28759.97
621.954	28479.39
622.155	29298.58
622.356	28698.53
622.558	28698.53
622.759	28868.51
622.96	29626.26
623.161	29065.11
623.362	28895.13
623.563	29214.62
623.764	28866.46
623.965	29097.88
624.166	29669.26
624.366	29013.91
624.567	29147.03
624.768	28907.42
624.969	28995.48
625.17	29013.91
625.371	29212.57
625.572	29239.19
625.773	28653.47
625.973	29792.14
626.174	29220.76
626.375	29026.2
626.576	29497.24
626.777	29820.81
626.977	29912.97
627.178	29632.4
627.379	29069.21
627.58	29302.68
627.78	29548.43
627.981	29364.12
628.182	29579.15
628.382	29822.86
628.583	29106.07
628.784	29192.09
628.984	29425.56
629.185	29781.9
629.386	29640.59
629.586	29216.66
629.787	29472.66
629.987	30263.18
630.188	29646.74
630.388	29304.73
630.589	29489.04
630.79	30062.47
630.99	30037.9
631.191	29616.02
631.391	29966.22
631.591	30132.11
631.792	29886.35
631.992	29863.82
632.193	29949.84
632.393	30224.26
632.594	30001.04
632.794	29460.37
632.994	30189.45
633.195	29955.98
633.395	30232.46
633.595	29935.5
633.796	30003.08
633.996	29878.16
634.196	30326.66
634.397	29951.88
634.597	30150.54
634.797	29759.38
634.997	30496.64
635.198	30142.35
635.398	29613.97
635.598	30138.25
635.798	30820.22
635.998	29960.08
636.199	30216.07
636.399	30267.27
636.599	30220.17
636.799	30359.43
636.999	30394.25
637.199	30553.99
637.399	30744.45
637.599	30302.09
637.799	30326.66
637.999	30254.98
638.199	30932.86
638.399	30277.51
638.599	30074.76
638.799	30758.78
638.999	31278.97
639.199	30529.41
639.399	30523.27
639.599	30951.29
639.799	30400.39
639.999	30525.32
640.199	30429.06
640.399	30777.22
640.599	30115.72
640.799	31127.42
640.998	30498.69
641.198	31121.27
641.398	30691.2
641.598	30773.12
641.798	30726.02
641.997	31952.75
642.197	31106.94
642.397	30934.91
642.597	30580.61
642.796	31053.69
642.996	31154.04
643.196	31084.41
643.395	30642.05
643.595	31151.99
643.795	30650.24
643.994	30842.75
644.194	31070.08
644.394	31649.65
644.593	31369.08
644.793	30824.32
644.992	31141.75
645.192	31340.41
645.392	30945.15
645.591	31352.69
645.791	31154.04
645.99	31623.03
646.19	31864.69
646.389	31305.59
646.589	31151.99
646.788	31569.78
646.987	31477.62
647.187	31915.89
647.386	31287.16
647.586	31780.72
647.785	31965.04
647.984	31362.93
648.184	31340.41
648.383	31608.69
648.582	31346.55
648.782	31354.74
648.981	32001.9
649.18	31332.22
649.38	31960.94
649.579	31543.16
649.778	31682.42
649.977	32245.61
650.177	31674.23
650.376	31473.53
650.575	31623.03
650.774	32241.51
650.973	31690.61
651.173	31285.11
651.372	31588.21
651.571	31993.71
651.77	32098.16
651.969	31948.65
652.168	31801.2
652.367	31985.52
652.566	31745.9
652.765	32028.52
652.964	32161.64
653.163	32698.21
653.362	31895.41
653.561	31649.65
653.76	31983.47
653.959	32036.72
654.158	32651.11
654.357	32124.78
654.556	31983.47
654.755	32573.28
654.954	32397.16
655.153	31616.88
655.352	31741.81
655.551	32372.58
655.749	32382.82
655.948	31901.55
656.147	31950.7
656.346	32081.77
656.545	32069.48
656.743	32094.06
656.942	32245.61
657.141	32624.48
657.34	32354.15
657.538	31909.74
657.737	32231.27
657.936	32599.91
658.135	32380.78
658.333	32356.2
658.532	32397.16
658.731	33001.31
658.929	32571.24
659.128	32421.73
659.326	32554.85
659.525	32978.78
659.724	32364.39
659.922	31930.22
660.121	32073.58
660.319	32567.14
660.518	32673.63
660.716	32198.51
660.915	32780.13
661.113	33097.56
661.312	32311.14
661.51	32587.62
661.709	32526.18
661.907	33038.17
662.105	33247.07
662.304	32438.12
662.502	32802.66
662.701	32984.93
662.899	32782.18
663.097	32862.05
663.296	32606.05
663.494	32968.54
663.692	33120.09
663.891	32604
664.089	32245.61
664.287	32941.92
664.485	33068.89
664.684	32454.5
664.882	32618.34
665.08	32876.38
665.278	33099.61
665.476	32589.67
665.675	32943.97
665.873	32978.78
666.071	32999.26
666.269	32907.1
666.467	32739.17
666.665	32839.52
666.863	32608.1
667.061	32915.3
667.259	32816.99
667.457	33328.98
667.655	32903.01
667.853	32579.43
668.051	32831.33
668.249	32589.67
668.447	33163.1
668.645	32909.15
668.843	33236.83
669.041	33140.57
669.239	32716.64
669.437	32874.34
669.635	33261.4
669.833	32849.76
670.031	33242.97
670.229	32716.64
670.426	32835.42
670.624	32677.73
670.822	32667.49
671.02	32778.08
671.218	32806.75
671.415	32632.68
671.613	32765.79
671.811	32989.02
672.009	32991.07
672.206	32991.07
672.404	32894.82
672.602	32954.21
672.799	32685.92
672.997	33281.88
673.195	33206.11
673.392	32687.97
673.59	32460.65
673.788	33007.45
673.985	32208.75
674.183	32773.99
674.38	32958.3
674.578	33132.38
674.775	32384.87
674.973	32720.74
675.17	32515.94
675.368	33435.48
675.565	32913.25
675.763	32733.03
675.96	32298.86
676.158	32880.48
676.355	32216.94
676.553	32585.57
676.75	32380.78
676.947	32802.66
677.145	32882.53
677.342	32618.34
677.539	32710.5
677.737	33060.7
677.934	33617.75
678.131	32745.31
678.329	32479.08
678.526	33269.59
678.723	33191.77
678.92	32786.27
679.118	32599.91
679.315	32436.07
679.512	32876.38
679.709	32532.32
679.906	32544.61
680.104	32692.07
680.301	32880.48
680.498	32237.42
680.695	32735.07
680.892	32677.73
681.089	32360.3
681.286	32450.41
681.483	31907.69
681.68	32569.19
681.877	32606.05
682.075	32462.69
682.272	32491.37
682.469	32618.34
682.665	32573.28
682.862	32192.36
683.059	32143.21
683.256	32601.96
683.453	32690.02
683.65	32393.06
683.847	32468.84
684.044	32200.55
684.241	32581.48
684.438	32386.92
684.635	31829.87
684.831	32620.39
685.028	32833.38
685.225	32065.39
685.422	32204.65
685.619	32333.67
685.815	32350.06
686.012	32059.24
686.209	31854.45
686.405	32382.82
686.602	32569.19
686.799	31903.6
686.996	31860.59
687.192	32001.9
687.389	32495.46
687.586	32024.43
687.782	31944.56
687.979	32974.69
688.175	32241.51
688.372	31985.52
688.568	31999.85
688.765	32083.82
688.962	32208.75
689.158	31729.52
689.355	31915.89
689.551	32343.91
689.748	31668.08
689.944	32298.86
690.14	31643.51
690.337	32298.86
690.533	32032.62
690.73	31793.01
690.926	32356.2
691.123	31936.37
691.319	32032.62
691.515	31670.13
691.712	32214.89
691.908	32087.92
692.104	32135.02
692.301	31762.29
692.497	31240.06
692.693	32196.46
692.889	32331.62
693.086	32018.28
693.282	31471.48
693.478	32044.91
693.674	32640.87
693.87	31731.57
694.067	31766.38
694.263	31420.28
694.459	31995.76
694.655	31780.72
694.851	31561.59
695.047	32112.49
695.243	32018.28
695.439	31815.54
695.635	31721.33
695.831	31666.03
696.027	31453.05
696.224	31207.29
696.42	32003.95
696.615	32141.16
696.811	31895.41
697.007	31311.74
697.203	31440.76
697.399	31485.81
697.595	31977.33
697.791	31416.18
697.987	31512.44
698.183	30994.3
698.379	31078.27
698.575	31317.88
698.77	31059.84
698.966	31668.08
699.162	31700.85
699.358	31444.85
699.554	30994.3
699.749	31539.06
699.945	31270.78
700.141	31250.3
700.337	31539.06
700.532	31227.77
700.728	31606.64
700.924	30619.52
701.119	30979.96
701.315	31428.47
701.511	31379.32
701.706	31719.28
701.902	31195
702.097	31516.53
702.293	31674.23
702.489	31588.21
702.684	31242.1
702.88	31141.75
703.075	31137.66
703.271	30711.68
703.466	31072.12
703.662	31147.9
703.857	31688.56
704.053	31145.85
704.248	30910.33
704.443	31410.04
704.639	31326.07
704.834	31016.83
705.03	30748.54
705.225	31391.61
705.42	31594.36
705.616	31172.47
705.811	30699.39
706.006	31121.27
706.202	31117.18
706.397	30752.64
706.592	31195
706.787	31186.81
706.983	31289.21
707.178	31539.06
707.373	31192.95
707.568	31174.52
707.763	31074.17
707.959	30994.3
708.154	30711.68
708.349	30787.46
708.544	31219.58
708.739	31082.36
708.934	30930.81
709.129	30943.1
709.324	31156.09
709.519	31197.05
709.714	30486.4
709.909	31334.26
710.104	31094.65
710.299	30230.41
710.494	30900.09
710.689	31086.46
710.884	30809.98
711.079	30836.61
711.274	30766.98
711.469	31465.33
711.664	30898.05
711.859	31012.73
712.054	30842.75
712.249	31250.3
712.443	31481.72
712.638	30328.71
712.833	30599.04
713.028	30738.3
713.223	30539.65
713.417	31139.71
713.612	30601.09
713.807	31235.96
714.002	31360.89
714.196	30699.39
714.391	30326.66
714.586	31027.07
714.78	30865.28
714.975	29949.84
715.17	30373.77
715.364	30492.55
715.559	31012.73
715.754	30224.26
715.948	30019.47
716.143	30896
716.337	30431.11
716.532	30502.79
716.726	30173.06
716.921	30580.61
717.115	30689.15
717.31	30062.47
717.504	30803.84
717.699	30271.37
717.893	30087.05
718.088	29884.3
718.282	30414.73
718.476	30181.26
718.671	30058.38
718.865	30015.37
719.059	29773.71
719.254	30173.06
719.448	30140.3
719.642	31137.66
719.837	29298.58
720.031	30154.63
720.225	29458.32
720.419	29570.96
720.614	29616.02
720.808	30504.84
721.002	29654.93
721.196	29716.37
721.39	29693.84
721.585	30060.43
721.779	29675.41
721.973	29523.86
722.167	29085.59
722.361	30007.18
722.555	30191.5
722.749	29335.45
722.943	29398.93
723.137	29534.1
723.331	29847.44
723.525	29061.02
723.719	29409.17
723.913	29822.86
724.107	29929.36
724.301	29046.68
724.495	29292.44
724.689	29986.7
724.883	30007.18
725.077	29198.23
725.271	29394.84
725.465	29446.04
725.659	29599.63
725.853	29144.98
726.046	29073.31
726.24	28901.28
726.434	29527.95
726.628	29411.22
726.822	29382.55
727.015	30072.71
727.209	29638.55
727.403	29284.25
727.596	28940.19
727.79	29812.62
727.984	29630.35
728.177	29306.77
728.371	29480.85
728.565	29642.64
728.758	29458.32
728.952	29452.18
729.146	28934.04
729.339	29990.8
729.533	29296.53
729.726	29317.01
729.92	29228.95
730.113	29702.03
730.307	29968.27
730.5	29392.79
730.694	29042.59
730.887	29335.45
731.081	29509.52
731.274	29464.47
731.468	29144.98
731.661	29398.93
731.854	29339.54
732.048	29151.13
732.241	29036.44
732.435	29366.17
732.628	29476.76
732.821	29083.55
733.014	29269.91
733.208	28919.71
733.401	29775.76
733.594	29067.16
733.788	29269.91
733.981	29659.02
734.174	29458.32
734.367	28934.04
734.56	29454.23
734.754	29423.51
734.947	29331.35
735.14	28968.86
735.333	29132.7
735.526	29902.73
735.719	28934.04
735.912	29304.73
736.105	29036.44
736.298	29491.09
736.491	28946.33
736.684	28874.65
736.877	29106.07
737.07	29130.65
737.263	29280.15
737.456	29046.68
737.649	28860.32
737.842	29126.55
738.035	29044.63
738.228	28839.84
738.421	29460.37
738.614	29616.02
738.807	29808.53
739	28645.28
739.192	28626.85
739.385	29083.55
739.578	29530
739.771	29063.07
739.964	28755.87
740.156	29386.64
740.349	29003.67
740.542	29216.66
740.735	28409.76
740.927	28714.91
741.12	28952.48
741.313	28884.89
741.505	28993.43
741.698	28807.07
741.891	29429.65
742.083	28809.12
742.276	28540.83
742.468	29261.72
742.661	29038.49
742.854	28616.61
743.046	28448.68
743.239	29286.29
743.431	28954.52
743.624	28346.28
743.816	28731.29
744.009	29233.05
744.201	28688.29
744.393	29114.27
744.586	28848.03
744.778	29136.79
744.971	28876.7
745.163	28620.7
745.355	28475.3
745.548	28888.99
745.74	28700.58
745.932	28395.43
746.125	28499.87
746.317	29271.96
746.509	28329.89
746.702	28592.03
746.894	28551.07
747.086	28751.77
747.278	28927.9
747.471	28190.63
747.663	28266.41
747.855	28686.24
748.047	28884.89
748.239	28508.07
748.431	28225.45
748.623	28714.91
748.815	29030.3
749.008	28284.84
749.2	28305.32
749.392	29067.16
749.584	28639.14
749.776	28260.26
749.968	28481.44
750.16	28778.4
750.352	28387.24
750.544	28342.18
750.736	28202.92
750.928	28932
751.12	28239.78
751.311	27795.37
751.503	28540.83
751.695	28286.89
751.887	28147.62
752.079	27441.07
752.271	27862.96
752.463	29003.67
752.654	28229.54
752.846	27922.35
753.038	27727.79
753.23	28098.47
753.421	28364.71
753.613	27848.62
753.805	28381.09
753.997	28325.8
754.188	28114.86
754.38	27668.4
754.572	27824.04
754.763	28037.03
754.955	27862.96
755.146	27838.38
755.338	27658.16
755.53	27846.57
755.721	27703.21
755.913	27461.55
756.104	27322.29
756.296	28082.09
756.487	28168.1
756.679	27500.47
756.87	27232.18
757.062	27391.92
757.253	27873.2
757.445	27451.31
757.636	27664.3
757.827	27664.3
758.019	28143.53
758.21	27336.63
758.401	27205.56
758.593	28059.56
758.784	27590.58
758.975	26996.67
759.167	27127.74
759.358	27414.45
759.549	27815.85
759.74	26996.67
759.932	27068.34
760.123	27396.02
760.314	27260.85
760.505	26605.5
760.696	26550.21
760.888	27547.57
761.079	26935.23
761.27	26826.68
761.461	26777.53
761.652	27473.84
761.843	27277.24
762.034	26832.83
762.225	26791.87
762.416	26744.77
762.607	26668.99
762.798	26496.96
762.989	26499.01
763.18	27768.75
763.371	26429.38
763.562	26585.02
763.753	26644.41
763.944	26955.71
764.135	26900.41
764.326	26935.23
764.517	26355.65
764.708	26691.52
764.899	26759.1
765.089	26310.6
765.28	26408.9
765.471	26652.61
765.662	26505.15
765.853	26232.77
766.043	26109.89
766.234	26765.24
766.425	26507.2
766.615	26113.99
766.806	25933.77
766.997	27019.19
767.187	26427.33
767.378	26056.65
767.569	25995.21
767.759	26531.78
767.95	26218.44
768.141	26386.37
768.331	25913.29
768.522	26126.28
768.712	26337.22
768.903	25903.05
769.093	25794.51
769.284	26453.95
769.474	25927.63
769.665	25171.93
769.855	25604.05
770.046	26300.36
770.236	25788.36
770.426	26034.12
770.617	25489.36
770.807	25436.11
770.998	25927.63
771.188	25520.08
771.378	25575.38
771.569	25798.6
771.759	25817.04
771.949	25042.9
772.139	25219.03
772.33	25544.66
772.52	26073.03
772.71	24797.15
772.9	25061.33
773.09	25980.87
773.281	25784.27
773.471	25018.33
773.661	24874.97
773.851	25305.04
774.041	25229.27
774.231	24750.04
774.421	25171.93
774.611	25673.68
774.802	25128.92
774.992	24717.28
775.182	25016.28
775.372	25391.06
775.562	25323.47
775.752	25075.67
775.942	24586.21
776.131	25417.68
776.321	25026.52
776.511	24950.74
776.701	24829.91
776.891	25268.18
777.081	24950.74
777.271	24543.2
777.461	24836.06
777.651	25290.71
777.84	25229.27
778.03	24678.36
778.22	24590.3
778.41	25141.21
778.599	24510.43
778.789	24356.83
778.979	24174.56
779.169	24670.17
779.358	24758.24
779.548	24524.77
779.738	23982.06
779.927	24510.43
780.117	24236
780.307	23681
780.496	23924.71
780.686	24715.23
780.875	24860.63
781.065	24106.98
781.254	23787.5
781.444	24193
781.633	24526.82
781.823	23676.91
782.012	23855.08
782.202	24096.74
782.391	23898.09
782.581	23990.25
782.77	24156.13
782.96	24223.72
783.149	23750.63
783.338	23513.07
783.528	23371.76
783.717	23965.67
783.906	24371.17
784.096	23508.97
784.285	23629.8
784.474	23736.3
784.663	23697.39
784.853	23709.68
785.042	23805.93
785.231	23949.29
785.42	24154.08
785.61	23644.14
785.799	23422.96
785.988	23519.21
786.177	23390.19
786.366	23441.39
786.555	23721.96
786.744	23957.48
786.933	23570.41
787.122	23390.19
787.312	23101.43
787.501	23328.75
787.69	23652.33
787.879	23144.44
788.068	23076.85
788.257	23179.25
788.445	23156.72
788.634	23343.09
788.823	23191.54
789.012	24170.47
789.201	23498.73
789.39	22996.98
789.579	23037.94
789.768	23320.56
789.957	23128.05
790.145	23179.25
790.334	22792.19
790.523	22990.84
790.712	22945.78
790.9	22919.16
791.089	22478.85
791.278	23328.75
791.467	23191.54
791.655	22839.29
791.844	23130.1
792.033	22816.76
792.221	22620.16
792.41	22591.48
792.599	22243.33
792.787	22984.69
792.976	23007.22
793.164	22691.84
793.353	22358.02
793.541	23201.78
793.73	23011.32
793.918	22493.18
794.107	22310.91
794.295	22695.93
794.484	22419.46
794.672	22370.3
794.861	22095.88
795.049	22685.69
795.238	22853.62
795.426	22188.03
795.614	22274.05
795.803	22751.23
795.991	22890.49
796.179	21760.01
796.368	21985.29
796.556	22851.58
796.744	22007.81
796.932	22382.59
797.121	21702.67
797.309	22159.36
797.497	22665.21
797.685	22173.7
797.874	22042.63
798.062	22325.25
798.25	22429.7
798.438	22167.56
798.626	22112.26
798.814	22550.53
799.002	22794.23
799.19	22312.96
799.378	21794.82
799.566	22624.25
799.755	22376.45
799.943	22226.95
800.131	22052.87
800.318	22431.74
800.506	22759.42
800.694	22071.3
800.882	22085.64
801.07	22589.44
801.258	22138.88
801.446	22071.3
801.634	21970.95
801.822	22128.64
802.01	22231.04
802.197	22091.78
802.385	22251.52
802.573	22747.13
802.761	21919.75
802.949	22118.4
803.136	22245.38
803.324	22609.92
803.512	22317.06
803.699	22071.3
803.887	21893.13
804.075	22585.34
804.262	22360.06
804.45	21868.55
804.638	22095.88
804.825	22194.18
805.013	22243.33
805.201	22446.08
805.388	22196.23
805.576	22151.17
805.763	23304.18
805.951	22169.6
806.138	22302.72
806.326	23332.85
806.513	22589.44
806.701	22374.4
806.888	22233.09
807.075	22824.95
807.263	23148.53
807.45	22458.37
807.638	22511.61
807.825	23021.56
808.012	22738.94
808.2	22274.05
808.387	22775.8
808.574	22943.74
808.761	23318.51
808.949	22491.13
809.136	22689.79
809.323	22753.27
809.51	22734.84
809.698	22978.55
809.885	22542.33
810.072	22913.02
810.259	22992.89
810.446	22818.81
810.633	22583.29
810.82	23164.92
811.008	23107.57
811.195	22710.27
811.382	22902.78
811.569	23080.95
811.756	22392.83
811.943	23050.23
812.13	22724.6
812.317	22876.15
812.504	22620.16
812.691	22734.84
812.878	22943.74
813.064	23334.9
813.251	22874.1
813.438	22816.76
813.625	22667.26
813.812	22775.8
813.999	22710.27
814.186	22855.67
814.372	22568.96
814.559	22841.34
814.746	22906.87
814.933	22556.67
815.12	23091.19
815.306	22659.07
815.493	22609.92
815.68	22478.85
815.866	22609.92
816.053	23089.14
816.24	23166.96
816.426	22753.27
816.613	22511.61
816.799	23228.4
816.986	23095.28
817.173	22642.68
817.359	22456.32
817.546	22882.3
817.732	22269.95
817.919	22534.14
818.105	22618.11
818.292	22573.05
818.478	22851.58
818.665	22962.17
818.851	22611.96
819.037	23324.66
819.224	22994.93
819.41	22056.96
819.597	22151.17
819.783	23064.57
819.969	22808.57
820.156	22235.14
820.342	22263.81
820.528	23365.62
820.714	22564.86
820.901	22630.4
821.087	22235.14
821.273	22980.6
821.459	22417.41
821.646	22118.4
821.832	22472.7
822.018	22595.58
822.204	22204.42
822.39	22093.83
822.576	22110.21
822.762	22243.33
822.948	22345.73
823.134	22323.2
823.32	21624.84
823.507	22065.16
823.693	22405.12
823.879	22366.21
824.065	22075.4
824.25	22343.68
824.436	22005.77
824.622	21813.26
824.808	21952.52
824.994	22403.07
825.18	21874.7
825.366	22007.81
825.552	21616.65
825.738	22183.94
825.923	22222.85
826.109	21889.03
826.295	21833.74
826.481	21694.47
826.667	21665.8
826.852	21975.05
827.038	21637.13
827.224	22239.23
827.409	22022.15
827.595	21479.44
827.781	21348.37
827.966	22130.69
828.152	21942.28
828.338	21520.4
828.523	21200.91
828.709	21704.71
828.894	21901.32
829.08	21219.35
829.266	21329.94
829.451	21284.88
829.637	21702.67
829.822	21288.98
830.008	21243.92
830.193	21762.06
830.378	21778.44
830.564	21334.03
830.749	21020.69
830.935	21217.3
831.12	21499.92
831.305	20928.53
831.491	20772.89
831.676	20799.51
831.861	21321.74
832.047	21006.36
832.232	20760.6
832.417	21553.16
832.602	21227.54
832.788	20670.49
832.973	20637.72
833.158	20903.96
833.343	21065.75
833.528	20756.5
833.714	20819.99
833.899	21188.63
834.084	21336.08
834.269	20641.82
834.454	20596.76
834.639	21057.56
834.824	20762.65
835.009	20650.01
835.194	20760.6
835.379	20852.76
835.564	20922.39
835.749	20637.72
835.934	20437.02
836.119	20877.33
836.304	20471.84
836.489	20508.7
836.674	20551.71
836.859	20439.07
837.044	20957.21
837.228	20183.07
837.413	20097.06
837.598	20781.08
837.783	20768.79
837.968	20072.48
838.152	20006.95
838.337	20148.26
838.522	20715.55
838.707	21004.31
838.891	20242.46
839.076	20277.28
839.261	20736.02
839.445	19935.27
839.63	20342.81
839.815	20602.91
839.999	20019.24
840.184	19597.35
840.368	19765.29
840.553	20234.27
840.737	20299.81
840.922	19982.37
841.106	19732.52
841.291	19836.97
841.475	20183.07
841.66	19492.91
841.844	19554.35
842.029	20844.57
842.213	19712.04
842.397	19568.68
842.582	19458.09
842.766	20191.27
842.951	19830.82
843.135	19574.83
843.319	19621.93
843.504	19785.77
843.688	20189.22
843.872	19273.78
844.056	19554.35
844.241	20064.29
844.425	19834.92
844.609	19527.72
844.793	18892.85
844.977	19648.55
845.161	19468.33
845.346	19376.17
845.53	19417.13
845.714	19628.07
845.898	19714.09
846.082	18909.24
846.266	19157.04
846.45	19392.56
846.634	19181.62
846.818	19073.07
847.002	19114.03
847.186	19609.64
847.37	18942
847.554	19175.47
847.738	18950.2
847.922	19220.53
848.106	19679.27
848.29	18741.3
848.473	18855.99
848.657	19206.19
848.841	19212.34
849.025	18853.94
849.209	18479.16
849.392	19443.76
849.576	19013.68
849.76	18522.17
849.944	18792.5
850.127	19281.97
850.311	18876.47
850.495	18532.41
850.678	18503.74
850.862	19105.84
851.046	19095.6
851.229	18380.86
851.413	18397.24
851.596	18774.07
851.78	18694.2
851.964	18434.11
852.147	18493.5
852.331	19200.05
852.514	19007.54
852.698	18348.09
852.881	18069.57
853.065	18821.17
853.248	18853.94
853.431	18245.69
853.615	18249.79
853.798	19021.88
853.982	18507.83
854.165	18339.9
854.348	17991.75
854.532	18358.33
854.715	18280.51
854.898	18085.95
855.081	18161.73
855.265	18614.33
855.448	18249.79
855.631	17891.4
855.814	18214.98
855.997	18544.7
856.181	17987.65
856.364	17909.83
856.547	17789
856.73	18333.76
856.913	17766.47
857.096	17692.74
857.279	17637.45
857.462	18006.08
857.645	18417.72
857.828	17645.64
858.011	17887.3
858.194	17838.15
858.377	18198.59
858.56	17526.86
858.743	17819.72
858.926	17410.12
859.109	17866.82
859.292	17397.84
859.475	17424.46
859.658	18030.66
859.841	17811.53
860.023	17350.73
860.206	17109.07
860.389	17516.62
860.572	18018.37
860.755	17147.98
860.937	17496.14
861.12	17492.04
861.303	17565.77
861.486	17176.66
861.668	17045.59
861.851	17606.73
862.034	17428.56
862.216	17211.47
862.399	16705.62
862.581	17293.39
862.764	17553.48
862.947	17109.07
863.129	16640.09
863.312	16881.75
863.494	17231.95
863.677	17119.31
863.859	16668.76
864.042	17164.37
864.224	17227.85
864.406	17121.36
864.589	16246.88
864.771	17107.02
864.954	16775.25
865.136	16384.09
865.318	16146.53
865.501	17111.12
865.683	16072.8
865.865	16582.74
866.048	16375.9
866.23	16771.16
866.412	16478.3
866.594	16066.66
866.777	16494.68
866.959	16869.46
867.141	16189.53
867.323	16588.89
867.505	16595.03
867.687	16853.08
867.869	16556.12
868.052	16314.46
868.234	16388.19
868.416	16752.73
868.598	16734.29
868.78	16248.93
868.962	16373.85
869.144	16832.6
869.326	16648.28
869.508	16074.85
869.69	15964.26
869.872	16230.49
870.054	16838.74
870.236	15816.8
870.417	16119.9
870.599	16111.71
870.781	16945.23
870.963	16218.21
871.145	16009.31
871.327	16017.5
871.508	16529.5
871.69	15972.45
871.872	16021.6
872.054	16318.56
872.235	16461.91
872.417	16033.89
872.599	15777.89
872.78	16590.94
872.962	16472.15
873.144	15712.36
873.325	15833.19
873.507	16453.72
873.689	16578.65
873.87	15992.93
874.052	16267.36
874.233	16263.26
874.415	16420.95
874.596	16050.27
874.778	16111.71
874.959	16328.8
875.141	16672.85
875.322	16023.65
875.503	16033.89
875.685	16410.71
875.866	15804.52
876.048	15908.96
876.229	15773.8
876.41	16201.82
876.592	16537.69
876.773	16044.13
876.954	15777.89
877.136	16717.91
877.317	16128.1
877.498	15859.81
877.679	15954.02
877.86	16265.31
878.042	16242.78
878.223	16068.7
878.404	16736.34
878.585	16515.16
878.766	16863.32
878.947	16375.9
879.128	16199.77
879.309	16685.14
879.49	16701.53
879.672	16052.32
879.853	16115.81
880.034	16539.74
880.215	16326.75
880.396	16263.26
880.576	16474.2
880.757	16683.09
880.938	16928.85
881.119	16447.58
881.3	16046.18
881.481	16742.49
881.662	17332.3
881.843	16502.87
882.023	16351.32
882.204	16914.52
882.385	16937.04
882.566	16470.11
882.747	16388.19
882.927	16738.39
883.108	16914.52
883.289	16418.91
883.469	16910.42
883.65	16980.05
883.831	17021.01
884.011	16769.11
884.192	16853.08
884.373	17074.26
884.553	17012.82
884.734	16693.33
884.914	16822.36
885.095	17670.22
885.275	17414.22
885.456	16969.81
885.636	16705.62
885.817	17119.31
885.997	17000.53
886.178	16842.84
886.358	16877.65
886.538	17205.33
886.719	17864.77
886.899	16943.19
887.08	16928.85
887.26	17285.2
887.44	16916.56
887.621	16965.71
887.801	17037.39
887.981	17868.87
888.161	17467.47
888.342	17227.85
888.522	17018.96
888.702	17410.12
888.882	17545.29
889.062	16986.19
889.242	16750.68
889.423	17647.69
889.603	17625.16
889.783	17373.26
889.963	17094.74
890.143	17776.71
890.323	17563.72
890.503	17369.16
890.683	17358.92
890.863	17428.56
891.043	17801.29
891.223	17379.4
891.403	17459.27
891.583	17530.95
891.763	17348.68
891.943	17393.74
892.122	17094.74
892.302	17750.09
892.482	17674.31
892.662	17041.49
892.842	17371.21
893.022	17514.57
893.201	17473.61
893.381	17158.22
893.561	17213.52
893.741	17467.47
893.92	17619.02
894.1	17598.54
894.28	17299.53
894.459	18040.9
894.639	17713.22
894.819	16973.91
894.998	17412.17
895.178	17588.3
895.357	17231.95
895.537	16941.14
895.716	16967.76
895.896	17313.87
896.075	17625.16
896.255	17422.41
896.434	17160.27
896.614	17836.1
896.793	17838.15
896.973	17184.85
897.152	17100.88
897.331	17363.02
897.511	17504.33
897.69	16568.41
897.87	17145.94
898.049	17657.93
898.228	17311.82
898.407	17164.37
898.587	17225.81
898.766	17021.01
898.945	17299.53
899.124	17262.67
899.304	17311.82
899.483	17528.91
899.662	17657.93
899.841	16922.71
900.02	16894.04
900.199	17160.27
900.378	17092.69
900.557	16726.1
900.737	16805.97
900.916	17315.92
901.095	17426.51
901.274	17029.2
901.453	16681.05
901.632	16861.27
901.811	16681.05
901.989	16502.87
902.168	16623.7
902.347	17313.87
902.526	16599.13
902.705	16660.57
902.884	16900.18
903.063	17287.25
903.242	17049.68
903.42	16261.21
903.599	16590.94
903.778	16937.04
903.957	17150.03
904.135	16726.1
904.314	16707.67
904.493	17156.18
904.672	16564.31
904.85	16492.63
905.029	16552.02
905.207	16787.54
905.386	17133.65
905.565	16119.9
905.743	16375.9
905.922	16171.1
906.1	16527.45
906.279	16085.09
906.457	15896.67
906.636	16533.59
906.814	16386.14
906.993	16224.35
907.171	15970.4
907.35	16199.77
907.528	16412.76
907.707	16269.41
907.885	15843.43
908.063	16549.98
908.242	16046.18
908.42	15714.41
908.598	15509.61
908.777	15984.74
908.955	15779.94
909.133	15779.94
909.311	15552.62
909.49	15609.96
909.668	16044.13
909.846	15603.82
910.024	15462.51
910.202	16015.46
910.38	15614.06
910.559	15439.98
910.737	15399.02
910.915	15786.08
911.093	15681.64
911.271	15599.72
911.449	15675.49
911.627	15804.52
911.805	16107.62
911.983	15116.4
912.161	15077.49
912.339	15351.92
912.517	15855.72
912.695	15274.09
912.872	14917.75
913.05	15192.17
913.228	15552.62
913.406	14989.42
913.584	14989.42
913.762	15308.91
913.939	15046.77
914.117	14848.11
914.295	14755.96
914.473	15079.54
914.65	15067.25
914.828	14553.21
915.006	14536.82
915.184	14610.55
915.361	15024.24
915.539	14577.78
915.716	14821.49
915.894	14997.62
916.072	14923.89
916.249	14727.28
916.427	14352.51
916.604	14381.18
916.782	14655.61
916.959	13918.34
917.137	14151.81
917.314	14618.74
917.492	14780.53
917.669	14413.95
917.847	14067.84
918.024	14448.76
918.201	14166.14
918.379	14108.8
918.556	13908.1
918.733	14604.41
918.911	14141.57
919.088	14254.2
919.265	13723.78
919.442	14256.25
919.62	13865.09
919.797	13574.28
919.974	13752.45
920.151	13961.34
920.328	13629.57
920.506	13594.76
920.683	13955.2
920.86	13389.96
921.037	13299.85
921.214	13328.52
921.391	13174.92
921.568	13906.05
921.745	13478.02
921.922	13412.49
922.099	13050
922.276	13904
922.453	13465.74
922.63	13090.96
922.807	13318.28
922.984	13418.63
923.161	12931.22
923.338	12925.07
923.514	12744.85
923.691	12961.94
923.868	13142.16
924.045	12859.54
924.222	12664.98
924.399	13021.33
924.575	13058.19
924.752	12626.07
924.929	12574.87
925.105	12763.28
925.282	12505.24
925.459	12122.27
925.635	12478.61
925.812	12695.7
925.989	12486.81
926.165	12411.03
926.342	11970.72
926.518	12173.47
926.695	12212.38
926.871	11991.2
927.048	11929.76
927.224	12458.14
927.401	12069.02
927.577	11839.65
927.754	11763.87
927.93	12054.69
928.107	12234.91
928.283	11503.78
928.459	11991.2
928.636	12093.6
928.812	11737.25
928.988	11317.42
929.165	11483.3
929.341	11616.42
929.517	11698.34
929.693	11681.96
929.87	11178.15
930.046	11497.64
930.222	11264.17
930.398	11104.43
930.574	11163.82
930.751	11274.41
930.927	11278.51
931.103	10901.68
931.279	10733.75
931.455	10852.53
931.631	11174.06
931.807	10590.39
931.983	10637.49
932.159	10670.26
932.335	10825.9
932.511	10514.61
932.687	10453.17
932.863	10725.55
933.039	10322.1
933.215	10014.91
933.391	10270.9
933.566	10160.31
933.742	10219.71
933.918	10010.81
934.094	9779.39
934.27	9820.35
934.445	9959.61
934.621	9881.79
934.797	9283.78
934.973	9879.74
935.148	9859.26
935.324	9103.56
935.5	8980.68
935.675	9365.7
935.851	9201.86
936.027	8892.62
936.202	8913.1
936.378	8915.15
936.553	8849.61
936.729	8925.39
936.904	8110.3
937.08	8040.67
937.255	8227.03
937.431	7850.21
937.606	7721.18
937.782	7827.68
937.957	7727.33
938.133	7620.83
938.308	7387.36
938.483	7500
938.659	7104.74
938.834	7053.55
939.009	6838.51
939.185	6797.55
939.36	6842.6
939.535	6301.94
939.71	6750.45
939.886	6897.9
940.061	6916.33
940.236	6498.55
940.411	6244.6
940.586	6437.11
940.761	6332.66
940.937	6117.62
941.112	5918.97
941.287	6242.55
941.462	6265.08
941.637	5816.57
941.812	6058.23
941.987	6070.52
942.162	5828.86
942.337	5753.09
942.512	5581.06
942.687	6166.78
942.862	5875.96
943.037	5462.27
943.212	5200.13
943.386	5454.08
943.561	5560.58
943.736	5562.62
943.911	5613.82
944.086	5662.97
944.26	5640.45
944.435	5077.26
944.61	5370.12
944.785	5853.44
944.959	5984.51
945.134	5363.97
945.309	5196.04
945.483	5269.76
945.658	5681.41
945.833	4913.42
946.007	5011.72
946.182	5763.33
946.357	5269.76
946.531	4933.9
946.706	5169.41
946.88	4880.65
947.055	5488.9
947.229	5015.82
947.404	4985.1
947.578	5525.76
947.752	5241.09
947.927	4966.67
948.101	4909.32
948.276	5267.72
948.45	5425.41
948.624	5343.49
948.799	5179.65
948.973	5515.52
949.147	4733.2
949.321	5314.82
949.496	5099.78
949.67	5611.78
949.844	5378.31
950.018	5241.09
950.193	5157.13
950.367	5861.63
950.541	5306.63
950.715	5325.06
950.889	5427.46
951.063	5388.55
951.237	5587.2
951.411	4950.28
951.585	4954.38
951.759	5458.18
951.933	5480.71
952.107	5140.74
952.281	5179.65
952.455	5697.79
952.629	5335.3
952.803	5273.86
952.977	5198.09
953.151	5744.89
953.325	5531.9
953.499	5300.48
953.672	4901.13
953.846	5116.17
954.02	5310.72
954.194	4946.19
954.368	5011.72
954.541	5570.82
954.715	5171.46
954.889	5302.53
955.062	4970.76
955.236	5220.61
955.41	5120.26
955.583	5333.25
955.757	4753.68
955.93	5110.02
956.104	5024.01
956.278	5026.06
956.451	4833.55
956.625	5183.75
956.798	5562.62
956.972	5181.7
957.145	4944.14
957.319	5249.29
957.492	5234.95
957.665	5140.74
957.839	4798.73
958.012	5271.81
958.185	4999.43
958.359	5011.72
958.532	5073.16
958.705	5400.83
958.879	5357.83
959.052	5120.26
959.225	4761.87
959.398	5208.33
959.572	5187.85
959.745	4884.75
959.918	4991.24
960.091	4874.51
960.264	5040.39
960.438	4739.34
960.611	4749.58
960.784	5234.95
960.957	4960.52
961.13	5157.13
961.303	4673.81
961.476	4911.37
961.649	5312.77
961.822	4700.43
961.995	5007.62
962.168	5126.41
962.341	5116.17
962.514	4911.37
962.686	4796.68
962.859	5062.92
963.032	5163.27
963.205	4606.22
963.378	4610.32
963.551	5269.76
963.723	4942.09
963.896	4845.84
964.069	4931.85
964.242	5040.39
964.414	5253.38
964.587	4868.36
964.76	4782.35
964.932	4894.99
965.105	4802.83
965.278	4616.46
965.45	4659.47
965.623	4802.83
965.795	5067.02
965.968	4606.22
966.14	4614.41
966.313	4765.96
966.485	4845.84
966.658	4565.26
966.83	4522.26
967.003	5179.65
967.175	5079.3
967.348	4534.54
967.52	4598.03
967.692	5265.67
967.865	4878.6
968.037	4479.25
968.209	4948.23
968.382	4886.79
968.554	4837.64
968.726	4698.38
968.898	4419.86
969.071	4731.15
969.243	4794.64
969.415	4520.21
969.587	4671.76
969.759	5187.85
969.932	4894.99
970.104	4550.93
970.276	4040.98
970.448	4653.33
970.62	4479.25
970.792	4561.17
970.964	4565.26
971.136	5091.59
971.308	4677.9
971.48	4262.16
971.652	4389.14
971.824	4970.76
971.996	4434.19
972.168	4389.14
972.339	4389.14
972.511	4890.89
972.683	4550.93
972.855	4552.98
973.027	4260.12
973.199	4624.65
973.37	4638.99
973.542	4475.15
973.714	4503.82
973.886	4335.89
974.057	4675.85
974.229	4057.37
974.401	4305.17
974.572	4188.44
974.744	4010.26
974.915	4143.38
975.087	4174.1
975.259	4659.47
975.43	4219.16
975.602	4206.87
975.773	4174.1
975.945	4270.36
976.116	4600.08
976.288	4051.22
976.459	4342.04
976.63	4311.32
976.802	4430.1
976.973	4133.14
977.145	4266.26
977.316	4792.59
977.487	4704.53
977.659	4217.11
977.83	4133.14
978.001	4700.43
978.172	4262.16
978.344	3885.34
978.515	3961.11
978.686	4016.41
978.857	4448.53
979.028	3924.25
979.2	3983.64
979.371	4436.24
979.542	4131.09
979.713	3995.93
979.884	3492.13
980.055	4016.41
980.226	4110.61
980.397	3848.47
980.568	3655.97
980.739	4493.58
980.91	4180.25
981.081	4178.2
981.252	3979.54
981.423	4264.21
981.594	4307.22
981.765	3748.12
981.936	4034.84
982.106	4045.08
982.277	4147.48
982.448	3875.1
982.619	4014.36
982.79	3963.16
982.96	4112.66
983.131	3901.72
983.302	3584.29
983.472	3959.06
983.643	3914.01
983.814	3885.34
983.984	3641.63
984.155	3946.78
984.326	4249.88
984.496	3879.19
984.667	3631.39
984.837	3864.86
985.008	4147.48
985.178	3873.05
985.349	3727.64
985.519	3799.32
985.69	3680.54
985.86	3580.19
986.031	3602.72
986.201	3922.2
986.371	4000.02
986.542	3520.8
986.712	3377.44
986.882	3924.25
987.053	3942.68
987.223	3625.25
987.393	3721.5
987.563	3756.32
987.734	3805.47
987.904	3938.59
988.074	3426.59
988.244	3830.04
988.414	3537.18
988.585	3467.55
988.755	3551.52
988.925	3731.74
989.095	4043.03
989.265	3389.73
989.435	3442.98
989.605	3934.49
989.775	3787.04
989.945	3555.62
990.115	3172.64
990.285	3498.27
990.455	3690.78
990.625	3438.88
990.795	3254.56
990.965	4069.66
991.134	3369.25
991.304	3240.23
991.474	3260.71
991.644	3610.91
991.814	3893.53
991.984	3049.77
992.153	3186.98
992.323	3508.51
992.493	3492.13
992.662	3002.66
992.832	3322.15
993.002	3430.69
993.171	3461.41
993.341	3113.25
993.511	3356.96
993.68	3406.11
993.85	3526.94
994.019	3121.45
994.189	3029.29
994.358	3434.78
994.528	3289.38
994.697	2896.17
994.867	3066.15
995.036	3488.03
995.206	3213.6
995.375	3086.63
995.544	3262.76
995.714	3420.45
995.883	3232.04
996.052	3193.12
996.222	2736.43
996.391	3977.5
996.56	3281.19
996.73	2840.87
996.899	2824.49
997.068	3696.92
997.237	3273
997.406	2926.89
997.576	2806.06
997.745	3340.58
997.914	3158.31
998.083	2736.43
998.252	2881.83
998.421	3289.38
998.59	3017
998.759	2816.3
998.928	2681.13
999.097	3373.35
999.266	3240.23
999.435	3123.49
999.604	2613.55
999.773	3555.62
999.942	2879.79
1000.111	2631.98
1000.28	2550.06
1000.448	2935.08
1000.617	2863.4
1000.786	2912.55
1000.955	2674.99
1001.124	3127.59
1001.292	3672.35
1001.461	2619.69
1001.63	2599.21
1001.798	3379.49
1001.967	3232.04
1002.136	2468.14
1002.304	2631.98
1002.473	2853.16
1002.642	2998.57
1002.81	2615.6
1002.979	2631.98
1003.147	3221.8
1003.316	3475.74
1003.484	2623.79
1003.653	2521.39
1003.821	3209.51
1003.99	2804.01
1004.158	2713.9
1004.327	2572.59
1004.495	2928.94
1004.663	2597.17
1004.832	2736.43
1005	2285.87
1005.168	2945.32
1005.337	2808.11
1005.505	2328.88
1005.673	2767.15
1005.842	2744.62
1006.01	2939.18
1006.178	2365.75
1006.346	2394.42
1006.514	2748.72
1006.683	2935.08
1006.851	2324.79
1007.019	2169.14
1007.187	2498.86
1007.355	2156.85
1007.523	2136.37
1007.691	2246.96
1007.859	2310.45
1008.027	3057.96
1008.195	2361.65
1008.363	2320.69
1008.531	2789.67
1008.699	2347.31
1008.867	2085.17
1009.035	2283.83
1009.203	2953.51
1009.37	2609.45
1009.538	2363.7
1009.706	2638.13
1009.874	2591.02
1010.042	2396.46
1010.209	2005.3
1010.377	2095.41
1010.545	2734.38
1010.713	2464.05
1010.88	2076.98
1011.048	2152.76
1011.216	2470.19
1011.383	2797.87
1011.551	2124.08
1011.718	2066.74
1011.886	2681.13
1012.054	2527.53
1012.221	2029.88
1012.389	2111.8
1012.556	2390.32
1012.724	2806.06
1012.891	2224.44
1013.058	1849.66
1013.226	2509.1
1013.393	2572.59
1013.561	1876.28
1013.728	1722.68
1013.895	2597.17
1014.063	2418.99
1014.23	1831.23
1014.397	1952.06
1014.565	2496.82
1014.732	2201.91
1014.899	1917.24
1015.066	1904.95
1015.233	2269.49
1015.401	2308.4
1015.568	1956.15
1015.735	2011.45
1015.902	2208.05
1016.069	2337.07
1016.236	1728.83
1016.403	1902.9
1016.57	1913.14
1016.737	2482.48
1016.904	1878.33
1017.071	1622.33
1017.238	1919.29
1017.405	2586.93
1017.572	1775.93
1017.739	2062.65
1017.906	2472.24
1018.073	2249.01
1018.24	1642.81
1018.407	1861.94
1018.573	2249.01
1018.74	2019.64
1018.907	1833.27
1019.074	1460.54
1019.241	2361.65
1019.407	2148.66
1019.574	1634.62
1019.741	1460.54
1019.907	2058.55
1020.074	2236.72
1020.241	1472.83
1020.407	1530.17
1020.574	2199.86
1020.74	2117.94
1020.907	1663.29
1021.073	1476.93
1021.24	2435.38
1021.406	2271.54
1021.573	1655.1
1021.739	1626.43
1021.906	2232.63
1022.072	1950.01
1022.239	1696.06
1022.405	1622.33
1022.571	1888.57
1022.738	1802.55
1022.904	1501.5
1023.07	1599.8
1023.237	1915.19
1023.403	2103.61
1023.569	1450.3
1023.735	1530.17
1023.902	1857.85
1024.068	1941.82
1024.234	1317.19
1024.4	1376.58
1024.566	1837.37
1024.732	1999.16
1024.898	1333.57
1025.065	1323.33
1025.231	2027.83
1025.397	1694.01
1025.563	1468.73
1025.729	1261.89
1025.895	1169.73
1026.061	1605.95
1026.227	1268.03
1026.392	1386.82
1026.558	2046.26
1026.724	1825.08
1026.89	1251.65
1027.056	1407.3
1027.222	1761.59
1027.388	1583.42
1027.553	1405.25
1027.719	1239.36
1027.885	2005.3
1028.051	1757.5
1028.216	1120.58
1028.382	1294.66
1028.548	1812.79
1028.713	1583.42
1028.879	1196.36
1029.045	1499.45
1029.21	2013.49
1029.376	1808.7
1029.541	1337.66
1029.707	1284.42
1029.873	1728.83
1030.038	1859.9
1030.204	1177.92
1030.369	1225.03
1030.534	1857.85
1030.7	1456.45
1030.865	1239.36
1031.031	1216.83
1031.196	1691.96
1031.361	1732.92
1031.527	1116.48
1031.692	1053
1031.857	1251.65
1032.023	1694.01
1032.188	1091.91
1032.353	1116.48
1032.518	1995.06
1032.684	1603.9
1032.849	1012.04
1033.014	1173.83
1033.179	1657.15
1033.344	1587.52
1033.509	1304.9
1033.674	1120.58
1033.839	1616.19
1034.004	1589.57
1034.17	1141.06
1034.335	991.56
1034.5	1339.71
1034.664	1257.79
1034.829	1026.37
1034.994	1009.99
1035.159	1552.7
1035.324	1610.04
1035.489	1036.61
1035.654	1098.05
1035.819	1861.94
1035.984	1386.82
1036.148	995.65
1036.313	1036.61
1036.478	1608
1036.643	1378.62
1036.807	969.03
1036.972	866.63
1037.137	1573.18
1037.301	1374.53
1037.466	809.29
1037.631	1114.44
1037.795	1608
1037.96	1337.66
1038.124	1188.16
1038.289	921.93
1038.454	1442.11
1038.618	1493.31
1038.783	983.37
1038.947	1059.14
1039.111	1317.19
1039.276	1179.97
1039.44	907.59
1039.605	1313.09
1039.769	1263.94
1039.933	1200.45
1040.098	905.54
1040.262	1116.48
1040.426	1382.72
1040.591	1497.41
1040.755	833.86
1040.919	969.03
1041.083	1311.04
1041.248	1151.3
1041.412	610.64
1041.576	782.67
1041.74	1153.35
1041.904	1417.54
1042.068	663.88
1042.232	860.49
1042.397	1403.2
1042.561	1184.07
1042.725	653.64
1042.889	866.63
1043.053	1290.56
1043.217	1272.13
1043.381	870.73
1043.544	661.84
1043.708	1493.31
1043.872	907.59
1044.036	516.43
1044.2	649.55
1044.364	1392.96
1044.528	1519.93
1044.691	2195.76
1044.855	641.36
1045.019	1380.67
1045.183	1182.02
1045.346	739.66
1045.51	620.88
1045.674	1153.35
1045.837	1177.92
1046.001	651.6
1046.165	686.41
1046.328	1603.9
1046.492	1157.44
1046.655	870.73
1046.819	688.46
1046.983	899.4
1047.146	1229.12
1047.31	827.72
1047.473	530.77
1047.636	1065.29
1047.8	966.98
1047.963	753.99
1048.127	674.12
1048.29	825.67
