Data from Ink_Intensity_USB4F045381__47__00047.txt Node

Date: Mon Jul 17 10:11:24 EDT 2023
User: mmckonesweet
Spectrometer: USB4F04538
Trigger mode: 4
Integration Time (sec): 9.000000E-1
Scans to average: 1
Electric dark correction enabled: true
Nonlinearity correction enabled: false
Boxcar width: 0
XAxis mode: Wavelengths
Number of Pixels in Spectrum: 3648
>>>>>Begin Spectral Data<<<<<
345.52	-1009.31
345.736	-1009.31
345.952	-1009.31
346.168	-1023.64
346.384	-951.96
346.6	-134.82
346.816	-278.18
347.032	-153.26
347.248	289.1
347.464	-231.08
347.68	-116.39
347.896	170.32
348.112	426.32
348.328	-59.05
348.544	-136.87
348.76	0.34
348.975	223.57
349.191	-263.85
349.407	-153.26
349.623	-16.04
349.839	-75.43
350.055	-153.26
350.27	57.68
350.486	133.46
350.702	346.45
350.918	211.28
351.133	-202.41
351.349	80.21
351.565	416.08
351.781	-167.59
351.996	-61.1
352.212	278.87
352.428	-169.64
352.644	-247.46
352.859	-274.09
353.075	211.28
353.291	-16.04
353.506	-128.68
353.722	-222.89
353.938	-97.96
354.153	362.83
354.369	149.84
354.584	-245.41
354.8	190.8
355.016	-269.99
355.231	-360.1
355.447	-157.35
355.662	49.49
355.878	842.06
356.093	-341.67
356.309	-32.43
356.524	-280.23
356.74	235.86
356.955	-317.09
357.171	-91.82
357.386	145.75
357.602	-272.04
357.817	-83.63
358.033	-186.02
358.248	313.68
358.464	117.08
358.679	-153.26
358.895	-358.05
359.11	-42.67
359.325	254.29
359.541	104.79
359.756	-85.67
359.972	-278.18
360.187	172.37
360.402	-165.54
360.618	-134.82
360.833	880.97
361.048	82.26
361.264	-259.75
361.479	-42.67
361.694	-30.38
361.909	231.76
362.125	-173.74
362.34	-153.26
362.555	270.67
362.77	100.69
362.986	-251.56
363.201	-196.26
363.416	180.56
363.631	67.92
363.847	-177.83
364.062	-169.64
364.277	198.99
364.492	67.92
364.707	-216.74
364.922	-444.07
365.138	170.32
365.353	309.58
365.568	-272.04
365.783	-245.41
365.998	72.02
366.213	457.04
366.428	-222.89
366.643	31.06
366.858	227.67
367.073	143.7
367.288	-79.53
367.503	-222.89
367.718	41.3
367.933	194.9
368.148	-343.72
368.363	-100.01
368.578	-11.95
368.793	420.17
369.008	-149.16
369.223	-183.98
369.438	184.66
369.653	385.36
369.868	-294.57
370.083	-206.5
370.298	14.68
370.513	383.31
370.728	-42.67
370.943	-222.89
371.157	-272.04
371.372	504.14
371.587	-313
371.802	-292.52
372.017	69.97
372.232	352.59
372.446	-13.99
372.661	-259.75
372.876	219.47
373.091	100.69
373.306	-122.54
373.52	-235.18
373.735	-247.46
373.95	309.58
374.165	-75.43
374.379	-104.11
374.594	-177.83
374.809	69.97
375.023	-38.57
375.238	-282.28
375.453	270.67
375.667	-272.04
375.882	-165.54
376.097	-276.13
376.311	82.26
376.526	-16.04
376.741	-251.56
376.955	26.96
377.17	543.05
377.384	530.77
377.599	-132.78
377.813	-261.8
378.028	541.01
378.242	160.08
378.457	-104.11
378.672	-399.01
378.886	-18.09
379.101	-124.58
379.315	-337.57
379.53	-153.26
379.744	112.98
379.958	119.12
380.173	-95.91
380.387	-249.51
380.602	112.98
380.816	-81.58
381.031	-120.49
381.245	-157.35
381.459	131.41
381.674	2752.81
381.888	-222.89
382.103	33.11
382.317	-276.13
382.531	434.51
382.746	-118.44
382.96	-157.35
383.174	-104.11
383.388	340.3
383.603	-7.85
383.817	-323.24
384.031	104.79
384.246	403.79
384.46	31.06
384.674	344.4
384.888	-13.99
385.103	20.82
385.317	-349.86
385.531	-118.44
385.745	274.77
385.959	280.91
386.174	-233.13
386.388	-257.7
386.602	-73.39
386.816	-169.64
387.03	-138.92
387.244	-59.05
387.458	96.6
387.672	330.06
387.887	-331.43
388.101	-255.65
388.315	309.58
388.529	86.36
388.743	-159.4
388.957	-296.61
389.171	278.87
389.385	-243.37
389.599	-229.03
389.813	-7.85
390.027	125.27
390.241	592.2
390.455	-79.53
390.669	-183.98
390.883	-13.99
391.097	352.59
391.311	-9.9
391.525	-253.61
391.738	147.8
391.952	143.7
392.166	-87.72
392.38	-251.56
392.594	188.75
392.808	250.19
393.022	-134.82
393.236	-116.39
393.449	74.07
393.663	160.08
393.877	-272.04
394.091	-102.06
394.305	-239.27
394.518	-145.06
394.732	-325.29
394.946	-114.34
395.16	373.07
395.373	121.17
395.587	-196.26
395.801	-186.02
396.015	153.94
396.228	201.04
396.442	-269.99
396.656	-319.14
396.869	309.58
397.083	420.17
397.297	-75.43
397.51	-198.31
397.724	309.58
397.938	69.97
398.151	-396.96
398.365	-276.13
398.578	92.5
398.792	301.39
399.005	-87.72
399.219	-114.34
399.433	164.18
399.646	227.67
399.86	-42.67
400.073	-18.09
400.287	246.1
400.5	-40.62
400.714	-1.71
400.927	-104.11
401.141	225.62
401.354	1040.71
401.567	221.52
401.781	-249.51
401.994	244.05
402.208	606.54
402.421	-130.73
402.635	-143.02
402.848	-3.75
403.061	299.34
403.275	-120.49
403.488	-241.32
403.701	534.86
403.915	149.84
404.128	-26.28
404.341	-143.02
404.555	121.17
404.768	0.34
404.981	-71.34
405.195	-226.98
405.408	461.13
405.621	170.32
405.834	84.31
406.048	-315.05
406.261	358.74
406.474	438.61
406.687	-153.26
406.9	-38.57
407.114	-13.99
407.327	59.73
407.54	-306.85
407.753	-296.61
407.966	-65.19
408.179	196.95
408.392	-226.98
408.605	-249.51
408.819	127.32
409.032	53.59
409.245	-212.65
409.458	-34.47
409.671	160.08
409.884	207.19
410.097	-323.24
410.31	-79.53
410.523	139.6
410.736	-71.34
410.949	-16.04
411.162	-190.12
411.375	432.46
411.588	325.97
411.801	-3.75
412.014	-319.14
412.227	-9.9
412.44	-108.2
412.653	-267.94
412.865	47.44
413.078	285.01
413.291	76.12
413.504	-73.39
413.717	-261.8
413.93	125.27
414.143	-198.31
414.356	-173.74
414.568	-372.39
414.781	180.56
414.994	92.5
415.207	-132.78
415.42	-87.72
415.632	209.23
415.845	567.63
416.058	-353.96
416.271	-259.75
416.483	6.49
416.696	461.13
416.909	-194.22
417.121	-216.74
417.334	151.89
417.547	467.28
417.759	-181.93
417.972	-175.78
418.185	-124.58
418.397	235.86
418.61	-140.97
418.823	-233.13
419.035	381.26
419.248	63.83
419.46	-132.78
419.673	-71.34
419.885	158.03
420.098	-1.71
420.311	-206.5
420.523	-333.48
420.736	198.99
420.948	69.97
421.161	-173.74
421.373	-351.91
421.586	127.32
421.798	-145.06
422.01	-386.72
422.223	-114.34
422.435	-161.45
422.648	252.24
422.86	-261.8
423.073	-108.2
423.285	153.94
423.497	-286.37
423.71	-214.7
423.922	-304.81
424.134	110.93
424.347	366.93
424.559	-63.15
424.771	74.07
424.984	-20.14
425.196	115.03
425.408	-358.05
425.621	-231.08
425.833	307.54
426.045	321.87
426.257	-341.67
426.47	-280.23
426.682	172.37
426.894	104.79
427.106	-284.33
427.318	-190.12
427.531	-59.05
427.743	207.19
427.955	-237.22
428.167	305.49
428.379	207.19
428.591	-7.85
428.804	-63.15
429.016	-317.09
429.228	-59.05
429.44	115.03
429.652	20.82
429.864	-372.39
430.076	-9.9
430.288	-1.71
430.5	-165.54
430.712	-34.47
430.924	242
431.136	102.74
431.348	-290.47
431.56	-284.33
431.772	-73.39
431.984	-91.82
432.196	-186.02
432.408	-229.03
432.62	-30.38
432.832	59.73
433.044	119.12
433.256	-104.11
433.468	211.28
433.679	-292.52
433.891	-229.03
434.103	-85.67
434.315	354.64
434.527	174.42
434.739	-104.11
434.95	-134.82
435.162	223.57
435.374	-112.3
435.586	-210.6
435.798	-186.02
436.009	-284.33
436.221	18.77
436.433	-190.12
436.645	-145.06
436.856	-151.21
437.068	198.99
437.28	-231.08
437.491	55.64
437.703	129.36
437.915	43.35
438.126	-188.07
438.338	39.25
438.55	8.53
438.761	162.13
438.973	-114.34
439.184	-136.87
439.396	96.6
439.608	250.19
439.819	-325.29
440.031	-50.86
440.242	147.8
440.454	164.18
440.665	-183.98
440.877	-42.67
441.088	219.47
441.3	-102.06
441.511	-388.77
441.723	-251.56
441.934	147.8
442.146	49.49
442.357	6.49
442.569	137.56
442.78	53.59
442.991	434.51
443.203	112.98
443.414	-337.57
443.626	381.26
443.837	-179.88
444.048	-290.47
444.26	-331.43
444.471	96.6
444.682	252.24
444.894	-380.58
445.105	-337.57
445.316	321.87
445.528	145.75
445.739	-100.01
445.95	-114.34
446.161	86.36
446.373	342.35
446.584	-138.92
446.795	-165.54
447.006	172.37
447.217	407.89
447.429	-333.48
447.64	-280.23
447.851	252.24
448.062	82.26
448.273	-409.25
448.484	-278.18
448.695	178.51
448.907	20.82
449.118	-34.47
449.329	20.82
449.54	-143.02
449.751	-171.69
449.962	-159.4
450.173	-175.78
450.384	356.69
450.595	344.4
450.806	-218.79
451.017	-159.4
451.228	352.59
451.439	205.14
451.65	-192.17
451.861	-401.06
452.072	-233.13
452.283	-52.91
452.494	-65.19
452.705	-235.18
452.915	461.13
453.126	133.46
453.337	-140.97
453.548	-224.94
453.759	315.73
453.97	573.77
454.181	26.96
454.391	-206.5
454.602	90.45
454.813	37.2
455.024	-169.64
455.235	-218.79
455.445	76.12
455.656	88.4
455.867	-16.04
456.078	-194.22
456.288	-116.39
456.499	213.33
456.71	-267.94
456.921	106.84
457.131	45.4
457.342	129.36
457.553	-116.39
457.763	-229.03
457.974	137.56
458.184	260.43
458.395	-255.65
458.606	-274.09
458.816	311.63
459.027	426.32
459.237	-104.11
459.448	-358.05
459.659	264.53
459.869	450.89
460.08	-310.95
460.29	-140.97
460.501	463.18
460.711	-106.15
460.922	-341.67
461.132	-196.26
461.343	653.64
461.553	-255.65
461.764	-202.41
461.974	-124.58
462.184	258.39
462.395	98.64
462.605	-124.58
462.816	-290.47
463.026	125.27
463.236	309.58
463.447	-226.98
463.657	-251.56
463.867	184.66
464.078	-71.34
464.288	-85.67
464.498	-224.94
464.709	24.92
464.919	26.96
465.129	-67.24
465.339	-239.27
465.55	121.17
465.76	266.58
465.97	-235.18
466.18	-214.7
466.391	213.33
466.601	125.27
466.811	-163.5
467.021	-265.89
467.231	129.36
467.441	354.64
467.651	-102.06
467.862	-423.59
468.072	-106.15
468.282	350.54
468.492	-188.07
468.702	-153.26
468.912	-13.99
469.122	575.82
469.332	76.12
469.542	-265.89
469.752	252.24
469.962	86.36
470.172	-317.09
470.382	-177.83
470.592	295.25
470.802	352.59
471.012	-32.43
471.222	-186.02
471.432	289.1
471.642	237.91
471.852	59.73
472.062	-210.6
472.272	16.73
472.482	-241.32
472.691	-255.65
472.901	-321.19
473.111	184.66
473.321	500.05
473.531	-226.98
473.741	-138.92
473.95	158.03
474.16	256.34
474.37	-104.11
474.58	-317.09
474.79	522.57
474.999	227.67
475.209	-245.41
475.419	-231.08
475.628	14.68
475.838	323.92
476.048	-61.1
476.258	-306.85
476.467	411.98
476.677	-48.81
476.886	76.12
477.096	-77.48
477.306	-24.23
477.515	409.94
477.725	-52.91
477.935	-104.11
478.144	459.09
478.354	-108.2
478.563	-130.73
478.773	-163.5
478.982	293.2
479.192	303.44
479.401	-18.09
479.611	-181.93
479.82	-108.2
480.03	186.71
480.239	-165.54
480.449	-286.37
480.658	477.52
480.868	-54.95
481.077	6.49
481.287	-159.4
481.496	256.34
481.705	491.85
481.915	143.7
482.124	129.36
482.333	160.08
482.543	500.05
482.752	43.35
482.961	-188.07
483.171	299.34
483.38	125.27
483.589	6.49
483.799	-206.5
484.008	80.21
484.217	405.84
484.426	-22.19
484.636	-237.22
484.845	131.41
485.054	-161.45
485.263	229.71
485.472	-34.47
485.682	584.01
485.891	170.32
486.1	-198.31
486.309	-106.15
486.518	229.71
486.727	502.09
486.936	-181.93
487.146	37.2
487.355	498
487.564	-67.24
487.773	2.39
487.982	-69.29
488.191	57.68
488.4	127.32
488.609	-34.47
488.818	33.11
489.027	665.93
489.236	500.05
489.445	49.49
489.654	-188.07
489.863	336.21
490.072	276.82
490.281	246.1
490.49	-13.99
490.698	545.1
490.907	500.05
491.116	-83.63
491.325	-186.02
491.534	649.55
491.743	291.15
491.952	137.56
492.16	-38.57
492.369	354.64
492.578	442.7
492.787	-46.76
492.996	-190.12
493.204	43.35
493.413	575.82
493.622	-269.99
493.831	-224.94
494.039	573.77
494.248	-61.1
494.457	-63.15
494.665	-161.45
494.874	352.59
495.083	721.23
495.291	-32.43
495.5	-91.82
495.709	305.49
495.917	248.15
496.126	65.88
496.335	-30.38
496.543	49.49
496.752	321.87
496.96	174.42
497.169	-237.22
497.377	293.2
497.586	532.81
497.794	180.56
498.003	-222.89
498.211	182.61
498.42	696.65
498.628	26.96
498.837	-71.34
499.045	291.15
499.254	229.71
499.462	-87.72
499.671	0.34
499.879	612.68
500.087	436.56
500.296	-48.81
500.504	-50.86
500.713	272.72
500.921	827.72
501.129	-46.76
501.338	-9.9
501.546	381.26
501.754	293.2
501.962	43.35
502.171	-136.87
502.379	350.54
502.587	713.03
502.795	57.68
503.004	37.2
503.212	223.57
503.42	571.72
503.628	41.3
503.837	133.46
504.045	430.41
504.253	710.99
504.461	74.07
504.669	-116.39
504.877	481.61
505.085	577.87
505.294	-153.26
505.502	153.94
505.71	391.5
505.918	538.96
506.126	-28.33
506.334	37.2
506.542	285.01
506.75	350.54
506.958	117.08
507.166	67.92
507.374	172.37
507.582	760.14
507.79	137.56
507.998	-32.43
508.206	391.5
508.414	434.51
508.622	61.78
508.83	88.4
509.037	764.23
509.245	342.35
509.453	22.87
509.661	-16.04
509.869	491.85
510.077	180.56
510.285	188.75
510.492	-259.75
510.7	821.58
510.908	22.87
511.116	104.79
511.324	-7.85
511.531	227.67
511.739	401.74
511.947	254.29
512.155	409.94
512.362	371.02
512.57	133.46
512.778	-1.71
512.985	-136.87
513.193	645.45
513.401	653.64
513.608	174.42
513.816	43.35
514.024	489.81
514.231	586.06
514.439	8.53
514.646	115.03
514.854	604.49
515.061	739.66
515.269	65.88
515.477	145.75
515.684	147.8
515.892	612.68
516.099	-71.34
516.307	-81.58
516.514	588.11
516.722	753.99
516.929	102.74
517.136	92.5
517.344	688.46
517.551	524.62
517.759	110.93
517.966	153.94
518.173	387.41
518.381	395.6
518.588	190.8
518.796	67.92
519.003	534.86
519.21	334.16
519.418	119.12
519.625	393.55
519.832	315.73
520.039	534.86
520.247	-71.34
520.454	108.88
520.661	647.5
520.868	487.76
521.076	137.56
521.283	217.43
521.49	946.5
521.697	508.24
521.904	217.43
522.112	86.36
522.319	588.11
522.526	506.19
522.733	69.97
522.94	74.07
523.147	414.03
523.354	645.45
523.561	53.59
523.768	317.78
523.975	641.36
524.183	508.24
524.39	246.1
524.597	88.4
524.804	395.6
525.011	276.82
525.218	119.12
525.425	137.56
525.632	678.22
525.838	180.56
526.045	233.81
526.252	227.67
526.459	1374.53
526.666	1282.37
526.873	160.08
527.08	196.95
527.287	862.54
527.494	704.84
527.701	145.75
527.907	92.5
528.114	645.45
528.321	483.66
528.528	219.47
528.735	125.27
528.941	381.26
529.148	368.98
529.355	315.73
529.562	139.6
529.768	891.21
529.975	436.56
530.182	317.78
530.388	90.45
530.595	696.65
530.802	256.34
531.008	461.13
531.215	188.75
531.422	1128.77
531.628	1204.55
531.835	285.01
532.042	319.82
532.248	295.25
532.455	549.2
532.661	342.35
532.868	194.9
533.074	584.01
533.281	676.17
533.487	395.6
533.694	153.94
533.9	346.45
534.107	649.55
534.313	282.96
534.52	149.84
534.726	729.42
534.933	1001.8
535.139	205.14
535.345	43.35
535.552	551.24
535.758	532.81
535.965	289.1
536.171	209.23
536.377	704.84
536.584	1001.8
536.79	244.05
536.996	397.65
537.203	575.82
537.409	575.82
537.615	360.78
537.821	444.75
538.028	778.57
538.234	827.72
538.44	332.11
538.646	358.74
538.853	801.1
539.059	545.1
539.265	686.41
539.471	184.66
539.677	794.95
539.883	579.92
540.09	287.06
540.296	727.37
540.502	598.35
540.708	411.98
540.914	508.24
541.12	295.25
541.326	708.94
541.532	522.57
541.738	467.28
541.944	438.61
542.15	837.96
542.356	557.39
542.562	354.64
542.768	389.46
542.974	1194.31
543.18	1220.93
543.386	334.16
543.592	92.5
543.798	997.7
544.004	917.83
544.21	448.85
544.415	452.94
544.621	831.82
544.827	872.78
545.033	328.02
545.239	547.15
545.445	313.68
545.651	731.47
545.856	430.41
546.062	332.11
546.268	588.11
546.474	678.22
546.679	391.5
546.885	448.85
547.091	498
547.297	1126.72
547.502	518.48
547.708	338.26
547.914	577.87
548.119	784.71
548.325	293.2
548.531	217.43
548.736	1081.67
548.942	514.38
549.147	309.58
549.353	563.53
549.559	995.65
549.764	856.39
549.97	498
550.175	418.13
550.381	878.92
550.586	532.81
550.792	545.1
550.997	381.26
551.203	825.67
551.408	782.67
551.614	389.46
551.819	362.83
552.025	1063.24
552.23	1212.74
552.435	401.74
552.641	610.64
552.846	450.89
553.052	1042.76
553.257	610.64
553.462	436.56
553.668	520.53
553.873	983.37
554.078	442.7
554.283	506.19
554.489	829.77
554.694	670.03
554.899	387.41
555.105	543.05
555.31	868.68
555.515	969.03
555.72	555.34
555.925	420.17
556.131	932.17
556.336	633.16
556.541	518.48
556.746	377.17
556.951	1030.47
557.156	1110.34
557.361	629.07
557.567	641.36
557.772	1290.56
557.977	891.21
558.182	579.92
558.387	467.28
558.592	629.07
558.797	1034.57
559.002	616.78
559.207	708.94
559.412	745.8
559.617	1280.32
559.822	448.85
560.027	377.17
560.232	835.91
560.437	1053
560.642	452.94
560.847	555.34
561.051	801.1
561.256	973.13
561.461	588.11
561.666	426.32
561.871	891.21
562.076	926.02
562.281	575.82
562.485	571.72
562.69	1071.43
562.895	1063.24
563.1	579.92
563.305	420.17
563.509	1128.77
563.714	1378.62
563.919	528.72
564.123	557.39
564.328	827.72
564.533	1065.29
564.737	653.64
564.942	538.96
565.147	1231.17
565.351	1401.15
565.556	760.14
565.761	698.7
565.965	1001.8
566.17	774.47
566.374	622.92
566.579	483.66
566.784	1020.23
566.988	860.49
567.193	500.05
567.397	555.34
567.602	655.69
567.806	868.68
568.011	616.78
568.215	672.08
568.42	799.05
568.624	835.91
568.828	629.07
569.033	797
569.237	1044.81
569.442	1032.52
569.646	526.67
569.85	678.22
570.055	870.73
570.259	964.93
570.463	842.06
570.668	590.16
570.872	788.81
571.076	883.02
571.281	747.85
571.485	833.86
571.689	1005.89
571.893	1067.33
572.098	815.43
572.302	670.03
572.506	1034.57
572.71	958.79
572.914	719.18
573.119	696.65
573.323	1327.43
573.527	1288.51
573.731	690.51
573.935	622.92
574.139	1143.11
574.343	813.38
574.547	723.27
574.751	762.19
574.955	1300.8
575.159	1288.51
575.364	682.31
575.568	702.79
575.772	1075.52
575.976	1376.58
576.18	764.23
576.383	573.77
576.587	1169.73
576.791	1196.36
576.995	526.67
577.199	608.59
577.403	1286.47
577.607	1319.23
577.811	680.27
578.015	903.5
578.219	1182.02
578.422	1218.88
578.626	807.24
578.83	870.73
579.034	1270.08
579.238	1022.28
579.442	700.75
579.645	1165.64
579.849	1014.09
580.053	1161.54
580.257	751.95
580.46	858.44
580.664	1358.14
580.868	1243.46
581.071	989.51
581.275	987.46
581.479	864.58
581.682	1292.61
581.886	715.08
582.09	903.5
582.293	1259.84
582.497	1304.9
582.7	1053
582.904	766.28
583.107	1173.83
583.311	1073.48
583.515	950.6
583.718	1009.99
583.922	1194.31
584.125	1554.75
584.329	747.85
584.532	1104.2
584.735	1483.07
584.939	1239.36
585.142	735.56
585.346	825.67
585.549	1196.36
585.753	1046.85
585.956	866.63
586.159	983.37
586.363	1620.28
586.566	1220.93
586.769	864.58
586.973	809.29
587.176	1276.23
587.379	1431.87
587.582	1280.32
587.786	1009.99
587.989	1169.73
588.192	1839.42
588.395	835.91
588.599	1227.07
588.802	1311.04
589.005	1296.71
589.208	1034.57
589.411	989.51
589.615	1423.68
589.818	1616.19
590.021	1190.21
590.224	1081.67
590.427	1470.78
590.63	1481.02
590.833	815.43
591.036	928.07
591.239	1204.55
591.442	1214.79
591.645	1169.73
591.848	899.4
592.051	1229.12
592.254	1415.49
592.457	1087.81
592.66	1110.34
592.863	1208.64
593.066	1362.24
593.269	907.59
593.472	1065.29
593.675	1034.57
593.878	1548.61
594.081	1151.3
594.284	1061.19
594.486	1476.93
594.689	1272.13
594.892	1169.73
595.095	1157.44
595.298	1397.06
595.5	1186.12
595.703	1167.68
595.906	1198.4
596.109	1622.33
596.311	1562.94
596.514	788.81
596.717	1190.21
596.92	1673.53
597.122	1489.21
597.325	844.1
597.528	1145.16
597.73	1724.73
597.933	1395.01
598.136	1050.95
598.338	835.91
598.541	1497.41
598.743	1694.01
598.946	1100.1
599.148	1177.92
599.351	1714.49
599.554	1689.92
599.756	1300.8
599.959	1155.4
600.161	1653.05
600.363	1958.2
600.566	1435.97
600.768	1112.39
600.971	1816.89
601.173	1567.04
601.376	1059.14
601.578	1161.54
601.78	1415.49
601.983	1964.34
602.185	1110.34
602.388	1444.16
602.59	1591.61
602.792	1341.76
602.995	1376.58
603.197	1270.08
603.399	1589.57
603.601	1427.78
603.804	1179.97
604.006	1171.78
604.208	1327.43
604.41	1087.81
604.613	1454.4
604.815	1141.06
605.017	2042.17
605.219	1376.58
605.421	1534.27
605.623	1329.47
605.826	1859.9
606.028	1833.27
606.23	1231.17
606.432	1196.36
606.634	1849.66
606.836	1630.52
607.038	1128.77
607.24	1343.81
607.442	1538.37
607.644	1599.8
607.846	1392.96
608.048	1186.12
608.25	1808.7
608.452	1296.71
608.654	1288.51
608.856	1075.52
609.058	1435.97
609.26	1673.53
609.462	1376.58
609.664	1358.14
609.866	2013.49
610.067	1732.92
610.269	1456.45
610.471	1311.04
610.673	1538.37
610.875	1651
611.077	1122.63
611.278	1362.24
611.48	1532.22
611.682	2044.21
611.884	1374.53
612.085	1454.4
612.287	1474.88
612.489	1708.35
612.69	1263.94
612.892	1304.9
613.094	1861.94
613.295	1653.05
613.497	1210.69
613.699	1431.87
613.9	1941.82
614.102	1876.28
614.304	1274.18
614.505	1194.31
614.707	1567.04
614.908	1583.42
615.11	1288.51
615.311	1431.87
615.513	1790.27
615.714	1724.73
615.916	1190.21
616.117	1349.95
616.319	1591.61
616.52	1749.31
616.722	1278.27
616.923	1313.09
617.124	1952.06
617.326	1775.93
617.527	1403.2
617.729	1573.18
617.93	1800.51
618.131	1853.75
618.333	1345.86
618.534	1411.39
618.735	1411.39
618.937	2087.22
619.138	1321.28
619.339	1296.71
619.54	1800.51
619.742	1472.83
619.943	1573.18
620.144	1427.78
620.345	1863.99
620.546	1909.05
620.748	1366.34
620.949	1507.65
621.15	1894.71
621.351	1761.59
621.552	1487.17
621.753	1157.44
621.954	1388.86
622.155	2218.29
622.356	1395.01
622.558	1534.27
622.759	1622.33
622.96	2228.53
623.161	1429.82
623.362	1442.11
623.563	1757.5
623.764	1696.06
623.965	1501.5
624.166	1722.68
624.366	1608
624.567	1730.87
624.768	1216.83
624.969	1378.62
625.17	1626.43
625.371	1829.18
625.572	1610.04
625.773	1419.58
625.973	1933.62
626.174	1833.27
626.375	1597.76
626.576	1587.52
626.777	1767.74
626.977	2232.63
627.178	1493.31
627.379	1608
627.58	1653.05
627.78	1835.32
627.981	1669.44
628.182	1589.57
628.382	2101.56
628.583	1386.82
628.784	1431.87
628.984	1747.26
629.185	1927.48
629.386	1915.19
629.586	1612.09
629.787	1554.75
629.987	1933.62
630.188	1849.66
630.388	1530.17
630.589	1616.19
630.79	2418.99
630.99	1851.71
631.191	1685.82
631.391	1558.85
631.591	1952.06
631.792	2285.87
631.992	1745.21
632.193	1495.36
632.393	2169.14
632.594	1808.7
632.794	1534.27
632.994	1714.49
633.195	1880.38
633.395	1896.76
633.595	1544.51
633.796	1812.79
633.996	1685.82
634.196	2210.1
634.397	1546.56
634.597	1734.97
634.797	1683.77
634.997	2212.15
635.198	1845.56
635.398	1413.44
635.598	1952.06
635.798	2343.22
635.998	2015.54
636.199	1620.28
636.399	1759.55
636.599	1691.96
636.799	1655.1
636.999	2044.21
637.199	2079.03
637.399	2156.85
637.599	1665.34
637.799	1763.64
637.999	1741.11
638.199	2283.83
638.399	1694.01
638.599	1737.02
638.799	2126.13
638.999	2457.9
639.199	1890.62
639.399	1794.36
639.599	2287.92
639.799	1714.49
639.999	1628.48
640.199	1687.87
640.399	1927.48
640.599	2119.99
640.799	1907
640.998	1829.18
641.198	2386.22
641.398	2042.17
641.598	1820.99
641.798	1841.47
641.997	2910.5
642.197	1886.52
642.397	1898.81
642.597	1642.81
642.796	2027.83
642.996	2263.35
643.196	1894.71
643.395	1638.72
643.595	2064.69
643.795	1608
643.994	1827.13
644.194	1880.38
644.394	2281.78
644.593	2027.83
644.793	1550.65
644.992	1853.75
645.192	2214.2
645.392	1587.52
645.591	1913.14
645.791	1802.55
645.99	2255.15
646.19	2011.45
646.389	1855.8
646.589	1863.99
646.788	2285.87
646.987	2107.7
647.187	2152.76
647.386	1982.78
647.586	2001.21
647.785	2232.63
647.984	1888.57
648.184	1921.34
648.383	1999.16
648.582	2081.08
648.782	1894.71
648.981	1943.86
649.18	1919.29
649.38	2171.19
649.579	1820.99
649.778	1644.86
649.977	2249.01
650.177	2132.28
650.376	1810.75
650.575	1730.87
650.774	2502.96
650.973	1915.19
651.173	1683.77
651.372	1937.72
651.571	2181.43
651.77	2300.21
651.969	1884.47
652.168	2009.4
652.367	1919.29
652.566	2283.83
652.765	1790.27
652.964	2171.19
653.163	2662.7
653.362	2148.66
653.561	1941.82
653.76	2070.84
653.959	2124.08
654.158	2289.97
654.357	2173.24
654.556	2062.65
654.755	2505.01
654.954	2222.39
655.153	1909.05
655.352	1980.73
655.551	2574.64
655.749	2087.22
655.948	1980.73
656.147	1947.96
656.346	2283.83
656.545	2050.36
656.743	2122.04
656.942	2187.57
657.141	2230.58
657.34	2167.09
657.538	2066.74
657.737	1995.06
657.936	2140.47
658.135	2308.4
658.333	1902.9
658.532	2138.42
658.731	2644.27
658.929	2355.51
659.128	2281.78
659.326	2101.56
659.525	2439.47
659.724	2134.32
659.922	1847.61
660.121	1915.19
660.319	2271.54
660.518	1988.92
660.716	1868.09
660.915	2048.31
661.113	2539.82
661.312	2003.25
661.51	2148.66
661.709	2091.32
661.907	2445.62
662.105	2664.75
662.304	2054.45
662.502	2038.07
662.701	2640.17
662.899	2189.62
663.097	2263.35
663.296	1958.2
663.494	2523.44
663.692	2623.79
663.891	2029.88
664.089	1870.14
664.287	2410.8
664.485	2689.32
664.684	2097.46
664.882	2232.63
665.08	2375.99
665.278	2427.18
665.476	1927.48
665.675	2365.75
665.873	2752.81
666.071	2619.69
666.269	1993.01
666.467	2296.11
666.665	2468.14
666.863	2181.43
667.061	2218.29
667.259	2033.97
667.457	2435.38
667.655	2500.91
667.853	2007.35
668.051	2126.13
668.249	2148.66
668.447	2404.66
668.645	2099.51
668.843	2210.1
669.041	2492.72
669.239	2285.87
669.437	2226.48
669.635	2283.83
669.833	2160.95
670.031	2623.79
670.229	2320.69
670.426	2373.94
670.624	2216.24
670.822	2130.23
671.02	2089.27
671.218	2296.11
671.415	2201.91
671.613	2367.79
671.811	2230.58
672.009	2152.76
672.206	2631.98
672.404	2367.79
672.602	2492.72
672.799	2267.44
672.997	2400.56
673.195	2636.08
673.392	2306.35
673.59	2029.88
673.788	2517.29
673.985	1960.25
674.183	2292.02
674.38	2140.47
674.578	2648.36
674.775	2251.06
674.973	2101.56
675.17	2099.51
675.368	2791.72
675.565	2500.91
675.763	2062.65
675.96	2081.08
676.158	2625.84
676.355	2361.65
676.553	2197.81
676.75	2195.76
676.947	2509.1
677.145	2310.45
677.342	2349.36
677.539	2253.11
677.737	2388.27
677.934	2965.8
678.131	2457.9
678.329	2193.72
678.526	2795.82
678.723	2664.75
678.92	2285.87
679.118	2277.68
679.315	2163
679.512	2758.96
679.709	2169.14
679.906	2234.68
680.104	2697.52
680.301	2750.76
680.498	2251.06
680.695	2173.24
680.892	2359.6
681.089	2457.9
681.286	2357.55
681.483	2046.26
681.68	2646.32
681.877	2574.64
682.075	2255.15
682.272	2496.82
682.469	2605.36
682.665	2253.11
682.862	2083.13
683.059	2044.21
683.256	2457.9
683.453	2509.1
683.65	2246.96
683.847	2384.18
684.044	2320.69
684.241	2253.11
684.438	2371.89
684.635	2134.32
684.831	2855.21
685.028	2918.7
685.225	2195.76
685.422	2255.15
685.619	2548.01
685.815	2375.99
686.012	2392.37
686.209	2251.06
686.405	2152.76
686.602	2644.27
686.799	2210.1
686.996	2187.57
687.192	2167.09
687.389	2890.03
687.586	2119.99
687.782	2187.57
687.979	2898.22
688.175	2697.52
688.372	2402.61
688.568	2275.63
688.765	2375.99
688.962	2787.63
689.158	2431.28
689.355	2060.6
689.551	2560.3
689.748	2396.46
689.944	2429.23
690.14	2107.7
690.337	2670.89
690.533	2279.73
690.73	2466.1
690.926	2423.09
691.123	2664.75
691.319	2464.05
691.515	2212.15
691.712	2482.48
691.908	2615.6
692.104	2619.69
692.301	2400.56
692.497	2160.95
692.693	2742.57
692.889	2718
693.086	2482.48
693.282	2156.85
693.478	2535.73
693.674	2834.73
693.87	2234.68
694.067	2214.2
694.263	2640.17
694.459	2455.86
694.655	2427.18
694.851	2410.8
695.047	2654.51
695.243	2558.25
695.439	2429.23
695.635	2249.01
695.831	2625.84
696.027	2498.86
696.224	2253.11
696.42	2670.89
696.615	2844.97
696.811	2736.43
697.007	2275.63
697.203	2179.38
697.399	2677.04
697.595	2806.06
697.791	2263.35
697.987	2472.24
698.183	2206
698.379	2328.88
698.575	2341.17
698.77	2378.03
698.966	2654.51
699.162	2822.44
699.358	2396.46
699.554	2244.92
699.749	2705.71
699.945	2791.72
700.141	2425.14
700.337	2556.21
700.532	2486.58
700.728	2281.78
700.924	2183.48
701.119	2109.75
701.315	2670.89
701.511	2496.82
701.706	2582.83
701.902	2179.38
702.097	2488.62
702.293	2685.23
702.489	2349.36
702.684	2287.92
702.88	2425.14
703.075	2398.51
703.271	2373.94
703.466	2152.76
703.662	2535.73
703.857	2595.12
704.053	2292.02
704.248	2369.84
704.443	2728.24
704.639	2603.31
704.834	2404.66
705.03	2464.05
705.225	2756.91
705.42	3008.81
705.616	2523.44
705.811	2267.44
706.006	2453.81
706.202	2418.99
706.397	2451.76
706.592	2267.44
706.787	2572.59
706.983	2615.6
707.178	2578.73
707.373	2380.08
707.568	2756.91
707.763	2775.34
707.959	2310.45
708.154	2355.51
708.349	2541.87
708.544	2724.14
708.739	2617.65
708.934	2318.64
709.129	2736.43
709.324	2744.62
709.519	2353.46
709.714	2224.44
709.909	2935.08
710.104	2748.72
710.299	2326.83
710.494	2468.14
710.689	2693.42
710.884	2623.79
711.079	2498.86
711.274	2533.68
711.469	2734.38
711.664	2738.48
711.859	2328.88
712.054	2496.82
712.249	2818.35
712.443	3029.29
712.638	2224.44
712.833	2332.98
713.028	2617.65
713.223	2578.73
713.417	2636.08
713.612	2318.64
713.807	2701.61
714.002	3119.4
714.196	2521.39
714.391	2398.51
714.586	2746.67
714.78	2548.01
714.975	2341.17
715.17	2320.69
715.364	2455.86
715.559	2883.88
715.754	2083.13
715.948	2322.74
716.143	2918.7
716.337	2595.12
716.532	2529.58
716.726	2312.5
716.921	2685.23
717.115	2885.93
717.31	2242.87
717.504	2734.38
717.699	2472.24
717.893	2687.28
718.088	2234.68
718.282	2310.45
718.476	2734.38
718.671	2709.8
718.865	2320.69
719.059	2322.74
719.254	2623.79
719.448	2939.18
719.642	3672.35
719.837	2130.23
720.031	2801.96
720.225	2892.07
720.419	2562.35
720.614	2345.27
720.808	2738.48
721.002	2449.71
721.196	2402.61
721.39	2322.74
721.585	2906.41
721.779	2683.18
721.973	2388.27
722.167	2267.44
722.361	2652.46
722.555	2824.49
722.749	2345.27
722.943	2277.68
723.137	2255.15
723.331	2564.4
723.525	2421.04
723.719	2418.99
723.913	2720.04
724.107	2818.35
724.301	2371.89
724.495	2380.08
724.689	2926.89
724.883	2844.97
725.077	2341.17
725.271	2310.45
725.465	2902.31
725.659	2611.5
725.853	2541.87
726.046	2292.02
726.24	2464.05
726.434	2836.78
726.628	2300.21
726.822	2517.29
727.015	3041.57
727.209	2881.83
727.403	2431.28
727.596	2304.31
727.79	2744.62
727.984	2855.21
728.177	2443.57
728.371	2582.83
728.565	2754.86
728.758	2343.22
728.952	2287.92
729.146	2533.68
729.339	2935.08
729.533	2640.17
729.726	2474.29
729.92	2373.94
730.113	2828.59
730.307	2674.99
730.5	2375.99
730.694	2378.03
730.887	2591.02
731.081	2853.16
731.274	2328.88
731.468	2588.97
731.661	2523.44
731.854	2464.05
732.048	2519.34
732.241	2359.6
732.435	2402.61
732.628	2742.57
732.821	2480.43
733.014	2357.55
733.208	2343.22
733.401	2701.61
733.594	2283.83
733.788	2367.79
733.981	2924.84
734.174	2777.39
734.367	2341.17
734.56	2570.54
734.754	2937.13
734.947	2791.72
735.14	2345.27
735.333	2470.19
735.526	2971.94
735.719	2554.16
735.912	2386.22
736.105	2474.29
736.298	2627.89
736.491	2462
736.684	2562.35
736.877	2427.18
737.07	2525.49
737.263	3053.86
737.456	2539.82
737.649	2367.79
737.842	2492.72
738.035	2818.35
738.228	2490.67
738.421	2572.59
738.614	2957.61
738.807	2746.67
739	2326.83
739.192	2296.11
739.385	2777.39
739.578	2773.29
739.771	2623.79
739.964	2539.82
740.156	2752.81
740.349	2660.65
740.542	2689.32
740.735	2386.22
740.927	2529.58
741.12	2638.13
741.313	2474.29
741.505	2670.89
741.698	2814.25
741.891	2767.15
742.083	2595.12
742.276	2445.62
742.468	2718
742.661	2638.13
742.854	2578.73
743.046	2347.31
743.239	3213.6
743.431	2699.56
743.624	2519.34
743.816	2335.03
744.009	2765.1
744.201	2804.01
744.393	2603.31
744.586	2396.46
744.778	3074.34
744.971	2672.94
745.163	2638.13
745.355	2566.45
745.548	2761
745.74	2627.89
745.932	2517.29
746.125	2435.38
746.317	3289.38
746.509	2685.23
746.702	2558.25
746.894	2562.35
747.086	2887.98
747.278	2967.85
747.471	2595.12
747.663	2603.31
747.855	2808.11
748.047	3111.21
748.239	2378.03
748.431	2312.5
748.623	3094.82
748.815	3137.83
749.008	2341.17
749.2	2476.34
749.392	2826.54
749.584	2791.72
749.776	2484.53
749.968	2566.45
750.16	3240.23
750.352	2742.57
750.544	2599.21
750.736	2369.84
750.928	2820.39
751.12	2636.08
751.311	2513.2
751.503	2509.1
751.695	2799.91
751.887	2668.84
752.079	2341.17
752.271	2464.05
752.463	3459.36
752.654	2859.31
752.846	2496.82
753.038	2466.1
753.23	2556.21
753.421	2849.07
753.613	2476.34
753.805	2742.57
753.997	2890.03
754.188	2902.31
754.38	2435.38
754.572	2421.04
754.763	2658.6
754.955	2914.6
755.146	2709.8
755.338	2650.41
755.53	2867.5
755.721	2693.42
755.913	2365.75
756.104	2470.19
756.296	2611.5
756.487	2847.02
756.679	2349.36
756.87	2435.38
757.062	2605.36
757.253	2930.98
757.445	2443.57
757.636	2525.49
757.827	2734.38
758.019	3273
758.21	2382.13
758.401	2472.24
758.593	3105.06
758.784	3092.77
758.975	2255.15
759.167	2388.27
759.358	2808.11
759.549	2883.88
759.74	2500.91
759.932	2462
760.123	2990.38
760.314	2588.97
760.505	2578.73
760.696	2451.76
760.888	2930.98
761.079	2560.3
761.27	2316.59
761.461	2246.96
761.652	2961.7
761.843	2511.15
762.034	2566.45
762.225	2648.36
762.416	2623.79
762.607	2658.6
762.798	2496.82
762.989	2300.21
763.18	3381.54
763.371	2550.06
763.562	2468.14
763.753	2431.28
763.944	2890.03
764.135	2922.79
764.326	2468.14
764.517	2375.99
764.708	2689.32
764.899	2849.07
765.089	2398.51
765.28	2261.3
765.471	2898.22
765.662	2724.14
765.853	2457.9
766.043	2218.29
766.234	2818.35
766.425	2765.1
766.615	2357.55
766.806	2189.62
766.997	2916.65
767.187	2619.69
767.378	2308.4
767.569	2226.48
767.759	2908.46
767.95	2713.9
768.141	2535.73
768.331	2242.87
768.522	2742.57
768.712	2683.18
768.903	2332.98
769.093	2271.54
769.284	3121.45
769.474	2644.27
769.665	2160.95
769.855	2263.35
770.046	2863.4
770.236	2482.48
770.426	2502.96
770.617	2373.94
770.807	2793.77
770.998	2562.35
771.188	2488.62
771.378	2392.37
771.569	2711.85
771.759	2758.96
771.949	2316.59
772.139	2113.85
772.33	2648.36
772.52	2822.44
772.71	2451.76
772.9	2171.19
773.09	3045.67
773.281	3012.9
773.471	2160.95
773.661	2437.42
773.851	2939.18
774.041	2400.56
774.231	2249.01
774.421	2453.81
774.611	2810.15
774.802	2666.8
774.992	2353.46
775.182	2330.93
775.372	2545.97
775.562	2840.87
775.752	2363.7
775.942	2457.9
776.131	2867.5
776.321	2664.75
776.511	2335.03
776.701	2257.2
776.891	2830.63
777.081	2412.85
777.271	2267.44
777.461	2322.74
777.651	2789.67
777.84	2779.43
778.03	2347.31
778.22	2169.14
778.41	2844.97
778.599	2341.17
778.789	2394.42
778.979	2191.67
779.169	2599.21
779.358	2462
779.548	2511.15
779.738	2136.37
779.927	2783.53
780.117	2324.79
780.307	2359.6
780.496	2144.56
780.686	2703.66
780.875	3027.24
781.065	2361.65
781.254	2240.82
781.444	2425.14
781.633	2459.95
781.823	2165.04
782.012	2214.2
782.202	2511.15
782.391	2523.44
782.581	2181.43
782.77	2429.23
782.96	2697.52
783.149	2611.5
783.338	2316.59
783.528	2132.28
783.717	2816.3
783.906	2777.39
784.096	2337.07
784.285	2163
784.474	2425.14
784.663	2365.75
784.853	2257.2
785.042	2296.11
785.231	2468.14
785.42	2783.53
785.61	2425.14
785.799	2097.46
785.988	2439.47
786.177	2505.01
786.366	2183.48
786.555	2464.05
786.744	2660.65
786.933	2345.27
787.122	2138.42
787.312	2113.85
787.501	2255.15
787.69	2615.6
787.879	2308.4
788.068	2095.41
788.257	2128.18
788.445	2423.09
788.634	2312.5
788.823	2124.08
789.012	3141.93
789.201	2937.13
789.39	2275.63
789.579	2103.61
789.768	2418.99
789.957	2472.24
790.145	2240.82
790.334	1997.11
790.523	2277.68
790.712	2183.48
790.9	2304.31
791.089	1970.49
791.278	2558.25
791.467	2492.72
791.655	2386.22
791.844	2654.51
792.033	2402.61
792.221	2406.7
792.41	2320.69
792.599	1984.82
792.787	2646.32
792.976	2711.85
793.164	1941.82
793.353	2208.05
793.541	2586.93
793.73	2695.47
793.918	2308.4
794.107	2160.95
794.295	2328.88
794.484	2367.79
794.672	2201.91
794.861	2158.9
795.049	2529.58
795.238	2908.46
795.426	2099.51
795.614	2238.77
795.803	2488.62
795.991	2748.72
796.179	2206
796.368	2036.02
796.556	2740.52
796.744	2181.43
796.932	2085.17
797.121	2089.27
797.309	2449.71
797.497	2580.78
797.685	2279.73
797.874	2079.03
798.062	2365.75
798.25	2746.67
798.438	2206
798.626	2165.04
798.814	2560.3
799.002	3033.38
799.19	2382.13
799.378	2234.68
799.566	2713.9
799.755	2767.15
799.943	2351.41
800.131	2013.49
800.318	2382.13
800.506	2560.3
800.694	2208.05
800.882	2240.82
801.07	2922.79
801.258	2496.82
801.446	2210.1
801.634	2259.25
801.822	2496.82
802.01	2386.22
802.197	2128.18
802.385	2384.18
802.573	2648.36
802.761	2230.58
802.949	2302.26
803.136	2105.65
803.324	2744.62
803.512	2433.33
803.699	2261.3
803.887	1993.01
804.075	2754.86
804.262	2380.08
804.45	2122.04
804.638	2308.4
804.825	2423.09
805.013	2341.17
805.201	2328.88
805.388	2228.53
805.576	2382.13
805.763	2900.27
805.951	2218.29
806.138	2294.07
806.326	2816.3
806.513	2556.21
806.701	2357.55
806.888	2330.93
807.075	2593.07
807.263	2990.38
807.45	2036.02
807.638	2472.24
807.825	2877.74
808.012	2799.91
808.2	2326.83
808.387	2472.24
808.574	2681.13
808.761	2947.37
808.949	2294.07
809.136	2429.23
809.323	2427.18
809.51	2330.93
809.698	2543.92
809.885	2451.76
810.072	2611.5
810.259	2738.48
810.446	2388.27
810.633	2390.32
810.82	2912.55
811.008	2971.94
811.195	2472.24
811.382	2435.38
811.569	2500.91
811.756	2341.17
811.943	2330.93
812.13	2322.74
812.317	2447.66
812.504	2513.2
812.691	2500.91
812.878	2482.48
813.064	2820.39
813.251	2677.04
813.438	2228.53
813.625	2533.68
813.812	2486.58
813.999	2556.21
814.186	2384.18
814.372	2380.08
814.559	2541.87
814.746	2867.5
814.933	2414.9
815.12	2631.98
815.306	2466.1
815.493	2316.59
815.68	2318.64
815.866	2468.14
816.053	2879.79
816.24	3078.44
816.426	2427.18
816.613	2165.04
816.799	2783.53
816.986	2857.26
817.173	2408.75
817.359	2263.35
817.546	2564.4
817.732	2169.14
817.919	1939.77
818.105	2533.68
818.292	2564.4
818.478	2652.46
818.665	2406.7
818.851	2283.83
819.037	3066.15
819.224	2617.65
819.41	2210.1
819.597	2263.35
819.783	2922.79
819.969	2801.96
820.156	2404.66
820.342	2244.92
820.528	3236.13
820.714	2695.47
820.901	2584.88
821.087	2345.27
821.273	2877.74
821.459	2568.49
821.646	2292.02
821.832	2300.21
822.018	2574.64
822.204	2570.54
822.39	2251.06
822.576	2195.76
822.762	2697.52
822.948	2750.76
823.134	2466.1
823.32	2332.98
823.507	2226.48
823.693	2738.48
823.879	2625.84
824.065	2378.03
824.25	2687.28
824.436	2523.44
824.622	2310.45
824.808	2304.31
824.994	2443.57
825.18	2433.33
825.366	2177.33
825.552	2335.03
825.738	2572.59
825.923	2769.2
826.109	2584.88
826.295	2279.73
826.481	2398.51
826.667	2580.78
826.852	2427.18
827.038	2216.24
827.224	2922.79
827.409	2892.07
827.595	2152.76
827.781	2466.1
827.966	2885.93
828.152	2836.78
828.338	2298.16
828.523	2097.46
828.709	2402.61
828.894	2709.8
829.08	2457.9
829.266	2345.27
829.451	2316.59
829.637	2636.08
829.822	2464.05
830.008	2308.4
830.193	2750.76
830.378	2844.97
830.564	2529.58
830.749	2105.65
830.935	2742.57
831.12	2711.85
831.305	2185.52
831.491	2259.25
831.676	2400.56
831.861	2791.72
832.047	2296.11
832.232	2140.47
832.417	2750.76
832.602	2709.8
832.788	2179.38
832.973	2173.24
833.158	2552.11
833.343	2480.43
833.528	2316.59
833.714	2320.69
833.899	2668.84
834.084	2863.4
834.269	2537.77
834.454	2275.63
834.639	2828.59
834.824	2445.62
835.009	2382.13
835.194	2435.38
835.379	2720.04
835.564	2783.53
835.749	2292.02
835.934	2261.3
836.119	2789.67
836.304	2425.14
836.489	2091.32
836.674	2470.19
836.859	2191.67
837.044	2711.85
837.228	2220.34
837.413	2242.87
837.598	2515.25
837.783	2703.66
837.968	2302.26
838.152	2122.04
838.337	1915.19
838.522	2894.12
838.707	2691.37
838.891	2306.35
839.076	2621.74
839.261	2668.84
839.445	2181.43
839.63	2236.72
839.815	2885.93
839.999	2281.78
840.184	2079.03
840.368	2232.63
840.553	2668.84
840.737	2558.25
840.922	2046.26
841.106	2089.27
841.291	2144.56
841.475	2541.87
841.66	2191.67
841.844	2337.07
842.029	3146.02
842.213	2222.39
842.397	2218.29
842.582	1988.92
842.766	2816.3
842.951	2449.71
843.135	2152.76
843.319	2167.09
843.504	2378.03
843.688	2580.78
843.872	2091.32
844.056	2160.95
844.241	2560.3
844.425	2423.09
844.609	2423.09
844.793	1950.01
844.977	2531.63
845.161	2425.14
845.346	2029.88
845.53	2105.65
845.714	2394.42
845.898	2746.67
846.082	1917.24
846.266	2232.63
846.45	2439.47
846.634	2394.42
846.818	2206
847.002	2332.98
847.186	2615.6
847.37	2187.57
847.554	2076.98
847.738	2201.91
847.922	2406.7
848.106	2394.42
848.29	1863.99
848.473	2036.02
848.657	2488.62
848.841	2261.3
849.025	2140.47
849.209	1915.19
849.392	2513.2
849.576	2347.31
849.76	1950.01
849.944	2222.39
850.127	2808.11
850.311	2003.25
850.495	2044.21
850.678	2038.07
850.862	2572.59
851.046	2744.62
851.229	2222.39
851.413	1980.73
851.596	2316.59
851.78	2251.06
851.964	2261.3
852.147	2222.39
852.331	3113.25
852.514	2652.46
852.698	2259.25
852.881	2036.02
853.065	2527.53
853.248	2353.46
853.431	2201.91
853.615	2165.04
853.798	2877.74
853.982	2443.57
854.165	2324.79
854.348	2101.56
854.532	2087.22
854.715	2119.99
854.898	2158.9
855.081	2044.21
855.265	2687.28
855.448	2674.99
855.631	2031.93
855.814	1939.77
855.997	2556.21
856.181	2232.63
856.364	2122.04
856.547	1919.29
856.73	2263.35
856.913	2236.72
857.096	1855.8
857.279	2136.37
857.462	2222.39
857.645	2662.7
857.828	2087.22
858.011	2197.81
858.194	1993.01
858.377	2472.24
858.56	1966.39
858.743	1990.97
858.926	2097.46
859.109	2386.22
859.292	1962.3
859.475	1907
859.658	2513.2
859.841	2343.22
860.023	1947.96
860.206	1859.9
860.389	2306.35
860.572	2494.77
860.755	1935.67
860.937	2052.41
861.12	2267.44
861.303	2238.77
861.486	2058.55
861.668	1907
861.851	2390.32
862.034	2382.13
862.216	2060.6
862.399	1816.89
862.581	2396.46
862.764	2550.06
862.947	2038.07
863.129	1976.63
863.312	2046.26
863.494	2492.72
863.677	2273.59
863.859	1745.21
864.042	2464.05
864.224	2421.04
864.406	1964.34
864.589	1794.36
864.771	2418.99
864.954	2105.65
865.136	1755.45
865.318	1663.29
865.501	2326.83
865.683	1677.63
865.865	1939.77
866.048	1886.52
866.23	2296.11
866.412	2251.06
866.594	1730.87
866.777	2050.36
866.959	2308.4
867.141	1907
867.323	2175.28
867.505	2009.4
867.687	2206
867.869	2169.14
868.052	2019.64
868.234	1775.93
868.416	2208.05
868.598	2394.42
868.78	1982.78
868.962	1939.77
869.144	2392.37
869.326	2277.68
869.508	1986.87
869.69	1816.89
869.872	2070.84
870.054	2408.75
870.236	1749.31
870.417	1866.04
870.599	2023.73
870.781	2736.43
870.963	2148.66
871.145	1806.65
871.327	2029.88
871.508	2394.42
871.69	1997.11
871.872	2011.45
872.054	2101.56
872.235	2224.44
872.417	1993.01
872.599	1829.18
872.78	2453.81
872.962	2138.42
873.144	1829.18
873.325	1892.66
873.507	2451.76
873.689	2177.33
873.87	1743.16
874.052	1980.73
874.233	2138.42
874.415	2435.38
874.596	1945.91
874.778	1773.88
874.959	2214.2
875.141	2349.36
875.322	1825.08
875.503	1679.68
875.685	2273.59
875.866	1702.2
876.048	1769.79
876.229	1753.4
876.41	2117.94
876.592	2273.59
876.773	1894.71
876.954	1818.94
877.136	2525.49
877.317	2097.46
877.498	1741.11
877.679	2079.03
877.86	2373.94
878.042	2142.52
878.223	1941.82
878.404	2177.33
878.585	2298.16
878.766	2629.93
878.947	2191.67
879.128	2203.96
879.309	2273.59
879.49	2523.44
879.672	2019.64
879.853	1964.34
880.034	1982.78
880.215	2228.53
880.396	1966.39
880.576	1984.82
880.757	2019.64
880.938	2459.95
881.119	1845.56
881.3	1907
881.481	2046.26
881.662	3082.53
881.843	1761.59
882.023	1913.14
882.204	2302.26
882.385	2189.62
882.566	1861.94
882.747	1831.23
882.927	2144.56
883.108	2306.35
883.289	1825.08
883.469	2165.04
883.65	2029.88
883.831	2210.1
884.011	2111.8
884.192	1907
884.373	2447.66
884.553	2218.29
884.734	1988.92
884.914	2476.34
885.095	2953.51
885.275	2687.28
885.456	2386.22
885.636	1909.05
885.817	2126.13
885.997	2173.24
886.178	1913.14
886.358	2046.26
886.538	2320.69
886.719	3307.81
886.899	2021.69
887.08	2167.09
887.26	2496.82
887.44	2079.03
887.621	1970.49
887.801	2230.58
887.981	2910.5
888.161	2636.08
888.342	2025.78
888.522	2083.13
888.702	2386.22
888.882	2668.84
889.062	2099.51
889.242	1839.42
889.423	2615.6
889.603	2414.9
889.783	2240.82
889.963	2140.47
890.143	2523.44
890.323	2580.78
890.503	2218.29
890.683	2193.72
890.863	2414.9
891.043	2322.74
891.223	2214.2
891.403	2304.31
891.583	2398.51
891.763	2468.14
891.943	2201.91
892.122	2173.24
892.302	2292.02
892.482	2289.97
892.662	2218.29
892.842	2103.61
893.022	2402.61
893.201	2187.57
893.381	2353.46
893.561	2156.85
893.741	2513.2
893.92	2550.06
894.1	2255.15
894.28	2251.06
894.459	2607.41
894.639	2425.14
894.819	2206
894.998	2240.82
895.178	2439.47
895.357	2539.82
895.537	2066.74
895.716	1849.66
895.896	2259.25
896.075	2703.66
896.255	2222.39
896.434	1894.71
896.614	2595.12
896.793	2693.42
896.973	2296.11
897.152	2103.61
897.331	2515.25
897.511	2644.27
897.69	1986.87
897.87	2273.59
898.049	2625.84
898.228	2488.62
898.407	2273.59
898.587	2292.02
898.766	2042.17
898.945	2427.18
899.124	2351.41
899.304	2267.44
899.483	2492.72
899.662	2793.77
899.841	2138.42
900.02	2146.61
900.199	2787.63
900.378	2449.71
900.557	2132.28
900.737	2017.59
900.916	2453.81
901.095	2586.93
901.274	2421.04
901.453	2095.41
901.632	2214.2
901.811	2076.98
901.989	2097.46
902.168	2054.45
902.347	2511.15
902.526	2388.27
902.705	2183.48
902.884	2183.48
903.063	2658.6
903.242	2756.91
903.42	2074.93
903.599	2275.63
903.778	2621.74
903.957	2746.67
904.135	2210.1
904.314	2195.76
904.493	2406.7
904.672	2636.08
904.85	2105.65
905.029	2226.48
905.207	2402.61
905.386	3150.12
905.565	1984.82
905.743	1962.3
905.922	2212.15
906.1	2525.49
906.279	2005.3
906.457	2119.99
906.636	2275.63
906.814	2404.66
906.993	2091.32
907.171	2031.93
907.35	2533.68
907.528	2558.25
907.707	2294.07
907.885	1958.2
908.063	2754.86
908.242	2232.63
908.42	2060.6
908.598	1911.1
908.777	2552.11
908.955	2130.23
909.133	2136.37
909.311	1966.39
909.49	2222.39
909.668	2294.07
909.846	2007.35
910.024	1714.49
910.202	2259.25
910.38	2255.15
910.559	1876.28
910.737	1999.16
910.915	2464.05
911.093	2404.66
911.271	2019.64
911.449	2175.28
911.627	2406.7
911.805	2625.84
911.983	1898.81
912.161	1886.52
912.339	2431.28
912.517	2529.58
912.695	2074.93
912.872	1892.66
913.05	2023.73
913.228	2203.96
913.406	2097.46
913.584	1857.85
913.762	2347.31
913.939	1976.63
914.117	1861.94
914.295	1890.62
914.473	2242.87
914.65	2144.56
914.828	1775.93
915.006	1749.31
915.184	1937.72
915.361	2318.64
915.539	2138.42
915.716	2070.84
915.894	2214.2
916.072	2265.39
916.249	2021.69
916.427	2107.7
916.604	1816.89
916.782	2189.62
916.959	1804.6
917.137	1958.2
917.314	2289.97
917.492	2222.39
917.669	2009.4
917.847	1788.22
918.024	2119.99
918.201	1956.15
918.379	1964.34
918.556	1972.54
918.733	2322.74
918.911	2126.13
919.088	2111.8
919.265	1919.29
919.442	2140.47
919.62	2062.65
919.797	1767.74
919.974	1628.48
920.151	2136.37
920.328	2044.21
920.506	1722.68
920.683	1937.72
920.86	1868.09
921.037	1831.23
921.214	1902.9
921.391	1802.55
921.568	2115.89
921.745	1866.04
921.922	1767.74
922.099	1747.26
922.276	2187.57
922.453	2124.08
922.63	1710.4
922.807	1902.9
922.984	1990.97
923.161	1718.59
923.338	1589.57
923.514	1659.2
923.691	1872.18
923.868	2005.3
924.045	1802.55
924.222	1517.89
924.399	2054.45
924.575	2187.57
924.752	1716.54
924.929	1646.91
925.105	1960.25
925.282	1732.92
925.459	1493.31
925.635	1648.96
925.812	1863.99
925.989	1737.02
926.165	1642.81
926.342	1542.46
926.518	1548.61
926.695	1782.07
926.871	1546.56
927.048	1364.29
927.224	2001.21
927.401	1653.05
927.577	1702.2
927.754	1497.41
927.93	1999.16
928.107	1984.82
928.283	1542.46
928.459	1734.97
928.636	1829.18
928.812	1712.44
928.988	1544.51
929.165	1347.9
929.341	1712.44
929.517	1839.42
929.693	1845.56
929.87	1384.77
930.046	1843.51
930.222	1640.76
930.398	1448.26
930.574	1593.66
930.751	1767.74
930.927	1581.37
931.103	1562.94
931.279	1552.7
931.455	1444.16
931.631	1761.59
931.807	1294.66
931.983	1388.86
932.159	1337.66
932.335	1603.9
932.511	1511.74
932.687	1339.71
932.863	1804.6
933.039	1630.52
933.215	1276.23
933.391	1294.66
933.566	1472.83
933.742	1632.57
933.918	1427.78
934.094	1128.77
934.27	1499.45
934.445	1538.37
934.621	1378.62
934.797	1276.23
934.973	1648.96
935.148	1534.27
935.324	1184.07
935.5	1026.37
935.675	1675.58
935.851	1528.13
936.027	1341.76
936.202	1124.68
936.378	1517.89
936.553	1292.61
936.729	1501.5
936.904	1241.41
937.08	1089.86
937.255	1055.05
937.431	1014.09
937.606	936.26
937.782	1198.4
937.957	1253.7
938.133	1059.14
938.308	956.74
938.483	1132.87
938.659	1009.99
938.834	948.55
939.009	821.58
939.185	1038.66
939.36	784.71
939.535	600.4
939.71	1018.18
939.886	1245.51
940.061	1067.33
940.236	999.75
940.411	770.38
940.586	1022.28
940.761	1128.77
940.937	813.38
941.112	725.32
941.287	981.32
941.462	956.74
941.637	653.64
941.812	678.22
941.987	1042.76
942.162	872.78
942.337	940.36
942.512	710.99
942.687	1179.97
942.862	1108.29
943.037	608.59
943.212	483.66
943.386	823.62
943.561	952.65
943.736	811.34
943.911	917.83
944.086	983.37
944.26	973.13
944.435	594.25
944.61	792.91
944.785	1253.7
944.959	1325.38
945.134	823.62
945.309	606.54
945.483	743.75
945.658	1200.45
945.833	457.04
946.007	563.53
946.182	1245.51
946.357	678.22
946.531	551.24
946.706	612.68
946.88	483.66
947.055	913.74
947.229	618.83
947.404	645.45
947.578	1071.43
947.752	760.14
947.927	567.63
948.101	493.9
948.276	850.25
948.45	872.78
948.624	786.76
948.799	536.91
948.973	889.16
949.147	502.09
949.321	694.6
949.496	584.01
949.67	1077.57
949.844	753.99
950.018	518.48
950.193	663.88
950.367	1386.82
950.541	749.9
950.715	760.14
950.889	850.25
951.063	739.66
951.237	1018.18
951.411	379.22
951.585	454.99
951.759	1063.24
951.933	848.2
952.107	530.77
952.281	721.23
952.455	1204.55
952.629	991.56
952.803	604.49
952.977	641.36
953.151	1044.81
953.325	901.45
953.499	811.34
953.672	502.09
953.846	741.71
954.02	854.34
954.194	536.91
954.368	596.3
954.541	956.74
954.715	696.65
954.889	725.32
955.062	493.9
955.236	753.99
955.41	778.57
955.583	753.99
955.757	438.61
955.93	702.79
956.104	549.2
956.278	534.86
956.451	643.4
956.625	821.58
956.798	1265.99
956.972	852.3
957.145	420.17
957.319	862.54
957.492	864.58
957.665	680.27
957.839	581.96
958.012	942.41
958.185	686.41
958.359	569.68
958.532	747.85
958.705	971.08
958.879	868.68
959.052	747.85
959.225	368.98
959.398	743.75
959.572	971.08
959.745	514.38
959.918	610.64
960.091	702.79
960.264	891.21
960.438	524.62
960.611	518.48
960.784	909.64
960.957	674.12
961.13	944.45
961.303	409.94
961.476	692.55
961.649	1075.52
961.822	426.32
961.995	614.73
962.168	917.83
962.341	899.4
962.514	594.25
962.686	567.63
962.859	817.48
963.032	934.22
963.205	524.62
963.378	448.85
963.551	840.01
963.723	770.38
963.896	713.03
964.069	807.24
964.242	840.01
964.414	1014.09
964.587	649.55
964.76	721.23
964.932	774.47
965.105	620.88
965.278	682.31
965.45	571.72
965.623	792.91
965.795	911.69
965.968	655.69
966.14	647.5
966.313	774.47
966.485	751.95
966.658	524.62
966.83	434.51
967.003	991.56
967.175	960.84
967.348	602.44
967.52	579.92
967.692	1210.69
967.865	966.98
968.037	538.96
968.209	901.45
968.382	778.57
968.554	975.17
968.726	620.88
968.898	504.14
969.071	819.53
969.243	872.78
969.415	573.77
969.587	563.53
969.759	1300.8
969.932	950.6
970.104	551.24
970.276	301.39
970.448	768.33
970.62	586.06
970.792	588.11
970.964	588.11
971.136	1231.17
971.308	942.41
971.48	473.42
971.652	471.37
971.824	1165.64
971.996	545.1
972.168	567.63
972.339	561.48
972.511	1030.47
972.683	575.82
972.855	794.95
973.027	563.53
973.199	747.85
973.37	885.06
973.542	710.99
973.714	653.64
973.886	813.38
974.057	1012.04
974.229	403.79
974.401	463.18
974.572	498
974.744	409.94
974.915	407.89
975.087	489.81
975.259	1055.05
975.43	553.29
975.602	508.24
975.773	395.6
975.945	526.67
976.116	803.15
976.288	420.17
976.459	710.99
976.63	641.36
976.802	762.19
976.973	498
977.145	663.88
977.316	1177.92
977.487	1046.85
977.659	588.11
977.83	510.29
978.001	1081.67
978.172	723.27
978.344	395.6
978.515	465.23
978.686	608.59
978.857	944.45
979.028	518.48
979.2	371.02
979.371	846.15
979.542	713.03
979.713	647.5
979.884	153.94
980.055	495.95
980.226	489.81
980.397	467.28
980.568	371.02
980.739	923.98
980.91	592.2
981.081	588.11
981.252	463.18
981.423	801.1
981.594	1009.99
981.765	475.47
981.936	538.96
982.106	725.32
982.277	966.98
982.448	424.27
982.619	637.26
982.79	598.35
982.96	973.13
983.131	579.92
983.302	285.01
983.472	545.1
983.643	641.36
983.814	569.68
983.984	317.78
984.155	610.64
984.326	915.78
984.496	489.81
984.667	432.46
984.837	543.05
985.008	946.5
985.178	678.22
985.349	493.9
985.519	715.08
985.69	518.48
985.86	565.58
986.031	430.41
986.201	614.73
986.371	797
986.542	391.5
986.712	213.33
986.882	829.77
987.053	756.04
987.223	334.16
987.393	672.08
987.563	506.19
987.734	692.55
987.904	788.81
988.074	373.07
988.244	739.66
988.414	565.58
988.585	340.3
988.755	502.09
988.925	590.16
989.095	919.88
989.265	375.12
989.435	522.57
989.605	782.67
989.775	702.79
989.945	661.84
990.115	264.53
990.285	571.72
990.455	702.79
990.625	545.1
990.795	330.06
990.965	923.98
991.134	440.65
991.304	340.3
991.474	498
991.644	631.12
991.814	981.32
991.984	272.72
992.153	287.06
992.323	567.63
992.493	557.39
992.662	149.84
992.832	522.57
993.002	629.07
993.171	678.22
993.341	158.03
993.511	452.94
993.68	405.84
993.85	778.57
994.019	190.8
994.189	287.06
994.358	534.86
994.528	469.33
994.697	112.98
994.867	256.34
995.036	770.38
995.206	393.55
995.375	258.39
995.544	420.17
995.714	612.68
995.883	448.85
996.052	522.57
996.222	100.69
996.391	1063.24
996.56	731.47
996.73	239.95
996.899	153.94
997.068	897.35
997.237	534.86
997.406	334.16
997.576	133.46
997.745	532.81
997.914	596.3
998.083	22.87
998.252	287.06
998.421	473.42
998.59	440.65
998.759	180.56
998.928	43.35
999.097	815.43
999.266	651.6
999.435	381.26
999.604	110.93
999.773	919.88
999.942	508.24
1000.111	137.56
1000.28	-5.8
1000.448	299.34
1000.617	381.26
1000.786	409.94
1000.955	180.56
1001.124	590.16
1001.292	1179.97
1001.461	129.36
1001.63	141.65
1001.798	833.86
1001.967	893.26
1002.136	112.98
1002.304	170.32
1002.473	518.48
1002.642	590.16
1002.81	229.71
1002.979	297.3
1003.147	665.93
1003.316	1079.62
1003.484	112.98
1003.653	203.09
1003.821	721.23
1003.99	526.67
1004.158	278.87
1004.327	264.53
1004.495	592.2
1004.663	285.01
1004.832	262.48
1005	12.63
1005.168	549.2
1005.337	567.63
1005.505	61.78
1005.673	360.78
1005.842	563.53
1006.01	528.72
1006.178	78.16
1006.346	158.03
1006.514	471.37
1006.683	727.37
1006.851	117.08
1007.019	29.01
1007.187	184.66
1007.355	65.88
1007.523	-71.34
1007.691	47.44
1007.859	88.4
1008.027	688.46
1008.195	147.8
1008.363	12.63
1008.531	618.83
1008.699	254.29
1008.867	6.49
1009.035	90.45
1009.203	782.67
1009.37	438.61
1009.538	129.36
1009.706	596.3
1009.874	444.75
1010.042	309.58
1010.209	-32.43
1010.377	158.03
1010.545	606.54
1010.713	491.85
1010.88	92.5
1011.048	96.6
1011.216	323.92
1011.383	710.99
1011.551	100.69
1011.718	-24.23
1011.886	710.99
1012.054	416.08
1012.221	137.56
1012.389	-36.52
1012.556	289.1
1012.724	753.99
1012.891	174.42
1013.058	-124.58
1013.226	584.01
1013.393	549.2
1013.561	-108.2
1013.728	-73.39
1013.895	698.7
1014.063	520.53
1014.23	-40.62
1014.397	98.64
1014.565	596.3
1014.732	305.49
1014.899	31.06
1015.066	-69.29
1015.233	483.66
1015.401	573.77
1015.568	168.27
1015.735	153.94
1015.902	461.13
1016.069	586.06
1016.236	41.3
1016.403	24.92
1016.57	129.36
1016.737	516.43
1016.904	94.55
1017.071	-5.8
1017.238	264.53
1017.405	553.29
1017.572	22.87
1017.739	321.87
1017.906	424.27
1018.073	557.39
1018.24	-46.76
1018.407	14.68
1018.573	594.25
1018.74	338.26
1018.907	55.64
1019.074	-108.2
1019.241	616.78
1019.407	377.17
1019.574	2.39
1019.741	-122.54
1019.907	364.88
1020.074	543.05
1020.241	-151.21
1020.407	-136.87
1020.574	473.42
1020.74	420.17
1020.907	55.64
1021.073	-16.04
1021.24	846.15
1021.406	862.54
1021.573	10.58
1021.739	-65.19
1021.906	573.77
1022.072	366.93
1022.239	4.44
1022.405	24.92
1022.571	346.45
1022.738	274.77
1022.904	-44.71
1023.07	14.68
1023.237	360.78
1023.403	590.16
1023.569	6.49
1023.735	31.06
1023.902	368.98
1024.068	395.6
1024.234	-120.49
1024.4	53.59
1024.566	383.31
1024.732	465.23
1024.898	-18.09
1025.065	-192.17
1025.231	489.81
1025.397	237.91
1025.563	49.49
1025.729	-91.82
1025.895	-54.95
1026.061	178.51
1026.227	-226.98
1026.392	-13.99
1026.558	579.92
1026.724	493.9
1026.89	-50.86
1027.056	92.5
1027.222	407.89
1027.388	266.58
1027.553	-67.24
1027.719	-100.01
1027.885	702.79
1028.051	504.14
1028.216	-151.21
1028.382	-13.99
1028.548	469.33
1028.713	133.46
1028.879	-100.01
1029.045	139.6
1029.21	696.65
1029.376	684.36
1029.541	-75.43
1029.707	24.92
1029.873	395.6
1030.038	559.44
1030.204	-97.96
1030.369	-18.09
1030.534	534.86
1030.7	237.91
1030.865	-1.71
1031.031	0.34
1031.196	317.78
1031.361	307.54
1031.527	-9.9
1031.692	-91.82
1031.857	-28.33
1032.023	436.56
1032.188	-149.16
1032.353	-5.8
1032.518	659.79
1032.684	278.87
1032.849	-192.17
1033.014	-40.62
1033.179	518.48
1033.344	442.7
1033.509	43.35
1033.674	-81.58
1033.839	489.81
1034.004	602.44
1034.17	-63.15
1034.335	-159.4
1034.5	209.23
1034.664	92.5
1034.829	-136.87
1034.994	14.68
1035.159	358.74
1035.324	377.17
1035.489	-36.52
1035.654	-48.81
1035.819	567.63
1035.984	407.89
1036.148	45.4
1036.313	43.35
1036.478	569.68
1036.643	225.62
1036.807	-118.44
1036.972	-126.63
1037.137	655.69
1037.301	285.01
1037.466	-161.45
1037.631	92.5
1037.795	541.01
1037.96	362.83
1038.124	180.56
1038.289	-130.73
1038.454	465.23
1038.618	444.75
1038.783	-57
1038.947	39.25
1039.111	414.03
1039.276	198.99
1039.44	-24.23
1039.605	371.02
1039.769	174.42
1039.933	227.67
1040.098	0.34
1040.262	198.99
1040.426	399.7
1040.591	454.99
1040.755	-112.3
1040.919	-112.3
1041.083	356.69
1041.248	223.57
1041.412	-263.85
1041.576	-93.87
1041.74	252.24
1041.904	430.41
1042.068	-245.41
1042.232	-24.23
1042.397	452.94
1042.561	416.08
1042.725	-288.42
1042.889	88.4
1043.053	479.57
1043.217	350.54
1043.381	31.06
1043.544	-222.89
1043.708	637.26
1043.872	29.01
1044.036	-265.89
1044.2	-233.13
1044.364	563.53
1044.528	616.78
1044.691	2957.61
1044.855	-171.69
1045.019	563.53
1045.183	450.89
1045.346	22.87
1045.51	-128.68
1045.674	360.78
1045.837	399.7
1046.001	-102.06
1046.165	-67.24
1046.328	817.48
1046.492	387.41
1046.655	88.4
1046.819	16.73
1046.983	211.28
1047.146	391.5
1047.31	39.25
1047.473	-253.61
1047.636	276.82
1047.8	-18.09
1047.963	-79.53
1048.127	-196.26
1048.29	174.42
