Data from Ink_Intensity_USB4F045381__186__00186.txt Node

Date: Mon Jul 17 11:43:51 EDT 2023
User: mmckonesweet
Spectrometer: USB4F04538
Trigger mode: 4
Integration Time (sec): 9.000000E-1
Scans to average: 1
Electric dark correction enabled: true
Nonlinearity correction enabled: false
Boxcar width: 0
XAxis mode: Wavelengths
Number of Pixels in Spectrum: 3648
>>>>>Begin Spectral Data<<<<<
345.52	-1058.12
345.736	-1058.12
345.952	-1058.12
346.168	-961.86
346.384	-1021.25
346.6	-111.96
346.816	-251.22
347.032	-193.87
347.248	225.96
347.464	-214.35
347.68	-109.91
347.896	98.99
348.112	459.43
348.328	-101.72
348.544	-87.38
348.76	29.35
348.975	256.68
349.191	-240.98
349.407	-216.4
349.623	23.21
349.839	-130.39
350.055	-159.06
350.27	6.83
350.486	141.99
350.702	234.15
350.918	266.92
351.133	-255.31
351.349	197.29
351.565	371.36
351.781	-210.26
351.996	10.92
352.212	236.2
352.428	-193.87
352.644	-228.69
352.859	-234.83
353.075	277.16
353.291	117.42
353.506	-50.52
353.722	-255.31
353.938	-62.8
354.153	449.19
354.369	107.18
354.584	-195.92
354.8	223.91
355.016	-304.46
355.231	-265.55
355.447	-79.19
355.662	55.98
355.878	694.94
356.093	-296.27
356.309	2.73
356.524	-214.35
356.74	152.23
356.955	-185.68
357.171	-101.72
357.386	88.75
357.602	-185.68
357.817	-161.11
358.033	-136.53
358.248	375.46
358.464	113.32
358.679	-181.59
358.895	-355.66
359.11	-73.04
359.325	314.02
359.541	31.4
359.756	-32.08
359.972	-296.27
360.187	174.76
360.402	-216.4
360.618	-167.25
360.833	977.56
361.048	164.52
361.264	-200.02
361.479	-34.13
361.694	4.78
361.909	201.38
362.125	-296.27
362.34	-167.25
362.555	236.2
362.77	55.98
362.986	-320.85
363.201	-185.68
363.416	176.81
363.631	21.16
363.847	-269.65
364.062	-193.87
364.277	166.57
364.492	78.51
364.707	-214.35
364.922	-413.01
365.138	236.2
365.353	297.64
365.568	-238.93
365.783	-148.82
365.998	62.12
366.213	551.59
366.428	-267.6
366.643	17.07
366.858	182.95
367.073	88.75
367.288	-60.76
367.503	-296.27
367.718	74.41
367.933	314.02
368.148	-339.28
368.363	-116.05
368.578	47.79
368.793	428.71
369.008	-200.02
369.223	-228.69
369.438	189.1
369.653	389.8
369.868	-308.56
370.083	-259.41
370.298	96.94
370.513	365.22
370.728	27.31
370.943	-218.45
371.157	-208.21
371.372	520.87
371.587	-300.37
371.802	-316.75
372.017	58.03
372.232	342.69
372.446	-103.76
372.661	-243.03
372.876	199.34
373.091	236.2
373.306	-93.52
373.52	-304.46
373.735	-210.26
373.95	389.8
374.165	-97.62
374.379	-224.59
374.594	-124.24
374.809	133.8
375.023	6.83
375.238	-238.93
375.453	182.95
375.667	-228.69
375.882	-193.87
376.097	-275.79
376.311	39.59
376.526	6.83
376.741	-159.06
376.955	68.27
377.17	545.44
377.384	535.2
377.599	-23.89
377.813	-294.22
378.028	506.53
378.242	225.96
378.457	-66.9
378.672	-367.95
378.886	25.26
379.101	-13.65
379.315	-376.14
379.53	-189.78
379.744	150.18
379.958	207.53
380.173	-191.83
380.387	-165.2
380.602	101.03
380.816	-144.72
381.031	-144.72
381.245	-181.59
381.459	141.99
381.674	2636.42
381.888	-259.41
382.103	55.98
382.317	-191.83
382.531	488.1
382.746	-140.63
382.96	-200.02
383.174	-105.81
383.388	422.56
383.603	27.31
383.817	-298.32
384.031	107.18
384.246	436.9
384.46	-30.04
384.674	326.31
384.888	-15.7
385.103	19.11
385.317	-304.46
385.531	-154.96
385.745	404.13
385.959	244.39
386.174	-251.22
386.388	-226.64
386.602	-27.99
386.816	-122.2
387.03	-87.38
387.244	-124.24
387.458	58.03
387.672	311.97
387.887	-341.33
388.101	-298.32
388.315	354.98
388.529	187.05
388.743	-189.78
388.957	-177.49
389.171	268.97
389.385	-169.3
389.599	-218.45
389.813	-13.65
390.027	185
390.241	561.83
390.455	-128.34
390.669	-206.16
390.883	-87.38
391.097	281.25
391.311	-13.65
391.525	-263.51
391.738	82.6
391.952	172.71
392.166	-93.52
392.38	-245.07
392.594	346.79
392.808	301.73
393.022	-111.96
393.236	-77.14
393.449	119.46
393.663	176.81
393.877	-281.94
394.091	-103.76
394.305	-132.44
394.518	-148.82
394.732	-337.23
394.946	-177.49
395.16	359.08
395.373	66.22
395.587	-261.46
395.801	-204.11
396.015	297.64
396.228	146.09
396.442	-251.22
396.656	-359.76
396.869	211.62
397.083	404.13
397.297	-161.11
397.51	-165.2
397.724	283.3
397.938	105.13
398.151	-247.12
398.365	-324.94
398.578	185
398.792	379.56
399.005	-58.71
399.219	-150.87
399.433	107.18
399.646	248.49
399.86	19.11
400.073	-62.8
400.287	174.76
400.5	64.17
400.714	-50.52
400.927	-42.32
401.141	193.19
401.354	1100.44
401.567	127.66
401.781	-290.13
401.994	223.91
402.208	600.74
402.421	-206.16
402.635	-128.34
402.848	35.5
403.061	273.06
403.275	-111.96
403.488	-290.13
403.701	428.71
403.915	207.53
404.128	-91.48
404.341	-152.91
404.555	193.19
404.768	35.5
404.981	51.88
405.195	-226.64
405.408	461.48
405.621	256.68
405.834	-9.56
406.048	-230.74
406.261	428.71
406.474	420.52
406.687	-179.54
406.9	-44.37
407.114	62.12
407.327	185
407.54	-296.27
407.753	-374.1
407.966	-234.83
408.179	228.01
408.392	-279.89
408.605	-415.06
408.819	19.11
409.032	152.23
409.245	-247.12
409.458	-11.61
409.671	195.24
409.884	228.01
410.097	-300.37
410.31	-38.23
410.523	113.32
410.736	-34.13
410.949	-91.48
411.162	-107.86
411.375	404.13
411.588	185
411.801	-9.56
412.014	-130.39
412.227	-5.46
412.44	-60.76
412.653	-263.51
412.865	-9.56
413.078	168.62
413.291	117.42
413.504	-159.06
413.717	-286.03
413.93	248.49
414.143	-193.87
414.356	-226.64
414.568	-329.04
414.781	215.72
414.994	154.28
415.207	-120.15
415.42	-177.49
415.632	266.92
415.845	461.48
416.058	-402.77
416.271	-214.35
416.483	62.12
416.696	469.67
416.909	-191.83
417.121	-212.31
417.334	154.28
417.547	477.86
417.759	-271.7
417.972	-261.46
418.185	-138.58
418.397	281.25
418.61	-263.51
418.823	-148.82
419.035	432.8
419.248	43.69
419.46	-165.2
419.673	-32.08
419.885	111.27
420.098	-17.75
420.311	-132.44
420.523	-384.34
420.736	150.18
420.948	27.31
421.161	-179.54
421.373	-351.57
421.586	103.08
421.798	-95.57
422.01	-429.39
422.223	-111.96
422.435	-120.15
422.648	127.66
422.86	-259.41
423.073	-218.45
423.285	277.16
423.497	-263.51
423.71	-197.97
423.922	-232.79
424.134	150.18
424.347	397.99
424.559	-21.85
424.771	53.93
424.984	-44.37
425.196	162.47
425.408	-298.32
425.621	-353.62
425.833	232.1
426.045	326.31
426.257	-351.57
426.47	-306.51
426.682	96.94
426.894	201.38
427.106	-146.77
427.318	-132.44
427.531	-138.58
427.743	211.62
427.955	-222.55
428.167	141.99
428.379	121.51
428.591	-5.46
428.804	-68.95
429.016	-288.08
429.228	-77.14
429.44	170.66
429.652	-11.61
429.864	-378.19
430.076	-83.28
430.288	-11.61
430.5	-236.88
430.712	-177.49
430.924	281.25
431.136	117.42
431.348	-380.24
431.56	-187.73
431.772	0.68
431.984	12.97
432.196	-218.45
432.408	-234.83
432.62	-58.71
432.832	64.17
433.044	-40.28
433.256	-173.39
433.468	131.75
433.679	-251.22
433.891	-322.9
434.103	-36.18
434.315	332.45
434.527	248.49
434.739	-171.35
434.95	-144.72
435.162	260.77
435.374	-148.82
435.586	-79.19
435.798	-224.59
436.009	-218.45
436.221	-64.85
436.433	-193.87
436.645	-232.79
436.856	-197.97
437.068	230.06
437.28	-275.79
437.491	168.62
437.703	182.95
437.915	160.42
438.126	-144.72
438.338	19.11
438.55	-17.75
438.761	191.14
438.973	-197.97
439.184	-181.59
439.396	15.02
439.608	223.91
439.819	-294.22
440.031	-140.63
440.242	141.99
440.454	160.42
440.665	-161.11
440.877	-124.24
441.088	125.61
441.3	-111.96
441.511	-316.75
441.723	-216.4
441.934	162.47
442.146	-42.32
442.357	-50.52
442.569	-21.85
442.78	-9.56
442.991	490.15
443.203	76.46
443.414	-300.37
443.626	389.8
443.837	-161.11
444.048	-318.8
444.26	-410.96
444.471	27.31
444.682	256.68
444.894	-406.86
445.105	-398.67
445.316	217.77
445.528	92.84
445.739	-175.44
445.95	-120.15
446.161	182.95
446.373	277.16
446.584	-208.21
446.795	-210.26
447.006	80.55
447.217	479.91
447.429	-423.25
447.64	-277.84
447.851	361.13
448.062	10.92
448.273	-394.58
448.484	-271.7
448.695	242.34
448.907	-21.85
449.118	-181.59
449.329	-60.76
449.54	-71
449.751	-161.11
449.962	-210.26
450.173	-232.79
450.384	314.02
450.595	248.49
450.806	-259.41
451.017	-111.96
451.228	273.06
451.439	279.21
451.65	-193.87
451.861	-408.91
452.072	-189.78
452.283	31.4
452.494	-23.89
452.705	-357.71
452.915	381.6
453.126	117.42
453.337	-212.31
453.548	-230.74
453.759	359.08
453.97	608.93
454.181	29.35
454.391	-226.64
454.602	176.81
454.813	244.39
455.024	-177.49
455.235	-228.69
455.445	125.61
455.656	178.86
455.867	10.92
456.078	-243.03
456.288	-34.13
456.499	68.27
456.71	-179.54
456.921	-38.23
457.131	103.08
457.342	137.9
457.553	-142.68
457.763	-257.36
457.974	141.99
458.184	174.76
458.395	-304.46
458.606	-245.07
458.816	305.83
459.027	465.57
459.237	-38.23
459.448	-365.9
459.659	285.35
459.869	529.06
460.08	-423.25
460.29	-116.05
460.501	488.1
460.711	-44.37
460.922	-384.34
461.132	-308.56
461.343	692.9
461.553	-353.62
461.764	-210.26
461.974	-238.93
462.184	203.43
462.395	68.27
462.605	-206.16
462.816	-316.75
463.026	92.84
463.236	299.69
463.447	-267.6
463.657	-243.03
463.867	246.44
464.078	-5.46
464.288	-157.01
464.498	-310.61
464.709	31.4
464.919	-21.85
465.129	-111.96
465.339	-273.75
465.55	90.79
465.76	277.16
465.97	-200.02
466.18	-345.42
466.391	176.81
466.601	107.18
466.811	-191.83
467.021	-339.28
467.231	133.8
467.441	236.2
467.651	-251.22
467.862	-478.54
468.072	64.17
468.282	379.56
468.492	-183.63
468.702	-187.73
468.912	-5.46
469.122	602.79
469.332	101.03
469.542	-302.42
469.752	180.9
469.962	115.37
470.172	-304.46
470.382	-335.18
470.592	133.8
470.802	281.25
471.012	-132.44
471.222	-361.81
471.432	225.96
471.642	158.38
471.852	-142.68
472.062	-322.9
472.272	-81.24
472.482	-197.97
472.691	-320.85
472.901	-417.1
473.111	74.41
473.321	518.82
473.531	-312.66
473.741	-181.59
473.95	150.18
474.16	156.33
474.37	-169.3
474.58	-353.62
474.79	459.43
474.999	258.73
475.209	-271.7
475.419	-277.84
475.628	-144.72
475.838	248.49
476.048	-144.72
476.258	-283.99
476.467	363.17
476.677	-99.67
476.886	-42.32
477.096	-185.68
477.306	-68.95
477.515	393.89
477.725	-144.72
477.935	-181.59
478.144	316.07
478.354	-87.38
478.563	-236.88
478.773	-232.79
478.982	219.82
479.192	228.01
479.401	-138.58
479.611	-286.03
479.82	-99.67
480.03	0.68
480.239	-267.6
480.449	-386.38
480.658	428.71
480.868	-208.21
481.077	-120.15
481.287	-249.17
481.496	207.53
481.705	383.65
481.915	-27.99
482.124	37.55
482.333	127.66
482.543	420.52
482.752	-136.53
482.961	-234.83
483.171	105.13
483.38	43.69
483.589	-177.49
483.799	-283.99
484.008	-34.13
484.217	264.87
484.426	-251.22
484.636	-322.9
484.845	39.59
485.054	-189.78
485.263	-1.37
485.472	-202.07
485.682	397.99
485.891	23.21
486.1	-374.1
486.309	-247.12
486.518	125.61
486.727	346.79
486.936	-298.32
487.146	-66.9
487.355	314.02
487.564	-191.83
487.773	-224.59
487.982	-267.6
488.191	-73.04
488.4	19.11
488.609	-245.07
488.818	-306.51
489.027	610.98
489.236	348.84
489.445	-232.79
489.654	-322.9
489.863	215.72
490.072	47.79
490.281	51.88
490.49	-243.03
490.698	354.98
490.907	412.32
491.116	-240.98
491.325	-378.19
491.534	428.71
491.743	148.14
491.952	-212.31
492.16	-286.03
492.369	113.32
492.578	316.07
492.787	-105.81
492.996	-279.89
493.204	-81.24
493.413	438.95
493.622	-456.01
493.831	-396.62
494.039	387.75
494.248	-216.4
494.457	-292.18
494.665	-480.59
494.874	154.28
495.083	502.43
495.291	-202.07
495.5	-355.66
495.709	213.67
495.917	31.4
496.126	-136.53
496.335	-304.46
496.543	-13.65
496.752	19.11
496.96	-68.95
497.169	-456.01
497.377	90.79
497.586	336.55
497.794	-165.2
498.003	-437.58
498.211	10.92
498.42	430.76
498.628	-175.44
498.837	-341.33
499.045	172.71
499.254	84.65
499.462	-322.9
499.671	-339.28
499.879	359.08
500.087	285.35
500.296	-347.47
500.504	-240.98
500.713	47.79
500.921	490.15
501.129	-234.83
501.338	-279.89
501.546	101.03
501.754	154.28
501.962	-298.32
502.171	-310.61
502.379	131.75
502.587	434.85
502.795	-179.54
503.004	-228.69
503.212	2.73
503.42	209.58
503.628	-322.9
503.837	-157.01
504.045	195.24
504.253	416.42
504.461	-271.7
504.669	-525.65
504.877	158.38
505.085	324.26
505.294	-398.67
505.502	-68.95
505.71	107.18
505.918	248.49
506.126	-345.42
506.334	-267.6
506.542	-42.32
506.75	119.46
506.958	-165.2
507.166	-298.32
507.374	-52.56
507.582	457.38
507.79	-95.57
507.998	-294.22
508.206	228.01
508.414	127.66
508.622	-228.69
508.83	-197.97
509.037	414.37
509.245	-19.8
509.453	-302.42
509.661	-259.41
509.869	342.69
510.077	-9.56
510.285	-179.54
510.492	-546.12
510.7	547.49
510.908	-71
511.116	-265.55
511.324	-283.99
511.531	-58.71
511.739	-34.13
511.947	-91.48
512.155	76.46
512.362	92.84
512.57	-218.45
512.778	-353.62
512.985	-421.2
513.193	293.54
513.401	322.21
513.608	-130.39
513.816	-333.14
514.024	174.76
514.231	338.6
514.439	-245.07
514.646	-200.02
514.854	203.43
515.061	318.12
515.269	-294.22
515.477	-226.64
515.684	-191.83
515.892	289.45
516.099	-361.81
516.307	-443.73
516.514	135.85
516.722	336.55
516.929	-247.12
517.136	-363.86
517.344	289.45
517.551	158.38
517.759	-312.66
517.966	-304.46
518.173	-34.13
518.381	-3.41
518.588	-152.91
518.796	-275.79
519.003	201.38
519.21	31.4
519.418	-361.81
519.625	-21.85
519.832	-13.65
520.039	82.6
520.247	-410.96
520.454	-259.41
520.661	299.69
520.868	170.66
521.076	-136.53
521.283	-234.83
521.49	627.36
521.697	129.7
521.904	-200.02
522.112	-255.31
522.319	201.38
522.526	139.94
522.733	-331.09
522.94	-363.86
523.147	-27.99
523.354	207.53
523.561	-423.25
523.768	-157.01
523.975	273.06
524.183	55.98
524.39	-218.45
524.597	-341.33
524.804	-3.41
525.011	-116.05
525.218	-314.7
525.425	-286.03
525.632	299.69
525.838	-111.96
526.045	-261.46
526.252	-320.85
526.459	1065.63
526.666	793.25
526.873	-351.57
527.08	-322.9
527.287	391.84
527.494	160.42
527.701	-345.42
527.907	-357.71
528.114	125.61
528.321	31.4
528.528	-202.07
528.735	-372.05
528.941	-105.81
529.148	-126.29
529.355	-183.63
529.562	-312.66
529.768	275.11
529.975	-32.08
530.182	-251.22
530.388	-413.01
530.595	250.53
530.802	-247.12
531.008	-191.83
531.215	-204.11
531.422	365.22
531.628	627.36
531.835	-169.3
532.042	-148.82
532.248	-34.13
532.455	39.59
532.661	-142.68
532.868	-275.79
533.074	70.31
533.281	228.01
533.487	-202.07
533.694	-320.85
533.9	-202.07
534.107	277.16
534.313	-275.79
534.52	-370
534.726	150.18
534.933	461.48
535.139	-322.9
535.345	-404.82
535.552	58.03
535.758	37.55
535.965	-251.22
536.171	-320.85
536.377	207.53
536.584	352.93
536.79	-220.5
536.996	-230.74
537.203	58.03
537.409	111.27
537.615	-275.79
537.821	-157.01
538.028	195.24
538.234	232.1
538.44	-271.7
538.646	-177.49
538.853	162.47
539.059	-27.99
539.265	29.35
539.471	-406.86
539.677	117.42
539.883	-132.44
540.09	-341.33
540.296	264.87
540.502	-54.61
540.708	-193.87
540.914	-150.87
541.12	-273.75
541.326	203.43
541.532	-11.61
541.738	-189.78
541.944	-234.83
542.15	180.9
542.356	80.55
542.562	-390.48
542.768	-240.98
542.974	600.74
543.18	469.67
543.386	-333.14
543.592	-413.01
543.798	357.03
544.004	264.87
544.21	-271.7
544.415	-144.72
544.621	74.41
544.827	305.83
545.033	-337.23
545.239	-107.86
545.445	-197.97
545.651	-25.94
545.856	-283.99
546.062	-300.37
546.268	-159.06
546.474	27.31
546.679	-347.47
546.885	-195.92
547.091	-105.81
547.297	455.33
547.502	-210.26
547.708	-445.77
547.914	-68.95
548.119	101.03
548.325	-353.62
548.531	-439.63
548.736	365.22
548.942	-148.82
549.147	-306.51
549.353	-138.58
549.559	357.03
549.764	150.18
549.97	-273.75
550.175	-382.29
550.381	238.25
550.586	-62.8
550.792	-230.74
550.997	-290.13
551.203	94.89
551.408	117.42
551.614	-333.14
551.819	-322.9
552.025	486.05
552.23	490.15
552.435	-320.85
552.641	-99.67
552.846	-116.05
553.052	236.2
553.257	-243.03
553.462	-202.07
553.668	-214.35
553.873	322.21
554.078	-292.18
554.283	-425.29
554.489	105.13
554.694	66.22
554.899	-279.89
555.105	-124.24
555.31	72.36
555.515	232.1
555.72	-253.27
555.925	-339.28
556.131	271.01
556.336	-132.44
556.541	-298.32
556.746	-343.38
556.951	346.79
557.156	387.75
557.361	-124.24
557.567	-132.44
557.772	461.48
557.977	176.81
558.182	-286.03
558.387	-288.08
558.592	-34.13
558.797	273.06
559.002	-202.07
559.207	-247.12
559.412	27.31
559.617	524.96
559.822	-277.84
560.027	-318.8
560.232	80.55
560.437	240.3
560.642	-365.9
560.847	-326.99
561.051	117.42
561.256	55.98
561.461	-210.26
561.666	-349.52
561.871	168.62
562.076	201.38
562.281	-161.11
562.485	-292.18
562.69	168.62
562.895	242.34
563.1	-263.51
563.305	-390.48
563.509	332.45
563.714	576.16
563.919	-335.18
564.123	-283.99
564.328	-87.38
564.533	357.03
564.737	-157.01
564.942	-157.01
565.147	391.84
565.351	543.39
565.556	-130.39
565.761	-109.91
565.965	6.83
566.17	-111.96
566.374	-283.99
566.579	-380.24
566.784	19.11
566.988	-103.76
567.193	-365.9
567.397	-347.47
567.602	-179.54
567.806	-34.13
568.011	-318.8
568.215	-138.58
568.42	-21.85
568.624	-85.33
568.828	-310.61
569.033	-50.52
569.237	139.94
569.442	148.14
569.646	-423.25
569.85	-251.22
570.055	-11.61
570.259	92.84
570.463	-103.76
570.668	-329.04
570.872	-3.41
571.076	-21.85
571.281	-140.63
571.485	-193.87
571.689	2.73
571.893	289.45
572.098	-142.68
572.302	-296.27
572.506	160.42
572.71	47.79
572.914	-179.54
573.119	-300.37
573.323	346.79
573.527	275.11
573.731	-222.55
573.935	-269.65
574.139	105.13
574.343	-107.86
574.547	-173.39
574.751	-279.89
574.955	340.65
575.159	234.15
575.364	-372.05
575.568	-388.43
575.772	51.88
575.976	309.93
576.18	-372.05
576.383	-394.58
576.587	330.41
576.791	215.72
576.995	-458.06
577.199	-486.73
577.403	297.64
577.607	289.45
577.811	-382.29
578.015	-224.59
578.219	86.7
578.422	256.68
578.626	-157.01
578.83	-111.96
579.034	285.35
579.238	111.27
579.442	-355.66
579.645	88.75
579.849	29.35
580.053	31.4
580.257	-208.21
580.46	-206.16
580.664	166.57
580.868	174.76
581.071	-66.9
581.275	-152.91
581.479	-341.33
581.682	148.14
581.886	-267.6
582.09	-101.72
582.293	250.53
582.497	262.82
582.7	-77.14
582.904	-351.57
583.107	10.92
583.311	-79.19
583.515	-193.87
583.718	-210.26
583.922	113.32
584.125	424.61
584.329	-247.12
584.532	-169.3
584.735	320.17
584.939	164.52
585.142	-402.77
585.346	-316.75
585.549	133.8
585.753	-58.71
585.956	-214.35
586.159	-165.2
586.363	422.56
586.566	209.58
586.769	-292.18
586.973	-298.32
587.176	193.19
587.379	414.37
587.582	76.46
587.786	-38.23
587.989	-15.7
588.192	727.71
588.395	-216.4
588.599	47.79
588.802	119.46
589.005	258.73
589.208	-318.8
589.411	-202.07
589.615	338.6
589.818	449.19
590.021	-52.56
590.224	-140.63
590.427	277.16
590.63	133.8
590.833	-472.4
591.036	-259.41
591.239	-107.86
591.442	2.73
591.645	-46.42
591.848	-269.65
592.051	123.56
592.254	285.35
592.457	-132.44
592.66	-152.91
592.863	0.68
593.066	170.66
593.269	-230.74
593.472	-193.87
593.675	-163.15
593.878	240.3
594.081	-185.68
594.284	-208.21
594.486	217.77
594.689	27.31
594.892	-101.72
595.095	-206.16
595.298	172.71
595.5	-13.65
595.703	-177.49
595.906	-163.15
596.109	305.83
596.311	305.83
596.514	-533.84
596.717	-181.59
596.92	305.83
597.122	203.43
597.325	-382.29
597.528	-292.18
597.73	365.22
597.933	133.8
598.136	-253.27
598.338	-482.64
598.541	266.92
598.743	434.85
598.946	-228.69
599.148	-181.59
599.351	266.92
599.554	266.92
599.756	-21.85
599.959	-136.53
600.161	285.35
600.363	662.18
600.566	-11.61
600.768	-259.41
600.971	459.43
601.173	117.42
601.376	-247.12
601.578	-202.07
601.78	123.56
601.983	604.83
602.185	-214.35
602.388	-38.23
602.59	248.49
602.792	-21.85
602.995	-68.95
603.197	-271.7
603.399	295.59
603.601	78.51
603.804	-206.16
604.006	-292.18
604.208	158.38
604.41	-294.22
604.613	-73.04
604.815	-290.13
605.017	545.44
605.219	-157.01
605.421	158.38
605.623	-275.79
605.826	346.79
606.028	481.96
606.23	-214.35
606.432	-283.99
606.634	449.19
606.836	311.97
607.038	-255.31
607.24	-101.72
607.442	125.61
607.644	-52.56
607.846	-77.14
608.048	-292.18
608.25	316.07
608.452	-81.24
608.654	-193.87
608.856	-353.62
609.058	21.16
609.26	166.57
609.462	-191.83
609.664	-175.44
609.866	547.49
610.067	268.97
610.269	10.92
610.471	-220.5
610.673	-13.65
610.875	275.11
611.077	-382.29
611.278	-118.1
611.48	101.03
611.682	567.97
611.884	-95.57
612.085	-144.72
612.287	-175.44
612.489	205.48
612.69	-349.52
612.892	-193.87
613.094	260.77
613.295	185
613.497	-275.79
613.699	-175.44
613.9	375.46
614.102	371.36
614.304	-132.44
614.505	-423.25
614.707	47.79
614.908	137.9
615.11	-386.38
615.311	-118.1
615.513	283.3
615.714	295.59
615.916	-277.84
616.117	-91.48
616.319	60.07
616.52	260.77
616.722	-195.92
616.923	-265.55
617.124	311.97
617.326	217.77
617.527	-9.56
617.729	-17.75
617.93	185
618.131	195.24
618.333	-240.98
618.534	-185.68
618.735	-105.81
618.937	381.6
619.138	-310.61
619.339	-234.83
619.54	191.14
619.742	-81.24
619.943	12.97
620.144	-148.82
620.345	277.16
620.546	340.65
620.748	-292.18
620.949	-105.81
621.15	119.46
621.351	207.53
621.552	-247.12
621.753	-361.81
621.954	-269.65
622.155	531.11
622.356	-298.32
622.558	-48.47
622.759	64.17
622.96	563.87
623.161	-181.59
623.362	-165.2
623.563	21.16
623.764	164.52
623.965	-152.91
624.166	-58.71
624.366	6.83
624.567	80.55
624.768	-458.06
624.969	-226.64
625.17	125.61
625.371	232.1
625.572	-154.96
625.773	-261.46
625.973	277.16
626.174	260.77
626.375	-83.28
626.576	-52.56
626.777	234.15
626.977	690.85
627.178	-216.4
627.379	-107.86
627.58	58.03
627.78	109.22
627.981	-144.72
628.182	19.11
628.382	324.26
628.583	-255.31
628.784	-341.33
628.984	-60.76
629.185	182.95
629.386	277.16
629.586	-193.87
629.787	-247.12
629.987	240.3
630.188	51.88
630.388	-126.29
630.589	-126.29
630.79	672.42
630.99	117.42
631.191	-58.71
631.391	-32.08
631.591	238.25
631.792	477.86
631.992	-30.04
632.193	-161.11
632.393	490.15
632.594	111.27
632.794	-99.67
632.994	27.31
633.195	127.66
633.395	135.85
633.595	-181.59
633.796	121.51
633.996	-99.67
634.196	346.79
634.397	-210.26
634.597	-124.24
634.797	-130.39
634.997	500.39
635.198	35.5
635.398	-195.92
635.598	170.66
635.798	434.85
635.998	168.62
636.199	-251.22
636.399	-42.32
636.599	-91.48
636.799	-169.3
636.999	119.46
637.199	228.01
637.399	371.36
637.599	-177.49
637.799	-85.33
637.999	-97.62
638.199	459.43
638.399	-257.36
638.599	-212.31
638.799	260.77
638.999	559.78
639.199	-19.8
639.399	-21.85
639.599	467.62
639.799	-157.01
639.999	-175.44
640.199	-185.68
640.399	117.42
640.599	197.29
640.799	21.16
640.998	109.22
641.198	443.04
641.398	174.76
641.598	2.73
641.798	-62.8
641.997	987.8
642.197	101.03
642.397	10.92
642.597	-89.43
642.796	277.16
642.996	512.67
643.196	-79.19
643.395	-224.59
643.595	178.86
643.795	-286.03
643.994	-62.8
644.194	-62.8
644.394	293.54
644.593	228.01
644.793	-290.13
644.992	-13.65
645.192	195.24
645.392	-316.75
645.591	-42.32
645.791	-79.19
645.99	146.09
646.19	60.07
646.389	2.73
646.589	-111.96
646.788	299.69
646.987	391.84
647.187	158.38
647.386	51.88
647.586	195.24
647.785	377.51
647.984	-25.94
648.184	-38.23
648.383	-15.7
648.582	-7.51
648.782	-138.58
648.981	27.31
649.18	10.92
649.38	158.38
649.579	-124.24
649.778	-208.21
649.977	273.06
650.177	166.57
650.376	-157.01
650.575	-210.26
650.774	561.83
650.973	-79.19
651.173	-275.79
651.372	-83.28
651.571	172.71
651.77	359.08
651.969	-122.2
652.168	-5.46
652.367	-120.15
652.566	137.9
652.765	-93.52
652.964	219.82
653.163	746.14
653.362	187.05
653.561	-126.29
653.76	-60.76
653.959	-13.65
654.158	223.91
654.357	88.75
654.556	-71
654.755	195.24
654.954	359.08
655.153	-58.71
655.352	-116.05
655.551	490.15
655.749	-11.61
655.948	37.55
656.147	-38.23
656.346	264.87
656.545	174.76
656.743	-54.61
656.942	-93.52
657.141	201.38
657.34	-91.48
657.538	-32.08
657.737	-122.2
657.936	94.89
658.135	299.69
658.333	-128.34
658.532	33.45
658.731	535.2
658.929	395.94
659.128	176.81
659.326	-111.96
659.525	488.1
659.724	121.51
659.922	-312.66
660.121	-210.26
660.319	297.64
660.518	-62.8
660.716	-177.49
660.915	-234.83
661.113	486.05
661.312	-195.92
661.51	88.75
661.709	-171.35
661.907	289.45
662.105	531.11
662.304	-126.29
662.502	-66.9
662.701	441
662.899	105.13
663.097	297.64
663.296	-298.32
663.494	395.94
663.692	551.59
663.891	-159.06
664.089	-140.63
664.287	271.01
664.485	502.43
664.684	-105.81
664.882	35.5
665.08	211.62
665.278	125.61
665.476	-267.6
665.675	193.19
665.873	725.66
666.071	402.08
666.269	-197.97
666.467	60.07
666.665	187.05
666.863	68.27
667.061	109.22
667.259	-85.33
667.457	150.18
667.655	228.01
667.853	-210.26
668.051	68.27
668.249	64.17
668.447	285.35
668.645	-138.58
668.843	55.98
669.041	291.49
669.239	66.22
669.437	29.35
669.635	-9.56
669.833	53.93
670.031	305.83
670.229	23.21
670.426	98.99
670.624	-9.56
670.822	35.5
671.02	-83.28
671.218	-38.23
671.415	-73.04
671.613	185
671.811	-52.56
672.009	-30.04
672.206	359.08
672.404	172.71
672.602	170.66
672.799	51.88
672.997	260.77
673.195	389.8
673.392	103.08
673.59	-157.01
673.788	318.12
673.985	-249.17
674.183	72.36
674.38	10.92
674.578	332.45
674.775	8.87
674.973	-60.76
675.17	-152.91
675.368	561.83
675.565	309.93
675.763	-126.29
675.96	-171.35
676.158	484
676.355	158.38
676.553	-46.42
676.75	-73.04
676.947	254.63
677.145	223.91
677.342	51.88
677.539	94.89
677.737	252.58
677.934	662.18
678.131	90.79
678.329	-99.67
678.526	588.45
678.723	322.21
678.92	96.94
679.118	-42.32
679.315	-42.32
679.512	508.58
679.709	-38.23
679.906	43.69
680.104	422.56
680.301	199.34
680.498	-56.66
680.695	-163.15
680.892	37.55
681.089	82.6
681.286	39.59
681.483	-107.86
681.68	400.04
681.877	402.08
682.075	8.87
682.272	242.34
682.469	268.97
682.665	103.08
682.862	-54.61
683.059	-179.54
683.256	266.92
683.453	217.77
683.65	119.46
683.847	-11.61
684.044	260.77
684.241	39.59
684.438	47.79
684.635	-85.33
684.831	627.36
685.028	725.66
685.225	-17.75
685.422	94.89
685.619	170.66
685.815	225.96
686.012	55.98
686.209	51.88
686.405	-50.52
686.602	408.23
686.799	-122.2
686.996	-134.48
687.192	-99.67
687.389	701.09
687.586	-23.89
687.782	-34.13
687.979	578.21
688.175	570.02
688.372	43.69
688.568	72.36
688.765	148.14
688.962	494.24
689.158	60.07
689.355	-161.11
689.551	342.69
689.748	51.88
689.944	92.84
690.14	-120.15
690.337	467.62
690.533	137.9
690.73	236.2
690.926	123.56
691.123	303.78
691.319	275.11
691.515	-167.25
691.712	178.86
691.908	412.32
692.104	258.73
692.301	246.44
692.497	-81.24
692.693	420.52
692.889	414.37
693.086	199.34
693.282	-150.87
693.478	297.64
693.674	570.02
693.87	51.88
694.067	-68.95
694.263	258.73
694.459	246.44
694.655	199.34
694.851	121.51
695.047	322.21
695.243	389.8
695.439	135.85
695.635	-13.65
695.831	387.75
696.027	285.35
696.224	-3.41
696.42	260.77
696.615	686.75
696.811	414.37
697.007	-79.19
697.203	8.87
697.399	371.36
697.595	496.29
697.791	-73.04
697.987	152.23
698.183	-64.85
698.379	103.08
698.575	15.02
698.77	51.88
698.966	428.71
699.162	551.59
699.358	70.31
699.554	39.59
699.749	451.24
699.945	397.99
700.141	150.18
700.337	187.05
700.532	232.1
700.728	-13.65
700.924	47.79
701.119	-128.34
701.315	322.21
701.511	199.34
701.706	174.76
701.902	-140.63
702.097	299.69
702.293	453.28
702.489	174.76
702.684	51.88
702.88	191.14
703.075	66.22
703.271	72.36
703.466	-103.76
703.662	211.62
703.857	428.71
704.053	-32.08
704.248	-58.71
704.443	404.13
704.639	414.37
704.834	84.65
705.03	-81.24
705.225	447.14
705.42	586.4
705.616	250.53
705.811	53.93
706.006	217.77
706.202	195.24
706.397	92.84
706.592	-62.8
706.787	307.88
706.983	299.69
707.178	350.89
707.373	174.76
707.568	445.09
707.763	531.11
707.959	4.78
708.154	31.4
708.349	354.98
708.544	391.84
708.739	338.6
708.934	21.16
709.129	449.19
709.324	588.45
709.519	-87.38
709.714	-17.75
709.909	637.6
710.104	385.7
710.299	105.13
710.494	121.51
710.689	467.62
710.884	311.97
711.079	248.49
711.274	271.01
711.469	471.72
711.664	328.36
711.859	-25.94
712.054	187.05
712.249	438.95
712.443	539.3
712.638	-38.23
712.833	111.27
713.028	309.93
713.223	326.31
713.417	371.36
713.612	51.88
713.807	367.27
714.002	924.32
714.196	264.87
714.391	111.27
714.586	518.82
714.78	322.21
714.975	109.22
715.17	51.88
715.364	314.02
715.559	504.48
715.754	-120.15
715.948	27.31
716.143	821.92
716.337	363.17
716.532	359.08
716.726	72.36
716.921	469.67
717.115	692.9
717.31	47.79
717.504	549.54
717.699	141.99
717.893	543.39
718.088	68.27
718.282	-32.08
718.476	461.48
718.671	510.63
718.865	21.16
719.059	6.83
719.254	297.64
719.448	649.89
719.642	1385.11
719.837	-30.04
720.031	524.96
720.225	537.25
720.419	137.9
720.614	-9.56
720.808	539.3
721.002	289.45
721.196	96.94
721.39	88.75
721.585	627.36
721.779	428.71
721.973	115.37
722.167	-52.56
722.361	332.45
722.555	643.74
722.749	139.94
722.943	88.75
723.137	162.47
723.331	400.04
723.525	129.7
723.719	64.17
723.913	563.87
724.107	651.94
724.301	0.68
724.495	170.66
724.689	783.01
724.883	682.66
725.077	109.22
725.271	70.31
725.465	604.83
725.659	397.99
725.853	152.23
726.046	-87.38
726.24	174.76
726.434	510.63
726.628	123.56
726.822	127.66
727.015	649.89
727.209	649.89
727.403	148.14
727.596	-3.41
727.79	619.17
727.984	445.09
728.177	127.66
728.371	170.66
728.565	596.64
728.758	129.7
728.952	109.22
729.146	58.03
729.339	656.03
729.533	346.79
729.726	113.32
729.92	23.21
730.113	658.08
730.307	455.33
730.5	92.84
730.694	105.13
730.887	301.73
731.081	412.32
731.274	19.11
731.468	150.18
731.661	359.08
731.854	180.9
732.048	133.8
732.241	78.51
732.435	248.49
732.628	436.9
732.821	234.15
733.014	109.22
733.208	35.5
733.401	494.24
733.594	199.34
733.788	84.65
733.981	733.86
734.174	432.8
734.367	105.13
734.56	217.77
734.754	649.89
734.947	342.69
735.14	84.65
735.333	146.09
735.526	490.15
735.719	258.73
735.912	58.03
736.105	88.75
736.298	406.18
736.491	352.93
736.684	158.38
736.877	111.27
737.07	402.08
737.263	764.57
737.456	232.1
737.649	60.07
737.842	225.96
738.035	447.14
738.228	185
738.421	305.83
738.614	682.66
738.807	637.6
739	23.21
739.192	51.88
739.385	549.54
739.578	604.83
739.771	322.21
739.964	236.2
740.156	381.6
740.349	342.69
740.542	277.16
740.735	15.02
740.927	121.51
741.12	248.49
741.313	43.69
741.505	199.34
741.698	553.63
741.891	518.82
742.083	283.3
742.276	158.38
742.468	334.5
742.661	430.76
742.854	223.91
743.046	158.38
743.239	793.25
743.431	412.32
743.624	225.96
743.816	-32.08
744.009	311.97
744.201	508.58
744.393	371.36
744.586	15.02
744.778	551.59
744.971	475.81
745.163	215.72
745.355	324.26
745.548	461.48
745.74	404.13
745.932	316.07
746.125	166.57
746.317	918.17
746.509	428.71
746.702	219.82
746.894	248.49
747.086	594.59
747.278	727.71
747.471	330.41
747.663	328.36
747.855	492.2
748.047	819.87
748.239	199.34
748.431	37.55
748.623	871.07
748.815	778.91
749.008	31.4
749.2	64.17
749.392	645.79
749.584	578.21
749.776	199.34
749.968	305.83
750.16	936.6
750.352	342.69
750.544	264.87
750.736	141.99
750.928	545.44
751.12	504.48
751.311	293.54
751.503	162.47
751.695	518.82
751.887	367.27
752.079	-46.42
752.271	156.33
752.463	1151.64
752.654	633.51
752.846	254.63
753.038	273.06
753.23	213.67
753.421	670.37
753.613	187.05
753.805	469.67
753.997	660.13
754.188	637.6
754.38	162.47
754.572	191.14
754.763	395.94
754.955	490.15
755.146	305.83
755.338	260.77
755.53	524.96
755.721	402.08
755.913	72.36
756.104	148.14
756.296	322.21
756.487	649.89
756.679	10.92
756.87	193.19
757.062	340.65
757.253	516.77
757.445	228.01
757.636	330.41
757.827	412.32
758.019	1036.95
758.21	103.08
758.401	176.81
758.593	944.8
758.784	834.21
758.975	129.7
759.167	127.66
759.358	488.1
759.549	635.55
759.74	137.9
759.932	199.34
760.123	854.69
760.314	248.49
760.505	373.41
760.696	256.68
760.888	928.41
761.079	297.64
761.27	64.17
761.461	60.07
761.652	838.3
761.843	449.19
762.034	236.2
762.225	447.14
762.416	418.47
762.607	518.82
762.798	193.19
762.989	150.18
763.18	1223.32
763.371	408.23
763.562	182.95
763.753	252.58
763.944	723.62
764.135	719.52
764.326	332.45
764.517	182.95
764.708	510.63
764.899	627.36
765.089	94.89
765.28	-58.71
765.471	490.15
765.662	592.55
765.853	346.79
766.043	12.97
766.234	742.05
766.425	746.14
766.615	309.93
766.806	84.65
766.997	842.4
767.187	623.27
767.378	230.06
767.569	70.31
767.759	598.69
767.95	514.72
768.141	418.47
768.331	162.47
768.522	422.56
768.712	705.18
768.903	207.53
769.093	168.62
769.284	869.02
769.474	535.2
769.665	76.46
769.855	125.61
770.046	631.46
770.236	344.74
770.426	354.98
770.617	105.13
770.807	578.21
770.998	395.94
771.188	441
771.378	113.32
771.569	701.09
771.759	641.7
771.949	185
772.139	-25.94
772.33	584.35
772.52	809.63
772.71	225.96
772.9	55.98
773.09	967.32
773.281	793.25
773.471	207.53
773.661	232.1
773.851	758.43
774.041	451.24
774.231	182.95
774.421	318.12
774.611	944.8
774.802	576.16
774.992	264.87
775.182	174.76
775.372	547.49
775.562	742.05
775.752	324.26
775.942	201.38
776.131	801.44
776.321	694.94
776.511	289.45
776.701	113.32
776.891	770.72
777.081	295.59
777.271	393.89
777.461	236.2
777.651	633.51
777.84	793.25
778.03	330.41
778.22	297.64
778.41	893.6
778.599	344.74
778.789	262.82
778.979	129.7
779.169	621.22
779.358	502.43
779.548	604.83
779.738	160.42
779.927	527.01
780.117	234.15
780.307	236.2
780.496	-9.56
780.686	666.27
780.875	977.56
781.065	199.34
781.254	273.06
781.444	549.54
781.633	604.83
781.823	211.62
782.012	205.48
782.202	514.72
782.391	512.67
782.581	139.94
782.77	375.46
782.96	729.76
783.149	512.67
783.338	264.87
783.528	-13.65
783.717	817.82
783.906	830.11
784.096	369.32
784.285	166.57
784.474	338.6
784.663	338.6
784.853	326.31
785.042	354.98
785.231	502.43
785.42	764.57
785.61	371.36
785.799	211.62
785.988	455.33
786.177	529.06
786.366	311.97
786.555	457.38
786.744	678.56
786.933	479.91
787.122	144.04
787.312	84.65
787.501	461.48
787.69	621.22
787.879	154.28
788.068	215.72
788.257	248.49
788.445	428.71
788.634	365.22
788.823	92.84
789.012	1129.11
789.201	866.97
789.39	383.65
789.579	258.73
789.768	512.67
789.957	510.63
790.145	283.3
790.334	-1.37
790.523	481.96
790.712	436.9
790.9	297.64
791.089	152.23
791.278	752.29
791.467	635.55
791.655	553.63
791.844	797.34
792.033	412.32
792.221	563.87
792.41	268.97
792.599	70.31
792.787	662.18
792.976	684.7
793.164	137.9
793.353	225.96
793.541	666.27
793.73	604.83
793.918	289.45
794.107	275.11
794.295	570.02
794.484	598.69
794.672	191.14
794.861	291.49
795.049	598.69
795.238	869.02
795.426	162.47
795.614	330.41
795.803	600.74
795.991	846.49
796.179	94.89
796.368	285.35
796.556	854.69
796.744	295.59
796.932	221.86
797.121	217.77
797.309	422.56
797.497	768.67
797.685	301.73
797.874	248.49
798.062	459.43
798.25	895.64
798.438	68.27
798.626	185
798.814	656.03
799.002	1014.43
799.19	477.86
799.378	316.07
799.566	821.92
799.755	881.31
799.943	406.18
800.131	258.73
800.318	635.55
800.506	797.34
800.694	268.97
800.882	357.03
801.07	875.17
801.258	522.91
801.446	287.4
801.634	367.27
801.822	608.93
802.01	625.31
802.197	277.16
802.385	336.55
802.573	584.35
802.761	309.93
802.949	354.98
803.136	94.89
803.324	891.55
803.512	553.63
803.699	387.75
803.887	217.77
804.075	813.73
804.262	492.2
804.45	98.99
804.638	408.23
804.825	453.28
805.013	502.43
805.201	303.78
805.388	148.14
805.576	639.65
805.763	934.56
805.951	246.44
806.138	520.87
806.326	1036.95
806.513	699.04
806.701	410.28
806.888	318.12
807.075	719.52
807.263	1024.67
807.45	295.59
807.638	488.1
807.825	1030.81
808.012	793.25
808.2	350.89
808.387	547.49
808.574	744.1
808.761	1030.81
808.949	377.51
809.136	506.53
809.323	570.02
809.51	584.35
809.698	565.92
809.885	535.2
810.072	680.61
810.259	817.82
810.446	334.5
810.633	264.87
810.82	934.56
811.008	967.32
811.195	543.39
811.382	303.78
811.569	608.93
811.756	359.08
811.943	377.51
812.13	359.08
812.317	527.01
812.504	432.8
812.691	438.95
812.878	553.63
813.064	996
813.251	643.74
813.438	279.21
813.625	572.07
813.812	533.15
813.999	608.93
814.186	430.76
814.372	357.03
814.559	617.12
814.746	973.47
814.933	424.61
815.12	531.11
815.306	494.24
815.493	381.6
815.68	381.6
815.866	459.43
816.053	885.41
816.24	1165.98
816.426	465.57
816.613	303.78
816.799	811.68
816.986	899.74
817.173	383.65
817.359	322.21
817.546	731.81
817.732	287.4
817.919	195.24
818.105	465.57
818.292	567.97
818.478	785.05
818.665	547.49
818.851	297.64
819.037	1145.5
819.224	692.9
819.41	346.79
819.597	453.28
819.783	1094.3
819.969	776.86
820.156	441
820.342	246.44
820.528	1413.78
820.714	686.75
820.901	608.93
821.087	381.6
821.273	1051.29
821.459	608.93
821.646	385.7
821.832	412.32
822.018	527.01
822.204	735.9
822.39	436.9
822.576	250.53
822.762	895.64
822.948	709.28
823.134	617.12
823.32	469.67
823.507	479.91
823.693	752.29
823.879	776.86
824.065	412.32
824.25	791.2
824.436	414.37
824.622	436.9
824.808	359.08
824.994	506.53
825.18	453.28
825.366	281.25
825.552	365.22
825.738	713.38
825.923	916.12
826.109	660.13
826.295	422.56
826.481	524.96
826.667	553.63
826.852	484
827.038	338.6
827.224	873.12
827.409	1092.25
827.595	180.9
827.781	549.54
827.966	946.84
828.152	932.51
828.338	492.2
828.523	357.03
828.709	547.49
828.894	993.95
829.08	459.43
829.266	307.88
829.451	494.24
829.637	912.03
829.822	500.39
830.008	393.89
830.193	905.88
830.378	1063.58
830.564	496.29
830.749	281.25
830.935	889.5
831.12	920.22
831.305	291.49
831.491	522.91
831.676	391.84
831.861	926.36
832.047	512.67
832.232	264.87
832.417	952.99
832.602	641.7
832.788	436.9
832.973	361.13
833.158	649.89
833.343	780.96
833.528	502.43
833.714	473.76
833.899	846.49
834.084	1088.15
834.269	662.18
834.454	422.56
834.639	899.74
834.824	692.9
835.009	520.87
835.194	672.42
835.379	842.4
835.564	1143.45
835.749	545.44
835.934	281.25
836.119	963.23
836.304	746.14
836.489	494.24
836.674	672.42
836.859	510.63
837.044	957.08
837.228	490.15
837.413	281.25
837.598	912.03
837.783	881.31
837.968	432.8
838.152	316.07
838.337	289.45
838.522	1159.83
838.707	1075.87
838.891	682.66
839.076	879.26
839.261	981.66
839.445	537.25
839.63	598.69
839.815	1221.27
839.999	688.8
840.184	559.78
840.368	459.43
840.553	948.89
840.737	932.51
840.922	381.6
841.106	393.89
841.291	496.29
841.475	846.49
841.66	522.91
841.844	461.48
842.029	1397.4
842.213	420.52
842.397	477.86
842.582	322.21
842.766	998.04
842.951	967.32
843.135	551.59
843.319	539.3
843.504	668.32
843.688	983.71
843.872	322.21
844.056	412.32
844.241	764.57
844.425	701.09
844.609	653.98
844.793	287.4
844.977	1036.95
845.161	799.39
845.346	379.56
845.53	490.15
845.714	699.04
845.898	1155.74
846.082	314.02
846.266	350.89
846.45	760.48
846.634	760.48
846.818	473.76
847.002	694.94
847.186	918.17
847.37	527.01
847.554	432.8
847.738	651.94
847.922	819.87
848.106	891.55
848.29	410.28
848.473	510.63
848.657	930.46
848.841	760.48
849.025	457.38
849.209	264.87
849.392	938.65
849.576	629.41
849.76	299.69
849.944	594.59
850.127	1096.35
850.311	498.34
850.495	426.66
850.678	379.56
850.862	998.04
851.046	1256.09
851.229	752.29
851.413	346.79
851.596	709.28
851.78	701.09
851.964	602.79
852.147	598.69
852.331	1561.23
852.514	1131.16
852.698	592.55
852.881	383.65
853.065	969.37
853.248	688.8
853.431	613.03
853.615	565.92
853.798	1231.51
853.982	826.01
854.165	582.31
854.348	559.78
854.532	465.57
854.715	578.21
854.898	510.63
855.081	496.29
855.265	1002.14
855.448	1245.85
855.631	410.28
855.814	420.52
855.997	940.7
856.181	676.51
856.364	610.98
856.547	383.65
856.73	742.05
856.913	903.84
857.096	361.13
857.279	555.68
857.462	666.27
857.645	930.46
857.828	617.12
858.011	553.63
858.194	572.07
858.377	897.69
858.56	402.08
858.743	486.05
858.926	500.39
859.109	924.32
859.292	441
859.475	404.13
859.658	1077.91
859.841	879.26
860.023	395.94
860.206	422.56
860.389	750.24
860.572	1010.33
860.755	608.93
860.937	465.57
861.12	770.72
861.303	719.52
861.486	549.54
861.668	402.08
861.851	862.88
862.034	854.69
862.216	600.74
862.399	379.56
862.581	905.88
862.764	1114.78
862.947	576.16
863.129	496.29
863.312	459.43
863.494	1131.16
863.677	795.29
863.859	275.11
864.042	946.84
864.224	1041.05
864.406	610.98
864.589	377.51
864.771	930.46
864.954	651.94
865.136	514.72
865.318	365.22
865.501	981.66
865.683	402.08
865.865	447.14
866.048	449.19
866.23	873.12
866.412	764.57
866.594	266.92
866.777	537.25
866.959	932.51
867.141	627.36
867.323	803.49
867.505	690.85
867.687	772.77
867.869	776.86
868.052	576.16
868.234	424.61
868.416	742.05
868.598	830.11
868.78	496.29
868.962	361.13
869.144	1065.63
869.326	998.04
869.508	553.63
869.69	412.32
869.872	596.64
870.054	1104.54
870.236	309.93
870.417	430.76
870.599	801.44
870.781	1174.17
870.963	670.37
871.145	416.42
871.327	381.6
871.508	1039
871.69	496.29
871.872	545.44
872.054	819.87
872.235	746.14
872.417	658.08
872.599	416.42
872.78	1069.72
872.962	789.15
873.144	434.85
873.325	527.01
873.507	1108.63
873.689	740
873.87	346.79
874.052	594.59
874.233	678.56
874.415	1065.63
874.596	510.63
874.778	469.67
874.959	809.63
875.141	1149.59
875.322	594.59
875.503	445.09
875.685	776.86
875.866	428.71
876.048	373.41
876.229	367.27
876.41	670.37
876.592	809.63
876.773	416.42
876.954	434.85
877.136	1153.69
877.317	656.03
877.498	400.04
877.679	541.35
877.86	946.84
878.042	770.72
878.223	436.9
878.404	776.86
878.585	950.94
878.766	1079.96
878.947	780.96
879.128	701.09
879.309	1030.81
879.49	1100.44
879.672	551.59
879.853	629.41
880.034	531.11
880.215	735.9
880.396	572.07
880.576	510.63
880.757	592.55
880.938	1153.69
881.119	420.52
881.3	438.95
881.481	723.62
881.662	1725.07
881.843	506.53
882.023	379.56
882.204	928.41
882.385	817.82
882.566	586.4
882.747	586.4
882.927	727.71
883.108	1010.33
883.289	477.86
883.469	725.66
883.65	715.42
883.831	916.12
884.011	742.05
884.192	475.81
884.373	1157.78
884.553	940.7
884.734	764.57
884.914	903.84
885.095	1528.47
885.275	1198.74
885.456	924.32
885.636	463.52
885.817	748.19
885.997	873.12
886.178	447.14
886.358	625.31
886.538	875.17
886.719	1831.57
886.899	524.96
887.08	740
887.26	1092.25
887.44	641.7
887.621	447.14
887.801	846.49
887.981	1366.68
888.161	1135.26
888.342	694.94
888.522	619.17
888.702	1145.5
888.882	1161.88
889.062	795.29
889.242	463.52
889.423	1231.51
889.603	1018.52
889.783	672.42
889.963	580.26
890.143	1110.68
890.323	1233.56
890.503	641.7
890.683	653.98
890.863	922.27
891.043	989.85
891.223	811.68
891.403	854.69
891.583	938.65
891.763	983.71
891.943	725.66
892.122	590.5
892.302	907.93
892.482	912.03
892.662	895.64
892.842	658.08
893.022	1030.81
893.201	914.08
893.381	871.07
893.561	635.55
893.741	1125.02
893.92	1055.39
894.1	856.73
894.28	770.72
894.459	1102.49
894.639	1055.39
894.819	662.18
894.998	770.72
895.178	987.8
895.357	1045.15
895.537	660.13
895.716	473.76
895.896	838.3
896.075	1323.67
896.255	666.27
896.434	457.38
896.614	1176.22
896.793	1307.29
896.973	817.82
897.152	811.68
897.331	1141.4
897.511	1186.46
897.69	649.89
897.87	817.82
898.049	1135.26
898.228	934.56
898.407	838.3
898.587	793.25
898.766	873.12
898.945	1204.89
899.124	963.23
899.304	834.21
899.483	1051.29
899.662	1530.52
899.841	666.27
900.02	643.74
900.199	1217.18
900.378	1168.02
900.557	608.93
900.737	551.59
900.916	1118.87
901.095	1110.68
901.274	846.49
901.453	649.89
901.632	881.31
901.811	766.62
901.989	645.79
902.168	643.74
902.347	1151.64
902.526	901.79
902.705	623.27
902.884	871.07
903.063	1208.98
903.242	1288.86
903.42	576.16
903.599	799.39
903.778	1278.62
903.957	1323.67
904.135	889.5
904.314	838.3
904.493	1077.91
904.672	1145.5
904.85	748.19
905.029	819.87
905.207	1065.63
905.386	1843.85
905.565	608.93
905.743	701.09
905.922	922.27
906.1	1241.75
906.279	699.04
906.457	731.81
906.636	830.11
906.814	1018.52
906.993	719.52
907.171	680.61
907.35	1129.11
907.528	1208.98
907.707	1026.71
907.885	660.13
908.063	1417.88
908.242	844.45
908.42	721.57
908.598	500.39
908.777	1067.67
908.955	864.93
909.133	930.46
909.311	563.87
909.49	823.97
909.668	938.65
909.846	737.95
910.024	533.15
910.202	1036.95
910.38	1168.02
910.559	625.31
910.737	651.94
910.915	916.12
911.093	1088.15
911.271	678.56
911.449	897.69
911.627	1102.49
911.805	1493.65
911.983	723.62
912.161	658.08
912.339	977.56
912.517	1284.76
912.695	871.07
912.872	699.04
913.05	797.34
913.228	1053.34
913.406	727.71
913.584	639.65
913.762	1153.69
913.939	797.34
914.117	621.22
914.295	510.63
914.473	1034.91
914.65	1067.67
914.828	662.18
915.006	668.32
915.184	715.42
915.361	1039
915.539	932.51
915.716	895.64
915.894	1030.81
916.072	1092.25
916.249	780.96
916.427	862.88
916.604	703.14
916.782	1102.49
916.959	610.98
917.137	660.13
917.314	1010.33
917.492	1182.36
917.669	740
917.847	805.53
918.024	1043.1
918.201	707.23
918.379	813.73
918.556	735.9
918.733	1108.63
918.911	893.6
919.088	928.41
919.265	686.75
919.442	1039
919.62	969.37
919.797	649.89
919.974	539.3
920.151	1075.87
920.328	903.84
920.506	676.51
920.683	871.07
920.86	740
921.037	840.35
921.214	756.38
921.391	666.27
921.568	1163.93
921.745	733.86
921.922	776.86
922.099	580.26
922.276	1217.18
922.453	1065.63
922.63	639.65
922.807	1010.33
922.984	1004.19
923.161	770.72
923.338	653.98
923.514	651.94
923.691	866.97
923.868	879.26
924.045	674.46
924.222	488.1
924.399	860.83
924.575	1139.35
924.752	731.81
924.929	678.56
925.105	952.99
925.282	629.41
925.459	660.13
925.635	780.96
925.812	1024.67
925.989	678.56
926.165	744.1
926.342	527.01
926.518	608.93
926.695	959.13
926.871	543.39
927.048	537.25
927.224	1075.87
927.401	756.38
927.577	799.39
927.754	488.1
927.93	1092.25
928.107	1069.72
928.283	594.59
928.459	725.66
928.636	991.9
928.812	789.15
928.988	506.53
929.165	512.67
929.341	854.69
929.517	977.56
929.693	963.23
929.87	402.08
930.046	940.7
930.222	780.96
930.398	443.04
930.574	715.42
930.751	846.49
930.927	664.22
931.103	572.07
931.279	639.65
931.455	633.51
931.631	871.07
931.807	359.08
931.983	404.13
932.159	428.71
932.335	879.26
932.511	570.02
932.687	596.64
932.863	889.5
933.039	838.3
933.215	363.17
933.391	383.65
933.566	807.58
933.742	754.34
933.918	461.48
934.094	299.69
934.27	731.81
934.445	803.49
934.621	623.27
934.797	434.85
934.973	950.94
935.148	860.83
935.324	352.93
935.5	291.49
935.675	963.23
935.851	735.9
936.027	559.78
936.202	379.56
936.378	764.57
936.553	672.42
936.729	895.64
936.904	422.56
937.08	387.75
937.255	492.2
937.431	338.6
937.606	359.08
937.782	596.64
937.957	699.04
938.133	492.2
938.308	330.41
938.483	608.93
938.659	430.76
938.834	455.33
939.009	273.06
939.185	484
939.36	381.6
939.535	133.8
939.71	455.33
939.886	866.97
940.061	651.94
940.236	586.4
940.411	422.56
940.586	625.31
940.761	789.15
940.937	326.31
941.112	201.38
941.287	510.63
941.462	596.64
941.637	244.39
941.812	328.36
941.987	666.27
942.162	479.91
942.337	375.46
942.512	258.73
942.687	703.14
942.862	694.94
943.037	105.13
943.212	-9.56
943.386	359.08
943.561	531.11
943.736	395.94
943.911	576.16
944.086	549.54
944.26	570.02
944.435	295.59
944.61	322.21
944.785	834.21
944.959	850.59
945.134	309.93
945.309	92.84
945.483	273.06
945.658	703.14
945.833	-5.46
946.007	94.89
946.182	858.78
946.357	266.92
946.531	125.61
946.706	182.95
946.88	137.9
947.055	602.79
947.229	234.15
947.404	148.14
947.578	692.9
947.752	365.22
947.927	17.07
948.101	2.73
948.276	473.76
948.45	490.15
948.624	379.56
948.799	236.2
948.973	506.53
949.147	137.9
949.321	256.68
949.496	232.1
949.67	641.7
949.844	381.6
950.018	211.62
950.193	176.81
950.367	950.94
950.541	275.11
950.715	359.08
950.889	420.52
951.063	367.27
951.237	690.85
951.411	-21.85
951.585	72.36
951.759	490.15
951.933	400.04
952.107	125.61
952.281	365.22
952.455	701.09
952.629	674.46
952.803	133.8
952.977	203.43
953.151	604.83
953.325	484
953.499	295.59
953.672	78.51
953.846	211.62
954.02	330.41
954.194	103.08
954.368	150.18
954.541	615.07
954.715	340.65
954.889	305.83
955.062	125.61
955.236	381.6
955.41	309.93
955.583	281.25
955.757	58.03
955.93	275.11
956.104	111.27
956.278	64.17
956.451	309.93
956.625	567.97
956.798	879.26
956.972	545.44
957.145	51.88
957.319	463.52
957.492	400.04
957.665	322.21
957.839	172.71
958.012	502.43
958.185	346.79
958.359	238.25
958.532	416.42
958.705	535.2
958.879	580.26
959.052	357.03
959.225	101.03
959.398	264.87
959.572	498.34
959.745	193.19
959.918	230.06
960.091	393.89
960.264	567.97
960.438	60.07
960.611	76.46
960.784	619.17
960.957	359.08
961.13	549.54
961.303	185
961.476	473.76
961.649	672.42
961.822	215.72
961.995	244.39
962.168	643.74
962.341	465.57
962.514	180.9
962.686	174.76
962.859	506.53
963.032	547.49
963.205	168.62
963.378	88.75
963.551	567.97
963.723	445.09
963.896	305.83
964.069	375.46
964.242	373.41
964.414	735.9
964.587	295.59
964.76	305.83
964.932	488.1
965.105	342.69
965.278	146.09
965.45	70.31
965.623	428.71
965.795	570.02
965.968	307.88
966.14	170.66
966.313	314.02
966.485	342.69
966.658	281.25
966.83	135.85
967.003	750.24
967.175	586.4
967.348	201.38
967.52	273.06
967.692	914.08
967.865	543.39
968.037	244.39
968.209	469.67
968.382	469.67
968.554	643.74
968.726	166.57
968.898	174.76
969.071	522.91
969.243	600.74
969.415	244.39
969.587	240.3
969.759	983.71
969.932	660.13
970.104	246.44
970.276	-40.28
970.448	369.32
970.62	314.02
970.792	301.73
970.964	262.82
971.136	963.23
971.308	514.72
971.48	256.68
971.652	182.95
971.824	862.88
971.996	363.17
972.168	301.73
972.339	178.86
972.511	694.94
972.683	381.6
972.855	422.56
973.027	230.06
973.199	455.33
973.37	592.55
973.542	332.45
973.714	395.94
973.886	469.67
974.057	586.4
974.229	47.79
974.401	150.18
974.572	197.29
974.744	10.92
974.915	37.55
975.087	60.07
975.259	815.77
975.43	359.08
975.602	172.71
975.773	101.03
975.945	316.07
976.116	567.97
976.288	31.4
976.459	334.5
976.63	311.97
976.802	520.87
976.973	201.38
977.145	361.13
977.316	934.56
977.487	789.15
977.659	348.84
977.83	174.76
978.001	742.05
978.172	416.42
978.344	137.9
978.515	221.86
978.686	379.56
978.857	791.2
979.028	211.62
979.2	152.23
979.371	780.96
979.542	357.03
979.713	258.73
979.884	-120.15
980.055	320.17
980.226	311.97
980.397	103.08
980.568	-58.71
980.739	719.52
980.91	387.75
981.081	328.36
981.252	129.7
981.423	535.2
981.594	670.37
981.765	109.22
981.936	289.45
982.106	508.58
982.277	783.01
982.448	201.38
982.619	410.28
982.79	375.46
982.96	670.37
983.131	297.64
983.302	-68.95
983.472	236.2
983.643	502.43
983.814	287.4
983.984	103.08
984.155	324.26
984.326	527.01
984.496	236.2
984.667	101.03
984.837	299.69
985.008	619.17
985.178	371.36
985.349	201.38
985.519	393.89
985.69	154.28
985.86	238.25
986.031	133.8
986.201	404.13
986.371	496.29
986.542	-17.75
986.712	-68.95
986.882	553.63
987.053	506.53
987.223	31.4
987.393	334.5
987.563	201.38
987.734	563.87
987.904	428.71
988.074	117.42
988.244	486.05
988.414	279.21
988.585	105.13
988.755	277.16
988.925	322.21
989.095	713.38
989.265	92.84
989.435	234.15
989.605	565.92
989.775	565.92
989.945	457.38
990.115	12.97
990.285	424.61
990.455	391.84
990.625	242.34
990.795	70.31
990.965	737.95
991.134	201.38
991.304	156.33
991.474	135.85
991.644	537.25
991.814	850.59
991.984	53.93
992.153	166.57
992.323	348.84
992.493	373.41
992.662	-120.15
992.832	314.02
993.002	402.08
993.171	416.42
993.341	-34.13
993.511	185
993.68	137.9
993.85	567.97
994.019	-87.38
994.189	-3.41
994.358	420.52
994.528	256.68
994.697	-200.02
994.867	-27.99
995.036	584.35
995.206	256.68
995.375	64.17
995.544	187.05
995.714	318.12
995.883	260.77
996.052	228.01
996.222	-154.96
996.391	770.72
996.56	391.84
996.73	-25.94
996.899	-13.65
997.068	715.42
997.237	297.64
997.406	-71
997.576	-165.2
997.745	469.67
997.914	344.74
998.083	-189.78
998.252	53.93
998.421	346.79
998.59	88.75
998.759	43.69
998.928	-111.96
999.097	625.31
999.266	387.75
999.435	166.57
999.604	-173.39
999.773	836.25
999.942	211.62
1000.111	-126.29
1000.28	-122.2
1000.448	101.03
1000.617	84.65
1000.786	236.2
1000.955	-169.3
1001.124	336.55
1001.292	903.84
1001.461	-38.23
1001.63	-21.85
1001.798	619.17
1001.967	635.55
1002.136	-171.35
1002.304	-81.24
1002.473	354.98
1002.642	324.26
1002.81	-7.51
1002.979	-79.19
1003.147	443.04
1003.316	793.25
1003.484	-62.8
1003.653	-163.15
1003.821	625.31
1003.99	305.83
1004.158	47.79
1004.327	178.86
1004.495	420.52
1004.663	62.12
1004.832	144.04
1005	-93.52
1005.168	383.65
1005.337	248.49
1005.505	-159.06
1005.673	139.94
1005.842	400.04
1006.01	385.7
1006.178	-77.14
1006.346	-17.75
1006.514	475.81
1006.683	551.59
1006.851	-21.85
1007.019	-120.15
1007.187	146.09
1007.355	-210.26
1007.523	-169.3
1007.691	-206.16
1007.859	-32.08
1008.027	533.15
1008.195	66.22
1008.363	-101.72
1008.531	502.43
1008.699	137.9
1008.867	-150.87
1009.035	-85.33
1009.203	572.07
1009.37	334.5
1009.538	6.83
1009.706	465.57
1009.874	275.11
1010.042	193.19
1010.209	-175.44
1010.377	-107.86
1010.545	531.11
1010.713	371.36
1010.88	0.68
1011.048	-56.66
1011.216	113.32
1011.383	570.02
1011.551	-42.32
1011.718	-46.42
1011.886	420.52
1012.054	244.39
1012.221	-87.38
1012.389	-118.1
1012.556	240.3
1012.724	668.32
1012.891	101.03
1013.058	-259.41
1013.226	414.37
1013.393	453.28
1013.561	-273.75
1013.728	-210.26
1013.895	387.75
1014.063	338.6
1014.23	-177.49
1014.397	-79.19
1014.565	547.49
1014.732	223.91
1014.899	-46.42
1015.066	-183.63
1015.233	281.25
1015.401	397.99
1015.568	-9.56
1015.735	6.83
1015.902	326.31
1016.069	322.21
1016.236	-79.19
1016.403	-187.73
1016.57	92.84
1016.737	504.48
1016.904	-114
1017.071	-251.22
1017.238	43.69
1017.405	539.3
1017.572	-140.63
1017.739	133.8
1017.906	334.5
1018.073	514.72
1018.24	-226.64
1018.407	-48.47
1018.573	510.63
1018.74	201.38
1018.907	-44.37
1019.074	-306.51
1019.241	551.59
1019.407	301.73
1019.574	-185.68
1019.741	-232.79
1019.907	397.99
1020.074	445.09
1020.241	-308.56
1020.407	-206.16
1020.574	408.23
1020.74	324.26
1020.907	-124.24
1021.073	-224.59
1021.24	768.67
1021.406	637.6
1021.573	-181.59
1021.739	-177.49
1021.906	459.43
1022.072	203.43
1022.239	-103.76
1022.405	-116.05
1022.571	266.92
1022.738	-27.99
1022.904	-167.25
1023.07	-13.65
1023.237	305.83
1023.403	498.34
1023.569	-116.05
1023.735	17.07
1023.902	336.55
1024.068	301.73
1024.234	-187.73
1024.4	-177.49
1024.566	264.87
1024.732	357.03
1024.898	-154.96
1025.065	-271.7
1025.231	414.37
1025.397	148.14
1025.563	-163.15
1025.729	-122.2
1025.895	-83.28
1026.061	2.73
1026.227	-271.7
1026.392	-103.76
1026.558	484
1026.724	246.44
1026.89	-277.84
1027.056	-48.47
1027.222	244.39
1027.388	121.51
1027.553	-171.35
1027.719	-161.11
1027.885	660.13
1028.051	410.28
1028.216	-370
1028.382	-116.05
1028.548	449.19
1028.713	166.57
1028.879	-224.59
1029.045	-13.65
1029.21	621.22
1029.376	522.91
1029.541	-56.66
1029.707	-64.85
1029.873	471.72
1030.038	455.33
1030.204	-189.78
1030.369	2.73
1030.534	428.71
1030.7	72.36
1030.865	-111.96
1031.031	-157.01
1031.196	414.37
1031.361	301.73
1031.527	-183.63
1031.692	-206.16
1031.857	-48.47
1032.023	422.56
1032.188	-173.39
1032.353	-71
1032.518	533.15
1032.684	320.17
1032.849	-218.45
1033.014	-181.59
1033.179	348.84
1033.344	387.75
1033.509	-126.29
1033.674	-146.77
1033.839	350.89
1034.004	481.96
1034.17	-136.53
1034.335	-159.06
1034.5	144.04
1034.664	10.92
1034.829	-202.07
1034.994	-120.15
1035.159	193.19
1035.324	236.2
1035.489	-107.86
1035.654	-146.77
1035.819	545.44
1035.984	320.17
1036.148	-79.19
1036.313	-34.13
1036.478	461.48
1036.643	234.15
1036.807	-140.63
1036.972	-277.84
1037.137	572.07
1037.301	225.96
1037.466	-279.89
1037.631	-97.62
1037.795	555.68
1037.96	295.59
1038.124	8.87
1038.289	-216.4
1038.454	363.17
1038.618	402.08
1038.783	-66.9
1038.947	-77.14
1039.111	305.83
1039.276	172.71
1039.44	-210.26
1039.605	275.11
1039.769	96.94
1039.933	234.15
1040.098	-107.86
1040.262	133.8
1040.426	404.13
1040.591	293.54
1040.755	-136.53
1040.919	-101.72
1041.083	252.58
1041.248	297.64
1041.412	-308.56
1041.576	-136.53
1041.74	109.22
1041.904	408.23
1042.068	-159.06
1042.232	-130.39
1042.397	387.75
1042.561	395.94
1042.725	-275.79
1042.889	51.88
1043.053	309.93
1043.217	416.42
1043.381	-48.47
1043.544	-279.89
1043.708	508.58
1043.872	80.55
1044.036	-400.72
1044.2	-298.32
1044.364	518.82
1044.528	539.3
1044.691	4700.77
1044.855	-322.9
1045.019	406.18
1045.183	447.14
1045.346	-171.35
1045.51	-173.39
1045.674	363.17
1045.837	432.8
1046.001	-114
1046.165	-265.55
1046.328	731.81
1046.492	385.7
1046.655	-50.52
1046.819	-38.23
1046.983	133.8
1047.146	307.88
1047.31	-32.08
1047.473	-298.32
1047.636	166.57
1047.8	-17.75
1047.963	-124.24
1048.127	-197.97
1048.29	96.94
