Data from Ink_Intensity_USB4F045381__195__00195.txt Node

Date: Mon Jul 17 11:47:10 EDT 2023
User: mmckonesweet
Spectrometer: USB4F04538
Trigger mode: 4
Integration Time (sec): 9.000000E-1
Scans to average: 1
Electric dark correction enabled: true
Nonlinearity correction enabled: false
Boxcar width: 0
XAxis mode: Wavelengths
Number of Pixels in Spectrum: 3648
>>>>>Begin Spectral Data<<<<<
345.52	-1024.16
345.736	-1024.16
345.952	-1024.16
346.168	-1024.16
346.384	-948.38
346.6	-102.57
346.816	-303.27
347.032	-211.11
347.248	218.96
347.464	-223.4
347.68	-84.14
347.896	20.31
348.112	407.38
348.328	-18.6
348.544	-41.13
348.76	36.69
348.975	300.88
349.191	-207.02
349.407	-178.34
349.623	-0.17
349.839	-24.75
350.055	-178.34
350.27	65.36
350.486	145.24
350.702	380.75
350.918	175.95
351.133	-204.97
351.349	130.9
351.565	378.7
351.781	-186.54
351.996	51.03
352.212	268.11
352.428	-121
352.644	-198.82
352.859	-194.73
353.075	249.68
353.291	141.14
353.506	-90.28
353.722	-272.55
353.938	-118.95
354.153	509.77
354.369	120.66
354.584	-243.88
354.8	323.41
355.016	-368.81
355.231	-184.49
355.447	-133.29
355.662	153.43
355.878	816.97
356.093	-307.37
356.309	-26.79
356.524	-219.3
356.74	261.97
356.955	-227.5
357.171	-28.84
357.386	108.37
357.602	-184.49
357.817	-141.48
358.033	-207.02
358.248	329.55
358.464	169.81
358.679	-94.38
358.895	-356.52
359.11	-30.89
359.325	270.16
359.541	91.99
359.756	20.31
359.972	-217.26
360.187	186.19
360.402	-153.77
360.618	-153.77
360.833	1056.58
361.048	214.87
361.264	-200.87
361.479	-67.75
361.694	-30.89
361.909	233.3
362.125	-166.06
362.34	-149.67
362.555	227.15
362.77	124.76
362.986	-293.03
363.201	-141.48
363.416	216.91
363.631	30.55
363.847	-215.21
364.062	-223.4
364.277	208.72
364.492	135
364.707	-178.34
364.922	-342.18
365.138	282.45
365.353	378.7
365.568	-272.55
365.783	-153.77
365.998	34.64
366.213	509.77
366.428	-252.07
366.643	26.45
366.858	231.25
367.073	206.67
367.288	-137.38
367.503	-323.75
367.718	85.84
367.933	317.26
368.148	-260.26
368.363	-151.72
368.578	-37.03
368.793	386.9
369.008	-118.95
369.223	-196.78
369.438	253.78
369.653	372.56
369.868	-254.12
370.083	-190.63
370.298	159.57
370.513	366.42
370.728	57.17
370.943	-219.3
371.157	-219.3
371.372	606.03
371.587	-319.65
371.802	-307.37
372.017	57.17
372.232	454.48
372.446	-98.47
372.661	-225.45
372.876	210.77
373.091	167.76
373.306	-88.23
373.52	-223.4
373.735	-92.33
373.95	380.75
374.165	-96.43
374.379	-133.29
374.594	-157.86
374.809	145.24
375.023	75.6
375.238	-284.84
375.453	266.07
375.667	-254.12
375.882	-133.29
376.097	-225.45
376.311	20.31
376.526	20.31
376.741	-190.63
376.955	85.84
377.17	569.16
377.384	560.97
377.599	-53.42
377.813	-293.03
378.028	546.64
378.242	151.38
378.457	-71.85
378.672	-352.42
378.886	59.22
379.101	1.88
379.315	-293.03
379.53	-198.82
379.744	167.76
379.958	190.29
380.173	-225.45
380.387	-145.58
380.602	157.52
380.816	-110.76
381.031	-225.45
381.245	-110.76
381.459	124.76
381.674	925.51
381.888	-252.07
382.103	53.08
382.317	-153.77
382.531	466.77
382.746	-98.47
382.96	-178.34
383.174	-112.81
383.388	368.46
383.603	53.08
383.817	-252.07
384.031	223.06
384.246	450.38
384.46	-47.27
384.674	280.4
384.888	10.07
385.103	182.1
385.317	-252.07
385.531	-47.27
385.745	380.75
385.959	345.94
386.174	-211.11
386.388	-274.6
386.602	-24.75
386.816	-151.72
387.03	-141.48
387.244	-174.25
387.458	96.08
387.672	390.99
387.887	-346.28
388.101	-243.88
388.315	417.61
388.529	110.42
388.743	-223.4
388.957	-260.26
389.171	382.8
389.385	-194.73
389.599	-108.71
389.813	51.03
390.027	186.19
390.241	661.32
390.455	-82.09
390.669	-133.29
390.883	-96.43
391.097	354.13
391.311	38.74
391.525	-198.82
391.738	163.67
391.952	96.08
392.166	-77.99
392.38	-200.87
392.594	253.78
392.808	270.16
393.022	-75.95
393.236	-96.43
393.449	192.34
393.663	208.72
393.877	-278.69
394.091	-155.82
394.305	-57.51
394.518	-116.9
394.732	-325.8
394.946	-94.38
395.16	448.33
395.373	63.32
395.587	-227.5
395.801	-219.3
396.015	321.36
396.228	237.39
396.442	-256.17
396.656	-293.03
396.869	405.33
397.083	462.67
397.297	-86.19
397.51	-174.25
397.724	323.41
397.938	118.61
398.151	-305.32
398.365	-307.37
398.578	290.64
398.792	388.94
399.005	-67.75
399.219	-63.66
399.433	71.51
399.646	161.62
399.86	53.08
400.073	65.36
400.287	307.02
400.5	108.37
400.714	-75.95
400.927	-84.14
401.141	214.87
401.354	1115.97
401.567	178
401.781	-282.79
401.994	264.02
402.208	522.06
402.421	-149.67
402.635	-125.1
402.848	3.93
403.061	272.21
403.275	-6.31
403.488	-184.49
403.701	421.71
403.915	167.76
404.128	75.6
404.341	-161.96
404.555	218.96
404.768	26.45
404.981	28.5
405.195	-262.31
405.408	399.18
405.621	216.91
405.834	34.64
406.048	-149.67
406.261	460.62
406.474	456.53
406.687	-217.26
406.9	-71.85
407.114	94.04
407.327	149.33
407.54	-313.51
407.753	-307.37
407.966	-92.33
408.179	268.11
408.392	-227.5
408.605	-315.56
408.819	165.71
409.032	108.37
409.245	-190.63
409.458	42.84
409.671	216.91
409.884	288.59
410.097	-237.74
410.31	-14.51
410.523	266.07
410.736	-22.7
410.949	-77.99
411.162	-145.58
411.375	511.82
411.588	411.47
411.801	1.88
412.014	-250.02
412.227	42.84
412.44	22.36
412.653	-94.38
412.865	18.26
413.078	294.74
413.291	223.06
413.504	-110.76
413.717	-190.63
413.93	272.21
414.143	-188.58
414.356	-114.86
414.568	-307.37
414.781	274.26
414.994	124.76
415.207	-55.47
415.42	-143.53
415.632	264.02
415.845	401.23
416.058	-245.93
416.271	-143.53
416.483	55.12
416.696	477.01
416.909	-209.06
417.121	-252.07
417.334	143.19
417.547	542.54
417.759	-305.32
417.972	-233.64
418.185	-67.75
418.397	280.4
418.61	-196.78
418.823	-186.54
419.035	423.76
419.248	24.4
419.46	-18.6
419.673	1.88
419.885	143.19
420.098	-10.41
420.311	-145.58
420.523	-317.61
420.736	259.92
420.948	51.03
421.161	-200.87
421.373	-370.85
421.586	81.75
421.798	-59.56
422.01	-268.45
422.223	-51.37
422.435	30.55
422.648	180.05
422.86	-137.38
423.073	-176.3
423.285	259.92
423.497	-241.83
423.71	-198.82
423.922	-153.77
424.134	96.08
424.347	309.07
424.559	96.08
424.771	16.21
424.984	-61.61
425.196	198.48
425.408	-430.24
425.621	-346.28
425.833	319.31
426.045	356.18
426.257	-313.51
426.47	-125.1
426.682	132.95
426.894	192.34
427.106	-213.16
427.318	-147.62
427.531	-71.85
427.743	259.92
427.955	-213.16
428.167	161.62
428.379	147.28
428.591	73.56
428.804	-135.34
429.016	-176.3
429.228	-18.6
429.44	178
429.652	30.55
429.864	-239.78
430.076	-12.46
430.288	-49.32
430.5	-100.52
430.712	-55.47
430.924	298.83
431.136	96.08
431.348	-293.03
431.56	-247.97
431.772	48.98
431.984	51.03
432.196	-260.26
432.408	-174.25
432.62	34.64
432.832	132.95
433.044	87.89
433.256	-55.47
433.468	241.49
433.679	-188.58
433.891	-260.26
434.103	20.31
434.315	374.61
434.527	182.1
434.739	-88.23
434.95	-157.86
435.162	266.07
435.374	-32.94
435.586	-104.62
435.798	-166.06
436.009	-184.49
436.221	-73.9
436.433	-286.89
436.645	-77.99
436.856	-100.52
437.068	347.98
437.28	-198.82
437.491	118.61
437.703	214.87
437.915	114.52
438.126	-178.34
438.338	26.45
438.55	59.22
438.761	241.49
438.973	-151.72
439.184	-217.26
439.396	-51.37
439.608	292.69
439.819	-272.55
440.031	-67.75
440.242	231.25
440.454	233.3
440.665	-84.14
440.877	-73.9
441.088	114.52
441.3	-28.84
441.511	-333.99
441.723	-188.58
441.934	161.62
442.146	116.56
442.357	32.6
442.569	75.6
442.78	5.97
442.991	374.61
443.203	87.89
443.414	-270.5
443.626	290.64
443.837	-161.96
444.048	-204.97
444.26	-325.8
444.471	110.42
444.682	259.92
444.894	-305.32
445.105	-274.6
445.316	378.7
445.528	139.09
445.739	-63.66
445.95	-133.29
446.161	202.58
446.373	405.33
446.584	-207.02
446.795	-178.34
447.006	259.92
447.217	436.05
447.429	-303.27
447.64	-274.6
447.851	413.52
448.062	102.23
448.273	-319.65
448.484	-297.13
448.695	264.02
448.907	36.69
449.118	-86.19
449.329	-6.31
449.54	-82.09
449.751	-110.76
449.962	-170.15
450.173	-170.15
450.384	304.98
450.595	395.09
450.806	-198.82
451.017	-131.24
451.228	354.13
451.439	241.49
451.65	-227.5
451.861	-415.91
452.072	-153.77
452.283	83.8
452.494	71.51
452.705	-297.13
452.915	415.57
453.126	190.29
453.337	-159.91
453.548	-180.39
453.759	182.1
453.97	489.29
454.181	-32.94
454.391	-157.86
454.602	163.67
454.813	227.15
455.024	-145.58
455.235	-182.44
455.445	120.66
455.656	257.87
455.867	-57.51
456.078	-219.3
456.288	18.26
456.499	194.39
456.71	-256.17
456.921	69.46
457.131	128.85
457.342	132.95
457.553	-55.47
457.763	-233.64
457.974	227.15
458.184	266.07
458.395	-280.74
458.606	-188.58
458.816	272.21
459.027	466.77
459.237	-34.99
459.448	-389.28
459.659	423.76
459.869	608.08
460.08	-350.37
460.29	-59.56
460.501	450.38
460.711	-96.43
460.922	-266.41
461.132	-196.78
461.343	673.61
461.553	-227.5
461.764	-233.64
461.974	-178.34
462.184	237.39
462.395	102.23
462.605	-90.28
462.816	-260.26
463.026	34.64
463.236	372.56
463.447	-256.17
463.657	-143.53
463.867	247.63
464.078	26.45
464.288	-92.33
464.498	-350.37
464.709	102.23
464.919	91.99
465.129	-151.72
465.339	-209.06
465.55	173.91
465.76	249.68
465.97	-190.63
466.18	-254.12
466.391	350.03
466.601	157.52
466.811	-170.15
467.021	-260.26
467.231	67.41
467.441	280.4
467.651	-125.1
467.862	-456.87
468.072	51.03
468.282	341.84
468.492	-219.3
468.702	-180.39
468.912	34.64
469.122	612.17
469.332	102.23
469.542	-270.5
469.752	255.83
469.962	63.32
470.172	-293.03
470.382	-211.11
470.592	255.83
470.802	272.21
471.012	-118.95
471.222	-202.92
471.432	329.55
471.642	225.11
471.852	-145.58
472.062	-252.07
472.272	-88.23
472.482	-213.16
472.691	-395.43
472.901	-258.21
473.111	77.65
473.321	587.6
473.531	-366.76
473.741	-166.06
473.95	178
474.16	210.77
474.37	-166.06
474.58	-266.41
474.79	515.92
474.999	237.39
475.209	-219.3
475.419	-145.58
475.628	-59.56
475.838	372.56
476.048	-125.1
476.258	-266.41
476.467	266.07
476.677	-100.52
476.886	1.88
477.096	-147.62
477.306	-121
477.515	374.61
477.725	-184.49
477.935	-157.86
478.144	393.04
478.354	-6.31
478.563	-207.02
478.773	-184.49
478.982	309.07
479.192	386.9
479.401	-71.85
479.611	-301.22
479.82	-61.61
480.03	169.81
480.239	-284.84
480.449	-399.52
480.658	440.14
480.868	-108.71
481.077	-108.71
481.287	-239.78
481.496	184.15
481.705	390.99
481.915	26.45
482.124	-34.99
482.333	91.99
482.543	296.78
482.752	-168.1
482.961	-243.88
483.171	247.63
483.38	53.08
483.589	-137.38
483.799	-250.02
484.008	-2.22
484.217	366.42
484.426	-239.78
484.636	-288.93
484.845	114.52
485.054	-239.78
485.263	16.21
485.472	-233.64
485.682	485.2
485.891	126.8
486.1	-354.47
486.309	-233.64
486.518	204.63
486.727	350.03
486.936	-280.74
487.146	-98.47
487.355	307.02
487.564	-213.16
487.773	-315.56
487.982	-250.02
488.191	-71.85
488.4	59.22
488.609	-254.12
488.818	-211.11
489.027	659.28
489.236	390.99
489.445	-176.3
489.654	-190.63
489.863	327.5
490.072	149.33
490.281	48.98
490.49	-198.82
490.698	497.49
490.907	448.33
491.116	-209.06
491.325	-342.18
491.534	374.61
491.743	100.18
491.952	-149.67
492.16	-168.1
492.369	165.71
492.578	259.92
492.787	-153.77
492.996	-385.19
493.204	-34.99
493.413	409.42
493.622	-407.72
493.831	-319.65
494.039	434
494.248	-84.14
494.457	-221.35
494.665	-331.94
494.874	200.53
495.083	542.54
495.291	-141.48
495.5	-278.69
495.709	276.31
495.917	104.28
496.126	-129.19
496.335	-295.08
496.543	-47.27
496.752	202.58
496.96	-14.51
497.169	-366.76
497.377	67.41
497.586	286.54
497.794	-102.57
498.003	-274.6
498.211	-55.47
498.42	421.71
498.628	-192.68
498.837	-258.21
499.045	171.86
499.254	135
499.462	-239.78
499.671	-288.93
499.879	472.91
500.087	227.15
500.296	-194.73
500.504	-227.5
500.713	186.19
500.921	554.83
501.129	-209.06
501.338	-100.52
501.546	186.19
501.754	124.76
501.962	-217.26
502.171	-307.37
502.379	124.76
502.587	493.39
502.795	-247.97
503.004	-266.41
503.212	34.64
503.42	190.29
503.628	-276.65
503.837	-170.15
504.045	282.45
504.253	429.9
504.461	-207.02
504.669	-370.85
504.877	141.14
505.085	388.94
505.294	-319.65
505.502	-45.23
505.71	67.41
505.918	253.78
506.126	-227.5
506.334	-258.21
506.542	16.21
506.75	186.19
506.958	-260.26
507.166	-182.44
507.374	-63.66
507.582	448.33
507.79	-110.76
507.998	-315.56
508.206	118.61
508.414	163.67
508.622	-215.21
508.83	-186.54
509.037	515.92
509.245	-6.31
509.453	-239.78
509.661	-295.08
509.869	255.83
510.077	-30.89
510.285	-133.29
510.492	-348.33
510.7	575.31
510.908	-14.51
511.116	-217.26
511.324	-254.12
511.531	-8.36
511.739	122.71
511.947	-129.19
512.155	46.93
512.362	91.99
512.57	-131.24
512.778	-200.87
512.985	-463.01
513.193	307.02
513.401	413.52
513.608	-239.78
513.816	-219.3
514.024	280.4
514.231	436.05
514.439	-219.3
514.646	-133.29
514.854	231.25
515.061	292.69
515.269	-297.13
515.477	-166.06
515.684	-153.77
515.892	300.88
516.099	-456.87
516.307	-383.14
516.514	202.58
516.722	407.38
516.929	-239.78
517.136	-395.43
517.344	366.42
517.551	96.08
517.759	-258.21
517.966	-266.41
518.173	-2.22
518.381	85.84
518.588	-219.3
518.796	-247.97
519.003	239.44
519.21	8.02
519.418	-239.78
519.625	75.6
519.832	12.12
520.039	128.85
520.247	-340.13
520.454	-315.56
520.661	241.49
520.868	165.71
521.076	-213.16
521.283	-211.11
521.49	681.8
521.697	157.52
521.904	-147.62
522.112	-288.93
522.319	255.83
522.526	141.14
522.733	-331.94
522.94	-250.02
523.147	53.08
523.354	239.44
523.561	-432.29
523.768	-116.9
523.975	302.93
524.183	147.28
524.39	-127.14
524.597	-360.61
524.804	42.84
525.011	-67.75
525.218	-272.55
525.425	-288.93
525.632	407.38
525.838	-98.47
526.045	-235.69
526.252	-331.94
526.459	1040.2
526.666	855.88
526.873	-325.8
527.08	-217.26
527.287	397.14
527.494	198.48
527.701	-290.98
527.907	-288.93
528.114	126.8
528.321	-14.51
528.528	-211.11
528.735	-254.12
528.941	-6.31
529.148	-26.79
529.355	-96.43
529.562	-137.38
529.768	323.41
529.975	79.7
530.182	-207.02
530.388	-243.88
530.595	274.26
530.802	-116.9
531.008	-125.1
531.215	-202.92
531.422	431.95
531.628	614.22
531.835	-168.1
532.042	-231.59
532.248	-61.61
532.455	16.21
532.661	-145.58
532.868	-245.93
533.074	79.7
533.281	319.31
533.487	-145.58
533.694	-350.37
533.9	-157.86
534.107	194.39
534.313	-348.33
534.52	-333.99
534.726	366.42
534.933	450.38
535.139	-307.37
535.345	-342.18
535.552	87.89
535.758	46.93
535.965	-207.02
536.171	-299.17
536.377	231.25
536.584	431.95
536.79	-280.74
536.996	-157.86
537.203	67.41
537.409	200.53
537.615	-198.82
537.821	-129.19
538.028	223.06
538.234	233.3
538.44	-231.59
538.646	-184.49
538.853	245.59
539.059	-67.75
539.265	132.95
539.471	-456.87
539.677	227.15
539.883	-59.56
540.09	-221.35
540.296	155.47
540.502	-26.79
540.708	-61.61
540.914	-55.47
541.12	-219.3
541.326	157.52
541.532	30.55
541.738	-231.59
541.944	-186.54
542.15	255.83
542.356	16.21
542.562	-362.66
542.768	-161.96
542.974	640.84
543.18	419.66
543.386	-225.45
543.592	-387.24
543.798	464.72
544.004	329.55
544.21	-272.55
544.415	-133.29
544.621	42.84
544.827	204.63
545.033	-370.85
545.239	-10.41
545.445	-202.92
545.651	96.08
545.856	-204.97
546.062	-321.7
546.268	-133.29
546.474	75.6
546.679	-225.45
546.885	-147.62
547.091	-116.9
547.297	456.53
547.502	-170.15
547.708	-385.19
547.914	-174.25
548.119	173.91
548.325	-290.98
548.531	-303.27
548.736	323.41
548.942	-88.23
549.147	-319.65
549.353	-49.32
549.559	347.98
549.764	141.14
549.97	-213.16
550.175	-223.4
550.381	198.48
550.586	1.88
550.792	-231.59
550.997	-198.82
551.203	190.29
551.408	180.05
551.614	-321.7
551.819	-245.93
552.025	462.67
552.23	438.09
552.435	-333.99
552.641	-100.52
552.846	-100.52
553.052	280.4
553.257	-55.47
553.462	-225.45
553.668	-223.4
553.873	315.22
554.078	-323.75
554.283	-262.31
554.489	75.6
554.694	110.42
554.899	-329.89
555.105	-47.27
555.31	237.39
555.515	218.96
555.72	-178.34
555.925	-297.13
556.131	223.06
556.336	-143.53
556.541	-276.65
556.746	-313.51
556.951	317.26
557.156	341.84
557.361	-59.56
557.567	-84.14
557.772	569.16
557.977	290.64
558.182	-174.25
558.387	-223.4
558.592	22.36
558.797	347.98
559.002	-155.82
559.207	-129.19
559.412	5.97
559.617	542.54
559.822	-262.31
560.027	-280.74
560.232	100.18
560.437	288.59
560.642	-395.43
560.847	-252.07
561.051	75.6
561.256	153.43
561.461	-168.1
561.666	-420
561.871	153.43
562.076	233.3
562.281	-168.1
562.485	-323.75
562.69	221.01
562.895	239.44
563.1	-170.15
563.305	-356.52
563.509	343.89
563.714	550.73
563.919	-256.17
564.123	-301.22
564.328	-37.03
564.533	337.74
564.737	-172.2
564.942	-276.65
565.147	337.74
565.351	532.3
565.556	-143.53
565.761	-145.58
565.965	124.76
566.17	-143.53
566.374	-116.9
566.579	-331.94
566.784	-10.41
566.988	5.97
567.193	-350.37
567.397	-301.22
567.602	-239.78
567.806	40.79
568.011	-250.02
568.215	-86.19
568.42	120.66
568.624	-8.36
568.828	-239.78
569.033	-18.6
569.237	221.01
569.442	221.01
569.646	-333.99
569.85	-192.68
570.055	10.07
570.259	59.22
570.463	-20.65
570.668	-295.08
570.872	-84.14
571.076	-16.55
571.281	-94.38
571.485	-102.57
571.689	57.17
571.893	292.69
572.098	-88.23
572.302	-247.97
572.506	175.95
572.71	26.45
572.914	-157.86
573.119	-139.43
573.323	384.85
573.527	333.65
573.731	-258.21
573.935	-346.28
574.139	143.19
574.343	-129.19
574.547	-295.08
574.751	-280.74
574.955	421.71
575.159	362.32
575.364	-288.93
575.568	-323.75
575.772	-12.46
575.976	358.22
576.18	-338.09
576.383	-428.2
576.587	276.31
576.791	335.7
576.995	-391.33
577.199	-399.52
577.403	218.96
577.607	294.74
577.811	-331.94
578.015	-159.91
578.219	165.71
578.422	304.98
578.626	-215.21
578.83	-41.13
579.034	321.36
579.238	98.13
579.442	-231.59
579.645	79.7
579.849	112.47
580.053	14.17
580.257	-247.97
580.46	-104.62
580.664	163.67
580.868	229.2
581.071	-14.51
581.275	-141.48
581.479	-301.22
581.682	182.1
581.886	-237.74
582.09	-108.71
582.293	247.63
582.497	190.29
582.7	-6.31
582.904	-338.09
583.107	77.65
583.311	-57.51
583.515	-215.21
583.718	-149.67
583.922	212.82
584.125	446.29
584.329	-290.98
584.532	-100.52
584.735	403.28
584.939	141.14
585.142	-329.89
585.346	-303.27
585.549	175.95
585.753	-71.85
585.956	-204.97
586.159	-133.29
586.363	448.33
586.566	137.04
586.769	-227.5
586.973	-194.73
587.176	206.67
587.379	376.66
587.582	112.47
587.786	-61.61
587.989	22.36
588.192	685.9
588.395	-223.4
588.599	65.36
588.802	147.28
589.005	259.92
589.208	-178.34
589.411	-151.72
589.615	239.44
589.818	415.57
590.021	-51.37
590.224	-149.67
590.427	282.45
590.63	206.67
590.833	-446.63
591.036	-266.41
591.239	-14.51
591.442	-71.85
591.645	-18.6
591.848	-194.73
592.051	161.62
592.254	261.97
592.457	-215.21
592.66	-114.86
592.863	73.56
593.066	194.39
593.269	-194.73
593.472	-153.77
593.675	-137.38
593.878	274.26
594.081	-133.29
594.284	-256.17
594.486	186.19
594.689	61.27
594.892	-80.04
595.095	-245.93
595.298	110.42
595.5	10.07
595.703	-108.71
595.906	-129.19
596.109	372.56
596.311	298.83
596.514	-424.1
596.717	-166.06
596.92	313.17
597.122	235.35
597.325	-413.86
597.528	-198.82
597.73	358.22
597.933	10.07
598.136	-297.13
598.338	-501.92
598.541	182.1
598.743	307.02
598.946	-168.1
599.148	-227.5
599.351	323.41
599.554	298.83
599.756	-104.62
599.959	-161.96
600.161	241.49
600.363	677.71
600.566	-14.51
600.768	-227.5
600.971	517.97
601.173	296.78
601.376	-276.65
601.578	-178.34
601.78	128.85
601.983	649.04
602.185	-317.61
602.388	-137.38
602.59	198.48
602.792	-45.23
602.995	40.79
603.197	-284.84
603.399	264.02
603.601	149.33
603.804	-159.91
604.006	-174.25
604.208	65.36
604.41	-342.18
604.613	-6.31
604.815	-229.54
605.017	548.68
605.219	-80.04
605.421	178
605.623	-166.06
605.826	364.37
606.028	384.85
606.23	-172.2
606.432	-252.07
606.634	434
606.836	487.25
607.038	-252.07
607.24	-51.37
607.442	155.47
607.644	102.23
607.846	-0.17
608.048	-270.5
608.25	405.33
608.452	-88.23
608.654	-202.92
608.856	-377
609.058	-26.79
609.26	184.15
609.462	-116.9
609.664	-114.86
609.866	563.02
610.067	325.46
610.269	-22.7
610.471	-139.43
610.673	12.12
610.875	309.07
611.077	-262.31
611.278	-18.6
611.48	128.85
611.682	501.58
611.884	-112.81
612.085	-102.57
612.287	-114.86
612.489	173.91
612.69	-293.03
612.892	-90.28
613.094	298.83
613.295	206.67
613.497	-342.18
613.699	-196.78
613.9	477.01
614.102	356.18
614.304	-161.96
614.505	-313.51
614.707	104.28
614.908	67.41
615.11	-297.13
615.311	-121
615.513	321.36
615.714	286.54
615.916	-299.17
616.117	-145.58
616.319	104.28
616.52	264.02
616.722	-213.16
616.923	-182.44
617.124	333.65
617.326	290.64
617.527	-104.62
617.729	51.03
617.93	251.73
618.131	188.24
618.333	-88.23
618.534	-133.29
618.735	-82.09
618.937	378.7
619.138	-325.8
619.339	-215.21
619.54	169.81
619.742	18.26
619.943	24.4
620.144	-153.77
620.345	225.11
620.546	352.08
620.748	-184.49
620.949	-170.15
621.15	112.47
621.351	161.62
621.552	-137.38
621.753	-303.27
621.954	-252.07
622.155	462.67
622.356	-215.21
622.558	65.36
622.759	135
622.96	468.81
623.161	-194.73
623.362	-155.82
623.563	57.17
623.764	171.86
623.965	-157.86
624.166	-71.85
624.366	110.42
624.567	141.14
624.768	-473.25
624.969	-178.34
625.17	118.61
625.371	225.11
625.572	-125.1
625.773	-221.35
625.973	319.31
626.174	190.29
626.375	-82.09
626.576	-57.51
626.777	251.73
626.977	587.6
627.178	-188.58
627.379	-98.47
627.58	-32.94
627.78	157.52
627.981	-80.04
628.182	-24.75
628.382	401.23
628.583	-217.26
628.784	-288.93
628.984	-16.55
629.185	311.12
629.386	268.11
629.586	-145.58
629.787	-188.58
629.987	190.29
630.188	-14.51
630.388	-96.43
630.589	-84.14
630.79	644.94
630.99	145.24
631.191	-84.14
631.391	-129.19
631.591	282.45
631.792	503.63
631.992	-8.36
632.193	-137.38
632.393	489.29
632.594	128.85
632.794	-182.44
632.994	-34.99
633.195	79.7
633.395	157.52
633.595	-131.24
633.796	36.69
633.996	-67.75
634.196	425.81
634.397	-301.22
634.597	-94.38
634.797	-47.27
634.997	456.53
635.198	1.88
635.398	-213.16
635.598	161.62
635.798	436.05
635.998	335.7
636.199	-237.74
636.399	14.17
636.599	-166.06
636.799	-116.9
636.999	167.76
637.199	216.91
637.399	374.61
637.599	-192.68
637.799	1.88
637.999	63.32
638.199	468.81
638.399	-176.3
638.599	-233.64
638.799	272.21
638.999	477.01
639.199	-88.23
639.399	-133.29
639.599	419.66
639.799	-61.61
639.999	-258.21
640.199	-276.65
640.399	218.96
640.599	274.26
640.799	-63.66
640.998	83.8
641.198	417.61
641.398	241.49
641.598	-92.33
641.798	-121
641.997	1032.01
642.197	145.24
642.397	-137.38
642.597	-30.89
642.796	192.34
642.996	395.09
643.196	20.31
643.395	-133.29
643.595	233.3
643.795	-262.31
643.994	-104.62
644.194	-32.94
644.394	329.55
644.593	268.11
644.793	-379.04
644.992	5.97
645.192	233.3
645.392	-252.07
645.591	-20.65
645.791	-84.14
645.99	175.95
646.19	161.62
646.389	-100.52
646.589	-96.43
646.788	268.11
646.987	249.68
647.187	71.51
647.386	63.32
647.586	208.72
647.785	259.92
647.984	-80.04
648.184	-30.89
648.383	-41.13
648.582	61.27
648.782	-39.08
648.981	3.93
649.18	1.88
649.38	239.44
649.579	-137.38
649.778	-170.15
649.977	292.69
650.177	206.67
650.376	-168.1
650.575	-157.86
650.774	513.87
650.973	-22.7
651.173	-227.5
651.372	8.02
651.571	137.04
651.77	335.7
651.969	-129.19
652.168	-22.7
652.367	-104.62
652.566	159.57
652.765	-104.62
652.964	79.7
653.163	536.4
653.362	28.5
653.561	-139.43
653.76	-77.99
653.959	83.8
654.158	210.77
654.357	100.18
654.556	-47.27
654.755	339.79
654.954	390.99
655.153	-141.48
655.352	-98.47
655.551	477.01
655.749	-55.47
655.948	-6.31
656.147	44.88
656.346	235.35
656.545	128.85
656.743	30.55
656.942	-28.84
657.141	122.71
657.34	-63.66
657.538	-71.85
657.737	-90.28
657.936	-53.42
658.135	272.21
658.333	-139.43
658.532	-34.99
658.731	558.92
658.929	345.94
659.128	135
659.326	-137.38
659.525	429.9
659.724	151.38
659.922	-348.33
660.121	-174.25
660.319	239.44
660.518	-26.79
660.716	-133.29
660.915	-149.67
661.113	427.85
661.312	-75.95
661.51	5.97
661.709	-112.81
661.907	321.36
662.105	532.3
662.304	-143.53
662.502	-94.38
662.701	444.24
662.899	42.84
663.097	237.39
663.296	-311.46
663.494	315.22
663.692	501.58
663.891	-129.19
664.089	-184.49
664.287	241.49
664.485	485.2
664.684	-155.82
664.882	46.93
665.08	110.42
665.278	163.67
665.476	-180.39
665.675	210.77
665.873	554.83
666.071	477.01
666.269	-75.95
666.467	216.91
666.665	208.72
666.863	63.32
667.061	26.45
667.259	-61.61
667.457	173.91
667.655	290.64
667.853	-98.47
668.051	1.88
668.249	-37.03
668.447	253.78
668.645	-110.76
668.843	32.6
669.041	313.17
669.239	104.28
669.437	8.02
669.635	67.41
669.833	36.69
670.031	354.13
670.229	-53.42
670.426	-28.84
670.624	89.94
670.822	-24.75
671.02	-63.66
671.218	-75.95
671.415	-45.23
671.613	214.87
671.811	22.36
672.009	20.31
672.206	374.61
672.404	288.59
672.602	198.48
672.799	59.22
672.997	264.02
673.195	421.71
673.392	40.79
673.59	-196.78
673.788	352.08
673.985	-360.61
674.183	67.41
674.38	-39.08
674.578	380.75
674.775	-20.65
674.973	-194.73
675.17	-98.47
675.368	532.3
675.565	243.54
675.763	-80.04
675.96	-112.81
676.158	446.29
676.355	130.9
676.553	-129.19
676.75	-102.57
676.947	202.58
677.145	65.36
677.342	87.89
677.539	38.74
677.737	157.52
677.934	706.38
678.131	126.8
678.329	-127.14
678.526	601.93
678.723	376.66
678.92	65.36
679.118	-6.31
679.315	-118.95
679.512	524.11
679.709	-8.36
679.906	14.17
680.104	403.28
680.301	202.58
680.498	-108.71
680.695	-149.67
680.892	-59.56
681.089	63.32
681.286	151.38
681.483	-137.38
681.68	343.89
681.877	405.33
682.075	-84.14
682.272	159.57
682.469	251.73
682.665	108.37
682.862	-184.49
683.059	-157.86
683.256	270.16
683.453	135
683.65	38.74
683.847	38.74
684.044	175.95
684.241	-55.47
684.438	38.74
684.635	-137.38
684.831	683.85
685.028	618.32
685.225	-53.42
685.422	59.22
685.619	208.72
685.815	296.78
686.012	10.07
686.209	-12.46
686.405	-20.65
686.602	497.49
686.799	-200.87
686.996	-98.47
687.192	-2.22
687.389	677.71
687.586	-147.62
687.782	30.55
687.979	540.49
688.175	460.62
688.372	71.51
688.568	-34.99
688.765	102.23
688.962	567.12
689.158	59.22
689.355	-215.21
689.551	354.13
689.748	-18.6
689.944	42.84
690.14	-204.97
690.337	431.95
690.533	63.32
690.73	112.47
690.926	63.32
691.123	337.74
691.319	153.43
691.515	-204.97
691.712	51.03
691.908	337.74
692.104	233.3
692.301	175.95
692.497	-192.68
692.693	356.18
692.889	419.66
693.086	85.84
693.282	-170.15
693.478	153.43
693.674	620.36
693.87	128.85
694.067	-252.07
694.263	276.31
694.459	169.81
694.655	55.12
694.851	132.95
695.047	382.8
695.243	313.17
695.439	206.67
695.635	-149.67
695.831	323.41
696.027	329.55
696.224	12.12
696.42	321.36
696.615	677.71
696.811	341.84
697.007	-110.76
697.203	-18.6
697.399	321.36
697.595	499.53
697.791	-47.27
697.987	104.28
698.183	-43.18
698.379	20.31
698.575	28.5
698.77	75.6
698.966	448.33
699.162	530.25
699.358	51.03
699.554	-16.55
699.749	345.94
699.945	442.19
700.141	145.24
700.337	89.94
700.532	178
700.728	34.64
700.924	-12.46
701.119	-135.34
701.315	307.02
701.511	239.44
701.706	65.36
701.902	-84.14
702.097	210.77
702.293	366.42
702.489	110.42
702.684	14.17
702.88	227.15
703.075	278.35
703.271	81.75
703.466	-149.67
703.662	186.19
703.857	376.66
704.053	-135.34
704.248	1.88
704.443	372.56
704.639	380.75
704.834	96.08
705.03	20.31
705.225	411.47
705.42	468.81
705.616	223.06
705.811	-67.75
706.006	188.24
706.202	143.19
706.397	155.47
706.592	-8.36
706.787	331.6
706.983	167.76
707.178	300.88
707.373	32.6
707.568	335.7
707.763	464.72
707.959	-2.22
708.154	-39.08
708.349	325.46
708.544	339.79
708.739	231.25
708.934	-102.57
709.129	419.66
709.324	528.21
709.519	-73.9
709.714	-43.18
709.909	479.05
710.104	266.07
710.299	-0.17
710.494	135
710.689	401.23
710.884	216.91
711.079	79.7
711.274	235.35
711.469	204.63
711.664	337.74
711.859	-77.99
712.054	153.43
712.249	407.38
712.443	567.12
712.638	-41.13
712.833	-43.18
713.028	210.77
713.223	290.64
713.417	202.58
713.612	-26.79
713.807	481.1
714.002	888.65
714.196	214.87
714.391	53.08
714.586	462.67
714.78	200.53
714.975	18.26
715.17	8.02
715.364	171.86
715.559	438.09
715.754	-217.26
715.948	48.98
716.143	655.18
716.337	358.22
716.532	298.83
716.726	-22.7
716.921	401.23
717.115	679.75
717.31	-59.56
717.504	479.05
717.699	194.39
717.893	573.26
718.088	-24.75
718.282	-90.28
718.476	315.22
718.671	325.46
718.865	12.12
719.059	10.07
719.254	241.49
719.448	554.83
719.642	1335.1
719.837	-143.53
720.031	448.33
720.225	730.95
720.419	186.19
720.614	1.88
720.808	438.09
721.002	190.29
721.196	-92.33
721.39	26.45
721.585	622.41
721.779	376.66
721.973	116.56
722.167	-80.04
722.361	319.31
722.555	524.11
722.749	34.64
722.943	30.55
723.137	30.55
723.331	380.75
723.525	26.45
723.719	28.5
723.913	368.46
724.107	653.13
724.301	-12.46
724.495	110.42
724.689	669.52
724.883	640.84
725.077	-22.7
725.271	81.75
725.465	571.21
725.659	341.84
725.853	188.24
726.046	-63.66
726.24	130.9
726.434	552.78
726.628	-41.13
726.822	139.09
727.015	563.02
727.209	583.5
727.403	61.27
727.596	-98.47
727.79	558.92
727.984	542.54
728.177	57.17
728.371	186.19
728.565	493.39
728.758	1.88
728.952	-4.27
729.146	114.52
729.339	517.97
729.533	231.25
729.726	149.33
729.92	-82.09
730.113	577.36
730.307	376.66
730.5	20.31
730.694	-14.51
730.887	282.45
731.081	397.14
731.274	20.31
731.468	126.8
731.661	319.31
731.854	259.92
732.048	91.99
732.241	36.69
732.435	116.56
732.628	421.71
732.821	10.07
733.014	-2.22
733.208	36.69
733.401	413.52
733.594	63.32
733.788	120.66
733.981	632.65
734.174	386.9
734.367	24.4
734.56	204.63
734.754	546.64
734.947	253.78
735.14	-14.51
735.333	124.76
735.526	407.38
735.719	169.81
735.912	-67.75
736.105	65.36
736.298	364.37
736.491	214.87
736.684	12.12
736.877	71.51
737.07	390.99
737.263	632.65
737.456	44.88
737.649	-22.7
737.842	182.1
738.035	323.41
738.228	114.52
738.421	243.54
738.614	575.31
738.807	565.07
739	-80.04
739.192	-39.08
739.385	466.77
739.578	554.83
739.771	341.84
739.964	91.99
740.156	440.14
740.349	261.97
740.542	251.73
740.735	-57.51
740.927	-12.46
741.12	112.47
741.313	-20.65
741.505	235.35
741.698	431.95
741.891	444.24
742.083	296.78
742.276	153.43
742.468	315.22
742.661	272.21
742.854	143.19
743.046	61.27
743.239	708.43
743.431	327.5
743.624	98.13
743.816	-10.41
744.009	292.69
744.201	497.49
744.393	255.83
744.586	-43.18
744.778	616.27
744.971	319.31
745.163	114.52
745.355	112.47
745.548	374.61
745.74	239.44
745.932	145.24
746.125	14.17
746.317	825.16
746.509	356.18
746.702	20.31
746.894	200.53
747.086	380.75
747.278	577.36
747.471	294.74
747.663	210.77
747.855	300.88
748.047	677.71
748.239	85.84
748.431	63.32
748.623	663.37
748.815	677.71
749.008	-0.17
749.2	28.5
749.392	472.91
749.584	411.47
749.776	96.08
749.968	184.15
750.16	733
750.352	339.79
750.544	175.95
750.736	20.31
750.928	413.52
751.12	296.78
751.311	182.1
751.503	128.85
751.695	356.18
751.887	321.36
752.079	-96.43
752.271	53.08
752.463	1132.36
752.654	558.92
752.846	132.95
753.038	69.46
753.23	227.15
753.421	565.07
753.613	145.24
753.805	292.69
753.997	665.42
754.188	567.12
754.38	85.84
754.572	159.57
754.763	333.65
754.955	567.12
755.146	124.76
755.338	225.11
755.53	411.47
755.721	325.46
755.913	-32.94
756.104	59.22
756.296	165.71
756.487	542.54
756.679	-43.18
756.87	106.32
757.062	309.07
757.253	466.77
757.445	75.6
757.636	325.46
757.827	274.26
758.019	972.61
758.21	42.84
758.401	124.76
758.593	866.12
758.784	655.18
758.975	1.88
759.167	36.69
759.358	339.79
759.549	577.36
759.74	79.7
759.932	79.7
760.123	651.08
760.314	243.54
760.505	135
760.696	67.41
760.888	845.64
761.079	333.65
761.27	40.79
761.461	-125.1
761.652	735.05
761.843	272.21
762.034	239.44
762.225	438.09
762.416	304.98
762.607	325.46
762.798	32.6
762.989	26.45
763.18	1138.5
763.371	313.17
763.562	55.12
763.753	96.08
763.944	661.32
764.135	599.88
764.326	214.87
764.517	145.24
764.708	493.39
764.899	464.72
765.089	16.21
765.28	12.12
765.471	460.62
765.662	485.2
765.853	167.76
766.043	-110.76
766.234	706.38
766.425	608.08
766.615	143.19
766.806	-8.36
766.997	689.99
767.187	479.05
767.378	44.88
767.569	38.74
767.759	624.46
767.95	495.44
768.141	190.29
768.331	104.28
768.522	321.36
768.712	532.3
768.903	112.47
769.093	159.57
769.284	888.65
769.474	507.73
769.665	-71.85
769.855	-69.8
770.046	614.22
770.236	354.13
770.426	317.26
770.617	96.08
770.807	530.25
770.998	335.7
771.188	274.26
771.378	137.04
771.569	612.17
771.759	579.4
771.949	79.7
772.139	-176.3
772.33	460.62
772.52	730.95
772.71	108.37
772.9	34.64
773.09	833.35
773.281	773.96
773.471	184.15
773.661	188.24
773.851	593.74
774.041	257.87
774.231	16.21
774.421	304.98
774.611	825.16
774.802	444.24
774.992	253.78
775.182	30.55
775.372	405.33
775.562	632.65
775.752	161.62
775.942	218.96
776.131	798.54
776.321	569.16
776.511	112.47
776.701	53.08
776.891	704.33
777.081	227.15
777.271	255.83
777.461	149.33
777.651	534.35
777.84	716.62
778.03	270.16
778.22	188.24
778.41	759.63
778.599	243.54
778.789	175.95
778.979	126.8
779.169	493.39
779.358	536.4
779.548	448.33
779.738	38.74
779.927	538.45
780.117	225.11
780.307	171.86
780.496	-164.01
780.686	505.68
780.875	773.96
781.065	145.24
781.254	139.09
781.444	474.96
781.633	423.76
781.823	151.38
782.012	91.99
782.202	270.16
782.391	440.14
782.581	3.93
782.77	294.74
782.96	640.84
783.149	452.43
783.338	145.24
783.528	-63.66
783.717	628.56
783.906	702.28
784.096	239.44
784.285	-6.31
784.474	376.66
784.663	249.68
784.853	157.52
785.042	227.15
785.231	288.59
785.42	669.52
785.61	257.87
785.799	130.9
785.988	284.5
786.177	345.94
786.366	186.19
786.555	343.89
786.744	640.84
786.933	415.57
787.122	30.55
787.312	126.8
787.501	282.45
787.69	579.4
787.879	124.76
788.068	141.14
788.257	153.43
788.445	345.94
788.634	214.87
788.823	20.31
789.012	1101.64
789.201	812.87
789.39	159.57
789.579	85.84
789.768	472.91
789.957	427.85
790.145	192.34
790.334	-116.9
790.523	356.18
790.712	313.17
790.9	280.4
791.089	118.61
791.278	653.13
791.467	452.43
791.655	542.54
791.844	689.99
792.033	272.21
792.221	347.98
792.41	362.32
792.599	91.99
792.787	575.31
792.976	642.89
793.164	67.41
793.353	112.47
793.541	583.5
793.73	546.64
793.918	194.39
794.107	51.03
794.295	399.18
794.484	425.81
794.672	202.58
794.861	186.19
795.049	567.12
795.238	778.06
795.426	26.45
795.614	292.69
795.803	485.2
795.991	784.2
796.179	132.95
796.368	194.39
796.556	700.23
796.744	114.52
796.932	69.46
797.121	175.95
797.309	325.46
797.497	694.09
797.685	259.92
797.874	108.37
798.062	462.67
798.25	767.82
798.438	116.56
798.626	116.56
798.814	581.45
799.002	986.95
799.19	370.51
799.378	227.15
799.566	694.09
799.755	847.69
799.943	364.37
800.131	212.82
800.318	616.27
800.506	509.77
800.694	216.91
800.882	425.81
801.07	714.57
801.258	362.32
801.446	116.56
801.634	192.34
801.822	501.58
802.01	417.61
802.197	171.86
802.385	284.5
802.573	452.43
802.761	200.53
802.949	280.4
803.136	55.12
803.324	683.85
803.512	444.24
803.699	347.98
803.887	18.26
804.075	720.71
804.262	331.6
804.45	65.36
804.638	313.17
804.825	149.33
805.013	347.98
805.201	231.25
805.388	63.32
805.576	472.91
805.763	909.13
805.951	200.53
806.138	399.18
806.326	923.46
806.513	522.06
806.701	184.15
806.888	151.38
807.075	630.6
807.263	939.85
807.45	124.76
807.638	378.7
807.825	894.79
808.012	669.52
808.2	186.19
808.387	548.68
808.574	499.53
808.761	911.18
808.949	94.04
809.136	239.44
809.323	352.08
809.51	386.9
809.698	534.35
809.885	413.52
810.072	571.21
810.259	794.44
810.446	333.65
810.633	151.38
810.82	724.81
811.008	724.81
811.195	341.84
811.382	225.11
811.569	569.16
811.756	200.53
811.943	274.26
812.13	231.25
812.317	345.94
812.504	315.22
812.691	261.97
812.878	382.8
813.064	790.35
813.251	534.35
813.438	124.76
813.625	337.74
813.812	497.49
813.999	538.45
814.186	319.31
814.372	309.07
814.559	579.4
814.746	882.5
814.933	335.7
815.12	376.66
815.306	487.25
815.493	223.06
815.68	229.2
815.866	296.78
816.053	753.48
816.24	898.89
816.426	409.42
816.613	173.91
816.799	624.46
816.986	841.54
817.173	268.11
817.359	272.21
817.546	636.75
817.732	210.77
817.919	5.97
818.105	323.41
818.292	403.28
818.478	534.35
818.665	403.28
818.851	235.35
819.037	1025.86
819.224	616.27
819.41	210.77
819.597	239.44
819.783	1013.57
819.969	657.23
820.156	280.4
820.342	178
820.528	1304.39
820.714	493.39
820.901	528.21
821.087	280.4
821.273	847.69
821.459	403.28
821.646	227.15
821.832	223.06
822.018	548.68
822.204	560.97
822.39	184.15
822.576	218.96
822.762	642.89
822.948	632.65
823.134	499.53
823.32	272.21
823.507	374.61
823.693	603.98
823.879	716.62
824.065	178
824.25	567.12
824.436	350.03
824.622	292.69
824.808	171.86
824.994	450.38
825.18	407.38
825.366	206.67
825.552	202.58
825.738	466.77
825.923	859.98
826.109	450.38
826.295	171.86
826.481	372.56
826.667	460.62
826.852	481.1
827.038	198.48
827.224	730.95
827.409	1009.48
827.595	126.8
827.781	546.64
827.966	749.39
828.152	794.44
828.338	358.22
828.523	147.28
828.709	388.94
828.894	909.13
829.08	339.79
829.266	257.87
829.451	477.01
829.637	677.71
829.822	509.77
830.008	268.11
830.193	790.35
830.378	997.19
830.564	370.51
830.749	147.28
830.935	739.15
831.12	782.15
831.305	165.71
831.491	403.28
831.676	290.64
831.861	767.82
832.047	313.17
832.232	202.58
832.417	765.77
832.602	644.94
832.788	264.02
832.973	139.09
833.158	515.92
833.343	567.12
833.528	450.38
833.714	321.36
833.899	724.81
834.084	986.95
834.269	499.53
834.454	337.74
834.639	851.78
834.824	497.49
835.009	477.01
835.194	528.21
835.379	679.75
835.564	993.09
835.749	497.49
835.934	259.92
836.119	722.76
836.304	677.71
836.489	298.83
836.674	542.54
836.859	350.03
837.044	1038.15
837.228	436.05
837.413	184.15
837.598	651.08
837.783	804.68
837.968	370.51
838.152	190.29
838.337	163.67
838.522	825.16
838.707	831.3
838.891	550.73
839.076	708.43
839.261	802.63
839.445	370.51
839.63	405.33
839.815	1021.77
839.999	505.68
840.184	241.49
840.368	403.28
840.553	763.72
840.737	859.98
840.922	317.26
841.106	243.54
841.291	325.46
841.475	689.99
841.66	317.26
841.844	309.07
842.029	1314.63
842.213	499.53
842.397	339.79
842.582	206.67
842.766	790.35
842.951	773.96
843.135	317.26
843.319	376.66
843.504	714.57
843.688	771.91
843.872	128.85
844.056	190.29
844.241	718.67
844.425	556.88
844.609	429.9
844.793	91.99
844.977	986.95
845.161	665.42
845.346	210.77
845.53	399.18
845.714	624.46
845.898	945.99
846.082	221.01
846.266	272.21
846.45	612.17
846.634	706.38
846.818	331.6
847.002	517.97
847.186	814.92
847.37	325.46
847.554	288.59
847.738	589.64
847.922	667.47
848.106	681.8
848.29	216.91
848.473	323.41
848.657	882.5
848.841	546.64
849.025	409.42
849.209	175.95
849.392	741.19
849.576	608.08
849.76	81.75
849.944	575.31
850.127	1058.63
850.311	354.13
850.495	241.49
850.678	175.95
850.862	862.02
851.046	976.71
851.229	579.4
851.413	251.73
851.596	577.36
851.78	593.74
851.964	520.01
852.147	380.75
852.331	1351.49
852.514	989
852.698	417.61
852.881	266.07
853.065	788.3
853.248	640.84
853.431	536.4
853.615	407.38
853.798	1165.12
853.982	728.91
854.165	522.06
854.348	354.13
854.532	427.85
854.715	452.43
854.898	427.85
855.081	286.54
855.265	915.27
855.448	1013.57
855.631	339.79
855.814	274.26
855.997	839.5
856.181	601.93
856.364	427.85
856.547	208.72
856.73	669.52
856.913	669.52
857.096	175.95
857.279	395.09
857.462	554.83
857.645	804.68
857.828	495.44
858.011	413.52
858.194	460.62
858.377	829.26
858.56	352.08
858.743	438.09
858.926	454.48
859.109	735.05
859.292	374.61
859.475	298.83
859.658	837.45
859.841	665.42
860.023	274.26
860.206	380.75
860.389	657.23
860.572	941.89
860.755	403.28
860.937	356.18
861.12	548.68
861.303	655.18
861.486	438.09
861.668	298.83
861.851	761.67
862.034	733
862.216	493.39
862.399	225.11
862.581	745.29
862.764	956.23
862.947	470.86
863.129	280.4
863.312	350.03
863.494	999.24
863.677	679.75
863.859	171.86
864.042	919.37
864.224	976.71
864.406	431.95
864.589	251.73
864.771	663.37
864.954	395.09
865.136	302.93
865.318	280.4
865.501	866.12
865.683	247.63
865.865	501.58
866.048	419.66
866.23	780.11
866.412	655.18
866.594	243.54
866.777	460.62
866.959	784.2
867.141	517.97
867.323	628.56
867.505	483.15
867.687	599.88
867.869	642.89
868.052	366.42
868.234	229.2
868.416	567.12
868.598	739.15
868.78	411.47
868.962	233.3
869.144	882.5
869.326	776.01
869.508	393.04
869.69	288.59
869.872	536.4
870.054	886.6
870.236	261.97
870.417	321.36
870.599	655.18
870.781	1021.77
870.963	517.97
871.145	165.71
871.327	454.48
871.508	816.97
871.69	401.23
871.872	403.28
872.054	671.56
872.235	884.55
872.417	438.09
872.599	296.78
872.78	1029.96
872.962	653.13
873.144	241.49
873.325	382.8
873.507	921.42
873.689	724.81
873.87	143.19
874.052	479.05
874.233	630.6
874.415	950.09
874.596	362.32
874.778	200.53
874.959	757.58
875.141	952.13
875.322	417.61
875.503	325.46
875.685	757.58
875.866	386.9
876.048	294.74
876.229	235.35
876.41	661.32
876.592	769.87
876.773	300.88
876.954	206.67
877.136	1029.96
877.317	567.12
877.498	210.77
877.679	431.95
877.86	765.77
878.042	653.13
878.223	331.6
878.404	669.52
878.585	859.98
878.766	1103.68
878.947	681.8
879.128	577.36
879.309	804.68
879.49	921.42
879.672	427.85
879.853	425.81
880.034	440.14
880.215	646.99
880.396	517.97
880.576	366.42
880.757	470.86
880.938	1044.29
881.119	347.98
881.3	395.09
881.481	487.25
881.662	1494.85
881.843	405.33
882.023	264.02
882.204	800.59
882.385	640.84
882.566	446.29
882.747	356.18
882.927	610.12
883.108	739.15
883.289	290.64
883.469	567.12
883.65	603.98
883.831	794.44
884.011	632.65
884.192	534.35
884.373	927.56
884.553	763.72
884.734	511.82
884.914	788.3
885.095	1423.17
885.275	1091.4
885.456	702.28
885.636	292.69
885.817	550.73
885.997	708.43
886.178	405.33
886.358	497.49
886.538	751.43
886.719	1736.51
886.899	421.71
887.08	485.2
887.26	884.55
887.44	530.25
887.621	362.32
887.801	614.22
887.981	1285.95
888.161	956.23
888.342	446.29
888.522	485.2
888.702	956.23
888.882	960.33
889.062	517.97
889.242	288.59
889.423	1154.88
889.603	898.89
889.783	585.55
889.963	470.86
890.143	794.44
890.323	1019.72
890.503	464.72
890.683	503.63
890.863	802.63
891.043	800.59
891.223	575.31
891.403	714.57
891.583	673.61
891.763	804.68
891.943	542.54
892.122	386.9
892.302	755.53
892.482	765.77
892.662	665.42
892.842	462.67
893.022	878.41
893.201	612.17
893.381	663.37
893.561	470.86
893.741	917.32
893.92	892.74
894.1	644.94
894.28	591.69
894.459	993.09
894.639	880.46
894.819	618.32
894.998	651.08
895.178	882.5
895.357	874.31
895.537	538.45
895.716	431.95
895.896	757.58
896.075	997.19
896.255	479.05
896.434	302.93
896.614	984.9
896.793	1118.02
896.973	681.8
897.152	644.94
897.331	843.59
897.511	1099.59
897.69	370.51
897.87	653.13
898.049	989
898.228	743.24
898.407	681.8
898.587	780.11
898.766	644.94
898.945	1085.25
899.124	882.5
899.304	673.61
899.483	972.61
899.662	1353.54
899.841	511.82
900.02	546.64
900.199	1124.16
900.378	919.37
900.557	528.21
900.737	522.06
900.916	978.76
901.095	941.89
901.274	841.54
901.453	431.95
901.632	651.08
901.811	677.71
901.989	552.78
902.168	460.62
902.347	964.42
902.526	618.32
902.705	622.41
902.884	704.33
903.063	1128.26
903.242	1165.12
903.42	530.25
903.599	640.84
903.778	1034.05
903.957	1220.42
904.135	743.24
904.314	753.48
904.493	859.98
904.672	1048.39
904.85	552.78
905.029	565.07
905.207	978.76
905.386	1496.89
905.565	386.9
905.743	524.11
905.922	610.12
906.1	1122.12
906.279	509.77
906.457	474.96
906.636	700.23
906.814	702.28
906.993	538.45
907.171	601.93
907.35	976.71
907.528	1115.97
907.707	843.59
907.885	544.59
908.063	1210.18
908.242	612.17
908.42	640.84
908.598	362.32
908.777	962.37
908.955	671.56
909.133	620.36
909.311	417.61
909.49	786.25
909.668	847.69
909.846	565.07
910.024	319.31
910.202	853.83
910.38	933.7
910.559	354.13
910.737	425.81
910.915	892.74
911.093	868.17
911.271	591.69
911.449	733
911.627	931.66
911.805	1281.86
911.983	558.92
912.161	489.29
912.339	968.52
912.517	1113.92
912.695	784.2
912.872	599.88
913.05	679.75
913.228	917.32
913.406	640.84
913.584	489.29
913.762	941.89
913.939	728.91
914.117	503.63
914.295	350.03
914.473	870.22
914.65	851.78
914.828	649.04
915.006	477.01
915.184	526.16
915.361	862.02
915.539	722.76
915.716	833.35
915.894	1017.67
916.072	911.18
916.249	687.95
916.427	739.15
916.604	481.1
916.782	945.99
916.959	409.42
917.137	542.54
917.314	833.35
917.492	913.22
917.669	763.72
917.847	644.94
918.024	862.02
918.201	712.52
918.379	587.6
918.556	692.04
918.733	958.28
918.911	788.3
919.088	792.39
919.265	583.5
919.442	804.68
919.62	704.33
919.797	472.91
919.974	452.43
920.151	933.7
920.328	880.46
920.506	487.25
920.683	759.63
920.86	612.17
921.037	634.7
921.214	622.41
921.391	493.39
921.568	1017.67
921.745	610.12
921.922	706.38
922.099	477.01
922.276	1038.15
922.453	845.64
922.63	425.81
922.807	868.17
922.984	784.2
923.161	784.2
923.338	567.12
923.514	493.39
923.691	814.92
923.868	911.18
924.045	565.07
924.222	384.85
924.399	839.5
924.575	1023.81
924.752	636.75
924.929	575.31
925.105	886.6
925.282	575.31
925.459	517.97
925.635	575.31
925.812	714.57
925.989	614.22
926.165	644.94
926.342	311.12
926.518	495.44
926.695	706.38
926.871	466.77
927.048	384.85
927.224	972.61
927.401	644.94
927.577	595.79
927.754	417.61
927.93	1111.88
928.107	896.84
928.283	468.81
928.459	558.92
928.636	876.36
928.812	747.34
928.988	366.42
929.165	317.26
929.341	640.84
929.517	714.57
929.693	913.22
929.87	313.17
930.046	849.74
930.222	591.69
930.398	493.39
930.574	540.49
930.751	661.32
930.927	622.41
931.103	483.15
931.279	634.7
931.455	585.55
931.631	778.06
931.807	313.17
931.983	401.23
932.159	331.6
932.335	614.22
932.511	538.45
932.687	448.33
932.863	773.96
933.039	630.6
933.215	288.59
933.391	284.5
933.566	603.98
933.742	657.23
933.918	456.53
934.094	255.83
934.27	685.9
934.445	780.11
934.621	442.19
934.797	337.74
934.973	882.5
935.148	825.16
935.324	313.17
935.5	85.84
935.675	749.39
935.851	745.29
936.027	444.24
936.202	472.91
936.378	730.95
936.553	569.16
936.729	798.54
936.904	300.88
937.08	315.22
937.255	485.2
937.431	321.36
937.606	98.13
937.782	565.07
937.957	593.74
938.133	405.33
938.308	237.39
938.483	485.2
938.659	335.7
938.834	350.03
939.009	188.24
939.185	448.33
939.36	288.59
939.535	16.21
939.71	452.43
939.886	743.24
940.061	657.23
940.236	436.05
940.411	292.69
940.586	554.83
940.761	624.46
940.937	186.19
941.112	149.33
941.287	405.33
941.462	532.3
941.637	186.19
941.812	208.72
941.987	608.08
942.162	489.29
942.337	247.63
942.512	175.95
942.687	683.85
942.862	569.16
943.037	100.18
943.212	-104.62
943.386	388.94
943.561	423.76
943.736	366.42
943.911	589.64
944.086	585.55
944.26	485.2
944.435	204.63
944.61	304.98
944.785	763.72
944.959	927.56
945.134	229.2
945.309	83.8
945.483	206.67
945.658	646.99
945.833	-47.27
946.007	112.47
946.182	802.63
946.357	157.52
946.531	130.9
946.706	143.19
946.88	-47.27
947.055	474.96
947.229	139.09
947.404	-12.46
947.578	595.79
947.752	227.15
947.927	-20.65
948.101	44.88
948.276	436.05
948.45	452.43
948.624	276.31
948.799	81.75
948.973	411.47
949.147	159.57
949.321	186.19
949.496	190.29
949.67	634.7
949.844	487.25
950.018	190.29
950.193	108.37
950.367	847.69
950.541	321.36
950.715	272.21
950.889	270.16
951.063	370.51
951.237	603.98
951.411	-125.1
951.585	-32.94
951.759	571.21
951.933	313.17
952.107	175.95
952.281	329.55
952.455	821.06
952.629	565.07
952.803	83.8
952.977	91.99
953.151	497.49
953.325	505.68
953.499	257.87
953.672	-41.13
953.846	163.67
954.02	390.99
954.194	130.9
954.368	151.38
954.541	599.88
954.715	239.44
954.889	356.18
955.062	61.27
955.236	446.29
955.41	366.42
955.583	356.18
955.757	-22.7
955.93	337.74
956.104	173.91
956.278	175.95
956.451	235.35
956.625	479.05
956.798	835.4
956.972	423.76
957.145	114.52
957.319	374.61
957.492	317.26
957.665	284.5
957.839	65.36
958.012	501.58
958.185	335.7
958.359	272.21
958.532	333.65
958.705	536.4
958.879	477.01
959.052	251.73
959.225	1.88
959.398	304.98
959.572	413.52
959.745	221.01
959.918	178
960.091	292.69
960.264	526.16
960.438	-45.23
960.611	102.23
960.784	575.31
960.957	245.59
961.13	479.05
961.303	87.89
961.476	407.38
961.649	616.27
961.822	75.6
961.995	221.01
962.168	575.31
962.341	384.85
962.514	186.19
962.686	153.43
962.859	382.8
963.032	429.9
963.205	118.61
963.378	20.31
963.551	452.43
963.723	444.24
963.896	304.98
964.069	276.31
964.242	401.23
964.414	472.91
964.587	257.87
964.76	284.5
964.932	456.53
965.105	421.71
965.278	200.53
965.45	161.62
965.623	350.03
965.795	581.45
965.968	182.1
966.14	145.24
966.313	264.02
966.485	470.86
966.658	190.29
966.83	69.46
967.003	681.8
967.175	577.36
967.348	194.39
967.52	145.24
967.692	722.76
967.865	452.43
968.037	169.81
968.209	413.52
968.382	331.6
968.554	599.88
968.726	194.39
968.898	180.05
969.071	444.24
969.243	567.12
969.415	169.81
969.587	241.49
969.759	862.02
969.932	593.74
970.104	200.53
970.276	-153.77
970.448	241.49
970.62	264.02
970.792	270.16
970.964	231.25
971.136	833.35
971.308	503.63
971.48	108.37
971.652	104.28
971.824	747.34
971.996	296.78
972.168	208.72
972.339	190.29
972.511	706.38
972.683	304.98
972.855	423.76
973.027	137.04
973.199	354.13
973.37	530.25
973.542	311.12
973.714	315.22
973.886	380.75
974.057	675.66
974.229	91.99
974.401	83.8
974.572	169.81
974.744	-45.23
974.915	38.74
975.087	46.93
975.259	771.91
975.43	309.07
975.602	186.19
975.773	81.75
975.945	180.05
976.116	587.6
976.288	190.29
976.459	276.31
976.63	315.22
976.802	499.53
976.973	51.03
977.145	321.36
977.316	802.63
977.487	401.23
977.659	276.31
977.83	159.57
978.001	802.63
978.172	464.72
978.344	73.56
978.515	75.6
978.686	257.87
978.857	812.87
979.028	163.67
979.2	20.31
979.371	624.46
979.542	468.81
979.713	268.11
979.884	-200.87
980.055	245.59
980.226	259.92
980.397	67.41
980.568	46.93
980.739	661.32
980.91	333.65
981.081	286.54
981.252	108.37
981.423	569.16
981.594	565.07
981.765	36.69
981.936	321.36
982.106	421.71
982.277	659.28
982.448	75.6
982.619	403.28
982.79	257.87
982.96	634.7
983.131	268.11
983.302	-96.43
983.472	270.16
983.643	411.47
983.814	247.63
983.984	96.08
984.155	323.41
984.326	616.27
984.496	137.04
984.667	32.6
984.837	216.91
985.008	651.08
985.178	327.5
985.349	132.95
985.519	419.66
985.69	192.34
985.86	120.66
986.031	139.09
986.201	419.66
986.371	517.97
986.542	38.74
986.712	-39.08
986.882	522.06
987.053	450.38
987.223	71.51
987.393	309.07
987.563	261.97
987.734	501.58
987.904	350.03
988.074	89.94
988.244	401.23
988.414	288.59
988.585	81.75
988.755	300.88
988.925	399.18
989.095	694.09
989.265	28.5
989.435	229.2
989.605	497.49
989.775	524.11
989.945	446.29
990.115	-39.08
990.285	399.18
990.455	411.47
990.625	280.4
990.795	79.7
990.965	644.94
991.134	169.81
991.304	-47.27
991.474	130.9
991.644	485.2
991.814	689.99
991.984	-45.23
992.153	30.55
992.323	327.5
992.493	470.86
992.662	-129.19
992.832	272.21
993.002	411.47
993.171	528.21
993.341	22.36
993.511	231.25
993.68	251.73
993.85	489.29
994.019	-118.95
994.189	-39.08
994.358	448.33
994.528	214.87
994.697	-159.91
994.867	48.98
995.036	507.73
995.206	159.57
995.375	-12.46
995.544	241.49
995.714	438.09
995.883	388.94
996.052	165.71
996.222	-166.06
996.391	786.25
996.56	472.91
996.73	-96.43
996.899	-112.81
997.068	706.38
997.237	274.26
997.406	-22.7
997.576	-73.9
997.745	352.08
997.914	419.66
998.083	-153.77
998.252	-84.14
998.421	362.32
998.59	151.38
998.759	-108.71
998.928	-108.71
999.097	659.28
999.266	368.46
999.435	235.35
999.604	-71.85
999.773	718.67
999.942	298.83
1000.111	-110.76
1000.28	-178.34
1000.448	89.94
1000.617	159.57
1000.786	223.06
1000.955	-61.61
1001.124	327.5
1001.292	911.18
1001.461	5.97
1001.63	-51.37
1001.798	651.08
1001.967	655.18
1002.136	-104.62
1002.304	-104.62
1002.473	489.29
1002.642	417.61
1002.81	89.94
1002.979	-18.6
1003.147	440.14
1003.316	739.15
1003.484	-39.08
1003.653	-88.23
1003.821	571.21
1003.99	261.97
1004.158	118.61
1004.327	96.08
1004.495	382.8
1004.663	48.98
1004.832	137.04
1005	-243.88
1005.168	382.8
1005.337	337.74
1005.505	-121
1005.673	114.52
1005.842	436.05
1006.01	350.03
1006.178	-112.81
1006.346	-88.23
1006.514	345.94
1006.683	530.25
1006.851	-69.8
1007.019	-116.9
1007.187	130.9
1007.355	-135.34
1007.523	-196.78
1007.691	-209.06
1007.859	-30.89
1008.027	509.77
1008.195	-34.99
1008.363	-178.34
1008.531	532.3
1008.699	135
1008.867	-166.06
1009.035	-211.11
1009.203	675.66
1009.37	292.69
1009.538	-20.65
1009.706	390.99
1009.874	257.87
1010.042	259.92
1010.209	-137.38
1010.377	-110.76
1010.545	470.86
1010.713	284.5
1010.88	-157.86
1011.048	-127.14
1011.216	159.57
1011.383	528.21
1011.551	-43.18
1011.718	-196.78
1011.886	452.43
1012.054	202.58
1012.221	-133.29
1012.389	-108.71
1012.556	261.97
1012.724	753.48
1012.891	-51.37
1013.058	-325.8
1013.226	448.33
1013.393	464.72
1013.561	-272.55
1013.728	-209.06
1013.895	507.73
1014.063	329.55
1014.23	-174.25
1014.397	-102.57
1014.565	436.05
1014.732	96.08
1014.899	-108.71
1015.066	-182.44
1015.233	255.83
1015.401	419.66
1015.568	-41.13
1015.735	-55.47
1015.902	235.35
1016.069	296.78
1016.236	-67.75
1016.403	-145.58
1016.57	26.45
1016.737	477.01
1016.904	-69.8
1017.071	-178.34
1017.238	145.24
1017.405	421.71
1017.572	-121
1017.739	118.61
1017.906	411.47
1018.073	477.01
1018.24	-133.29
1018.407	-2.22
1018.573	487.25
1018.74	126.8
1018.907	26.45
1019.074	-301.22
1019.241	497.49
1019.407	343.89
1019.574	-217.26
1019.741	-125.1
1019.907	403.28
1020.074	395.09
1020.241	-342.18
1020.407	-176.3
1020.574	393.04
1020.74	405.33
1020.907	-59.56
1021.073	-188.58
1021.24	714.57
1021.406	530.25
1021.573	-239.78
1021.739	-149.67
1021.906	419.66
1022.072	282.45
1022.239	-100.52
1022.405	-16.55
1022.571	157.52
1022.738	8.02
1022.904	-43.18
1023.07	-63.66
1023.237	300.88
1023.403	501.58
1023.569	-65.71
1023.735	-14.51
1023.902	350.03
1024.068	237.39
1024.234	-196.78
1024.4	-121
1024.566	292.69
1024.732	472.91
1024.898	-116.9
1025.065	-241.83
1025.231	434
1025.397	151.38
1025.563	-39.08
1025.729	-215.21
1025.895	-137.38
1026.061	34.64
1026.227	-262.31
1026.392	-166.06
1026.558	444.24
1026.724	403.28
1026.89	-168.1
1027.056	-145.58
1027.222	294.74
1027.388	96.08
1027.553	-141.48
1027.719	-145.58
1027.885	571.21
1028.051	366.42
1028.216	-374.95
1028.382	-86.19
1028.548	436.05
1028.713	143.19
1028.879	-317.61
1029.045	26.45
1029.21	560.97
1029.376	546.64
1029.541	-98.47
1029.707	-65.71
1029.873	423.76
1030.038	436.05
1030.204	-141.48
1030.369	-114.86
1030.534	485.2
1030.7	184.15
1030.865	-172.2
1031.031	-116.9
1031.196	372.56
1031.361	288.59
1031.527	-182.44
1031.692	-233.64
1031.857	-194.73
1032.023	434
1032.188	-229.54
1032.353	-145.58
1032.518	526.16
1032.684	354.13
1032.849	-207.02
1033.014	-12.46
1033.179	409.42
1033.344	378.7
1033.509	-14.51
1033.674	-190.63
1033.839	462.67
1034.004	444.24
1034.17	-75.95
1034.335	-286.89
1034.5	143.19
1034.664	59.22
1034.829	-182.44
1034.994	-123.05
1035.159	268.11
1035.324	235.35
1035.489	-168.1
1035.654	-184.49
1035.819	550.73
1035.984	337.74
1036.148	-53.42
1036.313	-86.19
1036.478	440.14
1036.643	251.73
1036.807	-168.1
1036.972	-211.11
1037.137	591.69
1037.301	216.91
1037.466	-315.56
1037.631	-18.6
1037.795	456.53
1037.96	286.54
1038.124	-20.65
1038.289	-223.4
1038.454	440.14
1038.618	321.36
1038.783	-4.27
1038.947	-45.23
1039.111	239.44
1039.276	126.8
1039.44	-190.63
1039.605	307.02
1039.769	182.1
1039.933	257.87
1040.098	-94.38
1040.262	96.08
1040.426	460.62
1040.591	448.33
1040.755	-200.87
1040.919	-118.95
1041.083	329.55
1041.248	270.16
1041.412	-286.89
1041.576	-196.78
1041.74	223.06
1041.904	315.22
1042.068	-174.25
1042.232	-49.32
1042.397	421.71
1042.561	347.98
1042.725	-372.9
1042.889	44.88
1043.053	429.9
1043.217	341.84
1043.381	-34.99
1043.544	-188.58
1043.708	507.73
1043.872	46.93
1044.036	-323.75
1044.2	-239.78
1044.364	491.34
1044.528	540.49
1044.691	4544.27
1044.855	-266.41
1045.019	434
1045.183	397.14
1045.346	-65.71
1045.51	-231.59
1045.674	315.22
1045.837	407.38
1046.001	-151.72
1046.165	-94.38
1046.328	833.35
1046.492	399.18
1046.655	-39.08
1046.819	-92.33
1046.983	194.39
1047.146	329.55
1047.31	-121
1047.473	-247.97
1047.636	247.63
1047.8	46.93
1047.963	-96.43
1048.127	-170.15
1048.29	55.12
