Data from Ink_Intensity_USB4F045381__111__00111.txt Node

Date: Mon Jul 17 11:09:01 EDT 2023
User: mmckonesweet
Spectrometer: USB4F04538
Trigger mode: 4
Integration Time (sec): 9.000000E-1
Scans to average: 1
Electric dark correction enabled: true
Nonlinearity correction enabled: false
Boxcar width: 0
XAxis mode: Wavelengths
Number of Pixels in Spectrum: 3648
>>>>>Begin Spectral Data<<<<<
345.52	-1013.23
345.736	-1013.23
345.952	-1013.23
346.168	-1025.52
346.384	-1005.04
346.6	-153.09
346.816	-208.38
347.032	-222.72
347.248	260.6
347.464	-206.33
347.68	-108.03
347.896	39.42
348.112	432.63
348.328	-114.17
348.544	-34.3
348.76	66.05
348.975	248.32
349.191	-179.71
349.407	-192
349.623	-22.02
349.839	-34.3
350.055	-128.51
350.27	-13.82
350.486	160.25
350.702	414.2
350.918	281.08
351.133	-161.28
351.349	125.44
351.565	317.95
351.781	-169.47
351.996	43.52
352.212	272.89
352.428	-77.31
352.644	-165.37
352.859	-247.29
353.075	342.52
353.291	14.85
353.506	-95.74
353.722	-331.26
353.938	-44.54
354.153	438.78
354.369	86.53
354.584	-224.76
354.8	199.16
355.016	-298.49
355.231	-247.29
355.447	-46.59
355.662	125.44
355.878	858.61
356.093	-292.35
356.309	31.23
356.524	-202.24
356.74	338.43
356.955	-228.86
357.171	-108.03
357.386	215.55
357.602	-194.05
357.817	-71.17
358.033	-185.85
358.248	412.15
358.464	137.73
358.679	-159.23
358.895	-271.87
359.11	-30.21
359.325	217.6
359.541	61.95
359.756	27.14
359.972	-140.8
360.187	215.55
360.402	-259.58
360.618	-120.32
360.833	1042.93
361.048	174.59
361.264	-118.27
361.479	-71.17
361.694	-1.54
361.909	274.94
362.125	-245.24
362.34	-101.89
362.555	272.89
362.77	133.63
362.986	-290.3
363.201	-163.33
363.416	236.03
363.631	23.04
363.847	-230.91
364.062	-124.41
364.277	186.88
364.492	6.66
364.707	-103.93
364.922	-337.4
365.138	223.74
365.353	328.19
365.568	-314.88
365.783	-202.24
365.998	131.58
366.213	580.09
366.428	-192
366.643	70.14
366.858	227.84
367.073	264.7
367.288	-110.08
367.503	-239.1
367.718	6.66
367.933	344.57
368.148	-228.86
368.363	-83.45
368.578	55.81
368.793	428.54
369.008	-163.33
369.223	-282.11
369.438	244.22
369.653	397.82
369.868	-247.29
370.083	-222.72
370.298	104.96
370.513	326.14
370.728	92.67
370.943	-148.99
371.157	-85.5
371.372	543.22
371.587	-214.52
371.802	-192
372.017	109.05
372.232	434.68
372.446	-34.3
372.661	-230.91
372.876	233.98
373.091	203.26
373.306	-79.36
373.52	-261.63
373.735	-175.61
373.95	459.26
374.165	-75.26
374.379	-95.74
374.594	-69.12
374.809	109.05
375.023	39.42
375.238	-175.61
375.453	246.27
375.667	-316.92
375.882	-183.81
376.097	-151.04
376.311	-5.63
376.526	-9.73
376.741	-187.9
376.955	76.29
377.17	571.9
377.384	641.53
377.599	-91.65
377.813	-292.35
378.028	578.04
378.242	182.78
378.457	-105.98
378.672	-304.64
378.886	115.2
379.101	2.56
379.315	-357.88
379.53	-134.65
379.744	174.59
379.958	240.12
380.173	-189.95
380.387	-157.18
380.602	188.93
380.816	-163.33
381.031	-151.04
381.245	-58.88
381.459	195.07
381.674	2652.63
381.888	-167.42
382.103	92.67
382.317	-232.96
382.531	520.7
382.746	-67.07
382.96	-263.68
383.174	-83.45
383.388	426.49
383.603	98.81
383.817	-257.53
384.031	82.43
384.246	498.17
384.46	14.85
384.674	248.32
384.888	35.33
385.103	33.28
385.317	-288.25
385.531	-91.65
385.745	334.33
385.959	383.48
386.174	-185.85
386.388	-253.44
386.602	-1.54
386.816	-120.32
387.03	-128.51
387.244	-97.79
387.458	66.05
387.672	360.95
387.887	-288.25
388.101	-273.92
388.315	358.91
388.529	78.33
388.743	-138.75
388.957	-226.81
389.171	416.25
389.385	-185.85
389.599	-114.17
389.813	-17.92
390.027	256.51
390.241	690.68
390.455	-71.17
390.669	-173.57
390.883	-142.85
391.097	412.15
391.311	14.85
391.525	-153.09
391.738	205.31
391.952	170.49
392.166	-19.97
392.38	-237.05
392.594	252.41
392.808	367.1
393.022	-30.21
393.236	-99.84
393.449	260.6
393.663	225.79
393.877	-366.07
394.091	-181.76
394.305	-140.8
394.518	-165.37
394.732	-290.3
394.946	-118.27
395.16	522.74
395.373	152.06
395.587	-171.52
395.801	-235
396.015	381.43
396.228	217.6
396.442	-243.2
396.656	-333.31
396.869	334.33
397.083	510.46
397.297	-36.35
397.51	-136.7
397.724	377.34
397.938	115.2
398.151	-243.2
398.365	-335.35
398.578	348.67
398.792	389.63
399.005	-11.78
399.219	-165.37
399.433	154.11
399.646	303.61
399.86	10.75
400.073	29.18
400.287	197.12
400.5	-32.26
400.714	-19.97
400.927	-83.45
401.141	231.93
401.354	995.82
401.567	145.92
401.781	-253.44
401.994	201.21
402.208	561.66
402.421	-99.84
402.635	-52.74
402.848	57.86
403.061	342.52
403.275	25.09
403.488	-181.76
403.701	489.98
403.915	231.93
404.128	-5.63
404.341	-226.81
404.555	139.77
404.768	-30.21
404.981	-1.54
405.195	-169.47
405.408	518.65
405.621	195.07
405.834	123.39
406.048	-251.39
406.261	385.53
406.474	512.5
406.687	-185.85
406.9	35.33
407.114	64
407.327	195.07
407.54	-271.87
407.753	-290.3
407.966	-159.23
408.179	297.47
408.392	-171.52
408.605	-265.72
408.819	172.54
409.032	162.3
409.245	-136.7
409.458	47.62
409.671	244.22
409.884	240.12
410.097	-255.48
410.31	33.28
410.523	129.53
410.736	-54.78
410.949	-73.21
411.162	-124.41
411.375	481.78
411.588	248.32
411.801	-30.21
412.014	-267.77
412.227	12.8
412.44	-22.02
412.653	-148.99
412.865	16.9
413.078	299.52
413.291	221.69
413.504	-22.02
413.717	-126.46
413.93	174.59
414.143	-189.95
414.356	-169.47
414.568	-308.73
414.781	262.65
414.994	115.2
415.207	-62.98
415.42	-142.85
415.632	248.32
415.845	539.13
416.058	-294.4
416.271	-331.26
416.483	133.63
416.696	508.41
416.909	-153.09
417.121	-101.89
417.334	195.07
417.547	510.46
417.759	-148.99
417.972	-224.76
418.185	10.75
418.397	227.84
418.61	-185.85
418.823	-204.28
419.035	399.87
419.248	100.86
419.46	-95.74
419.673	-62.98
419.885	250.36
420.098	82.43
420.311	-175.61
420.523	-398.84
420.736	264.7
420.948	2.56
421.161	-144.89
421.373	-376.31
421.586	127.49
421.798	-54.78
422.01	-415.23
422.223	-34.3
422.435	-118.27
422.648	174.59
422.86	-204.28
423.073	-144.89
423.285	262.65
423.497	-161.28
423.71	-58.88
423.922	-194.05
424.134	213.5
424.347	467.45
424.559	-5.63
424.771	186.88
424.984	-13.82
425.196	199.16
425.408	-316.92
425.621	-312.83
425.833	297.47
426.045	256.51
426.257	-267.77
426.47	-243.2
426.682	68.09
426.894	262.65
427.106	-142.85
427.318	-146.94
427.531	-44.54
427.743	252.41
427.955	-142.85
428.167	211.45
428.379	240.12
428.591	-58.88
428.804	-50.69
429.016	-171.52
429.228	-11.78
429.44	164.35
429.652	25.09
429.864	-206.33
430.076	-17.92
430.288	-54.78
430.5	-89.6
430.712	-116.22
430.924	324.09
431.136	74.24
431.348	-316.92
431.56	-202.24
431.772	113.15
431.984	-38.4
432.196	-183.81
432.408	-198.14
432.62	14.85
432.832	256.51
433.044	84.48
433.256	-65.02
433.468	289.28
433.679	-280.06
433.891	-220.67
434.103	55.81
434.315	432.63
434.527	182.78
434.739	-42.5
434.95	-194.05
435.162	340.47
435.374	-112.13
435.586	-87.55
435.798	-155.13
436.009	-169.47
436.221	57.86
436.433	-202.24
436.645	-134.65
436.856	-83.45
437.068	375.29
437.28	-216.57
437.491	145.92
437.703	133.63
437.915	111.1
438.126	-151.04
438.338	164.35
438.55	-30.21
438.761	219.64
438.973	-95.74
439.184	-134.65
439.396	39.42
439.608	299.52
439.819	-206.33
440.031	-30.21
440.242	231.93
440.454	244.22
440.665	-118.27
440.877	-79.36
441.088	172.54
441.3	27.14
441.511	-286.2
441.723	-130.56
441.934	193.02
442.146	100.86
442.357	2.56
442.569	133.63
442.78	16.9
442.991	621.05
443.203	137.73
443.414	-208.38
443.626	403.96
443.837	-87.55
444.048	-216.57
444.26	-314.88
444.471	88.57
444.682	256.51
444.894	-370.17
445.105	-325.12
445.316	236.03
445.528	174.59
445.739	-87.55
445.95	-38.4
446.161	158.21
446.373	297.47
446.584	-65.02
446.795	-177.66
447.006	291.32
447.217	502.26
447.429	-333.31
447.64	-228.86
447.851	383.48
448.062	145.92
448.273	-310.78
448.484	-200.19
448.695	254.46
448.907	74.24
449.118	-103.93
449.329	59.9
449.54	12.8
449.751	-126.46
449.962	-179.71
450.173	-161.28
450.384	358.91
450.595	344.57
450.806	-181.76
451.017	-83.45
451.228	412.15
451.439	348.67
451.65	-161.28
451.861	-364.03
452.072	-46.59
452.283	61.95
452.494	113.15
452.705	-153.09
452.915	487.93
453.126	107.01
453.337	-132.61
453.548	-298.49
453.759	266.75
453.97	674.29
454.181	80.38
454.391	-134.65
454.602	113.15
454.813	276.99
455.024	-83.45
455.235	-108.03
455.445	252.41
455.656	190.97
455.867	104.96
456.078	-142.85
456.288	125.44
456.499	53.76
456.71	-110.08
456.921	68.09
457.131	201.21
457.342	143.87
457.553	-62.98
457.763	-105.98
457.974	246.27
458.184	330.23
458.395	-130.56
458.606	-249.34
458.816	346.62
459.027	528.89
459.237	29.18
459.448	-273.92
459.659	446.97
459.869	645.62
460.08	-316.92
460.29	-11.78
460.501	596.47
460.711	51.71
460.922	-226.81
461.132	-151.04
461.343	874.99
461.553	-157.18
461.764	-196.09
461.974	-91.65
462.184	322.04
462.395	195.07
462.605	-5.63
462.816	-185.85
463.026	133.63
463.236	401.91
463.447	-124.41
463.657	-128.51
463.867	297.47
464.078	27.14
464.288	-28.16
464.498	-120.32
464.709	127.49
464.919	53.76
465.129	-36.35
465.339	-185.85
465.55	201.21
465.76	397.82
465.97	-58.88
466.18	-177.66
466.391	287.23
466.601	264.7
466.811	-5.63
467.021	-181.76
467.231	385.53
467.441	410.11
467.651	2.56
467.862	-370.17
468.072	182.78
468.282	455.16
468.492	-28.16
468.702	-38.4
468.912	252.41
469.122	725.49
469.332	262.65
469.542	-171.52
469.752	381.43
469.962	176.64
470.172	-185.85
470.382	-58.88
470.592	356.86
470.802	436.73
471.012	14.85
471.222	-153.09
471.432	406.01
471.642	401.91
471.852	84.48
472.062	-126.46
472.272	197.12
472.482	-30.21
472.691	-153.09
472.901	-175.61
473.111	301.56
473.321	879.09
473.531	-91.65
473.741	98.81
473.95	379.39
474.16	459.26
474.37	104.96
474.58	-79.36
474.79	657.91
474.999	430.59
475.209	-17.92
475.419	45.57
475.628	281.08
475.838	520.7
476.048	35.33
476.258	-128.51
476.467	578.04
476.677	152.06
476.886	131.58
477.096	117.25
477.306	154.11
477.515	612.85
477.725	59.9
477.935	100.86
478.144	659.96
478.354	186.88
478.563	35.33
478.773	4.61
478.982	578.04
479.192	686.58
479.401	70.14
479.611	-95.74
479.82	47.62
480.03	360.95
480.239	68.09
480.449	-71.17
480.658	707.06
480.868	186.88
481.077	221.69
481.287	123.39
481.496	403.96
481.705	745.97
481.915	412.15
482.124	326.14
482.333	494.07
482.543	707.06
482.752	195.07
482.961	74.24
483.171	657.91
483.38	369.15
483.589	203.26
483.799	84.48
484.008	381.43
484.217	561.66
484.426	240.12
484.636	-5.63
484.845	545.27
485.054	125.44
485.263	438.78
485.472	137.73
485.682	799.22
485.891	371.19
486.1	84.48
486.309	129.53
486.518	494.07
486.727	817.65
486.936	41.47
487.146	301.56
487.355	805.36
487.564	276.99
487.773	250.36
487.982	272.89
488.191	283.13
488.4	539.13
488.609	238.08
488.818	176.64
489.027	1012.21
489.236	844.28
489.445	262.65
489.654	154.11
489.863	686.58
490.072	483.83
490.281	510.46
490.49	338.43
490.698	842.23
490.907	920.05
491.116	205.31
491.325	209.4
491.534	821.75
491.743	629.24
491.952	338.43
492.16	262.65
492.369	668.15
492.578	723.44
492.787	481.78
492.996	111.1
493.204	428.54
493.413	965.11
493.622	166.4
493.831	135.68
494.039	924.15
494.248	406.01
494.457	375.29
494.665	145.92
494.874	727.54
495.083	1163.76
495.291	575.99
495.5	293.37
495.709	760.31
495.917	756.21
496.126	465.4
496.335	358.91
496.543	571.9
496.752	680.44
496.96	575.99
497.169	215.55
497.377	733.68
497.586	897.52
497.794	639.48
498.003	117.25
498.211	643.57
498.42	915.95
498.628	463.35
498.837	301.56
499.045	887.28
499.254	739.83
499.462	436.73
499.671	506.36
499.879	1137.13
500.087	920.05
500.296	330.23
500.504	465.4
500.713	895.47
500.921	1206.77
501.129	403.96
501.338	403.96
501.546	788.98
501.754	756.21
501.962	432.63
502.171	391.67
502.379	920.05
502.587	1106.42
502.795	528.89
503.004	512.5
503.212	745.97
503.42	989.68
503.628	496.12
503.837	614.9
504.045	999.92
504.253	1128.94
504.461	436.73
504.669	412.15
504.877	1001.97
505.085	1200.62
505.294	432.63
505.502	723.44
505.71	971.25
505.918	961.01
506.126	471.54
506.334	528.89
506.542	887.28
506.75	993.78
506.958	725.49
507.166	700.92
507.374	778.74
507.582	1241.58
507.79	834.04
507.998	567.8
508.206	1092.08
508.414	956.91
508.622	549.37
508.83	655.86
509.037	1335.79
509.245	870.9
509.453	612.85
509.661	539.13
509.869	1096.18
510.077	805.36
510.285	831.99
510.492	326.14
510.7	1546.73
510.908	879.09
511.116	594.42
511.324	676.34
511.531	793.08
511.739	997.87
511.947	903.67
512.155	965.11
512.362	940.53
512.57	758.26
512.778	647.67
512.985	502.26
513.193	1266.16
513.401	1321.45
513.608	731.64
513.816	678.39
514.024	1049.07
514.231	1274.35
514.439	776.69
514.646	678.39
514.854	1135.09
515.061	1346.03
515.269	776.69
515.477	723.44
515.684	874.99
515.892	1260.01
516.099	662.01
516.307	678.39
516.514	1243.63
516.722	1446.38
516.929	762.36
517.136	815.6
517.344	1434.09
517.551	1198.57
517.759	815.6
517.966	834.04
518.173	1085.94
518.381	1176.05
518.588	948.72
518.796	686.58
519.003	1366.51
519.21	1102.32
519.418	846.32
519.625	1214.96
519.832	1190.38
520.039	1264.11
520.247	727.54
520.454	868.85
520.661	1313.26
520.868	1401.32
521.076	915.95
521.283	938.48
521.49	1755.62
521.697	1313.26
521.904	944.63
522.112	969.2
522.319	1477.1
522.526	1294.83
522.733	827.89
522.94	883.19
523.147	1253.87
523.354	1587.69
523.561	823.8
523.768	1073.65
523.975	1583.59
524.183	1247.72
524.39	1141.23
524.597	831.99
524.804	1307.12
525.011	1208.81
525.218	874.99
525.425	1049.07
525.632	1593.83
525.838	1108.46
526.045	952.82
526.252	1051.12
526.459	2525.66
526.666	2238.94
526.873	1069.55
527.08	1063.41
527.287	1714.66
527.494	1501.67
527.701	1018.35
527.907	924.15
528.114	1534.44
528.321	1327.6
528.528	1212.91
528.735	1149.42
528.941	1346.03
529.148	1231.34
529.355	1253.87
529.562	1053.17
529.768	1780.2
529.975	1427.95
530.182	1169.9
530.388	1104.37
530.595	1636.84
530.802	1122.8
531.008	1300.97
531.215	1143.28
531.422	1952.23
531.628	2238.94
531.835	1339.88
532.042	1284.59
532.248	1417.71
532.455	1638.89
532.661	1307.12
532.868	1292.78
533.074	1657.32
533.281	1819.11
533.487	1337.84
533.694	1253.87
533.9	1341.93
534.107	1610.22
534.313	1227.25
534.52	1217.01
534.726	1782.24
534.933	1944.03
535.139	1296.88
535.345	1257.96
535.552	1855.97
535.758	1647.08
535.965	1401.32
536.171	1335.79
536.377	1839.59
536.584	2015.71
536.79	1335.79
536.996	1495.53
537.203	1808.87
537.409	1888.74
537.615	1429.99
537.821	1563.11
538.028	1933.79
538.234	1853.92
538.44	1440.23
538.646	1427.95
538.853	1843.68
539.059	1696.23
539.265	1892.84
539.471	1217.01
539.677	1921.51
539.883	1735.14
540.09	1470.95
540.296	1944.03
540.502	1753.57
540.708	1749.48
540.914	1780.2
541.12	1593.83
541.326	2058.72
541.532	1806.82
541.738	1563.11
541.944	1706.47
542.15	2097.63
542.356	1866.21
542.562	1534.44
542.768	1591.78
542.974	2490.84
543.18	2597.34
543.386	1602.02
543.592	1491.43
543.798	2374.11
544.004	2144.74
544.21	1763.81
544.415	1851.88
544.621	2157.02
544.827	2296.28
545.033	1696.23
545.239	1946.08
545.445	1984.99
545.651	2171.36
545.856	1626.6
546.062	1636.84
546.268	1860.07
546.474	2077.15
546.679	1706.47
546.885	1921.51
547.091	1960.42
547.297	2431.45
547.502	1862.12
547.708	1831.4
547.914	1874.4
548.119	2247.13
548.325	1659.37
548.531	1690.09
548.736	2552.28
548.942	2017.76
549.147	1796.58
549.353	2116.06
549.559	2431.45
549.764	2247.13
549.97	1800.68
550.175	1864.16
550.381	2275.81
550.586	2120.16
550.792	1993.19
550.997	1923.55
551.203	2257.37
551.408	2292.19
551.614	1800.68
551.819	1901.03
552.025	2709.97
552.23	2701.78
552.435	1907.17
552.641	2161.12
552.846	2191.84
553.052	2589.14
553.257	2169.31
553.462	2050.53
553.668	2148.83
553.873	2607.58
554.078	1972.71
554.283	1984.99
554.489	2386.4
554.694	2460.12
554.899	1966.56
555.105	2294.24
555.31	2544.09
555.515	2513.37
555.72	2218.46
555.925	2003.43
556.131	2759.13
556.336	2255.33
556.541	2146.78
556.746	2066.91
556.951	2791.89
557.156	2728.41
557.361	2294.24
557.567	2335.2
557.772	2941.4
557.977	2601.43
558.182	2109.92
558.387	2161.12
558.592	2431.45
558.797	2798.04
559.002	2351.58
559.207	2552.28
559.412	2519.51
559.617	3074.51
559.822	2361.82
560.027	2214.37
560.232	2617.82
560.437	2773.46
560.642	2101.73
560.847	2284
561.051	2839
561.256	2619.86
561.461	2464.22
561.666	2302.43
561.871	2771.41
562.076	2841.04
562.281	2517.47
562.485	2284
562.69	2906.58
562.895	2814.42
563.1	2341.34
563.305	2388.44
563.509	3058.13
563.714	3314.13
563.919	2378.2
564.123	2367.96
564.328	2683.35
564.533	3224.01
564.737	2449.88
564.942	2431.45
565.147	3183.06
565.351	3234.25
565.556	2593.24
565.761	2556.38
565.965	2937.3
566.17	2718.17
566.374	2556.38
566.579	2460.12
566.784	2935.25
566.988	2769.37
567.193	2390.49
567.397	2503.13
567.602	2652.63
567.806	2765.27
568.011	2546.14
568.215	2617.82
568.42	2922.96
568.624	2707.93
568.828	2722.26
569.033	2789.85
569.237	3189.2
569.442	3183.06
569.646	2464.22
569.85	2730.45
570.055	3008.98
570.259	3000.79
570.463	2918.87
570.668	2677.21
570.872	2912.72
571.076	2968.02
571.281	2824.66
571.485	2894.29
571.689	3086.8
571.893	3297.74
572.098	2984.4
572.302	2841.04
572.506	3260.88
572.71	3164.62
572.914	2859.48
573.119	2890.2
573.323	3557.83
573.527	3590.6
573.731	2865.62
573.935	2836.95
574.139	3279.31
574.343	3066.32
574.547	2877.91
574.751	2937.3
574.955	3574.22
575.159	3469.77
575.364	2914.77
575.568	2869.72
575.772	3191.25
575.976	3439.05
576.18	3054.03
576.383	2722.26
576.587	3475.91
576.791	3510.73
576.995	2882
577.199	2832.85
577.403	3557.83
577.607	3660.23
577.811	2951.63
578.015	3041.75
578.219	3523.02
578.422	3508.68
578.626	3072.47
578.83	3303.89
579.034	3748.29
579.238	3463.63
579.442	3107.28
579.645	3506.63
579.849	3408.33
580.053	3549.64
580.257	3273.17
580.46	3189.2
580.664	3697.1
580.868	3602.89
581.071	3314.13
581.275	3332.56
581.479	3373.52
581.682	3641.8
581.886	3330.51
582.09	3381.71
582.293	3875.27
582.497	3881.41
582.7	3406.28
582.904	3353.04
583.107	3590.6
583.311	3570.12
583.515	3459.53
583.718	3465.68
583.922	3678.66
584.125	4149.7
584.329	3326.41
584.532	3535.31
584.735	4125.12
584.939	3848.65
585.142	3297.74
585.346	3338.7
585.549	3834.31
585.753	3621.32
585.956	3469.77
586.159	3588.55
586.363	4377.02
586.566	3946.95
586.769	3385.8
586.973	3461.58
587.176	4026.82
587.379	4037.06
587.582	3881.41
587.786	3852.74
587.989	3883.46
588.192	4491.71
588.395	3633.61
588.599	3848.65
588.802	4000.19
589.005	4067.78
589.208	3697.1
589.411	3783.11
589.615	4315.58
589.818	4450.75
590.021	3922.37
590.224	3832.26
590.427	4270.53
590.63	4346.3
590.833	3619.27
591.036	3619.27
591.239	4047.3
591.442	3844.55
591.645	4041.15
591.848	3774.92
592.051	4174.27
592.254	4325.82
592.457	3940.8
592.66	3899.84
592.863	4102.59
593.066	4227.52
593.269	3860.93
593.472	4006.34
593.675	3989.96
593.878	4487.61
594.081	4041.15
594.284	3928.52
594.486	4422.08
594.689	4200.9
594.892	4143.55
595.095	4164.03
595.298	4379.07
595.5	4088.26
595.703	4116.93
595.906	4092.35
596.109	4725.18
596.311	4565.43
596.514	3746.25
596.717	4248
596.92	4690.36
597.122	4504
597.325	3998.15
597.528	4151.74
597.73	4798.9
597.933	4352.45
598.136	4139.46
598.338	3856.84
598.541	4661.69
598.743	4927.92
598.946	4143.55
599.148	4282.81
599.351	4645.31
599.554	4850.1
599.756	4350.4
599.959	4346.3
600.161	4831.67
600.363	5149.11
600.566	4303.29
600.768	4387.26
600.971	5036.47
601.173	4798.9
601.376	4309.44
601.578	4536.76
601.78	4762.04
601.983	5247.41
602.185	4409.79
602.388	4585.91
602.59	4907.45
602.792	4524.47
602.995	4610.49
603.197	4559.29
603.399	5122.48
603.601	4807.09
603.804	4471.23
604.006	4403.64
604.208	4751.8
604.41	4434.36
604.613	4841.91
604.815	4401.6
605.017	5495.21
605.219	4407.74
605.421	4966.84
605.623	4690.36
605.826	5188.02
606.028	5392.81
606.23	4663.74
606.432	4600.25
606.634	5282.22
606.836	5241.26
607.038	4602.3
607.24	4841.91
607.442	4905.4
607.644	5155.25
607.846	4807.09
608.048	4676.02
608.25	5192.11
608.452	4809.14
608.654	4942.26
608.856	4573.63
609.058	5052.85
609.26	5188.02
609.462	4714.94
609.664	4954.55
609.866	5501.36
610.067	5343.66
610.269	5024.18
610.471	4835.77
610.673	5118.39
610.875	5253.55
611.077	4782.52
611.278	4862.39
611.48	5239.22
611.682	5593.51
611.884	5077.43
612.085	4936.12
612.287	5038.52
612.489	5263.79
612.69	4870.58
612.892	5056.95
613.094	5489.07
613.295	5163.44
613.497	4776.38
613.699	5061.04
613.9	5654.95
614.102	5501.36
614.304	5081.52
614.505	4817.33
614.707	5325.23
614.908	5343.66
615.11	4870.58
615.311	5116.34
615.513	5544.36
615.714	5431.73
615.916	5067.19
616.117	5171.63
616.319	5278.13
616.52	5482.92
616.722	5124.53
616.923	5022.13
617.124	5671.34
617.326	5456.3
617.527	5552.56
617.729	5437.87
617.93	5613.99
618.131	5790.12
618.333	5155.25
618.534	5407.15
618.735	5362.09
618.937	6007.2
619.138	5085.62
619.339	5056.95
619.54	5573.03
619.742	5470.64
619.943	5444.01
620.144	5370.29
620.345	5964.2
620.546	5933.48
620.748	5153.2
620.949	5319.09
621.15	5599.66
621.351	5495.21
621.552	5306.8
621.753	5198.26
621.954	5314.99
622.155	6259.1
622.356	5339.57
622.558	5695.91
622.759	5519.79
622.96	6168.99
623.161	5509.55
623.362	5577.13
623.563	5759.4
623.764	5814.7
623.965	5351.85
624.166	5921.19
624.366	5626.28
624.567	5820.84
624.768	5134.77
624.969	5525.93
625.17	5841.32
625.371	5904.81
625.572	5829.03
625.773	5349.81
625.973	6115.75
626.174	6007.2
626.375	5724.58
626.576	5667.24
626.777	6121.89
626.977	6295.97
627.178	5665.19
627.379	5687.72
627.58	5960.1
627.78	5996.96
627.981	5788.07
628.182	5927.33
628.382	6275.49
628.583	5728.68
628.784	5589.42
628.984	5992.87
629.185	6257.06
629.386	6005.16
629.586	5966.24
629.787	5716.39
629.987	6261.15
630.188	6271.39
630.388	5759.4
630.589	6017.44
630.79	6607.26
630.99	6179.23
631.191	5757.35
631.391	5910.95
631.591	6468
631.792	6445.47
631.992	5941.67
632.193	5939.62
632.393	6599.07
632.594	6232.48
632.794	5917.09
632.994	6138.27
633.195	6187.43
633.395	6220.19
633.595	5925.29
633.796	6275.49
633.996	6209.95
634.196	6586.78
634.397	6039.97
634.597	6199.71
634.797	6234.53
634.997	6609.31
635.198	6242.72
635.398	6072.74
635.598	6574.49
635.798	6738.33
635.998	6441.37
636.199	6089.12
636.399	6066.6
636.599	6123.94
636.799	5982.63
636.999	6353.31
637.199	6363.55
637.399	6754.71
637.599	6230.43
637.799	6279.58
637.999	6214.05
638.199	7006.61
638.399	6234.53
638.599	6099.36
638.799	6697.37
638.999	7008.66
639.199	6511
639.399	6515.1
639.599	6871.45
639.799	6437.28
639.999	6377.89
640.199	6130.08
640.399	6719.9
640.599	6642.07
640.799	6691.23
640.998	6429.09
641.198	7207.31
641.398	6900.12
641.598	6631.83
641.798	6617.5
641.997	7557.52
642.197	6736.28
642.397	6734.23
642.597	6398.37
642.796	6818.2
642.996	6979.99
643.196	6723.99
643.395	6420.89
643.595	7039.38
643.795	6554.01
643.994	6605.21
644.194	6498.72
644.394	7066
644.593	6850.97
644.793	6431.13
644.992	6840.73
645.192	6969.75
645.392	6662.55
645.591	6775.19
645.791	6609.31
645.99	7080.34
646.19	7004.57
646.389	6568.35
646.589	6785.43
646.788	7115.16
646.987	7090.58
647.187	7231.89
647.386	6973.85
647.586	7164.31
647.785	7158.16
647.984	7016.85
648.184	6914.45
648.383	7133.59
648.582	7152.02
648.782	6928.79
648.981	7217.55
649.18	6853.02
649.38	7066
649.579	6912.41
649.778	6881.69
649.977	7444.88
650.177	7332.24
650.376	7035.28
650.575	6693.27
650.774	7713.16
650.973	7109.01
651.173	6758.81
651.372	7020.95
651.571	7324.05
651.77	7739.79
651.969	7225.75
652.168	7049.62
652.367	7143.83
652.566	7555.47
652.765	7037.33
652.964	7293.33
653.163	7797.13
653.362	7342.48
653.561	7074.2
653.76	7240.08
653.959	7235.99
654.158	7494.03
654.357	7444.88
654.556	7119.25
654.755	7684.49
654.954	7700.87
655.153	7129.49
655.352	7289.23
655.551	7790.99
655.749	7637.39
655.948	7408.01
656.147	7336.34
656.346	7653.77
656.545	7569.8
656.743	7444.88
656.942	7438.73
657.141	7707.02
657.34	7211.41
657.538	7496.08
657.737	7557.52
657.936	7588.24
658.135	7778.7
658.333	7244.18
658.532	7545.23
658.731	8264.07
658.929	7782.79
659.128	7614.86
659.326	7199.12
659.525	8118.66
659.724	7598.48
659.922	7217.55
660.121	7422.35
660.319	7790.99
660.518	7539.08
660.716	7442.83
660.915	7657.87
661.113	8153.48
661.312	7565.71
661.51	7586.19
661.709	7496.08
661.907	7930.25
662.105	8294.79
662.304	7770.51
662.502	7793.03
662.701	8202.63
662.899	7874.95
663.097	7993.73
663.296	7696.78
663.494	8198.53
663.692	8233.35
663.891	7567.76
664.089	7569.8
664.287	8065.41
664.485	8221.06
664.684	7598.48
664.882	7934.34
665.08	7936.39
665.278	7946.63
665.476	7537.04
665.675	8077.7
665.873	8563.07
666.071	8210.82
666.269	7694.73
666.467	7993.73
666.665	8384.9
666.863	7989.64
667.061	8079.75
667.259	7799.18
667.457	8130.95
667.655	8337.79
667.853	7676.3
668.051	8028.55
668.249	8036.74
668.447	8343.94
668.645	7786.89
668.843	8059.27
669.041	8513.92
669.239	8094.08
669.437	8112.52
669.635	8110.47
669.833	8106.37
670.031	8384.9
670.229	7942.53
670.426	8165.76
670.624	8100.23
670.822	8020.36
671.02	8030.6
671.218	8116.61
671.415	8071.56
671.613	8163.72
671.811	8145.28
672.009	8155.52
672.206	8536.45
672.404	8192.39
672.602	8151.43
672.799	8376.7
672.997	8370.56
673.195	8538.49
673.392	8429.95
673.59	8022.41
673.788	8511.87
673.985	7776.65
674.183	8124.8
674.38	8135.04
674.578	8452.48
674.775	8184.2
674.973	7993.73
675.17	7934.34
675.368	8851.83
675.565	8460.67
675.763	8100.23
675.96	8079.75
676.158	8804.73
676.355	8294.79
676.553	8202.63
676.75	8210.82
676.947	8544.64
677.145	8345.98
677.342	8089.99
677.539	8167.81
677.737	8509.82
677.934	9081.21
678.131	8606.08
678.329	8008.07
678.526	8792.44
678.723	8575.36
678.92	8462.72
679.118	8243.59
679.315	8227.2
679.512	8882.55
679.709	8391.04
679.906	8262.02
680.104	8681.85
680.301	8460.67
680.498	8116.61
680.695	8235.39
680.892	8450.43
681.089	8233.35
681.286	8386.94
681.483	8206.72
681.68	8565.12
681.877	8956.28
682.075	8395.14
682.272	8546.69
682.469	8675.71
682.665	8606.08
682.862	8219.01
683.059	8161.67
683.256	8657.28
683.453	8706.43
683.65	8579.45
683.847	8448.38
684.044	8479.1
684.241	8239.49
684.438	8814.97
684.635	8126.85
684.831	9161.08
685.028	9101.69
685.225	8403.33
685.422	8659.32
685.619	8661.37
685.815	8481.15
686.012	8546.69
686.209	8323.46
686.405	8454.53
686.602	8921.46
686.799	8272.26
686.996	8548.73
687.192	8491.39
687.389	9015.67
687.586	8298.88
687.782	8507.77
687.979	9068.92
688.175	9085.3
688.372	8409.47
688.568	8499.58
688.765	8456.57
688.962	8974.71
689.158	8608.12
689.355	8354.18
689.551	8939.9
689.748	8624.51
689.944	8714.62
690.14	8440.19
690.337	8853.88
690.533	8735.1
690.73	8860.02
690.926	8620.41
691.123	8673.66
691.319	8622.46
691.515	8571.26
691.712	8679.8
691.908	8874.36
692.104	8903.03
692.301	8552.83
692.497	8397.18
692.693	8976.76
692.889	8972.66
693.086	8683.9
693.282	8522.11
693.478	8931.7
693.674	9220.47
693.87	8694.14
694.067	8419.71
694.263	8935.8
694.459	8862.07
694.655	8798.59
694.851	8814.97
695.047	8866.17
695.243	8874.36
695.439	8743.29
695.635	8677.76
695.831	9107.83
696.027	8958.33
696.224	8585.6
696.42	9308.53
696.615	9349.49
696.811	9185.65
697.007	8505.73
697.203	8702.33
697.399	8835.45
697.595	9302.39
697.791	8495.49
697.987	8774.01
698.183	8614.27
698.379	8628.6
698.575	8880.5
698.77	8642.94
698.966	9087.35
699.162	9120.12
699.358	8808.83
699.554	8794.49
699.749	9161.08
699.945	9009.53
700.141	8825.21
700.337	8702.33
700.532	8943.99
700.728	8731
700.924	8653.18
701.119	8374.66
701.315	9202.04
701.511	8974.71
701.706	8911.22
701.902	8534.4
702.097	8997.24
702.293	9185.65
702.489	8923.51
702.684	8798.59
702.88	9050.49
703.075	8968.57
703.271	8710.52
703.466	8671.61
703.662	8939.9
703.857	9087.35
704.053	8800.63
704.248	8751.48
704.443	9253.23
704.639	9191.8
704.834	8886.65
705.03	8696.19
705.225	9097.59
705.42	9312.63
705.616	8921.46
705.811	8550.78
706.006	8903.03
706.202	9044.34
706.397	8716.67
706.592	8673.66
706.787	9118.07
706.983	9056.63
707.178	9249.14
707.373	8907.13
707.568	9148.79
707.763	9267.57
707.959	8898.94
708.154	8964.47
708.349	9101.69
708.544	9148.79
708.739	8995.19
708.934	8700.28
709.129	9314.67
709.324	9179.51
709.519	8898.94
709.714	8733.05
709.909	9523.57
710.104	9202.04
710.299	8860.02
710.494	8935.8
710.689	9179.51
710.884	9216.37
711.079	8943.99
711.274	9177.46
711.469	9357.68
711.664	9242.99
711.859	8876.41
712.054	9060.73
712.249	9326.96
712.443	9427.31
712.638	8796.54
712.833	8651.13
713.028	9154.93
713.223	8980.85
713.417	9197.94
713.612	8855.93
713.807	9472.37
714.002	9646.44
714.196	9286
714.391	8919.42
714.586	9433.46
714.78	9179.51
714.975	9097.59
715.17	9007.48
715.364	9163.12
715.559	9498.99
715.754	8612.22
715.948	8737.15
716.143	9707.88
716.337	9222.52
716.532	9224.56
716.726	8882.55
716.921	9523.57
717.115	9404.78
717.31	8794.49
717.504	9478.51
717.699	9038.2
717.893	9269.62
718.088	8890.74
718.282	8894.84
718.476	9152.88
718.671	9312.63
718.865	8733.05
719.059	8948.09
719.254	9077.11
719.448	9498.99
719.642	10322.27
719.837	8761.72
720.031	9410.93
720.225	9423.22
720.419	9060.73
720.614	8925.56
720.808	9343.35
721.002	8995.19
721.196	8917.37
721.39	9189.75
721.585	9288.05
721.779	9369.97
721.973	9050.49
722.167	8608.12
722.361	9298.29
722.555	9365.87
722.749	8952.18
722.943	8917.37
723.137	8755.58
723.331	9257.33
723.525	8997.24
723.719	9019.77
723.913	9533.81
724.107	9640.3
724.301	8765.82
724.495	9070.97
724.689	9709.93
724.883	9580.91
725.077	8845.69
725.271	9027.96
725.465	9331.06
725.659	9187.7
725.853	9050.49
726.046	8898.94
726.24	9023.86
726.434	9429.36
726.628	8927.61
726.822	9050.49
727.015	9638.25
727.209	9482.61
727.403	8958.33
727.596	8919.42
727.79	9632.11
727.984	9533.81
728.177	8931.7
728.371	9136.5
728.565	9660.78
728.758	9064.82
728.952	9101.69
729.146	9128.31
729.339	9664.88
729.533	9341.3
729.726	9228.66
729.92	9105.78
730.113	9642.35
730.307	9337.2
730.5	9212.28
730.694	9120.12
730.887	9261.43
731.081	9664.88
731.274	9079.16
731.468	9060.73
731.661	9369.97
731.854	9337.2
732.048	9199.99
732.241	8978.81
732.435	9171.32
732.628	9464.18
732.821	9171.32
733.014	8980.85
733.208	9326.96
733.401	9662.83
733.594	9054.58
733.788	9216.37
733.981	9748.84
734.174	9619.82
734.367	9120.12
734.56	9136.5
734.754	9705.84
734.947	9376.11
735.14	9271.67
735.333	9226.61
735.526	9558.38
735.719	9245.04
735.912	9228.66
736.105	9230.71
736.298	9472.37
736.491	9281.91
736.684	8997.24
736.877	9222.52
737.07	9400.69
737.263	9922.92
737.456	9083.25
737.649	9171.32
737.842	9417.07
738.035	9597.29
738.228	9070.97
738.421	9355.63
738.614	9894.25
738.807	9972.07
739	9003.38
739.192	9216.37
739.385	9836.91
739.578	9742.7
739.771	9617.77
739.964	9197.94
740.156	9754.99
740.349	9458.03
740.542	9415.02
740.735	9308.53
740.927	9425.26
741.12	9441.65
741.313	9222.52
741.505	9623.92
741.698	9736.56
741.891	9769.32
742.083	9550.19
742.276	9417.07
742.468	9431.41
742.661	9515.37
742.854	9365.87
743.046	9128.31
743.239	10047.85
743.431	9449.84
743.624	9505.13
743.816	9259.38
744.009	9607.53
744.201	9677.16
744.393	9664.88
744.586	9128.31
744.778	9869.67
744.971	9728.36
745.163	9443.7
745.355	9458.03
745.548	9468.27
745.74	9529.71
745.932	9423.22
746.125	9523.57
746.317	10283.36
746.509	9464.18
746.702	9220.47
746.894	9316.72
747.086	9529.71
747.278	9922.92
747.471	9498.99
747.663	9318.77
747.855	9671.02
748.047	10021.22
748.239	9410.93
748.431	9322.87
748.623	10213.73
748.815	9722.22
749.008	9130.36
749.2	9429.36
749.392	9679.21
749.584	9689.45
749.776	9251.19
749.968	9357.68
750.16	10135.91
750.352	9615.73
750.544	9525.61
750.736	9337.2
750.928	9767.27
751.12	9697.64
751.311	9193.84
751.503	9404.78
751.695	9728.36
751.887	9546.09
752.079	9232.76
752.271	9333.11
752.463	10428.77
752.654	9988.46
752.846	9224.56
753.038	9214.32
753.23	9656.68
753.421	9726.32
753.613	9286
753.805	9480.56
753.997	9838.95
754.188	10045.8
754.38	9290.1
754.572	9431.41
754.763	9587.05
754.955	9570.67
755.146	9167.22
755.338	9406.83
755.53	9705.84
755.721	9572.72
755.913	9202.04
756.104	8956.28
756.296	9644.4
756.487	9757.04
756.679	9333.11
756.87	9251.19
757.062	9398.64
757.253	9580.91
757.445	9292.15
757.636	9415.02
757.827	9529.71
758.019	10248.55
758.21	9281.91
758.401	9521.52
758.593	9974.12
758.784	9808.23
758.975	9161.08
759.167	9070.97
759.358	9587.05
759.549	9853.29
759.74	9318.77
759.932	9167.22
760.123	9677.16
760.314	9394.54
760.505	9521.52
760.696	9179.51
760.888	9916.78
761.079	9595.25
761.27	9349.49
761.461	9048.44
761.652	9783.66
761.843	9468.27
762.034	9589.1
762.225	9599.34
762.416	9687.4
762.607	9400.69
762.798	9259.38
762.989	9212.28
763.18	10361.19
763.371	9034.1
763.562	9236.85
763.753	9171.32
763.944	9757.04
764.135	9660.78
764.326	9476.46
764.517	9093.49
764.708	9441.65
764.899	9603.44
765.089	9042.29
765.28	8982.9
765.471	9611.63
765.662	9664.88
765.853	9218.42
766.043	8950.14
766.234	9750.89
766.425	9384.3
766.615	9128.31
766.806	8866.17
766.997	9564.53
767.187	9548.14
767.378	9128.31
767.569	8860.02
767.759	9429.36
767.95	9406.83
768.141	9224.56
768.331	9005.43
768.522	9259.38
768.712	9572.72
768.903	9224.56
769.093	8788.35
769.284	9836.91
769.474	9492.85
769.665	8835.45
769.855	8864.12
770.046	9589.1
770.236	9081.21
770.426	9124.21
770.617	9056.63
770.807	9343.35
770.998	9294.19
771.188	9154.93
771.378	8868.22
771.569	9634.16
771.759	9451.89
771.949	8606.08
772.139	8956.28
772.33	9091.45
772.52	9720.17
772.71	8894.84
772.9	8964.47
773.09	9464.18
773.281	9754.99
773.471	8997.24
773.661	8786.3
773.851	9525.61
774.041	9056.63
774.231	8933.75
774.421	9277.81
774.611	9517.42
774.802	9073.01
774.992	8923.51
775.182	9042.29
775.372	9228.66
775.562	9337.2
775.752	9064.82
775.942	9025.91
776.131	9484.66
776.321	9220.47
776.511	8767.87
776.701	8759.67
776.891	9542
777.081	8874.36
777.271	8909.18
777.461	8767.87
777.651	9349.49
777.84	9347.44
778.03	8948.09
778.22	8728.95
778.41	9423.22
778.599	8976.76
778.789	8792.44
778.979	8872.31
779.169	8972.66
779.358	9156.98
779.548	9245.04
779.738	8450.43
779.927	9124.21
780.117	8806.78
780.307	8679.8
780.496	8522.11
780.686	9195.89
780.875	9474.42
781.065	8800.63
781.254	8774.01
781.444	9136.5
781.633	8960.38
781.823	8778.11
782.012	8876.41
782.202	8659.32
782.391	8835.45
782.581	8585.6
782.77	8923.51
782.96	9056.63
783.149	8751.48
783.338	8827.26
783.528	8493.44
783.717	9298.29
783.906	9144.69
784.096	8825.21
784.285	8612.22
784.474	8759.67
784.663	8814.97
784.853	8804.73
785.042	8878.46
785.231	8802.68
785.42	9202.04
785.61	8851.83
785.799	8591.74
785.988	8769.91
786.177	8698.24
786.366	8632.7
786.555	8667.52
786.744	9023.86
786.933	8903.03
787.122	8704.38
787.312	8599.93
787.501	8765.82
787.69	9073.01
787.879	8534.4
788.068	8735.1
788.257	8532.35
788.445	8636.8
788.634	8620.41
788.823	8604.03
789.012	9480.56
789.201	9152.88
789.39	8681.85
789.579	8511.87
789.768	8886.65
789.957	8837.5
790.145	8622.46
790.334	8253.83
790.523	8665.47
790.712	8784.25
790.9	8536.45
791.089	8352.13
791.278	9068.92
791.467	8624.51
791.655	8829.31
791.844	8833.4
792.033	8614.27
792.221	8673.66
792.41	8636.8
792.599	8264.07
792.787	8978.81
792.976	8939.9
793.164	8421.76
793.353	8411.52
793.541	8933.75
793.73	8892.79
793.918	8452.48
794.107	8499.58
794.295	8515.97
794.484	8870.26
794.672	8466.81
794.861	8509.82
795.049	8800.63
795.238	9075.06
795.426	8221.06
795.614	8567.17
795.803	8966.52
795.991	9040.25
796.179	8577.41
796.368	8647.04
796.556	9019.77
796.744	8532.35
796.932	8350.08
797.121	8087.94
797.309	8718.71
797.497	8919.42
797.685	8536.45
797.874	8186.24
798.062	8659.32
798.25	8956.28
798.438	8427.9
798.626	8380.8
798.814	8814.97
799.002	9095.54
799.19	8679.8
799.378	8368.51
799.566	8943.99
799.755	8915.32
799.943	8630.65
800.131	8479.1
800.318	8618.36
800.506	8978.81
800.694	8403.33
800.882	8702.33
801.07	9101.69
801.258	8591.74
801.446	8397.18
801.634	8403.33
801.822	8659.32
802.01	8616.32
802.197	8464.77
802.385	8677.76
802.573	8755.58
802.761	8624.51
802.949	8593.79
803.136	8176
803.324	9032.05
803.512	8726.91
803.699	8499.58
803.887	8440.19
804.075	9286
804.262	8919.42
804.45	8466.81
804.638	8792.44
804.825	8710.52
805.013	8657.28
805.201	8759.67
805.388	8380.8
805.576	9042.29
805.763	9353.59
805.951	8831.35
806.138	8716.67
806.326	9621.87
806.513	9263.47
806.701	8597.88
806.888	8743.29
807.075	9023.86
807.263	9347.44
807.45	8378.75
807.638	8900.98
807.825	9587.05
808.012	9095.54
808.2	8735.1
808.387	9040.25
808.574	9202.04
808.761	9460.08
808.949	8829.31
809.136	8907.13
809.323	9165.17
809.51	8878.46
809.698	9216.37
809.885	8960.38
810.072	9183.6
810.259	9503.09
810.446	9040.25
810.633	8860.02
810.82	9453.94
811.008	9671.02
811.195	8974.71
811.382	8831.35
811.569	9253.23
811.756	8812.92
811.943	9091.45
812.13	8913.27
812.317	9236.85
812.504	9304.43
812.691	9269.62
812.878	9251.19
813.064	9703.79
813.251	9308.53
813.438	9038.2
813.625	9056.63
813.812	9126.26
813.999	9314.67
814.186	9144.69
814.372	9070.97
814.559	9333.11
814.746	9593.2
814.933	9019.77
815.12	9054.58
815.306	8882.55
815.493	9107.83
815.68	8966.52
815.866	9001.33
816.053	9677.16
816.24	9697.64
816.426	9249.14
816.613	8935.8
816.799	9337.2
816.986	9546.09
817.173	9103.73
817.359	8798.59
817.546	9507.18
817.732	9001.33
817.919	8995.19
818.105	8960.38
818.292	9113.97
818.478	9331.06
818.665	9226.61
818.851	8982.9
819.037	9785.71
819.224	9187.7
819.41	8968.57
819.597	8933.75
819.783	9550.19
819.969	9443.7
820.156	9097.59
820.342	8786.3
820.528	10056.04
820.714	9122.16
820.901	9101.69
821.087	9222.52
821.273	9562.48
821.459	9179.51
821.646	9021.81
821.832	8874.36
822.018	9197.94
822.204	9294.19
822.39	9173.36
822.576	8892.79
822.762	9386.35
822.948	9265.52
823.134	9206.13
823.32	8921.46
823.507	9001.33
823.693	9202.04
823.879	9517.42
824.065	9064.82
824.25	9179.51
824.436	8900.98
824.622	8870.26
824.808	8976.76
824.994	9177.46
825.18	8989.05
825.366	8743.29
825.552	8997.24
825.738	9159.03
825.923	9421.17
826.109	9277.81
826.295	8806.78
826.481	9005.43
826.667	9013.62
826.852	8954.23
827.038	8745.34
827.224	9226.61
827.409	9509.23
827.595	8780.15
827.781	9017.72
827.966	9183.6
828.152	9179.51
828.338	8929.66
828.523	8714.62
828.709	8962.42
828.894	9460.08
829.08	8868.22
829.266	8925.56
829.451	8941.94
829.637	9245.04
829.822	8907.13
830.008	8939.9
830.193	9273.71
830.378	9376.11
830.564	8888.7
830.749	8610.17
830.935	9222.52
831.12	8894.84
831.305	8669.56
831.491	8759.67
831.676	8690.04
831.861	9046.39
832.047	8636.8
832.232	8464.77
832.417	9175.41
832.602	8925.56
832.788	8724.86
832.973	8563.07
833.158	8948.09
833.343	8892.79
833.528	8532.35
833.714	8696.19
833.899	9107.83
834.084	9304.43
834.269	8841.59
834.454	8573.31
834.639	9062.77
834.824	8685.95
835.009	8628.6
835.194	8776.06
835.379	8954.23
835.564	8970.62
835.749	8788.35
835.934	8370.56
836.119	9011.57
836.304	8923.51
836.489	8548.73
836.674	8847.74
836.859	8583.55
837.044	9134.45
837.228	8604.03
837.413	8319.36
837.598	8980.85
837.783	9027.96
837.968	8530.3
838.152	8204.67
838.337	8460.67
838.522	9013.62
838.707	8665.47
838.891	8374.66
839.076	8835.45
839.261	8864.12
839.445	8335.74
839.63	8440.19
839.815	9048.44
839.999	8511.87
840.184	8309.12
840.368	8528.25
840.553	8833.4
840.737	8800.63
840.922	8237.44
841.106	8186.24
841.291	8522.11
841.475	8524.16
841.66	8255.87
841.844	8233.35
842.029	9230.71
842.213	8360.32
842.397	8360.32
842.582	8264.07
842.766	8997.24
842.951	8898.94
843.135	8227.2
843.319	8386.94
843.504	8614.27
843.688	8948.09
843.872	8221.06
844.056	8251.78
844.241	8739.19
844.425	8305.03
844.609	8255.87
844.793	7727.5
844.977	8776.06
845.161	8542.59
845.346	8098.18
845.53	8268.16
845.714	8526.21
845.898	8954.23
846.082	7940.49
846.266	8061.32
846.45	8296.83
846.634	8411.52
846.818	8124.8
847.002	8239.49
847.186	8487.29
847.37	8214.91
847.554	7958.92
847.738	8239.49
847.922	8354.18
848.106	8329.6
848.29	7960.97
848.473	8026.5
848.657	8585.6
848.841	8317.31
849.025	8243.59
849.209	7915.91
849.392	8442.24
849.576	8358.27
849.76	7793.03
849.944	8069.51
850.127	8698.24
850.311	7995.78
850.495	7874.95
850.678	7899.53
850.862	8495.49
851.046	8503.68
851.229	8360.32
851.413	8022.41
851.596	8120.71
851.78	8264.07
851.964	8112.52
852.147	8108.42
852.331	8913.27
852.514	8614.27
852.698	8049.03
852.881	7811.46
853.065	8403.33
853.248	8075.65
853.431	7924.1
853.615	8079.75
853.798	8667.52
853.982	8333.7
854.165	8040.84
854.348	7844.23
854.532	8051.08
854.715	8200.58
854.898	7854.47
855.081	7975.3
855.265	8302.98
855.448	8649.08
855.631	7766.41
855.814	7917.96
855.997	8374.66
856.181	8020.36
856.364	8006.02
856.547	7530.89
856.73	8147.33
856.913	7917.96
857.096	7432.59
857.279	7606.67
857.462	7854.47
857.645	8227.2
857.828	7940.49
858.011	7903.62
858.194	7905.67
858.377	8055.17
858.56	7549.32
858.743	7926.15
858.926	7801.22
859.109	8112.52
859.292	7817.61
859.475	7430.54
859.658	8434.05
859.841	8032.65
860.023	7686.54
860.206	7575.95
860.389	7915.91
860.572	8087.94
860.755	7717.26
860.937	7733.64
861.12	7942.53
861.303	7803.27
861.486	7670.15
861.668	7721.35
861.851	7944.58
862.034	7973.25
862.216	7653.77
862.399	7440.78
862.581	7815.56
862.764	8200.58
862.947	7479.69
863.129	7346.58
863.312	7580.04
863.494	8210.82
863.677	7821.7
863.859	7240.08
864.042	7983.49
864.224	7971.21
864.406	7713.16
864.589	7289.23
864.771	7743.88
864.954	7289.23
865.136	7209.36
865.318	7195.03
865.501	7866.76
865.683	7068.05
865.865	7457.17
866.048	7199.12
866.23	7727.5
866.412	7770.51
866.594	7244.18
866.777	7322
866.959	7715.21
867.141	7485.84
867.323	7528.85
867.505	7500.17
867.687	7514.51
867.869	7641.48
868.052	7313.81
868.234	7213.46
868.416	7469.45
868.598	7610.76
868.78	7137.68
868.962	7225.75
869.144	7950.73
869.326	7616.91
869.508	7240.08
869.69	7166.35
869.872	7287.18
870.054	7897.48
870.236	6955.41
870.417	7119.25
870.599	7532.94
870.781	7969.16
870.963	7235.99
871.145	7139.73
871.327	7309.71
871.508	7451.02
871.69	7276.94
871.872	7319.95
872.054	7397.78
872.235	7657.87
872.417	7141.78
872.599	7098.77
872.78	7899.53
872.962	7537.04
873.144	6814.1
873.325	7266.71
873.507	8030.6
873.689	7575.95
873.87	7023
874.052	7346.58
874.233	7393.68
874.415	7799.18
874.596	7313.81
874.778	7188.88
874.959	7543.18
875.141	7790.99
875.322	7252.37
875.503	7074.2
875.685	7506.32
875.866	7078.29
876.048	7102.87
876.229	7072.15
876.41	7688.59
876.592	7815.56
876.773	7391.63
876.954	7192.98
877.136	7833.99
877.317	7641.48
877.498	6982.04
877.679	7342.48
877.86	7766.41
878.042	7569.8
878.223	7252.37
878.404	7686.54
878.585	7833.99
878.766	8024.45
878.947	7641.48
879.128	7575.95
879.309	7838.09
879.49	7956.87
879.672	7438.73
879.853	7602.57
880.034	7315.86
880.215	7698.83
880.396	7358.86
880.576	7451.02
880.757	7604.62
880.938	7893.38
881.119	7309.71
881.3	7354.77
881.481	7813.51
881.662	8671.61
881.843	7387.54
882.023	7373.2
882.204	7946.63
882.385	7838.09
882.566	7514.51
882.747	7395.73
882.927	7786.89
883.108	8001.93
883.289	7680.39
883.469	7868.81
883.65	7854.47
883.831	7768.46
884.011	7899.53
884.192	7608.72
884.373	8259.97
884.553	7926.15
884.734	7836.04
884.914	7960.97
885.095	8620.41
885.275	8313.22
885.456	7854.47
885.636	7670.15
885.817	7979.4
885.997	7901.58
886.178	7614.86
886.358	7788.94
886.538	8094.08
886.719	9109.88
886.899	7805.32
887.08	7956.87
887.26	8405.38
887.44	7655.82
887.621	7768.46
887.801	7930.25
887.981	8673.66
888.161	8337.79
888.342	7772.55
888.522	7926.15
888.702	8432
888.882	8610.17
889.062	7971.21
889.242	7860.62
889.423	8751.48
889.603	8493.44
889.783	8311.17
889.963	7819.66
890.143	8558.97
890.323	8554.88
890.503	8034.69
890.683	7932.29
890.863	8280.45
891.043	8225.15
891.223	8171.91
891.403	8159.62
891.583	8374.66
891.763	8321.41
891.943	8038.79
892.122	7823.75
892.302	8405.38
892.482	8294.79
892.662	8407.42
892.842	8206.72
893.022	8475.01
893.201	8114.56
893.381	8210.82
893.561	8145.28
893.741	8440.19
893.92	8305.03
894.1	8163.72
894.28	8014.21
894.459	8610.17
894.639	8690.04
894.819	8176
894.998	8092.04
895.178	8509.82
895.357	8556.93
895.537	7971.21
895.716	7901.58
895.896	8253.83
896.075	8786.3
896.255	8137.09
896.434	7788.94
896.614	8552.83
896.793	8749.43
896.973	8501.63
897.152	8231.3
897.331	8522.11
897.511	8483.2
897.69	7831.94
897.87	8313.22
898.049	8518.01
898.228	8370.56
898.407	8249.73
898.587	8280.45
898.766	8034.69
898.945	8350.08
899.124	8409.47
899.304	8268.16
899.483	8458.62
899.662	8669.56
899.841	7997.83
900.02	7901.58
900.199	8671.61
900.378	8468.86
900.557	8063.36
900.737	8049.03
900.916	8526.21
901.095	8345.98
901.274	8321.41
901.453	7836.04
901.632	8046.98
901.811	8073.6
901.989	7737.74
902.168	8042.89
902.347	8479.1
902.526	8042.89
902.705	7815.56
902.884	8139.14
903.063	8604.03
903.242	8497.53
903.42	7754.12
903.599	7971.21
903.778	8323.46
903.957	8337.79
904.135	8057.22
904.314	7866.76
904.493	8284.55
904.672	8288.64
904.85	8030.6
905.029	7938.44
905.207	8176
905.386	8823.16
905.565	7610.76
905.743	7850.38
905.922	7922.06
906.1	8067.46
906.279	7772.55
906.457	7672.2
906.636	7909.77
906.814	7913.86
906.993	7831.94
907.171	7659.92
907.35	8264.07
907.528	8233.35
907.707	7926.15
907.885	7365.01
908.063	8085.89
908.242	7668.11
908.42	7727.5
908.598	7285.14
908.777	7934.34
908.955	7729.55
909.133	7330.19
909.311	7514.51
909.49	7578
909.668	7723.4
909.846	7405.97
910.024	7086.48
910.202	7909.77
910.38	7991.69
910.559	7215.51
910.737	7457.17
910.915	7934.34
911.093	7956.87
911.271	7293.33
911.449	7694.73
911.627	7786.89
911.805	7973.25
911.983	7326.1
912.161	7291.28
912.339	7571.85
912.517	7922.06
912.695	7537.04
912.872	7336.34
913.05	7344.53
913.228	7563.66
913.406	7266.71
913.584	7246.23
913.762	7711.11
913.939	7422.35
914.117	7160.21
914.295	7109.01
914.473	7715.21
914.65	7653.77
914.828	7076.24
915.006	7018.9
915.184	7274.9
915.361	7287.18
915.539	6945.17
915.716	7295.38
915.894	7432.59
916.072	7377.3
916.249	7145.87
916.427	7240.08
916.604	6957.46
916.782	7080.34
916.959	6945.17
917.137	7049.62
917.314	7332.24
917.492	7379.34
917.669	6994.33
917.847	6916.5
918.024	7346.58
918.201	6994.33
918.379	6961.56
918.556	6861.21
918.733	7338.38
918.911	6979.99
919.088	7047.57
919.265	6791.58
919.442	7235.99
919.62	6904.21
919.797	6519.2
919.974	6580.64
920.151	7199.12
920.328	6934.93
920.506	6660.51
920.683	6853.02
920.86	6453.66
921.037	6810.01
921.214	6558.11
921.391	6535.58
921.568	7059.86
921.745	6592.92
921.922	6496.67
922.099	6511
922.276	7025.04
922.453	6889.88
922.63	6365.6
922.807	6687.13
922.984	6896.02
923.161	6564.25
923.338	6424.99
923.514	6330.78
923.691	6654.36
923.868	6656.41
924.045	6349.22
924.222	6199.71
924.399	6525.34
924.575	6707.61
924.752	6285.73
924.929	6281.63
925.105	6498.72
925.282	6166.95
925.459	6048.16
925.635	6193.57
925.812	6355.36
925.989	6404.51
926.165	6158.75
926.342	5747.11
926.518	5837.22
926.695	6263.2
926.871	5781.93
927.048	5812.65
927.224	6468
927.401	6042.02
927.577	5941.67
927.754	5982.63
927.93	6336.93
928.107	6338.98
928.283	5902.76
928.459	6007.2
928.636	6261.15
928.812	6064.55
928.988	5620.14
929.165	5472.68
929.341	5970.34
929.517	6095.27
929.693	5982.63
929.87	5468.59
930.046	5919.14
930.222	5587.37
930.398	5558.7
930.574	5886.37
930.751	5700.01
930.927	5417.39
931.103	5366.19
931.279	5441.96
931.455	5327.28
931.631	5853.61
931.807	5050.8
931.983	5050.8
932.159	5231.02
932.335	5466.54
932.511	5378.48
932.687	4925.88
932.863	5435.82
933.039	5454.25
933.215	5065.14
933.391	4952.5
933.566	5269.94
933.742	5214.64
933.918	5028.28
934.094	4782.52
934.27	5204.4
934.445	5208.5
934.621	4917.68
934.797	4653.5
934.973	5278.13
935.148	4985.27
935.324	4669.88
935.5	4417.98
935.675	5151.15
935.851	4993.46
936.027	4499.9
936.202	4463.04
936.378	4602.3
936.553	4542.91
936.729	4778.42
936.904	4141.5
937.08	4071.87
937.255	4094.4
937.431	3869.12
937.606	3856.84
937.782	4075.97
937.957	4049.35
938.133	3910.08
938.308	3647.94
938.483	3951.04
938.659	3609.03
938.834	3670.47
939.009	3568.07
939.185	3674.57
939.36	3723.72
939.535	3080.66
939.71	3434.96
939.886	3756.49
940.061	3547.59
940.236	3402.19
940.411	3140.05
940.586	3529.16
940.761	3443.15
940.937	3000.79
941.112	3076.56
941.287	3230.16
941.462	3201.49
941.637	2834.9
941.812	2812.37
941.987	3191.25
942.162	3058.13
942.337	3015.12
942.512	2832.85
942.687	3219.92
942.862	3203.54
943.037	2589.14
943.212	2603.48
943.386	2808.28
943.561	3123.66
943.736	3072.47
943.911	2935.25
944.086	3021.27
944.26	2972.11
944.435	2621.91
944.61	2879.96
944.785	3289.55
944.959	3389.9
945.134	2628.06
945.309	2679.26
945.483	2693.59
945.658	3154.38
945.833	2320.86
946.007	2501.08
946.182	3107.28
946.357	2767.32
946.531	2585.05
946.706	2597.34
946.88	2451.93
947.055	3017.17
947.229	2583
947.404	2370.01
947.578	3000.79
947.752	2822.61
947.927	2460.12
948.101	2468.31
948.276	2935.25
948.45	2771.41
948.624	2791.89
948.799	2671.06
948.973	2961.87
949.147	2470.36
949.321	2716.12
949.496	2451.93
949.67	3011.03
949.844	2793.94
950.018	2646.49
950.193	2709.97
950.367	3295.69
950.541	2759.13
950.715	2785.75
950.889	2834.9
951.063	2798.04
951.237	3164.62
951.411	2380.25
951.585	2456.03
951.759	2814.42
951.933	2879.96
952.107	2552.28
952.281	2775.51
952.455	3252.69
952.629	3125.71
952.803	2583
952.977	2494.94
953.151	2929.11
953.325	2814.42
953.499	2695.64
953.672	2550.23
953.846	2628.06
954.02	2650.58
954.194	2468.31
954.368	2515.42
954.541	2955.73
954.715	2646.49
954.889	2738.65
955.062	2361.82
955.236	2705.88
955.41	2802.13
955.583	2855.38
955.757	2380.25
955.93	2736.6
956.104	2599.38
956.278	2580.95
956.451	2611.67
956.625	2873.81
956.798	3131.86
956.972	2771.41
957.145	2408.92
957.319	2806.23
957.492	2730.45
957.665	2873.81
957.839	2566.62
958.012	2873.81
958.185	2705.88
958.359	2501.08
958.532	2623.96
958.705	2931.16
958.879	2841.04
959.052	2570.71
959.225	2353.63
959.398	2785.75
959.572	2818.52
959.745	2460.12
959.918	2609.62
960.091	2599.38
960.264	2765.27
960.438	2345.44
960.611	2437.59
960.784	2789.85
960.957	2623.96
961.13	2832.85
961.303	2384.35
961.476	2750.93
961.649	2894.29
961.822	2382.3
961.995	2496.99
962.168	2814.42
962.341	2726.36
962.514	2507.23
962.686	2546.14
962.859	2808.28
963.032	2716.12
963.205	2556.38
963.378	2286.05
963.551	2759.13
963.723	2626.01
963.896	2558.42
964.069	2537.95
964.242	2699.73
964.414	2787.8
964.587	2488.79
964.76	2388.44
964.932	2664.92
965.105	2548.19
965.278	2374.11
965.45	2320.86
965.623	2662.87
965.795	2869.72
965.968	2554.33
966.14	2300.38
966.313	2490.84
966.485	2736.6
966.658	2308.57
966.83	2271.71
967.003	2918.87
967.175	2750.93
967.348	2384.35
967.52	2337.24
967.692	3025.36
967.865	2726.36
968.037	2433.5
968.209	2605.53
968.382	2550.23
968.554	2683.35
968.726	2353.63
968.898	2255.33
969.071	2689.49
969.243	2695.64
969.415	2443.74
969.587	2435.55
969.759	3189.2
969.932	2851.28
970.104	2359.77
970.276	2060.77
970.448	2372.06
970.62	2316.76
970.792	2361.82
970.964	2480.6
971.136	3054.03
971.308	2683.35
971.48	2337.24
971.652	2224.61
971.824	2931.16
971.996	2394.59
972.168	2421.21
972.339	2337.24
972.511	2664.92
972.683	2468.31
972.855	2574.81
973.027	2284
973.199	2460.12
973.37	2636.25
973.542	2396.64
973.714	2468.31
973.886	2445.79
974.057	2548.19
974.229	2095.58
974.401	2197.98
974.572	2281.95
974.744	2034.14
974.915	2075.1
975.087	2050.53
975.259	2748.89
975.43	2378.2
975.602	2193.89
975.773	2195.93
975.945	2261.47
976.116	2603.48
976.288	2316.76
976.459	2410.97
976.63	2335.2
976.802	2501.08
976.973	2212.32
977.145	2214.37
977.316	2906.58
977.487	2566.62
977.659	2345.44
977.83	2234.85
978.001	2789.85
978.172	2542.04
978.344	2093.54
978.515	2083.3
978.686	2271.71
978.857	2826.71
979.028	2161.12
979.2	2136.54
979.371	2558.42
979.542	2288.09
979.713	2206.17
979.884	1853.92
980.055	2116.06
980.226	2255.33
980.397	2058.72
980.568	1989.09
980.739	2515.42
980.91	2388.44
981.081	2247.13
981.252	2044.38
981.423	2398.68
981.594	2451.93
981.765	2079.2
981.936	2212.32
982.106	2324.96
982.277	2496.99
982.448	1919.46
982.619	2189.79
982.79	2064.86
982.96	2542.04
983.131	2062.82
983.302	1685.99
983.472	2142.69
983.643	2257.37
983.814	2167.26
983.984	1915.36
984.155	2218.46
984.326	2394.59
984.496	1993.19
984.667	1982.95
984.837	2062.82
985.008	2542.04
985.178	1993.19
985.349	1958.37
985.519	2050.53
985.69	1931.75
985.86	2058.72
986.031	1817.06
986.201	2154.98
986.371	2273.76
986.542	1788.39
986.712	1780.2
986.882	2208.22
987.053	2228.7
987.223	1808.87
987.393	2025.95
987.563	1964.51
987.734	2181.6
987.904	2148.83
988.074	1817.06
988.244	2271.71
988.414	1978.85
988.585	1755.62
988.755	1962.47
988.925	2120.16
989.095	2523.61
989.265	1767.91
989.435	1886.69
989.605	2202.08
989.775	2261.47
989.945	2159.07
990.115	1673.7
990.285	2036.19
990.455	2021.86
990.625	1790.44
990.795	1747.43
990.965	2302.43
991.134	1812.96
991.304	1710.57
991.474	1812.96
991.644	2189.79
991.814	2413.02
991.984	1608.17
992.153	1583.59
992.323	1925.6
992.493	2085.34
992.662	1612.26
992.832	1898.98
993.002	2028
993.171	2054.62
993.341	1593.83
993.511	1694.18
993.68	1769.96
993.85	2087.39
994.019	1657.32
994.189	1561.06
994.358	2032.1
994.528	1880.55
994.697	1434.09
994.867	1608.17
995.036	2064.86
995.206	1767.91
995.375	1552.87
995.544	1659.37
995.714	1997.28
995.883	1751.53
996.052	1763.81
996.222	1411.56
996.391	2435.55
996.56	1913.31
996.73	1507.82
996.899	1442.28
997.068	2118.11
997.237	1829.35
997.406	1595.88
997.576	1364.46
997.745	1794.53
997.914	2005.47
998.083	1358.32
998.252	1579.5
998.421	1788.39
998.59	1567.21
998.759	1380.84
998.928	1321.45
999.097	2128.35
999.266	1960.42
999.435	1616.36
999.604	1288.68
999.773	2367.96
999.942	1739.24
1000.111	1288.68
1000.28	1208.81
1000.448	1493.48
1000.617	1475.05
1000.786	1587.69
1000.955	1290.73
1001.124	1665.51
1001.292	2353.63
1001.461	1292.78
1001.63	1352.17
1001.798	1993.19
1001.967	1933.79
1002.136	1180.14
1002.304	1317.36
1002.473	1710.57
1002.642	1700.33
1002.81	1421.8
1002.979	1448.43
1003.147	1786.34
1003.316	2107.87
1003.484	1389.03
1003.653	1286.64
1003.821	1837.54
1003.99	1462.76
1004.158	1487.34
1004.327	1354.22
1004.495	1702.37
1004.663	1317.36
1004.832	1479.15
1005	1210.86
1005.168	1782.24
1005.337	1673.7
1005.505	1167.85
1005.673	1366.51
1005.842	1651.17
1006.01	1681.89
1006.178	1147.37
1006.346	1329.64
1006.514	1753.57
1006.683	1993.19
1006.851	1194.48
1007.019	1053.17
1007.187	1429.99
1007.355	1114.61
1007.523	1069.55
1007.691	1053.17
1007.859	1231.34
1008.027	1804.77
1008.195	1157.61
1008.363	1022.45
1008.531	1720.81
1008.699	1354.22
1008.867	1014.26
1009.035	1120.75
1009.203	1710.57
1009.37	1501.67
1009.538	1130.99
1009.706	1614.31
1009.874	1479.15
1010.042	1419.75
1010.209	1016.3
1010.377	1096.18
1010.545	1583.59
1010.713	1354.22
1010.88	1071.6
1011.048	1178.09
1011.216	1413.61
1011.383	1731.05
1011.551	1149.42
1011.718	1141.23
1011.886	1636.84
1012.054	1421.8
1012.221	1014.26
1012.389	1075.7
1012.556	1354.22
1012.724	1755.62
1012.891	971.25
1013.058	911.86
1013.226	1559.02
1013.393	1563.11
1013.561	924.15
1013.728	856.56
1013.895	1575.4
1014.063	1456.62
1014.23	870.9
1014.397	1014.26
1014.565	1608.17
1014.732	1309.16
1014.899	952.82
1015.066	895.47
1015.233	1335.79
1015.401	1544.68
1015.568	1137.13
1015.735	1087.98
1015.902	1298.92
1016.069	1415.66
1016.236	969.2
1016.403	797.17
1016.57	993.78
1016.737	1571.3
1016.904	989.68
1017.071	889.33
1017.238	1159.66
1017.405	1473
1017.572	918
1017.739	1182.19
1017.906	1335.79
1018.073	1567.21
1018.24	809.46
1018.407	893.43
1018.573	1466.86
1018.74	1188.33
1018.907	920.05
1019.074	795.12
1019.241	1538.54
1019.407	1255.92
1019.574	897.52
1019.741	741.88
1019.907	1362.41
1020.074	1264.11
1020.241	637.43
1020.407	768.5
1020.574	1245.68
1020.74	1356.27
1020.907	805.36
1021.073	741.88
1021.24	1718.76
1021.406	1509.86
1021.573	698.87
1021.739	735.73
1021.906	1360.36
1022.072	1040.88
1022.239	758.26
1022.405	674.29
1022.571	1210.86
1022.738	1022.45
1022.904	739.83
1023.07	823.8
1023.237	1212.91
1023.403	1341.93
1023.569	752.12
1023.735	786.93
1023.902	1208.81
1024.068	1169.9
1024.234	682.49
1024.4	653.81
1024.566	1210.86
1024.732	1315.31
1024.898	696.82
1025.065	571.9
1025.231	1239.53
1025.397	961.01
1025.563	719.35
1025.729	668.15
1025.895	705.01
1026.061	733.68
1026.227	516.6
1026.392	780.79
1026.558	1286.64
1026.724	1182.19
1026.89	582.14
1027.056	715.25
1027.222	1059.31
1027.388	1024.5
1027.553	627.19
1027.719	633.33
1027.885	1399.27
1028.051	1206.77
1028.216	424.44
1028.382	709.11
1028.548	1159.66
1028.713	1018.35
1028.879	528.89
1029.045	717.3
1029.21	1321.45
1029.376	1198.57
1029.541	594.42
1029.707	678.39
1029.873	1130.99
1030.038	1161.71
1030.204	543.22
1030.369	641.53
1030.534	1196.53
1030.7	825.84
1030.865	612.85
1031.031	416.25
1031.196	1012.21
1031.361	1001.97
1031.527	535.03
1031.692	440.83
1031.857	549.37
1032.023	1030.64
1032.188	414.2
1032.353	668.15
1032.518	1288.68
1032.684	973.3
1032.849	485.88
1033.014	621.05
1033.179	1161.71
1033.344	1026.54
1033.509	621.05
1033.674	506.36
1033.839	1133.04
1034.004	1079.79
1034.17	598.52
1034.335	469.5
1034.5	772.6
1034.664	748.02
1034.829	485.88
1034.994	539.13
1035.159	922.1
1035.324	973.3
1035.489	629.24
1035.654	420.35
1035.819	1180.14
1035.984	981.49
1036.148	559.61
1036.313	461.3
1036.478	1104.37
1036.643	854.51
1036.807	424.44
1036.972	424.44
1037.137	1143.28
1037.301	799.22
1037.466	295.42
1037.631	451.07
1037.795	1040.88
1037.96	899.57
1038.124	653.81
1038.289	328.19
1038.454	1001.97
1038.618	942.58
1038.783	436.73
1038.947	463.35
1039.111	891.38
1039.276	651.77
1039.44	283.13
1039.605	805.36
1039.769	764.4
1039.933	725.49
1040.098	471.54
1040.262	676.34
1040.426	983.54
1040.591	985.58
1040.755	420.35
1040.919	455.16
1041.083	862.71
1041.248	793.08
1041.412	229.88
1041.576	272.89
1041.74	616.95
1041.904	952.82
1042.068	379.39
1042.232	373.24
1042.397	995.82
1042.561	850.42
1042.725	170.49
1042.889	539.13
1043.053	889.33
1043.217	811.51
1043.381	438.78
1043.544	283.13
1043.708	1016.3
1043.872	510.46
1044.036	86.53
1044.2	201.21
1044.364	1073.65
1044.528	1145.33
1044.691	3389.9
1044.855	227.84
1045.019	961.01
1045.183	924.15
1045.346	395.77
1045.51	330.23
1045.674	874.99
1045.837	877.04
1046.001	348.67
1046.165	305.66
1046.328	1192.43
1046.492	705.01
1046.655	510.46
1046.819	424.44
1046.983	588.28
1047.146	827.89
1047.31	360.95
1047.473	111.1
1047.636	735.73
1047.8	528.89
1047.963	350.71
1048.127	250.36
1048.29	532.98
