Data from Ink_Intensity_USB4F045381__159__00159.txt Node

Date: Mon Jul 17 11:33:15 EDT 2023
User: mmckonesweet
Spectrometer: USB4F04538
Trigger mode: 4
Integration Time (sec): 9.000000E-1
Scans to average: 1
Electric dark correction enabled: true
Nonlinearity correction enabled: false
Boxcar width: 0
XAxis mode: Wavelengths
Number of Pixels in Spectrum: 3648
>>>>>Begin Spectral Data<<<<<
345.52	-976.54
345.736	-976.54
345.952	-976.54
346.168	-968.35
346.384	-1021.6
346.6	-124.58
346.816	-208.55
347.032	-237.22
347.248	280.91
347.464	-212.65
347.68	-138.92
347.896	127.32
348.112	368.98
348.328	16.73
348.544	-124.58
348.76	0.34
348.975	252.24
349.191	-251.56
349.407	-222.89
349.623	102.74
349.839	-106.15
350.055	-126.63
350.27	2.39
350.486	186.71
350.702	315.73
350.918	203.09
351.133	-206.5
351.349	188.75
351.565	360.78
351.781	-140.97
351.996	26.96
352.212	266.58
352.428	-153.26
352.644	-130.73
352.859	-175.78
353.075	317.78
353.291	155.99
353.506	-130.73
353.722	-263.85
353.938	-120.49
354.153	457.04
354.369	84.31
354.584	-198.31
354.8	231.76
355.016	-263.85
355.231	-196.26
355.447	-104.11
355.662	82.26
355.878	833.86
356.093	-345.77
356.309	-54.95
356.524	-241.32
356.74	321.87
356.955	-194.22
357.171	-38.57
357.386	141.65
357.602	-239.27
357.817	-22.19
358.033	-179.88
358.248	395.6
358.464	178.51
358.679	-202.41
358.895	-380.58
359.11	0.34
359.325	371.02
359.541	74.07
359.756	18.77
359.972	-321.19
360.187	141.65
360.402	-210.6
360.618	-81.58
360.833	991.56
361.048	188.75
361.264	-140.97
361.479	-93.87
361.694	14.68
361.909	235.86
362.125	-237.22
362.34	-196.26
362.555	117.08
362.77	133.46
362.986	-308.9
363.201	-140.97
363.416	149.84
363.631	-1.71
363.847	-255.65
364.062	-198.31
364.277	235.86
364.492	16.73
364.707	-140.97
364.922	-427.68
365.138	260.43
365.353	366.93
365.568	-218.79
365.783	-136.87
365.998	115.03
366.213	493.9
366.428	-272.04
366.643	133.46
366.858	280.91
367.073	201.04
367.288	-159.4
367.503	-329.38
367.718	117.08
367.933	285.01
368.148	-380.58
368.363	-106.15
368.578	-18.09
368.793	411.98
369.008	-218.79
369.223	-235.18
369.438	162.13
369.653	428.37
369.868	-313
370.083	-259.75
370.298	72.02
370.513	465.23
370.728	-5.8
370.943	-251.56
371.157	-132.78
371.372	559.44
371.587	-194.22
371.802	-257.7
372.017	67.92
372.232	465.23
372.446	-42.67
372.661	-257.7
372.876	176.47
373.091	188.75
373.306	-26.28
373.52	-169.64
373.735	-153.26
373.95	440.65
374.165	-206.5
374.379	-243.37
374.594	-136.87
374.809	141.65
375.023	55.64
375.238	-267.94
375.453	252.24
375.667	-235.18
375.882	-200.36
376.097	-198.31
376.311	-16.04
376.526	41.3
376.741	-190.12
376.955	88.4
377.17	559.44
377.384	602.44
377.599	-132.78
377.813	-286.37
378.028	612.68
378.242	196.95
378.457	-102.06
378.672	-364.2
378.886	31.06
379.101	-54.95
379.315	-364.2
379.53	-165.54
379.744	192.85
379.958	162.13
380.173	-157.35
380.387	-212.65
380.602	164.18
380.816	-128.68
381.031	-128.68
381.245	-147.11
381.459	203.09
381.674	2769.2
381.888	-272.04
382.103	117.08
382.317	-151.21
382.531	471.37
382.746	-134.82
382.96	-171.69
383.174	-67.24
383.388	414.03
383.603	45.4
383.817	-343.72
384.031	252.24
384.246	508.24
384.46	-7.85
384.674	311.63
384.888	67.92
385.103	51.54
385.317	-296.61
385.531	-38.57
385.745	323.92
385.959	260.43
386.174	-173.74
386.388	-261.8
386.602	-54.95
386.816	-177.83
387.03	-59.05
387.244	-61.1
387.458	41.3
387.672	399.7
387.887	-296.61
388.101	-288.42
388.315	409.94
388.529	121.17
388.743	-171.69
388.957	-302.76
389.171	334.16
389.385	-210.6
389.599	-87.72
389.813	82.26
390.027	178.51
390.241	737.61
390.455	-214.7
390.669	-114.34
390.883	-114.34
391.097	342.35
391.311	6.49
391.525	-233.13
391.738	170.32
391.952	117.08
392.166	-57
392.38	-218.79
392.594	196.95
392.808	311.63
393.022	-48.81
393.236	-140.97
393.449	164.18
393.663	137.56
393.877	-237.22
394.091	-40.62
394.305	-1.71
394.518	-54.95
394.732	-286.37
394.946	-128.68
395.16	465.23
395.373	180.56
395.587	-179.88
395.801	-239.27
396.015	371.02
396.228	242
396.442	-231.08
396.656	-349.86
396.869	295.25
397.083	475.47
397.297	-108.2
397.51	-169.64
397.724	368.98
397.938	158.03
398.151	-327.33
398.365	-319.14
398.578	215.38
398.792	399.7
399.005	-104.11
399.219	-124.58
399.433	72.02
399.646	203.09
399.86	10.58
400.073	10.58
400.287	203.09
400.5	-28.33
400.714	90.45
400.927	-79.53
401.141	256.34
401.354	1124.68
401.567	178.51
401.781	-208.55
401.994	272.72
402.208	534.86
402.421	-75.43
402.635	-54.95
402.848	-22.19
403.061	305.49
403.275	-54.95
403.488	-253.61
403.701	485.71
403.915	276.82
404.128	-9.9
404.341	-222.89
404.555	252.24
404.768	2.39
404.981	4.44
405.195	-259.75
405.408	530.77
405.621	242
405.834	55.64
406.048	-229.03
406.261	330.06
406.474	473.42
406.687	-239.27
406.9	-63.15
407.114	37.2
407.327	174.42
407.54	-353.96
407.753	-290.47
407.966	-202.41
408.179	209.23
408.392	-194.22
408.605	-304.81
408.819	127.32
409.032	24.92
409.245	-267.94
409.458	94.55
409.671	252.24
409.884	211.28
410.097	-284.33
410.31	6.49
410.523	166.23
410.736	22.87
410.949	-153.26
411.162	-140.97
411.375	395.6
411.588	321.87
411.801	24.92
412.014	-229.03
412.227	18.77
412.44	-48.81
412.653	-241.32
412.865	14.68
413.078	231.76
413.291	266.58
413.504	-89.77
413.717	-239.27
413.93	244.05
414.143	-100.01
414.356	-136.87
414.568	-267.94
414.781	235.86
414.994	76.12
415.207	-40.62
415.42	-75.43
415.632	315.73
415.845	557.39
416.058	-323.24
416.271	-278.18
416.483	-5.8
416.696	475.47
416.909	-210.6
417.121	-202.41
417.334	162.13
417.547	555.34
417.759	-198.31
417.972	-253.61
418.185	-42.67
418.397	244.05
418.61	-175.78
418.823	-163.5
419.035	481.61
419.248	67.92
419.46	-30.38
419.673	-89.77
419.885	121.17
420.098	-83.63
420.311	-165.54
420.523	-276.13
420.736	215.38
420.948	22.87
421.161	-218.79
421.373	-399.01
421.586	178.51
421.798	-30.38
422.01	-267.94
422.223	-65.19
422.435	-79.53
422.648	147.8
422.86	-190.12
423.073	-214.7
423.285	309.58
423.497	-212.65
423.71	-198.31
423.922	-190.12
424.134	182.61
424.347	387.41
424.559	-28.33
424.771	76.12
424.984	-54.95
425.196	262.48
425.408	-341.67
425.621	-323.24
425.833	289.1
426.045	334.16
426.257	-272.04
426.47	-108.2
426.682	190.8
426.894	170.32
427.106	-188.07
427.318	-130.73
427.531	-73.39
427.743	223.57
427.955	-235.18
428.167	291.15
428.379	170.32
428.591	-3.75
428.804	-140.97
429.016	-206.5
429.228	-106.15
429.44	219.47
429.652	-38.57
429.864	-274.09
430.076	-50.86
430.288	35.16
430.5	-128.68
430.712	-157.35
430.924	190.8
431.136	82.26
431.348	-331.43
431.56	-243.37
431.772	125.27
431.984	-9.9
432.196	-245.41
432.408	-175.78
432.62	-32.43
432.832	121.17
433.044	133.46
433.256	-100.01
433.468	223.57
433.679	-235.18
433.891	-329.38
434.103	-59.05
434.315	373.07
434.527	242
434.739	-108.2
434.95	-210.6
435.162	350.54
435.374	-93.87
435.586	-175.78
435.798	-196.26
436.009	-210.6
436.221	-48.81
436.433	-237.22
436.645	-106.15
436.856	-54.95
437.068	348.5
437.28	-235.18
437.491	92.5
437.703	196.95
437.915	188.75
438.126	-190.12
438.338	96.6
438.55	78.16
438.761	176.47
438.973	-183.98
439.184	-177.83
439.396	-38.57
439.608	278.87
439.819	-251.56
440.031	-81.58
440.242	192.85
440.454	231.76
440.665	-122.54
440.877	-87.72
441.088	190.8
441.3	-30.38
441.511	-280.23
441.723	-177.83
441.934	252.24
442.146	65.88
442.357	-22.19
442.569	100.69
442.78	33.11
442.991	461.13
443.203	147.8
443.414	-190.12
443.626	356.69
443.837	-231.08
444.048	-243.37
444.26	-231.08
444.471	84.31
444.682	223.57
444.894	-284.33
445.105	-296.61
445.316	237.91
445.528	198.99
445.739	-89.77
445.95	-91.82
446.161	141.65
446.373	307.54
446.584	-157.35
446.795	-214.7
447.006	192.85
447.217	397.65
447.429	-378.53
447.64	-173.74
447.851	348.5
448.062	43.35
448.273	-276.13
448.484	-276.13
448.695	217.43
448.907	-46.76
449.118	-106.15
449.329	26.96
449.54	-83.63
449.751	-163.5
449.962	-77.48
450.173	-247.46
450.384	301.39
450.595	403.79
450.806	-267.94
451.017	-175.78
451.228	373.07
451.439	323.92
451.65	-190.12
451.861	-378.53
452.072	-208.55
452.283	31.06
452.494	-102.06
452.705	-175.78
452.915	442.7
453.126	92.5
453.337	-177.83
453.548	-190.12
453.759	272.72
453.97	553.29
454.181	-11.95
454.391	-214.7
454.602	98.64
454.813	135.51
455.024	-179.88
455.235	-269.99
455.445	-5.8
455.656	180.56
455.867	-38.57
456.078	-177.83
456.288	-7.85
456.499	106.84
456.71	-263.85
456.921	8.53
457.131	115.03
457.342	155.99
457.553	-134.82
457.763	-208.55
457.974	137.56
458.184	209.23
458.395	-261.8
458.606	-317.09
458.816	391.5
459.027	481.61
459.237	-38.57
459.448	-386.72
459.659	323.92
459.869	602.44
460.08	-399.01
460.29	-165.54
460.501	481.61
460.711	0.34
460.922	-300.71
461.132	-222.89
461.343	727.37
461.553	-210.6
461.764	-313
461.974	-216.74
462.184	264.53
462.395	176.47
462.605	-179.88
462.816	-288.42
463.026	119.12
463.236	373.07
463.447	-317.09
463.657	-300.71
463.867	227.67
464.078	-9.9
464.288	-163.5
464.498	-308.9
464.709	72.02
464.919	-7.85
465.129	-128.68
465.339	-249.51
465.55	196.95
465.76	248.15
465.97	-214.7
466.18	-263.85
466.391	231.76
466.601	90.45
466.811	-149.16
467.021	-276.13
467.231	149.84
467.441	328.02
467.651	-118.44
467.862	-409.25
468.072	55.64
468.282	395.6
468.492	-218.79
468.702	-108.2
468.912	33.11
469.122	575.82
469.332	88.4
469.542	-253.61
469.752	231.76
469.962	147.8
470.172	-278.18
470.382	-292.52
470.592	268.63
470.802	309.58
471.012	-9.9
471.222	-163.5
471.432	225.62
471.642	223.57
471.852	-120.49
472.062	-306.85
472.272	-75.43
472.482	-175.78
472.691	-282.28
472.901	-284.33
473.111	186.71
473.321	604.49
473.531	-278.18
473.741	-100.01
473.95	184.66
474.16	246.1
474.37	-198.31
474.58	-347.81
474.79	426.32
474.999	215.38
475.209	-278.18
475.419	-288.42
475.628	-67.24
475.838	321.87
476.048	-147.11
476.258	-329.38
476.467	285.01
476.677	-7.85
476.886	-22.19
477.096	-116.39
477.306	-175.78
477.515	313.68
477.725	-173.74
477.935	-138.92
478.144	377.17
478.354	-65.19
478.563	-167.59
478.773	-278.18
478.982	231.76
479.192	366.93
479.401	-124.58
479.611	-300.71
479.82	-183.98
480.03	31.06
480.239	-276.13
480.449	-321.19
480.658	442.7
480.868	-165.54
481.077	-138.92
481.287	-186.02
481.496	145.75
481.705	385.36
481.915	39.25
482.124	63.83
482.333	225.62
482.543	332.11
482.752	-124.58
482.961	-296.61
483.171	229.71
483.38	59.73
483.589	-214.7
483.799	-259.75
484.008	6.49
484.217	227.67
484.426	-239.27
484.636	-319.14
484.845	166.23
485.054	-171.69
485.263	92.5
485.472	-272.04
485.682	465.23
485.891	53.59
486.1	-308.9
486.309	-210.6
486.518	184.66
486.727	371.02
486.936	-181.93
487.146	-120.49
487.355	395.6
487.564	-122.54
487.773	-214.7
487.982	-183.98
488.191	-114.34
488.4	51.54
488.609	-173.74
488.818	-216.74
489.027	584.01
489.236	422.22
489.445	-245.41
489.654	-302.76
489.863	194.9
490.072	-3.75
490.281	131.41
490.49	-208.55
490.698	434.51
490.907	334.16
491.116	-136.87
491.325	-388.77
491.534	371.02
491.743	108.88
491.952	-102.06
492.16	-163.5
492.369	84.31
492.578	244.05
492.787	-116.39
492.996	-269.99
493.204	-106.15
493.413	467.28
493.622	-388.77
493.831	-435.88
494.039	465.23
494.248	-157.35
494.457	-253.61
494.665	-433.83
494.874	190.8
495.083	510.29
495.291	-202.41
495.5	-243.37
495.709	221.52
495.917	41.3
496.126	-169.64
496.335	-247.46
496.543	-120.49
496.752	166.23
496.96	20.82
497.169	-337.57
497.377	-38.57
497.586	303.44
497.794	-155.3
498.003	-374.44
498.211	53.59
498.42	379.22
498.628	-163.5
498.837	-347.81
499.045	145.75
499.254	110.93
499.462	-231.08
499.671	-237.22
499.879	442.7
500.087	323.92
500.296	-229.03
500.504	-243.37
500.713	104.79
500.921	514.38
501.129	-233.13
501.338	-173.74
501.546	96.6
501.754	0.34
501.962	-186.02
502.171	-235.18
502.379	125.27
502.587	516.43
502.795	-151.21
503.004	-220.84
503.212	51.54
503.42	225.62
503.628	-206.5
503.837	-145.06
504.045	188.75
504.253	397.65
504.461	-329.38
504.669	-280.23
504.877	291.15
505.085	405.84
505.294	-292.52
505.502	-9.9
505.71	59.73
505.918	368.98
506.126	-284.33
506.334	-247.46
506.542	-30.38
506.75	166.23
506.958	-155.3
507.166	-159.4
507.374	-20.14
507.582	520.53
507.79	-147.11
507.998	-235.18
508.206	196.95
508.414	217.43
508.622	-220.84
508.83	-212.65
509.037	444.75
509.245	-5.8
509.453	-257.7
509.661	-198.31
509.869	219.47
510.077	-59.05
510.285	-120.49
510.492	-499.36
510.7	618.83
510.908	8.53
511.116	-263.85
511.324	-259.75
511.531	16.73
511.739	90.45
511.947	-34.47
512.155	-81.58
512.362	121.17
512.57	-116.39
512.778	-267.94
512.985	-427.68
513.193	368.98
513.401	446.8
513.608	-192.17
513.816	-186.02
514.024	260.43
514.231	334.16
514.439	-235.18
514.646	-224.94
514.854	196.95
515.061	350.54
515.269	-253.61
515.477	-286.37
515.684	-126.63
515.892	346.45
516.099	-349.86
516.307	-394.92
516.514	155.99
516.722	457.04
516.929	-218.79
517.136	-353.96
517.344	356.69
517.551	246.1
517.759	-259.75
517.966	-206.5
518.173	-9.9
518.381	121.17
518.588	-241.32
518.796	-265.89
519.003	285.01
519.21	10.58
519.418	-224.94
519.625	35.16
519.832	143.7
520.039	180.56
520.247	-394.92
520.454	-190.12
520.661	340.3
520.868	166.23
521.076	-255.65
521.283	-190.12
521.49	653.64
521.697	303.44
521.904	-186.02
522.112	-190.12
522.319	293.2
522.526	188.75
522.733	-345.77
522.94	-239.27
523.147	106.84
523.354	276.82
523.561	-372.39
523.768	-145.06
523.975	289.1
524.183	63.83
524.39	-157.35
524.597	-337.57
524.804	72.02
525.011	-136.87
525.218	-286.37
525.425	-292.52
525.632	389.46
525.838	-194.22
526.045	-298.66
526.252	-294.57
526.459	1241.41
526.666	919.88
526.873	-362.15
527.08	-267.94
527.287	340.3
527.494	311.63
527.701	-358.05
527.907	-263.85
528.114	227.67
528.321	43.35
528.528	-218.79
528.735	-261.8
528.941	-95.91
529.148	33.11
529.355	-75.43
529.562	-222.89
529.768	534.86
529.975	35.16
530.182	-247.46
530.388	-261.8
530.595	350.54
530.802	-108.2
531.008	-110.25
531.215	-179.88
531.422	475.47
531.628	731.47
531.835	-208.55
532.042	-177.83
532.248	-169.64
532.455	127.32
532.661	-173.74
532.868	-222.89
533.074	94.55
533.281	246.1
533.487	-149.16
533.694	-368.29
533.9	-130.73
534.107	256.34
534.313	-335.53
534.52	-382.63
534.726	334.16
534.933	579.92
535.139	-351.91
535.345	-419.49
535.552	137.56
535.758	-9.9
535.965	-155.3
536.171	-280.23
536.377	209.23
536.584	350.54
536.79	-210.6
536.996	-206.5
537.203	29.01
537.409	221.52
537.615	-143.02
537.821	-18.09
538.028	311.63
538.234	203.09
538.44	-259.75
538.646	-161.45
538.853	184.66
539.059	2.39
539.265	143.7
539.471	-458.4
539.677	272.72
539.883	-38.57
540.09	-310.95
540.296	248.15
540.502	37.2
540.708	-46.76
540.914	-1.71
541.12	-261.8
541.326	244.05
541.532	41.3
541.738	-118.44
541.944	-161.45
542.15	336.21
542.356	-13.99
542.562	-276.13
542.768	-186.02
542.974	606.54
543.18	543.05
543.386	-181.93
543.592	-374.44
543.798	475.47
544.004	330.06
544.21	-253.61
544.415	-120.49
544.621	170.32
544.827	317.78
545.033	-319.14
545.239	-22.19
545.445	-229.03
545.651	164.18
545.856	-190.12
546.062	-198.31
546.268	39.25
546.474	41.3
546.679	-255.65
546.885	-194.22
547.091	-1.71
547.297	534.86
547.502	-102.06
547.708	-347.81
547.914	49.49
548.119	174.42
548.325	-231.08
548.531	-269.99
548.736	407.89
548.942	-22.19
549.147	-239.27
549.353	55.64
549.559	309.58
549.764	133.46
549.97	-206.5
550.175	-278.18
550.381	260.43
550.586	-5.8
550.792	-255.65
550.997	-200.36
551.203	289.1
551.408	225.62
551.614	-353.96
551.819	-278.18
552.025	471.37
552.23	633.16
552.435	-300.71
552.641	-42.67
552.846	-100.01
553.052	352.59
553.257	-116.39
553.462	-161.45
553.668	-183.98
553.873	362.83
554.078	-255.65
554.283	-329.38
554.489	82.26
554.694	84.31
554.899	-235.18
555.105	-50.86
555.31	221.52
555.515	174.42
555.72	-102.06
555.925	-321.19
556.131	285.01
556.336	31.06
556.541	-181.93
556.746	-247.46
556.951	426.32
557.156	483.66
557.361	-87.72
557.567	-85.67
557.772	543.05
557.977	211.28
558.182	-241.32
558.387	-165.54
558.592	-3.75
558.797	473.42
559.002	-128.68
559.207	-42.67
559.412	104.79
559.617	508.24
559.822	-206.5
560.027	-313
560.232	203.09
560.437	278.87
560.642	-302.76
560.847	-292.52
561.051	121.17
561.256	96.6
561.461	-202.41
561.666	-329.38
561.871	147.8
562.076	231.76
562.281	-181.93
562.485	-263.85
562.69	168.27
562.895	358.74
563.1	-122.54
563.305	-251.56
563.509	278.87
563.714	631.12
563.919	-229.03
564.123	-190.12
564.328	106.84
564.533	461.13
564.737	-177.83
564.942	-165.54
565.147	571.72
565.351	565.58
565.556	-91.82
565.761	-102.06
565.965	166.23
566.17	-59.05
566.374	-173.74
566.579	-292.52
566.784	168.27
566.988	-1.71
567.193	-294.57
567.397	-136.87
567.602	-192.17
567.806	29.01
568.011	-181.93
568.215	-157.35
568.42	104.79
568.624	82.26
568.828	-167.59
569.033	-140.97
569.237	274.77
569.442	205.14
569.646	-286.37
569.85	-243.37
570.055	65.88
570.259	112.98
570.463	10.58
570.668	-161.45
570.872	186.71
571.076	67.92
571.281	-83.63
571.485	-71.34
571.689	121.17
571.893	475.47
572.098	-3.75
572.302	-112.3
572.506	182.61
572.71	117.08
572.914	-128.68
573.119	-145.06
573.323	508.24
573.527	483.66
573.731	-151.21
573.935	-210.6
574.139	129.36
574.343	-65.19
574.547	-132.78
574.751	-75.43
574.955	518.48
575.159	360.78
575.364	-173.74
575.568	-300.71
575.772	108.88
575.976	409.94
576.18	-267.94
576.383	-245.41
576.587	405.84
576.791	260.43
576.995	-368.29
577.199	-267.94
577.403	399.7
577.607	393.55
577.811	-317.09
578.015	-52.91
578.219	166.23
578.422	330.06
578.626	-61.1
578.83	20.82
579.034	405.84
579.238	162.13
579.442	-237.22
579.645	151.89
579.849	8.53
580.053	100.69
580.257	-122.54
580.46	-130.73
580.664	411.98
580.868	235.86
581.071	43.35
581.275	-50.86
581.479	-169.64
581.682	264.53
581.886	-196.26
582.09	-79.53
582.293	401.74
582.497	321.87
582.7	14.68
582.904	-136.87
583.107	147.8
583.311	72.02
583.515	-140.97
583.718	-67.24
583.922	270.67
584.125	549.2
584.329	-200.36
584.532	10.58
584.735	493.9
584.939	219.47
585.142	-261.8
585.346	-194.22
585.549	262.48
585.753	84.31
585.956	-153.26
586.159	-1.71
586.363	620.88
586.566	338.26
586.769	-198.31
586.973	-183.98
587.176	260.43
587.379	377.17
587.582	219.47
587.786	33.11
587.989	108.88
588.192	719.18
588.395	-73.39
588.599	88.4
588.802	262.48
589.005	198.99
589.208	-102.06
589.411	-38.57
589.615	436.56
589.818	541.01
590.021	143.7
590.224	-75.43
590.427	440.65
590.63	274.77
590.833	-280.23
591.036	-132.78
591.239	96.6
591.442	65.88
591.645	72.02
591.848	-173.74
592.051	268.63
592.254	285.01
592.457	-26.28
592.66	-9.9
592.863	133.46
593.066	332.11
593.269	-77.48
593.472	14.68
593.675	-50.86
593.878	434.51
594.081	16.73
594.284	-204.46
594.486	338.26
594.689	235.86
594.892	-9.9
595.095	-24.23
595.298	311.63
595.5	41.3
595.703	-13.99
595.906	84.31
596.109	493.9
596.311	434.51
596.514	-304.81
596.717	-26.28
596.92	465.23
597.122	348.5
597.325	-345.77
597.528	-89.77
597.73	477.52
597.933	196.95
598.136	-83.63
598.338	-341.67
598.541	297.3
598.743	446.8
598.946	-81.58
599.148	-79.53
599.351	463.18
599.554	457.04
599.756	6.49
599.959	-50.86
600.161	426.32
600.363	835.91
600.566	131.41
600.768	-132.78
600.971	600.4
601.173	426.32
601.376	-54.95
601.578	-5.8
601.78	295.25
601.983	811.34
602.185	-132.78
602.388	110.93
602.59	368.98
602.792	82.26
602.995	188.75
603.197	-122.54
603.399	440.65
603.601	405.84
603.804	14.68
604.006	-161.45
604.208	192.85
604.41	-259.75
604.613	141.65
604.815	-67.24
605.017	721.23
605.219	106.84
605.421	334.16
605.623	-73.39
605.826	536.91
606.028	647.5
606.23	-75.43
606.432	-24.23
606.634	624.97
606.836	536.91
607.038	-104.11
607.24	108.88
607.442	235.86
607.644	246.1
607.846	203.09
608.048	-79.53
608.25	635.21
608.452	78.16
608.654	-24.23
608.856	-243.37
609.058	172.37
609.26	440.65
609.462	104.79
609.664	12.63
609.866	606.54
610.067	461.13
610.269	164.18
610.471	84.31
610.673	149.84
610.875	457.04
611.077	-194.22
611.278	106.84
611.48	268.63
611.682	715.08
611.884	112.98
612.085	53.59
612.287	117.08
612.489	473.42
612.69	-120.49
612.892	98.64
613.094	600.4
613.295	282.96
613.497	-128.68
613.699	67.92
613.9	549.2
614.102	504.14
614.304	88.4
614.505	-269.99
614.707	293.2
614.908	375.12
615.11	-173.74
615.311	59.73
615.513	485.71
615.714	493.9
615.916	-177.83
616.117	96.6
616.319	260.43
616.52	551.24
616.722	24.92
616.923	29.01
617.124	553.29
617.326	461.13
617.527	129.36
617.729	219.47
617.93	498
618.131	422.22
618.333	65.88
618.534	108.88
618.735	174.42
618.937	698.7
619.138	-65.19
619.339	-42.67
619.54	461.13
619.742	239.95
619.943	198.99
620.144	61.78
620.345	579.92
620.546	559.44
620.748	8.53
620.949	180.56
621.15	397.65
621.351	375.12
621.552	86.36
621.753	-149.16
621.954	8.53
622.155	811.34
622.356	-26.28
622.558	106.84
622.759	285.01
622.96	825.67
623.161	57.68
623.362	84.31
623.563	342.35
623.764	407.89
623.965	108.88
624.166	270.67
624.366	383.31
624.567	362.83
624.768	-216.74
624.969	69.97
625.17	323.92
625.371	522.57
625.572	141.65
625.773	-11.95
625.973	467.28
626.174	498
626.375	164.18
626.576	145.75
626.777	475.47
626.977	948.55
627.178	131.41
627.379	139.6
627.58	305.49
627.78	287.06
627.981	166.23
628.182	215.38
628.382	659.79
628.583	16.73
628.784	-42.67
628.984	264.53
629.185	520.53
629.386	579.92
629.586	235.86
629.787	51.54
629.987	598.35
630.188	356.69
630.388	194.9
630.589	260.43
630.79	1050.95
630.99	383.31
631.191	182.61
631.391	198.99
631.591	604.49
631.792	844.1
631.992	319.82
632.193	147.8
632.393	786.76
632.594	366.93
632.794	115.03
632.994	280.91
633.195	371.02
633.395	399.7
633.595	115.03
633.796	350.54
633.996	330.06
634.196	731.47
634.397	-54.95
634.597	287.06
634.797	176.47
634.997	774.47
635.198	272.72
635.398	65.88
635.598	547.15
635.798	743.75
635.998	657.74
636.199	94.55
636.399	260.43
636.599	123.22
636.799	190.8
636.999	399.7
637.199	516.43
637.399	719.18
637.599	192.85
637.799	401.74
637.999	246.1
638.199	811.34
638.399	51.54
638.599	217.43
638.799	620.88
638.999	966.98
639.199	334.16
639.399	289.1
639.599	797
639.799	244.05
639.999	196.95
640.199	35.16
640.399	461.13
640.599	598.35
640.799	364.88
640.998	403.79
641.198	665.93
641.398	575.82
641.598	297.3
641.798	162.13
641.997	1390.91
642.197	528.72
642.397	348.5
642.597	151.89
642.796	563.53
642.996	803.15
643.196	287.06
643.395	129.36
643.595	579.92
643.795	29.01
643.994	268.63
644.194	256.34
644.394	588.11
644.593	622.92
644.793	104.79
644.992	317.78
645.192	555.34
645.392	16.73
645.591	307.54
645.791	244.05
645.99	616.78
646.19	428.37
646.389	289.1
646.589	346.45
646.788	610.64
646.987	670.03
647.187	487.76
647.386	516.43
647.586	469.33
647.785	690.51
647.984	342.35
648.184	346.45
648.383	475.47
648.582	457.04
648.782	260.43
648.981	409.94
649.18	356.69
649.38	553.29
649.579	252.24
649.778	188.75
649.977	604.49
650.177	526.67
650.376	268.63
650.575	182.61
650.774	956.74
650.973	319.82
651.173	162.13
651.372	405.84
651.571	565.58
651.77	715.08
651.969	319.82
652.168	393.55
652.367	297.3
652.566	498
652.765	192.85
652.964	575.82
653.163	1067.33
653.362	436.56
653.561	375.12
653.76	309.58
653.959	518.48
654.158	637.26
654.357	565.58
654.556	282.96
654.755	670.03
654.954	719.18
655.153	379.22
655.352	411.98
655.551	907.59
655.749	334.16
655.948	436.56
656.147	377.17
656.346	590.16
656.545	518.48
656.743	430.41
656.942	428.37
657.141	551.24
657.34	418.13
657.538	387.41
657.737	375.12
657.936	473.42
658.135	647.5
658.333	344.4
658.532	467.28
658.731	1063.24
658.929	809.29
659.128	698.7
659.326	244.05
659.525	917.83
659.724	514.38
659.922	117.08
660.121	211.28
660.319	731.47
660.518	461.13
660.716	203.09
660.915	342.35
661.113	973.13
661.312	332.11
661.51	469.33
661.709	268.63
661.907	829.77
662.105	952.65
662.304	362.83
662.502	420.17
662.701	964.93
662.899	506.19
663.097	710.99
663.296	287.06
663.494	823.62
663.692	1053
663.891	282.96
664.089	287.06
664.287	753.99
664.485	1020.23
664.684	424.27
664.882	495.95
665.08	645.45
665.278	624.97
665.476	338.26
665.675	739.66
665.873	1182.02
666.071	907.59
666.269	387.41
666.467	713.03
666.665	680.27
666.863	645.45
667.061	592.2
667.259	465.23
667.457	694.6
667.655	852.3
667.853	252.24
668.051	608.59
668.249	483.66
668.447	735.56
668.645	344.4
668.843	739.66
669.041	887.11
669.239	559.44
669.437	514.38
669.635	506.19
669.833	563.53
670.031	827.72
670.229	541.01
670.426	596.3
670.624	530.77
670.822	528.72
671.02	411.98
671.218	502.09
671.415	448.85
671.613	751.95
671.811	581.96
672.009	436.56
672.206	909.64
672.404	743.75
672.602	725.32
672.799	516.43
672.997	846.15
673.195	1036.61
673.392	608.59
673.59	317.78
673.788	899.4
673.985	229.71
674.183	555.34
674.38	475.47
674.578	919.88
674.775	475.47
674.973	411.98
675.17	344.4
675.368	1112.39
675.565	895.3
675.763	446.8
675.96	434.51
676.158	1100.1
676.355	643.4
676.553	448.85
676.75	477.52
676.947	794.95
677.145	645.45
677.342	637.26
677.539	602.44
677.737	725.32
677.934	1220.93
678.131	747.85
678.329	475.47
678.526	1325.38
678.723	917.83
678.92	596.3
679.118	518.48
679.315	498
679.512	1139.01
679.709	483.66
679.906	616.78
680.104	1069.38
680.301	856.39
680.498	454.99
680.695	514.38
680.892	598.35
681.089	647.5
681.286	543.05
681.483	377.17
681.68	854.34
681.877	940.36
682.075	487.76
682.272	803.15
682.469	837.96
682.665	723.27
682.862	518.48
683.059	389.46
683.256	835.91
683.453	844.1
683.65	663.88
683.847	557.39
684.044	829.77
684.241	633.16
684.438	688.46
684.635	534.86
684.831	1354.05
685.028	1245.51
685.225	409.94
685.422	764.23
685.619	715.08
685.815	825.67
686.012	715.08
686.209	600.4
686.405	588.11
686.602	1083.72
686.799	493.9
686.996	549.2
687.192	579.92
687.389	1276.23
687.586	526.67
687.782	538.96
687.979	1159.49
688.175	1063.24
688.372	751.95
688.568	575.82
688.765	731.47
688.962	1153.35
689.158	719.18
689.355	395.6
689.551	1032.52
689.748	713.03
689.944	713.03
690.14	493.9
690.337	1104.2
690.533	678.22
690.73	870.73
690.926	659.79
691.123	1069.38
691.319	758.09
691.515	457.04
691.712	797
691.908	993.61
692.104	948.55
692.301	659.79
692.497	534.86
692.693	1065.29
692.889	1034.57
693.086	905.54
693.282	473.42
693.478	923.98
693.674	1261.89
693.87	688.46
694.067	508.24
694.263	977.22
694.459	846.15
694.655	858.44
694.851	690.51
695.047	1048.9
695.243	1005.89
695.439	885.06
695.635	657.74
695.831	1065.29
696.027	891.21
696.224	651.6
696.42	942.41
696.615	1229.12
696.811	1063.24
697.007	555.34
697.203	751.95
697.399	862.54
697.595	1210.69
697.791	627.02
697.987	907.59
698.183	678.22
698.379	786.76
698.575	590.16
698.77	727.37
698.966	1024.33
699.162	1182.02
699.358	766.28
699.554	688.46
699.749	1098.05
699.945	1136.96
700.141	823.62
700.337	764.23
700.532	905.54
700.728	803.15
700.924	715.08
701.119	608.59
701.315	1130.82
701.511	985.41
701.706	708.94
701.902	579.92
702.097	864.58
702.293	1014.09
702.489	831.82
702.684	647.5
702.88	983.37
703.075	801.1
703.271	741.71
703.466	557.39
703.662	1053
703.857	1157.44
704.053	694.6
704.248	764.23
704.443	1163.59
704.639	1161.54
704.834	731.47
705.03	686.41
705.225	1165.64
705.42	1206.59
705.616	921.93
705.811	604.49
706.006	899.4
706.202	930.12
706.397	829.77
706.592	684.36
706.787	1007.94
706.983	915.78
707.178	993.61
707.373	770.38
707.568	1286.47
707.763	1284.42
707.959	694.6
708.154	778.57
708.349	1059.14
708.544	1143.11
708.739	1018.18
708.934	655.69
709.129	1198.4
709.324	1294.66
709.519	674.12
709.714	741.71
709.909	1327.43
710.104	1200.45
710.299	801.1
710.494	797
710.689	1210.69
710.884	1083.72
711.079	1009.99
711.274	948.55
711.469	1198.4
711.664	1149.25
711.859	645.45
712.054	1012.04
712.249	1153.35
712.443	1425.73
712.638	735.56
712.833	753.99
713.028	981.32
713.223	1091.91
713.417	1184.07
713.612	868.68
713.807	1165.64
714.002	1573.18
714.196	1042.76
714.391	766.28
714.586	1253.7
714.78	911.69
714.975	840.01
715.17	780.62
715.364	969.03
715.559	1300.8
715.754	622.92
715.948	807.24
716.143	1622.33
716.337	1196.36
716.532	1046.85
716.726	840.01
716.921	1235.27
717.115	1478.97
717.31	719.18
717.504	1349.95
717.699	1057.09
717.893	1300.8
718.088	784.71
718.282	741.71
718.476	1116.48
718.671	1132.87
718.865	817.48
719.059	860.49
719.254	1048.9
719.448	1257.79
719.642	2193.72
719.837	661.84
720.031	1253.7
720.225	1384.77
720.419	964.93
720.614	876.87
720.808	1290.56
721.002	1012.04
721.196	727.37
721.39	833.86
721.585	1390.91
721.779	1104.2
721.973	946.5
722.167	579.92
722.361	1167.68
722.555	1313.09
722.749	899.4
722.943	848.2
723.137	784.71
723.331	1194.31
723.525	870.73
723.719	874.82
723.913	1325.38
724.107	1423.68
724.301	858.44
724.495	1034.57
724.689	1644.86
724.883	1464.64
725.077	782.67
725.271	840.01
725.465	1327.43
725.659	1104.2
725.853	952.65
726.046	803.15
726.24	1024.33
726.434	1335.62
726.628	917.83
726.822	819.53
727.015	1448.26
727.209	1444.16
727.403	905.54
727.596	739.66
727.79	1308.99
727.984	1270.08
728.177	966.98
728.371	989.51
728.565	1452.35
728.758	917.83
728.952	854.34
729.146	907.59
729.339	1468.73
729.533	1216.83
729.726	932.17
729.92	909.64
730.113	1562.94
730.307	1280.32
730.5	956.74
730.694	905.54
730.887	1112.39
731.081	1427.78
731.274	862.54
731.468	962.89
731.661	1245.51
731.854	1102.15
732.048	954.69
732.241	868.68
732.435	981.32
732.628	1278.27
732.821	926.02
733.014	919.88
733.208	1003.85
733.401	1323.33
733.594	999.75
733.788	1005.89
733.981	1442.11
734.174	1284.42
734.367	1018.18
734.56	1091.91
734.754	1401.15
734.947	1366.34
735.14	934.22
735.333	1003.85
735.526	1362.24
735.719	1110.34
735.912	760.14
736.105	880.97
736.298	1284.42
736.491	1202.5
736.684	895.3
736.877	985.41
737.07	1268.03
737.263	1620.28
737.456	1096
737.649	803.15
737.842	1141.06
738.035	1276.23
738.228	1182.02
738.421	1139.01
738.614	1552.7
738.807	1562.94
739	819.53
739.192	956.74
739.385	1300.8
739.578	1493.31
739.771	1190.21
739.964	940.36
740.156	1481.02
740.349	1222.98
740.542	1085.76
740.735	874.82
740.927	999.75
741.12	975.17
741.313	995.65
741.505	1206.59
741.698	1423.68
741.891	1466.69
742.083	1177.92
742.276	1075.52
742.468	1364.29
742.661	1220.93
742.854	1153.35
743.046	1048.9
743.239	1620.28
743.431	1323.33
743.624	1134.92
743.816	835.91
744.009	1192.26
744.201	1292.61
744.393	1292.61
744.586	977.22
744.778	1419.58
744.971	1304.9
745.163	1202.5
745.355	1171.78
745.548	1423.68
745.74	1202.5
745.932	1077.57
746.125	1196.36
746.317	1849.66
746.509	1364.29
746.702	1055.05
746.894	1012.04
747.086	1562.94
747.278	1564.99
747.471	1249.6
747.663	1143.11
747.855	1388.86
748.047	1753.4
748.239	1018.18
748.431	1089.86
748.623	1730.87
748.815	1718.59
749.008	975.17
749.2	1073.48
749.392	1501.5
749.584	1440.06
749.776	1118.53
749.968	1132.87
750.16	1853.75
750.352	1278.27
750.544	1067.33
750.736	1053
750.928	1423.68
751.12	1251.65
751.311	1083.72
751.503	1169.73
751.695	1536.32
751.887	1323.33
752.079	883.02
752.271	1116.48
752.463	2140.47
752.654	1665.34
752.846	1153.35
753.038	1112.39
753.23	1272.13
753.421	1526.08
753.613	1222.98
753.805	1216.83
753.997	1608
754.188	1515.84
754.38	1108.29
754.572	1114.44
754.763	1296.71
754.955	1515.84
755.146	1165.64
755.338	1243.46
755.53	1481.02
755.721	1343.81
755.913	964.93
756.104	1042.76
756.296	1325.38
756.487	1601.85
756.679	1016.13
756.87	1280.32
757.062	1229.12
757.253	1493.31
757.445	1220.93
757.636	1327.43
757.827	1358.14
758.019	2044.21
758.21	1030.47
758.401	1145.16
758.593	1898.81
758.784	1694.01
758.975	1079.62
759.167	1001.8
759.358	1448.26
759.549	1616.19
759.74	1192.26
759.932	1065.29
760.123	1730.87
760.314	1159.49
760.505	1237.31
760.696	1001.8
760.888	1849.66
761.079	1483.07
761.27	1108.29
761.461	989.51
761.652	1810.75
761.843	1397.06
762.034	1188.16
762.225	1425.73
762.416	1419.58
762.607	1554.75
762.798	1177.92
762.989	1065.29
763.18	2189.62
763.371	1280.32
763.562	1216.83
763.753	1212.74
763.944	1671.48
764.135	1595.71
764.326	1448.26
764.517	1206.59
764.708	1456.45
764.899	1509.69
765.089	1202.5
765.28	956.74
765.471	1548.61
765.662	1538.37
765.853	1259.84
766.043	1055.05
766.234	1595.71
766.425	1659.2
766.615	1194.31
766.806	1016.13
766.997	1642.81
767.187	1653.05
767.378	1151.3
767.569	1034.57
767.759	1466.69
767.95	1452.35
768.141	1386.82
768.331	1210.69
768.522	1397.06
768.712	1663.29
768.903	1233.22
769.093	1139.01
769.284	1886.52
769.474	1581.37
769.665	940.36
769.855	1028.42
770.046	1706.3
770.236	1468.73
770.426	1378.62
770.617	1116.48
770.807	1587.52
770.998	1329.47
771.188	1401.15
771.378	1114.44
771.569	1573.18
771.759	1712.44
771.949	1100.1
772.139	1007.94
772.33	1491.26
772.52	1767.74
772.71	1030.47
772.9	1059.14
773.09	1814.84
773.281	1706.3
773.471	1208.64
773.661	1177.92
773.851	1689.92
774.041	1548.61
774.231	1153.35
774.421	1333.57
774.611	1734.97
774.802	1448.26
774.992	1354.05
775.182	1128.77
775.372	1483.07
775.562	1671.48
775.752	1245.51
775.942	1190.21
776.131	1755.45
776.321	1614.14
776.511	1145.16
776.701	1067.33
776.891	1665.34
777.081	1280.32
777.271	1321.28
777.461	1208.64
777.651	1538.37
777.84	1710.4
778.03	1358.14
778.22	1210.69
778.41	1878.33
778.599	1202.5
778.789	1317.19
778.979	1139.01
779.169	1579.33
779.358	1452.35
779.548	1468.73
779.738	1087.81
779.927	1636.67
780.117	1265.99
780.307	1317.19
780.496	1053
780.686	1587.52
780.875	1880.38
781.065	1200.45
781.254	1147.2
781.444	1589.57
781.633	1429.82
781.823	1225.03
782.012	1028.42
782.202	1489.21
782.391	1370.43
782.581	1055.05
782.77	1362.24
782.96	1675.58
783.149	1550.65
783.338	1218.88
783.528	1036.61
783.717	1677.63
783.906	1759.55
784.096	1317.19
784.285	1192.26
784.474	1362.24
784.663	1284.42
784.853	1302.85
785.042	1196.36
785.231	1440.06
785.42	1722.68
785.61	1329.47
785.799	1098.05
785.988	1390.91
786.177	1493.31
786.366	1247.55
786.555	1308.99
786.744	1810.75
786.933	1573.18
787.122	1096
787.312	1177.92
787.501	1403.2
787.69	1661.24
787.879	1155.4
788.068	1134.92
788.257	1210.69
788.445	1335.62
788.634	1251.65
788.823	1143.11
789.012	2025.78
789.201	1823.03
789.39	1253.7
789.579	1212.74
789.768	1493.31
789.957	1521.98
790.145	1265.99
790.334	997.7
790.523	1405.25
790.712	1407.3
790.9	1261.89
791.089	1136.96
791.278	1769.79
791.467	1530.17
791.655	1575.23
791.844	1796.41
792.033	1397.06
792.221	1464.64
792.41	1341.76
792.599	1182.02
792.787	1694.01
792.976	1681.72
793.164	1145.16
793.353	1329.47
793.541	1784.12
793.73	1540.41
793.918	1280.32
794.107	1243.46
794.295	1476.93
794.484	1481.02
794.672	1237.31
794.861	1308.99
795.049	1614.14
795.238	1968.44
795.426	1153.35
795.614	1249.6
795.803	1749.31
795.991	1874.23
796.179	1290.56
796.368	1210.69
796.556	1804.6
796.744	1265.99
796.932	1157.44
797.121	1255.75
797.309	1542.46
797.497	1782.07
797.685	1317.19
797.874	1245.51
798.062	1507.65
798.25	1853.75
798.438	1083.72
798.626	1239.36
798.814	1659.2
799.002	2042.17
799.19	1450.3
799.378	1304.9
799.566	1708.35
799.755	1968.44
799.943	1446.21
800.131	1259.84
800.318	1687.87
800.506	1691.96
800.694	1253.7
800.882	1472.83
801.07	1888.57
801.258	1489.21
801.446	1339.71
801.634	1354.05
801.822	1675.58
802.01	1595.71
802.197	1327.43
802.385	1501.5
802.573	1622.33
802.761	1337.66
802.949	1401.15
803.136	1028.42
803.324	1833.27
803.512	1624.38
803.699	1364.29
803.887	1114.44
804.075	1982.78
804.262	1524.03
804.45	1237.31
804.638	1337.66
804.825	1464.64
805.013	1384.77
805.201	1407.3
805.388	1272.13
805.576	1597.76
805.763	2058.55
805.951	1380.67
806.138	1550.65
806.326	2093.37
806.513	1722.68
806.701	1431.87
806.888	1403.2
807.075	1726.78
807.263	2119.99
807.45	1288.51
807.638	1526.08
807.825	2179.38
808.012	1980.73
808.2	1442.11
808.387	1681.72
808.574	1726.78
808.761	2189.62
808.949	1280.32
809.136	1560.89
809.323	1634.62
809.51	1646.91
809.698	1704.25
809.885	1734.97
810.072	1718.59
810.259	1937.72
810.446	1530.17
810.633	1395.01
810.82	1947.96
811.008	2095.41
811.195	1589.57
811.382	1540.41
811.569	1800.51
811.756	1456.45
811.943	1558.85
812.13	1476.93
812.317	1683.77
812.504	1608
812.691	1509.69
812.878	1618.24
813.064	2187.57
813.251	1843.51
813.438	1411.39
813.625	1628.48
813.812	1698.11
813.999	1628.48
814.186	1603.9
814.372	1528.13
814.559	1876.28
814.746	2156.85
814.933	1587.52
815.12	1708.35
815.306	1655.1
815.493	1524.03
815.68	1485.12
815.866	1646.91
816.053	2097.46
816.24	2343.22
816.426	1608
816.613	1364.29
816.799	2044.21
816.986	2021.69
817.173	1464.64
817.359	1464.64
817.546	1786.17
817.732	1540.41
817.919	1294.66
818.105	1620.28
818.292	1702.2
818.478	1896.76
818.665	1659.2
818.851	1521.98
819.037	2341.17
819.224	1796.41
819.41	1458.5
819.597	1390.91
819.783	2228.53
819.969	1845.56
820.156	1603.9
820.342	1456.45
820.528	2484.53
820.714	1790.27
820.901	1919.29
821.087	1597.76
821.273	2255.15
821.459	1675.58
821.646	1450.3
821.832	1425.73
822.018	1777.98
822.204	1816.89
822.39	1630.52
822.576	1431.87
822.762	1964.34
822.948	1857.85
823.134	1759.55
823.32	1661.24
823.507	1616.19
823.693	1849.66
823.879	1939.77
824.065	1558.85
824.25	1888.57
824.436	1624.38
824.622	1558.85
824.808	1517.89
824.994	1648.96
825.18	1622.33
825.366	1427.78
825.552	1524.03
825.738	1777.98
825.923	2040.12
826.109	1694.01
826.295	1517.89
826.481	1657.15
826.667	1827.13
826.852	1704.25
827.038	1558.85
827.224	2038.07
827.409	2113.85
827.595	1534.27
827.781	1710.4
827.966	1982.78
828.152	2095.41
828.338	1440.06
828.523	1427.78
828.709	1673.53
828.894	2175.28
829.08	1612.09
829.266	1509.69
829.451	1605.95
829.637	1866.04
829.822	1696.06
830.008	1544.51
830.193	2124.08
830.378	2230.58
830.564	1642.81
830.749	1431.87
830.935	1896.76
831.12	1820.99
831.305	1519.93
831.491	1683.77
831.676	1571.13
831.861	2019.64
832.047	1593.66
832.232	1388.86
832.417	2177.33
832.602	1870.14
832.788	1423.68
832.973	1524.03
833.158	1806.65
833.343	1870.14
833.528	1657.15
833.714	1689.92
833.899	1743.16
834.084	2169.14
834.269	1804.6
834.454	1567.04
834.639	2017.59
834.824	1782.07
835.009	1714.49
835.194	1820.99
835.379	2015.54
835.564	2124.08
835.749	1663.29
835.934	1407.3
836.119	2029.88
836.304	1939.77
836.489	1587.52
836.674	1849.66
836.859	1653.05
837.044	2140.47
837.228	1534.27
837.413	1466.69
837.598	1718.59
837.783	2117.94
837.968	1581.37
838.152	1423.68
838.337	1327.43
838.522	2126.13
838.707	2029.88
838.891	1683.77
839.076	1759.55
839.261	2165.04
839.445	1700.16
839.63	1710.4
839.815	2163
839.999	1780.03
840.184	1564.99
840.368	1556.8
840.553	2083.13
840.737	1993.01
840.922	1526.08
841.106	1503.55
841.291	1546.56
841.475	1894.71
841.66	1567.04
841.844	1648.96
842.029	2494.77
842.213	1636.67
842.397	1585.47
842.582	1407.3
842.766	2019.64
842.951	2103.61
843.135	1685.82
843.319	1661.24
843.504	1956.15
843.688	2150.71
843.872	1341.76
844.056	1487.17
844.241	1919.29
844.425	1890.62
844.609	1802.55
844.793	1456.45
844.977	2128.18
845.161	1872.18
845.346	1483.07
845.53	1573.18
845.714	1827.13
845.898	2222.39
846.082	1415.49
846.266	1618.24
846.45	1947.96
846.634	1972.54
846.818	1550.65
847.002	1722.68
847.186	2025.78
847.37	1775.93
847.554	1595.71
847.738	1724.73
847.922	1925.43
848.106	1986.87
848.29	1435.97
848.473	1536.32
848.657	1923.38
848.841	1861.94
849.025	1601.85
849.209	1337.66
849.392	2062.65
849.576	1784.12
849.76	1276.23
849.944	1755.45
850.127	2152.76
850.311	1585.47
850.495	1458.5
850.678	1331.52
850.862	2187.57
851.046	2199.86
851.229	1816.89
851.413	1546.56
851.596	1958.2
851.78	1800.51
851.964	1696.06
852.147	1710.4
852.331	2554.16
852.514	2070.84
852.698	1667.39
852.881	1390.91
853.065	2050.36
853.248	1866.04
853.431	1780.03
853.615	1579.33
853.798	2474.29
853.982	1884.47
854.165	1804.6
854.348	1579.33
854.532	1575.23
854.715	1730.87
854.898	1628.48
855.081	1657.15
855.265	2115.89
855.448	2265.39
855.631	1487.17
855.814	1554.75
855.997	2064.69
856.181	1825.08
856.364	1659.2
856.547	1364.29
856.73	1882.42
856.913	1872.18
857.096	1352
857.279	1556.8
857.462	1646.91
857.645	2089.27
857.828	1730.87
858.011	1714.49
858.194	1595.71
858.377	2097.46
858.56	1415.49
858.743	1608
858.926	1587.52
859.109	1882.42
859.292	1599.8
859.475	1513.79
859.658	2087.22
859.841	1990.97
860.023	1497.41
860.206	1481.02
860.389	1931.58
860.572	2169.14
860.755	1575.23
860.937	1474.88
861.12	1833.27
861.303	2007.35
861.486	1552.7
861.668	1438.02
861.851	1855.8
862.034	1812.79
862.216	1651
862.399	1392.96
862.581	1888.57
862.764	2175.28
862.947	1554.75
863.129	1472.83
863.312	1481.02
863.494	2169.14
863.677	1872.18
863.859	1378.62
864.042	1907
864.224	2183.48
864.406	1671.48
864.589	1411.39
864.771	1894.71
864.954	1644.86
865.136	1501.5
865.318	1349.95
865.501	1947.96
865.683	1403.2
865.865	1552.7
866.048	1497.41
866.23	1976.63
866.412	1706.3
866.594	1325.38
866.777	1618.24
866.959	1966.39
867.141	1638.72
867.323	1718.59
867.505	1605.95
867.687	1800.51
867.869	1911.1
868.052	1519.93
868.234	1329.47
868.416	1790.27
868.598	1982.78
868.78	1458.5
868.962	1425.73
869.144	2175.28
869.326	2048.31
869.508	1550.65
869.69	1444.16
869.872	1874.23
870.054	2007.35
870.236	1319.23
870.417	1524.03
870.599	1741.11
870.781	2212.15
870.963	1616.19
871.145	1499.45
871.327	1454.4
871.508	2054.45
871.69	1476.93
871.872	1579.33
872.054	1751.35
872.235	2001.21
872.417	1642.81
872.599	1417.54
872.78	2158.9
872.962	1925.43
873.144	1411.39
873.325	1515.84
873.507	2134.32
873.689	1972.54
873.87	1474.88
874.052	1653.05
874.233	1816.89
874.415	2040.12
874.596	1540.41
874.778	1505.6
874.959	1927.48
875.141	2251.06
875.322	1575.23
875.503	1511.74
875.685	1909.05
875.866	1460.54
876.048	1554.75
876.229	1341.76
876.41	1720.64
876.592	2021.69
876.773	1507.65
876.954	1407.3
877.136	2183.48
877.317	1681.72
877.498	1268.03
877.679	1646.91
877.86	2011.45
878.042	1917.24
878.223	1567.04
878.404	1896.76
878.585	2021.69
878.766	2269.49
878.947	1950.01
879.128	1827.13
879.309	2079.03
879.49	2081.08
879.672	1816.89
879.853	1642.81
880.034	1765.69
880.215	1935.67
880.396	1784.12
880.576	1644.86
880.757	1667.39
880.938	2359.6
881.119	1403.2
881.3	1642.81
881.481	1741.11
881.662	2705.71
881.843	1571.13
882.023	1517.89
882.204	1890.62
882.385	1970.49
882.566	1567.04
882.747	1706.3
882.927	1759.55
883.108	2044.21
883.289	1712.44
883.469	1978.68
883.65	1755.45
883.831	1939.77
884.011	1804.6
884.192	1706.3
884.373	2185.52
884.553	2138.42
884.734	1816.89
884.914	2025.78
885.095	2648.36
885.275	2343.22
885.456	2021.69
885.636	1544.51
885.817	2009.4
885.997	2036.02
886.178	1657.15
886.358	1837.37
886.538	2068.79
886.719	2994.47
886.899	1763.64
887.08	1849.66
887.26	2224.44
887.44	1730.87
887.621	1696.06
887.801	1812.79
887.981	2703.66
888.161	2064.69
888.342	1825.08
888.522	1825.08
888.702	2236.72
888.882	2263.35
889.062	1935.67
889.242	1571.13
889.423	2494.77
889.603	2101.56
889.783	1941.82
889.963	1884.47
890.143	2294.07
890.323	2396.46
890.503	1876.28
890.683	1929.53
890.863	2081.08
891.043	2222.39
891.223	1931.58
891.403	2089.27
891.583	2060.6
891.763	2130.23
891.943	1980.73
892.122	1782.07
892.302	2119.99
892.482	2093.37
892.662	2070.84
892.842	2038.07
893.022	2382.13
893.201	2031.93
893.381	2056.5
893.561	1878.33
893.741	2228.53
893.92	2130.23
894.1	2003.25
894.28	2089.27
894.459	2228.53
894.639	2394.42
894.819	1841.47
894.998	2085.17
895.178	2160.95
895.357	2300.21
895.537	1892.66
895.716	1853.75
895.896	2044.21
896.075	2527.53
896.255	1945.91
896.434	1644.86
896.614	2513.2
896.793	2316.59
896.973	2038.07
897.152	2005.3
897.331	2289.97
897.511	2357.55
897.69	1792.31
897.87	1974.58
898.049	2320.69
898.228	2150.71
898.407	2087.22
898.587	2189.62
898.766	2079.03
898.945	2418.99
899.124	2109.75
899.304	1962.3
899.483	2365.75
899.662	2588.97
899.841	1923.38
900.02	1988.92
900.199	2429.23
900.378	2269.49
900.557	1892.66
900.737	1718.59
900.916	2300.21
901.095	2459.95
901.274	2132.28
901.453	1794.36
901.632	1970.49
901.811	1974.58
901.989	1913.14
902.168	1894.71
902.347	2384.18
902.526	2130.23
902.705	2021.69
902.884	2015.54
903.063	2545.97
903.242	2556.21
903.42	1775.93
903.599	2085.17
903.778	2455.86
903.957	2568.49
904.135	2079.03
904.314	2054.45
904.493	2128.18
904.672	2259.25
904.85	1909.05
905.029	1954.1
905.207	2367.79
905.386	2900.27
905.565	1755.45
905.743	1892.66
905.922	2124.08
906.1	2474.29
906.279	1804.6
906.457	1829.18
906.636	2021.69
906.814	1964.34
906.993	1755.45
907.171	1788.22
907.35	2302.26
907.528	2418.99
907.707	2132.28
907.885	1724.73
908.063	2515.25
908.242	1907
908.42	1835.32
908.598	1728.83
908.777	2365.75
908.955	2111.8
909.133	1880.38
909.311	1866.04
909.49	2156.85
909.668	2072.89
909.846	1988.92
910.024	1743.16
910.202	2255.15
910.38	2222.39
910.559	1751.35
910.737	1794.36
910.915	2353.46
911.093	2236.72
911.271	1933.62
911.449	2079.03
911.627	2371.89
911.805	2515.25
911.983	1915.19
912.161	1798.46
912.339	2257.2
912.517	2355.51
912.695	2052.41
912.872	1907
913.05	1800.51
913.228	2261.3
913.406	1915.19
913.584	1661.24
913.762	2181.43
913.939	2011.45
914.117	1759.55
914.295	1782.07
914.473	2201.91
914.65	2134.32
914.828	1837.37
915.006	1892.66
915.184	1853.75
915.361	2093.37
915.539	1878.33
915.716	1929.53
915.894	2206
916.072	2294.07
916.249	2042.17
916.427	1890.62
916.604	1796.41
916.782	2218.29
916.959	1628.48
917.137	1780.03
917.314	2083.13
917.492	2193.72
917.669	1767.74
917.847	1792.31
918.024	2119.99
918.201	1823.03
918.379	1816.89
918.556	1829.18
918.733	2115.89
918.911	2044.21
919.088	1935.67
919.265	1808.7
919.442	2040.12
919.62	1882.42
919.797	1597.76
919.974	1571.13
920.151	1970.49
920.328	1923.38
920.506	1671.48
920.683	2009.4
920.86	1853.75
921.037	1784.12
921.214	1773.88
921.391	1706.3
921.568	2136.37
921.745	1743.16
921.922	1751.35
922.099	1761.59
922.276	2191.67
922.453	2072.89
922.63	1698.11
922.807	2050.36
922.984	1952.06
923.161	1681.72
923.338	1601.85
923.514	1737.02
923.691	1956.15
923.868	1966.39
924.045	1669.44
924.222	1626.43
924.399	1900.86
924.575	2027.83
924.752	1841.47
924.929	1730.87
925.105	1999.16
925.282	1788.22
925.459	1610.04
925.635	1653.05
925.812	1870.14
925.989	1694.01
926.165	1747.26
926.342	1548.61
926.518	1608
926.695	1792.31
926.871	1448.26
927.048	1427.78
927.224	1988.92
927.401	1710.4
927.577	1595.71
927.754	1524.03
927.93	2142.52
928.107	2033.97
928.283	1452.35
928.459	1728.83
928.636	1886.52
928.812	1640.76
928.988	1392.96
929.165	1442.11
929.341	1849.66
929.517	1771.83
929.693	1870.14
929.87	1179.97
930.046	1874.23
930.222	1605.95
930.398	1440.06
930.574	1648.96
930.751	1694.01
930.927	1587.52
931.103	1485.12
931.279	1497.41
931.455	1530.17
931.631	1696.06
931.807	1360.19
931.983	1368.38
932.159	1329.47
932.335	1753.4
932.511	1524.03
932.687	1497.41
932.863	1644.86
933.039	1638.72
933.215	1304.9
933.391	1196.36
933.566	1472.83
933.742	1587.52
933.918	1392.96
934.094	1042.76
934.27	1554.75
934.445	1648.96
934.621	1415.49
934.797	1112.39
934.973	1745.21
935.148	1554.75
935.324	1055.05
935.5	1001.8
935.675	1759.55
935.851	1603.9
936.027	1120.58
936.202	1200.45
936.378	1460.54
936.553	1362.24
936.729	1474.88
936.904	1124.68
937.08	1069.38
937.255	1200.45
937.431	926.02
937.606	866.63
937.782	1268.03
937.957	1306.95
938.133	1073.48
938.308	923.98
938.483	1177.92
938.659	1093.96
938.834	975.17
939.009	729.42
939.185	1093.96
939.36	1018.18
939.535	735.56
939.71	1030.47
939.886	1298.75
940.061	1161.54
940.236	1040.71
940.411	856.39
940.586	1130.82
940.761	1120.58
940.937	883.02
941.112	780.62
941.287	1032.52
941.462	1161.54
941.637	751.95
941.812	694.6
941.987	1179.97
942.162	1085.76
942.337	749.9
942.512	739.66
942.687	1196.36
942.862	1059.14
943.037	588.11
943.212	428.37
943.386	739.66
943.561	940.36
943.736	858.44
943.911	1153.35
944.086	1034.57
944.26	956.74
944.435	719.18
944.61	807.24
944.785	1247.55
944.959	1306.95
945.134	880.97
945.309	581.96
945.483	794.95
945.658	1204.55
945.833	332.11
946.007	498
946.182	1284.42
946.357	698.7
946.531	596.3
946.706	512.33
946.88	571.72
947.055	962.89
947.229	538.96
947.404	545.1
947.578	1149.25
947.752	831.82
947.927	592.2
948.101	534.86
948.276	854.34
948.45	952.65
948.624	928.07
948.799	655.69
948.973	940.36
949.147	690.51
949.321	713.03
949.496	633.16
949.67	1231.17
949.844	891.21
950.018	655.69
950.193	686.41
950.367	1419.58
950.541	852.3
950.715	917.83
950.889	813.38
951.063	801.1
951.237	1104.2
951.411	379.22
951.585	465.23
951.759	938.31
951.933	932.17
952.107	612.68
952.281	850.25
952.455	1261.89
952.629	1128.77
952.803	616.78
952.977	659.79
953.151	1055.05
953.325	983.37
953.499	797
953.672	588.11
953.846	633.16
954.02	753.99
954.194	524.62
954.368	678.22
954.541	1059.14
954.715	792.91
954.889	829.77
955.062	622.92
955.236	803.15
955.41	823.62
955.583	850.25
955.757	516.43
955.93	735.56
956.104	637.26
956.278	651.6
956.451	645.45
956.625	1012.04
956.798	1401.15
956.972	831.82
957.145	555.34
957.319	944.45
957.492	805.19
957.665	809.29
957.839	551.24
958.012	1053
958.185	815.43
958.359	641.36
958.532	874.82
958.705	1046.85
958.879	948.55
959.052	778.57
959.225	579.92
959.398	897.35
959.572	958.79
959.745	641.36
959.918	708.94
960.091	870.73
960.264	1014.09
960.438	649.55
960.611	655.69
960.784	1009.99
960.957	700.75
961.13	1030.47
961.303	622.92
961.476	858.44
961.649	1046.85
961.822	629.07
961.995	713.03
962.168	981.32
962.341	866.63
962.514	694.6
962.686	614.73
962.859	899.4
963.032	1036.61
963.205	694.6
963.378	520.53
963.551	1018.18
963.723	848.2
963.896	645.45
964.069	813.38
964.242	840.01
964.414	1079.62
964.587	768.33
964.76	794.95
964.932	874.82
965.105	794.95
965.278	680.27
965.45	561.48
965.623	942.41
965.795	1024.33
965.968	678.22
966.14	629.07
966.313	870.73
966.485	852.3
966.658	631.12
966.83	477.52
967.003	1112.39
967.175	1042.76
967.348	653.64
967.52	645.45
967.692	1206.59
967.865	966.98
968.037	598.35
968.209	876.87
968.382	940.36
968.554	1050.95
968.726	557.39
968.898	561.48
969.071	942.41
969.243	989.51
969.415	674.12
969.587	688.46
969.759	1403.2
969.932	1030.47
970.104	620.88
970.276	344.4
970.448	704.84
970.62	706.89
970.792	735.56
970.964	702.79
971.136	1382.72
971.308	999.75
971.48	643.4
971.652	653.64
971.824	1169.73
971.996	786.76
972.168	723.27
972.339	665.93
972.511	1155.4
972.683	846.15
972.855	885.06
973.027	620.88
973.199	850.25
973.37	971.08
973.542	792.91
973.714	747.85
973.886	907.59
974.057	1059.14
974.229	481.61
974.401	584.01
974.572	657.74
974.744	465.23
974.915	534.86
975.087	549.2
975.259	1276.23
975.43	817.48
975.602	627.02
975.773	444.75
975.945	596.3
976.116	930.12
976.288	538.96
976.459	790.86
976.63	794.95
976.802	926.02
976.973	579.92
977.145	815.43
977.316	1239.36
977.487	1167.68
977.659	821.58
977.83	596.3
978.001	1222.98
978.172	862.54
978.344	627.02
978.515	581.96
978.686	760.14
978.857	1186.12
979.028	610.64
979.2	483.66
979.371	1202.5
979.542	788.81
979.713	719.18
979.884	198.99
980.055	575.82
980.226	713.03
980.397	477.52
980.568	379.22
980.739	989.51
980.91	776.52
981.081	655.69
981.252	457.04
981.423	960.84
981.594	1018.18
981.765	493.9
981.936	569.68
982.106	780.62
982.277	960.84
982.448	467.28
982.619	735.56
982.79	612.68
982.96	907.59
983.131	598.35
983.302	293.2
983.472	651.6
983.643	780.62
983.814	710.99
983.984	541.01
984.155	713.03
984.326	1063.24
984.496	665.93
984.667	565.58
984.837	563.53
985.008	1005.89
985.178	768.33
985.349	526.67
985.519	717.13
985.69	674.12
985.86	538.96
986.031	416.08
986.201	715.08
986.371	919.88
986.542	506.19
986.712	420.17
986.882	911.69
987.053	901.45
987.223	420.17
987.393	624.97
987.563	575.82
987.734	977.22
987.904	905.54
988.074	436.56
988.244	801.1
988.414	819.53
988.585	416.08
988.755	680.27
988.925	708.94
989.095	1042.76
989.265	395.6
989.435	481.61
989.605	866.63
989.775	852.3
989.945	786.76
990.115	366.93
990.285	735.56
990.455	829.77
990.625	643.4
990.795	510.29
990.965	1073.48
991.134	649.55
991.304	579.92
991.474	530.77
991.644	813.38
991.814	1177.92
991.984	358.74
992.153	469.33
992.323	715.08
992.493	794.95
992.662	276.82
992.832	508.24
993.002	721.23
993.171	776.52
993.341	319.82
993.511	577.87
993.68	538.96
993.85	1001.8
994.019	198.99
994.189	383.31
994.358	811.34
994.528	639.31
994.697	223.57
994.867	248.15
995.036	780.62
995.206	567.63
995.375	379.22
995.544	520.53
995.714	756.04
995.883	698.7
996.052	446.8
996.222	131.41
996.391	1143.11
996.56	807.24
996.73	287.06
996.899	237.91
997.068	964.93
997.237	706.89
997.406	209.23
997.576	162.13
997.745	702.79
997.914	727.37
998.083	143.7
998.252	338.26
998.421	753.99
998.59	473.42
998.759	319.82
998.928	145.75
999.097	893.26
999.266	717.13
999.435	485.71
999.604	104.79
999.773	1100.1
999.942	651.6
1000.111	172.37
1000.28	98.64
1000.448	342.35
1000.617	471.37
1000.786	526.67
1000.955	256.34
1001.124	596.3
1001.292	1427.78
1001.461	194.9
1001.63	182.61
1001.798	948.55
1001.967	926.02
1002.136	176.47
1002.304	131.41
1002.473	667.98
1002.642	610.64
1002.81	280.91
1002.979	276.82
1003.147	780.62
1003.316	1073.48
1003.484	373.07
1003.653	242
1003.821	966.98
1003.99	584.01
1004.158	409.94
1004.327	416.08
1004.495	782.67
1004.663	350.54
1004.832	383.31
1005	112.98
1005.168	778.57
1005.337	749.9
1005.505	166.23
1005.673	491.85
1005.842	768.33
1006.01	667.98
1006.178	133.46
1006.346	184.66
1006.514	698.7
1006.683	907.59
1006.851	237.91
1007.019	35.16
1007.187	469.33
1007.355	194.9
1007.523	59.73
1007.691	125.27
1007.859	280.91
1008.027	825.67
1008.195	272.72
1008.363	104.79
1008.531	813.38
1008.699	342.35
1008.867	117.08
1009.035	196.95
1009.203	821.58
1009.37	510.29
1009.538	172.37
1009.706	708.94
1009.874	569.68
1010.042	510.29
1010.209	149.84
1010.377	211.28
1010.545	706.89
1010.713	633.16
1010.88	155.99
1011.048	305.49
1011.216	407.89
1011.383	842.06
1011.551	176.47
1011.718	145.75
1011.886	809.29
1012.054	655.69
1012.221	248.15
1012.389	180.56
1012.556	506.19
1012.724	870.73
1012.891	248.15
1013.058	108.88
1013.226	688.46
1013.393	645.45
1013.561	92.5
1013.728	10.58
1013.895	739.66
1014.063	655.69
1014.23	51.54
1014.397	31.06
1014.565	729.42
1014.732	416.08
1014.899	104.79
1015.066	78.16
1015.233	618.83
1015.401	672.08
1015.568	215.38
1015.735	244.05
1015.902	555.34
1016.069	573.77
1016.236	133.46
1016.403	178.51
1016.57	223.57
1016.737	743.75
1016.904	194.9
1017.071	-81.58
1017.238	405.84
1017.405	649.55
1017.572	92.5
1017.739	373.07
1017.906	641.36
1018.073	645.45
1018.24	127.32
1018.407	172.37
1018.573	688.46
1018.74	407.89
1018.907	139.6
1019.074	-46.76
1019.241	643.4
1019.407	454.99
1019.574	100.69
1019.741	-30.38
1019.907	526.67
1020.074	608.59
1020.241	-124.58
1020.407	-28.33
1020.574	592.2
1020.74	610.64
1020.907	139.6
1021.073	-38.57
1021.24	1044.81
1021.406	780.62
1021.573	63.83
1021.739	143.7
1021.906	706.89
1022.072	596.3
1022.239	141.65
1022.405	170.32
1022.571	530.77
1022.738	276.82
1022.904	72.02
1023.07	147.8
1023.237	467.28
1023.403	768.33
1023.569	137.56
1023.735	280.91
1023.902	487.76
1024.068	584.01
1024.234	-65.19
1024.4	22.87
1024.566	512.33
1024.732	596.3
1024.898	51.54
1025.065	-81.58
1025.231	645.45
1025.397	368.98
1025.563	129.36
1025.729	39.25
1025.895	49.49
1026.061	217.43
1026.227	-57
1026.392	129.36
1026.558	715.08
1026.724	571.72
1026.89	31.06
1027.056	160.08
1027.222	504.14
1027.388	385.36
1027.553	59.73
1027.719	-1.71
1027.885	870.73
1028.051	573.77
1028.216	-130.73
1028.382	51.54
1028.548	584.01
1028.713	358.74
1028.879	-59.05
1029.045	260.43
1029.21	676.17
1029.376	637.26
1029.541	78.16
1029.707	69.97
1029.873	579.92
1030.038	637.26
1030.204	14.68
1030.369	18.77
1030.534	633.16
1030.7	305.49
1030.865	53.59
1031.031	-77.48
1031.196	493.9
1031.361	518.48
1031.527	69.97
1031.692	-87.72
1031.857	-36.52
1032.023	551.24
1032.188	-30.38
1032.353	110.93
1032.518	831.82
1032.684	371.02
1032.849	-171.69
1033.014	90.45
1033.179	491.85
1033.344	547.15
1033.509	51.54
1033.674	127.32
1033.839	598.35
1034.004	538.96
1034.17	82.26
1034.335	-63.15
1034.5	289.1
1034.664	264.53
1034.829	-22.19
1034.994	65.88
1035.159	407.89
1035.324	450.89
1035.489	-9.9
1035.654	-34.47
1035.819	719.18
1035.984	426.32
1036.148	115.03
1036.313	33.11
1036.478	592.2
1036.643	399.7
1036.807	-110.25
1036.972	-67.24
1037.137	698.7
1037.301	457.04
1037.466	-196.26
1037.631	104.79
1037.795	518.48
1037.96	416.08
1038.124	203.09
1038.289	-67.24
1038.454	567.63
1038.618	551.24
1038.783	20.82
1038.947	106.84
1039.111	422.22
1039.276	239.95
1039.44	-81.58
1039.605	514.38
1039.769	270.67
1039.933	293.2
1040.098	-26.28
1040.262	280.91
1040.426	553.29
1040.591	389.46
1040.755	-87.72
1040.919	16.73
1041.083	510.29
1041.248	264.53
1041.412	-83.63
1041.576	-42.67
1041.74	301.39
1041.904	498
1042.068	-40.62
1042.232	-77.48
1042.397	559.44
1042.561	362.83
1042.725	-261.8
1042.889	123.22
1043.053	586.06
1043.217	481.61
1043.381	90.45
1043.544	-128.68
1043.708	620.88
1043.872	100.69
1044.036	-302.76
1044.2	-224.94
1044.364	729.42
1044.528	727.37
1044.691	3432.74
1044.855	-128.68
1045.019	622.92
1045.183	502.09
1045.346	-83.63
1045.51	-83.63
1045.674	536.91
1045.837	459.09
1046.001	-83.63
1046.165	-120.49
1046.328	1007.94
1046.492	377.17
1046.655	117.08
1046.819	65.88
1046.983	131.41
1047.146	489.81
1047.31	98.64
1047.473	-161.45
1047.636	371.02
1047.8	231.76
1047.963	22.87
1048.127	-169.64
1048.29	182.61
