Data from Ink_Intensity_USB4F045381__98__00098.txt Node

Date: Mon Jul 17 11:03:37 EDT 2023
User: mmckonesweet
Spectrometer: USB4F04538
Trigger mode: 4
Integration Time (sec): 9.000000E-1
Scans to average: 1
Electric dark correction enabled: true
Nonlinearity correction enabled: false
Boxcar width: 0
XAxis mode: Wavelengths
Number of Pixels in Spectrum: 3648
>>>>>Begin Spectral Data<<<<<
345.52	-983.71
345.736	-983.71
345.952	-983.71
346.168	-1002.14
346.384	-998.04
346.6	-115.37
346.816	-289.45
347.032	-209.58
347.248	236.88
347.464	-144.04
347.68	-31.4
347.896	68.95
348.112	406.86
348.328	-96.94
348.544	-86.7
348.76	17.75
348.975	243.03
349.191	-182.95
349.407	-180.9
349.623	87.38
349.839	-49.83
350.055	-105.13
350.27	109.91
350.486	218.45
350.702	288.08
350.918	304.46
351.133	-137.9
351.349	124.24
351.565	382.29
351.781	-215.72
351.996	-21.16
352.212	277.84
352.428	-76.46
352.644	-148.14
352.859	-211.62
353.075	296.27
353.291	187.73
353.506	-150.18
353.722	-258.73
353.938	30.04
354.153	501.07
354.369	95.57
354.584	-203.43
354.8	230.74
355.016	-322.21
355.231	-191.14
355.447	11.61
355.662	159.06
355.878	771.4
356.093	-271.01
356.309	-47.79
356.524	-238.25
356.74	288.08
356.955	-244.39
357.171	-51.88
357.386	189.78
357.602	-217.77
357.817	-55.98
358.033	-185
358.248	402.77
358.464	175.44
358.679	-158.38
358.895	-254.63
359.11	-25.26
359.325	283.99
359.541	40.28
359.756	5.46
359.972	-260.77
360.187	136.53
360.402	-119.46
360.618	-174.76
360.833	1049.93
361.048	226.64
361.264	-139.94
361.479	-55.98
361.694	34.13
361.909	183.63
362.125	-150.18
362.34	-17.07
362.555	101.72
362.77	144.72
362.986	-316.07
363.201	-127.66
363.416	226.64
363.631	68.95
363.847	-76.46
364.062	-125.61
364.277	150.87
364.492	73.04
364.707	-150.18
364.922	-363.17
365.138	255.31
365.353	398.67
365.568	-236.2
365.783	-170.66
365.998	93.52
366.213	593.23
366.428	-211.62
366.643	95.57
366.858	324.94
367.073	216.4
367.288	-88.75
367.503	-277.16
367.718	105.81
367.933	300.37
368.148	-293.54
368.363	-76.46
368.578	60.76
368.793	427.34
369.008	-92.84
369.223	-232.1
369.438	255.31
369.653	384.34
369.868	-217.77
370.083	-228.01
370.298	120.15
370.513	398.67
370.728	11.61
370.943	-150.18
371.157	-170.66
371.372	490.83
371.587	-268.97
371.802	-271.01
372.017	165.2
372.232	480.59
372.446	-101.03
372.661	-283.3
372.876	208.21
373.091	157.01
373.306	-76.46
373.52	-166.57
373.735	-176.81
373.95	378.19
374.165	-76.46
374.379	-25.26
374.594	-111.27
374.809	79.19
375.023	97.62
375.238	-178.86
375.453	335.18
375.667	-199.34
375.882	-199.34
376.097	-109.22
376.311	130.39
376.526	-60.07
376.741	-209.58
376.955	120.15
377.17	589.13
377.384	570.7
377.599	-101.03
377.813	-271.01
378.028	609.61
378.242	226.64
378.457	25.94
378.672	-314.02
378.886	116.05
379.101	36.18
379.315	-258.73
379.53	-129.7
379.744	226.64
379.958	218.45
380.173	-201.38
380.387	-191.14
380.602	118.1
380.816	-187.05
381.031	-178.86
381.245	-37.55
381.459	140.63
381.674	2604.33
381.888	-219.82
382.103	71
382.317	-158.38
382.531	433.49
382.746	-109.22
382.96	-180.9
383.174	-64.17
383.388	472.4
383.603	46.42
383.817	-256.68
384.031	189.78
384.246	558.41
384.46	9.56
384.674	245.07
384.888	-29.35
385.103	91.48
385.317	-281.25
385.531	-115.37
385.745	367.95
385.959	304.46
386.174	-92.84
386.388	-223.91
386.602	32.08
386.816	-96.94
387.03	-4.78
387.244	-43.69
387.458	-2.73
387.672	367.95
387.887	-211.62
388.101	-211.62
388.315	335.18
388.529	224.59
388.743	-129.7
388.957	-160.42
389.171	431.44
389.385	-150.18
389.599	-125.61
389.813	111.96
390.027	146.77
390.241	675.15
390.455	-121.51
390.669	-47.79
390.883	-21.16
391.097	361.81
391.311	85.33
391.525	-195.24
391.738	318.8
391.952	257.36
392.166	30.04
392.38	-164.52
392.594	288.08
392.808	456.01
393.022	-84.65
393.236	-60.07
393.449	195.92
393.663	165.2
393.877	-213.67
394.091	-31.4
394.305	15.7
394.518	-68.27
394.732	-182.95
394.946	-125.61
395.16	523.6
395.373	200.02
395.587	-164.52
395.801	-125.61
396.015	292.18
396.228	308.56
396.442	-166.57
396.656	-307.88
396.869	378.19
397.083	595.28
397.297	-49.83
397.51	-217.77
397.724	431.44
397.938	214.35
398.151	-279.21
398.365	-187.05
398.578	226.64
398.792	435.53
399.005	7.51
399.219	-117.42
399.433	210.26
399.646	236.88
399.86	36.18
400.073	58.71
400.287	253.27
400.5	91.48
400.714	56.66
400.927	-0.68
401.141	304.46
401.354	1146.18
401.567	232.79
401.781	-271.01
401.994	396.62
402.208	556.36
402.421	-39.59
402.635	-72.36
402.848	189.78
403.061	392.53
403.275	-76.46
403.488	-98.99
403.701	482.64
403.915	261.46
404.128	48.47
404.341	-133.8
404.555	374.1
404.768	58.71
404.981	-15.02
405.195	-113.32
405.408	537.93
405.621	300.37
405.834	-10.92
406.048	-180.9
406.261	517.45
406.474	515.41
406.687	-60.07
406.9	73.04
407.114	103.76
407.327	212.31
407.54	-197.29
407.753	-297.64
407.966	-60.07
408.179	292.18
408.392	-152.23
408.605	-246.44
408.819	292.18
409.032	238.93
409.245	-119.46
409.458	128.34
409.671	331.09
409.884	333.14
410.097	-221.86
410.31	124.24
410.523	253.27
410.736	34.13
410.949	34.13
411.162	-25.26
411.375	521.55
411.588	427.34
411.801	105.81
412.014	-141.99
412.227	173.39
412.44	54.61
412.653	-113.32
412.865	101.72
413.078	376.14
413.291	314.7
413.504	-23.21
413.717	-150.18
413.93	318.8
414.143	-131.75
414.356	-4.78
414.568	-311.97
414.781	496.97
414.994	204.11
415.207	87.38
415.42	34.13
415.632	388.43
415.845	554.32
416.058	-236.2
416.271	-203.43
416.483	197.97
416.696	669
416.909	-125.61
417.121	-98.99
417.334	275.79
417.547	656.72
417.759	-84.65
417.972	-123.56
418.185	52.56
418.397	374.1
418.61	-70.31
418.823	-51.88
419.035	523.6
419.248	161.11
419.46	-2.73
419.673	15.7
419.885	437.58
420.098	128.34
420.311	11.61
420.523	-244.39
420.736	275.79
420.948	101.72
421.161	-51.88
421.373	-246.44
421.586	236.88
421.798	19.8
422.01	-195.24
422.223	85.33
422.435	25.94
422.648	218.45
422.86	-25.26
423.073	-113.32
423.285	392.53
423.497	-178.86
423.71	-96.94
423.922	-86.7
424.134	296.27
424.347	556.36
424.559	165.2
424.771	193.87
424.984	150.87
425.196	228.69
425.408	-185
425.621	-168.62
425.833	476.49
426.045	458.06
426.257	-174.76
426.47	5.46
426.682	326.99
426.894	331.09
427.106	-60.07
427.318	36.18
427.531	21.85
427.743	394.58
427.955	-31.4
428.167	378.19
428.379	365.9
428.591	99.67
428.804	89.43
429.016	-119.46
429.228	105.81
429.44	247.12
429.652	179.54
429.864	-133.8
430.076	154.96
430.288	206.16
430.5	77.14
430.712	79.19
430.924	413.01
431.136	367.95
431.348	-174.76
431.56	32.08
431.772	222.55
431.984	124.24
432.196	1.37
432.408	38.23
432.62	122.2
432.832	318.8
433.044	316.75
433.256	173.39
433.468	400.72
433.679	-92.84
433.891	-41.64
434.103	171.35
434.315	607.56
434.527	460.11
434.739	185.68
434.95	89.43
435.162	492.88
435.374	197.97
435.586	122.2
435.798	-12.97
436.009	-29.35
436.221	243.03
436.433	58.71
436.645	34.13
436.856	187.73
437.068	539.98
437.28	-35.5
437.491	396.62
437.703	345.42
437.915	423.25
438.126	116.05
438.338	413.01
438.55	279.89
438.761	365.9
438.973	21.85
439.184	154.96
439.396	255.31
439.608	449.87
439.819	-39.59
440.031	136.53
440.242	562.51
440.454	464.21
440.665	36.18
440.877	212.31
441.088	499.02
441.3	210.26
441.511	-25.26
441.723	81.24
441.934	390.48
442.146	384.34
442.357	263.51
442.569	492.88
442.78	337.23
442.991	730.44
443.203	372.05
443.414	17.75
443.626	724.3
443.837	185.68
444.048	-4.78
444.26	-70.31
444.471	255.31
444.682	548.17
444.894	-66.22
445.105	-19.11
445.316	554.32
445.528	460.11
445.739	275.79
445.95	177.49
446.161	382.29
446.373	613.71
446.584	222.55
446.795	114
447.006	578.89
447.217	773.45
447.429	19.8
447.64	-35.5
447.851	738.63
448.062	382.29
448.273	-80.55
448.484	238.93
448.695	501.07
448.907	308.56
449.118	263.51
449.329	390.48
449.54	245.07
449.751	126.29
449.962	144.72
450.173	251.22
450.384	630.09
450.595	755.02
450.806	169.3
451.017	150.87
451.228	687.43
451.439	623.95
451.65	224.59
451.861	-66.22
452.072	236.88
452.283	474.45
452.494	331.09
452.705	230.74
452.915	859.46
453.126	554.32
453.337	197.97
453.548	189.78
453.759	673.1
453.97	904.52
454.181	513.36
454.391	226.64
454.602	521.55
454.813	595.28
455.024	316.75
455.235	185.68
455.445	492.88
455.656	648.52
455.867	501.07
456.078	255.31
456.288	433.49
456.499	566.6
456.71	204.11
456.921	597.32
457.131	640.33
457.342	660.81
457.553	427.34
457.763	193.87
457.974	703.82
458.184	662.86
458.395	197.97
458.606	277.84
458.816	873.8
459.027	1119.56
459.237	511.31
459.448	183.63
459.659	841.03
459.869	1078.6
460.08	181.59
460.29	521.55
460.501	1066.31
460.711	533.84
460.922	273.75
461.132	329.04
461.343	1324.35
461.553	341.33
461.764	363.86
461.974	443.73
462.184	847.18
462.395	748.87
462.605	521.55
462.816	216.4
463.026	775.5
463.236	980.29
463.447	398.67
463.657	410.96
463.867	963.91
464.078	681.29
464.288	531.79
464.498	410.96
464.709	669
464.919	642.38
465.129	548.17
465.339	441.68
465.55	830.79
465.76	957.77
465.97	529.74
466.18	472.4
466.391	906.57
466.601	836.94
466.811	566.6
467.021	427.34
467.231	1000.77
467.441	1113.41
467.651	660.81
467.862	365.9
468.072	841.03
468.282	1092.93
468.492	599.37
468.702	705.87
468.912	824.65
469.122	1678.65
469.332	951.62
469.542	574.8
469.752	1174.85
469.962	959.81
470.172	537.93
470.382	566.6
470.592	1080.64
470.802	1232.19
471.012	828.74
471.222	718.15
471.432	1250.63
471.642	1238.34
471.852	857.42
472.062	826.7
472.272	927.05
472.482	775.5
472.691	757.07
472.901	628.04
473.111	1160.52
473.321	1594.68
473.531	785.74
473.741	939.34
473.95	1357.12
474.16	1371.46
474.37	927.05
474.58	976.2
474.79	1662.27
474.999	1381.7
475.209	810.31
475.419	1017.16
475.628	1191.24
475.838	1555.77
476.048	1074.5
476.258	933.19
476.467	1625.4
476.677	1226.05
476.886	1285.44
477.096	1193.28
477.306	1207.62
477.515	1772.86
477.725	1291.59
477.935	1127.75
478.144	1756.47
478.354	1316.16
478.563	1250.63
478.773	1162.56
478.982	1684.8
479.192	1867.06
479.401	1338.69
479.611	1250.63
479.82	1498.43
480.03	1701.18
480.239	1406.27
480.449	1137.99
480.658	2002.23
480.868	1600.83
481.077	1561.92
481.287	1582.4
481.496	1826.11
481.705	2096.44
481.915	1856.82
482.124	1781.05
482.333	1819.96
482.543	2182.45
482.752	1695.04
482.961	1600.83
483.171	2123.06
483.38	1930.55
483.589	1684.8
483.799	1619.26
484.008	1869.11
484.217	2045.24
484.426	1754.43
484.636	1553.73
484.845	2032.95
485.054	1666.36
485.263	2118.97
485.472	1776.95
485.682	2563.37
485.891	2112.82
486.1	1668.41
486.309	1774.91
486.518	2299.19
486.727	2573.61
486.936	1889.59
487.146	1994.04
487.355	2577.71
487.564	2043.19
487.773	1963.32
487.982	1916.22
488.191	2145.59
488.4	2303.28
488.609	1910.07
488.818	2000.18
489.027	2979.11
489.236	2845.99
489.445	2116.92
489.654	2172.21
489.863	2622.77
490.072	2391.34
490.281	2602.29
490.49	2276.66
490.698	2821.42
490.907	2831.66
491.116	2323.76
491.325	2256.18
491.534	2860.33
491.743	2667.82
491.952	2295.09
492.16	2555.18
492.369	2766.12
492.578	2829.61
492.787	2495.79
492.996	2227.51
493.204	2530.61
493.413	3202.34
493.622	2331.95
493.831	2377.01
494.039	3048.74
494.248	2499.89
494.457	2475.31
494.665	2342.19
494.874	2893.1
495.083	3405.09
495.291	2604.33
495.5	2622.77
495.709	2952.49
495.917	3101.99
496.126	2794.79
496.335	2594.09
496.543	2923.82
496.752	2972.97
496.96	3091.75
497.169	2727.21
497.377	2948.39
497.586	3292.45
497.794	2872.62
498.003	2676.01
498.211	3030.31
498.42	3519.78
498.628	2934.06
498.837	2768.17
499.045	3269.92
499.254	3208.48
499.462	2925.86
499.671	2938.15
499.879	3611.93
500.087	3439.9
500.296	2979.11
500.504	3050.79
500.713	3321.12
500.921	3984.66
501.129	3005.74
501.338	3020.07
501.546	3400.99
501.754	3491.1
501.962	3319.07
502.171	3054.89
502.379	3595.55
502.587	3863.83
502.795	3298.6
503.004	3108.13
503.212	3480.86
503.42	3835.16
503.628	3321.12
503.837	3290.4
504.045	3788.06
504.253	4072.73
504.461	3331.36
504.669	3145
504.877	3986.71
505.085	4025.62
505.294	3300.64
505.502	3570.97
505.71	3788.06
505.918	3882.27
506.126	3413.28
506.334	3321.12
506.542	3839.26
506.75	3841.31
506.958	3595.55
507.166	3570.97
507.374	3730.72
507.582	4175.13
507.79	3781.92
507.998	3593.5
508.206	4039.96
508.414	3968.28
508.622	3636.51
508.83	3622.17
509.037	4285.72
509.245	3786.01
509.453	3638.56
509.661	3700
509.869	4138.26
510.077	3970.33
510.285	3802.4
510.492	3368.23
510.7	4562.19
510.908	4013.34
511.116	3794.2
511.324	3863.83
511.531	3925.27
511.739	4162.84
511.947	4211.99
512.155	4224.28
512.362	4187.41
512.57	3888.41
512.778	3904.79
512.985	3704.09
513.193	4506.9
513.401	4750.6
513.608	3972.38
513.816	3921.18
514.024	4457.75
514.231	4668.69
514.439	4175.13
514.646	4162.84
514.854	4490.51
515.061	4654.35
515.269	4132.12
515.477	4107.54
515.684	4259.09
515.892	4742.41
516.099	4130.07
516.307	4140.31
516.514	4769.04
516.722	5020.94
516.929	4244.76
517.136	4205.85
517.344	4859.15
517.551	4709.65
517.759	4150.55
517.966	4400.4
518.173	4644.11
518.381	4795.66
518.588	4510.99
518.796	4326.68
519.003	4977.93
519.21	4642.06
519.418	4494.61
519.625	4758.8
519.832	4748.56
520.039	5022.98
520.247	4449.55
520.454	4584.72
520.661	5176.58
520.868	4955.4
521.076	4785.42
521.283	4611.34
521.49	5551.36
521.697	5068.04
521.904	4850.96
522.112	4701.45
522.319	5184.77
522.526	5072.14
522.733	4609.3
522.94	4779.28
523.147	4961.55
523.354	5391.62
523.561	4656.4
523.768	5041.42
523.975	5412.1
524.183	5240.07
524.39	5076.23
524.597	4914.44
524.804	5264.64
525.011	5100.81
525.218	4918.54
525.425	5231.88
525.632	5563.65
525.838	5207.3
526.045	5033.22
526.252	5182.73
526.459	6556.91
526.666	6364.4
526.873	5109
527.08	5149.96
527.287	5750.01
527.494	5711.1
527.701	5203.21
527.907	5227.78
528.114	5735.68
528.321	5442.82
528.528	5381.38
528.735	5389.57
528.941	5494.02
529.148	5510.4
529.355	5444.87
529.562	5401.86
529.768	6241.53
529.975	5750.01
530.182	5575.94
530.388	5426.43
530.595	5895.42
530.802	5289.22
531.008	5790.97
531.215	5571.84
531.422	6292.73
531.628	6696.18
531.835	5721.34
532.042	5747.97
532.248	5704.96
532.455	6100.22
532.661	5655.81
532.868	5643.52
533.074	6233.33
533.281	6155.51
533.487	5881.08
533.694	5692.67
533.9	5991.67
534.107	6141.18
534.313	5813.5
534.52	5842.17
534.726	6407.41
534.933	6618.35
535.139	5864.7
535.345	5987.58
535.552	6284.53
535.758	6305.01
535.965	6008.06
536.171	6022.39
536.377	6528.24
536.584	6882.54
536.79	6100.22
536.996	6233.33
537.203	6585.58
537.409	6493.43
537.615	6245.62
537.821	6362.36
538.028	6730.99
538.234	6804.72
538.44	6100.22
538.646	6366.45
538.853	6581.49
539.059	6542.58
539.265	6685.94
539.471	6206.71
539.677	6911.21
539.883	6741.23
540.09	6358.26
540.296	6769.9
540.502	6722.8
540.708	6612.21
540.914	6743.28
541.12	6561.01
541.326	6927.6
541.532	6972.65
541.738	6780.14
541.944	6847.72
542.15	7165.16
542.356	7052.52
542.562	6671.6
542.768	7099.62
542.974	7711.97
543.18	7720.16
543.386	6995.18
543.592	6771.95
543.798	7605.47
544.004	7390.44
544.21	6663.41
544.415	7036.14
544.621	7460.07
544.827	7349.48
545.033	6857.96
545.239	7167.21
545.445	7306.47
545.651	7515.36
545.856	6941.93
546.062	7163.11
546.268	7240.93
546.474	7402.72
546.679	7097.58
546.885	7234.79
547.091	7101.67
547.297	7836.89
547.502	7085.29
547.708	7120.1
547.914	7410.92
548.119	7691.49
548.325	7128.3
548.531	7015.66
548.736	8129.75
548.942	7314.66
549.147	7181.54
549.353	7671.01
549.559	7818.46
549.764	7851.23
549.97	7222.5
550.175	7509.22
550.381	7849.18
550.586	7591.14
550.792	7732.45
550.997	7572.71
551.203	8029.4
551.408	8240.34
551.614	7552.23
551.819	7779.55
552.025	8416.47
552.23	8303.83
552.435	7382.24
552.641	7912.67
552.846	7914.72
553.052	8283.35
553.257	8107.23
553.462	7785.69
553.668	8019.16
553.873	8107.23
554.078	7886.05
554.283	8004.83
554.489	8330.45
554.694	8219.86
554.899	7775.45
555.105	8346.84
555.31	8590.55
555.515	8785.1
555.72	8383.7
555.925	7959.77
556.131	8588.5
556.336	8508.63
556.541	8285.4
556.746	8070.36
556.951	8854.73
557.156	8963.28
557.361	8361.17
557.567	8565.97
557.772	9073.87
557.977	8684.75
558.182	8385.75
558.387	8482
558.592	8443.09
558.797	9088.2
559.002	8557.78
559.207	8551.63
559.412	8580.31
559.617	9161.93
559.822	8383.7
560.027	8414.42
560.232	8828.11
560.437	9092.3
560.642	8484.05
560.847	8590.55
561.051	8961.23
561.256	8836.3
561.461	8762.58
561.666	8518.87
561.871	8957.13
562.076	9045.2
562.281	8651.99
562.485	8453.33
562.69	9333.96
562.895	9157.83
563.1	8752.34
563.305	8682.7
563.509	9444.55
563.714	9620.67
563.919	8787.15
564.123	9037
564.328	9100.49
564.533	9387.21
564.737	9213.13
564.942	8920.27
565.147	9608.39
565.351	9938.11
565.556	9045.2
565.761	9125.07
565.965	9362.63
566.17	9143.5
566.374	8983.76
566.579	9028.81
566.784	9553.09
566.988	9637.06
567.193	8973.52
567.397	9102.54
567.602	9120.97
567.806	9405.64
568.011	9170.12
568.215	9571.52
568.42	9540.8
568.624	9700.55
568.828	9598.15
569.033	9426.12
569.237	9813.18
569.442	9884.86
569.646	9319.62
569.85	9372.87
570.055	9594.05
570.259	9804.99
570.463	9571.52
570.668	9561.28
570.872	9516.23
571.076	9989.31
571.281	9774.27
571.485	9682.11
571.689	9866.43
571.893	10130.62
572.098	9917.63
572.302	9444.55
572.506	10118.33
572.71	9845.95
572.914	9608.39
573.119	9757.89
573.323	10355.9
573.527	10411.19
573.731	9827.52
573.935	10050.75
574.139	10403
574.343	10034.36
574.547	9927.87
574.751	9946.3
574.955	10550.45
575.159	10632.37
575.364	9942.21
575.568	9872.57
575.772	10273.98
575.976	10482.87
576.18	9960.64
576.383	9950.4
576.587	10671.28
576.791	10702
576.995	10077.37
577.199	10140.86
577.403	10962.09
577.607	11035.82
577.811	10218.68
578.015	10200.25
578.219	10792.11
578.422	10880.18
578.626	10362.04
578.83	10593.46
579.034	10861.74
579.238	10669.23
579.442	10497.21
579.645	10855.6
579.849	10683.57
580.053	10824.88
580.257	10562.74
580.46	10613.94
580.664	11183.27
580.868	10937.52
581.071	10740.91
581.275	10728.63
581.479	10790.06
581.682	11175.08
581.886	10726.58
582.09	10839.22
582.293	11236.52
582.497	11326.63
582.7	10814.64
582.904	10818.74
583.107	11170.99
583.311	11001.01
583.515	10880.18
583.718	10992.81
583.922	11361.45
584.125	11646.12
584.329	10923.18
584.532	11330.73
584.735	11728.03
584.939	11351.21
585.142	10753.2
585.346	10876.08
585.549	11435.17
585.753	11113.64
585.956	11193.51
586.159	11343.02
586.363	12123.29
586.566	11781.28
586.769	11072.68
586.973	11277.48
587.176	11783.33
587.379	11920.54
587.582	11637.92
587.786	11750.56
587.989	11633.83
588.192	12516.5
588.395	11211.95
588.599	11705.51
588.802	11740.32
589.005	12006.56
589.208	11455.65
589.411	11639.97
589.615	11977.89
589.818	12309.66
590.021	11807.91
590.224	11904.16
590.427	12369.05
590.63	12403.86
590.833	11623.59
591.036	11875.49
591.239	12033.18
591.442	11900.06
591.645	12246.17
591.848	12117.15
592.051	12233.88
592.254	12504.21
592.457	12106.91
592.66	12203.16
592.863	12364.95
593.066	12373.14
593.269	12424.34
593.472	12223.64
593.675	12170.4
593.878	12655.76
594.081	12260.51
594.284	12100.76
594.486	12735.64
594.689	12543.13
594.892	12385.43
595.095	12459.16
595.298	12833.94
595.5	12342.42
595.703	12840.08
595.906	12506.26
596.109	13096.08
596.311	13030.54
596.514	12186.78
596.717	12594.33
596.92	13229.2
597.122	13159.56
597.325	12289.18
597.528	12604.56
597.73	13317.26
597.933	12692.63
598.136	12881.04
598.338	12459.16
598.541	13069.45
598.743	13374.6
598.946	12854.42
599.148	12866.7
599.351	13245.58
599.554	13677.7
599.756	12979.34
599.959	13008.01
600.161	13585.54
600.363	13661.32
600.566	13229.2
600.768	12975.25
600.971	13573.25
601.173	13636.74
601.376	12813.46
601.578	13151.37
601.78	13501.58
601.983	14001.28
602.185	12965.01
602.388	13202.57
602.59	13456.52
602.792	13509.77
602.995	13323.4
603.197	13169.8
603.399	13769.86
603.601	13747.33
603.804	13243.53
604.006	13358.22
604.208	13466.76
604.41	13151.37
604.613	13419.66
604.815	13098.13
605.017	14167.17
605.219	13493.38
605.421	13796.48
605.623	13591.69
605.826	14163.07
606.028	14023.81
606.23	13421.7
606.432	13485.19
606.634	14318.71
606.836	14167.17
607.038	13362.31
607.24	13694.08
607.442	14107.77
607.644	13880.45
607.846	13689.99
608.048	13587.59
608.25	14214.27
608.452	13970.56
608.654	14077.05
608.856	13431.94
609.058	14042.24
609.26	14314.62
609.462	13935.74
609.664	14009.47
609.866	14554.23
610.067	14374.01
610.269	14066.81
610.471	13876.35
610.673	14124.16
610.875	14376.06
611.077	13733
611.278	13927.55
611.48	14281.85
611.682	14924.91
611.884	14261.37
612.085	14099.58
612.287	14218.36
612.489	14433.4
612.69	13726.85
612.892	13964.42
613.094	14558.33
613.295	14476.41
613.497	14021.76
613.699	13962.37
613.9	14808.18
614.102	14326.91
614.304	14300.28
614.505	13833.35
614.707	14503.03
614.908	14279.8
615.11	14134.4
615.311	14570.61
615.513	14752.88
615.714	14646.39
615.916	14339.19
616.117	14195.84
616.319	14468.22
616.52	14871.67
616.722	14398.59
616.923	14382.2
617.124	14840.95
617.326	15094.9
617.527	14365.82
617.729	14570.61
617.93	14748.79
618.131	14961.78
618.333	14464.12
618.534	14492.79
618.735	14886
618.937	15275.12
619.138	14361.72
619.339	14517.37
619.54	15117.42
619.742	14656.63
619.943	14550.14
620.144	14842.99
620.345	15135.85
620.546	15287.4
620.748	14851.19
620.949	14531.7
621.15	14969.97
621.351	15025.26
621.552	14886
621.753	14546.04
621.954	14765.17
622.155	15303.79
622.356	14730.36
622.558	14881.91
622.759	15381.61
622.96	15586.41
623.161	14916.72
623.362	14730.36
623.563	15228.01
623.764	15109.23
623.965	14886
624.166	15137.9
624.366	15033.46
624.567	15291.5
624.768	14845.04
624.969	14660.73
625.17	15332.46
625.371	15406.19
625.572	15029.36
625.773	15008.88
625.973	15653.99
626.174	15570.02
626.375	15297.64
626.576	15176.81
626.777	15711.33
626.977	15885.41
627.178	15350.89
627.379	15295.6
627.58	15391.85
627.78	15574.12
627.981	15305.84
628.182	15438.95
628.382	16129.12
628.583	15187.05
628.784	15211.63
628.984	15385.71
629.185	15811.68
629.386	15807.59
629.586	15359.08
629.787	15080.56
629.987	15879.27
630.188	15826.02
630.388	15428.71
630.589	15352.94
630.79	16280.67
630.99	15967.33
631.191	15529.06
631.391	15697
631.591	16180.32
631.792	16110.69
631.992	15914.08
632.193	15653.99
632.393	16264.29
632.594	15740.01
632.794	15502.44
632.994	15670.37
633.195	15668.33
633.395	15699.05
633.595	15504.49
633.796	15799.4
633.996	15905.89
634.196	16131.17
634.397	15965.28
634.597	15809.64
634.797	15893.6
634.997	16450.65
635.198	16088.16
635.398	15619.17
635.598	16204.89
635.798	16702.55
635.998	16254.05
636.199	15840.36
636.399	15975.52
636.599	15965.28
636.799	16000.1
636.999	16317.53
637.199	16393.31
637.399	16372.83
637.599	16221.28
637.799	15971.43
637.999	16231.52
638.199	16747.61
638.399	15912.03
638.599	16243.81
638.799	16450.65
638.999	16956.5
639.199	16264.29
639.399	16376.92
639.599	16925.78
639.799	16204.89
639.999	16168.03
640.199	16292.96
640.399	16690.26
640.599	16151.65
640.799	16346.2
640.998	16481.37
641.198	16743.51
641.398	16737.37
641.598	16749.65
641.798	16585.82
641.997	17484.87
642.197	16538.71
642.397	16684.12
642.597	16602.2
642.796	17101.9
642.996	17208.4
643.196	16997.46
643.395	16333.92
643.595	17114.19
643.795	16444.51
643.994	16677.97
644.194	16536.67
644.394	17310.8
644.593	17040.47
644.793	16854.1
644.992	17093.71
645.192	17130.58
645.392	16594.01
645.591	17048.66
645.791	17044.56
645.99	17210.45
646.19	17159.25
646.389	16741.46
646.589	17050.71
646.788	17370.19
646.987	17347.66
647.187	17278.03
647.386	17208.4
647.586	17421.39
647.785	17456.2
647.984	17065.04
648.184	17095.76
648.383	17116.24
648.582	17323.08
648.782	17505.35
648.981	17185.87
649.18	17204.3
649.38	17409.1
649.579	17173.58
649.778	17224.78
649.977	17884.23
650.177	17423.44
650.376	17226.83
650.575	17103.95
650.774	17806.41
650.973	17552.46
651.173	17013.84
651.372	17503.31
651.571	17767.49
651.77	17861.7
651.969	17466.44
652.168	17480.78
652.367	17220.69
652.566	17777.73
652.765	17611.85
652.964	17921.09
653.163	18132.03
653.362	17728.58
653.561	17474.63
653.76	17433.68
653.959	17859.65
654.158	17935.43
654.357	17699.91
654.556	17441.87
654.755	18107.46
654.954	18299.97
655.153	17468.49
655.352	17953.86
655.551	18463.8
655.749	18050.11
655.948	17998.91
656.147	17931.33
656.346	18216
656.545	18027.59
656.743	17716.29
656.942	18103.36
657.141	18330.69
657.34	17787.97
657.538	17775.69
657.737	17935.43
657.936	18164.8
658.135	18275.39
658.333	17896.52
658.532	17951.81
658.731	18721.85
658.929	18459.71
659.128	18240.58
659.326	17910.85
659.525	18705.46
659.724	18228.29
659.922	17808.45
660.121	17951.81
660.319	18306.11
660.518	18146.37
660.716	17865.8
660.915	18043.97
661.113	18742.33
661.312	18267.2
661.51	18367.55
661.709	18207.81
661.907	18732.09
662.105	18717.75
662.304	18535.48
662.502	18392.12
662.701	18760.76
662.899	18549.82
663.097	18480.19
663.296	17992.77
663.494	18934.84
663.692	18938.93
663.891	18220.1
664.089	18107.46
664.287	18672.7
664.485	18820.15
664.684	18287.68
664.882	18248.77
665.08	18492.48
665.278	18617.4
665.476	18318.4
665.675	19057.71
665.873	19127.35
666.071	18580.54
666.269	18394.17
666.467	18486.33
666.665	18928.69
666.863	18617.4
667.061	18781.24
667.259	18490.43
667.457	18879.54
667.655	18863.16
667.853	18285.63
668.051	18527.29
668.249	18777.14
668.447	18990.13
668.645	18406.46
668.843	18842.68
669.041	19205.17
669.239	18836.53
669.437	18641.98
669.635	18619.45
669.833	18592.83
670.031	19186.74
670.229	18441.28
670.426	18816.05
670.624	18799.67
670.822	18697.27
671.02	18648.12
671.218	18881.59
671.415	18584.63
671.613	18912.31
671.811	18560.06
672.009	18682.94
672.206	18947.12
672.404	18881.59
672.602	18701.37
672.799	18693.18
672.997	19070
673.195	19389.49
673.392	18803.77
673.59	18676.79
673.788	19070
673.985	18455.61
674.183	18893.88
674.38	18881.59
674.578	19244.08
674.775	18766.9
674.973	18385.98
675.17	18562.11
675.368	19170.35
675.565	19166.26
675.763	18836.53
675.96	18760.76
676.158	19244.08
676.355	18428.99
676.553	18773.05
676.75	18701.37
676.947	19031.09
677.145	18809.91
677.342	18766.9
677.539	18723.9
677.737	19082.29
677.934	19317.81
678.131	18967.6
678.329	18551.87
678.526	19266.61
678.723	19141.68
678.92	19100.72
679.118	18773.05
679.315	18324.54
679.512	19268.66
679.709	18830.39
679.906	18754.62
680.104	19444.78
680.301	19174.45
680.498	18646.07
680.695	18601.02
680.892	19055.67
681.089	18965.56
681.286	18641.98
681.483	18183.23
681.68	19223.6
681.877	19225.65
682.075	18687.03
682.272	19026.99
682.469	19076.15
682.665	18904.12
682.862	18701.37
683.059	18672.7
683.256	19080.24
683.453	19123.25
683.65	18644.02
683.847	18897.97
684.044	19158.06
684.241	18713.66
684.438	19076.15
684.635	18850.87
684.831	19489.84
685.028	19418.16
685.225	18549.82
685.422	18945.08
685.619	18644.02
685.815	18955.32
686.012	18852.92
686.209	18736.18
686.405	18664.5
686.602	19080.24
686.799	18439.23
686.996	18773.05
687.192	18670.65
687.389	19565.61
687.586	18678.84
687.782	18873.4
687.979	19432.49
688.175	19059.76
688.372	18508.86
688.568	18568.25
688.765	18738.23
688.962	19160.11
689.158	18693.18
689.355	18596.92
689.551	18951.22
689.748	19090.48
689.944	18752.57
690.14	18601.02
690.337	19016.76
690.533	18994.23
690.73	18822.2
690.926	18832.44
691.123	18756.66
691.319	18900.02
691.515	18633.78
691.712	18652.22
691.908	19158.06
692.104	18938.93
692.301	18711.61
692.497	18586.68
692.693	19092.53
692.889	19235.89
693.086	18859.06
693.282	18721.85
693.478	19115.06
693.674	19602.47
693.87	18723.9
694.067	18627.64
694.263	18988.08
694.459	18936.88
694.655	19006.52
694.851	18760.76
695.047	19346.48
695.243	18906.16
695.439	18971.7
695.635	18826.29
695.831	19074.1
696.027	19190.83
696.224	18713.66
696.42	18889.78
696.615	19366.96
696.811	19067.95
697.007	18480.19
697.203	18529.34
697.399	19151.92
697.595	19221.55
697.791	18664.5
697.987	18738.23
698.183	18785.33
698.379	18844.73
698.575	19029.04
698.77	18637.88
698.966	19022.9
699.162	19311.66
699.358	18598.97
699.554	18664.5
699.749	19072.05
699.945	19268.66
700.141	18676.79
700.337	18865.21
700.532	18736.18
700.728	18879.54
700.924	18773.05
701.119	18359.36
701.315	18646.07
701.511	18725.94
701.706	18781.24
701.902	18461.76
702.097	18947.12
702.293	19149.87
702.489	18695.22
702.684	18838.58
702.88	18746.42
703.075	19008.56
703.271	18601.02
703.466	18674.74
703.662	18832.44
703.857	18955.32
704.053	18727.99
704.248	18500.67
704.443	19133.49
704.639	19160.11
704.834	18764.85
705.03	18713.66
705.225	19067.95
705.42	19098.67
705.616	18764.85
705.811	18502.72
706.006	18736.18
706.202	18830.39
706.397	18795.57
706.592	18580.54
706.787	18881.59
706.983	18908.21
707.178	18897.97
707.373	18727.99
707.568	19092.53
707.763	18902.07
707.959	18603.07
708.154	18646.07
708.349	19031.09
708.544	18932.79
708.739	18963.51
708.934	18158.66
709.129	18998.32
709.324	19012.66
709.519	18838.58
709.714	18545.72
709.909	19356.72
710.104	18893.88
710.299	18445.37
710.494	18723.9
710.689	18969.65
710.884	19053.62
711.079	18932.79
711.274	18883.64
711.469	19223.6
711.664	19006.52
711.859	18783.29
712.054	18713.66
712.249	18992.18
712.443	19043.38
712.638	18515
712.833	18644.02
713.028	18955.32
713.223	18842.68
713.417	18721.85
713.612	18629.69
713.807	18969.65
714.002	19219.5
714.196	18793.53
714.391	18463.8
714.586	19346.48
714.78	18908.21
714.975	18652.22
715.17	18500.67
715.364	18842.68
715.559	19096.63
715.754	18199.62
715.948	18482.24
716.143	19143.73
716.337	18742.33
716.532	18750.52
716.726	18517.05
716.921	18836.53
717.115	19065.91
717.31	18527.29
717.504	19356.72
717.699	18740.28
717.893	19045.43
718.088	18238.53
718.282	18347.07
718.476	18834.49
718.671	18834.49
718.865	18601.02
719.059	18414.65
719.254	18596.92
719.448	18721.85
719.642	19829.8
719.837	18259.01
720.031	18791.48
720.225	18500.67
720.419	18424.89
720.614	18140.22
720.808	18748.47
721.002	18621.5
721.196	18191.42
721.39	18267.2
721.585	18631.74
721.779	18684.98
721.973	18039.87
722.167	17857.6
722.361	18224.19
722.555	18951.22
722.749	18097.22
722.943	18064.45
723.137	18224.19
723.331	18449.47
723.525	18209.86
723.719	18033.73
723.913	18629.69
724.107	18840.63
724.301	18043.97
724.495	18383.93
724.689	18848.82
724.883	18691.13
725.077	18170.94
725.271	18406.46
725.465	19014.71
725.659	18306.11
725.853	18388.03
726.046	18111.55
726.24	18000.96
726.434	18259.01
726.628	18113.6
726.822	18183.23
727.015	18852.92
727.209	18697.27
727.403	18082.88
727.596	17964.1
727.79	18826.29
727.984	18695.22
728.177	18349.12
728.371	18197.57
728.565	18822.2
728.758	18156.61
728.952	18148.42
729.146	18318.4
729.339	18828.34
729.533	18568.25
729.726	18066.5
729.92	18418.75
730.113	18914.36
730.307	18379.84
730.5	18304.06
730.694	18289.73
730.887	18302.01
731.081	18682.94
731.274	18248.77
731.468	18123.84
731.661	18584.63
731.854	18250.81
732.048	18410.56
732.241	18056.26
732.435	18494.52
732.628	18648.12
732.821	18660.41
733.014	18121.79
733.208	18414.65
733.401	18992.18
733.594	18125.89
733.788	18103.36
733.981	18830.39
734.174	18707.51
734.367	18224.19
734.56	18510.91
734.754	18678.84
734.947	18893.88
735.14	18252.86
735.333	18539.58
735.526	18695.22
735.719	18318.4
735.912	18439.23
736.105	18160.7
736.298	18330.69
736.491	18187.33
736.684	18066.5
736.877	18195.52
737.07	18392.12
737.263	18721.85
737.456	18295.87
737.649	18007.11
737.842	18478.14
738.035	18496.57
738.228	18308.16
738.421	18594.87
738.614	18431.04
738.807	18977.84
739	18017.35
739.192	17923.14
739.385	18662.46
739.578	18621.5
739.771	18795.57
739.964	18199.62
740.156	18781.24
740.349	18494.52
740.542	18381.88
740.735	17998.91
740.927	18093.12
741.12	18332.73
741.313	18226.24
741.505	18467.9
741.698	18371.65
741.891	18848.82
742.083	18510.91
742.276	18302.01
742.468	18363.45
742.661	18631.74
742.854	18330.69
743.046	18281.53
743.239	18656.31
743.431	18500.67
743.624	18193.47
743.816	17876.04
744.009	18379.84
744.201	18631.74
744.393	18545.72
744.586	18019.39
744.778	18650.17
744.971	18480.19
745.163	18185.28
745.355	18316.35
745.548	18273.34
745.74	18670.65
745.932	18254.91
746.125	18097.22
746.317	18914.36
746.509	18330.69
746.702	18465.85
746.894	18527.29
747.086	18529.34
747.278	18756.66
747.471	18322.49
747.663	18328.64
747.855	18304.06
748.047	18662.46
748.239	18363.45
748.431	18074.69
748.623	18670.65
748.815	18713.66
749.008	18199.62
749.2	17980.48
749.392	18414.65
749.584	18474.04
749.776	18230.34
749.968	18242.62
750.16	18912.31
750.352	17994.82
750.544	18355.26
750.736	18031.68
750.928	18504.76
751.12	18402.36
751.311	17941.57
751.503	18232.38
751.695	18232.38
751.887	18320.45
752.079	17851.46
752.271	17806.41
752.463	19082.29
752.654	18183.23
752.846	17957.96
753.038	17851.46
753.23	18019.39
753.421	18330.69
753.613	17701.96
753.805	18216
753.997	18291.77
754.188	18408.51
754.38	17755.21
754.572	18220.1
754.763	18431.04
754.955	17867.84
755.146	18142.27
755.338	17947.72
755.53	17978.43
755.721	18027.59
755.913	17699.91
756.104	17671.24
756.296	18117.7
756.487	18414.65
756.679	17884.23
756.87	17761.35
757.062	17847.36
757.253	18287.68
757.445	17626.18
757.636	17935.43
757.827	17892.42
758.019	18570.3
758.21	17572.94
758.401	17806.41
758.593	18410.56
758.784	18224.19
758.975	17333.32
759.167	17486.92
759.358	17826.89
759.549	17921.09
759.74	17744.97
759.932	17658.95
760.123	18101.31
760.314	17624.14
760.505	17316.94
760.696	17466.44
760.888	18306.11
761.079	17820.74
761.27	17187.92
761.461	17175.63
761.652	18177.09
761.843	17681.48
762.034	17314.89
762.225	17873.99
762.416	17548.36
762.607	17284.17
762.798	17443.92
762.989	17603.66
763.18	18451.52
763.371	17515.59
763.562	17275.98
763.753	17351.76
763.944	17935.43
764.135	17597.51
764.326	17431.63
764.517	16991.31
764.708	17640.52
764.899	17679.43
765.089	16790.61
765.28	17081.42
765.471	17405
765.662	17484.87
765.853	17157.2
766.043	16661.59
766.234	17425.48
766.425	17302.61
766.615	17058.9
766.806	16989.27
766.997	17714.25
767.187	17202.25
767.378	17192.01
767.569	16888.92
767.759	17290.32
767.95	17255.5
768.141	17245.26
768.331	17015.89
768.522	17110.1
768.712	17351.76
768.903	16878.68
769.093	16895.06
769.284	17677.38
769.474	17151.06
769.665	16405.59
769.855	16389.21
770.046	17261.65
770.236	16983.12
770.426	17069.14
770.617	16598.1
770.807	17099.86
770.998	17036.37
771.188	16876.63
771.378	16776.28
771.569	17364.04
771.759	17112.14
771.949	16573.53
772.139	16589.91
772.33	16749.65
772.52	17138.77
772.71	16641.11
772.9	16573.53
773.09	17083.47
773.281	17339.47
773.471	16548.95
773.661	16729.17
773.851	16759.89
774.041	16583.77
774.231	16540.76
774.421	16481.37
774.611	16991.31
774.802	16913.49
774.992	16395.36
775.182	16165.98
775.372	16786.52
775.562	16612.44
775.752	16381.02
775.942	16366.68
776.131	17044.56
776.321	16514.14
776.511	16462.94
776.701	16172.13
776.891	16952.4
777.081	16585.82
777.271	16243.81
777.461	16303.2
777.651	16911.44
777.84	16815.19
778.03	16301.15
778.22	16151.65
778.41	16811.09
778.599	16362.59
778.789	16368.73
778.979	15924.32
779.169	16651.35
779.358	16450.65
779.548	16428.12
779.738	15834.21
779.927	16579.67
780.117	16206.94
780.307	15852.64
780.496	15643.75
780.686	16493.66
780.875	16655.45
781.065	16161.89
781.254	15668.33
781.444	16227.42
781.633	16243.81
781.823	15803.49
782.012	16065.63
782.202	15883.36
782.391	16047.2
782.581	15733.86
782.77	16383.07
782.96	16260.19
783.149	15811.68
783.338	15752.29
783.528	15594.6
783.717	16174.17
783.906	16313.44
784.096	15791.2
784.285	15653.99
784.474	15770.72
784.663	15750.24
784.853	15711.33
785.042	15733.86
785.231	15946.85
785.42	16145.5
785.61	15787.11
785.799	15369.32
785.988	15844.45
786.177	15795.3
786.366	15672.42
786.555	15946.85
786.744	16237.66
786.933	15766.63
787.122	15455.34
787.312	15563.88
787.501	15862.88
787.69	16286.81
787.879	15494.25
788.068	15309.93
788.257	15453.29
788.445	15559.78
788.634	15670.37
788.823	15348.84
789.012	16325.72
789.201	16047.2
789.39	15275.12
789.579	15297.64
789.768	15758.44
789.957	15594.6
790.145	15438.95
790.334	15008.88
790.523	15377.51
790.712	15557.74
790.9	15348.84
791.089	15119.47
791.278	15930.47
791.467	15277.16
791.655	15529.06
791.844	15754.34
792.033	15225.97
792.221	15434.86
792.41	15250.54
792.599	14916.72
792.787	15582.31
792.976	15670.37
793.164	15152.24
793.353	15113.33
793.541	15678.57
793.73	15662.18
793.918	15297.64
794.107	15000.69
794.295	15416.43
794.484	15408.23
794.672	15213.68
794.861	15055.98
795.049	15328.36
795.238	15586.41
795.426	14761.08
795.614	14984.3
795.803	15232.11
795.991	15662.18
796.179	14791.8
796.368	14765.17
796.556	15549.54
796.744	15031.41
796.932	15103.09
797.121	14785.65
797.309	15213.68
797.497	15467.63
797.685	15062.13
797.874	14795.89
798.062	15211.63
798.25	15340.65
798.438	14894.19
798.626	14996.59
798.814	15402.09
799.002	15627.37
799.19	15246.44
799.378	14806.13
799.566	15627.37
799.755	15578.22
799.943	14836.85
800.131	15055.98
800.318	15295.6
800.506	15326.32
800.694	15078.51
800.882	15176.81
801.07	15514.73
801.258	15174.77
801.446	15066.22
801.634	14701.68
801.822	15051.89
802.01	15146.09
802.197	15203.44
802.385	15082.61
802.573	15238.25
802.761	15012.98
802.949	15033.46
803.136	15029.36
803.324	15641.7
803.512	15197.29
803.699	15199.34
803.887	14945.39
804.075	15729.77
804.262	15228.01
804.45	14963.83
804.638	14902.39
804.825	15385.71
805.013	15006.83
805.201	15111.28
805.388	14816.37
805.576	15617.13
805.763	15922.27
805.951	15170.67
806.138	15363.18
806.326	15926.37
806.513	15602.79
806.701	15094.9
806.888	15477.87
807.075	15588.46
807.263	16063.58
807.45	15111.28
807.638	15553.64
807.825	15948.9
808.012	15473.77
808.2	15219.82
808.387	15510.63
808.574	15754.34
808.761	16002.15
808.949	15379.56
809.136	15549.54
809.323	15447.15
809.51	15846.5
809.698	15533.16
809.885	15610.98
810.072	15885.41
810.259	16276.57
810.446	15733.86
810.633	15547.5
810.82	15914.08
811.008	16360.54
811.195	15881.31
811.382	15578.22
811.569	16151.65
811.756	15500.39
811.943	15901.79
812.13	15406.19
812.317	15744.1
812.504	15602.79
812.691	16008.29
812.878	15590.5
813.064	16082.02
813.251	15895.65
813.438	15408.23
813.625	15830.12
813.812	15664.23
813.999	15985.76
814.186	15774.82
814.372	15651.94
814.559	15817.83
814.746	16372.83
814.933	15512.68
815.12	15610.98
815.306	15680.61
815.493	15459.43
815.68	15737.96
815.866	15631.46
816.053	16114.78
816.24	16417.88
816.426	15799.4
816.613	15342.7
816.799	16088.16
816.986	16458.84
817.173	15463.53
817.359	15527.02
817.546	15948.9
817.732	15484.01
817.919	15342.7
818.105	15656.04
818.292	15555.69
818.478	15866.98
818.665	15946.85
818.851	15553.64
819.037	16229.47
819.224	15543.4
819.41	15397.99
819.597	15346.8
819.783	15996
819.969	16036.96
820.156	15420.52
820.342	15520.87
820.528	16653.4
820.714	15365.23
820.901	15713.38
821.087	15357.03
821.273	16108.64
821.459	15473.77
821.646	15430.76
821.832	15285.36
822.018	15793.25
822.204	15793.25
822.39	15559.78
822.576	15314.03
822.762	15660.13
822.948	15529.06
823.134	15553.64
823.32	15090.8
823.507	15297.64
823.693	15457.39
823.879	15465.58
824.065	15447.15
824.25	15561.83
824.436	15410.28
824.622	15408.23
824.808	15078.51
824.994	15426.67
825.18	15244.4
825.366	14988.4
825.552	15074.42
825.738	15287.4
825.923	15754.34
826.109	15459.43
826.295	15000.69
826.481	15242.35
826.667	15275.12
826.852	15266.92
827.038	15236.2
827.224	15584.36
827.409	15940.71
827.595	14769.27
827.781	15004.78
827.966	15547.5
828.152	15582.31
828.338	15113.33
828.523	14863.47
828.709	14963.83
828.894	15475.82
829.08	14802.04
829.266	14902.39
829.451	15103.09
829.637	15205.49
829.822	14896.24
830.008	14587
830.193	15320.17
830.378	15164.53
830.564	14683.25
830.749	14369.91
830.935	15121.52
831.12	15273.07
831.305	14695.54
831.491	14527.61
831.676	14402.68
831.861	15164.53
832.047	14478.46
832.232	14681.21
832.417	14814.32
832.602	15156.33
832.788	14369.91
832.973	14685.3
833.158	14804.08
833.343	14894.19
833.528	14605.43
833.714	14580.85
833.899	14713.97
834.084	15520.87
834.269	14705.78
834.454	14374.01
834.639	14707.83
834.824	14642.29
835.009	14597.24
835.194	14361.72
835.379	14910.58
835.564	14763.12
835.749	14666.87
835.934	14021.76
836.119	14834.8
836.304	14539.9
836.489	14292.09
836.674	14554.23
836.859	14017.66
837.044	14939.25
837.228	14500.98
837.413	14312.57
837.598	14904.43
837.783	14656.63
837.968	14388.35
838.152	13945.98
838.337	14328.95
838.522	14824.56
838.707	14570.61
838.891	14232.7
839.076	14484.6
839.261	14525.56
839.445	14314.62
839.63	14154.88
839.815	14980.21
839.999	14156.93
840.184	14021.76
840.368	13876.35
840.553	14316.67
840.737	14681.21
840.922	13986.94
841.106	13925.5
841.291	13800.58
841.475	14279.8
841.66	13575.3
841.844	13972.61
842.029	14888.05
842.213	13896.83
842.397	14027.9
842.582	13622.41
842.766	14464.12
842.951	14208.12
843.135	13874.31
843.319	13800.58
843.504	13890.69
843.688	14265.47
843.872	13655.17
844.056	13788.29
844.241	13937.79
844.425	13831.3
844.609	13780.1
844.793	13556.87
844.977	14277.76
845.161	14015.62
845.346	13536.39
845.53	13462.66
845.714	14058.62
845.898	14120.06
846.082	13583.49
846.266	13393.03
846.45	14021.76
846.634	13864.07
846.818	13786.24
847.002	13495.43
847.186	14013.57
847.37	13464.71
847.554	13427.85
847.738	13595.78
847.922	13728.9
848.106	13988.99
848.29	13112.46
848.473	13585.54
848.657	13681.8
848.841	13966.46
849.025	13511.82
849.209	13245.58
849.392	13722.76
849.576	13591.69
849.76	12973.2
849.944	13296.78
850.127	13970.56
850.311	13157.52
850.495	13200.52
850.678	13196.43
850.862	13571.21
851.046	14097.53
851.229	13347.98
851.413	12985.49
851.596	13302.92
851.78	13491.34
851.964	13485.19
852.147	13028.49
852.331	13898.88
852.514	13489.29
852.698	13014.16
852.881	12887.18
853.065	13628.55
853.248	13294.73
853.431	13036.69
853.615	13051.02
853.798	13624.45
853.982	13298.83
854.165	13229.2
854.348	12995.73
854.532	12774.55
854.715	13014.16
854.898	12917.9
855.081	12979.34
855.265	13577.35
855.448	13182.09
855.631	12524.69
855.814	12674.2
855.997	13059.21
856.181	12958.86
856.364	12571.8
856.547	12887.18
856.73	12944.53
856.913	12958.86
857.096	12532.89
857.279	12846.23
857.462	12715.16
857.645	13270.15
857.828	12815.51
858.011	12893.33
858.194	12606.61
858.377	12813.46
858.56	12227.74
858.743	12870.8
858.926	12487.83
859.109	12752.02
859.292	12317.85
859.475	12565.65
859.658	13069.45
859.841	12848.27
860.023	12471.45
860.206	12352.66
860.389	12690.58
860.572	12786.83
860.755	12418.2
860.937	12534.93
861.12	12391.58
861.303	12592.28
861.486	12299.42
861.668	12125.34
861.851	12639.38
862.034	12682.39
862.216	12428.44
862.399	11883.68
862.581	12637.33
862.764	12760.21
862.947	12420.25
863.129	11973.79
863.312	12072.09
863.494	12541.08
863.677	12360.86
863.859	11965.6
864.042	12493.97
864.224	12694.68
864.406	11994.27
864.589	11779.23
864.771	12100.76
864.954	11973.79
865.136	11752.61
865.318	11533.48
865.501	12289.18
865.683	11805.86
865.865	12000.41
866.048	11760.8
866.23	11748.51
866.412	11809.95
866.594	11752.61
866.777	11852.96
866.959	12016.8
867.141	12000.41
867.323	11711.65
867.505	12018.85
867.687	12156.06
867.869	11943.07
868.052	11650.21
868.234	11402.41
868.416	11971.74
868.598	12170.4
868.78	11414.7
868.962	11617.44
869.144	12289.18
869.326	12231.83
869.508	11498.66
869.69	11519.14
869.872	11664.55
870.054	12407.96
870.236	11431.08
870.417	11408.55
870.599	11916.45
870.781	12289.18
870.963	11472.04
871.145	11644.07
871.327	11453.61
871.508	12051.61
871.69	11588.77
871.872	11599.01
872.054	11658.4
872.235	12016.8
872.417	11748.51
872.599	11400.36
872.78	12219.55
872.962	11637.92
873.144	11091.12
873.325	11449.51
873.507	12354.71
873.689	11777.19
873.87	11476.13
874.052	11828.38
874.233	11900.06
874.415	12166.3
874.596	11472.04
874.778	11445.41
874.959	11916.45
875.141	12225.69
875.322	11648.16
875.503	11326.63
875.685	12006.56
875.866	11222.19
876.048	11570.34
876.229	11279.53
876.41	11822.24
876.592	11867.3
876.773	11531.43
876.954	11283.63
877.136	12221.59
877.317	11709.6
877.498	11377.83
877.679	11594.92
877.86	11861.15
878.042	11867.3
878.223	11568.29
878.404	12143.77
878.585	11957.41
878.766	12270.75
878.947	12033.18
879.128	11746.47
879.309	12090.52
879.49	12092.57
879.672	12145.82
879.853	12063.9
880.034	11902.11
880.215	12043.42
880.396	11959.45
880.576	11895.97
880.757	12006.56
880.938	12424.34
881.119	11771.04
881.3	11531.43
881.481	11945.12
881.662	12942.48
881.843	11691.17
882.023	11838.62
882.204	12272.79
882.385	12125.34
882.566	11711.65
882.747	12006.56
882.927	12321.95
883.108	12348.57
883.289	12174.49
883.469	12477.59
883.65	12217.5
883.831	12268.7
884.011	12436.63
884.192	12063.9
884.373	12606.61
884.553	12465.3
884.734	12514.45
884.914	12385.43
885.095	13210.76
885.275	13034.64
885.456	12414.1
885.636	12117.15
885.817	12645.52
885.997	12465.3
886.178	12348.57
886.358	12569.75
886.538	12549.27
886.719	13722.76
886.899	12338.33
887.08	12596.37
887.26	12926.1
887.44	12280.99
887.621	12395.67
887.801	12373.14
887.981	13112.46
888.161	12987.54
888.342	12356.76
888.522	12395.67
888.702	13071.5
888.882	12919.95
889.062	12721.3
889.242	12244.12
889.423	13325.45
889.603	12809.36
889.783	12663.96
889.963	12184.73
890.143	12973.2
890.323	13030.54
890.503	12549.27
890.683	12625.04
890.863	12897.42
891.043	12993.68
891.223	12821.65
891.403	12842.13
891.583	12981.39
891.763	12754.07
891.943	12496.02
892.122	12807.31
892.302	13087.89
892.482	12684.44
892.662	12756.11
892.842	12833.94
893.022	12823.7
893.201	12833.94
893.381	12885.14
893.561	12729.49
893.741	13055.12
893.92	12967.06
894.1	12727.44
894.28	12567.7
894.459	13196.43
894.639	12801.17
894.819	12557.46
894.998	12754.07
895.178	13018.25
895.357	13063.31
895.537	12739.73
895.716	12645.52
895.896	12989.58
896.075	13358.22
896.255	12659.86
896.434	12635.28
896.614	13159.56
896.793	13251.72
896.973	12569.75
897.152	12317.85
897.331	13112.46
897.511	13059.21
897.69	12203.16
897.87	12559.51
898.049	12940.43
898.228	12936.34
898.407	12766.35
898.587	12696.72
898.766	12788.88
898.945	12731.54
899.124	12758.16
899.304	12551.32
899.483	12940.43
899.662	13341.83
899.841	12735.64
900.02	12518.55
900.199	12745.87
900.378	12866.7
900.557	12440.73
900.737	12309.66
900.916	12952.72
901.095	12813.46
901.274	12770.45
901.453	12237.98
901.632	12563.61
901.811	12336.28
901.989	12311.71
902.168	12256.41
902.347	12891.28
902.526	12434.58
902.705	12252.31
902.884	12362.9
903.063	12823.7
903.242	12752.02
903.42	12053.66
903.599	12199.07
903.778	12766.35
903.957	12926.1
904.135	12354.71
904.314	12182.68
904.493	12758.16
904.672	12371.1
904.85	12131.48
905.029	12280.99
905.207	12606.61
905.386	13169.8
905.565	12141.72
905.743	12090.52
905.922	12131.48
906.1	12461.21
906.279	11715.75
906.457	11957.41
906.636	12096.67
906.814	12154.01
906.993	11760.8
907.171	11887.78
907.35	12147.87
907.528	12424.34
907.707	11965.6
907.885	11895.97
908.063	12350.62
908.242	12045.47
908.42	11728.03
908.598	11580.58
908.777	12080.28
908.955	11828.38
909.133	11783.33
909.311	11486.37
909.49	11840.67
909.668	11758.75
909.846	11564.2
910.024	11441.32
910.202	11756.71
910.38	12068
910.559	11361.45
910.737	11359.4
910.915	11601.06
911.093	11797.67
911.271	11451.56
911.449	11543.72
911.627	11463.85
911.805	12430.49
911.983	11207.85
912.161	11316.39
912.339	11685.03
912.517	11900.06
912.695	11441.32
912.872	11586.72
913.05	11343.02
913.228	11465.89
913.406	11207.85
913.584	11297.96
913.762	11639.97
913.939	11146.41
914.117	10867.89
914.295	10648.75
914.473	11250.86
914.65	11320.49
914.828	10833.07
915.006	10728.63
915.184	10998.96
915.361	11216.04
915.539	11046.06
915.716	11050.16
915.894	11189.42
916.072	11052.2
916.249	10880.18
916.427	11011.25
916.604	10851.5
916.782	11009.2
916.959	10349.75
917.137	10667.19
917.314	11009.2
917.492	10982.57
917.669	10622.13
917.847	10679.47
918.024	10794.16
918.201	10622.13
918.379	10417.33
918.556	10376.38
918.733	10656.95
918.911	10523.83
919.088	10556.6
919.265	10337.46
919.442	10566.84
919.62	10523.83
919.797	10253.5
919.974	9968.83
920.151	10775.73
920.328	10341.56
920.506	10128.57
920.683	10564.79
920.86	10056.89
921.037	9942.21
921.214	10222.78
921.391	9813.18
921.568	10607.8
921.745	10040.51
921.922	9891.01
922.099	9761.98
922.276	10450.1
922.453	10183.87
922.63	9782.46
922.807	10108.09
922.984	10144.95
923.161	9813.18
923.338	9819.33
923.514	9567.43
923.691	9825.47
923.868	9970.88
924.045	9718.98
924.222	9485.51
924.399	9817.28
924.575	9911.49
924.752	9587.91
924.929	9387.21
925.105	9651.39
925.282	9604.29
925.459	9520.32
925.635	9276.62
925.812	9505.99
925.989	9186.51
926.165	9407.69
926.342	9080.01
926.518	9051.34
926.695	9211.08
926.871	9094.35
927.048	8944.84
927.224	9436.36
927.401	9106.63
927.577	8801.49
927.754	8707.28
927.93	9491.65
928.107	9364.68
928.283	8660.18
928.459	8840.4
928.636	9063.63
928.812	8953.04
928.988	8615.12
929.165	8363.22
929.341	8746.19
929.517	8879.31
929.693	8690.9
929.87	8275.16
930.046	8907.98
930.222	8512.72
930.398	8195.29
930.574	8559.83
930.751	8506.58
930.927	8447.19
931.103	8361.17
931.279	8326.36
931.455	8264.92
931.631	8260.82
931.807	7810.27
931.983	8072.41
932.159	7832.8
932.335	8176.86
932.511	7924.96
932.687	7840.99
932.863	8187.1
933.039	7957.72
933.215	7785.69
933.391	7431.4
933.566	7812.32
933.742	7924.96
933.918	7591.14
934.094	7122.15
934.27	7607.52
934.445	7519.46
934.621	7455.97
934.797	7070.95
934.973	7541.99
935.148	7355.62
935.324	7011.56
935.5	6780.14
935.675	7199.98
935.851	7015.66
936.027	6509.81
936.202	6597.87
936.378	6903.02
936.553	6642.93
936.729	6743.28
936.904	6089.98
937.08	6122.74
937.255	6167.8
937.431	5915.9
937.606	5661.95
937.782	6063.35
937.957	6020.35
938.133	5596.42
938.308	5387.52
938.483	5553.41
938.659	5487.87
938.834	5430.53
939.009	5055.75
939.185	5321.99
939.36	5092.62
939.535	4703.5
939.71	5035.27
939.886	5334.28
940.061	5143.81
940.236	5072.14
940.411	4826.38
940.586	4977.93
940.761	5145.86
940.937	4660.49
941.112	4482.32
941.287	4629.77
941.462	4726.03
941.637	4310.29
941.812	4502.8
941.987	4551.95
942.162	4504.85
942.337	4281.62
942.512	4283.67
942.687	4814.09
942.862	4570.38
943.037	3939.61
943.212	3708.19
943.386	4291.86
943.561	4414.74
943.736	4048.15
943.911	4281.62
944.086	4265.24
944.26	4287.76
944.435	3992.86
944.61	4119.83
944.785	4406.55
944.959	4617.49
945.134	3886.36
945.309	3999
945.483	3955.99
945.658	4435.22
945.833	3611.93
946.007	3634.46
946.182	4543.76
946.357	3937.56
946.531	3652.89
946.706	3859.74
946.88	3740.96
947.055	4164.89
947.229	3912.99
947.404	3802.4
947.578	4332.82
947.752	4062.49
947.927	3773.72
948.101	3771.68
948.276	4142.36
948.45	4029.72
948.624	4076.82
948.799	3642.65
948.973	4183.32
949.147	3888.41
949.321	3880.22
949.496	3853.59
949.67	4336.92
949.844	4021.53
950.018	3886.36
950.193	3872.03
950.367	4609.3
950.541	3900.7
950.715	4166.93
950.889	4027.67
951.063	3970.33
951.237	4343.06
951.411	3691.81
951.585	3802.4
951.759	4136.21
951.933	4234.52
952.107	4121.88
952.281	4103.45
952.455	4523.28
952.629	4273.43
952.803	3927.32
952.977	3841.31
953.151	4398.35
953.325	4257.04
953.499	3925.27
953.672	3749.15
953.846	3951.9
954.02	4035.86
954.194	3806.49
954.368	3806.49
954.541	4152.6
954.715	3949.85
954.889	3929.37
955.062	3761.44
955.236	3951.9
955.41	4072.73
955.583	3872.03
955.757	3642.65
955.93	4046.1
956.104	3794.2
956.278	3630.37
956.451	3941.66
956.625	4136.21
956.798	4394.26
956.972	3994.9
957.145	3503.39
957.319	4046.1
957.492	3874.07
957.665	3874.07
957.839	3683.61
958.012	4089.11
958.185	3908.89
958.359	3775.77
958.532	4046.1
958.705	4181.27
958.879	4136.21
959.052	3822.88
959.225	3525.92
959.398	3951.9
959.572	3958.04
959.745	3736.86
959.918	3613.98
960.091	3923.23
960.264	4039.96
960.438	3757.34
960.611	3609.89
960.784	3996.95
960.957	3573.02
961.13	3894.55
961.303	3583.26
961.476	3941.66
961.649	4068.63
961.822	3583.26
961.995	3671.33
962.168	3986.71
962.341	4017.43
962.514	3648.8
962.686	3675.42
962.859	3847.45
963.032	4162.84
963.205	3556.64
963.378	3441.95
963.551	3966.23
963.723	3775.77
963.896	3796.25
964.069	3863.83
964.242	3806.49
964.414	3972.38
964.587	3726.62
964.76	3452.19
964.932	3818.78
965.105	3775.77
965.278	3534.11
965.45	3622.17
965.623	3902.75
965.795	3876.12
965.968	3441.95
966.14	3503.39
966.313	3855.64
966.485	3865.88
966.658	3433.76
966.83	3441.95
967.003	4035.86
967.175	3802.4
967.348	3441.95
967.52	3511.58
967.692	3982.62
967.865	3808.54
968.037	3716.38
968.209	3779.87
968.382	3886.36
968.554	3878.17
968.726	3532.06
968.898	3591.45
969.071	3773.72
969.243	3732.76
969.415	3470.62
969.587	3480.86
969.759	4164.89
969.932	3857.69
970.104	3312.93
970.276	3122.47
970.448	3613.98
970.62	3474.72
970.792	3542.3
970.964	3382.56
971.136	3978.52
971.308	3712.28
971.48	3382.56
971.652	3343.65
971.824	3941.66
971.996	3484.96
972.168	3423.52
972.339	3292.45
972.511	3747.1
972.683	3394.85
972.855	3589.41
973.027	3321.12
973.199	3562.78
973.37	3630.37
973.542	3376.42
973.714	3450.14
973.886	3550.5
974.057	3765.53
974.229	3136.81
974.401	3261.73
974.572	3294.5
974.744	3128.61
974.915	3149.09
975.087	3204.39
975.259	3794.2
975.43	3466.53
975.602	3226.92
975.773	3079.46
975.945	3294.5
976.116	3601.69
976.288	3087.65
976.459	3497.25
976.63	3188
976.802	3454.24
976.973	3056.93
977.145	3288.36
977.316	3710.24
977.487	3456.29
977.659	3282.21
977.83	3173.67
978.001	3900.7
978.172	3374.37
978.344	3024.17
978.515	3175.72
978.686	3314.98
978.857	3566.88
979.028	3095.85
979.2	2999.59
979.371	3570.97
979.542	3341.6
979.713	3231.01
979.884	2676.01
980.055	3151.14
980.226	3212.58
980.397	2979.11
980.568	2798.89
980.739	3538.21
980.91	3218.72
981.081	3151.14
981.252	2913.58
981.423	3286.31
981.594	3345.7
981.765	2909.48
981.936	3069.22
982.106	3147.05
982.277	3450.14
982.448	2985.26
982.619	2921.77
982.79	3036.45
982.96	3407.14
983.131	3028.26
983.302	2786.6
983.472	3009.83
983.643	3183.91
983.814	2954.54
983.984	2764.08
984.155	2960.68
984.326	3194.15
984.496	2866.47
984.667	2837.8
984.837	2880.81
985.008	3308.83
985.178	3009.83
985.349	2907.43
985.519	3020.07
985.69	2975.02
985.86	2841.9
986.031	2686.25
986.201	3075.37
986.371	3063.08
986.542	2729.26
986.712	2563.37
986.882	3134.76
987.053	3093.8
987.223	2700.59
987.393	2827.56
987.563	2956.58
987.734	3163.43
987.904	3136.81
988.074	2753.84
988.244	2790.7
988.414	2676.01
988.585	2751.79
988.755	2696.49
988.925	2843.95
989.095	3142.95
989.265	2639.15
989.435	2721.07
989.605	2997.54
989.775	2987.3
989.945	2866.47
990.115	2442.54
990.285	2878.76
990.455	2975.02
990.625	2678.06
990.795	2637.1
990.965	3237.16
991.134	2559.28
991.304	2536.75
991.474	2575.66
991.644	2925.86
991.814	3073.32
991.984	2364.72
992.153	2377.01
992.323	2802.99
992.493	2774.31
992.662	2399.54
992.832	2612.53
993.002	2694.44
993.171	2749.74
993.341	2241.84
993.511	2590
993.68	2596.14
993.85	2796.84
994.019	2215.22
994.189	2192.69
994.358	2635.05
994.528	2577.71
994.697	2112.82
994.867	2323.76
995.036	2897.19
995.206	2682.16
995.375	2241.84
995.544	2479.41
995.714	2622.77
995.883	2598.19
996.052	2573.61
996.222	2153.78
996.391	3036.45
996.56	2692.4
996.73	2207.03
996.899	2250.03
997.068	2886.95
997.237	2551.09
997.406	2159.92
997.576	1905.98
997.745	2571.57
997.914	2544.94
998.083	1942.84
998.252	2090.29
998.421	2567.47
998.59	2387.25
998.759	2053.43
998.928	1922.36
999.097	2716.97
999.266	2563.37
999.435	2350.39
999.604	2026.81
999.773	2884.91
999.942	2424.11
1000.111	2053.43
1000.28	2016.57
1000.448	2200.88
1000.617	2192.69
1000.786	2327.86
1000.955	2067.77
1001.124	2393.39
1001.292	2981.16
1001.461	2026.81
1001.63	1957.18
1001.798	2786.6
1001.967	2723.12
1002.136	1881.4
1002.304	1946.94
1002.473	2430.26
1002.642	2405.68
1002.81	2032.95
1002.979	1998.13
1003.147	2614.57
1003.316	2835.75
1003.484	1996.09
1003.653	2020.66
1003.821	2475.31
1003.99	2286.9
1004.158	2000.18
1004.327	2110.77
1004.495	2362.67
1004.663	2028.85
1004.832	2008.37
1005	1801.53
1005.168	2366.77
1005.337	2182.45
1005.505	1688.89
1005.673	1973.56
1005.842	2280.75
1006.01	2440.5
1006.178	1762.62
1006.346	1916.22
1006.514	2110.77
1006.683	2565.42
1006.851	1832.25
1007.019	1797.43
1007.187	1893.69
1007.355	1746.23
1007.523	1602.88
1007.691	1652.03
1007.859	1826.11
1008.027	2266.42
1008.195	1799.48
1008.363	1723.71
1008.531	2198.84
1008.699	1889.59
1008.867	1678.65
1009.035	1717.56
1009.203	2338.1
1009.37	2159.92
1009.538	1813.82
1009.706	2065.72
1009.874	1991.99
1010.042	1977.66
1010.209	1590.59
1010.377	1627.45
1010.545	2254.13
1010.713	2047.29
1010.88	1547.58
1011.048	1680.7
1011.216	1791.29
1011.383	2430.26
1011.551	1635.64
1011.718	1529.15
1011.886	2235.7
1012.054	1955.13
1012.221	1645.88
1012.389	1619.26
1012.556	1946.94
1012.724	2405.68
1012.891	1721.66
1013.058	1443.14
1013.226	1979.7
1013.393	2071.86
1013.561	1363.26
1013.728	1316.16
1013.895	2018.61
1014.063	1959.22
1014.23	1455.42
1014.397	1439.04
1014.565	2016.57
1014.732	1779
1014.899	1488.19
1015.066	1387.84
1015.233	1846.59
1015.401	2016.57
1015.568	1512.77
1015.735	1520.96
1015.902	1787.19
1016.069	1944.89
1016.236	1453.38
1016.403	1350.98
1016.57	1482.05
1016.737	1869.11
1016.904	1414.46
1017.071	1363.26
1017.238	1555.77
1017.405	1830.2
1017.572	1379.65
1017.739	1621.31
1017.906	1918.26
1018.073	2043.19
1018.24	1156.42
1018.407	1416.51
1018.573	1953.08
1018.74	1660.22
1018.907	1305.92
1019.074	1129.8
1019.241	1891.64
1019.407	1639.74
1019.574	1236.29
1019.741	1154.37
1019.907	1766.71
1020.074	1729.85
1020.241	1082.69
1020.407	1213.76
1020.574	1733.95
1020.74	1881.4
1020.907	1338.69
1021.073	1185.09
1021.24	2155.83
1021.406	1991.99
1021.573	1146.18
1021.739	1152.32
1021.906	1738.04
1022.072	1516.86
1022.239	1209.67
1022.405	1267.01
1022.571	1514.81
1022.738	1367.36
1022.904	1201.47
1023.07	1310.02
1023.237	1535.29
1023.403	1754.43
1023.569	1209.67
1023.735	1119.56
1023.902	1551.68
1024.068	1695.04
1024.234	1023.3
1024.4	1103.17
1024.566	1588.54
1024.732	1563.97
1024.898	1078.6
1025.065	908.62
1025.231	1658.17
1025.397	1389.89
1025.563	1041.73
1025.729	1103.17
1025.895	1049.93
1026.061	1254.72
1026.227	908.62
1026.392	1094.98
1026.558	1600.83
1026.724	1533.25
1026.89	1068.36
1027.056	1062.21
1027.222	1473.85
1027.388	1379.65
1027.553	1039.69
1027.719	867.66
1027.885	1824.06
1028.051	1418.56
1028.216	771.4
1028.382	984.39
1028.548	1508.67
1028.713	1185.09
1028.879	863.56
1029.045	1002.82
1029.21	1676.6
1029.376	1541.44
1029.541	984.39
1029.707	1072.45
1029.873	1482.05
1030.038	1652.03
1030.204	968.01
1030.369	906.57
1030.534	1492.29
1030.7	1133.89
1030.865	867.66
1031.031	892.23
1031.196	1451.33
1031.361	1314.11
1031.527	816.46
1031.692	881.99
1031.857	931.14
1032.023	1324.35
1032.188	759.11
1032.353	861.51
1032.518	1543.49
1032.684	1357.12
1032.849	736.59
1033.014	814.41
1033.179	1436.99
1033.344	1404.22
1033.509	908.62
1033.674	859.46
1033.839	1357.12
1034.004	1418.56
1034.17	828.74
1034.335	712.01
1034.5	1021.25
1034.664	984.39
1034.829	771.4
1034.994	769.35
1035.159	1207.62
1035.324	1156.42
1035.489	744.78
1035.654	652.62
1035.819	1414.46
1035.984	1236.29
1036.148	718.15
1036.313	662.86
1036.478	1357.12
1036.643	1191.24
1036.807	650.57
1036.972	611.66
1037.137	1338.69
1037.301	1123.65
1037.466	507.21
1037.631	783.69
1037.795	1336.64
1037.96	1080.64
1038.124	871.75
1038.289	597.32
1038.454	1211.71
1038.618	1152.32
1038.783	783.69
1038.947	779.59
1039.111	1066.31
1039.276	957.77
1039.44	593.23
1039.605	1154.37
1039.769	1076.55
1039.933	1013.06
1040.098	730.44
1040.262	869.7
1040.426	1269.06
1040.591	1172.8
1040.755	646.48
1040.919	617.8
1041.083	1068.36
1041.248	1037.64
1041.412	458.06
1041.576	509.26
1041.74	982.34
1041.904	1162.56
1042.068	578.89
1042.232	685.39
1042.397	1217.86
1042.561	1119.56
1042.725	288.08
1042.889	775.5
1043.053	1043.78
1043.217	1090.88
1043.381	685.39
1043.544	542.03
1043.708	1187.14
1043.872	718.15
1044.036	253.27
1044.2	374.1
1044.364	1189.19
1044.528	1256.77
1044.691	3847.45
1044.855	415.05
1045.019	1191.24
1045.183	994.63
1045.346	560.46
1045.51	484.69
1045.674	1015.11
1045.837	988.49
1046.001	464.21
1046.165	550.22
1046.328	1408.32
1046.492	949.57
1046.655	726.35
1046.819	640.33
1046.983	740.68
1047.146	947.53
1047.31	587.08
1047.473	243.03
1047.636	871.75
1047.8	730.44
1047.963	449.87
1048.127	394.58
1048.29	693.58
