Data from Ink_Intensity_USB4F045381__81__00081.txt Node

Date: Mon Jul 17 10:56:01 EDT 2023
User: mmckonesweet
Spectrometer: USB4F04538
Trigger mode: 4
Integration Time (sec): 9.000000E-1
Scans to average: 1
Electric dark correction enabled: true
Nonlinearity correction enabled: false
Boxcar width: 0
XAxis mode: Wavelengths
Number of Pixels in Spectrum: 3648
>>>>>Begin Spectral Data<<<<<
345.52	-999.58
345.736	-999.58
345.952	-999.58
346.168	-1044.63
346.384	-1044.63
346.6	-125.1
346.816	-245.93
347.032	-231.59
347.248	331.6
347.464	-231.59
347.68	-82.09
347.896	87.89
348.112	382.8
348.328	-92.33
348.544	-69.8
348.76	14.17
348.975	261.97
349.191	-225.45
349.407	-159.91
349.623	81.75
349.839	-47.27
350.055	-153.77
350.27	5.97
350.486	143.19
350.702	405.33
350.918	227.15
351.133	-118.95
351.349	214.87
351.565	479.05
351.781	-274.6
351.996	83.8
352.212	419.66
352.428	-69.8
352.644	-168.1
352.859	-172.2
353.075	290.64
353.291	71.51
353.506	-141.48
353.722	-194.73
353.938	-73.9
354.153	460.62
354.369	147.28
354.584	-172.2
354.8	266.07
355.016	-247.97
355.231	-164.01
355.447	-30.89
355.662	178
355.878	847.69
356.093	-268.45
356.309	-49.32
356.524	-141.48
356.74	288.59
356.955	-221.35
357.171	-37.03
357.386	161.62
357.602	-155.82
357.817	-39.08
358.033	-200.87
358.248	409.42
358.464	237.39
358.679	-178.34
358.895	-225.45
359.11	8.02
359.325	329.55
359.541	81.75
359.756	16.21
359.972	-233.64
360.187	288.59
360.402	-139.43
360.618	-172.2
360.833	954.18
361.048	157.52
361.264	-186.54
361.479	40.79
361.694	44.88
361.909	298.83
362.125	-190.63
362.34	-34.99
362.555	339.79
362.77	94.04
362.986	-266.41
363.201	-116.9
363.416	243.54
363.631	57.17
363.847	-172.2
364.062	-131.24
364.277	225.11
364.492	225.11
364.707	-100.52
364.922	-282.79
365.138	388.94
365.353	366.42
365.568	-274.6
365.783	-129.19
365.998	67.41
366.213	587.6
366.428	-172.2
366.643	120.66
366.858	255.83
367.073	231.25
367.288	-73.9
367.503	-200.87
367.718	163.67
367.933	304.98
368.148	-233.64
368.363	-61.61
368.578	44.88
368.793	474.96
369.008	-65.71
369.223	-151.72
369.438	239.44
369.653	462.67
369.868	-200.87
370.083	-198.82
370.298	169.81
370.513	575.31
370.728	96.08
370.943	-137.38
371.157	-172.2
371.372	616.27
371.587	-245.93
371.802	-241.83
372.017	122.71
372.232	532.3
372.446	85.84
372.661	-233.64
372.876	317.26
373.091	233.3
373.306	48.98
373.52	-184.49
373.735	-102.57
373.95	448.33
374.165	-0.17
374.379	-8.36
374.594	-8.36
374.809	159.57
375.023	161.62
375.238	-209.06
375.453	284.5
375.667	-217.26
375.882	-69.8
376.097	-106.67
376.311	130.9
376.526	28.5
376.741	-176.3
376.955	141.14
377.17	601.93
377.384	644.94
377.599	-65.71
377.813	-192.68
378.028	782.15
378.242	237.39
378.457	-6.31
378.672	-231.59
378.886	198.48
379.101	-37.03
379.315	-184.49
379.53	-43.18
379.744	345.94
379.958	225.11
380.173	-16.55
380.387	-43.18
380.602	223.06
380.816	-84.14
381.031	-106.67
381.245	-49.32
381.459	214.87
381.674	847.69
381.888	-55.47
382.103	190.29
382.317	-98.47
382.531	618.32
382.746	22.36
382.96	-45.23
383.174	-53.42
383.388	546.64
383.603	188.24
383.817	-174.25
384.031	274.26
384.246	483.15
384.46	65.36
384.674	446.29
384.888	194.39
385.103	206.67
385.317	-129.19
385.531	65.36
385.745	517.97
385.959	390.99
386.174	40.79
386.388	-182.44
386.602	180.05
386.816	22.36
387.03	-10.41
387.244	69.46
387.458	210.77
387.672	569.16
387.887	-118.95
388.101	-202.92
388.315	468.81
388.529	288.59
388.743	-45.23
388.957	-100.52
389.171	532.3
389.385	-110.76
389.599	-28.84
389.813	196.43
390.027	300.88
390.241	843.59
390.455	-4.27
390.669	102.23
390.883	120.66
391.097	599.88
391.311	212.82
391.525	20.31
391.738	290.64
391.952	259.92
392.166	182.1
392.38	-75.95
392.594	544.59
392.808	454.48
393.022	145.24
393.236	73.56
393.449	337.74
393.663	380.75
393.877	-90.28
394.091	155.47
394.305	102.23
394.518	139.09
394.732	-106.67
394.946	77.65
395.16	644.94
395.373	325.46
395.587	-20.65
395.801	-2.22
396.015	524.11
396.228	436.05
396.442	-114.86
396.656	-61.61
396.869	581.45
397.083	663.37
397.297	186.19
397.51	67.41
397.724	630.6
397.938	407.38
398.151	-112.81
398.365	36.69
398.578	438.09
398.792	628.56
399.005	206.67
399.219	204.63
399.433	343.89
399.646	483.15
399.86	302.93
400.073	257.87
400.287	497.49
400.5	204.63
400.714	315.22
400.927	268.11
401.141	479.05
401.354	1380.16
401.567	528.21
401.781	-37.03
401.994	563.02
402.208	941.89
402.421	137.04
402.635	165.71
402.848	311.12
403.061	618.32
403.275	268.11
403.488	-51.37
403.701	782.15
403.915	591.69
404.128	347.98
404.341	155.47
404.555	565.07
404.768	411.47
404.981	409.42
405.195	186.19
405.408	827.21
405.621	487.25
405.834	417.61
406.048	24.4
406.261	704.33
406.474	759.63
406.687	202.58
406.9	339.79
407.114	319.31
407.327	487.25
407.54	106.32
407.753	51.03
407.966	165.71
408.179	546.64
408.392	137.04
408.605	16.21
408.819	638.8
409.032	616.27
409.245	171.86
409.458	388.94
409.671	550.73
409.884	730.95
410.097	36.69
410.31	409.42
410.523	597.84
410.736	399.18
410.949	321.36
411.162	311.12
411.375	814.92
411.588	683.85
411.801	542.54
412.014	163.67
412.227	415.57
412.44	345.94
412.653	307.02
412.865	522.06
413.078	692.04
413.291	685.9
413.504	327.5
413.717	188.24
413.93	638.8
414.143	296.78
414.356	284.5
414.568	200.53
414.781	870.22
414.994	552.78
415.207	413.52
415.42	372.56
415.632	792.39
415.845	1027.91
416.058	210.77
416.271	268.11
416.483	487.25
416.696	984.9
416.909	241.49
417.121	345.94
417.334	724.81
417.547	1105.73
417.759	272.21
417.972	237.39
418.185	468.81
418.397	773.96
418.61	298.83
418.823	257.87
419.035	921.42
419.248	603.98
419.46	438.09
419.673	487.25
419.885	814.92
420.098	544.59
420.311	458.57
420.523	235.35
420.736	831.3
420.948	677.71
421.161	380.75
421.373	249.68
421.586	724.81
421.798	532.3
422.01	270.16
422.223	597.84
422.435	554.83
422.648	862.02
422.86	386.9
423.073	444.24
423.285	915.27
423.497	479.05
423.71	421.71
423.922	448.33
424.134	857.93
424.347	1068.87
424.559	692.04
424.771	782.15
424.984	569.16
425.196	816.97
425.408	347.98
425.621	436.05
425.833	900.94
426.045	1120.07
426.257	419.66
426.47	556.88
426.682	896.84
426.894	1001.29
427.106	595.79
427.318	618.32
427.531	667.47
427.743	1023.81
427.955	560.97
428.167	950.09
428.379	919.37
428.591	753.48
428.804	726.86
429.016	583.5
429.228	700.23
429.44	964.42
429.652	819.02
429.864	536.4
430.076	749.39
430.288	927.56
430.5	687.95
430.712	843.59
430.924	1118.02
431.136	964.42
431.348	499.53
431.56	665.42
431.772	943.94
431.984	816.97
432.196	575.31
432.408	733
432.62	878.41
432.832	1158.98
433.044	1091.4
433.256	923.46
433.468	1281.86
433.679	675.66
433.891	689.99
434.103	970.57
434.315	1300.29
434.527	1197.89
434.739	825.16
434.95	814.92
435.162	1292.1
435.374	950.09
435.586	894.79
435.798	905.03
436.009	907.08
436.221	1056.58
436.433	812.87
436.645	866.12
436.856	1052.49
437.068	1494.85
437.28	804.68
437.491	1259.33
437.703	1163.08
437.915	1199.94
438.126	935.75
438.338	1226.56
438.55	1191.75
438.761	1326.91
438.973	921.42
439.184	1050.44
439.396	1175.36
439.608	1326.91
439.819	700.23
440.031	1099.59
440.242	1414.98
440.454	1318.72
440.665	1171.27
440.877	1101.64
441.088	1306.43
441.3	1212.23
441.511	900.94
441.723	896.84
441.934	1470.27
442.146	1363.78
442.357	1113.92
442.569	1392.45
442.78	1339.2
442.991	1847.1
443.203	1433.41
443.414	1097.54
443.626	1732.41
443.837	1306.43
444.048	1007.43
444.26	911.18
444.471	1302.34
444.682	1593.15
444.894	1115.97
445.105	1007.43
445.316	1646.4
445.528	1589.05
445.739	1318.72
445.95	1300.29
446.161	1482.56
446.373	1756.99
446.584	1208.13
446.795	1226.56
447.006	1658.68
447.217	1969.98
447.429	1077.06
447.64	1052.49
447.851	1795.9
448.062	1503.04
448.273	1085.25
448.484	1236.8
448.695	1675.07
448.907	1404.74
449.118	1423.17
449.329	1556.29
449.54	1480.51
449.751	1294.15
449.962	1365.82
450.173	1216.32
450.384	1810.23
450.595	1908.54
450.806	1527.61
451.017	1513.28
451.228	1941.3
451.439	1853.24
451.65	1337.15
451.861	1075.01
452.072	1365.82
452.283	1691.45
452.494	1535.81
452.705	1496.89
452.915	2031.41
453.126	1888.06
453.337	1482.56
453.548	1423.17
453.759	1969.98
453.97	2299.7
454.181	1769.27
454.391	1720.12
454.602	1812.28
454.813	1963.83
455.024	1695.55
455.235	1664.83
455.445	2004.79
455.656	1994.55
455.867	1812.28
456.078	1703.74
456.288	1838.91
456.499	1998.65
456.71	1599.29
456.921	2092.85
457.131	2195.25
457.342	2029.37
457.553	1910.58
457.763	1744.7
457.974	2266.93
458.184	2119.48
458.395	1820.47
458.606	1701.69
458.816	2463.54
459.027	2645.8
459.237	1947.45
459.448	1873.72
459.659	2484.02
459.869	2752.3
460.08	1759.03
460.29	2176.82
460.501	2780.97
460.711	2189.11
460.922	1888.06
461.132	2041.65
461.343	2971.43
461.553	2228.02
461.764	2090.81
461.974	2105.14
462.184	2531.12
462.395	2473.78
462.605	2393.9
462.816	2252.59
463.026	2424.62
463.236	2848.55
463.447	2275.12
463.657	2217.78
463.867	2715.44
464.078	2625.33
464.288	2481.97
464.498	2510.64
464.709	2660.14
464.919	2510.64
465.129	2543.41
465.339	2502.45
465.55	2791.21
465.76	2895.66
465.97	2561.84
466.18	2674.48
466.391	3094.31
466.601	2916.14
466.811	2748.2
467.021	2481.97
467.231	3174.18
467.441	3249.96
467.651	2766.64
467.862	2592.56
468.072	3120.93
468.282	3401.51
468.492	2811.69
468.702	3016.49
468.912	3268.39
469.122	3895.07
469.332	3346.21
469.542	3012.39
469.752	3700.51
469.962	3348.26
470.172	3120.93
470.382	3180.32
470.592	3698.46
470.802	3893.02
471.012	3602.21
471.222	3340.07
471.432	3856.15
471.642	3966.74
471.852	3520.29
472.062	3421.99
472.272	3751.71
472.482	3559.2
472.691	3514.14
472.901	3462.94
473.111	4048.66
473.321	4570.9
473.531	3628.83
473.741	3868.44
473.95	4400.91
474.16	4439.83
474.37	4063
474.58	3903.26
474.79	4806.41
474.999	4599.57
475.209	4085.53
475.419	4232.98
475.628	4335.38
475.838	4970.25
476.048	4435.73
476.258	4235.03
476.467	5095.18
476.677	4642.57
476.886	4759.31
477.096	4632.33
477.306	4658.96
477.515	5226.25
477.725	4828.94
477.935	4962.06
478.144	5402.37
478.354	5013.26
478.563	5025.54
478.773	4966.15
478.982	5363.46
479.192	5799.68
479.401	5322.5
479.611	5238.53
479.82	5336.84
480.03	5484.29
480.239	5515.01
480.449	5213.96
480.658	6174.46
480.868	5670.65
481.077	5797.63
481.287	5558.02
481.496	6074.1
481.705	6438.64
481.915	6012.67
482.124	6024.95
482.333	6180.6
482.543	6514.42
482.752	6110.97
482.961	6057.72
483.171	6608.62
483.38	6430.45
483.589	6426.36
483.799	6252.28
484.008	6500.08
484.217	6928.11
484.426	6381.3
484.636	6430.45
484.845	6790.89
485.054	6516.47
485.263	7016.17
485.472	6737.65
485.682	7552.74
485.891	6987.5
486.1	6651.63
486.309	7036.65
486.518	7460.58
486.727	7663.33
486.936	6975.21
487.146	7327.46
487.355	7878.37
487.564	7206.63
487.773	7366.37
487.982	7403.24
488.191	7659.23
488.4	7773.92
488.609	7583.46
488.818	7608.03
489.027	8433.36
489.236	8259.29
489.445	7773.92
489.654	7839.45
489.863	8349.4
490.072	8181.46
490.281	8244.95
490.49	7984.86
490.698	8816.33
490.907	8699.6
491.116	8404.69
491.325	8087.26
491.534	8701.65
491.743	8560.34
491.952	8701.65
492.16	8531.67
492.369	9088.71
492.578	8976.08
492.787	8486.61
492.996	8521.43
493.204	8904.4
493.413	9518.79
493.622	8455.89
493.831	8593.11
494.039	9377.48
494.248	8959.69
494.457	8953.55
494.665	8845.01
494.874	9524.93
495.083	9762.5
495.291	9346.76
495.5	9158.35
495.709	9633.47
495.917	9555.65
496.126	9383.62
496.335	9400.01
496.543	9586.37
496.752	9795.26
496.96	10004.16
497.169	9522.88
497.377	9893.57
497.586	10155.71
497.794	9834.18
498.003	9477.83
498.211	10000.06
498.42	10450.61
498.628	10067.64
498.837	9979.58
499.045	10464.95
499.254	10464.95
499.462	9987.77
499.671	10063.55
499.879	10837.68
500.087	10763.95
500.296	10223.29
500.504	10307.26
500.713	10872.5
500.921	11210.41
501.129	10325.69
501.338	10327.74
501.546	10782.38
501.754	10763.95
501.962	10585.78
502.171	10499.77
502.379	10907.31
502.587	11507.37
502.795	10886.83
503.004	10757.81
503.212	10968.75
503.42	11581.09
503.628	10974.89
503.837	11194.03
504.045	11460.26
504.253	11744.93
504.461	10923.69
504.669	11005.61
504.877	11503.27
505.085	11673.25
505.294	11140.78
505.502	11245.23
505.71	11656.87
505.918	11636.39
506.126	11447.97
506.334	11333.29
506.542	11687.59
506.75	11806.37
506.958	11693.73
507.166	11761.31
507.374	11726.5
507.582	12500.63
507.79	11626.15
507.998	11536.04
508.206	12150.43
508.414	12330.65
508.622	11660.96
508.83	11673.25
509.037	12666.52
509.245	11984.54
509.453	11929.25
509.661	11962.01
509.869	12570.26
510.077	12162.72
510.285	12295.83
510.492	11894.43
510.7	13061.77
510.908	12578.45
511.116	12185.24
511.324	12459.67
511.531	12539.54
511.739	12586.65
511.947	12705.43
512.155	12783.25
512.362	12820.11
512.57	12336.79
512.778	12533.4
512.985	12535.45
513.193	13303.43
513.401	13158.03
513.608	12605.08
513.816	12824.21
514.024	13227.66
514.231	13184.65
514.439	12717.72
514.646	12846.74
514.854	13391.5
515.061	13686.4
515.269	13106.83
515.477	13119.12
515.684	13026.96
515.892	13866.63
516.099	13039.25
516.307	13266.57
516.514	13803.14
516.722	14235.26
516.929	13432.46
517.136	13293.19
517.344	13868.67
517.551	13874.82
517.759	13459.08
517.966	13303.43
518.173	13450.89
518.381	13903.49
518.588	13739.65
518.796	13633.16
519.003	14483.06
519.21	13768.32
519.418	13727.36
519.625	14014.08
519.832	13979.26
520.039	14323.32
520.247	13741.7
520.454	13725.32
520.661	14710.39
520.868	14444.15
521.076	14085.76
521.283	14071.42
521.49	15113.84
521.697	14589.56
521.904	14282.36
522.112	14341.75
522.319	15117.93
522.526	14702.2
522.733	14478.97
522.94	14270.08
523.147	14341.75
523.354	15050.35
523.561	14528.12
523.768	14954.1
523.975	15339.12
524.183	14900.85
524.39	14720.63
524.597	14626.42
524.804	15169.13
525.011	14868.08
525.218	14798.45
525.425	14927.47
525.632	15515.24
525.838	15150.7
526.045	14831.22
526.252	15076.98
526.459	16490.07
526.666	16262.75
526.873	15150.7
527.08	15308.4
527.287	16016.99
527.494	15689.32
527.701	15500.9
527.907	15423.08
528.114	15920.74
528.321	15642.21
528.528	15468.14
528.735	15521.38
528.941	15677.03
529.148	15474.28
529.355	15720.04
529.562	15930.98
529.768	16473.69
529.975	15914.59
530.182	15748.71
530.388	15654.5
530.595	16346.72
530.802	15687.27
531.008	16359
531.215	16279.13
531.422	17170
531.628	17235.53
531.835	16275.04
532.042	16434.78
532.248	16559.7
532.455	16821.84
532.661	16240.22
532.868	16367.2
533.074	16903.76
533.281	16881.24
533.487	16643.67
533.694	16541.27
533.9	17006.16
534.107	17227.34
534.313	16723.54
534.52	16658.01
534.726	17225.29
534.933	17595.98
535.139	16680.53
535.345	16545.37
535.552	17360.46
535.758	17444.43
535.965	17206.86
536.171	17286.73
536.377	17589.83
536.584	17757.77
536.79	17143.38
536.996	17387.08
537.203	17811.01
537.409	17675.85
537.615	17708.62
537.821	17516.11
538.028	17866.31
538.234	18030.15
538.44	17583.69
538.646	17862.21
538.853	18028.1
539.059	17688.14
539.265	18204.22
539.471	17798.73
539.677	18382.4
539.883	18249.28
540.09	17845.83
540.296	18413.12
540.502	18538.04
540.708	17864.26
540.914	18486.84
541.12	18167.36
541.326	18798.13
541.532	18531.9
541.738	18490.94
541.944	18773.56
542.15	19183.15
542.356	18982.45
542.562	18548.28
542.768	18939.44
542.974	19533.36
543.18	19400.24
543.386	19056.18
543.592	18593.34
543.798	19435.05
544.004	19570.22
544.21	18835
544.415	18925.11
544.621	19478.06
544.827	19527.21
545.033	19250.74
545.239	19369.52
545.445	19476.01
545.651	19721.77
545.856	19099.19
546.062	19107.38
546.268	19598.89
546.474	19543.6
546.679	19066.42
546.885	19633.71
547.091	19295.79
547.297	20381.21
547.502	19306.03
547.708	19463.72
547.914	19623.47
548.119	20024.87
548.325	19250.74
548.531	19660.33
548.736	20237.86
548.942	19754.54
549.147	19484.2
549.353	19727.91
549.559	20629.02
549.764	20268.58
549.97	19609.13
550.175	19910.18
550.381	20528.67
550.586	19965.48
550.792	19934.76
550.997	20078.11
551.203	20340.25
551.408	20524.57
551.614	20110.88
551.819	20088.35
552.025	20960.79
552.23	21138.96
552.435	20424.22
552.641	20876.82
552.846	20921.88
553.052	21485.07
553.257	20579.87
553.462	20780.57
553.668	20880.92
553.873	21116.44
554.078	20917.78
554.283	20770.33
554.489	21198.35
554.694	21159.44
554.899	20977.17
555.105	21423.63
555.31	21417.49
555.515	21534.22
555.72	21294.61
555.925	21112.34
556.131	22056.45
556.336	21370.38
556.541	21366.29
556.746	21194.26
556.951	21829.13
557.156	22101.51
557.361	21736.97
557.567	21794.31
557.772	22351.36
557.977	21917.19
558.182	21134.87
558.387	21612.04
558.592	21812.74
558.797	22181.38
559.002	21739.02
559.207	21820.94
559.412	21970.44
559.617	22457.85
559.822	22097.41
560.027	21763.59
560.232	22101.51
560.437	22328.83
560.642	21839.37
560.847	21704.2
561.051	22175.23
561.256	22099.46
561.461	22033.93
561.666	22132.23
561.871	22490.62
562.076	22826.49
562.281	22433.28
562.485	22115.84
562.69	22572.54
562.895	22625.79
563.1	22212.1
563.305	22132.23
563.509	23078.39
563.714	23444.98
563.919	22339.07
564.123	22334.98
564.328	22515.2
564.533	23236.08
564.737	22447.61
564.942	22601.21
565.147	23739.88
565.351	23567.85
565.556	22797.82
565.761	22894.07
565.965	23023.09
566.17	22777.34
566.374	22758.91
566.579	22582.78
566.784	23234.03
566.988	23016.95
567.193	22986.23
567.397	22889.98
567.602	23041.53
567.806	23365.1
568.011	23152.12
568.215	23293.43
568.42	23426.54
568.624	23688.68
568.828	23170.55
569.033	23137.78
569.237	23760.36
569.442	24034.79
569.646	22973.94
569.85	23381.49
570.055	23535.09
570.259	23621.1
570.463	23750.12
570.668	23498.22
570.872	23897.58
571.076	23979.5
571.281	23887.34
571.485	23619.05
571.689	24012.26
571.893	24341.99
572.098	23805.42
572.302	23875.05
572.506	24083.94
572.71	24098.28
572.914	23903.72
573.119	23877.1
573.323	24520.16
573.527	24565.21
573.731	24122.85
573.935	23938.54
574.139	24681.95
574.343	24329.7
574.547	24221.16
574.751	24489.44
574.955	24767.96
575.159	24706.52
575.364	24032.74
575.568	24159.72
575.772	24393.19
575.976	25007.58
576.18	24323.55
576.383	24301.03
576.587	25171.41
576.791	25177.56
576.995	24622.56
577.199	24661.47
577.403	24991.19
577.607	25245.14
577.811	24651.23
578.015	24561.12
578.219	25312.72
578.422	25429.46
578.626	25013.72
578.83	25220.56
579.034	25292.24
579.238	25333.2
579.442	25226.71
579.645	25638.35
579.849	25308.63
580.053	25679.31
580.257	25402.83
580.46	25288.15
580.664	25773.52
580.868	25624.01
581.071	25640.4
581.275	25816.52
581.479	25161.17
581.682	25857.48
581.886	25425.36
582.09	25568.72
582.293	26299.84
582.497	26400.19
582.7	25916.87
582.904	25834.96
583.107	25859.53
583.311	25914.83
583.515	25812.43
583.718	25853.39
583.922	26097.1
584.125	26584.51
584.329	25677.26
584.532	26123.72
584.735	26887.61
584.939	26475.97
585.142	26113.48
585.346	25818.57
585.549	26686.91
585.753	26447.3
585.956	26418.63
586.159	26406.34
586.363	27082.17
586.566	27047.35
586.769	26416.58
586.973	26236.36
587.176	26959.29
587.379	27073.98
587.582	27375.03
587.786	26815.93
587.989	26922.43
588.192	27694.51
588.395	26486.21
588.599	26840.51
588.802	26992.06
589.005	27207.09
589.208	26897.85
589.411	27010.49
589.615	27231.67
589.818	27938.22
590.021	27217.33
590.224	27495.86
590.427	27807.15
590.63	27768.24
590.833	26969.53
591.036	27264.44
591.239	27420.08
591.442	27514.29
591.645	27700.65
591.848	27370.93
592.051	27950.51
592.254	27944.36
592.457	27526.58
592.66	27598.26
592.863	28028.33
593.066	28114.34
593.269	27903.4
593.472	27891.12
593.675	27964.84
593.878	28290.47
594.081	27889.07
594.284	28120.49
594.486	28603.81
594.689	28693.92
594.892	28167.59
595.095	28013.99
595.298	28521.89
595.5	28089.77
595.703	28775.84
595.906	28288.42
596.109	28677.54
596.311	28824.99
596.514	28267.94
596.717	28722.59
596.92	29060.51
597.122	29339.03
597.325	28179.88
597.528	28482.98
597.73	29328.79
597.933	28843.42
598.136	28835.23
598.338	28233.13
598.541	29140.38
598.743	29410.71
598.946	28558.75
599.148	28843.42
599.351	29152.66
599.554	29810.06
599.756	28888.48
599.959	29242.78
600.161	29488.53
600.363	29779.34
600.566	29052.31
600.768	29142.42
600.971	29717.9
601.173	29621.65
601.376	29062.55
601.578	29320.6
601.78	29658.51
601.983	29805.97
602.185	29308.31
602.388	29668.75
602.59	29844.88
602.792	29687.18
602.995	29509.01
603.197	29351.32
603.399	30139.79
603.601	29668.75
603.804	29554.07
604.006	29781.39
604.208	29607.31
604.41	29601.17
604.613	29709.71
604.815	29429.14
605.017	30037.39
605.219	29887.89
605.421	29918.6
605.623	29740.43
605.826	30680.45
606.028	30420.36
606.23	29744.53
606.432	29934.99
606.634	30793.09
606.836	30086.54
607.038	29603.22
607.24	30104.97
607.442	30254.47
607.644	30332.29
607.846	30274.95
608.048	29689.23
608.25	30289.29
608.452	30363.01
608.654	30217.61
608.856	29840.78
609.058	30135.69
609.26	30999.93
609.462	30035.34
609.664	30311.81
609.866	30958.97
610.067	30533
610.269	30496.13
610.471	30027.15
610.673	30434.69
610.875	31032.7
611.077	29863.31
611.278	30256.52
611.48	30528.9
611.682	31245.69
611.884	30612.87
612.085	30383.49
612.287	30674.31
612.489	30973.31
612.69	30391.69
612.892	30705.02
613.094	30758.27
613.295	30938.49
613.497	30539.14
613.699	30426.5
613.9	30903.68
614.102	30997.88
614.304	30209.42
614.505	30041.48
614.707	30922.11
614.908	30680.45
615.11	30469.51
615.311	30815.62
615.513	30954.88
615.714	31366.52
615.916	30807.42
616.117	30608.77
616.319	31194.49
616.52	30975.36
616.722	30377.35
616.923	30670.21
617.124	31434.1
617.326	31049.08
617.527	30725.5
617.729	31106.43
617.93	31253.88
618.131	31554.93
618.333	30475.65
618.534	30715.26
618.735	30936.45
618.937	31364.47
619.138	30645.63
619.339	30438.79
619.54	31051.13
619.742	31139.19
619.943	31094.14
620.144	31206.78
620.345	31446.39
620.546	31704.43
620.748	31081.85
620.949	31384.95
621.15	31690.1
621.351	31470.97
621.552	31094.14
621.753	30797.18
621.954	31102.33
622.155	31720.82
622.356	31120.76
622.558	31204.73
622.759	31212.92
622.96	31741.3
623.161	31524.21
623.362	31087.99
623.563	31583.6
623.764	31495.54
623.965	31370.61
624.166	31655.28
624.366	31575.41
624.567	31978.86
624.768	30735.74
624.969	31087.99
625.17	31645.04
625.371	31640.95
625.572	31264.12
625.773	31657.33
625.973	32206.19
626.174	32050.54
626.375	31671.67
626.576	31903.09
626.777	32032.11
626.977	32144.75
627.178	31626.61
627.379	31399.29
627.58	31348.09
627.78	31688.05
627.981	31692.15
628.182	31921.52
628.382	32445.8
628.583	31524.21
628.784	31354.23
628.984	31604.08
629.185	32439.65
629.386	31960.43
629.586	32148.84
629.787	31837.55
629.987	32462.18
630.188	32232.81
630.388	32109.93
630.589	31927.66
630.79	32742.75
630.99	32245.1
631.191	32157.03
631.391	32146.79
631.591	32220.52
631.792	32318.82
631.992	32333.16
632.193	32574.82
632.393	32392.55
632.594	32134.51
632.794	31661.43
632.994	32619.88
633.195	32494.95
633.395	32470.37
633.595	32116.08
633.796	32431.46
633.996	32570.72
634.196	32744.8
634.397	32357.74
634.597	32335.21
634.797	32904.54
634.997	32716.13
635.198	32451.94
635.398	32103.79
635.598	33082.72
635.798	33103.2
635.998	32484.71
636.199	32382.31
636.399	32200.04
636.599	32986.46
636.799	32417.13
636.999	32529.76
637.199	32836.96
637.399	33019.23
637.599	32603.49
637.799	32410.98
637.999	32793.95
638.199	33475.93
638.399	32666.98
638.599	32730.47
638.799	33174.88
638.999	33631.57
639.199	33107.29
639.399	33099.1
639.599	33400.15
639.799	32390.5
639.999	32861.54
640.199	32820.58
640.399	33236.31
640.599	32578.92
640.799	32996.7
640.998	33316.18
641.198	33373.53
641.398	33187.16
641.598	32636.26
641.798	32916.83
641.997	34313.55
642.197	33318.23
642.397	33236.31
642.597	33008.99
642.796	33619.28
642.996	33901.9
643.196	32904.54
643.395	33154.4
643.595	33211.74
643.795	32763.23
643.994	33373.53
644.194	33156.44
644.394	33516.89
644.593	33912.14
644.793	33463.64
644.992	33588.56
645.192	33848.66
645.392	33324.38
645.591	33756.5
645.791	33406.3
645.99	34096.46
646.19	33877.33
646.389	33566.04
646.589	33883.47
646.788	34162
646.987	34098.51
647.187	34211.15
647.386	34090.32
647.586	33957.2
647.785	34051.41
647.984	33897.81
648.184	33899.86
648.383	33992.01
648.582	33910.1
648.782	33899.86
648.981	33940.82
649.18	33869.14
649.38	34053.45
649.579	33666.39
649.778	33719.63
649.977	34563.4
650.177	34514.25
650.376	34032.97
650.575	33918.29
650.774	34342.22
650.973	34186.57
651.173	33758.55
651.372	33811.79
651.571	34149.71
651.77	34512.2
651.969	34174.28
652.168	34014.54
652.367	34127.18
652.566	34448.71
652.765	33985.87
652.964	34651.46
653.163	35038.53
653.362	34434.38
653.561	34088.27
653.76	34411.85
653.959	34311.5
654.158	35056.96
654.357	34196.81
654.556	34237.77
654.755	34960.7
654.954	34676.04
655.153	34288.97
655.352	34526.53
655.551	34612.55
655.749	34436.42
655.948	34000.21
656.147	34549.06
656.346	34807.11
656.545	34407.75
656.743	34417.99
656.942	34395.46
657.141	34800.96
657.34	34467.14
657.538	34567.49
657.737	34563.4
657.936	34809.15
658.135	34999.62
658.333	34592.07
658.532	34872.64
658.731	35417.4
658.929	35315
659.128	34712.9
659.326	34581.83
659.525	35360.06
659.724	34934.08
659.922	34465.1
660.121	34661.7
660.319	35112.25
660.518	34647.36
660.716	34719.04
660.915	34659.65
661.113	35523.9
661.312	34725.19
661.51	35073.34
661.709	34893.12
661.907	35054.91
662.105	35618.1
662.304	34706.76
662.502	34737.48
662.701	35491.13
662.899	34866.5
663.097	35349.82
663.296	34518.34
663.494	35937.58
663.692	35736.88
663.891	35097.92
664.089	34422.09
664.287	35231.04
664.485	35446.07
664.684	35118.4
664.882	34991.42
665.08	35278.14
665.278	35546.42
665.476	35204.41
665.675	35468.6
665.873	35378.49
666.071	35110.21
666.269	34925.89
666.467	34997.57
666.665	35331.39
666.863	34694.47
667.061	34872.64
667.259	34977.09
667.457	34876.74
667.655	35661.11
667.853	34751.81
668.051	35038.53
668.249	35120.45
668.447	35253.56
668.645	34741.57
668.843	35134.78
669.041	35616.05
669.239	34805.06
669.437	35276.09
669.635	35022.14
669.833	35175.74
670.031	35038.53
670.229	34805.06
670.426	35245.37
670.624	35251.52
670.822	35198.27
671.02	35347.77
671.218	35073.34
671.415	35013.95
671.613	34905.41
671.811	35116.35
672.009	35063.1
672.206	35325.24
672.404	35370.3
672.602	34874.69
672.799	35392.83
672.997	35421.5
673.195	35448.12
673.392	35423.54
673.59	34860.35
673.788	35288.38
673.985	34270.54
674.183	35126.59
674.38	35067.2
674.578	35048.77
674.775	35272
674.973	34594.12
675.17	34995.52
675.368	35265.85
675.565	35026.24
675.763	35061.05
675.96	34796.87
676.158	35493.18
676.355	34780.48
676.553	35165.5
676.75	34649.41
676.947	35042.62
677.145	35247.42
677.342	34925.89
677.539	34729.28
677.737	34829.63
677.934	35411.26
678.131	35099.97
678.329	34624.84
678.526	35245.37
678.723	35231.04
678.92	35028.29
679.118	34682.18
679.315	34901.31
679.512	35110.21
679.709	34528.58
679.906	34291.02
680.104	35118.4
680.301	35198.27
680.498	34776.39
680.695	34364.74
680.892	34714.95
681.089	34778.43
681.286	34569.54
681.483	34209.1
681.68	34788.67
681.877	34860.35
682.075	34628.93
682.272	34639.17
682.469	34760
682.665	34719.04
682.862	34045.26
683.059	34051.41
683.256	34899.26
683.453	34886.98
683.65	34413.9
683.847	34702.66
684.044	34813.25
684.241	34159.95
684.438	34471.24
684.635	34313.55
684.831	35110.21
685.028	34983.23
685.225	34170.19
685.422	34276.68
685.619	34768.19
685.815	34514.25
686.012	34561.35
686.209	34004.3
686.405	34248.01
686.602	34493.77
686.799	34086.22
686.996	34213.2
687.192	33834.32
687.389	34843.97
687.586	33662.29
687.782	33975.63
687.979	34719.04
688.175	34764.1
688.372	34456.9
688.568	34219.34
688.765	34032.97
688.962	34831.68
689.158	33975.63
689.355	34063.69
689.551	34268.49
689.748	33713.49
689.944	33633.62
690.14	33836.37
690.337	34690.37
690.533	34274.63
690.73	33633.62
690.926	34172.24
691.123	34190.67
691.319	34106.7
691.515	33545.56
691.712	33787.22
691.908	34350.41
692.104	34069.84
692.301	33856.85
692.497	33437.02
692.693	34319.69
692.889	34452.81
693.086	33615.19
693.282	33506.65
693.478	33906
693.674	33959.25
693.87	33752.4
694.067	33549.65
694.263	34116.94
694.459	34084.17
694.655	33858.9
694.851	33930.58
695.047	33498.45
695.243	33985.87
695.439	33639.76
695.635	33662.29
695.831	33758.55
696.027	33842.51
696.224	33760.59
696.42	33639.76
696.615	33910.1
696.811	34041.17
697.007	33328.47
697.203	33193.31
697.399	33670.48
697.595	33944.91
697.791	33281.37
697.987	33248.6
698.183	33697.11
698.379	33346.9
698.575	33789.27
698.77	33502.55
698.966	33807.7
699.162	33709.39
699.358	33230.17
699.554	33287.51
699.749	33725.78
699.945	33617.24
700.141	33174.88
700.337	33660.24
700.532	33516.89
700.728	33078.62
700.924	33365.34
701.119	32810.34
701.315	33099.1
701.511	32789.86
701.706	33178.97
701.902	32673.12
702.097	33353.05
702.293	33842.51
702.489	33121.63
702.684	32904.54
702.88	33097.05
703.075	33631.57
703.271	32716.13
703.466	32730.47
703.662	32879.97
703.857	33369.43
704.053	32863.58
704.248	33205.59
704.443	33183.07
704.639	33484.12
704.834	32937.31
705.03	32839.01
705.225	33052
705.42	33385.82
705.616	32822.62
705.811	32574.82
706.006	33262.94
706.202	33224.03
706.397	32677.22
706.592	32517.48
706.787	32855.39
706.983	32976.22
707.178	33156.44
707.373	32699.75
707.568	33041.76
707.763	32996.7
707.959	32763.23
708.154	32879.97
708.349	32841.06
708.544	32914.78
708.739	33017.18
708.934	32507.24
709.129	32748.9
709.324	32890.21
709.519	32542.05
709.714	32613.73
709.909	33316.18
710.104	32830.82
710.299	32216.43
710.494	32578.92
710.689	33172.83
710.884	32683.36
711.079	32869.73
711.274	32394.6
711.469	33176.92
711.664	32949.6
711.859	32519.53
712.054	32433.51
712.249	32886.11
712.443	33045.85
712.638	32435.56
712.833	32050.54
713.028	32765.28
713.223	32849.25
713.417	32828.77
713.612	32183.66
713.807	32996.7
714.002	33166.68
714.196	32230.76
714.391	32251.24
714.586	32763.23
714.78	32480.61
714.975	32167.27
715.17	31778.16
715.364	32302.44
715.559	32576.87
715.754	31581.56
715.948	31831.41
716.143	32542.05
716.337	32150.89
716.532	32568.68
716.726	32460.13
716.921	32712.03
717.115	32650.6
717.31	32023.92
717.504	32351.59
717.699	32212.33
717.893	32279.91
718.088	32030.06
718.282	31692.15
718.476	31948.14
718.671	31874.41
718.865	31696.24
719.059	31270.26
719.254	32202.09
719.448	32331.11
719.642	32107.88
719.837	31387
720.031	32046.44
720.225	32034.16
720.419	31755.63
720.614	31341.94
720.808	31868.27
721.002	31417.72
721.196	31346.04
721.39	31470.97
721.585	31499.64
721.779	31835.5
721.973	31823.22
722.167	31241.59
722.361	31628.66
722.555	32058.73
722.749	31184.25
722.943	31546.74
723.137	31061.37
723.331	31538.55
723.525	31171.96
723.719	31167.87
723.913	31851.89
724.107	31487.35
724.301	30950.78
724.495	30952.83
724.689	31710.58
724.883	31632.75
725.077	31004.03
725.271	31192.44
725.465	31434.1
725.659	31075.71
725.853	31139.19
726.046	31092.09
726.24	31110.52
726.434	31128.95
726.628	30918.01
726.822	30764.42
727.015	31389.05
727.209	31563.12
727.403	30995.84
727.596	30811.52
727.79	31608.18
727.984	31372.66
728.177	31077.76
728.371	31325.56
728.565	31233.4
728.758	30891.39
728.952	30846.33
729.146	30975.36
729.339	31489.4
729.533	31454.58
729.726	30619.01
729.92	31126.91
730.113	31407.48
730.307	31274.36
730.5	31128.95
730.694	30875.01
730.887	30932.35
731.081	31331.7
731.274	30848.38
731.468	30371.21
731.661	30569.86
731.854	30809.47
732.048	31083.9
732.241	30780.8
732.435	30997.88
732.628	31020.41
732.821	31110.52
733.014	30940.54
733.208	31014.27
733.401	31202.68
733.594	30766.46
733.788	31163.77
733.981	31065.47
734.174	31061.37
734.367	30694.78
734.56	30905.73
734.754	31161.72
734.947	31018.36
735.14	30678.4
735.333	31030.65
735.526	31112.57
735.719	30895.49
735.912	30756.22
736.105	30612.87
736.298	31305.08
736.491	31061.37
736.684	30672.26
736.877	30655.87
737.07	30760.32
737.263	31274.36
737.456	30479.75
737.649	30610.82
737.842	30809.47
738.035	31094.14
738.228	30524.8
738.421	30854.53
738.614	30965.12
738.807	30993.79
739	30281.1
739.192	30037.39
739.385	30832
739.578	30975.36
739.771	30684.55
739.964	30100.87
740.156	30963.07
740.349	30809.47
740.542	30899.58
740.735	30283.14
740.927	30446.98
741.12	30649.73
741.313	30303.62
741.505	30907.77
741.698	30588.29
741.891	30631.3
742.083	30662.02
742.276	30524.8
742.468	30596.48
742.661	30260.62
742.854	30143.88
743.046	30195.08
743.239	30819.71
743.431	30875.01
743.624	30473.6
743.816	30365.06
744.009	30322.05
744.201	30733.7
744.393	30320.01
744.586	30188.94
744.778	30533
744.971	30297.48
745.163	30174.6
745.355	30229.9
745.548	30205.32
745.74	29978
745.932	30324.1
746.125	30152.07
746.317	30915.97
746.509	30057.87
746.702	30205.32
746.894	29855.12
747.086	29670.8
747.278	30559.62
747.471	30096.78
747.663	30021
747.855	30203.27
748.047	30504.32
748.239	29814.16
748.431	29855.12
748.623	30483.84
748.815	30700.93
749.008	29685.14
749.2	29867.41
749.392	30111.11
749.584	29732.24
749.776	29894.03
749.968	30082.44
750.16	30881.15
750.352	29988.24
750.544	29365.65
750.736	29517.2
750.928	30434.69
751.12	29965.71
751.311	29509.01
751.503	29891.98
751.695	29943.18
751.887	29826.45
752.079	29429.14
752.271	29345.17
752.463	30745.98
752.654	30004.62
752.846	29472.15
753.038	29363.61
753.23	29519.25
753.421	29912.46
753.613	29373.85
753.805	29949.32
753.997	29971.85
754.188	29902.22
754.38	28898.72
754.572	29408.66
754.763	29580.69
754.955	29846.93
755.146	29377.94
755.338	28984.73
755.53	29179.29
755.721	29343.13
755.913	28632.48
756.104	28681.63
756.296	29167
756.487	29492.63
756.679	28908.96
756.87	28446.12
757.062	28919.2
757.253	29148.57
757.445	28642.72
757.636	28640.67
757.827	29142.42
758.019	29605.27
758.21	29064.6
758.401	28925.34
758.593	29336.98
758.784	28968.35
758.975	28206.5
759.167	28745.12
759.358	29058.46
759.549	29044.12
759.74	28343.72
759.932	28349.86
760.123	28919.2
760.314	28589.47
760.505	28368.29
760.696	28097.96
760.888	28990.87
761.079	28466.59
761.27	28175.78
761.461	28126.63
761.652	28964.25
761.843	28456.36
762.034	28284.33
762.225	28280.23
762.416	28231.08
762.607	28136.87
762.798	28052.91
762.989	27960.75
763.18	29031.83
763.371	27964.84
763.562	27934.12
763.753	27899.31
763.944	28589.47
764.135	28231.08
764.326	27831.72
764.517	27534.77
764.708	28065.19
764.899	27930.03
765.089	27940.27
765.28	27497.91
765.471	27860.4
765.662	27903.4
765.853	27964.84
766.043	27360.69
766.234	27927.98
766.425	28040.62
766.615	27430.32
766.806	27340.21
766.997	28100.01
767.187	27706.8
767.378	27737.52
767.569	27119.03
767.759	27737.52
767.95	28016.04
768.141	27422.13
768.331	27289.01
768.522	27450.8
768.712	27835.82
768.903	27041.21
769.093	27073.98
769.284	27944.36
769.474	27366.84
769.665	26574.27
769.855	27030.97
770.046	27512.24
770.236	27174.33
770.426	27166.13
770.617	26951.1
770.807	27229.62
770.998	26924.47
771.188	26871.23
771.378	26488.26
771.569	27205.05
771.759	27194.81
771.949	26344.9
772.139	26463.68
772.33	26897.85
772.52	26981.82
772.71	26418.63
772.9	26256.84
773.09	27180.47
773.281	27286.96
773.471	26275.27
773.661	26332.61
773.851	26709.44
774.041	26367.43
774.231	25923.02
774.421	26437.06
774.611	26772.92
774.802	26183.11
774.992	26133.96
775.182	26152.39
775.372	26469.83
775.562	26596.8
775.752	26389.95
775.942	26297.8
776.131	26541.5
776.321	26736.06
776.511	26146.25
776.701	25542.1
776.891	26373.57
777.081	25667.02
777.271	25908.68
777.461	25826.76
777.651	26301.89
777.84	26453.44
778.03	25998.79
778.22	25587.15
778.41	26234.31
778.599	25875.91
778.789	25525.71
778.979	25441.75
779.169	25957.83
779.358	25839.05
779.548	25902.54
779.738	25361.87
779.927	25611.73
780.117	25507.28
780.307	25466.32
780.496	25458.13
780.686	25900.49
780.875	26158.53
781.065	25202.13
781.254	24954.33
781.444	25378.26
781.633	25552.34
781.823	25089.49
782.012	25019.86
782.202	24939.99
782.391	24958.42
782.581	24919.51
782.77	25142.74
782.96	25505.23
783.149	24858.07
783.338	24813.02
783.528	24638.94
783.717	25574.86
783.906	25499.09
784.096	24911.32
784.285	24724.96
784.474	25007.58
784.663	24825.31
784.853	24528.35
785.042	24804.83
785.231	25120.21
785.42	25122.26
785.61	24735.2
785.799	24532.45
785.988	24903.13
786.177	24548.83
786.366	24761.82
786.555	24624.61
786.744	24872.41
786.933	24624.61
787.122	24260.07
787.312	24395.23
787.501	24563.17
787.69	24649.18
787.879	24309.22
788.068	24573.41
788.257	24184.29
788.445	24290.79
788.634	24284.64
788.823	24376.8
789.012	24995.29
789.201	25058.77
789.39	24430.05
789.579	23715.31
789.768	24423.9
789.957	24278.5
790.145	23948.78
790.334	23756.27
790.523	24352.23
790.712	24391.14
790.9	23895.53
791.089	23590.38
791.278	24485.34
791.467	24051.17
791.655	24102.37
791.844	24569.31
792.033	23901.67
792.221	24042.98
792.41	23410.16
792.599	23279.09
792.787	24481.25
792.976	23975.4
793.164	23434.74
793.353	23653.87
793.541	24038.89
793.73	24071.65
793.918	23862.76
794.107	23188.98
794.295	23649.77
794.484	23729.64
794.672	23369.2
794.861	23412.21
795.049	23715.31
795.238	24083.94
795.426	23004.66
795.614	23219.7
795.803	23754.22
795.991	23842.28
796.179	23297.52
796.368	22975.99
796.556	23907.82
796.744	23361.01
796.932	23277.04
797.121	22789.63
797.309	23174.64
797.497	23555.57
797.685	23262.71
797.874	23326.19
798.062	23379.44
798.25	23842.28
798.438	23209.46
798.626	23180.79
798.814	23490.03
799.002	24002.02
799.19	23297.52
799.378	23283.19
799.566	23582.19
799.755	23817.71
799.943	23336.43
800.131	23330.29
800.318	23412.21
800.506	23678.44
800.694	22967.8
800.882	22943.22
801.07	23479.79
801.258	23197.17
801.446	23096.82
801.634	22877.69
801.822	23369.2
802.01	23557.61
802.197	23436.78
802.385	23234.03
802.573	23569.9
802.761	23229.94
802.949	23434.74
803.136	22986.23
803.324	23866.86
803.512	23807.47
803.699	23068.15
803.887	23215.6
804.075	23764.46
804.262	23299.57
804.45	23305.71
804.638	23334.39
804.825	23330.29
805.013	23584.24
805.201	23455.22
805.388	22879.74
805.576	23520.75
805.763	24045.03
805.951	23633.39
806.138	23643.63
806.326	24178.15
806.513	23883.24
806.701	23832.04
806.888	23586.29
807.075	23987.69
807.263	24165.86
807.45	23528.94
807.638	23680.49
807.825	24430.05
808.012	24159.72
808.2	23352.82
808.387	24004.07
808.574	23635.44
808.761	23854.57
808.949	23375.34
809.136	23709.16
809.323	23506.41
809.51	24094.18
809.698	23717.36
809.885	23684.59
810.072	23936.49
810.259	24514.02
810.446	23416.3
810.633	23459.31
810.82	24374.75
811.008	24270.31
811.195	23959.02
811.382	23944.68
811.569	23909.86
811.756	23569.9
811.943	24073.7
812.13	23700.97
812.317	23842.28
812.504	23926.25
812.691	24059.37
812.878	23928.3
813.064	24401.38
813.251	23811.56
813.438	23918.06
813.625	23809.51
813.812	23748.07
813.999	24053.22
814.186	24106.47
814.372	23838.19
814.559	24098.28
814.746	24131.05
814.933	23522.8
815.12	24131.05
815.306	23938.54
815.493	23823.85
815.68	23887.34
815.866	23731.69
816.053	24221.16
816.24	24387.04
816.426	23903.72
816.613	23520.75
816.799	24268.26
816.986	24088.04
817.173	23522.8
817.359	23430.64
817.546	24034.79
817.732	23610.86
817.919	23465.46
818.105	23614.96
818.292	23604.72
818.478	23883.24
818.665	23483.89
818.851	23492.08
819.037	24155.62
819.224	23739.88
819.41	23444.98
819.597	23399.92
819.783	23786.99
819.969	23895.53
820.156	23518.7
820.342	23682.54
820.528	24317.41
820.714	23412.21
820.901	23772.65
821.087	23299.57
821.273	24081.89
821.459	23655.92
821.646	23311.86
821.832	23514.61
822.018	23557.61
822.204	23414.26
822.39	23410.16
822.576	23062.01
822.762	23565.81
822.948	23254.51
823.134	23635.44
823.32	22658.56
823.507	23236.08
823.693	23397.87
823.879	23246.32
824.065	22887.93
824.25	23131.64
824.436	23367.15
824.622	23002.61
824.808	22861.3
824.994	22840.82
825.18	22859.26
825.366	22738.43
825.552	23088.63
825.738	23309.81
825.923	23145.97
826.109	22756.86
826.295	22593.02
826.481	22816.25
826.667	22896.12
826.852	23160.31
827.038	22763
827.224	23123.44
827.409	23322.1
827.595	22251.01
827.781	22588.92
827.966	22846.97
828.152	23031.29
828.338	22550.01
828.523	22040.07
828.709	22582.78
828.894	22955.51
829.08	22601.21
829.266	22339.07
829.451	22410.75
829.637	22580.73
829.822	22412.8
830.008	22072.84
830.193	22572.54
830.378	22881.78
830.564	22398.46
830.749	22072.84
830.935	22484.48
831.12	22345.22
831.305	22148.61
831.491	22025.73
831.676	21872.14
831.861	22466.05
832.047	22308.35
832.232	21650.95
832.417	22478.33
832.602	22214.15
832.788	21616.14
832.973	21820.94
833.158	22072.84
833.343	21773.83
833.528	21730.83
833.714	21855.75
833.899	22009.35
834.084	22074.88
834.269	21833.22
834.454	21335.57
834.639	21913.09
834.824	21777.93
835.009	21605.9
835.194	21775.88
835.379	22152.71
835.564	21792.26
835.749	21581.32
835.934	21429.77
836.119	21771.79
836.304	21642.76
836.489	21437.97
836.674	21302.8
836.859	21364.24
837.044	21802.5
837.228	21431.82
837.413	21098
837.598	21618.19
837.783	21366.29
837.968	21048.85
838.152	21167.63
838.337	20975.13
838.522	21655.05
838.707	21628.43
838.891	21155.35
839.076	21390.86
839.261	21421.58
839.445	21347.86
839.63	21122.58
839.815	21622.28
839.999	21087.76
840.184	20704.79
840.368	21026.32
840.553	21286.42
840.737	21237.27
840.922	20624.92
841.106	20696.6
841.291	20475.42
841.475	20825.62
841.66	20426.27
841.844	20573.72
842.029	21587.47
842.213	20485.66
842.397	20280.86
842.582	20295.2
842.766	21143.06
842.951	20696.6
843.135	20538.91
843.319	20203.04
843.504	20688.41
843.688	20813.34
843.872	20139.55
844.056	20211.23
844.241	20807.19
844.425	20575.77
844.609	20407.84
844.793	20405.79
844.977	20600.35
845.161	20373.02
845.346	19891.75
845.53	20024.87
845.714	20442.65
845.898	20504.09
846.082	19973.67
846.266	19922.47
846.45	20184.61
846.634	20381.21
846.818	19611.18
847.002	20024.87
847.186	20229.66
847.37	19705.38
847.554	19633.71
847.738	20147.75
847.922	19883.56
848.106	20104.74
848.29	19627.56
848.473	19758.63
848.657	19781.16
848.841	19639.85
849.025	19596.84
849.209	19351.09
849.392	19932.71
849.576	20020.77
849.76	19297.84
849.944	19535.4
850.127	19922.47
850.311	19775.02
850.495	19174.96
850.678	18974.26
850.862	19914.28
851.046	19883.56
851.229	19740.2
851.413	19127.86
851.596	19355.18
851.78	19897.89
851.964	19625.51
852.147	18986.55
852.331	20166.18
852.514	19994.15
852.698	19346.99
852.881	19082.8
853.065	19764.78
853.248	19203.63
853.431	19086.9
853.615	19324.46
853.798	19867.17
853.982	19482.16
854.165	19050.03
854.348	18992.69
854.532	19367.47
854.715	19062.32
854.898	18980.4
855.081	18693.69
855.265	19181.1
855.448	19689
855.631	18705.98
855.814	18785.85
855.997	19318.32
856.181	19187.25
856.364	18525.75
856.547	18509.37
856.73	19021.36
856.913	18787.89
857.096	18824.76
857.279	18896.44
857.462	18777.65
857.645	18955.83
857.828	18816.57
858.011	18638.39
858.194	18613.82
858.377	18964.02
858.56	18327.1
858.743	18419.26
858.926	18544.19
859.109	18615.87
859.292	18200.13
859.475	18046.53
859.658	18835
859.841	18554.43
860.023	17911.36
860.206	18179.65
860.389	18544.19
860.572	18619.96
860.755	18173.5
860.937	18187.84
861.12	18146.88
861.303	18046.53
861.486	17757.77
861.668	17927.75
861.851	18208.32
862.034	18269.76
862.216	18062.91
862.399	17438.28
862.581	17839.69
862.764	18101.83
862.947	17858.12
863.129	17583.69
863.312	17567.31
863.494	17989.19
863.677	17563.21
863.859	17358.41
864.042	17729.09
864.224	18005.57
864.406	17323.6
864.589	17217.1
864.771	17616.46
864.954	17075.79
865.136	17321.55
865.318	17045.07
865.501	17567.31
865.683	17067.6
865.865	17155.66
866.048	16995.92
866.23	17344.08
866.412	17020.5
866.594	17094.22
866.777	17356.36
866.959	17270.35
867.141	17065.55
867.323	17053.27
867.505	17071.7
867.687	17456.71
867.869	17256.01
868.052	16907.86
868.234	16703.06
868.416	17055.31
868.598	17331.79
868.78	16729.69
868.962	16938.58
869.144	17202.77
869.326	17241.68
869.508	16688.73
869.69	16789.08
869.872	16662.1
870.054	17286.73
870.236	16627.29
870.417	16692.82
870.599	16930.39
870.781	17475.15
870.963	16909.91
871.145	16608.86
871.327	16713.3
871.508	17245.77
871.69	16510.55
871.872	16762.45
872.054	16995.92
872.235	16819.8
872.417	16502.36
872.599	16422.49
872.78	17495.63
872.962	17049.17
873.144	16596.57
873.325	16762.45
873.507	17147.47
873.689	16797.27
873.87	16408.15
874.052	16684.63
874.233	16549.46
874.415	17030.74
874.596	16514.65
874.778	16666.2
874.959	16883.28
875.141	17016.4
875.322	16901.72
875.503	16430.68
875.685	16975.44
875.866	16455.26
876.048	16397.92
876.229	16690.77
876.41	16731.73
876.592	17092.18
876.773	16668.25
876.954	16258.65
877.136	17192.53
877.317	16963.15
877.498	16623.19
877.679	16807.51
877.86	17004.11
878.042	16873.04
878.223	16612.95
878.404	16971.35
878.585	17153.62
878.766	17423.95
878.947	17284.69
879.128	17016.4
879.309	17346.12
879.49	17075.79
879.672	16881.24
879.853	16952.91
880.034	17038.93
880.215	17096.27
880.396	17079.89
880.576	16735.83
880.757	17366.6
880.938	17503.82
881.119	16889.43
881.3	17075.79
881.481	16883.28
881.662	18351.68
881.843	16911.96
882.023	17006.16
882.204	17446.48
882.385	17329.74
882.566	17202.77
882.747	16850.52
882.927	17497.67
883.108	17667.66
883.289	17161.81
883.469	17391.18
883.65	17546.83
883.831	17356.36
884.011	17200.72
884.192	17198.67
884.373	17737.29
884.553	17991.23
884.734	17292.88
884.914	17696.33
885.095	18460.22
885.275	17929.8
885.456	17804.87
885.636	17264.21
885.817	17663.56
885.997	17872.45
886.178	17307.21
886.358	17315.41
886.538	17931.84
886.719	18863.67
886.899	17567.31
887.08	17876.55
887.26	18202.18
887.44	17632.84
887.621	17608.26
887.801	17806.92
887.981	18904.63
888.161	18157.12
888.342	17792.58
888.522	17702.47
888.702	18165.31
888.882	18230.85
889.062	17868.36
889.242	17579.59
889.423	18388.54
889.603	18359.87
889.783	18009.67
889.963	17837.64
890.143	18341.44
890.323	18624.06
890.503	17614.41
890.683	17786.44
890.863	18071.11
891.043	18247.23
891.223	17782.34
891.403	18175.55
891.583	18409.02
891.763	17983.04
891.943	17933.89
892.122	17944.13
892.302	18316.86
892.482	18169.41
892.662	18099.78
892.842	18224.7
893.022	18185.79
893.201	18073.15
893.381	18019.91
893.561	17956.42
893.741	18298.43
893.92	18142.78
894.1	17919.56
894.28	17995.33
894.459	18177.6
894.639	18353.73
894.819	18019.91
894.998	18136.64
895.178	18296.38
895.357	18273.85
895.537	17686.09
895.716	17559.11
895.896	17935.94
896.075	18374.2
896.255	17815.11
896.434	17698.38
896.614	18363.97
896.793	18507.32
896.973	17964.61
897.152	18013.76
897.331	18464.32
897.511	18292.29
897.69	17626.7
897.87	17970.76
898.049	18327.1
898.228	18081.35
898.407	17837.64
898.587	17847.88
898.766	18087.49
898.945	18132.54
899.124	17884.74
899.304	17950.28
899.483	18048.58
899.662	18611.77
899.841	17702.47
900.02	17534.54
900.199	18132.54
900.378	17884.74
900.557	17741.38
900.737	17235.53
900.916	17823.3
901.095	17624.65
901.274	17481.29
901.453	17405.52
901.632	17374.8
901.811	17296.97
901.989	17239.63
902.168	17092.18
902.347	17763.91
902.526	17225.29
902.705	17313.36
902.884	17335.88
903.063	18048.58
903.242	17933.89
903.42	17067.6
903.599	17401.42
903.778	17573.45
903.957	17778.25
904.135	17456.71
904.314	17024.59
904.493	17684.04
904.672	17507.91
904.85	16989.78
905.029	16934.48
905.207	17399.37
905.386	17935.94
905.565	16772.69
905.743	17108.56
905.922	16973.39
906.1	17083.98
906.279	16877.14
906.457	16608.86
906.636	16959.06
906.814	17040.98
906.993	16586.33
907.171	16985.68
907.35	16813.65
907.528	17161.81
907.707	16725.59
907.885	16377.44
908.063	17223.25
908.242	16834.13
908.42	16240.22
908.598	16016.99
908.777	16592.47
908.955	16494.17
909.133	16748.12
909.311	16023.14
909.49	16287.32
909.668	16615
909.846	16367.2
910.024	16152.16
910.202	16610.9
910.38	16803.41
910.559	15894.11
910.737	15914.59
910.915	16459.35
911.093	16438.87
911.271	16240.22
911.449	16107.1
911.627	16334.43
911.805	16537.18
911.983	15900.26
912.161	15789.67
912.339	15898.21
912.517	16277.08
912.695	15890.02
912.872	15648.36
913.05	15834.72
913.228	16049.76
913.406	15683.17
913.584	15498.86
913.762	15863.4
913.939	15701.61
914.117	15384.17
914.295	15130.22
914.473	15666.79
914.65	15724.13
914.828	15445.61
915.006	15214.19
915.184	15160.94
915.361	15400.55
915.539	15240.81
915.716	15093.36
915.894	15355.5
916.072	15480.43
916.249	15357.55
916.427	15246.96
916.604	15033.97
916.782	15175.28
916.959	14737.01
917.137	14837.36
917.314	15107.69
917.492	15277.68
917.669	14739.06
917.847	14624.37
918.024	14771.83
918.201	14642.81
918.379	14464.63
918.556	14292.6
918.733	14935.67
918.911	14417.53
919.088	14460.54
919.265	14429.82
919.442	14548.6
919.62	14470.78
919.797	14208.64
919.974	14087.81
920.151	14524.02
920.328	14196.35
920.506	14071.42
920.683	14311.03
920.86	13801.09
921.037	14272.12
921.214	13770.37
921.391	13651.59
921.568	14403.19
921.745	13686.4
921.922	13827.71
922.099	13581.96
922.276	14425.72
922.453	14073.47
922.63	13524.61
922.807	13743.75
922.984	13780.61
923.161	13446.79
923.338	13467.27
923.514	13225.61
923.691	13676.16
923.868	13586.05
924.045	13305.48
924.222	13196.94
924.399	13635.21
924.575	13399.69
924.752	13047.44
924.929	13008.53
925.105	13315.72
925.282	12785.3
925.459	13061.77
925.635	12899.98
925.812	12983.95
925.989	12873.36
926.165	12865.17
926.342	12488.34
926.518	12742.29
926.695	12799.63
926.871	12344.98
927.048	12172.96
927.224	12664.47
927.401	12480.15
927.577	12367.51
927.754	12277.4
927.93	12637.84
928.107	12326.55
928.283	12107.42
928.459	12017.31
928.636	12545.69
928.812	12146.33
928.988	11669.16
929.165	11540.13
929.341	12045.98
929.517	11933.34
929.693	12103.32
929.87	11349.67
930.046	12037.79
930.222	11599.52
930.398	11312.81
930.574	11585.19
930.751	11835.04
930.927	11511.46
931.103	11476.65
931.279	11140.78
931.455	11251.37
931.631	11284.14
931.807	10612.4
931.983	10686.13
932.159	10872.5
932.335	11253.42
932.511	11046.57
932.687	10667.7
932.863	10938.03
933.039	11026.09
933.215	10323.64
933.391	10446.52
933.566	10792.62
933.742	10669.75
933.918	10188.47
934.094	9936.57
934.27	10303.16
934.445	10245.82
934.621	10170.04
934.797	9791.17
934.973	10317.5
935.148	9989.82
935.324	9569.99
935.5	9295.56
935.675	9752.26
935.851	9508.55
936.027	9252.55
936.202	9213.64
936.378	9459.4
936.553	8947.4
936.729	9137.87
936.904	8400.6
937.08	8462.04
937.255	8222.42
937.431	8171.22
937.606	7913.18
937.782	8339.16
937.957	8191.7
938.133	7577.31
938.308	7569.12
938.483	7710.43
938.659	7268.07
938.834	7327.46
939.009	7130.86
939.185	7120.62
939.36	6932.2
939.535	6465.27
939.71	6903.53
939.886	7010.03
940.061	7167.72
940.236	6774.51
940.411	6459.12
940.586	6881
940.761	6663.92
940.937	6156.02
941.112	6147.83
941.287	6479.6
941.462	6297.33
941.637	5873.4
941.812	6063.86
941.987	6180.6
942.162	5949.18
942.337	5926.65
942.512	5752.57
942.687	6211.32
942.862	6045.43
943.037	5455.62
943.212	5250.82
943.386	5648.13
943.561	5791.48
943.736	5691.13
943.911	5725.95
944.086	5902.08
944.26	5736.19
944.435	5484.29
944.61	5510.91
944.785	5983.99
944.959	6067.96
945.134	5465.86
945.309	5306.12
945.483	5435.14
945.658	6018.81
945.833	5095.18
946.007	5205.77
946.182	5902.08
946.357	5345.03
946.531	5179.14
946.706	5285.64
946.88	5113.61
947.055	5699.33
947.229	5435.14
947.404	5291.78
947.578	5728
947.752	5410.56
947.927	5162.76
948.101	5070.6
948.276	5545.73
948.45	5443.33
948.624	5437.19
948.799	5142.28
948.973	5560.06
949.147	5168.9
949.321	5353.22
949.496	5345.03
949.67	5930.75
949.844	5437.19
950.018	5381.89
950.193	5224.2
950.367	5895.93
950.541	5449.47
950.715	5523.2
950.889	5515.01
951.063	5494.53
951.237	5555.97
951.411	5228.29
951.585	5183.24
951.759	5467.91
951.933	5447.43
952.107	5156.61
952.281	5615.36
952.455	5943.03
952.629	5664.51
952.803	5404.42
952.977	5240.58
953.151	5701.37
953.325	5541.63
953.499	5472
953.672	5082.89
953.846	5287.68
954.02	5355.27
954.194	5203.72
954.368	5318.4
954.541	5588.74
954.715	5285.64
954.889	5416.71
955.062	5050.12
955.236	5390.08
955.41	5216.01
955.583	5310.21
955.757	5050.12
955.93	5388.04
956.104	5349.12
956.278	5173
956.451	5287.68
956.625	5631.74
956.798	6024.95
956.972	5467.91
957.145	5082.89
957.319	5447.43
957.492	5232.39
957.665	5385.99
957.839	5023.5
958.012	5476.1
958.185	5207.81
958.359	5197.57
958.532	5189.38
958.705	5504.77
958.879	5326.6
959.052	5125.9
959.225	4779.79
959.398	5103.37
959.572	5220.1
959.745	4933.39
959.918	4986.63
960.091	5066.5
960.264	5291.78
960.438	4957.96
960.611	4890.38
960.784	5490.43
960.957	4945.67
961.13	5238.53
961.303	4972.3
961.476	5230.34
961.649	5422.85
961.822	4910.86
961.995	5117.7
962.168	5349.12
962.341	5267.2
962.514	5019.4
962.686	4945.67
962.859	5340.93
963.032	5240.58
963.205	4869.9
963.378	4855.56
963.551	5363.46
963.723	5152.52
963.896	5152.52
964.069	4994.83
964.242	5084.94
964.414	5359.36
964.587	4906.76
964.76	5086.98
964.932	5058.31
965.105	5041.93
965.278	4851.47
965.45	4755.21
965.623	4957.96
965.795	5099.27
965.968	4947.72
966.14	4845.32
966.313	4937.48
966.485	5142.28
966.658	4720.4
966.83	4724.49
967.003	5222.15
967.175	5146.37
967.348	4734.73
967.52	4820.75
967.692	5345.03
967.865	5099.27
968.037	4677.39
968.209	4992.78
968.382	4906.76
968.554	5281.54
968.726	4689.68
968.898	4574.99
969.071	5023.5
969.243	5017.35
969.415	4718.35
969.587	4757.26
969.759	5259.01
969.932	5099.27
970.104	4710.16
970.276	4390.67
970.448	4736.78
970.62	4744.97
970.792	4812.56
970.964	4478.74
971.136	5238.53
971.308	4876.04
971.48	4415.25
971.652	4357.91
971.824	5062.41
971.996	4697.87
972.168	4677.39
972.339	4478.74
972.511	4906.76
972.683	4701.97
972.855	4521.74
973.027	4464.4
973.199	4691.73
973.37	4732.69
973.542	4595.47
973.714	4525.84
973.886	4585.23
974.057	4781.84
974.229	4290.32
974.401	4355.86
974.572	4484.88
974.744	4253.46
974.915	4173.59
975.087	4400.91
975.259	4773.64
975.43	4384.53
975.602	4288.28
975.773	4151.06
975.945	4349.71
976.116	4611.85
976.288	4204.31
976.459	4493.07
976.63	4345.62
976.802	4501.26
976.973	4206.36
977.145	4431.63
977.316	4960.01
977.487	4704.01
977.659	4302.61
977.83	4138.77
978.001	4712.21
978.172	4349.71
978.344	3970.84
978.515	4212.5
978.686	4316.95
978.857	4654.86
979.028	4067.1
979.2	4194.07
979.371	4644.62
979.542	4202.26
979.713	4464.4
979.884	3888.92
980.055	4079.38
980.226	4036.38
980.397	4163.35
980.568	3913.5
980.739	4413.2
980.91	4173.59
981.081	4237.08
981.252	3972.89
981.423	4482.83
981.594	4519.7
981.765	3743.52
981.936	4089.62
982.106	4157.21
982.277	4482.83
982.448	3751.71
982.619	4017.94
982.79	3931.93
982.96	4384.53
983.131	3915.55
983.302	3649.31
983.472	3933.98
983.643	4173.59
983.814	4011.8
983.984	3755.8
984.155	3929.88
984.326	4271.89
984.496	3952.41
984.667	3667.74
984.837	3950.36
985.008	4230.93
985.178	3817.24
985.349	3813.15
985.519	3940.12
985.69	3845.91
985.86	3714.84
986.031	3788.57
986.201	3936.03
986.371	3940.12
986.542	3710.75
986.712	3505.95
986.882	4005.66
987.053	3976.98
987.223	3596.06
987.393	3804.96
987.563	3532.58
987.734	4046.62
987.904	4063
988.074	3643.17
988.244	3886.87
988.414	3710.75
988.585	3538.72
988.755	3616.54
988.925	3897.11
989.095	4196.12
989.265	3460.9
989.435	3530.53
989.605	3933.98
989.775	3833.63
989.945	3747.61
990.115	3352.35
990.285	3776.28
990.455	3716.89
990.625	3575.58
990.795	3368.74
990.965	4099.86
991.134	3499.81
991.304	3364.64
991.474	3444.51
991.644	3692.32
991.814	3946.27
991.984	3340.07
992.153	3516.19
992.323	3479.33
992.493	3596.06
992.662	3206.95
992.832	3366.69
993.002	3641.12
993.171	3540.77
993.341	3182.37
993.511	3497.76
993.68	3405.6
993.85	3667.74
994.019	3149.61
994.189	3131.17
994.358	3540.77
994.528	3376.93
994.697	3010.34
994.867	3088.17
995.036	3553.06
995.206	3342.11
995.375	3176.23
995.544	3276.58
995.714	3505.95
995.883	3448.61
996.052	3303.2
996.222	2963.24
996.391	3864.35
996.56	3399.46
996.73	3086.12
996.899	2881.32
997.068	3682.08
997.237	3419.94
997.406	3082.02
997.576	2914.09
997.745	3350.31
997.914	3450.66
998.083	2809.64
998.252	3043.11
998.421	3290.92
998.59	3047.21
998.759	2965.29
998.928	2924.33
999.097	3579.68
999.266	3350.31
999.435	2944.81
999.604	2676.52
999.773	3637.02
999.942	3139.37
1000.111	2684.72
1000.28	2715.44
1000.448	2942.76
1000.617	2967.34
1000.786	2905.9
1000.955	2729.77
1001.124	3116.84
1001.292	3704.6
1001.461	2656.04
1001.63	2654
1001.798	3409.7
1001.967	3464.99
1002.136	2754.35
1002.304	2748.2
1002.473	3108.65
1002.642	3045.16
1002.81	2711.34
1002.979	2658.09
1003.147	3292.96
1003.316	3555.1
1003.484	2715.44
1003.653	2584.37
1003.821	3286.82
1003.99	2940.71
1004.158	2699.05
1004.327	2674.48
1004.495	3110.69
1004.663	2815.79
1004.832	2858.79
1005	2432.82
1005.168	3063.59
1005.337	2916.14
1005.505	2508.59
1005.673	2787.11
1005.842	3014.44
1006.01	2850.6
1006.178	2383.66
1006.346	2479.92
1006.514	2916.14
1006.683	3077.93
1006.851	2348.85
1007.019	2379.57
1007.187	2539.31
1007.355	2316.08
1007.523	2178.87
1007.691	2209.59
1007.859	2457.39
1008.027	3030.82
1008.195	2430.77
1008.363	2248.5
1008.531	2860.84
1008.699	2641.71
1008.867	2277.17
1009.035	2375.47
1009.203	2826.03
1009.37	2623.28
1009.538	2336.56
1009.706	2740.01
1009.874	2643.76
1010.042	2473.78
1010.209	2219.83
1010.377	2162.48
1010.545	2817.83
1010.713	2561.84
1010.88	2125.62
1011.048	2299.7
1011.216	2477.87
1011.383	2897.71
1011.551	2150.2
1011.718	2064.18
1011.886	2688.81
1012.054	2387.76
1012.221	2160.44
1012.389	2105.14
1012.556	2473.78
1012.724	2834.22
1012.891	2182.96
1013.058	1972.02
1013.226	2486.06
1013.393	2524.97
1013.561	1920.82
1013.728	1920.82
1013.895	2643.76
1014.063	2559.79
1014.23	1908.54
1014.397	1974.07
1014.565	2551.6
1014.732	2238.26
1014.899	1961.78
1015.066	1900.34
1015.233	2387.76
1015.401	2481.97
1015.568	1924.92
1015.735	2027.32
1015.902	2225.97
1016.069	2424.62
1016.236	1912.63
1016.403	1883.96
1016.57	2123.57
1016.737	2469.68
1016.904	1994.55
1017.071	1650.49
1017.238	2027.32
1017.405	2371.38
1017.572	1855.29
1017.739	2101.05
1017.906	2318.13
1018.073	2441.01
1018.24	1711.93
1018.407	1879.86
1018.573	2514.73
1018.74	2170.68
1018.907	1904.44
1019.074	1685.31
1019.241	2406.19
1019.407	2195.25
1019.574	1693.5
1019.741	1619.77
1019.907	2205.49
1020.074	2264.88
1020.241	1554.24
1020.407	1607.48
1020.574	2244.4
1020.74	2189.11
1020.907	1662.78
1021.073	1476.41
1021.24	2645.8
1021.406	2389.81
1021.573	1652.54
1021.739	1699.64
1021.906	2256.69
1022.072	1924.92
1022.239	1711.93
1022.405	1572.67
1022.571	2068.28
1022.738	1818.43
1022.904	1615.68
1023.07	1582.91
1023.237	1943.35
1023.403	2174.77
1023.569	1566.53
1023.735	1613.63
1023.902	2000.69
1024.068	1990.45
1024.234	1412.93
1024.4	1412.93
1024.566	1892.15
1024.732	2031.41
1024.898	1466.17
1025.065	1326.91
1025.231	1969.98
1025.397	1783.61
1025.563	1511.23
1025.729	1396.54
1025.895	1308.48
1026.061	1771.32
1026.227	1300.29
1026.392	1402.69
1026.558	2010.93
1026.724	1908.54
1026.89	1228.61
1027.056	1392.45
1027.222	1824.57
1027.388	1576.77
1027.553	1322.82
1027.719	1298.24
1027.885	2113.33
1028.051	1873.72
1028.216	1118.02
1028.382	1349.44
1028.548	1863.48
1028.713	1666.88
1028.879	1232.71
1029.045	1546.05
1029.21	2015.03
1029.376	1886.01
1029.541	1337.15
1029.707	1316.67
1029.873	1845.05
1030.038	1752.89
1030.204	1333.06
1030.369	1308.48
1030.534	1709.88
1030.7	1509.18
1030.865	1298.24
1031.031	1204.03
1031.196	1679.16
1031.361	1697.6
1031.527	1109.83
1031.692	1048.39
1031.857	1183.56
1032.023	1697.6
1032.188	1083.2
1032.353	1199.94
1032.518	1859.38
1032.684	1517.37
1032.849	1021.77
1033.014	1214.27
1033.179	1677.12
1033.344	1644.35
1033.509	1165.12
1033.674	1120.07
1033.839	1576.77
1034.004	1570.62
1034.17	1093.44
1034.335	1032.01
1034.5	1363.78
1034.664	1337.15
1034.829	970.57
1034.994	1064.77
1035.159	1480.51
1035.324	1513.28
1035.489	1095.49
1035.654	982.85
1035.819	1701.69
1035.984	1445.7
1036.148	1165.12
1036.313	1089.35
1036.478	1619.77
1036.643	1367.87
1036.807	982.85
1036.972	884.55
1037.137	1658.68
1037.301	1361.73
1037.466	821.06
1037.631	1054.53
1037.795	1591.1
1037.96	1314.63
1038.124	1222.47
1038.289	765.77
1038.454	1523.52
1038.618	1441.6
1038.783	970.57
1038.947	978.76
1039.111	1316.67
1039.276	1216.32
1039.44	902.98
1039.605	1292.1
1039.769	1220.42
1039.933	1269.57
1040.098	1042.25
1040.262	1034.05
1040.426	1478.46
1040.591	1453.89
1040.755	776.01
1040.919	907.08
1041.083	1367.87
1041.248	1195.84
1041.412	728.91
1041.576	855.88
1041.74	1130.31
1041.904	1464.13
1042.068	778.06
1042.232	970.57
1042.397	1417.02
1042.561	1261.38
1042.725	585.55
1042.889	1044.29
1043.053	1365.82
1043.217	1322.82
1043.381	909.13
1043.544	667.47
1043.708	1376.06
1043.872	960.33
1044.036	544.59
1044.2	700.23
1044.364	1478.46
1044.528	1478.46
1044.691	2268.98
1044.855	677.71
1045.019	1396.54
1045.183	1283.91
1045.346	827.21
1045.51	638.8
1045.674	1206.08
1045.837	1199.94
1046.001	767.82
1046.165	722.76
1046.328	1617.72
1046.492	1249.09
1046.655	851.78
1046.819	794.44
1046.983	974.66
1047.146	1138.5
1047.31	798.54
1047.473	542.54
1047.636	997.19
1047.8	960.33
1047.963	687.95
1048.127	536.4
1048.29	847.69
