Data from Ink_Intensity_USB4F045381__138__00138.txt Node

Date: Mon Jul 17 11:23:05 EDT 2023
User: mmckonesweet
Spectrometer: USB4F04538
Trigger mode: 4
Integration Time (sec): 9.000000E-1
Scans to average: 1
Electric dark correction enabled: true
Nonlinearity correction enabled: false
Boxcar width: 0
XAxis mode: Wavelengths
Number of Pixels in Spectrum: 3648
>>>>>Begin Spectral Data<<<<<
345.52	-1011.7
345.736	-1011.7
345.952	-1011.7
346.168	-1040.37
346.384	-1038.32
346.6	-122.88
346.816	-196.61
347.032	-253.95
347.248	296.96
347.464	-239.61
347.68	-88.06
347.896	77.82
348.112	421.88
348.328	-73.73
348.544	-88.06
348.76	-16.38
348.975	282.62
349.191	-227.32
349.407	-194.56
349.623	-38.91
349.839	-18.43
350.055	-155.65
350.27	4.1
350.486	108.54
350.702	237.56
350.918	247.8
351.133	-204.8
351.349	83.97
351.565	378.87
351.781	-294.91
351.996	0
352.212	249.85
352.428	-167.93
352.644	-198.65
352.859	-258.04
353.075	327.67
353.291	43.01
353.506	-116.73
353.722	-204.8
353.938	-47.1
354.153	446.46
354.369	77.82
354.584	-245.76
354.8	184.32
355.016	-339.96
355.231	-282.62
355.447	-81.92
355.662	159.74
355.878	790.52
356.093	-393.21
356.309	-81.92
356.524	-210.94
356.74	194.56
356.955	-258.04
357.171	-57.34
357.386	83.97
357.602	-260.09
357.817	-118.78
358.033	-182.27
358.248	327.67
358.464	167.93
358.679	-202.75
358.895	-407.55
359.11	-69.63
359.325	303.1
359.541	-51.2
359.756	-28.67
359.972	-325.63
360.187	122.88
360.402	-163.84
360.618	-192.51
360.833	909.3
361.048	110.59
361.264	-294.91
361.479	-55.3
361.694	-65.54
361.909	182.27
362.125	-217.08
362.34	-131.07
362.555	206.84
362.77	-53.25
362.986	-327.68
363.201	-184.32
363.416	176.13
363.631	-55.3
363.847	-202.75
364.062	-202.75
364.277	188.41
364.492	114.69
364.707	-184.32
364.922	-376.83
365.138	241.66
365.353	260.09
365.568	-286.72
365.783	-264.19
365.998	159.74
366.213	610.29
366.428	-266.24
366.643	75.77
366.858	286.72
367.073	202.75
367.288	-147.45
367.503	-325.63
367.718	112.64
367.933	262.14
368.148	-331.77
368.363	-172.03
368.578	-75.77
368.793	425.98
369.008	-204.8
369.223	-219.13
369.438	114.69
369.653	294.91
369.868	-323.58
370.083	-339.96
370.298	14.34
370.513	315.39
370.728	14.34
370.943	-270.33
371.157	-178.17
371.372	583.67
371.587	-348.15
371.802	-368.63
372.017	47.1
372.232	327.67
372.446	-36.86
372.661	-270.33
372.876	225.28
373.091	79.87
373.306	-96.25
373.52	-231.42
373.735	-221.18
373.95	346.11
374.165	-176.13
374.379	-104.45
374.594	-151.55
374.809	122.88
375.023	-40.96
375.238	-319.48
375.453	245.76
375.667	-301.05
375.882	-247.8
376.097	-337.91
376.311	-22.53
376.526	-86.01
376.741	-237.56
376.955	81.92
377.17	495.61
377.384	524.28
377.599	-210.94
377.813	-296.96
378.028	571.38
378.242	172.03
378.457	-94.21
378.672	-417.79
378.886	75.77
379.101	-88.06
379.315	-354.3
379.53	-294.91
379.744	245.76
379.958	147.45
380.173	-120.83
380.387	-137.21
380.602	83.97
380.816	-180.22
381.031	-182.27
381.245	-133.12
381.459	157.69
381.674	2721.75
381.888	-225.28
382.103	118.78
382.317	-215.04
382.531	471.03
382.746	-53.25
382.96	-272.38
383.174	-182.27
383.388	380.92
383.603	102.4
383.817	-348.15
384.031	178.17
384.246	387.07
384.46	-129.02
384.674	309.24
384.888	-51.2
385.103	86.01
385.317	-411.64
385.531	-59.39
385.745	380.92
385.959	219.13
386.174	-262.14
386.388	-292.86
386.602	65.53
386.816	-172.03
387.03	-120.83
387.244	-157.69
387.458	16.38
387.672	387.07
387.887	-331.77
388.101	-311.29
388.315	313.34
388.529	114.69
388.743	-200.7
388.957	-319.48
389.171	362.49
389.385	-233.47
389.599	-184.32
389.813	-20.48
390.027	206.84
390.241	657.4
390.455	-200.7
390.669	-157.69
390.883	-231.42
391.097	434.17
391.311	79.87
391.525	-272.38
391.738	159.74
391.952	131.07
392.166	-147.45
392.38	-194.56
392.594	167.93
392.808	198.65
393.022	-180.22
393.236	-155.65
393.449	114.69
393.663	141.31
393.877	-284.67
394.091	-129.02
394.305	-122.88
394.518	-153.6
394.732	-331.77
394.946	-206.84
395.16	395.26
395.373	26.62
395.587	-313.34
395.801	-239.61
396.015	325.63
396.228	190.46
396.442	-294.91
396.656	-378.87
396.869	286.72
397.083	368.63
397.297	-75.77
397.51	-241.66
397.724	317.44
397.938	86.01
398.151	-348.15
398.365	-366.59
398.578	229.37
398.792	274.43
399.005	-81.92
399.219	-104.45
399.433	49.15
399.646	96.25
399.86	-34.82
400.073	10.24
400.287	233.47
400.5	-122.88
400.714	-65.54
400.927	-145.41
401.141	237.56
401.354	995.31
401.567	229.37
401.781	-319.48
401.994	278.52
402.208	557.05
402.421	-178.17
402.635	-215.04
402.848	-79.87
403.061	282.62
403.275	-133.12
403.488	-266.24
403.701	409.59
403.915	200.7
404.128	-12.29
404.341	-196.61
404.555	159.74
404.768	-40.96
404.981	-40.96
405.195	-210.94
405.408	411.64
405.621	157.69
405.834	-53.25
406.048	-339.96
406.261	391.16
406.474	434.17
406.687	-264.19
406.9	-61.44
407.114	-12.29
407.327	157.69
407.54	-337.91
407.753	-331.77
407.966	-135.17
408.179	180.22
408.392	-241.66
408.605	-352.25
408.819	176.13
409.032	149.5
409.245	-210.94
409.458	-6.14
409.671	176.13
409.884	282.62
410.097	-370.68
410.31	-49.15
410.523	100.35
410.736	-57.34
410.949	-114.69
411.162	-247.8
411.375	421.88
411.588	292.86
411.801	-16.38
412.014	-299
412.227	2.05
412.44	-112.64
412.653	-253.95
412.865	-32.77
413.078	256
413.291	172.03
413.504	-141.31
413.717	-270.33
413.93	247.8
414.143	-157.69
414.356	-75.77
414.568	-399.35
414.781	284.67
414.994	67.58
415.207	-129.02
415.42	-235.52
415.632	204.8
415.845	501.75
416.058	-286.72
416.271	-253.95
416.483	63.49
416.696	425.98
416.909	-299
417.121	-208.89
417.334	165.89
417.547	442.36
417.759	-212.99
417.972	-286.72
418.185	-73.73
418.397	210.94
418.61	-204.8
418.823	-188.41
419.035	450.55
419.248	28.67
419.46	-51.2
419.673	-51.2
419.885	141.31
420.098	-14.34
420.311	-133.12
420.523	-452.6
420.736	262.14
420.948	32.77
421.161	-184.32
421.373	-397.31
421.586	51.2
421.798	-176.13
422.01	-405.5
422.223	-59.39
422.435	-69.63
422.648	282.62
422.86	-280.57
423.073	-163.84
423.285	215.04
423.497	-325.63
423.71	-225.28
423.922	-286.72
424.134	57.34
424.347	393.21
424.559	47.1
424.771	69.63
424.984	8.19
425.196	131.07
425.408	-405.5
425.621	-352.25
425.833	225.28
426.045	327.67
426.257	-286.72
426.47	-223.23
426.682	53.25
426.894	249.85
427.106	-208.89
427.318	-184.32
427.531	-208.89
427.743	200.7
427.955	-147.45
428.167	219.13
428.379	94.21
428.591	-98.3
428.804	-120.83
429.016	-204.8
429.228	-122.88
429.44	94.21
429.652	-69.63
429.864	-421.88
430.076	-155.65
430.288	-4.1
430.5	-282.62
430.712	-149.5
430.924	262.14
431.136	81.92
431.348	-456.7
431.56	-208.89
431.772	-8.19
431.984	-90.11
432.196	-286.72
432.408	-241.66
432.62	-96.25
432.832	124.93
433.044	90.11
433.256	-184.32
433.468	196.6
433.679	-290.81
433.891	-337.91
434.103	-61.44
434.315	378.87
434.527	114.69
434.739	-135.17
434.95	-133.12
435.162	118.78
435.374	-141.31
435.586	-157.69
435.798	-282.62
436.009	-178.17
436.221	-43.01
436.433	-178.17
436.645	-208.89
436.856	-120.83
437.068	290.81
437.28	-315.39
437.491	59.39
437.703	22.53
437.915	155.65
438.126	-157.69
438.338	83.97
438.55	-8.19
438.761	139.26
438.973	-151.55
439.184	-167.93
439.396	20.48
439.608	215.04
439.819	-348.15
440.031	-55.3
440.242	200.7
440.454	219.13
440.665	-147.45
440.877	-61.44
441.088	251.9
441.3	-65.54
441.511	-344.06
441.723	-219.13
441.934	118.78
442.146	16.38
442.357	-32.77
442.569	36.86
442.78	40.96
442.991	491.51
443.203	143.36
443.414	-354.3
443.626	268.28
443.837	-253.95
444.048	-368.63
444.26	-358.39
444.471	10.24
444.682	245.76
444.894	-342.01
445.105	-337.91
445.316	239.61
445.528	118.78
445.739	-98.3
445.95	-163.84
446.161	20.48
446.373	212.99
446.584	-231.42
446.795	-151.55
447.006	124.93
447.217	387.07
447.429	-389.11
447.64	-335.87
447.851	346.11
448.062	4.1
448.273	-397.31
448.484	-237.56
448.695	225.28
448.907	67.58
449.118	-106.49
449.329	-32.77
449.54	-73.73
449.751	-253.95
449.962	-290.81
450.173	-223.23
450.384	237.56
450.595	368.63
450.806	-200.7
451.017	-225.28
451.228	299
451.439	294.91
451.65	-208.89
451.861	-409.59
452.072	-278.52
452.283	-53.25
452.494	-104.45
452.705	-221.18
452.915	380.92
453.126	151.55
453.337	-192.51
453.548	-366.59
453.759	299
453.97	567.29
454.181	8.19
454.391	-212.99
454.602	67.58
454.813	233.47
455.024	-178.17
455.235	-241.66
455.445	45.06
455.656	206.84
455.867	-86.01
456.078	-270.33
456.288	-122.88
456.499	63.49
456.71	-251.9
456.921	20.48
457.131	94.21
457.342	92.16
457.553	-176.13
457.763	-221.18
457.974	169.98
458.184	221.18
458.395	-350.2
458.606	-301.05
458.816	221.18
459.027	458.74
459.237	-106.49
459.448	-430.07
459.659	280.57
459.869	669.69
460.08	-356.35
460.29	-96.25
460.501	479.22
460.711	-104.45
460.922	-313.34
461.132	-241.66
461.343	657.4
461.553	-249.85
461.764	-268.28
461.974	-317.44
462.184	256
462.395	67.58
462.605	-200.7
462.816	-389.11
463.026	26.62
463.236	260.09
463.447	-374.78
463.657	-301.05
463.867	196.6
464.078	-83.97
464.288	-221.18
464.498	-311.29
464.709	-16.38
464.919	-67.58
465.129	-198.65
465.339	-282.62
465.55	102.4
465.76	159.74
465.97	-237.56
466.18	-303.1
466.391	221.18
466.601	73.73
466.811	-143.36
467.021	-380.92
467.231	83.97
467.441	282.62
467.651	-217.08
467.862	-491.51
468.072	-26.62
468.282	286.72
468.492	-235.52
468.702	-249.85
468.912	-14.34
469.122	626.68
469.332	4.1
469.542	-352.25
469.752	210.94
469.962	81.92
470.172	-374.78
470.382	-270.33
470.592	163.84
470.802	303.1
471.012	-79.87
471.222	-223.23
471.432	272.38
471.642	147.45
471.852	-77.82
472.062	-380.92
472.272	-53.25
472.482	-294.91
472.691	-307.2
472.901	-380.92
473.111	49.15
473.321	532.47
473.531	-301.05
473.741	-169.98
473.95	116.73
474.16	143.36
474.37	-106.49
474.58	-307.2
474.79	436.22
474.999	108.54
475.209	-317.44
475.419	-256
475.628	16.38
475.838	241.66
476.048	-198.65
476.258	-368.63
476.467	329.72
476.677	-151.55
476.886	-55.3
477.096	-217.08
477.306	-176.13
477.515	299
477.725	-169.98
477.935	-212.99
478.144	307.2
478.354	-94.21
478.563	-174.08
478.773	-280.57
478.982	233.47
479.192	321.53
479.401	-167.93
479.611	-319.48
479.82	-161.79
480.03	96.25
480.239	-294.91
480.449	-374.78
480.658	372.73
480.868	-83.97
481.077	-110.59
481.287	-212.99
481.496	143.36
481.705	405.5
481.915	-40.96
482.124	165.89
482.333	32.77
482.543	364.54
482.752	-167.93
482.961	-307.2
483.171	135.17
483.38	-61.44
483.589	-131.07
483.799	-284.67
484.008	-40.96
484.217	241.66
484.426	-233.47
484.636	-385.02
484.845	122.88
485.054	-307.2
485.263	22.53
485.472	-249.85
485.682	401.4
485.891	112.64
486.1	-382.97
486.309	-290.81
486.518	145.41
486.727	305.15
486.936	-282.62
487.146	-98.3
487.355	329.72
487.564	-178.17
487.773	-163.84
487.982	-251.9
488.191	-65.54
488.4	114.69
488.609	-260.09
488.818	-237.56
489.027	616.44
489.236	317.44
489.445	-116.73
489.654	-313.34
489.863	249.85
490.072	53.25
490.281	192.51
490.49	-167.93
490.698	385.02
490.907	344.06
491.116	-161.79
491.325	-385.02
491.534	387.07
491.743	69.63
491.952	-100.35
492.16	-165.89
492.369	190.46
492.578	323.58
492.787	-212.99
492.996	-319.48
493.204	-65.54
493.413	485.37
493.622	-397.31
493.831	-417.79
494.039	346.11
494.248	-147.45
494.457	-188.41
494.665	-327.68
494.874	270.33
495.083	516.09
495.291	-178.17
495.5	-301.05
495.709	247.8
495.917	59.39
496.126	-61.44
496.335	-321.53
496.543	43.01
496.752	143.36
496.96	120.83
497.169	-358.39
497.377	-98.3
497.586	327.67
497.794	-36.86
498.003	-374.78
498.211	-63.49
498.42	487.42
498.628	-172.03
498.837	-335.87
499.045	202.75
499.254	137.21
499.462	-221.18
499.671	-333.82
499.879	563.19
500.087	380.92
500.296	-149.5
500.504	-186.37
500.713	63.49
500.921	579.58
501.129	-294.91
501.338	-233.47
501.546	57.34
501.754	122.88
501.962	-167.93
502.171	-278.52
502.379	122.88
502.587	479.22
502.795	-196.61
503.004	-151.55
503.212	83.97
503.42	245.76
503.628	-161.79
503.837	-65.54
504.045	342.01
504.253	421.88
504.461	-233.47
504.669	-385.02
504.877	202.75
505.085	430.07
505.294	-327.68
505.502	2.05
505.71	157.69
505.918	299
506.126	-266.24
506.334	-270.33
506.542	34.82
506.75	149.5
506.958	-129.02
507.166	-188.41
507.374	-102.4
507.582	548.86
507.79	-47.1
507.998	-294.91
508.206	215.04
508.414	202.75
508.622	-243.71
508.83	-206.84
509.037	454.65
509.245	4.1
509.453	-262.14
509.661	-243.71
509.869	274.43
510.077	43.01
510.285	-129.02
510.492	-487.42
510.7	692.21
510.908	-40.96
511.116	-217.08
511.324	-233.47
511.531	4.1
511.739	94.21
511.947	-135.17
512.155	94.21
512.362	106.49
512.57	-192.51
512.778	-284.67
512.985	-403.45
513.193	270.33
513.401	456.7
513.608	-223.23
513.816	-155.65
514.024	149.5
514.231	393.21
514.439	-225.28
514.646	-196.61
514.854	313.34
515.061	358.39
515.269	-268.28
515.477	-204.8
515.684	-8.19
515.892	307.2
516.099	-284.67
516.307	-337.91
516.514	260.09
516.722	505.85
516.929	-188.41
517.136	-280.57
517.344	421.88
517.551	192.51
517.759	-196.61
517.966	-186.37
518.173	0
518.381	108.54
518.588	-102.4
518.796	-221.18
519.003	274.43
519.21	24.58
519.418	-227.32
519.625	86.01
519.832	81.92
520.039	208.89
520.247	-389.11
520.454	-172.03
520.661	411.64
520.868	309.24
521.076	-184.32
521.283	-145.41
521.49	786.42
521.697	180.22
521.904	-141.31
522.112	-196.61
522.319	311.29
522.526	278.52
522.733	-260.09
522.94	-274.43
523.147	126.97
523.354	270.33
523.561	-299
523.768	-45.06
523.975	368.63
524.183	131.07
524.39	-92.16
524.597	-280.57
524.804	61.44
525.011	-118.78
525.218	-196.61
525.425	-198.65
525.632	425.98
525.838	-96.25
526.045	-182.27
526.252	-147.45
526.459	1312.75
526.666	946.16
526.873	-188.41
527.08	-200.7
527.287	544.76
527.494	335.87
527.701	-305.15
527.907	-278.52
528.114	241.66
528.321	106.49
528.528	-102.4
528.735	-153.6
528.941	-26.62
529.148	-28.67
529.355	-2.05
529.562	-292.86
529.768	720.88
529.975	110.59
530.182	-147.45
530.388	-194.56
530.595	296.96
530.802	-73.73
531.008	-77.82
531.215	-77.82
531.422	530.42
531.628	913.39
531.835	-131.07
532.042	-81.92
532.248	-26.62
532.455	196.6
532.661	-73.73
532.868	-196.61
533.074	188.41
533.281	344.06
533.487	-69.63
533.694	-262.14
533.9	-172.03
534.107	268.28
534.313	-210.94
534.52	-317.44
534.726	452.6
534.933	595.96
535.139	-196.61
535.345	-319.48
535.552	221.18
535.758	149.5
535.965	-73.73
536.171	-155.65
536.377	325.63
536.584	477.18
536.79	-131.07
536.996	-67.58
537.203	182.27
537.409	393.21
537.615	-79.87
537.821	147.45
538.028	342.01
538.234	411.64
538.44	-65.54
538.646	-8.19
538.853	192.51
539.059	98.3
539.265	321.53
539.471	-393.21
539.677	372.73
539.883	90.11
540.09	-104.45
540.296	346.11
540.502	174.08
540.708	34.82
540.914	106.49
541.12	-122.88
541.326	329.72
541.532	184.32
541.738	-18.43
541.944	-75.77
542.15	362.49
542.356	143.36
542.562	-122.88
542.768	-47.1
542.974	757.75
543.18	643.06
543.386	-57.34
543.592	-239.61
543.798	524.28
544.004	425.98
544.21	-98.3
544.415	14.34
544.621	260.09
544.827	495.61
545.033	-172.03
545.239	143.36
545.445	-53.25
545.651	245.76
545.856	-106.49
546.062	-49.15
546.268	145.41
546.474	247.8
546.679	38.91
546.885	-43.01
547.091	165.89
547.297	763.89
547.502	61.44
547.708	-192.51
547.914	81.92
548.119	380.92
548.325	-194.56
548.531	-63.49
548.736	602.1
548.942	86.01
549.147	-57.34
549.353	88.06
549.559	432.12
549.764	368.63
549.97	-118.78
550.175	-79.87
550.381	387.07
550.586	67.58
550.792	-14.34
550.997	10.24
551.203	368.63
551.408	389.11
551.614	-153.6
551.819	-83.97
552.025	718.84
552.23	698.36
552.435	-135.17
552.641	53.25
552.846	165.89
553.052	516.09
553.257	143.36
553.462	2.05
553.668	69.63
553.873	409.59
554.078	-83.97
554.283	-73.73
554.489	368.63
554.694	241.66
554.899	-102.4
555.105	114.69
555.31	405.5
555.515	507.9
555.72	86.01
555.925	-69.63
556.131	526.33
556.336	143.36
556.541	-65.54
556.746	-36.86
556.951	600.05
557.156	624.63
557.361	88.06
557.567	118.78
557.772	696.31
557.977	485.37
558.182	-53.25
558.387	20.48
558.592	67.58
558.797	626.68
559.002	184.32
559.207	16.38
559.412	292.86
559.617	827.38
559.822	-63.49
560.027	0
560.232	423.93
560.437	499.7
560.642	-79.87
560.847	-30.72
561.051	286.72
561.256	362.49
561.461	147.45
561.666	-61.44
561.871	393.21
562.076	432.12
562.281	122.88
562.485	-28.67
562.69	536.57
562.895	458.74
563.1	61.44
563.305	-43.01
563.509	626.68
563.714	858.1
563.919	126.97
564.123	26.62
564.328	374.78
564.533	628.73
564.737	16.38
564.942	59.39
565.147	647.16
565.351	856.05
565.556	229.37
565.761	184.32
565.965	485.37
566.17	245.76
566.374	45.06
566.579	-6.14
566.784	509.94
566.988	286.72
567.193	-20.48
567.397	122.88
567.602	90.11
567.806	346.11
568.011	106.49
568.215	92.16
568.42	258.04
568.624	323.58
568.828	106.49
569.033	262.14
569.237	571.38
569.442	491.51
569.646	8.19
569.85	57.34
570.055	370.68
570.259	532.47
570.463	309.24
570.668	86.01
570.872	356.35
571.076	385.02
571.281	256
571.485	235.52
571.689	454.65
571.893	618.49
572.098	319.48
572.302	180.22
572.506	567.29
572.71	366.59
572.914	122.88
573.119	137.21
573.323	778.23
573.527	800.76
573.731	98.3
573.935	106.49
574.139	466.94
574.343	258.04
574.547	151.55
574.751	141.31
574.955	714.74
575.159	733.17
575.364	65.53
575.568	26.62
575.772	411.64
575.976	698.36
576.18	157.69
576.383	43.01
576.587	679.93
576.791	667.64
576.995	-34.82
577.199	-53.25
577.403	636.92
577.607	643.06
577.811	98.3
578.015	264.19
578.219	485.37
578.422	720.88
578.626	274.43
578.83	243.71
579.034	780.28
579.238	432.12
579.442	172.03
579.645	573.43
579.849	464.89
580.053	489.46
580.257	253.95
580.46	229.37
580.664	698.36
580.868	651.25
581.071	436.22
581.275	321.53
581.479	198.65
581.682	722.93
581.886	210.94
582.09	348.15
582.293	624.63
582.497	694.26
582.7	428.03
582.904	215.04
583.107	569.34
583.311	442.36
583.515	243.71
583.718	307.2
583.922	696.31
584.125	1009.65
584.329	172.03
584.532	315.39
584.735	913.39
584.939	643.06
585.142	139.26
585.346	163.84
585.549	636.92
585.753	358.39
585.956	280.57
586.159	440.31
586.363	907.25
586.566	684.02
586.769	243.71
586.973	122.88
587.176	745.46
587.379	745.46
587.582	573.43
587.786	518.14
587.989	563.19
588.192	1239.02
588.395	368.63
588.599	626.68
588.802	614.39
589.005	798.71
589.208	307.2
589.411	380.92
589.615	864.24
589.818	884.72
590.021	540.66
590.224	491.51
590.427	892.91
590.63	833.52
590.833	92.16
591.036	264.19
591.239	524.28
591.442	491.51
591.645	559.1
591.848	360.44
592.051	704.5
592.254	835.57
592.457	368.63
592.66	387.07
592.863	430.07
593.066	696.31
593.269	368.63
593.472	479.22
593.675	358.39
593.878	878.58
594.081	458.74
594.284	352.25
594.486	843.76
594.689	675.83
594.892	477.18
595.095	434.17
595.298	761.84
595.5	497.66
595.703	602.1
595.906	491.51
596.109	923.63
596.311	978.93
596.514	251.9
596.717	487.42
596.92	948.21
597.122	741.36
597.325	229.37
597.528	393.21
597.73	886.77
597.933	790.52
598.136	479.22
598.338	163.84
598.541	821.24
598.743	1032.18
598.946	491.51
599.148	462.84
599.351	980.98
599.554	956.4
599.756	468.98
599.959	548.86
600.161	995.31
600.363	1304.56
600.566	753.65
600.768	403.45
600.971	1142.77
601.173	858.1
601.376	507.9
601.578	557.05
601.78	931.83
601.983	1247.21
602.185	421.88
602.388	759.8
602.59	860.15
602.792	665.59
602.995	714.74
603.197	372.73
603.399	1015.79
603.601	901.11
603.804	606.2
604.006	559.1
604.208	770.04
604.41	342.01
604.613	710.65
604.815	487.42
605.017	1361.9
605.219	665.59
605.421	927.73
605.623	432.12
605.826	1134.57
606.028	1234.93
606.23	579.58
606.432	552.95
606.634	1132.53
606.836	1107.95
607.038	436.22
607.24	720.88
607.442	835.57
607.644	854
607.846	755.7
608.048	581.62
608.25	1126.38
608.452	737.27
608.654	702.45
608.856	430.07
609.058	903.15
609.26	1028.08
609.462	671.73
609.664	675.83
609.866	1265.64
610.067	1097.71
610.269	770.04
610.471	643.06
610.673	763.89
610.875	1126.38
611.077	448.51
611.278	651.25
611.48	899.06
611.682	1243.12
611.884	634.87
612.085	733.17
612.287	686.07
612.489	1044.46
612.69	475.13
612.892	724.98
613.094	1316.84
613.295	1060.85
613.497	548.86
613.699	735.22
613.9	1286.12
614.102	1212.4
614.304	765.94
614.505	536.57
614.707	921.59
614.908	972.79
615.11	518.14
615.311	866.29
615.513	1157.1
615.714	1134.57
615.916	524.28
616.117	767.99
616.319	999.41
616.52	1140.72
616.722	667.64
616.923	714.74
617.124	1306.6
617.326	1107.95
617.527	860.15
617.729	966.64
617.93	1122.29
618.131	1255.4
618.333	745.46
618.534	714.74
618.735	851.95
618.937	1335.28
619.138	630.77
619.339	653.3
619.54	1116.14
619.742	952.31
619.943	872.43
620.144	819.19
620.345	1189.87
620.546	1337.32
620.748	643.06
620.949	778.23
621.15	1060.85
621.351	1066.99
621.552	749.56
621.753	622.58
621.954	673.78
622.155	1609.7
622.356	714.74
622.558	1081.33
622.759	1048.56
622.96	1515.5
623.161	870.39
623.362	774.13
623.563	1120.24
623.764	1181.68
623.965	862.19
624.166	1023.98
624.366	1015.79
624.567	1187.82
624.768	565.24
624.969	845.81
625.17	1085.42
625.371	1253.36
625.572	903.15
625.773	800.76
625.973	1376.23
626.174	1312.75
626.375	917.49
626.576	976.88
626.777	1322.99
626.977	1687.53
627.178	839.67
627.379	1028.08
627.58	1150.96
627.78	1165.29
627.981	909.3
628.182	1011.7
628.382	1366
628.583	827.38
628.784	796.66
628.984	1087.47
629.185	1357.8
629.386	1335.28
629.586	925.68
629.787	884.72
629.987	1318.89
630.188	1230.83
630.388	946.16
630.589	1126.38
630.79	1779.68
630.99	1155.05
631.191	1023.98
631.391	927.73
631.591	1449.96
631.792	1638.37
631.992	1038.32
632.193	950.26
632.393	1617.9
632.594	1183.73
632.794	991.22
632.994	1130.48
633.195	1236.97
633.395	1339.37
633.595	923.63
633.796	1183.73
633.996	1124.33
634.196	1587.18
634.397	798.71
634.597	1116.14
634.797	1187.82
634.997	1523.69
635.198	1134.57
635.398	849.91
635.598	1337.32
635.798	1628.14
635.998	1503.21
636.199	995.31
636.399	1148.91
636.599	1130.48
636.799	1093.62
636.999	1361.9
637.199	1427.43
637.399	1568.74
637.599	944.11
637.799	1181.68
637.999	1105.9
638.199	1728.49
638.399	1007.6
638.599	1138.67
638.799	1482.73
638.999	1814.5
639.199	1269.74
639.399	1288.17
639.599	1677.29
639.799	1134.57
639.999	1050.61
640.199	1003.5
640.399	1484.78
640.599	1517.54
640.799	1181.68
640.998	1380.33
641.198	1667.05
641.398	1591.27
641.598	1241.07
641.798	1255.4
641.997	2303.96
642.197	1343.47
642.397	1261.55
642.597	1196.01
642.796	1591.27
642.996	1818.6
643.196	1222.64
643.395	1159.15
643.595	1525.74
643.795	1075.18
643.994	1226.73
644.194	1357.8
644.394	1630.18
644.593	1621.99
644.793	1095.66
644.992	1325.04
645.192	1634.28
645.392	1183.73
645.591	1220.59
645.791	1286.12
645.99	1613.8
646.19	1437.67
646.389	1320.94
646.589	1243.12
646.788	1609.7
646.987	1671.14
647.187	1558.5
647.386	1406.95
647.586	1523.69
647.785	1740.77
647.984	1251.31
648.184	1316.84
648.383	1480.68
648.582	1447.91
648.782	1294.32
648.981	1253.36
649.18	1419.24
649.38	1630.18
649.579	1279.98
649.778	1247.21
649.977	1621.99
650.177	1679.33
650.376	1277.93
650.575	1226.73
650.774	2068.45
650.973	1556.46
651.173	1148.91
651.372	1382.38
651.571	1621.99
651.77	1800.16
651.969	1368.04
652.168	1429.48
652.367	1361.9
652.566	1640.42
652.765	1429.48
652.964	1634.28
653.163	2117.6
653.362	1736.68
653.561	1337.32
653.76	1433.58
653.959	1652.71
654.158	1685.48
654.357	1609.7
654.556	1411.05
654.755	1705.96
654.954	1761.25
655.153	1486.83
655.352	1503.21
655.551	1886.18
655.749	1480.68
655.948	1501.16
656.147	1556.46
656.346	1710.05
656.545	1583.08
656.743	1495.02
656.942	1673.19
657.141	1701.86
657.34	1435.63
657.538	1490.92
657.737	1511.4
657.936	1562.6
658.135	1843.17
658.333	1458.15
658.532	1531.88
658.731	2226.14
658.929	1941.47
659.128	1718.25
659.326	1466.35
659.525	2039.78
659.724	1710.05
659.922	1187.82
660.121	1277.93
660.319	1814.5
660.518	1611.75
660.716	1470.44
660.915	1413.1
661.113	2082.78
661.312	1535.98
661.51	1556.46
661.709	1454.06
661.907	1957.86
662.105	2162.65
662.304	1499.11
662.502	1615.85
662.701	2101.22
662.899	1765.35
663.097	1839.08
663.296	1515.5
663.494	2064.35
663.692	2250.72
663.891	1523.69
664.089	1482.73
664.287	1984.48
664.485	2164.7
664.684	1513.45
664.882	1859.56
665.08	1873.89
665.278	1843.17
665.476	1576.94
665.675	2002.91
665.873	2258.91
666.071	2088.93
666.269	1529.83
666.467	1880.04
666.665	1923.04
666.863	1820.64
667.061	1861.6
667.259	1603.56
667.457	1964
667.655	2009.06
667.853	1454.06
668.051	1859.56
668.249	1621.99
668.447	2082.78
668.645	1609.7
668.843	1869.8
669.041	2138.08
669.239	1701.86
669.437	1855.46
669.635	1851.36
669.833	1953.76
670.031	2056.16
670.229	1845.22
670.426	1800.16
670.624	1875.94
670.822	1802.21
671.02	1736.68
671.218	1871.84
671.415	1798.12
671.613	2072.54
671.811	1794.02
672.009	1804.26
672.206	2138.08
672.404	2015.2
672.602	2019.3
672.799	1904.61
672.997	2240.48
673.195	2263.01
673.392	1859.56
673.59	1630.18
673.788	2195.42
673.985	1552.36
674.183	1927.14
674.38	1877.99
674.578	2271.2
674.775	1818.6
674.973	1634.28
675.17	1777.64
675.368	2488.28
675.565	2226.14
675.763	1763.3
675.96	1779.68
676.158	2283.49
676.355	1918.95
676.553	1834.98
676.75	1847.27
676.947	2146.27
677.145	2064.35
677.342	1933.28
677.539	1947.62
677.737	2240.48
677.934	2635.74
678.131	2199.52
678.329	1863.65
678.526	2523.1
678.723	2404.32
678.92	1974.24
679.118	1923.04
679.315	1849.32
679.512	2424.8
679.709	2019.3
679.906	1839.08
680.104	2475.99
680.301	2154.46
680.498	1751.01
680.695	1822.69
680.892	2011.11
681.089	1957.86
681.286	1990.63
681.483	1705.96
681.68	2316.25
681.877	2256.86
682.075	1978.34
682.272	2123.74
682.469	2334.68
682.665	1992.67
682.862	1886.18
683.059	1744.87
683.256	2240.48
683.453	2174.94
683.65	2138.08
683.847	1998.82
684.044	2197.47
684.241	2033.63
684.438	2232.29
684.635	1875.94
684.831	2740.18
685.028	2797.53
685.225	1933.28
685.422	2084.83
685.619	2162.65
685.815	2133.98
686.012	2170.85
686.209	1990.63
686.405	2027.49
686.602	2469.85
686.799	1867.75
686.996	1902.56
687.192	1873.89
687.389	2695.13
687.586	1857.51
687.782	1916.9
687.979	2695.13
688.175	2555.86
688.372	2113.5
688.568	1984.48
688.765	2047.97
688.962	2609.11
689.158	2007.01
689.355	1763.3
689.551	2396.12
689.748	2244.57
689.944	2260.96
690.14	1892.32
690.337	2584.54
690.533	2181.09
690.73	2248.67
690.926	2070.5
691.123	2410.46
691.319	2346.97
691.515	1974.24
691.712	2244.57
691.908	2359.26
692.104	2359.26
692.301	2217.95
692.497	1800.16
692.693	2469.85
692.889	2576.34
693.086	2234.33
693.282	1822.69
693.478	2351.07
693.674	2670.55
693.87	2002.91
694.067	2054.11
694.263	2377.69
694.459	2154.46
694.655	2310.11
694.851	2232.29
695.047	2541.53
695.243	2602.97
695.439	2301.92
695.635	1986.53
695.831	2580.44
696.027	2306.01
696.224	2242.53
696.42	2531.29
696.615	2688.98
696.811	2609.11
697.007	2021.35
697.203	2133.98
697.399	2492.38
697.595	2588.63
697.791	2150.37
697.987	2525.15
698.183	2064.35
698.379	2189.28
698.575	2166.75
698.77	2222.05
698.966	2637.78
699.162	2711.51
699.358	2254.81
699.554	2220
699.749	2502.62
699.945	2566.1
700.141	2269.15
700.337	2297.82
700.532	2478.04
700.728	2244.57
700.924	2158.56
701.119	2115.55
701.315	2519
701.511	2258.91
701.706	2357.21
701.902	2088.93
702.097	2379.74
702.293	2621.4
702.489	2357.21
702.684	2293.72
702.88	2547.67
703.075	2367.45
703.271	2191.33
703.466	2176.99
703.662	2459.61
703.857	2625.5
704.053	2287.58
704.248	2334.68
704.443	2799.57
704.639	2645.98
704.834	2387.93
705.03	2203.61
705.225	2707.41
705.42	2705.37
705.616	2461.66
705.811	2234.33
706.006	2453.47
706.202	2416.6
706.397	2383.84
706.592	2187.23
706.787	2465.75
706.983	2432.99
707.178	2584.54
707.373	2482.14
707.568	2678.74
707.763	2875.35
707.959	2326.49
708.154	2310.11
708.349	2621.4
708.544	2602.97
708.739	2559.96
708.934	2312.16
709.129	2641.88
709.324	2803.67
709.519	2314.2
709.714	2228.19
709.909	2836.44
710.104	2766.81
710.299	2203.61
710.494	2439.13
710.689	2940.88
710.884	2572.25
711.079	2457.56
711.274	2691.03
711.469	2697.17
711.664	2721.75
711.859	2432.99
712.054	2498.52
712.249	2785.24
712.443	2858.96
712.638	2211.81
712.833	2330.59
713.028	2510.81
713.223	2494.43
713.417	2578.39
713.612	2426.84
713.807	2803.67
714.002	3303.37
714.196	2629.59
714.391	2408.41
714.586	2975.7
714.78	2793.43
714.975	2473.95
715.17	2406.36
715.364	2566.1
715.559	2926.55
715.754	2189.28
715.948	2404.32
716.143	3121.1
716.337	2805.72
716.532	2682.84
716.726	2516.95
716.921	2818
717.115	3100.62
717.31	2336.73
717.504	2846.68
717.699	2564.06
717.893	3006.42
718.088	2303.96
718.282	2351.07
718.476	2662.36
718.671	2805.72
718.865	2330.59
719.059	2588.63
719.254	2785.24
719.448	3059.67
719.642	3846.09
719.837	2387.93
720.031	2772.95
720.225	3033.04
720.419	2645.98
720.614	2465.75
720.808	2887.64
721.002	2506.71
721.196	2463.71
721.39	2574.3
721.585	2918.36
721.779	2836.44
721.973	2545.63
722.167	2410.46
722.361	2672.6
722.555	2854.87
722.749	2467.8
722.943	2494.43
723.137	2506.71
723.331	2775
723.525	2394.08
723.719	2533.34
723.913	2807.77
724.107	3121.1
724.301	2394.08
724.495	2697.17
724.689	3239.89
724.883	3010.51
725.077	2404.32
725.271	2453.47
725.465	3102.67
725.659	2869.2
725.853	2688.98
726.046	2367.45
726.24	2736.09
726.434	3006.42
726.628	2676.7
726.822	2557.91
727.015	3049.43
727.209	3155.92
727.403	2641.88
727.596	2299.87
727.79	3045.33
727.984	3076.05
728.177	2510.81
728.371	2723.8
728.565	3047.38
728.758	2760.66
728.952	2512.86
729.146	2580.44
729.339	3071.95
729.533	2738.13
729.726	2662.36
729.92	2572.25
730.113	2990.03
730.307	2990.03
730.5	2672.6
730.694	2494.43
730.887	2744.28
731.081	2920.4
731.274	2449.37
731.468	2664.41
731.661	2834.39
731.854	2815.96
732.048	2670.55
732.241	2506.71
732.435	2830.29
732.628	2858.96
732.821	2787.29
733.014	2639.83
733.208	2666.46
733.401	3100.62
733.594	2592.73
733.788	2645.98
733.981	3401.68
734.174	3102.67
734.367	2772.95
734.56	2748.37
734.754	3280.85
734.947	2932.69
735.14	2691.03
735.333	2760.66
735.526	3231.69
735.719	2719.7
735.912	2600.92
736.105	2717.65
736.298	2850.77
736.491	2873.3
736.684	2543.58
736.877	2697.17
737.07	3028.95
737.263	3254.22
737.456	2666.46
737.649	2516.95
737.842	2877.4
738.035	2830.29
738.228	2643.93
738.421	2910.16
738.614	3319.76
738.807	3172.3
739	2465.75
739.192	2482.14
739.385	3123.15
739.578	3194.83
739.771	2949.07
739.964	2787.29
740.156	3190.74
740.349	2998.23
740.542	2973.65
740.735	2682.84
740.927	2897.88
741.12	2932.69
741.313	2719.7
741.505	2973.65
741.698	3078.1
741.891	3194.83
742.083	2918.36
742.276	2895.83
742.468	3147.73
742.661	2916.31
742.854	2834.39
743.046	2684.89
743.239	3416.01
743.431	3102.67
743.624	2826.2
743.816	2742.23
744.009	2979.79
744.201	3196.88
744.393	2965.46
744.586	2697.17
744.778	3383.24
744.971	3137.49
745.163	2947.03
745.355	2926.55
745.548	2899.92
745.74	3016.66
745.932	2981.84
746.125	2842.58
746.317	3629
746.509	3147.73
746.702	2949.07
746.894	2940.88
747.086	3207.12
747.278	3481.55
747.471	2987.99
747.663	2961.36
747.855	3117.01
748.047	3665.86
748.239	2758.61
748.431	2844.63
748.623	3520.46
748.815	3592.14
749.008	2711.51
749.2	2904.02
749.392	3401.68
749.584	3041.23
749.776	2967.51
749.968	2901.97
750.16	3540.94
750.352	2998.23
750.544	2899.92
750.736	2744.28
750.928	3260.37
751.12	3211.21
751.311	3047.38
751.503	3108.82
751.695	3293.13
751.887	3121.1
752.079	2764.76
752.271	2815.96
752.463	3764.17
752.654	3485.64
752.846	2971.6
753.038	2844.63
753.23	3063.76
753.421	3305.42
753.613	2818
753.805	3071.95
753.997	3313.61
754.188	3358.67
754.38	2822.1
754.572	2891.73
754.763	3205.07
754.955	3399.63
755.146	3100.62
755.338	2998.23
755.53	3297.23
755.721	3198.93
755.913	2807.77
756.104	2815.96
756.296	3178.45
756.487	3319.76
756.679	2793.43
756.87	2961.36
757.062	3088.34
757.253	3270.61
757.445	2871.25
757.636	3033.04
757.827	3178.45
758.019	3715.02
758.21	2928.6
758.401	2891.73
758.593	3485.64
758.784	3362.76
758.975	2768.85
759.167	2869.2
759.358	3231.69
759.549	3477.45
759.74	2998.23
759.932	2912.21
760.123	3588.04
760.314	2992.08
760.505	3084.24
760.696	2971.6
760.888	3604.42
761.079	3059.67
761.27	2830.29
761.461	2740.18
761.652	3614.66
761.843	3086.29
762.034	2955.22
762.225	3317.71
762.416	3114.96
762.607	3194.83
762.798	2985.94
762.989	3039.19
763.18	3975.11
763.371	3162.06
763.562	2998.23
763.753	2949.07
763.944	3379.15
764.135	3522.51
764.326	3145.68
764.517	2930.64
764.708	3473.35
764.899	3190.74
765.089	2895.83
765.28	2824.15
765.471	3241.93
765.662	3303.37
765.853	3006.42
766.043	2811.86
766.234	3530.7
766.425	3348.43
766.615	3080.14
766.806	2744.28
766.997	3444.68
767.187	3297.23
767.378	3065.81
767.569	2748.37
767.759	3260.37
767.95	3260.37
768.141	3063.76
768.331	3006.42
768.522	3260.37
768.712	3330
768.903	2795.48
769.093	2840.53
769.284	3676.1
769.474	3229.65
769.665	2715.61
769.855	2746.33
770.046	3391.44
770.236	3237.84
770.426	3117.01
770.617	2699.22
770.807	3344.33
770.998	3121.1
771.188	3096.53
771.378	2877.4
771.569	3444.68
771.759	3309.52
771.949	2877.4
772.139	2580.44
772.33	3325.9
772.52	3573.71
772.71	2832.34
772.9	2807.77
773.09	3499.98
773.281	3629
773.471	2869.2
773.661	3002.32
773.851	3461.07
774.041	3325.9
774.231	2910.16
774.421	3069.91
774.611	3657.67
774.802	3149.78
774.992	2959.31
775.182	2850.77
775.372	3434.44
775.562	3516.36
775.752	2901.97
775.942	3006.42
776.131	3444.68
776.321	3330
776.511	3035.09
776.701	2863.06
776.891	3483.59
777.081	2969.55
777.271	3082.19
777.461	3030.99
777.651	3399.63
777.84	3452.88
778.03	3104.72
778.22	2949.07
778.41	3573.71
778.599	3106.77
778.789	2932.69
778.979	2754.52
779.169	3360.72
779.358	3297.23
779.548	3397.58
779.738	2809.81
779.927	3301.33
780.117	2963.41
780.307	2985.94
780.496	2770.9
780.686	3391.44
780.875	3622.86
781.065	3051.47
781.254	2936.79
781.444	3258.32
781.633	3350.48
781.823	2731.99
782.012	2789.33
782.202	3178.45
782.391	3160.02
782.581	2863.06
782.77	3022.8
782.96	3407.82
783.149	3190.74
783.338	2955.22
783.528	2795.48
783.717	3596.23
783.906	3477.45
784.096	3141.58
784.285	2867.16
784.474	3092.43
784.663	3076.05
784.853	2996.18
785.042	3074
785.231	3170.26
785.42	3526.6
785.61	3014.61
785.799	2867.16
785.988	3162.06
786.177	3248.08
786.366	3106.77
786.555	3057.62
786.744	3538.89
786.933	3301.33
787.122	2754.52
787.312	2772.95
787.501	3114.96
787.69	3301.33
787.879	2885.59
788.068	2922.45
788.257	2951.12
788.445	2934.74
788.634	3051.47
788.823	2746.33
789.012	3788.74
789.201	3538.89
789.39	3125.2
789.579	2850.77
789.768	3243.98
789.957	3274.7
790.145	2908.12
790.334	2736.09
790.523	3092.43
790.712	3176.4
790.9	3016.66
791.089	2940.88
791.278	3407.82
791.467	3223.5
791.655	3274.7
791.844	3499.98
792.033	3141.58
792.221	3203.02
792.41	2928.6
792.599	2826.2
792.787	3444.68
792.976	3368.91
793.164	2717.65
793.353	2854.87
793.541	3497.93
793.73	3405.77
793.918	3039.19
794.107	2889.68
794.295	3170.26
794.484	3313.61
794.672	2963.41
794.861	3022.8
795.049	3477.45
795.238	3645.38
795.426	2770.9
795.614	2777.05
795.803	3436.49
795.991	3672.01
796.179	3067.86
796.368	3061.71
796.556	3555.27
796.744	3016.66
796.932	2838.48
797.121	2723.8
797.309	3223.5
797.497	3499.98
797.685	2910.16
797.874	3022.8
798.062	3030.99
798.25	3592.14
798.438	2985.94
798.626	2957.27
798.814	3381.2
799.002	3850.18
799.19	3307.47
799.378	3137.49
799.566	3653.58
799.755	3696.58
799.943	3231.69
800.131	3082.19
800.318	3340.24
800.506	3387.34
800.694	3090.38
800.882	3096.53
801.07	3796.93
801.258	3418.06
801.446	2983.89
801.634	3035.09
801.822	3272.65
802.01	3213.26
802.197	2949.07
802.385	3026.9
802.573	3309.52
802.761	3110.86
802.949	3162.06
803.136	3129.3
803.324	3694.54
803.512	3430.35
803.699	3147.73
803.887	2797.53
804.075	3745.73
804.262	3305.42
804.45	2977.75
804.638	3196.88
804.825	3153.87
805.013	3350.48
805.201	3157.97
805.388	3104.72
805.576	3321.81
805.763	3749.83
805.951	3147.73
806.138	3362.76
806.326	3868.61
806.513	3497.93
806.701	3149.78
806.888	3114.96
807.075	3547.08
807.263	3755.97
807.45	3117.01
807.638	3399.63
807.825	3930.05
808.012	3776.45
808.2	3268.56
808.387	3499.98
808.574	3516.36
808.761	3911.62
808.949	3080.14
809.136	3172.3
809.323	3321.81
809.51	3540.94
809.698	3530.7
809.885	3522.51
810.072	3565.51
810.259	3827.65
810.446	3219.41
810.633	3112.91
810.82	3956.68
811.008	3913.67
811.195	3438.54
811.382	3254.22
811.569	3620.81
811.756	3297.23
811.943	3401.68
812.13	3209.17
812.317	3542.99
812.504	3518.41
812.691	3434.44
812.878	3534.79
813.064	4032.45
813.251	3575.75
813.438	3336.14
813.625	3444.68
813.812	3540.94
813.999	3590.09
814.186	3456.97
814.372	3393.48
814.559	3717.06
814.746	4126.66
814.933	3399.63
815.12	3555.27
815.306	3497.93
815.493	3373
815.68	3473.35
815.866	3522.51
816.053	3930.05
816.24	4016.07
816.426	3569.61
816.613	3323.85
816.799	3792.84
816.986	3891.14
817.173	3420.11
817.359	3420.11
817.546	3760.07
817.732	3297.23
817.919	3174.35
818.105	3473.35
818.292	3547.08
818.478	3880.9
818.665	3514.31
818.851	3393.48
819.037	4222.91
819.224	3704.78
819.41	3325.9
819.597	3313.61
819.783	3985.35
819.969	3751.88
820.156	3438.54
820.342	3395.53
820.528	4372.41
820.714	3510.22
820.901	3663.82
821.087	3381.2
821.273	4102.08
821.459	3592.14
821.646	3325.9
821.832	3360.72
822.018	3688.39
822.204	3753.93
822.39	3477.45
822.576	3186.64
822.762	3866.56
822.948	3758.02
823.134	3555.27
823.32	3397.58
823.507	3448.78
823.693	3665.86
823.879	3932.1
824.065	3440.59
824.25	3715.02
824.436	3467.21
824.622	3364.81
824.808	3399.63
824.994	3540.94
825.18	3557.32
825.366	3418.06
825.552	3418.06
825.738	3598.28
825.923	3856.33
826.109	3624.9
826.295	3266.51
826.481	3534.79
826.667	3561.42
826.852	3545.03
827.038	3293.13
827.224	3975.11
827.409	4042.69
827.595	3235.79
827.781	3583.95
827.966	3940.29
828.152	3825.61
828.338	3405.77
828.523	3274.7
828.709	3379.15
828.894	3885
829.08	3442.64
829.266	3229.65
829.451	3477.45
829.637	3753.93
829.822	3403.72
830.008	3450.83
830.193	4005.83
830.378	3962.82
830.564	3563.47
830.749	3276.75
830.935	3790.79
831.12	3823.56
831.305	3444.68
831.491	3413.96
831.676	3301.33
831.861	3737.54
832.047	3456.97
832.232	3231.69
832.417	3942.34
832.602	3614.66
832.788	3225.55
832.973	3452.88
833.158	3712.97
833.343	3772.36
833.528	3534.79
833.714	3416.01
833.899	3868.61
834.084	4177.86
834.269	3583.95
834.454	3471.31
834.639	3766.21
834.824	3631.05
835.009	3590.09
835.194	3499.98
835.379	3835.85
835.564	4106.18
835.749	3514.31
835.934	3260.37
836.119	3889.09
836.304	3715.02
836.489	3436.49
836.674	3583.95
836.859	3426.25
837.044	3995.59
837.228	3524.55
837.413	3444.68
837.598	3878.85
837.783	3923.91
837.968	3393.48
838.152	3301.33
838.337	3180.5
838.522	3731.4
838.707	3948.48
838.891	3467.21
839.076	3801.03
839.261	4059.07
839.445	3456.97
839.63	3432.4
839.815	3964.87
839.999	3549.13
840.184	3477.45
840.368	3268.56
840.553	3803.08
840.737	3844.04
840.922	3219.41
841.106	3207.12
841.291	3313.61
841.475	3686.34
841.66	3387.34
841.844	3325.9
842.029	4384.7
842.213	3436.49
842.397	3274.7
842.582	3211.21
842.766	4011.97
842.951	3891.14
843.135	3286.99
843.319	3334.09
843.504	3559.37
843.688	3809.22
843.872	3110.86
844.056	3379.15
844.241	3768.26
844.425	3641.29
844.609	3506.12
844.793	3149.78
844.977	3850.18
845.161	3616.71
845.346	3184.59
845.53	3309.52
845.714	3551.18
845.898	3968.96
846.082	3088.34
846.266	3270.61
846.45	3698.63
846.634	3735.49
846.818	3436.49
847.002	3499.98
847.186	3672.01
847.37	3268.56
847.554	3155.92
847.738	3338.19
847.922	3655.62
848.106	3590.09
848.29	3211.21
848.473	3280.85
848.657	3682.25
848.841	3504.07
849.025	3268.56
849.209	3135.44
849.392	3655.62
849.576	3422.16
849.76	2965.46
849.944	3508.17
850.127	3911.62
850.311	3149.78
850.495	3211.21
850.678	3256.27
850.862	3862.47
851.046	3944.39
851.229	3422.16
851.413	3110.86
851.596	3538.89
851.78	3663.82
851.964	3461.07
852.147	3461.07
852.331	4347.84
852.514	3889.09
852.698	3440.59
852.881	3176.4
853.065	3778.5
853.248	3606.47
853.431	3413.96
853.615	3375.05
853.798	4163.52
853.982	3645.38
854.165	3520.46
854.348	3213.26
854.532	3192.78
854.715	3373
854.898	3375.05
855.081	3393.48
855.265	4038.59
855.448	3971.01
855.631	3106.77
855.814	3235.79
855.997	3766.21
856.181	3477.45
856.364	3270.61
856.547	3049.43
856.73	3661.77
856.913	3561.42
857.096	3352.52
857.279	3368.91
857.462	3334.09
857.645	3805.13
857.828	3256.27
858.011	3325.9
858.194	3399.63
858.377	3602.38
858.56	3043.28
858.743	3233.74
858.926	3225.55
859.109	3735.49
859.292	3106.77
859.475	2998.23
859.658	3841.99
859.841	3655.62
860.023	3061.71
860.206	2949.07
860.389	3438.54
860.572	3809.22
860.755	3241.93
860.937	3106.77
861.12	3389.39
861.303	3401.68
861.486	3284.94
861.668	3276.75
861.851	3633.1
862.034	3583.95
862.216	3323.85
862.399	2861.01
862.581	3663.82
862.764	3753.93
862.947	3213.26
863.129	3121.1
863.312	3114.96
863.494	3817.41
863.677	3446.73
863.859	2967.51
864.042	3534.79
864.224	3682.25
864.406	3340.24
864.589	3061.71
864.771	3379.15
864.954	3264.46
865.136	3106.77
865.318	3033.04
865.501	3456.97
865.683	2969.55
865.865	3065.81
866.048	3035.09
866.23	3567.56
866.412	3321.81
866.594	3104.72
866.777	3180.5
866.959	3463.12
867.141	3239.89
867.323	3438.54
867.505	3207.12
867.687	3282.89
867.869	3409.87
868.052	3157.97
868.234	3076.05
868.416	3446.73
868.598	3555.27
868.78	3117.01
868.962	3026.9
869.144	3690.44
869.326	3612.62
869.508	3088.34
869.69	3108.82
869.872	3295.18
870.054	3626.95
870.236	2916.31
870.417	2910.16
870.599	3215.31
870.781	3745.73
870.963	3168.21
871.145	3119.06
871.327	3049.43
871.508	3514.31
871.69	2953.17
871.872	3131.34
872.054	3364.81
872.235	3342.28
872.417	3248.08
872.599	3014.61
872.78	3786.69
872.962	3340.24
873.144	3035.09
873.325	3211.21
873.507	3747.78
873.689	3422.16
873.87	2971.6
874.052	3346.38
874.233	3280.85
874.415	3598.28
874.596	3235.79
874.778	2957.27
874.959	3454.92
875.141	3624.9
875.322	3170.26
875.503	3106.77
875.685	3553.23
875.866	2936.79
876.048	2990.03
876.229	2959.31
876.41	3379.15
876.592	3581.9
876.773	3186.64
876.954	2940.88
877.136	3743.69
877.317	3311.57
877.498	3100.62
877.679	3135.44
877.86	3481.55
878.042	3330
878.223	3203.02
878.404	3538.89
878.585	3606.47
878.766	3856.33
878.947	3444.68
879.128	3305.42
879.309	3620.81
879.49	3694.54
879.672	3286.99
879.853	3395.53
880.034	3344.33
880.215	3573.71
880.396	3348.43
880.576	3194.83
880.757	3364.81
880.938	3913.67
881.119	3084.24
881.3	3276.75
881.481	3438.54
881.662	4427.71
881.843	3272.65
882.023	3166.16
882.204	3545.03
882.385	3547.08
882.566	3274.7
882.747	3391.44
882.927	3604.42
883.108	3639.24
883.289	3207.12
883.469	3649.48
883.65	3430.35
883.831	3575.75
884.011	3588.04
884.192	3268.56
884.373	3827.65
884.553	3794.89
884.734	3629
884.914	3719.11
885.095	4415.42
885.275	4065.22
885.456	3737.54
885.636	3284.94
885.817	3596.23
885.997	3755.97
886.178	3215.31
886.358	3379.15
886.538	3854.28
886.719	4491.2
886.899	3569.61
887.08	3508.17
887.26	4106.18
887.44	3448.78
887.621	3362.76
887.801	3555.27
887.981	4378.56
888.161	4059.07
888.342	3516.36
888.522	3557.32
888.702	4022.21
888.882	4020.16
889.062	3565.51
889.242	3266.51
889.423	4247.49
889.603	4005.83
889.783	3612.62
889.963	3532.75
890.143	4016.07
890.323	4046.79
890.503	3444.68
890.683	3672.01
890.863	3794.89
891.043	3942.34
891.223	3655.62
891.403	3964.87
891.583	3829.7
891.763	3971.01
891.943	3807.17
892.122	3588.04
892.302	3848.13
892.482	3860.42
892.662	3669.96
892.842	3702.73
893.022	4005.83
893.201	3659.72
893.381	3852.23
893.561	3620.81
893.741	4124.61
893.92	3995.59
894.1	3672.01
894.28	3667.91
894.459	4079.55
894.639	4050.88
894.819	3743.69
894.998	3792.84
895.178	4036.55
895.357	3919.81
895.537	3575.75
895.716	3499.98
895.896	3936.2
896.075	4224.96
896.255	3745.73
896.434	3553.23
896.614	4083.65
896.793	4394.94
896.973	3741.64
897.152	3772.36
897.331	4034.5
897.511	4097.99
897.69	3545.03
897.87	3805.13
898.049	4069.31
898.228	4028.35
898.407	3878.85
898.587	3706.82
898.766	3667.91
898.945	4181.95
899.124	3817.41
899.304	3921.86
899.483	4077.51
899.662	4437.95
899.841	3704.78
900.02	3624.9
900.199	4112.32
900.378	3913.67
900.557	3516.36
900.737	3608.52
900.916	4024.26
901.095	4204.48
901.274	3973.06
901.453	3641.29
901.632	3784.65
901.811	3784.65
901.989	3639.24
902.168	3561.42
902.347	4083.65
902.526	3819.46
902.705	3778.5
902.884	3803.08
903.063	4126.66
903.242	4218.82
903.42	3530.7
903.599	3780.55
903.778	4177.86
903.957	4208.58
904.135	3813.32
904.314	3776.45
904.493	3958.72
904.672	3923.91
904.85	3592.14
905.029	3745.73
905.207	3952.58
905.386	4509.63
905.565	3680.2
905.743	3635.14
905.922	3878.85
906.1	4050.88
906.279	3555.27
906.457	3448.78
906.636	3901.38
906.814	3719.11
906.993	3479.5
907.171	3538.89
907.35	4065.22
907.528	4052.93
907.707	3801.03
907.885	3383.24
908.063	4130.75
908.242	3622.86
908.42	3600.33
908.598	3252.17
908.777	3913.67
908.955	3581.9
909.133	3796.93
909.311	3350.48
909.49	3715.02
909.668	3807.17
909.846	3598.28
910.024	3389.39
910.202	3753.93
910.38	3874.76
910.559	3274.7
910.737	3231.69
910.915	3882.95
911.093	3827.65
911.271	3450.83
911.449	3639.24
911.627	3841.99
911.805	4177.86
911.983	3358.67
912.161	3379.15
912.339	3735.49
912.517	4059.07
912.695	3620.81
912.872	3373
913.05	3510.22
913.228	3807.17
913.406	3305.42
913.584	3297.23
913.762	3885
913.939	3555.27
914.117	3364.81
914.295	3274.7
914.473	3813.32
914.65	3733.45
914.828	3276.75
915.006	3278.8
915.184	3311.57
915.361	3801.03
915.539	3518.41
915.716	3731.4
915.894	3604.42
916.072	3772.36
916.249	3555.27
916.427	3573.71
916.604	3354.57
916.782	3596.23
916.959	3280.85
917.137	3370.96
917.314	3606.47
917.492	3731.4
917.669	3473.35
917.847	3518.41
918.024	3622.86
918.201	3366.86
918.379	3368.91
918.556	3358.67
918.733	3649.48
918.911	3426.25
919.088	3391.44
919.265	3205.07
919.442	3618.76
919.62	3370.96
919.797	3190.74
919.974	3213.26
920.151	3344.33
920.328	3514.31
920.506	2947.03
920.683	3358.67
920.86	3041.23
921.037	3289.04
921.214	3178.45
921.391	3108.82
921.568	3649.48
921.745	3139.54
921.922	3139.54
922.099	2981.84
922.276	3508.17
922.453	3471.31
922.63	3010.51
922.807	3346.38
922.984	3426.25
923.161	3088.34
923.338	2998.23
923.514	2953.17
923.691	3348.43
923.868	3321.81
924.045	3016.66
924.222	2934.74
924.399	3303.37
924.575	3522.51
924.752	2904.02
924.929	3270.61
925.105	3416.01
925.282	2867.16
925.459	2936.79
925.635	2963.41
925.812	3243.98
925.989	3166.16
926.165	3080.14
926.342	2648.02
926.518	2895.83
926.695	3112.91
926.871	2815.96
927.048	2709.46
927.224	3223.5
927.401	2959.31
927.577	2916.31
927.754	2777.05
927.93	3305.42
928.107	3074
928.283	2633.69
928.459	2963.41
928.636	3153.87
928.812	2867.16
928.988	2656.22
929.165	2541.53
929.341	2998.23
929.517	2949.07
929.693	3088.34
929.87	2482.14
930.046	3106.77
930.222	2754.52
930.398	2578.39
930.574	2582.49
930.751	2869.2
930.927	2664.41
931.103	2756.57
931.279	2670.55
931.455	2564.06
931.631	2975.7
931.807	2457.56
931.983	2539.48
932.159	2486.23
932.335	2867.16
932.511	2611.16
932.687	2600.92
932.863	2840.53
933.039	2748.37
933.215	2428.89
933.391	2318.3
933.566	2674.65
933.742	2695.13
933.918	2375.64
934.094	2185.18
934.27	2682.84
934.445	2682.84
934.621	2412.51
934.797	2342.88
934.973	2922.45
935.148	2471.9
935.324	2195.42
935.5	1980.39
935.675	2629.59
935.851	2486.23
936.027	2226.14
936.202	2269.15
936.378	2412.51
936.553	2310.11
936.729	2377.69
936.904	1898.47
937.08	1900.51
937.255	2035.68
937.431	1910.75
937.606	1712.1
937.782	2023.39
937.957	2287.58
938.133	1826.79
938.308	1744.87
938.483	2035.68
938.659	1810.4
938.834	1755.11
939.009	1673.19
939.185	2058.21
939.36	1652.71
939.535	1372.14
939.71	1646.57
939.886	2056.16
940.061	1837.03
940.236	1781.73
940.411	1576.94
940.586	1947.62
940.761	1951.71
940.937	1517.54
941.112	1464.3
941.287	1767.4
941.462	1708.01
941.637	1183.73
941.812	1417.19
941.987	1708.01
942.162	1515.5
942.337	1538.02
942.512	1314.8
942.687	1830.88
942.862	1710.05
943.037	1191.92
943.212	991.22
943.386	1376.23
943.561	1503.21
943.736	1380.33
943.911	1572.84
944.086	1675.24
944.26	1613.8
944.435	1212.4
944.61	1443.82
944.785	1794.02
944.959	2045.92
945.134	1329.13
945.309	1198.06
945.483	1341.42
945.658	1767.4
945.833	991.22
946.007	1081.33
946.182	1791.97
946.357	1175.53
946.531	1204.21
946.706	1091.57
946.88	1222.64
947.055	1542.12
947.229	1159.15
947.404	1161.2
947.578	1660.9
947.752	1327.08
947.927	1146.86
948.101	1038.32
948.276	1492.97
948.45	1472.49
948.624	1419.24
948.799	1247.21
948.973	1533.93
949.147	1210.35
949.321	1298.41
949.496	1210.35
949.67	1687.53
949.844	1363.95
950.018	1335.28
950.193	1187.82
950.367	2072.54
950.541	1441.77
950.715	1277.93
950.889	1427.43
951.063	1417.19
951.237	1802.21
951.411	1083.38
951.585	1040.37
951.759	1535.98
951.933	1554.41
952.107	1232.88
952.281	1341.42
952.455	1857.51
952.629	1638.37
952.803	1232.88
952.977	1120.24
953.151	1544.17
953.325	1599.46
953.499	1380.33
953.672	1185.77
953.846	1335.28
954.02	1419.24
954.194	1173.49
954.368	1177.58
954.541	1589.22
954.715	1277.93
954.889	1325.04
955.062	1177.58
955.236	1411.05
955.41	1253.36
955.583	1466.35
955.757	1042.42
955.93	1490.92
956.104	1234.93
956.278	1191.92
956.451	1216.49
956.625	1400.81
956.798	1927.14
956.972	1513.45
957.145	1132.53
957.319	1376.23
957.492	1314.8
957.665	1339.37
957.839	1114.09
958.012	1593.32
958.185	1216.49
958.359	1193.97
958.532	1386.47
958.705	1507.3
958.879	1466.35
959.052	1294.32
959.225	1003.5
959.398	1497.07
959.572	1423.34
959.745	1218.54
959.918	1253.36
960.091	1351.66
960.264	1499.11
960.438	1118.19
960.611	1116.14
960.784	1648.61
960.957	1255.4
961.13	1527.78
961.303	1245.16
961.476	1337.32
961.649	1566.7
961.822	1112.05
961.995	1193.97
962.168	1562.6
962.341	1441.77
962.514	1116.14
962.686	1155.05
962.859	1423.34
963.032	1540.07
963.205	1179.63
963.378	1015.79
963.551	1464.3
963.723	1454.06
963.896	1236.97
964.069	1296.36
964.242	1429.48
964.414	1658.85
964.587	1167.34
964.76	1355.76
964.932	1466.35
965.105	1417.19
965.278	1132.53
965.45	1075.18
965.623	1488.87
965.795	1562.6
965.968	1146.86
966.14	1196.01
966.313	1409
966.485	1378.28
966.658	1179.63
966.83	1198.06
967.003	1628.14
967.175	1589.22
967.348	1036.27
967.52	1181.68
967.692	1712.1
967.865	1665
968.037	1224.69
968.209	1421.29
968.382	1470.44
968.554	1556.46
968.726	1208.3
968.898	1064.94
969.071	1458.15
969.243	1456.11
969.415	1261.55
969.587	1292.27
969.759	1714.15
969.932	1624.04
970.104	1222.64
970.276	901.11
970.448	1286.12
970.62	1261.55
970.792	1265.64
970.964	1249.26
971.136	1880.04
971.308	1394.67
971.48	1153.01
971.652	1126.38
971.824	1773.54
971.996	1196.01
972.168	1216.49
972.339	1189.87
972.511	1617.9
972.683	1310.7
972.855	1312.75
973.027	1228.78
973.199	1224.69
973.37	1454.06
973.542	1200.11
973.714	1253.36
973.886	1314.8
974.057	1521.64
974.229	1066.99
974.401	1017.84
974.572	1107.95
974.744	956.4
974.915	944.11
975.087	1060.85
975.259	1665
975.43	1236.97
975.602	1079.28
975.773	937.97
975.945	1134.57
976.116	1429.48
976.288	1060.85
976.459	1181.68
976.63	1212.4
976.802	1443.82
976.973	1028.08
977.145	1228.78
977.316	1855.46
977.487	1583.08
977.659	1253.36
977.83	1128.43
978.001	1624.04
978.172	1286.12
978.344	1005.55
978.515	1011.7
978.686	1155.05
978.857	1695.72
979.028	1050.61
979.2	929.78
979.371	1558.5
979.542	1269.74
979.713	1220.59
979.884	649.21
980.055	1081.33
980.226	1230.83
980.397	968.69
980.568	854
980.739	1523.69
980.91	1228.78
981.081	1290.22
981.252	944.11
981.423	1343.47
981.594	1390.57
981.765	919.54
981.936	1034.22
982.106	1191.92
982.277	1533.93
982.448	1062.9
982.619	1257.45
982.79	1116.14
982.96	1525.74
983.131	1208.3
983.302	833.52
983.472	1165.29
983.643	1341.42
983.814	1134.57
983.984	909.3
984.155	1150.96
984.326	1355.76
984.496	1099.76
984.667	970.74
984.837	1013.74
985.008	1417.19
985.178	1171.44
985.349	1069.04
985.519	1097.71
985.69	1079.28
985.86	931.83
986.031	884.72
986.201	1257.45
986.371	1292.27
986.542	780.28
986.712	892.91
986.882	1298.41
987.053	1368.04
987.223	874.48
987.393	1097.71
987.563	1015.79
987.734	1351.66
987.904	1150.96
988.074	937.97
988.244	1212.4
988.414	915.44
988.585	858.1
988.755	1017.84
988.925	1114.09
989.095	1501.16
989.265	878.58
989.435	911.35
989.605	1284.08
989.775	1343.47
989.945	1247.21
990.115	837.62
990.285	1079.28
990.455	1089.52
990.625	890.87
990.795	841.72
990.965	1523.69
991.134	942.07
991.304	813.04
991.474	774.13
991.644	1267.69
991.814	1431.53
991.984	759.8
992.153	798.71
992.323	1042.42
992.493	1138.67
992.662	665.59
992.832	1023.98
993.002	1183.73
993.171	1173.49
993.341	651.25
993.511	917.49
993.68	966.64
993.85	1155.05
994.019	706.55
994.189	720.88
994.358	1134.57
994.528	974.83
994.697	536.57
994.867	712.69
995.036	1189.87
995.206	911.35
995.375	684.02
995.544	892.91
995.714	1032.18
995.883	1015.79
996.052	856.05
996.222	507.9
996.391	1609.7
996.56	1148.91
996.73	706.55
996.899	641.01
997.068	1431.53
997.237	1056.75
997.406	657.4
997.576	620.53
997.745	1040.37
997.914	1097.71
998.083	526.33
998.252	731.12
998.421	1036.27
998.59	819.19
998.759	696.31
998.928	593.91
999.097	1228.78
999.266	1124.33
999.435	968.69
999.604	462.84
999.773	1417.19
999.942	974.83
1000.111	497.66
1000.28	475.13
1000.448	743.41
1000.617	679.93
1000.786	868.34
1000.955	612.34
1001.124	1040.37
1001.292	1525.74
1001.461	634.87
1001.63	577.53
1001.798	1318.89
1001.967	1265.64
1002.136	573.43
1002.304	581.62
1002.473	980.98
1002.642	1050.61
1002.81	675.83
1002.979	649.21
1003.147	1118.19
1003.316	1462.25
1003.484	589.81
1003.653	530.42
1003.821	1187.82
1003.99	800.76
1004.158	727.03
1004.327	677.88
1004.495	1110
1004.663	724.98
1004.832	690.17
1005	466.94
1005.168	1064.94
1005.337	997.36
1005.505	395.26
1005.673	763.89
1005.842	985.07
1006.01	929.78
1006.178	462.84
1006.346	540.66
1006.514	925.68
1006.683	1146.86
1006.851	561.14
1007.019	364.54
1007.187	659.45
1007.355	419.83
1007.523	335.87
1007.691	378.87
1007.859	497.66
1008.027	1208.3
1008.195	497.66
1008.363	428.03
1008.531	1017.84
1008.699	681.97
1008.867	348.15
1009.035	354.3
1009.203	1171.44
1009.37	745.46
1009.538	548.86
1009.706	1021.94
1009.874	851.95
1010.042	825.33
1010.209	344.06
1010.377	366.59
1010.545	1019.89
1010.713	700.41
1010.88	452.6
1011.048	442.36
1011.216	739.32
1011.383	1134.57
1011.551	477.18
1011.718	348.15
1011.886	1157.1
1012.054	800.76
1012.221	407.55
1012.389	446.46
1012.556	749.56
1012.724	1183.73
1012.891	557.05
1013.058	278.52
1013.226	999.41
1013.393	1054.7
1013.561	237.56
1013.728	245.76
1013.895	1040.37
1014.063	864.24
1014.23	342.01
1014.397	376.83
1014.565	911.35
1014.732	677.88
1014.899	323.58
1015.066	215.04
1015.233	868.34
1015.401	929.78
1015.568	428.03
1015.735	585.72
1015.902	831.48
1016.069	843.76
1016.236	401.4
1016.403	313.34
1016.57	591.86
1016.737	983.02
1016.904	428.03
1017.071	280.57
1017.238	561.14
1017.405	976.88
1017.572	360.44
1017.739	593.91
1017.906	837.62
1018.073	921.59
1018.24	274.43
1018.407	499.7
1018.573	948.21
1018.74	667.64
1018.907	397.31
1019.074	204.8
1019.241	976.88
1019.407	772.08
1019.574	243.71
1019.741	239.61
1019.907	778.23
1020.074	817.14
1020.241	79.87
1020.407	284.67
1020.574	772.08
1020.74	778.23
1020.907	264.19
1021.073	219.13
1021.24	1155.05
1021.406	1005.55
1021.573	272.38
1021.739	303.1
1021.906	880.63
1022.072	714.74
1022.239	368.63
1022.405	280.57
1022.571	659.45
1022.738	393.21
1022.904	241.66
1023.07	307.2
1023.237	731.12
1023.403	864.24
1023.569	262.14
1023.735	235.52
1023.902	677.88
1024.068	729.08
1024.234	180.22
1024.4	264.19
1024.566	720.88
1024.732	811
1024.898	309.24
1025.065	106.49
1025.231	849.91
1025.397	536.57
1025.563	247.8
1025.729	184.32
1025.895	245.76
1026.061	450.55
1026.227	106.49
1026.392	262.14
1026.558	780.28
1026.724	696.31
1026.89	229.37
1027.056	335.87
1027.222	659.45
1027.388	499.7
1027.553	215.04
1027.719	122.88
1027.885	952.31
1028.051	684.02
1028.216	26.62
1028.382	327.67
1028.548	837.62
1028.713	468.98
1028.879	147.45
1029.045	276.48
1029.21	909.3
1029.376	796.66
1029.541	229.37
1029.707	231.42
1029.873	677.88
1030.038	710.65
1030.204	262.14
1030.369	174.08
1030.534	698.36
1030.7	516.09
1030.865	294.91
1031.031	167.93
1031.196	675.83
1031.361	624.63
1031.527	75.77
1031.692	163.84
1031.857	135.17
1032.023	671.73
1032.188	77.82
1032.353	245.76
1032.518	915.44
1032.684	548.86
1032.849	8.19
1033.014	163.84
1033.179	714.74
1033.344	722.93
1033.509	241.66
1033.674	126.97
1033.839	741.36
1034.004	659.45
1034.17	208.89
1034.335	92.16
1034.5	460.79
1034.664	364.54
1034.829	139.26
1034.994	165.89
1035.159	526.33
1035.324	583.67
1035.489	157.69
1035.654	28.67
1035.819	929.78
1035.984	614.39
1036.148	180.22
1036.313	159.74
1036.478	788.47
1036.643	446.46
1036.807	176.13
1036.972	-8.19
1037.137	868.34
1037.301	542.71
1037.466	-102.4
1037.631	215.04
1037.795	720.88
1037.96	595.96
1038.124	278.52
1038.289	16.38
1038.454	620.53
1038.618	696.31
1038.783	106.49
1038.947	210.94
1039.111	501.75
1039.276	401.4
1039.44	143.36
1039.605	493.56
1039.769	356.35
1039.933	464.89
1040.098	249.85
1040.262	311.29
1040.426	716.79
1040.591	606.2
1040.755	-8.19
1040.919	81.92
1041.083	579.58
1041.248	405.5
1041.412	-65.54
1041.576	8.19
1041.74	370.68
1041.904	686.07
1042.068	-6.14
1042.232	219.13
1042.397	651.25
1042.561	495.61
1042.725	-20.48
1042.889	292.86
1043.053	546.81
1043.217	567.29
1043.381	90.11
1043.544	-53.25
1043.708	743.41
1043.872	212.99
1044.036	-169.98
1044.2	-96.25
1044.364	761.84
1044.528	802.8
1044.691	1527.78
1044.855	-28.67
1045.019	667.64
1045.183	481.27
1045.346	106.49
1045.51	6.14
1045.674	567.29
1045.837	604.15
1046.001	104.45
1046.165	0
1046.328	950.26
1046.492	546.81
1046.655	212.99
1046.819	43.01
1046.983	339.96
1047.146	485.37
1047.31	18.43
1047.473	-149.5
1047.636	511.99
1047.8	196.6
1047.963	100.35
1048.127	-22.53
1048.29	251.9
