Data from Ink_Intensity_USB4F045381__154__00154.txt Node

Date: Mon Jul 17 11:29:28 EDT 2023
User: mmckonesweet
Spectrometer: USB4F04538
Trigger mode: 4
Integration Time (sec): 9.000000E-1
Scans to average: 1
Electric dark correction enabled: true
Nonlinearity correction enabled: false
Boxcar width: 0
XAxis mode: Wavelengths
Number of Pixels in Spectrum: 3648
>>>>>Begin Spectral Data<<<<<
345.52	-1040.2
345.736	-1040.2
345.952	-1040.2
346.168	-1003.33
346.384	-1077.06
346.6	-110.42
346.816	-255.83
347.032	-204.63
347.248	299.17
347.464	-175.95
347.68	-155.47
347.896	100.52
348.112	321.7
348.328	-106.32
348.544	-61.27
348.76	102.57
348.975	245.93
349.191	-208.72
349.407	-196.43
349.623	39.08
349.839	-57.17
350.055	-141.14
350.27	45.23
350.486	92.33
350.702	340.13
350.918	264.36
351.133	-155.47
351.349	164.01
351.565	336.04
351.781	-276.31
351.996	45.23
352.212	231.59
352.428	-237.39
352.644	-247.63
352.859	-212.82
353.075	235.69
353.291	104.62
353.506	-145.24
353.722	-200.53
353.938	-94.04
354.153	444.58
354.369	114.86
354.584	-214.87
354.8	200.87
355.016	-407.38
355.231	-241.49
355.447	-112.47
355.662	12.46
355.878	823.45
356.093	-339.79
356.309	-155.47
356.524	-255.83
356.74	301.22
356.955	-208.72
357.171	-22.36
357.386	145.58
357.602	-233.3
357.817	-79.7
358.033	-184.15
358.248	327.85
358.464	223.4
358.679	-225.11
358.895	-327.5
359.11	-28.5
359.325	233.64
359.541	61.61
359.756	-18.26
359.972	-233.3
360.187	198.82
360.402	-214.87
360.618	-151.38
360.833	913.56
361.048	39.08
361.264	-91.99
361.479	-40.79
361.694	-26.45
361.909	133.29
362.125	-188.24
362.34	-118.61
362.555	209.06
362.77	61.61
362.986	-235.35
363.201	-116.56
363.416	143.53
363.631	114.86
363.847	-221.01
364.062	-139.09
364.277	164.01
364.492	90.28
364.707	-159.57
364.922	-403.28
365.138	204.97
365.353	315.56
365.568	-241.49
365.783	-151.38
365.998	73.9
366.213	536.74
366.428	-278.35
366.643	127.14
366.858	252.07
367.073	194.73
367.288	-106.32
367.503	-270.16
367.718	143.53
367.933	192.68
368.148	-180.05
368.363	-81.75
368.578	-73.56
368.793	481.44
369.008	-141.14
369.223	-249.68
369.438	178.34
369.653	415.91
369.868	-321.36
370.083	-229.2
370.298	172.2
370.513	424.1
370.728	41.13
370.943	-237.39
371.157	-184.15
371.372	577.7
371.587	-241.49
371.802	-280.4
372.017	73.9
372.232	456.87
372.446	-130.9
372.661	-249.68
372.876	235.69
373.091	192.68
373.306	-128.85
373.52	-317.26
373.735	-108.37
373.95	368.81
374.165	-167.76
374.379	-151.38
374.594	-71.51
374.809	65.71
375.023	47.27
375.238	-192.34
375.453	233.64
375.667	-198.48
375.882	-108.37
376.097	-216.91
376.311	77.99
376.526	14.51
376.741	-120.66
376.955	71.85
377.17	510.11
377.384	495.78
377.599	-210.77
377.813	-290.64
378.028	555.17
378.242	184.49
378.457	-141.14
378.672	-386.9
378.886	102.57
379.101	-110.42
379.315	-335.7
379.53	-188.24
379.744	200.87
379.958	106.67
380.173	-216.91
380.387	-188.24
380.602	102.57
380.816	-137.04
381.031	-204.63
381.245	-178
381.459	288.93
381.674	809.12
381.888	-171.86
382.103	47.27
382.317	-149.33
382.531	485.54
382.746	-175.95
382.96	-204.63
383.174	-155.47
383.388	370.85
383.603	30.89
383.817	-327.5
384.031	182.44
384.246	409.76
384.46	6.31
384.674	307.37
384.888	-36.69
385.103	65.71
385.317	-323.41
385.531	-34.64
385.745	323.75
385.959	303.27
386.174	-221.01
386.388	-280.4
386.602	-24.4
386.816	-175.95
387.03	-24.4
387.244	-120.66
387.458	45.23
387.672	389.28
387.887	-286.54
388.101	-329.55
388.315	440.48
388.529	164.01
388.743	-198.48
388.957	-237.39
389.171	350.37
389.385	-116.56
389.599	-73.56
389.813	71.85
390.027	209.06
390.241	645.28
390.455	-171.86
390.669	-143.19
390.883	-55.12
391.097	346.28
391.311	53.42
391.525	-147.28
391.738	168.1
391.952	202.92
392.166	-28.5
392.38	-130.9
392.594	219.3
392.808	327.85
393.022	-89.94
393.236	-130.9
393.449	272.55
393.663	127.14
393.877	-194.39
394.091	-116.56
394.305	-48.98
394.518	-69.46
394.732	-255.83
394.946	-89.94
395.16	434.34
395.373	57.51
395.587	-251.73
395.801	-286.54
396.015	268.45
396.228	245.93
396.442	-276.31
396.656	-327.5
396.869	295.08
397.083	379.04
397.297	-61.27
397.51	-194.39
397.724	348.33
397.938	200.87
398.151	-298.83
398.365	-202.58
398.578	155.82
398.792	381.09
399.005	-44.88
399.219	-65.36
399.433	135.34
399.646	192.68
399.86	-81.75
400.073	45.23
400.287	202.92
400.5	-10.07
400.714	-63.32
400.927	-61.27
401.141	159.91
401.354	1112.22
401.567	209.06
401.781	-229.2
401.994	290.98
402.208	569.51
402.421	-120.66
402.635	-98.13
402.848	28.84
403.061	243.88
403.275	-98.13
403.488	-202.58
403.701	450.72
403.915	272.55
404.128	26.79
404.341	-223.06
404.555	116.9
404.768	22.7
404.981	0.17
405.195	-175.95
405.408	479.4
405.621	194.73
405.834	-104.28
406.048	-180.05
406.261	438.44
406.474	489.64
406.687	-141.14
406.9	-8.02
407.114	12.46
407.327	184.49
407.54	-290.64
407.753	-278.35
407.966	-100.18
408.179	192.68
408.392	-188.24
408.605	-370.51
408.819	137.38
409.032	264.36
409.245	-167.76
409.458	-26.45
409.671	204.97
409.884	223.4
410.097	-278.35
410.31	24.75
410.523	213.16
410.736	-61.27
410.949	-77.65
411.162	-171.86
411.375	389.28
411.588	340.13
411.801	164.01
412.014	-87.89
412.227	73.9
412.44	-75.6
412.653	-192.34
412.865	-12.12
413.078	266.41
413.291	143.53
413.504	-71.51
413.717	-239.44
413.93	252.07
414.143	-147.28
414.356	-184.15
414.568	-276.31
414.781	278.69
414.994	141.48
415.207	-180.05
415.42	-96.08
415.632	235.69
415.845	438.44
416.058	-370.51
416.271	-208.72
416.483	0.17
416.696	538.79
416.909	-190.29
417.121	-239.44
417.334	188.58
417.547	522.4
417.759	-161.62
417.972	-255.83
418.185	16.55
418.397	307.37
418.61	-204.63
418.823	-190.29
419.035	446.63
419.248	131.24
419.46	-151.38
419.673	-75.6
419.885	209.06
420.098	12.46
420.311	-216.91
420.523	-409.42
420.736	235.69
420.948	22.7
421.161	-198.48
421.373	-403.28
421.586	123.05
421.798	-42.84
422.01	-360.27
422.223	-28.5
422.435	-98.13
422.648	151.72
422.86	-210.77
423.073	-208.72
423.285	352.42
423.497	-257.87
423.71	-225.11
423.922	-307.02
424.134	37.03
424.347	301.22
424.559	-1.88
424.771	-10.07
424.984	0.17
425.196	196.78
425.408	-345.94
425.621	-307.02
425.833	266.41
426.045	372.9
426.257	-319.31
426.47	-229.2
426.682	121
426.894	168.1
427.106	-163.67
427.318	-169.81
427.531	-161.62
427.743	192.68
427.955	-237.39
428.167	282.79
428.379	180.39
428.591	47.27
428.804	-126.8
429.016	-180.05
429.228	-114.52
429.44	108.71
429.652	-48.98
429.864	-270.16
430.076	-57.17
430.288	43.18
430.5	-51.03
430.712	-85.84
430.924	260.26
431.136	53.42
431.348	-364.37
431.56	-249.68
431.772	0.17
431.984	-67.41
432.196	-247.63
432.408	-171.86
432.62	20.65
432.832	174.25
433.044	-48.98
433.256	-55.12
433.468	164.01
433.679	-296.78
433.891	-272.21
434.103	12.46
434.315	313.51
434.527	213.16
434.739	-135
434.95	-114.52
435.162	223.4
435.374	-96.08
435.586	-143.19
435.798	-210.77
436.009	-192.34
436.221	-36.69
436.433	-196.43
436.645	-126.8
436.856	-44.88
437.068	293.03
437.28	-261.97
437.491	37.03
437.703	123.05
437.915	69.8
438.126	-94.04
438.338	-8.02
438.55	125.1
438.761	204.97
438.973	-155.47
439.184	-116.56
439.396	4.27
439.608	266.41
439.819	-225.11
440.031	-126.8
440.242	252.07
440.454	149.67
440.665	-149.33
440.877	-69.46
441.088	196.78
441.3	8.36
441.511	-309.07
441.723	-196.43
441.934	170.15
442.146	86.19
442.357	-104.28
442.569	147.62
442.78	82.09
442.991	436.39
443.203	37.03
443.414	-347.98
443.626	389.28
443.837	-44.88
444.048	-192.34
444.26	-317.26
444.471	125.1
444.682	219.3
444.894	-354.13
445.105	-296.78
445.316	321.7
445.528	290.98
445.739	-67.41
445.95	-175.95
446.161	116.9
446.373	387.24
446.584	-208.72
446.795	-165.71
447.006	155.82
447.217	434.34
447.429	-302.93
447.64	-245.59
447.851	385.19
448.062	37.03
448.273	-302.93
448.484	-161.62
448.695	245.93
448.907	-3.93
449.118	-159.57
449.329	30.89
449.54	-100.18
449.751	-182.1
449.962	-194.39
450.173	-175.95
450.384	368.81
450.595	403.62
450.806	-276.31
451.017	-141.14
451.228	313.51
451.439	295.08
451.65	-122.71
451.861	-319.31
452.072	-143.19
452.283	12.46
452.494	0.17
452.705	-229.2
452.915	540.83
453.126	129.19
453.337	-110.42
453.548	-300.88
453.759	305.32
453.97	549.03
454.181	82.09
454.391	-184.15
454.602	143.53
454.813	250.02
455.024	-169.81
455.235	-237.39
455.445	47.27
455.656	151.72
455.867	-44.88
456.078	-200.53
456.288	-8.02
456.499	155.82
456.71	-315.22
456.921	32.94
457.131	211.11
457.342	45.23
457.553	-102.23
457.763	-255.83
457.974	299.17
458.184	254.12
458.395	-309.07
458.606	-286.54
458.816	303.27
459.027	516.26
459.237	-139.09
459.448	-436.05
459.659	340.13
459.869	612.51
460.08	-364.37
460.29	-20.31
460.501	471.2
460.711	-40.79
460.922	-372.56
461.132	-188.24
461.343	704.67
461.553	-253.78
461.764	-261.97
461.974	-206.67
462.184	348.33
462.395	127.14
462.605	-126.8
462.816	-227.15
463.026	217.26
463.236	307.37
463.447	-241.49
463.657	-192.34
463.867	250.02
464.078	6.31
464.288	-204.63
464.498	-200.53
464.709	90.28
464.919	32.94
465.129	-132.95
465.339	-221.01
465.55	198.82
465.76	237.74
465.97	-251.73
466.18	-251.73
466.391	211.11
466.601	164.01
466.811	-69.46
467.021	-257.87
467.231	131.24
467.441	305.32
467.651	-135
467.862	-413.52
468.072	135.34
468.282	399.52
468.492	-208.72
468.702	-225.11
468.912	34.99
469.122	600.23
469.332	137.38
469.542	-278.35
469.752	237.74
469.962	75.95
470.172	-307.02
470.382	-311.12
470.592	155.82
470.802	325.8
471.012	-163.67
471.222	-257.87
471.432	307.37
471.642	200.87
471.852	-180.05
472.062	-231.25
472.272	-20.31
472.482	-241.49
472.691	-298.83
472.901	-257.87
473.111	151.72
473.321	497.83
473.531	-354.13
473.741	-157.52
473.95	194.73
474.16	135.34
474.37	-137.04
474.58	-282.45
474.79	491.68
474.999	331.94
475.209	-274.26
475.419	-171.86
475.628	-10.07
475.838	278.69
476.048	-192.34
476.258	-323.41
476.467	272.55
476.677	-79.7
476.886	-73.56
477.096	-159.57
477.306	-71.51
477.515	377
477.725	-155.47
477.935	-87.89
478.144	389.28
478.354	28.84
478.563	-284.5
478.773	-255.83
478.982	209.06
479.192	352.42
479.401	-110.42
479.611	-280.4
479.82	-155.47
480.03	-42.84
480.239	-298.83
480.449	-311.12
480.658	442.53
480.868	-118.61
481.077	-100.18
481.287	-255.83
481.496	225.45
481.705	372.9
481.915	-36.69
482.124	8.36
482.333	114.86
482.543	483.49
482.752	-139.09
482.961	-245.59
483.171	258.21
483.38	32.94
483.589	-108.37
483.799	-347.98
484.008	0.17
484.217	198.82
484.426	-200.53
484.636	-323.41
484.845	112.81
485.054	-249.68
485.263	69.8
485.472	-200.53
485.682	438.44
485.891	209.06
486.1	-380.75
486.309	-288.59
486.518	170.15
486.727	374.95
486.936	-221.01
487.146	-102.23
487.355	381.09
487.564	-206.67
487.773	-122.71
487.982	-184.15
488.191	-53.08
488.4	-36.69
488.609	-231.25
488.818	-145.24
489.027	618.66
489.236	299.17
489.445	-192.34
489.654	-255.83
489.863	286.89
490.072	73.9
490.281	71.85
490.49	-257.87
490.698	387.24
490.907	411.81
491.116	-175.95
491.325	-307.02
491.534	377
491.743	172.2
491.952	-71.51
492.16	-184.15
492.369	192.68
492.578	235.69
492.787	-139.09
492.996	-360.27
493.204	-67.41
493.413	538.79
493.622	-427.85
493.831	-358.22
494.039	356.52
494.248	-180.05
494.457	-122.71
494.665	-343.89
494.874	221.35
495.083	475.3
495.291	-208.72
495.5	-253.78
495.709	250.02
495.917	96.43
496.126	-73.56
496.335	-288.59
496.543	18.6
496.752	225.45
496.96	80.04
497.169	-329.55
497.377	39.08
497.586	323.75
497.794	-114.52
498.003	-347.98
498.211	34.99
498.42	493.73
498.628	-98.13
498.837	-307.02
499.045	184.49
499.254	159.91
499.462	-278.35
499.671	-184.15
499.879	438.44
500.087	352.42
500.296	-223.06
500.504	-239.44
500.713	219.3
500.921	452.77
501.129	-245.59
501.338	-132.95
501.546	188.58
501.754	127.14
501.962	-243.54
502.171	-282.45
502.379	200.87
502.587	520.35
502.795	-163.67
503.004	-157.52
503.212	96.43
503.42	243.88
503.628	-257.87
503.837	-132.95
504.045	200.87
504.253	454.82
504.461	-270.16
504.669	-356.18
504.877	188.58
505.085	411.81
505.294	-390.99
505.502	-48.98
505.71	139.43
505.918	180.39
506.126	-298.83
506.334	-182.1
506.542	-18.26
506.75	178.34
506.958	-175.95
507.166	-180.05
507.374	-44.88
507.582	471.2
507.79	-135
507.998	-354.13
508.206	123.05
508.414	151.72
508.622	-286.54
508.83	-161.62
509.037	438.44
509.245	0.17
509.453	-325.46
509.661	-216.91
509.869	178.34
510.077	57.51
510.285	-36.69
510.492	-421.71
510.7	643.23
510.908	16.55
511.116	-182.1
511.324	-286.54
511.531	-51.03
511.739	178.34
511.947	-126.8
512.155	28.84
512.362	123.05
512.57	-204.63
512.778	-302.93
512.985	-382.8
513.193	295.08
513.401	448.68
513.608	-132.95
513.816	-206.67
514.024	250.02
514.231	362.66
514.439	-247.63
514.646	-298.83
514.854	250.02
515.061	319.65
515.269	-264.02
515.477	-167.76
515.684	-208.72
515.892	266.41
516.099	-339.79
516.307	-358.22
516.514	221.35
516.722	471.2
516.929	-233.3
517.136	-323.41
517.344	422.05
517.551	129.19
517.759	-196.43
517.966	-192.34
518.173	14.51
518.381	18.6
518.588	-122.71
518.796	-257.87
519.003	317.61
519.21	73.9
519.418	-259.92
519.625	-85.84
519.832	92.33
520.039	178.34
520.247	-288.59
520.454	-272.21
520.661	311.46
520.868	194.73
521.076	-200.53
521.283	-110.42
521.49	657.57
521.697	127.14
521.904	-137.04
522.112	-229.2
522.319	305.32
522.526	198.82
522.733	-274.26
522.94	-270.16
523.147	141.48
523.354	358.57
523.561	-333.65
523.768	-106.32
523.975	278.69
524.183	80.04
524.39	-151.38
524.597	-282.45
524.804	84.14
525.011	-182.1
525.218	-233.3
525.425	-233.3
525.632	366.76
525.838	-36.69
526.045	-218.96
526.252	-235.35
526.459	1159.32
526.666	868.51
526.873	-282.45
527.08	-266.07
527.287	413.86
527.494	268.45
527.701	-331.6
527.907	-274.26
528.114	270.5
528.321	73.9
528.528	-173.91
528.735	-274.26
528.941	-32.6
529.148	-3.93
529.355	-151.38
529.562	-155.47
529.768	544.93
529.975	-53.08
530.182	-202.58
530.388	-272.21
530.595	250.02
530.802	-196.43
531.008	-85.84
531.215	-304.98
531.422	454.82
531.628	833.69
531.835	-135
532.042	-169.81
532.248	-28.5
532.455	145.58
532.661	-184.15
532.868	-249.68
533.074	161.96
533.281	260.26
533.487	-85.84
533.694	-251.73
533.9	-171.86
534.107	233.64
534.313	-270.16
534.52	-304.98
534.726	313.51
534.933	508.07
535.139	-286.54
535.345	-329.55
535.552	137.38
535.758	108.71
535.965	-171.86
536.171	-204.63
536.377	229.54
536.584	344.23
536.79	-221.01
536.996	-167.76
537.203	22.7
537.409	204.97
537.615	-237.39
537.821	-77.65
538.028	272.55
538.234	245.93
538.44	-223.06
538.646	-118.61
538.853	188.58
539.059	57.51
539.265	45.23
539.471	-419.66
539.677	352.42
539.883	22.7
540.09	-235.35
540.296	282.79
540.502	43.18
540.708	-114.52
540.914	-79.7
541.12	-241.49
541.326	176.3
541.532	20.65
541.738	-145.24
541.944	-239.44
542.15	270.5
542.356	22.7
542.562	-280.4
542.768	-147.28
542.974	669.86
543.18	606.37
543.386	-212.82
543.592	-380.75
543.798	372.9
544.004	383.14
544.21	-261.97
544.415	-89.94
544.621	118.95
544.827	424.1
545.033	-286.54
545.239	12.46
545.445	-171.86
545.651	135.34
545.856	-200.53
546.062	-147.28
546.268	-85.84
546.474	164.01
546.679	-186.19
546.885	-208.72
547.091	-38.74
547.297	608.42
547.502	-57.17
547.708	-239.44
547.914	-94.04
548.119	290.98
548.325	-264.02
548.531	-323.41
548.736	465.06
548.942	-89.94
549.147	-241.49
549.353	-48.98
549.559	311.46
549.764	159.91
549.97	-163.67
550.175	-237.39
550.381	237.74
550.586	-10.07
550.792	-128.85
550.997	-157.52
551.203	227.5
551.408	243.88
551.614	-233.3
551.819	-266.07
552.025	454.82
552.23	530.59
552.435	-325.46
552.641	-94.04
552.846	-73.56
553.052	299.17
553.257	-71.51
553.462	-200.53
553.668	-71.51
553.873	299.17
554.078	-196.43
554.283	-276.31
554.489	182.44
554.694	86.19
554.899	-296.78
555.105	6.31
555.31	211.11
555.515	280.74
555.72	-98.13
555.925	-247.63
556.131	311.46
556.336	0.17
556.541	-249.68
556.746	-233.3
556.951	346.28
557.156	557.22
557.361	-149.33
557.567	-32.6
557.772	626.85
557.977	233.64
558.182	-208.72
558.387	-200.53
558.592	-46.93
558.797	430.24
559.002	-65.36
559.207	-8.02
559.412	110.76
559.617	565.41
559.822	-204.63
560.027	-272.21
560.232	182.44
560.437	209.06
560.642	-325.46
560.847	-223.06
561.051	170.15
561.256	223.4
561.461	-132.95
561.666	-300.88
561.871	188.58
562.076	274.6
562.281	-165.71
562.485	-257.87
562.69	237.74
562.895	333.99
563.1	-225.11
563.305	-233.3
563.509	397.48
563.714	667.81
563.919	-241.49
564.123	-163.67
564.328	32.94
564.533	438.44
564.737	-147.28
564.942	-137.04
565.147	440.48
565.351	643.23
565.556	-128.85
565.761	-61.27
565.965	192.68
566.17	-42.84
566.374	-139.09
566.579	-311.12
566.784	180.39
566.988	92.33
567.193	-276.31
567.397	-237.39
567.602	-149.33
567.806	159.91
568.011	-202.58
568.215	-175.95
568.42	80.04
568.624	57.51
568.828	-143.19
569.033	-8.02
569.237	274.6
569.442	250.02
569.646	-321.36
569.85	-165.71
570.055	102.57
570.259	211.11
570.463	112.81
570.668	-137.04
570.872	98.47
571.076	229.54
571.281	-48.98
571.485	-61.27
571.689	143.53
571.893	360.61
572.098	-14.17
572.302	-163.67
572.506	260.26
572.71	110.76
572.914	-102.23
573.119	-151.38
573.323	422.05
573.527	405.67
573.731	-87.89
573.935	-278.35
574.139	188.58
574.343	6.31
574.547	-159.57
574.751	-184.15
574.955	456.87
575.159	440.48
575.364	-126.8
575.568	-255.83
575.772	159.91
575.976	475.3
576.18	-77.65
576.383	-356.18
576.587	436.39
576.791	368.81
576.995	-296.78
577.199	-327.5
577.403	422.05
577.607	377
577.811	-200.53
578.015	10.41
578.219	270.5
578.422	290.98
578.626	-65.36
578.83	-1.88
579.034	274.6
579.238	164.01
579.442	-182.1
579.645	262.31
579.849	172.2
580.053	104.62
580.257	-77.65
580.46	8.36
580.664	407.72
580.868	340.13
581.071	30.89
581.275	-85.84
581.479	-110.42
581.682	391.33
581.886	-153.43
582.09	41.13
582.293	364.71
582.497	403.62
582.7	43.18
582.904	-137.04
583.107	247.97
583.311	37.03
583.515	-112.47
583.718	-61.27
583.922	350.37
584.125	630.95
584.329	-110.42
584.532	18.6
584.735	520.35
584.939	329.89
585.142	-218.96
585.346	-143.19
585.549	319.65
585.753	104.62
585.956	-55.12
586.159	12.46
586.363	565.41
586.566	346.28
586.769	-167.76
586.973	-126.8
587.176	356.52
587.379	444.58
587.582	159.91
587.786	145.58
587.989	184.49
588.192	897.18
588.395	-87.89
588.599	227.5
588.802	235.69
589.005	454.82
589.208	-36.69
589.411	-16.21
589.615	491.68
589.818	592.03
590.021	135.34
590.224	53.42
590.427	463.01
590.63	411.81
590.833	-171.86
591.036	-98.13
591.239	172.2
591.442	61.61
591.645	139.43
591.848	-94.04
592.051	336.04
592.254	448.68
592.457	14.51
592.66	4.27
592.863	225.45
593.066	344.23
593.269	-48.98
593.472	20.65
593.675	20.65
593.878	506.02
594.081	61.61
594.284	-118.61
594.486	348.33
594.689	243.88
594.892	100.52
595.095	28.84
595.298	397.48
595.5	71.85
595.703	43.18
595.906	127.14
596.109	512.16
596.311	536.74
596.514	-175.95
596.717	-12.12
596.92	538.79
597.122	362.66
597.325	-266.07
597.528	-20.31
597.73	614.56
597.933	264.36
598.136	-124.76
598.338	-227.15
598.541	407.72
598.743	573.6
598.946	65.71
599.148	-10.07
599.351	489.64
599.554	489.64
599.756	53.42
599.959	-3.93
600.161	518.31
600.363	794.78
600.566	258.21
600.768	-48.98
600.971	655.52
601.173	434.34
601.376	73.9
601.578	92.33
601.78	440.48
601.983	735.39
602.185	-69.46
602.388	233.64
602.59	401.57
602.792	213.16
602.995	145.58
603.197	-5.97
603.399	553.12
603.601	454.82
603.804	-8.02
604.006	-3.93
604.208	282.79
604.41	-188.24
604.613	159.91
604.815	-20.31
605.017	848.03
605.219	161.96
605.421	417.96
605.623	-16.21
605.826	555.17
606.028	684.19
606.23	69.8
606.432	51.37
606.634	686.24
606.836	635.04
607.038	-77.65
607.24	229.54
607.442	325.8
607.644	250.02
607.846	166.06
608.048	-18.26
608.25	583.84
608.452	145.58
608.654	34.99
608.856	-178
609.058	270.5
609.26	436.39
609.462	204.97
609.664	151.72
609.866	874.65
610.067	544.93
610.269	227.5
610.471	151.72
610.673	180.39
610.875	512.16
611.077	-124.76
611.278	125.1
611.48	336.04
611.682	798.88
611.884	204.97
612.085	127.14
612.287	164.01
612.489	467.11
612.69	-106.32
612.892	61.61
613.094	702.62
613.295	487.59
613.497	-12.12
613.699	61.61
613.9	698.53
614.102	581.79
614.304	125.1
614.505	-79.7
614.707	391.33
614.908	377
615.11	-26.45
615.311	184.49
615.513	487.59
615.714	555.17
615.916	47.27
616.117	100.52
616.319	260.26
616.52	473.25
616.722	143.53
616.923	59.56
617.124	575.65
617.326	477.35
617.527	231.59
617.729	385.19
617.93	532.64
618.131	489.64
618.333	127.14
618.534	213.16
618.735	235.69
618.937	782.49
619.138	0.17
619.339	8.36
619.54	549.03
619.742	315.56
619.943	293.03
620.144	147.62
620.345	557.22
620.546	661.66
620.748	49.32
620.949	231.59
621.15	381.09
621.351	508.07
621.552	135.34
621.753	-44.88
621.954	69.8
622.155	970.91
622.356	151.72
622.558	282.79
622.759	473.25
622.96	895.13
623.161	98.47
623.362	213.16
623.563	405.67
623.764	503.97
623.965	204.97
624.166	374.95
624.366	356.52
624.567	387.24
624.768	-163.67
624.969	86.19
625.17	325.8
625.371	606.37
625.572	301.22
625.773	47.27
625.973	630.95
626.174	598.18
626.375	186.54
626.576	250.02
626.777	553.12
626.977	954.52
627.178	141.48
627.379	262.31
627.58	358.57
627.78	438.44
627.981	200.87
628.182	233.64
628.382	749.73
628.583	135.34
628.784	108.71
628.984	399.52
629.185	641.18
629.386	651.42
629.586	250.02
629.787	41.13
629.987	589.99
630.188	422.05
630.388	219.3
630.589	342.18
630.79	954.52
630.99	475.3
631.191	176.3
631.391	356.52
631.591	643.23
631.792	915.61
631.992	381.09
632.193	188.58
632.393	891.04
632.594	503.97
632.794	270.5
632.994	372.9
633.195	540.83
633.395	557.22
633.595	250.02
633.796	364.71
633.996	274.6
634.196	737.44
634.397	102.57
634.597	213.16
634.797	313.51
634.997	768.16
635.198	544.93
635.398	88.23
635.598	651.42
635.798	888.99
635.998	731.3
636.199	262.31
636.399	417.96
636.599	297.13
636.799	252.07
636.999	514.21
637.199	594.08
637.399	784.54
637.599	282.79
637.799	446.63
637.999	512.16
638.199	962.72
638.399	221.35
638.599	299.17
638.799	676
638.999	1040.54
639.199	463.01
639.399	377
639.599	903.32
639.799	364.71
639.999	235.69
640.199	125.1
640.399	585.89
640.599	608.42
640.799	381.09
640.998	444.58
641.198	835.74
641.398	639.14
641.598	450.72
641.798	440.48
641.997	1562.77
642.197	589.99
642.397	422.05
642.597	274.6
642.796	725.15
642.996	866.46
643.196	436.39
643.395	217.26
643.595	688.29
643.795	241.83
643.994	307.37
644.194	405.67
644.394	764.06
644.593	766.11
644.793	219.3
644.992	479.4
645.192	727.2
645.392	188.58
645.591	434.34
645.791	387.24
645.99	741.54
646.19	569.51
646.389	385.19
646.589	356.52
646.788	827.55
646.987	755.87
647.187	602.27
647.386	592.03
647.586	671.9
647.785	813.21
647.984	436.39
648.184	559.27
648.383	485.54
648.582	594.08
648.782	430.24
648.981	520.35
649.18	442.53
649.38	735.39
649.579	368.81
649.778	356.52
649.977	759.97
650.177	759.97
650.376	340.13
650.575	415.91
650.774	1052.83
650.973	487.59
651.173	217.26
651.372	497.83
651.571	710.82
651.77	913.56
651.969	393.38
652.168	643.23
652.367	415.91
652.566	766.11
652.765	377
652.964	694.43
653.163	1138.84
653.362	708.77
653.561	389.28
653.76	463.01
653.959	606.37
654.158	880.8
654.357	663.71
654.556	463.01
654.755	856.22
654.954	909.47
655.153	520.35
655.352	571.55
655.551	899.23
655.749	549.03
655.948	528.55
656.147	630.95
656.346	862.37
656.545	618.66
656.743	618.66
656.942	530.59
657.141	745.63
657.34	479.4
657.538	434.34
657.737	493.73
657.936	786.59
658.135	802.97
658.333	528.55
658.532	532.64
658.731	1163.42
658.929	1077.4
659.128	827.55
659.326	434.34
659.525	962.72
659.724	802.97
659.922	286.89
660.121	327.85
660.319	903.32
660.518	637.09
660.716	442.53
660.915	366.76
661.113	1175.7
661.312	413.86
661.51	680.1
661.709	512.16
661.907	768.16
662.105	1130.65
662.304	526.5
662.502	604.32
662.701	1077.4
662.899	565.41
663.097	870.56
663.296	381.09
663.494	1038.49
663.692	1206.42
663.891	405.67
664.089	483.49
664.287	815.26
664.485	1110.17
664.684	495.78
664.882	620.71
665.08	757.92
665.278	876.7
665.476	454.82
665.675	850.08
665.873	1196.18
666.071	1056.92
666.269	514.21
666.467	866.46
666.665	927.9
666.863	886.94
667.061	745.63
667.259	493.73
667.457	768.16
667.655	1106.07
667.853	499.88
668.051	673.95
668.249	649.38
668.447	1044.63
668.645	544.93
668.843	735.39
669.041	1020.06
669.239	712.86
669.437	680.1
669.635	708.77
669.833	786.59
670.031	960.67
670.229	661.66
670.426	759.97
670.624	729.25
670.822	706.72
671.02	655.52
671.218	762.02
671.415	612.51
671.613	870.56
671.811	790.69
672.009	540.83
672.206	1093.79
672.404	835.74
672.602	921.76
672.799	712.86
672.997	888.99
673.195	1110.17
673.392	802.97
673.59	641.18
673.788	1142.94
673.985	297.13
674.183	757.92
674.38	669.86
674.578	1091.74
674.775	716.96
674.973	649.38
675.17	493.73
675.368	1302.68
675.565	991.39
675.763	651.42
675.96	628.9
676.158	1108.12
676.355	876.7
676.553	639.14
676.75	651.42
676.947	956.57
677.145	811.17
677.342	876.7
677.539	762.02
677.737	927.9
677.934	1392.79
678.131	876.7
678.329	676
678.526	1210.52
678.723	1097.88
678.92	700.58
679.118	702.62
679.315	669.86
679.512	1257.62
679.709	782.49
679.906	708.77
680.104	1222.81
680.301	1073.31
680.498	596.13
680.695	618.66
680.892	811.17
681.089	782.49
681.286	934.04
681.483	551.07
681.68	1151.13
681.877	1247.38
682.075	768.16
682.272	999.58
682.469	1177.75
682.665	1030.3
682.862	641.18
683.059	561.31
683.256	1042.59
683.453	985.24
683.65	860.32
683.847	860.32
684.044	1077.4
684.241	669.86
684.438	823.45
684.635	716.96
684.831	1370.26
685.028	1372.31
685.225	731.3
685.422	899.23
685.619	968.86
685.815	977.05
686.012	913.56
686.209	800.93
686.405	708.77
686.602	1192.09
686.799	635.04
686.996	694.43
687.192	727.2
687.389	1511.57
687.586	755.87
687.782	716.96
687.979	1296.53
688.175	1214.62
688.372	829.6
688.568	727.2
688.765	827.55
688.962	1378.45
689.158	872.61
689.355	592.03
689.551	1323.16
689.748	864.41
689.944	987.29
690.14	649.38
690.337	1177.75
690.533	923.8
690.73	1024.16
690.926	800.93
691.123	1239.19
691.319	1083.55
691.515	759.97
691.712	975
691.908	1282.2
692.104	1112.22
692.301	913.56
692.497	708.77
692.693	1271.96
692.889	1200.28
693.086	958.62
693.282	553.12
693.478	1167.51
693.674	1487
693.87	882.85
694.067	596.13
694.263	1157.27
694.459	1011.87
694.655	929.95
694.851	882.85
695.047	1259.67
695.243	1155.23
695.439	1020.06
695.635	819.36
695.831	1282.2
696.027	1097.88
696.224	893.09
696.42	1110.17
696.615	1452.18
696.811	1259.67
697.007	655.52
697.203	921.76
697.399	1331.35
697.595	1462.42
697.791	798.88
697.987	1173.66
698.183	882.85
698.379	1009.82
698.575	858.27
698.77	872.61
698.966	1302.68
699.162	1347.73
699.358	874.65
699.554	897.18
699.749	1271.96
699.945	1333.4
700.141	1003.68
700.337	1056.92
700.532	1124.51
700.728	1046.68
700.924	880.8
701.119	778.4
701.315	1231
701.511	1071.26
701.706	1024.16
701.902	762.02
702.097	1097.88
702.293	1210.52
702.489	872.61
702.684	888.99
702.88	1132.7
703.075	1040.54
703.271	909.47
703.466	813.21
703.662	1085.59
703.857	1317.01
704.053	923.8
704.248	915.61
704.443	1312.92
704.639	1382.55
704.834	999.58
705.03	993.44
705.225	1374.36
705.42	1472.66
705.616	1034.39
705.811	880.8
706.006	1054.87
706.202	1065.11
706.397	1138.84
706.592	891.04
706.787	1251.48
706.983	1210.52
707.178	1255.58
707.373	1110.17
707.568	1392.79
707.763	1405.08
707.959	960.67
708.154	987.29
708.349	1274.01
708.544	1290.39
708.739	1233.05
708.934	823.45
709.129	1446.04
709.324	1421.46
709.519	979.1
709.714	952.48
709.909	1487
710.104	1355.93
710.299	987.29
710.494	1095.83
710.689	1474.71
710.884	1276.06
711.079	1112.22
711.274	1280.15
711.469	1403.03
711.664	1306.77
711.859	1013.92
712.054	1202.33
712.249	1374.36
712.443	1519.76
712.638	927.9
712.833	938.14
713.028	1304.73
713.223	1216.66
713.417	1282.2
713.612	1044.63
713.807	1431.7
714.002	2005.13
714.196	1274.01
714.391	1042.59
714.586	1441.94
714.78	1185.94
714.975	1101.98
715.17	1052.83
715.364	1171.61
715.559	1429.65
715.754	852.13
715.948	1038.49
716.143	1767.57
716.337	1339.54
716.532	1302.68
716.726	991.39
716.921	1597.59
717.115	1699.98
717.31	925.85
717.504	1575.06
717.699	1157.27
717.893	1458.32
718.088	1038.49
718.282	1003.68
718.476	1345.69
718.671	1351.83
718.865	1099.93
719.059	970.91
719.254	1175.7
719.448	1568.91
719.642	1237.14
719.837	858.27
720.031	1552.53
720.225	1626.26
720.419	1253.53
720.614	1050.78
720.808	1568.91
721.002	1220.76
721.196	1036.44
721.39	1036.44
721.585	1669.27
721.779	1388.69
721.973	1163.42
722.167	972.96
722.361	1527.96
722.555	1517.72
722.749	1108.12
722.943	1167.51
723.137	1024.16
723.331	1400.98
723.525	1046.68
723.719	1169.56
723.913	1540.24
724.107	1759.38
724.301	995.48
724.495	1073.31
724.689	1863.82
724.883	1650.83
725.077	1097.88
725.271	1101.98
725.465	1558.67
725.659	1441.94
725.853	1187.99
726.046	932
726.24	1106.07
726.434	1702.03
726.628	1089.69
726.822	1132.7
727.015	1636.5
727.209	1786
727.403	1167.51
727.596	1005.72
727.79	1634.45
727.984	1691.79
728.177	1208.47
728.371	1235.1
728.565	1708.18
728.758	1161.37
728.952	1169.56
729.146	1081.5
729.339	1761.42
729.533	1388.69
729.726	1251.48
729.92	1099.93
730.113	1691.79
730.307	1556.63
730.5	1220.76
730.694	1093.79
730.887	1417.37
731.081	1640.59
731.274	1073.31
731.468	1196.18
731.661	1368.21
731.854	1400.98
732.048	1177.75
732.241	1077.4
732.435	1267.86
732.628	1400.98
732.821	1243.29
733.014	1126.55
733.208	1194.14
733.401	1605.78
733.594	1167.51
733.788	1151.13
733.981	1810.58
734.174	1462.42
734.367	1249.43
734.56	1343.64
734.754	1710.22
734.947	1519.76
735.14	1190.04
735.333	1327.25
735.526	1624.21
735.719	1398.93
735.912	1126.55
736.105	1157.27
736.298	1456.28
736.491	1360.02
736.684	1206.42
736.877	1177.75
737.07	1437.84
737.263	1718.42
737.456	1122.46
737.649	1128.6
737.842	1355.93
738.035	1456.28
738.228	1331.35
738.421	1433.75
738.614	1822.86
738.807	1708.18
739	1132.7
739.192	1204.38
739.385	1577.11
739.578	1675.41
739.771	1484.95
739.964	1237.14
740.156	1548.44
740.349	1605.78
740.542	1429.65
740.735	1149.08
740.927	1282.2
741.12	1288.34
741.313	1233.05
741.505	1466.52
741.698	1634.45
741.891	1597.59
742.083	1517.72
742.276	1249.43
742.468	1487
742.661	1593.49
742.854	1394.84
743.046	1282.2
743.239	1810.58
743.431	1554.58
743.624	1396.89
743.816	1220.76
744.009	1558.67
744.201	1622.16
744.393	1462.42
744.586	1134.75
744.778	1757.33
744.971	1599.63
745.163	1370.26
745.355	1564.82
745.548	1525.91
745.74	1511.57
745.932	1396.89
746.125	1298.58
746.317	2031.76
746.509	1646.74
746.702	1288.34
746.894	1446.04
747.086	1798.29
747.278	1872.01
747.471	1400.98
747.663	1423.51
747.855	1656.98
748.047	2076.81
748.239	1241.24
748.431	1384.6
748.623	1986.7
748.815	1986.7
749.008	1200.28
749.2	1247.38
749.392	1761.42
749.584	1556.63
749.776	1495.19
749.968	1407.13
750.16	2082.95
750.352	1527.96
750.544	1421.46
750.736	1241.24
750.928	1695.89
751.12	1765.52
751.311	1331.35
751.503	1493.14
751.695	1751.18
751.887	1564.82
752.079	1163.42
752.271	1376.41
752.463	2367.62
752.654	1822.86
752.846	1466.52
753.038	1343.64
753.23	1374.36
753.421	1829.01
753.613	1495.19
753.805	1702.03
753.997	1884.3
754.188	1906.83
754.38	1233.05
754.572	1433.75
754.763	1683.6
754.955	1822.86
755.146	1427.6
755.338	1409.17
755.53	1732.75
755.721	1616.02
755.913	1302.68
756.104	1388.69
756.296	1628.31
756.487	1931.41
756.679	1480.85
756.87	1525.91
757.062	1548.44
757.253	1874.06
757.445	1450.13
757.636	1495.19
757.827	1724.56
758.019	2316.42
758.21	1257.62
758.401	1478.8
758.593	2152.59
758.784	1982.6
758.975	1339.54
759.167	1431.7
759.358	1702.03
759.549	1808.53
759.74	1337.49
759.932	1382.55
760.123	1933.45
760.314	1589.39
760.505	1591.44
760.696	1466.52
760.888	2125.96
761.079	1677.46
761.27	1435.8
761.461	1222.81
761.652	2068.62
761.843	1626.26
762.034	1411.22
762.225	1671.31
762.416	1683.6
762.607	1603.73
762.798	1431.7
762.989	1394.84
763.18	2447.49
763.371	1573.01
763.562	1429.65
763.753	1511.57
763.944	1861.77
764.135	1923.21
764.326	1597.59
764.517	1374.36
764.708	1790.1
764.899	1855.63
765.089	1405.08
765.28	1233.05
765.471	1716.37
765.662	1896.59
765.853	1425.56
766.043	1429.65
766.234	1980.56
766.425	1996.94
766.615	1527.96
766.806	1323.16
766.997	2082.95
767.187	1853.58
767.378	1341.59
767.569	1323.16
767.759	1820.81
767.95	1708.18
768.141	1679.51
768.331	1443.99
768.522	1759.38
768.712	1765.52
768.903	1409.17
769.093	1390.74
769.284	2074.76
769.474	1751.18
769.665	1298.58
769.855	1298.58
770.046	1929.36
770.236	1667.22
770.426	1677.46
770.617	1335.45
770.807	1810.58
770.998	1597.59
771.188	1585.3
771.378	1372.31
771.569	1855.63
771.759	1865.87
771.949	1269.91
772.139	1314.97
772.33	1779.86
772.52	2109.58
772.71	1409.17
772.9	1388.69
773.09	2138.25
773.281	2025.61
773.471	1390.74
773.661	1474.71
773.851	2064.52
774.041	1566.87
774.231	1433.75
774.421	1644.69
774.611	2076.81
774.802	1837.2
774.992	1466.52
775.182	1462.42
775.372	1730.7
775.562	1982.6
775.752	1544.34
775.942	1546.39
776.131	2011.28
776.321	1933.45
776.511	1329.3
776.701	1544.34
776.891	2056.33
777.081	1470.61
777.271	1462.42
777.461	1384.6
777.651	1702.03
777.84	2082.95
778.03	1677.46
778.22	1427.6
778.41	2050.19
778.599	1476.76
778.789	1595.54
778.979	1323.16
779.169	1872.01
779.358	1640.59
779.548	1775.76
779.738	1421.46
779.927	1732.75
780.117	1398.93
780.307	1452.18
780.496	1276.06
780.686	1929.36
780.875	2148.49
781.065	1392.79
781.254	1519.76
781.444	1786
781.633	1626.26
781.823	1431.7
782.012	1544.34
782.202	1640.59
782.391	1796.24
782.581	1437.84
782.77	1587.35
782.96	1935.5
783.149	1699.98
783.338	1554.58
783.528	1134.75
783.717	2003.08
783.906	2035.85
784.096	1652.88
784.285	1396.89
784.474	1634.45
784.663	1669.27
784.853	1579.15
785.042	1480.85
785.231	1648.79
785.42	1923.21
785.61	1509.52
785.799	1351.83
785.988	1714.32
786.177	1728.66
786.366	1505.43
786.555	1589.39
786.744	2001.04
786.933	1765.52
787.122	1376.41
787.312	1429.65
787.501	1728.66
787.69	1900.69
787.879	1503.38
788.068	1470.61
788.257	1503.38
788.445	1699.98
788.634	1548.44
788.823	1362.07
789.012	2422.92
789.201	2064.52
789.39	1482.9
789.579	1454.23
789.768	1839.25
789.957	1804.43
790.145	1607.83
790.334	1196.18
790.523	1693.84
790.712	1626.26
790.9	1552.53
791.089	1429.65
791.278	1929.36
791.467	1777.81
791.655	1724.56
791.844	2076.81
792.033	1589.39
792.221	1751.18
792.41	1495.19
792.599	1337.49
792.787	1884.3
792.976	1974.41
793.164	1425.56
793.353	1509.52
793.541	1921.17
793.73	2005.13
793.918	1489.04
794.107	1509.52
794.295	1845.39
794.484	1734.8
794.672	1499.28
794.861	1525.91
795.049	2019.47
795.238	2195.59
795.426	1433.75
795.614	1626.26
795.803	1921.17
795.991	2046.09
796.179	1499.28
796.368	1495.19
796.556	2035.85
796.744	1568.91
796.932	1431.7
797.121	1341.59
797.309	1777.81
797.497	1984.65
797.685	1503.38
797.874	1554.58
798.062	1618.07
798.25	2181.26
798.438	1458.32
798.626	1400.98
798.814	1982.6
799.002	2261.13
799.19	1716.37
799.378	1472.66
799.566	2101.39
799.755	2072.72
799.943	1736.85
800.131	1503.38
800.318	1849.49
800.506	1829.01
800.694	1611.92
800.882	1716.37
801.07	2117.77
801.258	1716.37
801.446	1544.34
801.634	1640.59
801.822	1849.49
802.01	1921.17
802.197	1585.3
802.385	1634.45
802.573	1783.95
802.761	1618.07
802.949	1648.79
803.136	1435.8
803.324	2056.33
803.512	1853.58
803.699	1706.13
803.887	1499.28
804.075	2173.07
804.262	1759.38
804.45	1521.81
804.638	1624.21
804.825	1675.41
805.013	1685.65
805.201	1712.27
805.388	1550.48
805.576	1904.78
805.763	2257.03
805.951	1632.4
806.138	1749.14
806.326	2404.49
806.513	2066.57
806.701	1855.63
806.888	1573.01
807.075	2068.62
807.263	2433.16
807.45	1675.41
807.638	1806.48
807.825	2359.43
808.012	2080.91
808.2	1829.01
808.387	1845.39
808.574	2144.39
808.761	2302.09
808.949	1605.78
809.136	1765.52
809.323	1906.83
809.51	1941.65
809.698	2054.28
809.885	1822.86
810.072	2052.24
810.259	2191.5
810.446	1773.71
810.633	1691.79
810.82	2242.7
811.008	2465.93
811.195	1874.06
811.382	1792.14
811.569	2048.14
811.756	1747.09
811.943	1757.33
812.13	1773.71
812.317	1804.43
812.504	1884.3
812.691	1802.38
812.878	1790.1
813.064	2386.05
813.251	2009.23
813.438	1730.7
813.625	1896.59
813.812	2171.02
813.999	2078.86
814.186	1808.53
814.372	1835.15
814.559	2162.83
814.746	2390.15
814.933	1691.79
815.12	2085
815.306	1884.3
815.493	1863.82
815.68	1798.29
815.866	1751.18
816.053	2310.28
816.24	2621.57
816.426	1900.69
816.613	1595.54
816.799	2351.24
816.986	2271.37
817.173	1708.18
817.359	1740.94
817.546	2283.66
817.732	1736.85
817.919	1534.1
818.105	1912.97
818.292	1978.51
818.478	2070.67
818.665	1941.65
818.851	1802.38
819.037	2601.09
819.224	2111.63
819.41	1634.45
819.597	1742.99
819.783	2449.54
819.969	2222.22
820.156	1902.73
820.342	1718.42
820.528	2867.33
820.714	1978.51
820.901	2066.57
821.087	1851.53
821.273	2496.64
821.459	2080.91
821.646	1800.34
821.832	1777.81
822.018	2003.08
822.204	2109.58
822.39	1898.64
822.576	1722.51
822.762	2306.18
822.948	2240.65
823.134	2035.85
823.32	1906.83
823.507	1740.94
823.693	2152.59
823.879	2281.61
824.065	1806.48
824.25	2128.01
824.436	1970.32
824.622	1882.25
824.808	1679.51
824.994	1978.51
825.18	1872.01
825.366	1759.38
825.552	1790.1
825.738	2085
825.923	2265.22
826.109	2056.33
826.295	1763.47
826.481	1888.4
826.667	2044.04
826.852	1955.98
827.038	1753.23
827.224	2320.52
827.409	2627.71
827.595	1767.57
827.781	2060.43
827.966	2412.68
828.152	2410.63
828.338	1872.01
828.523	1769.62
828.709	1915.02
828.894	2500.74
829.08	1851.53
829.266	1796.24
829.451	1865.87
829.637	2414.73
829.822	1900.69
830.008	1781.9
830.193	2328.71
830.378	2527.36
830.564	1927.31
830.749	1800.34
830.935	2252.94
831.12	2306.18
831.305	1730.7
831.491	1931.41
831.676	1775.76
831.861	2281.61
832.047	1902.73
832.232	1642.64
832.417	2429.06
832.602	2109.58
832.788	1806.48
832.973	1777.81
833.158	2183.31
833.343	2136.2
833.528	1861.77
833.714	1917.07
833.899	2259.08
834.084	2457.73
834.269	1939.6
834.454	1738.9
834.639	2341
834.824	2158.73
835.009	1937.55
835.194	2091.15
835.379	2205.83
835.564	2447.49
835.749	2003.08
835.934	1906.83
836.119	2322.57
836.304	2232.46
836.489	1880.21
836.674	2091.15
836.859	1880.21
837.044	2551.94
837.228	2005.13
837.413	1749.14
837.598	2166.92
837.783	2273.42
837.968	1874.06
838.152	1679.51
838.337	1751.18
838.522	2472.07
838.707	2322.57
838.891	1966.22
839.076	2314.38
839.261	2322.57
839.445	1792.14
839.63	1964.17
839.815	2568.32
839.999	2031.76
840.184	1851.53
840.368	1814.67
840.553	2332.81
840.737	2310.28
840.922	1671.31
841.106	1769.62
841.291	1814.67
841.475	2187.4
841.66	1751.18
841.844	1777.81
842.029	2889.85
842.213	1818.77
842.397	1861.77
842.582	1677.46
842.766	2396.29
842.951	2367.62
843.135	1980.56
843.319	1898.64
843.504	2031.76
843.688	2373.77
843.872	1790.1
844.056	1779.86
844.241	2252.94
844.425	2216.07
844.609	2011.28
844.793	1747.09
844.977	2498.69
845.161	2166.92
845.346	1794.19
845.53	1863.82
845.714	2115.72
845.898	2506.88
846.082	1685.65
846.266	1876.11
846.45	2211.98
846.634	2191.5
846.818	1880.21
847.002	2089.1
847.186	2158.73
847.37	1984.65
847.554	1794.19
847.738	1990.8
847.922	2211.98
848.106	2205.83
848.29	1736.85
848.473	1740.94
848.657	2267.27
848.841	1988.75
849.025	2011.28
849.209	1759.38
849.392	2193.55
849.576	1996.94
849.76	1718.42
849.944	2101.39
850.127	2500.74
850.311	2021.52
850.495	1896.59
850.678	1722.51
850.862	2388.1
851.046	2623.62
851.229	2240.65
851.413	1847.44
851.596	2203.79
851.78	2171.02
851.964	1937.55
852.147	1896.59
852.331	2887.81
852.514	2529.41
852.698	1915.02
852.881	1601.68
853.065	2338.95
853.248	2177.16
853.431	1980.56
853.615	1943.69
853.798	2742.4
853.982	2297.99
854.165	2085
854.348	1908.88
854.532	1882.25
854.715	1998.99
854.898	2050.19
855.081	1790.1
855.265	2527.36
855.448	2519.17
855.631	1810.58
855.814	1884.3
855.997	2259.08
856.181	1982.6
856.364	2011.28
856.547	1765.52
856.73	2125.96
856.913	2171.02
857.096	1675.41
857.279	1835.15
857.462	1986.7
857.645	2345.09
857.828	1968.27
858.011	2066.57
858.194	1958.03
858.377	2222.22
858.56	1740.94
858.743	1867.92
858.926	1964.17
859.109	2211.98
859.292	1841.29
859.475	1677.46
859.658	2396.29
859.841	2345.09
860.023	1751.18
860.206	1835.15
860.389	2209.93
860.572	2418.82
860.755	1917.07
860.937	1716.37
861.12	2095.24
861.303	2125.96
861.486	1876.11
861.668	1677.46
861.851	2257.03
862.034	2322.57
862.216	1925.26
862.399	1726.61
862.581	2164.87
862.764	2457.73
862.947	1884.3
863.129	1677.46
863.312	1908.88
863.494	2472.07
863.677	2189.45
863.859	1650.83
864.042	2306.18
864.224	2328.71
864.406	1935.5
864.589	1626.26
864.771	2119.82
864.954	1880.21
865.136	1745.04
865.318	1607.83
865.501	2201.74
865.683	1626.26
865.865	1671.31
866.048	1814.67
866.23	2093.19
866.412	2076.81
866.594	1648.79
866.777	1855.63
866.959	2365.57
867.141	1929.36
867.323	2060.43
867.505	2031.76
867.687	2080.91
867.869	2183.31
868.052	1775.76
868.234	1851.53
868.416	2003.08
868.598	2345.09
868.78	1867.92
868.962	1593.49
869.144	2408.58
869.326	2293.9
869.508	1775.76
869.69	1687.7
869.872	1872.01
870.054	2334.86
870.236	1706.13
870.417	1824.91
870.599	2095.24
870.781	2412.68
870.963	1931.41
871.145	1616.02
871.327	1806.48
871.508	2207.88
871.69	1777.81
871.872	1775.76
872.054	1990.8
872.235	2273.42
872.417	1788.05
872.599	1644.69
872.78	2480.26
872.962	2226.31
873.144	1556.63
873.325	1880.21
873.507	2429.06
873.689	2074.76
873.87	1689.74
874.052	2011.28
874.233	2068.62
874.415	2365.57
874.596	1890.45
874.778	1763.47
874.959	2111.63
875.141	2408.58
875.322	1880.21
875.503	1771.66
875.685	2322.57
875.866	1697.94
876.048	1804.43
876.229	1675.41
876.41	2003.08
876.592	2160.78
876.773	2023.56
876.954	1601.68
877.136	2537.6
877.317	1958.03
877.498	1642.64
877.679	1888.4
877.86	2216.07
878.042	2265.22
878.223	1783.95
878.404	2158.73
878.585	2257.03
878.766	2510.98
878.947	2175.11
879.128	2052.24
879.309	2457.73
879.49	2416.77
879.672	2003.08
879.853	2023.56
880.034	1900.69
880.215	2150.54
880.396	1919.12
880.576	1845.39
880.757	1958.03
880.938	2556.04
881.119	1931.41
881.3	1890.45
881.481	1962.12
881.662	2979.97
881.843	1794.19
882.023	1734.8
882.204	2207.88
882.385	2199.69
882.566	1849.49
882.747	1839.25
882.927	2195.59
883.108	2412.68
883.289	1822.86
883.469	2216.07
883.65	2252.94
883.831	2347.14
884.011	2201.74
884.192	1953.93
884.373	2506.88
884.553	2324.62
884.734	2197.64
884.914	2238.6
885.095	2965.63
885.275	2674.82
885.456	2558.08
885.636	1921.17
885.817	2205.83
885.997	2218.12
886.178	1955.98
886.358	2052.24
886.538	2359.43
886.719	3330.17
886.899	2070.67
887.08	2146.44
887.26	2580.61
887.44	2175.11
887.621	2039.95
887.801	2181.26
887.981	2852.99
888.161	2646.15
888.342	2261.13
888.522	2093.19
888.702	2560.13
888.882	2642.05
889.062	2220.17
889.242	1859.73
889.423	2687.11
889.603	2543.75
889.783	2334.86
889.963	2111.63
890.143	2553.99
890.323	2615.43
890.503	2121.87
890.683	2044.04
890.863	2496.64
891.043	2527.36
891.223	2187.4
891.403	2275.46
891.583	2484.36
891.763	2375.81
891.943	2183.31
892.122	2113.67
892.302	2455.69
892.482	2443.4
892.662	2338.95
892.842	2193.55
893.022	2418.82
893.201	2369.67
893.381	2220.17
893.561	2113.67
893.741	2615.43
893.92	2537.6
894.1	2246.79
894.28	2302.09
894.459	2676.87
894.639	2519.17
894.819	2138.25
894.998	2283.66
895.178	2482.31
895.357	2435.21
895.537	2123.91
895.716	2144.39
895.896	2306.18
896.075	2756.74
896.255	2257.03
896.434	2134.15
896.614	2867.33
896.793	2785.41
896.973	2371.72
897.152	2418.82
897.331	2517.12
897.511	2734.21
897.69	2093.19
897.87	2363.53
898.049	2617.47
898.228	2480.26
898.407	2510.98
898.587	2371.72
898.766	2322.57
898.945	2615.43
899.124	2476.16
899.304	2224.26
899.483	2584.71
899.662	2906.24
899.841	2142.35
900.02	2320.52
900.199	2838.66
900.378	2687.11
900.557	2189.45
900.737	2187.4
900.916	2640
901.095	2715.78
901.274	2488.45
901.453	2199.69
901.632	2271.37
901.811	2279.56
901.989	2097.29
902.168	2222.22
902.347	2678.91
902.526	2257.03
902.705	2267.27
902.884	2283.66
903.063	2812.03
903.242	2859.14
903.42	2093.19
903.599	2320.52
903.778	2814.08
903.957	2775.17
904.135	2357.38
904.314	2414.73
904.493	2568.32
904.672	2646.15
904.85	2297.99
905.029	2351.24
905.207	2609.28
905.386	3145.85
905.565	2085
905.743	2203.79
905.922	2504.84
906.1	2756.74
906.279	2187.4
906.457	2144.39
906.636	2369.67
906.814	2429.06
906.993	2177.16
907.171	2130.06
907.35	2560.13
907.528	2658.43
907.707	2521.22
907.885	2156.68
908.063	2758.78
908.242	2265.22
908.42	2035.85
908.598	2035.85
908.777	2607.23
908.955	2320.52
909.133	2275.46
909.311	1966.22
909.49	2427.01
909.668	2402.44
909.846	2121.87
910.024	2060.43
910.202	2488.45
910.38	2461.83
910.559	1966.22
910.737	2078.86
910.915	2322.57
911.093	2590.85
911.271	2162.83
911.449	2261.13
911.627	2480.26
911.805	2785.41
911.983	2173.07
912.161	2136.2
912.339	2560.13
912.517	2742.4
912.695	2377.86
912.872	2171.02
913.05	2117.77
913.228	2494.6
913.406	2072.72
913.584	1941.65
913.762	2578.56
913.939	2211.98
914.117	2072.72
914.295	2062.48
914.473	2521.22
914.65	2355.33
914.828	1996.94
915.006	1970.32
915.184	2076.81
915.361	2447.49
915.539	2254.98
915.716	2314.38
915.894	2484.36
916.072	2570.37
916.249	2230.41
916.427	2248.84
916.604	2211.98
916.782	2443.4
916.959	1826.96
917.137	2052.24
917.314	2447.49
917.492	2519.17
917.669	2287.75
917.847	2060.43
918.024	2406.53
918.201	2095.24
918.379	2058.38
918.556	2121.87
918.733	2580.61
918.911	2119.82
919.088	2332.81
919.265	2085
919.442	2304.14
919.62	2283.66
919.797	1990.8
919.974	1765.52
920.151	2418.82
920.328	2271.37
920.506	1847.44
920.683	2136.2
920.86	2039.95
921.037	2101.39
921.214	2011.28
921.391	1970.32
921.568	2381.96
921.745	2070.67
921.922	1970.32
922.099	2064.52
922.276	2404.49
922.453	2427.01
922.63	1865.87
922.807	2080.91
922.984	2314.38
923.161	2035.85
923.338	1855.63
923.514	1732.75
923.691	2171.02
923.868	2277.51
924.045	1853.58
924.222	1876.11
924.399	2035.85
924.575	2474.12
924.752	2009.23
924.929	1808.53
925.105	2209.93
925.282	1849.49
925.459	1921.17
925.635	1964.17
925.812	2146.44
925.989	1888.4
926.165	1888.4
926.342	1632.4
926.518	1765.52
926.695	2068.62
926.871	1790.1
927.048	1755.28
927.224	2220.17
927.401	1939.6
927.577	1906.83
927.754	1716.37
927.93	2377.86
928.107	2265.22
928.283	1720.46
928.459	1917.07
928.636	2132.11
928.812	2007.18
928.988	1669.27
929.165	1562.77
929.341	1908.88
929.517	1929.36
929.693	2013.32
929.87	1595.54
930.046	2070.67
930.222	1880.21
930.398	1650.83
930.574	1802.38
930.751	1970.32
930.927	1751.18
931.103	1675.41
931.279	1761.42
931.455	1671.31
931.631	1988.75
931.807	1476.76
931.983	1527.96
932.159	1487
932.335	1910.93
932.511	1634.45
932.687	1613.97
932.863	1841.29
933.039	1833.1
933.215	1505.43
933.391	1497.24
933.566	1872.01
933.742	1757.33
933.918	1636.5
934.094	1263.77
934.27	1763.47
934.445	1699.98
934.621	1562.77
934.797	1378.45
934.973	1898.64
935.148	1826.96
935.324	1286.3
935.5	1122.46
935.675	1876.11
935.851	1720.46
936.027	1341.59
936.202	1294.49
936.378	1667.22
936.553	1470.61
936.729	1554.58
936.904	1314.97
937.08	1290.39
937.255	1233.05
937.431	1147.03
937.606	1155.23
937.782	1335.45
937.957	1380.5
938.133	1233.05
938.308	1116.31
938.483	1319.06
938.659	1120.41
938.834	1136.79
939.009	1022.11
939.185	1206.42
939.36	1177.75
939.535	749.73
939.71	1069.21
939.886	1542.29
940.061	1366.17
940.236	1231
940.411	987.29
940.586	1425.56
940.761	1372.31
940.937	956.57
941.112	764.06
941.287	1134.75
941.462	1128.6
941.637	719.01
941.812	848.03
941.987	1228.95
942.162	1081.5
942.337	997.53
942.512	876.7
942.687	1292.44
942.862	1175.7
943.037	700.58
943.212	581.79
943.386	1054.87
943.561	1138.84
943.736	975
943.911	1200.28
944.086	1144.99
944.26	954.52
944.435	733.34
944.61	860.32
944.785	1335.45
944.959	1443.99
945.134	868.51
945.309	770.21
945.483	784.54
945.658	1233.05
945.833	483.49
946.007	692.38
946.182	1417.37
946.357	815.26
946.531	868.51
946.706	759.97
946.88	602.27
947.055	997.53
947.229	731.3
947.404	667.81
947.578	1249.43
947.752	925.85
947.927	686.24
948.101	659.62
948.276	1130.65
948.45	1099.93
948.624	880.8
948.799	690.34
948.973	1169.56
949.147	862.37
949.321	782.49
949.496	686.24
949.67	1216.66
949.844	972.96
950.018	827.55
950.193	696.48
950.367	1482.9
950.541	915.61
950.715	872.61
950.889	921.76
951.063	893.09
951.237	1206.42
951.411	542.88
951.585	606.37
951.759	1104.03
951.933	1009.82
952.107	710.82
952.281	845.98
952.455	1228.95
952.629	1341.59
952.803	737.44
952.977	727.2
953.151	1122.46
953.325	1204.38
953.499	868.51
953.672	671.9
953.846	821.41
954.02	848.03
954.194	700.58
954.368	694.43
954.541	1126.55
954.715	864.41
954.889	843.93
955.062	700.58
955.236	956.57
955.41	913.56
955.583	954.52
955.757	526.5
955.93	977.05
956.104	807.07
956.278	723.1
956.451	884.89
956.625	1110.17
956.798	1429.65
956.972	936.09
957.145	651.42
957.319	956.57
957.492	868.51
957.665	891.04
957.839	651.42
958.012	1083.55
958.185	880.8
958.359	688.29
958.532	909.47
958.705	1136.79
958.879	999.58
959.052	802.97
959.225	594.08
959.398	921.76
959.572	1089.69
959.745	659.62
959.918	825.5
960.091	919.71
960.264	1046.68
960.438	571.55
960.611	676
960.784	1138.84
960.957	915.61
961.13	1142.94
961.303	702.62
961.476	921.76
961.649	1306.77
961.822	598.18
961.995	831.65
962.168	1097.88
962.341	1024.16
962.514	704.67
962.686	733.34
962.859	999.58
963.032	1067.16
963.205	694.43
963.378	612.51
963.551	954.52
963.723	936.09
963.896	856.22
964.069	833.69
964.242	923.8
964.414	1083.55
964.587	868.51
964.76	882.85
964.932	1015.96
965.105	917.66
965.278	721.06
965.45	700.58
965.623	897.18
965.795	1011.87
965.968	702.62
966.14	620.71
966.313	807.07
966.485	1114.27
966.658	725.15
966.83	645.28
967.003	1224.86
967.175	1136.79
967.348	669.86
967.52	716.96
967.692	1380.5
967.865	1052.83
968.037	792.73
968.209	1040.54
968.382	968.86
968.554	1159.32
968.726	942.24
968.898	696.48
969.071	991.39
969.243	1013.92
969.415	776.35
969.587	731.3
969.759	1337.49
969.932	1104.03
970.104	704.67
970.276	411.81
970.448	864.41
970.62	745.63
970.792	817.31
970.964	833.69
971.136	1403.03
971.308	1061.02
971.48	626.85
971.652	757.92
971.824	1331.35
971.996	866.46
972.168	813.21
972.339	684.19
972.511	1173.66
972.683	948.38
972.855	1050.78
973.027	800.93
973.199	831.65
973.37	1077.4
973.542	841.89
973.714	809.12
973.886	921.76
974.057	1181.85
974.229	608.42
974.401	694.43
974.572	809.12
974.744	518.31
974.915	698.53
975.087	626.85
975.259	1317.01
975.43	651.42
975.602	753.82
975.773	602.27
975.945	688.29
976.116	1058.97
976.288	581.79
976.459	882.85
976.63	835.74
976.802	952.48
976.973	659.62
977.145	882.85
977.316	1317.01
977.487	975
977.659	807.07
977.83	741.54
978.001	1329.3
978.172	987.29
978.344	589.99
978.515	680.1
978.686	878.75
978.857	1226.9
979.028	628.9
979.2	618.66
979.371	1142.94
979.542	921.76
979.713	768.16
979.884	258.21
980.055	696.48
980.226	907.42
980.397	606.37
980.568	651.42
980.739	1231
980.91	966.81
981.081	792.73
981.252	534.69
981.423	1104.03
981.594	1149.08
981.765	573.6
981.936	727.2
982.106	915.61
982.277	1200.28
982.448	645.28
982.619	825.5
982.79	700.58
982.96	1194.14
983.131	751.78
983.302	465.06
983.472	673.95
983.643	987.29
983.814	729.25
983.984	536.74
984.155	776.35
984.326	1042.59
984.496	680.1
984.667	618.66
984.837	643.23
985.008	1233.05
985.178	825.5
985.349	692.38
985.519	751.78
985.69	702.62
985.86	594.08
986.031	503.97
986.201	925.85
986.371	950.43
986.542	475.3
986.712	391.33
986.882	989.34
987.053	856.22
987.223	508.07
987.393	710.82
987.563	710.82
987.734	1032.35
987.904	962.72
988.074	514.21
988.244	858.27
988.414	628.9
988.585	571.55
988.755	663.71
988.925	778.4
989.095	1183.9
989.265	542.88
989.435	663.71
989.605	979.1
989.775	923.8
989.945	827.55
990.115	442.53
990.285	866.46
990.455	888.99
990.625	571.55
990.795	620.71
990.965	1192.09
991.134	661.66
991.304	424.1
991.474	520.35
991.644	886.94
991.814	1177.75
991.984	409.76
992.153	512.16
992.323	794.78
992.493	823.45
992.662	333.99
992.832	643.23
993.002	856.22
993.171	823.45
993.341	422.05
993.511	626.85
993.68	589.99
993.85	925.85
994.019	377
994.189	293.03
994.358	725.15
994.528	639.14
994.697	194.73
994.867	385.19
995.036	970.91
995.206	667.81
995.375	356.52
995.544	594.08
995.714	819.36
995.883	606.37
996.052	731.3
996.222	276.65
996.391	1298.58
996.56	815.26
996.73	479.4
996.899	327.85
997.068	1175.7
997.237	676
997.406	399.52
997.576	346.28
997.745	819.36
997.914	821.41
998.083	221.35
998.252	440.48
998.421	794.78
998.59	544.93
998.759	372.9
998.928	200.87
999.097	1054.87
999.266	784.54
999.435	526.5
999.604	186.54
999.773	1253.53
999.942	667.81
1000.111	207.02
1000.28	221.35
1000.448	385.19
1000.617	555.17
1000.786	544.93
1000.955	329.89
1001.124	731.3
1001.292	1372.31
1001.461	346.28
1001.63	309.41
1001.798	1044.63
1001.967	915.61
1002.136	237.74
1002.304	317.61
1002.473	712.86
1002.642	805.02
1002.81	401.57
1002.979	252.07
1003.147	794.78
1003.316	1149.08
1003.484	422.05
1003.653	276.65
1003.821	901.28
1003.99	641.18
1004.158	471.2
1004.327	442.53
1004.495	798.88
1004.663	379.04
1004.832	442.53
1005	98.47
1005.168	725.15
1005.337	688.29
1005.505	75.95
1005.673	364.71
1005.842	757.92
1006.01	766.11
1006.178	237.74
1006.346	317.61
1006.514	766.11
1006.683	882.85
1006.851	223.4
1007.019	114.86
1007.187	401.57
1007.355	200.87
1007.523	86.19
1007.691	147.62
1007.859	276.65
1008.027	899.23
1008.195	311.46
1008.363	123.05
1008.531	864.41
1008.699	415.91
1008.867	141.48
1009.035	207.02
1009.203	929.95
1009.37	710.82
1009.538	286.89
1009.706	694.43
1009.874	561.31
1010.042	606.37
1010.209	77.99
1010.377	137.38
1010.545	784.54
1010.713	651.42
1010.88	176.3
1011.048	241.83
1011.216	493.73
1011.383	919.71
1011.551	190.63
1011.718	86.19
1011.886	794.78
1012.054	643.23
1012.221	243.88
1012.389	143.53
1012.556	549.03
1012.724	1001.63
1012.891	336.04
1013.058	114.86
1013.226	712.86
1013.393	663.71
1013.561	41.13
1013.728	67.75
1013.895	772.25
1014.063	678.05
1014.23	102.57
1014.397	131.24
1014.565	702.62
1014.732	524.45
1014.899	153.77
1015.066	88.23
1015.233	532.64
1015.401	741.54
1015.568	262.31
1015.735	460.96
1015.902	610.47
1016.069	583.84
1016.236	170.15
1016.403	135.34
1016.57	409.76
1016.737	729.25
1016.904	290.98
1017.071	39.08
1017.238	420
1017.405	684.19
1017.572	102.57
1017.739	458.92
1017.906	583.84
1018.073	739.49
1018.24	24.75
1018.407	184.49
1018.573	778.4
1018.74	403.62
1018.907	188.58
1019.074	-89.94
1019.241	696.48
1019.407	503.97
1019.574	123.05
1019.741	98.47
1019.907	499.88
1020.074	553.12
1020.241	-55.12
1020.407	-36.69
1020.574	555.17
1020.74	616.61
1020.907	32.94
1021.073	-38.74
1021.24	1015.96
1021.406	858.27
1021.573	123.05
1021.739	100.52
1021.906	688.29
1022.072	487.59
1022.239	121
1022.405	182.44
1022.571	510.11
1022.738	258.21
1022.904	65.71
1023.07	176.3
1023.237	526.5
1023.403	764.06
1023.569	77.99
1023.735	98.47
1023.902	540.83
1024.068	592.03
1024.234	82.09
1024.4	71.85
1024.566	503.97
1024.732	647.33
1024.898	45.23
1025.065	-57.17
1025.231	686.24
1025.397	465.06
1025.563	100.52
1025.729	-8.02
1025.895	51.37
1026.061	229.54
1026.227	-112.47
1026.392	127.14
1026.558	651.42
1026.724	569.51
1026.89	84.14
1027.056	139.43
1027.222	589.99
1027.388	260.26
1027.553	147.62
1027.719	57.51
1027.885	774.3
1028.051	534.69
1028.216	-67.41
1028.382	20.65
1028.548	676
1028.713	381.09
1028.879	-73.56
1029.045	282.79
1029.21	762.02
1029.376	618.66
1029.541	168.1
1029.707	92.33
1029.873	577.7
1030.038	690.34
1030.204	45.23
1030.369	88.23
1030.534	661.66
1030.7	268.45
1030.865	131.24
1031.031	61.61
1031.196	538.79
1031.361	530.59
1031.527	63.66
1031.692	-20.31
1031.857	73.9
1032.023	534.69
1032.188	-20.31
1032.353	98.47
1032.518	778.4
1032.684	481.44
1032.849	-126.8
1033.014	147.62
1033.179	639.14
1033.344	503.97
1033.509	161.96
1033.674	26.79
1033.839	587.94
1034.004	563.36
1034.17	18.6
1034.335	-110.42
1034.5	301.22
1034.664	254.12
1034.829	-12.12
1034.994	-26.45
1035.159	506.02
1035.324	430.24
1035.489	37.03
1035.654	55.47
1035.819	671.9
1035.984	516.26
1036.148	77.99
1036.313	90.28
1036.478	620.71
1036.643	495.78
1036.807	-73.56
1036.972	-104.28
1037.137	649.38
1037.301	426.15
1037.466	-186.19
1037.631	137.38
1037.795	692.38
1037.96	495.78
1038.124	184.49
1038.289	-1.88
1038.454	604.32
1038.618	585.89
1038.783	137.38
1038.947	100.52
1039.111	487.59
1039.276	268.45
1039.44	20.65
1039.605	479.4
1039.769	260.26
1039.933	401.57
1040.098	80.04
1040.262	241.83
1040.426	628.9
1040.591	651.42
1040.755	6.31
1040.919	20.65
1041.083	495.78
1041.248	333.99
1041.412	-143.19
1041.576	-87.89
1041.74	315.56
1041.904	538.79
1042.068	-46.93
1042.232	-94.04
1042.397	647.33
1042.561	483.49
1042.725	-245.59
1042.889	86.19
1043.053	487.59
1043.217	463.01
1043.381	61.61
1043.544	-171.86
1043.708	649.38
1043.872	137.38
1044.036	-270.16
1044.2	-233.3
1044.364	606.37
1044.528	712.86
1044.691	3264.63
1044.855	-81.75
1045.019	612.51
1045.183	551.07
1045.346	90.28
1045.51	-67.41
1045.674	518.31
1045.837	508.07
1046.001	61.61
1046.165	-98.13
1046.328	872.61
1046.492	407.72
1046.655	129.19
1046.819	135.34
1046.983	182.44
1047.146	374.95
1047.31	-20.31
1047.473	-249.68
1047.636	288.93
1047.8	114.86
1047.963	12.46
1048.127	-75.6
1048.29	256.17
