Data from Ink_Intensity_USB4F045381__147__00147.txt Node

Date: Mon Jul 17 11:27:31 EDT 2023
User: mmckonesweet
Spectrometer: USB4F04538
Trigger mode: 4
Integration Time (sec): 9.000000E-1
Scans to average: 1
Electric dark correction enabled: true
Nonlinearity correction enabled: false
Boxcar width: 0
XAxis mode: Wavelengths
Number of Pixels in Spectrum: 3648
>>>>>Begin Spectral Data<<<<<
345.52	-1051.29
345.736	-1051.29
345.952	-1051.29
346.168	-1036.95
346.384	-1055.39
346.6	-148.14
346.816	-254.63
347.032	-168.62
347.248	314.7
347.464	-268.97
347.68	-90.79
347.896	46.42
348.112	378.19
348.328	-45.74
348.544	-111.27
348.76	52.56
348.975	296.27
349.191	-205.48
349.407	-279.21
349.623	42.32
349.839	-33.45
350.055	-141.99
350.27	48.47
350.486	154.96
350.702	286.03
350.918	216.4
351.133	-266.92
351.349	126.29
351.565	343.38
351.781	-232.1
351.996	-76.46
352.212	189.78
352.428	-193.19
352.644	-187.05
352.859	-131.75
353.075	187.73
353.291	58.71
353.506	-168.62
353.722	-254.63
353.938	-98.99
354.153	382.29
354.369	99.67
354.584	-254.63
354.8	283.99
355.016	-252.58
355.231	-201.38
355.447	-80.55
355.662	122.2
355.878	867.66
356.093	-299.69
356.309	1.37
356.524	-185
356.74	236.88
356.955	-150.18
357.171	-10.92
357.386	167.25
357.602	-228.01
357.817	-152.23
358.033	-152.23
358.248	388.43
358.464	103.76
358.679	-236.2
358.895	-334.5
359.11	-6.83
359.325	329.04
359.541	89.43
359.756	-6.83
359.972	-283.3
360.187	171.35
360.402	-205.48
360.618	-148.14
360.833	1015.11
361.048	200.02
361.264	-187.05
361.479	-144.04
361.694	32.08
361.909	232.79
362.125	-232.1
362.34	-96.94
362.555	214.35
362.77	50.52
362.986	-262.82
363.201	-74.41
363.416	175.44
363.631	32.08
363.847	-199.34
364.062	-201.38
364.277	191.83
364.492	114
364.707	-148.14
364.922	-389.8
365.138	259.41
365.353	298.32
365.568	-221.86
365.783	-148.14
365.998	21.85
366.213	550.22
366.428	-336.55
366.643	60.76
366.858	267.6
367.073	197.97
367.288	-103.08
367.503	-260.77
367.718	105.81
367.933	294.22
368.148	-293.54
368.363	-103.08
368.578	-21.16
368.793	376.14
369.008	-141.99
369.223	-230.06
369.438	197.97
369.653	378.19
369.868	-326.31
370.083	-279.21
370.298	111.96
370.513	347.47
370.728	77.14
370.943	-260.77
371.157	-141.99
371.372	490.83
371.587	-344.74
371.802	-299.69
372.017	1.37
372.232	478.54
372.446	-101.03
372.661	-223.91
372.876	316.75
373.091	189.78
373.306	-123.56
373.52	-266.92
373.735	-193.19
373.95	329.04
374.165	-156.33
374.379	-129.7
374.594	-101.03
374.809	77.14
375.023	52.56
375.238	-295.59
375.453	222.55
375.667	-301.73
375.882	-164.52
376.097	-238.25
376.311	-37.55
376.526	-92.84
376.741	-213.67
376.955	58.71
377.17	462.16
377.384	607.56
377.599	-86.7
377.813	-256.68
378.028	574.8
378.242	138.58
378.457	-158.38
378.672	-336.55
378.886	34.13
379.101	-31.4
379.315	-283.3
379.53	-217.77
379.744	236.88
379.958	181.59
380.173	-236.2
380.387	-205.48
380.602	173.39
380.816	-98.99
381.031	-203.43
381.245	-94.89
381.459	187.73
381.674	822.6
381.888	-221.86
382.103	66.9
382.317	-209.58
382.531	384.34
382.746	-86.7
382.96	-176.81
383.174	-94.89
383.388	286.03
383.603	-58.03
383.817	-238.25
384.031	107.86
384.246	425.29
384.46	-55.98
384.674	370
384.888	-66.22
385.103	48.47
385.317	-277.16
385.531	-144.04
385.745	429.39
385.959	345.42
386.174	-238.25
386.388	-330.41
386.602	-37.55
386.816	-150.18
387.03	-133.8
387.244	-105.13
387.458	97.62
387.672	261.46
387.887	-330.41
388.101	-324.26
388.315	333.14
388.529	165.2
388.743	-141.99
388.957	-285.35
389.171	415.06
389.385	-162.47
389.599	-121.51
389.813	46.42
390.027	118.1
390.241	658.76
390.455	-152.23
390.669	-160.42
390.883	-21.16
391.097	417.1
391.311	9.56
391.525	-191.14
391.738	185.68
391.952	146.77
392.166	-76.46
392.38	-271.01
392.594	253.27
392.808	302.42
393.022	-90.79
393.236	-162.47
393.449	240.98
393.663	165.2
393.877	-326.31
394.091	-133.8
394.305	-70.31
394.518	-68.27
394.732	-320.17
394.946	-129.7
395.16	406.86
395.373	87.38
395.587	-223.91
395.801	-162.47
396.015	273.75
396.228	224.59
396.442	-277.16
396.656	-377.51
396.869	300.37
397.083	386.38
397.297	-123.56
397.51	-199.34
397.724	404.82
397.938	179.54
398.151	-271.01
398.365	-264.87
398.578	212.31
398.792	331.09
399.005	-129.7
399.219	-117.42
399.433	150.87
399.646	177.49
399.86	52.56
400.073	-37.55
400.287	271.7
400.5	-8.87
400.714	-94.89
400.927	-84.65
401.141	175.44
401.354	1191.24
401.567	226.64
401.781	-295.59
401.994	200.02
402.208	511.31
402.421	-185
402.635	-170.66
402.848	23.89
403.061	290.13
403.275	-58.03
403.488	-219.82
403.701	445.77
403.915	228.69
404.128	9.56
404.341	-250.53
404.555	157.01
404.768	62.8
404.981	71
405.195	-201.38
405.408	441.68
405.621	290.13
405.834	64.85
406.048	-301.73
406.261	341.33
406.474	523.6
406.687	-193.19
406.9	9.56
407.114	124.24
407.327	222.55
407.54	-336.55
407.753	-275.11
407.966	-53.93
408.179	165.2
408.392	-219.82
408.605	-332.45
408.819	163.15
409.032	148.82
409.245	-217.77
409.458	17.75
409.671	314.7
409.884	224.59
410.097	-307.88
410.31	7.51
410.523	154.96
410.736	-0.68
410.949	-123.56
411.162	-98.99
411.375	427.34
411.588	281.94
411.801	-0.68
412.014	-221.86
412.227	56.66
412.44	-64.17
412.653	-137.9
412.865	-78.51
413.078	324.94
413.291	318.8
413.504	-72.36
413.717	-156.33
413.93	228.69
414.143	-152.23
414.356	-205.48
414.568	-311.97
414.781	240.98
414.994	224.59
415.207	-101.03
415.42	-193.19
415.632	265.55
415.845	507.21
416.058	-295.59
416.271	-258.73
416.483	7.51
416.696	544.08
416.909	-240.29
417.121	-221.86
417.334	243.03
417.547	562.51
417.759	-250.53
417.972	-223.91
418.185	-148.14
418.397	240.98
418.61	-135.85
418.823	-178.86
419.035	408.91
419.248	93.52
419.46	-74.41
419.673	-66.22
419.885	159.06
420.098	-35.5
420.311	-203.43
420.523	-293.54
420.736	220.5
420.948	71
421.161	-203.43
421.373	-361.13
421.586	5.46
421.798	25.94
422.01	-385.7
422.223	-47.79
422.435	-41.64
422.648	185.68
422.86	-185
423.073	-228.01
423.285	333.14
423.497	-254.63
423.71	-139.94
423.922	-187.05
424.134	142.68
424.347	308.56
424.559	-37.55
424.771	50.52
424.984	-19.11
425.196	187.73
425.408	-277.16
425.621	-324.26
425.833	240.98
426.045	286.03
426.257	-311.97
426.47	-219.82
426.682	185.68
426.894	144.72
427.106	-146.09
427.318	-10.92
427.531	-70.31
427.743	122.2
427.955	-219.82
428.167	273.75
428.379	197.97
428.591	73.04
428.804	-88.75
429.016	-240.29
429.228	-88.75
429.44	173.39
429.652	-86.7
429.864	-279.21
430.076	-70.31
430.288	-41.64
430.5	-141.99
430.712	-144.04
430.924	216.4
431.136	85.33
431.348	-289.45
431.56	-117.42
431.772	30.04
431.984	-33.45
432.196	-189.1
432.408	-137.9
432.62	-0.68
432.832	175.44
433.044	85.33
433.256	-135.85
433.468	222.55
433.679	-266.92
433.891	-299.69
434.103	19.8
434.315	410.96
434.527	236.88
434.739	-103.08
434.95	-148.14
435.162	273.75
435.374	-88.75
435.586	-187.05
435.798	-180.9
436.009	-152.23
436.221	-86.7
436.433	-238.25
436.645	-119.46
436.856	-66.22
437.068	271.7
437.28	-172.71
437.491	56.66
437.703	222.55
437.915	122.2
438.126	-195.24
438.338	56.66
438.55	58.71
438.761	195.92
438.973	-207.53
439.184	-234.15
439.396	81.24
439.608	208.21
439.819	-221.86
440.031	-90.79
440.242	212.31
440.454	195.92
440.665	-228.01
440.877	-37.55
441.088	165.2
441.3	7.51
441.511	-258.73
441.723	-246.44
441.934	316.75
442.146	56.66
442.357	9.56
442.569	56.66
442.78	56.66
442.991	447.82
443.203	7.51
443.414	-344.74
443.626	433.49
443.837	-123.56
444.048	-242.34
444.26	-377.51
444.471	50.52
444.682	296.27
444.894	-361.13
445.105	-324.26
445.316	269.65
445.528	128.34
445.739	-135.85
445.95	-156.33
446.161	99.67
446.373	253.27
446.584	-148.14
446.795	-113.32
447.006	226.64
447.217	390.48
447.429	-301.73
447.64	-287.4
447.851	318.8
448.062	48.47
448.273	-336.55
448.484	-160.42
448.695	85.33
448.907	-70.31
449.118	-111.27
449.329	17.75
449.54	-96.94
449.751	-164.52
449.962	-195.24
450.173	-191.14
450.384	322.9
450.595	361.81
450.806	-225.96
451.017	-195.24
451.228	310.61
451.439	294.22
451.65	-162.47
451.861	-342.69
452.072	-123.56
452.283	3.41
452.494	32.08
452.705	-297.64
452.915	361.81
453.126	73.04
453.337	-117.42
453.548	-271.01
453.759	230.74
453.97	531.79
454.181	48.47
454.391	-135.85
454.602	132.44
454.813	44.37
455.024	-162.47
455.235	-117.42
455.445	132.44
455.656	179.54
455.867	-45.74
456.078	-221.86
456.288	62.8
456.499	77.14
456.71	-252.58
456.921	27.99
457.131	171.35
457.342	114
457.553	-62.12
457.763	-287.4
457.974	179.54
458.184	204.11
458.395	-336.55
458.606	-176.81
458.816	320.85
459.027	464.21
459.237	-49.83
459.448	-373.41
459.659	394.58
459.869	503.12
460.08	-350.89
460.29	-98.99
460.501	568.65
460.711	-21.16
460.922	-412.32
461.132	-266.92
461.343	601.42
461.553	-322.21
461.764	-240.29
461.974	-258.73
462.184	271.7
462.395	171.35
462.605	-185
462.816	-217.77
463.026	79.19
463.236	277.84
463.447	-258.73
463.657	-201.38
463.867	292.18
464.078	23.89
464.288	-141.99
464.498	-252.58
464.709	-47.79
464.919	42.32
465.129	-168.62
465.339	-234.15
465.55	157.01
465.76	228.69
465.97	-84.65
466.18	-193.19
466.391	324.94
466.601	163.15
466.811	-162.47
467.021	-293.54
467.231	79.19
467.441	349.52
467.651	-174.76
467.862	-373.41
468.072	126.29
468.282	351.57
468.492	-156.33
468.702	-144.04
468.912	3.41
469.122	656.72
469.332	60.76
469.542	-334.5
469.752	202.07
469.962	144.72
470.172	-250.53
470.382	-268.97
470.592	255.31
470.802	347.47
471.012	-27.31
471.222	-238.25
471.432	267.6
471.642	175.44
471.852	-53.93
472.062	-266.92
472.272	64.85
472.482	-193.19
472.691	-299.69
472.901	-318.12
473.111	126.29
473.321	539.98
473.531	-336.55
473.741	-98.99
473.95	226.64
474.16	255.31
474.37	-189.1
474.58	-271.01
474.79	447.82
474.999	302.42
475.209	-250.53
475.419	-293.54
475.628	-64.17
475.838	347.47
476.048	-146.09
476.258	-332.45
476.467	269.65
476.677	-37.55
476.886	-98.99
477.096	-150.18
477.306	-55.98
477.515	308.56
477.725	-131.75
477.935	-123.56
478.144	314.7
478.354	-103.08
478.563	-209.58
478.773	-250.53
478.982	183.63
479.192	240.98
479.401	-113.32
479.611	-336.55
479.82	-94.89
480.03	64.85
480.239	-279.21
480.449	-293.54
480.658	460.11
480.868	-68.27
481.077	-117.42
481.287	-94.89
481.496	187.73
481.705	367.95
481.915	34.13
482.124	-0.68
482.333	130.39
482.543	370
482.752	-195.24
482.961	-199.34
483.171	240.98
483.38	85.33
483.589	-111.27
483.799	-295.59
484.008	-45.74
484.217	269.65
484.426	-242.34
484.636	-352.93
484.845	187.73
485.054	-203.43
485.263	38.23
485.472	-131.75
485.682	396.62
485.891	91.48
486.1	-336.55
486.309	-264.87
486.518	124.24
486.727	392.53
486.936	-275.11
487.146	-170.66
487.355	439.63
487.564	-146.09
487.773	-158.38
487.982	-252.58
488.191	-64.17
488.4	38.23
488.609	-180.9
488.818	-211.62
489.027	634.19
489.236	394.58
489.445	-199.34
489.654	-303.78
489.863	212.31
490.072	79.19
490.281	130.39
490.49	-185
490.698	355.66
490.907	324.94
491.116	-189.1
491.325	-406.18
491.534	351.57
491.743	85.33
491.952	-82.6
492.16	-178.86
492.369	177.49
492.578	320.85
492.787	-162.47
492.996	-283.3
493.204	-148.14
493.413	552.27
493.622	-389.8
493.831	-369.32
494.039	394.58
494.248	-178.86
494.457	-260.77
494.665	-293.54
494.874	236.88
495.083	582.99
495.291	-195.24
495.5	-268.97
495.709	261.46
495.917	36.18
496.126	-199.34
496.335	-250.53
496.543	-12.97
496.752	134.48
496.96	-27.31
497.169	-287.4
497.377	54.61
497.586	378.19
497.794	-139.94
498.003	-326.31
498.211	73.04
498.42	433.49
498.628	-70.31
498.837	-271.01
499.045	277.84
499.254	140.63
499.462	-242.34
499.671	-217.77
499.879	511.31
500.087	329.04
500.296	-307.88
500.504	-242.34
500.713	154.96
500.921	638.28
501.129	-287.4
501.338	-234.15
501.546	124.24
501.754	126.29
501.962	-125.61
502.171	-299.69
502.379	230.74
502.587	478.54
502.795	-176.81
503.004	-254.63
503.212	64.85
503.42	312.66
503.628	-246.44
503.837	-146.09
504.045	234.83
504.253	449.87
504.461	-258.73
504.669	-342.69
504.877	154.96
505.085	468.3
505.294	-273.06
505.502	-68.27
505.71	15.7
505.918	290.13
506.126	-266.92
506.334	-228.01
506.542	56.66
506.75	163.15
506.958	-148.14
507.166	-133.8
507.374	60.76
507.582	474.45
507.79	-78.51
507.998	-287.4
508.206	165.2
508.414	216.4
508.622	-279.21
508.83	-189.1
509.037	365.9
509.245	48.47
509.453	-268.97
509.661	-271.01
509.869	193.87
510.077	101.72
510.285	-45.74
510.492	-438.95
510.7	662.86
510.908	-53.93
511.116	-217.77
511.324	-283.3
511.531	-39.59
511.739	173.39
511.947	-49.83
512.155	68.95
512.362	122.2
512.57	-119.46
512.778	-248.49
512.985	-393.89
513.193	286.03
513.401	333.14
513.608	-185
513.816	-250.53
514.024	197.97
514.231	343.38
514.439	-258.73
514.646	-164.52
514.854	286.03
515.061	367.95
515.269	-211.62
515.477	-213.67
515.684	-146.09
515.892	343.38
516.099	-359.08
516.307	-328.36
516.514	228.69
516.722	490.83
516.929	-176.81
517.136	-262.82
517.344	396.62
517.551	154.96
517.759	-264.87
517.966	-185
518.173	-37.55
518.381	91.48
518.588	-135.85
518.796	-287.4
519.003	261.46
519.21	77.14
519.418	-180.9
519.625	-29.35
519.832	85.33
520.039	154.96
520.247	-361.13
520.454	-197.29
520.661	322.9
520.868	243.03
521.076	-178.86
521.283	-146.09
521.49	755.02
521.697	154.96
521.904	-215.72
522.112	-201.38
522.319	240.98
522.526	202.07
522.733	-299.69
522.94	-295.59
523.147	42.32
523.354	253.27
523.561	-369.32
523.768	-152.23
523.975	300.37
524.183	111.96
524.39	-178.86
524.597	-295.59
524.804	140.63
525.011	-96.94
525.218	-287.4
525.425	-234.15
525.632	441.68
525.838	-98.99
526.045	-168.62
526.252	-205.48
526.459	1221.95
526.666	900.42
526.873	-277.16
527.08	-156.33
527.287	466.25
527.494	308.56
527.701	-369.32
527.907	-352.93
528.114	243.03
528.321	52.56
528.528	-180.9
528.735	-223.91
528.941	11.61
529.148	42.32
529.355	-68.27
529.562	-242.34
529.768	482.64
529.975	56.66
530.182	-207.53
530.388	-197.29
530.595	331.09
530.802	-62.12
531.008	-64.17
531.215	-160.42
531.422	499.02
531.628	789.83
531.835	-4.78
532.042	-98.99
532.248	13.65
532.455	167.25
532.661	-148.14
532.868	-195.24
533.074	210.26
533.281	318.8
533.487	-72.36
533.694	-254.63
533.9	-41.64
534.107	214.35
534.313	-275.11
534.52	-250.53
534.726	402.77
534.933	539.98
535.139	-316.07
535.345	-236.2
535.552	126.29
535.758	142.68
535.965	-250.53
536.171	-201.38
536.377	195.92
536.584	480.59
536.79	-217.77
536.996	-211.62
537.203	191.83
537.409	187.73
537.615	-176.81
537.821	-6.83
538.028	290.13
538.234	349.52
538.44	-250.53
538.646	-135.85
538.853	251.22
539.059	185.68
539.265	161.11
539.471	-377.51
539.677	355.66
539.883	89.43
540.09	-209.58
540.296	134.48
540.502	101.72
540.708	-47.79
540.914	-62.12
541.12	-172.71
541.326	245.07
541.532	130.39
541.738	-98.99
541.944	-121.51
542.15	343.38
542.356	85.33
542.562	-262.82
542.768	-105.13
542.974	685.39
543.18	617.8
543.386	-182.95
543.592	-283.3
543.798	392.53
544.004	419.15
544.21	-201.38
544.415	-172.71
544.621	109.91
544.827	343.38
545.033	-262.82
545.239	-17.07
545.445	-33.45
545.651	191.83
545.856	-244.39
546.062	-127.66
546.268	-4.78
546.474	58.71
546.679	-246.44
546.885	-94.89
547.091	36.18
547.297	535.89
547.502	-92.84
547.708	-295.59
547.914	-58.03
548.119	240.98
548.325	-311.97
548.531	-254.63
548.736	603.47
548.942	-33.45
549.147	-137.9
549.353	25.94
549.559	443.73
549.764	240.98
549.97	-137.9
550.175	-172.71
550.381	238.93
550.586	27.99
550.792	-45.74
550.997	-148.14
551.203	296.27
551.408	269.65
551.614	-277.16
551.819	-189.1
552.025	609.61
552.23	511.31
552.435	-246.44
552.641	75.09
552.846	-27.31
553.052	367.95
553.257	-74.41
553.462	-119.46
553.668	42.32
553.873	400.72
554.078	-223.91
554.283	-244.39
554.489	216.4
554.694	204.11
554.899	-217.77
555.105	52.56
555.31	322.9
555.515	370
555.72	-137.9
555.925	-228.01
556.131	343.38
556.336	-96.94
556.541	-209.58
556.746	-271.01
556.951	482.64
557.156	632.14
557.361	-43.69
557.567	-15.02
557.772	628.04
557.977	331.09
558.182	-137.9
558.387	-207.53
558.592	32.08
558.797	458.06
559.002	-154.28
559.207	-12.97
559.412	163.15
559.617	664.91
559.822	-92.84
560.027	-250.53
560.232	247.12
560.437	331.09
560.642	-371.36
560.847	-213.67
561.051	97.62
561.256	220.5
561.461	-78.51
561.666	-246.44
561.871	216.4
562.076	331.09
562.281	-66.22
562.485	-293.54
562.69	337.23
562.895	388.43
563.1	-96.94
563.305	-232.1
563.509	468.3
563.714	687.43
563.919	-115.37
564.123	-129.7
564.328	161.11
564.533	376.14
564.737	-33.45
564.942	-160.42
565.147	568.65
565.351	613.71
565.556	-82.6
565.761	-41.64
565.965	294.22
566.17	7.51
566.374	-76.46
566.579	-262.82
566.784	253.27
566.988	71
567.193	-185
567.397	-98.99
567.602	-109.22
567.806	138.58
568.011	-119.46
568.215	-92.84
568.42	130.39
568.624	95.57
568.828	-72.36
569.033	-17.07
569.237	318.8
569.442	294.22
569.646	-219.82
569.85	-78.51
570.055	204.11
570.259	277.84
570.463	77.14
570.668	-23.21
570.872	124.24
571.076	87.38
571.281	60.76
571.485	-21.16
571.689	288.08
571.893	400.72
572.098	-2.73
572.302	13.65
572.506	277.84
572.71	204.11
572.914	-82.6
573.119	-144.04
573.323	544.08
573.527	499.02
573.731	-131.75
573.935	-203.43
574.139	357.71
574.343	130.39
574.547	-17.07
574.751	-84.65
574.955	525.65
575.159	517.45
575.364	-37.55
575.568	-160.42
575.772	230.74
575.976	482.64
576.18	-74.41
576.383	-217.77
576.587	451.92
576.791	326.99
576.995	-174.76
577.199	-236.2
577.403	474.45
577.607	503.12
577.811	-123.56
578.015	62.8
578.219	302.42
578.422	429.39
578.626	11.61
578.83	77.14
579.034	525.65
579.238	320.85
579.442	-78.51
579.645	314.7
579.849	157.01
580.053	329.04
580.257	3.41
580.46	-23.21
580.664	439.63
580.868	415.06
581.071	171.35
581.275	126.29
581.479	-10.92
581.682	392.53
581.886	-35.5
582.09	-17.07
582.293	367.95
582.497	488.78
582.7	206.16
582.904	-84.65
583.107	181.59
583.311	230.74
583.515	32.08
583.718	52.56
583.922	355.66
584.125	644.43
584.329	-17.07
584.532	75.09
584.735	564.56
584.939	372.05
585.142	-242.34
585.346	3.41
585.549	335.18
585.753	103.76
585.956	-10.92
586.159	159.06
586.363	646.48
586.566	380.24
586.769	-45.74
586.973	-111.27
587.176	429.39
587.379	613.71
587.582	261.46
587.786	146.77
587.989	355.66
588.192	970.05
588.395	60.76
588.599	245.07
588.802	279.89
589.005	531.79
589.208	-51.88
589.411	-23.21
589.615	535.89
589.818	673.1
590.021	232.79
590.224	58.71
590.427	585.04
590.63	517.45
590.833	-115.37
591.036	-111.27
591.239	159.06
591.442	195.92
591.645	187.73
591.848	7.51
592.051	384.34
592.254	513.36
592.457	81.24
592.66	89.43
592.863	206.16
593.066	410.96
593.269	34.13
593.472	173.39
593.675	52.56
593.878	572.75
594.081	173.39
594.284	-58.03
594.486	509.26
594.689	406.86
594.892	214.35
595.095	128.34
595.298	527.69
595.5	140.63
595.703	148.82
595.906	175.44
596.109	693.58
596.311	630.09
596.514	-135.85
596.717	101.72
596.92	615.76
597.122	478.54
597.325	-115.37
597.528	11.61
597.73	677.2
597.933	302.42
598.136	38.23
598.338	-144.04
598.541	525.65
598.743	638.28
598.946	126.29
599.148	118.1
599.351	634.19
599.554	675.15
599.756	236.88
599.959	130.39
600.161	568.65
600.363	920.9
600.566	320.85
600.768	126.29
600.971	728.39
601.173	548.17
601.376	81.24
601.578	159.06
601.78	552.27
601.983	949.57
602.185	134.48
602.388	281.94
602.59	513.36
602.792	322.9
602.995	359.76
603.197	152.91
603.399	626
603.601	484.69
603.804	197.97
604.006	83.28
604.208	288.08
604.41	-21.16
604.613	376.14
604.815	144.72
605.017	879.94
605.219	294.22
605.421	482.64
605.623	163.15
605.826	724.3
606.028	810.31
606.23	179.54
606.432	154.96
606.634	863.56
606.836	812.36
607.038	-8.87
607.24	408.91
607.442	480.59
607.644	449.87
607.846	320.85
608.048	118.1
608.25	783.69
608.452	333.14
608.654	214.35
608.856	25.94
609.058	423.25
609.26	509.26
609.462	216.4
609.664	159.06
609.866	879.94
610.067	662.86
610.269	408.91
610.471	292.18
610.673	400.72
610.875	580.94
611.077	40.28
611.278	331.09
611.48	456.01
611.682	953.67
611.884	318.8
612.085	378.19
612.287	281.94
612.489	632.14
612.69	50.52
612.892	300.37
613.094	619.85
613.295	548.17
613.497	175.44
613.699	163.15
613.9	875.85
614.102	658.76
614.304	236.88
614.505	5.46
614.707	476.49
614.908	499.02
615.11	-29.35
615.311	333.14
615.513	701.77
615.714	697.67
615.916	101.72
616.117	298.32
616.319	415.06
616.52	720.2
616.722	226.64
616.923	204.11
617.124	771.4
617.326	609.61
617.527	263.51
617.729	619.85
617.93	623.95
618.131	709.96
618.333	257.36
618.534	347.47
618.735	363.86
618.937	875.85
619.138	107.86
619.339	277.84
619.54	650.57
619.742	433.49
619.943	380.24
620.144	400.72
620.345	757.07
620.546	763.21
620.748	165.2
620.949	316.75
621.15	544.08
621.351	656.72
621.552	302.42
621.753	173.39
621.954	179.54
622.155	986.44
622.356	136.53
622.558	464.21
622.759	515.41
622.96	1084.74
623.161	314.7
623.362	349.52
623.563	560.46
623.764	679.24
623.965	378.19
624.166	570.7
624.366	634.19
624.567	619.85
624.768	97.62
624.969	253.27
625.17	533.84
625.371	802.12
625.572	419.15
625.773	212.31
625.973	843.08
626.174	703.82
626.375	331.09
626.576	310.61
626.777	744.78
626.977	1107.27
627.178	337.23
627.379	544.08
627.58	585.04
627.78	652.62
627.981	511.31
628.182	445.77
628.382	855.37
628.583	302.42
628.784	175.44
628.984	453.97
629.185	849.22
629.386	865.61
629.586	441.68
629.787	326.99
629.987	777.55
630.188	630.09
630.388	476.49
630.589	394.58
630.79	1262.91
630.99	695.63
631.191	464.21
631.391	458.06
631.591	777.55
631.792	1031.49
631.992	494.93
632.193	361.81
632.393	1002.82
632.594	736.59
632.794	367.95
632.994	556.36
633.195	709.96
633.395	793.93
633.595	367.95
633.796	703.82
633.996	529.74
634.196	884.04
634.397	208.21
634.597	556.36
634.797	548.17
634.997	1058.12
635.198	630.09
635.398	302.42
635.598	759.11
635.798	1013.06
635.998	884.04
636.199	425.29
636.399	482.64
636.599	468.3
636.799	462.16
636.999	748.87
637.199	816.46
637.399	996.68
637.599	376.14
637.799	566.6
637.999	626
638.199	1109.32
638.399	464.21
638.599	507.21
638.799	845.13
638.999	1203.52
639.199	523.6
639.399	582.99
639.599	1023.3
639.799	572.75
639.999	439.63
640.199	408.91
640.399	787.79
640.599	892.23
640.799	591.18
640.998	707.91
641.198	1088.84
641.398	847.18
641.598	662.86
641.798	558.41
641.997	1729.85
642.197	765.26
642.397	642.38
642.597	425.29
642.796	890.18
642.996	1129.8
643.196	683.34
643.395	486.73
643.595	943.43
643.795	453.97
643.994	527.69
644.194	619.85
644.394	1033.54
644.593	748.87
644.793	466.25
644.992	707.91
645.192	884.04
645.392	425.29
645.591	703.82
645.791	630.09
645.99	986.44
646.19	787.79
646.389	671.05
646.589	664.91
646.788	941.38
646.987	1004.87
647.187	843.08
647.386	855.37
647.586	783.69
647.785	1082.69
647.984	621.9
648.184	722.25
648.383	681.29
648.582	752.97
648.782	662.86
648.981	777.55
649.18	640.33
649.38	974.15
649.579	650.57
649.778	626
649.977	1047.88
650.177	970.05
650.376	554.32
650.575	564.56
650.774	1338.69
650.973	646.48
651.173	499.02
651.372	732.49
651.571	945.48
651.77	1189.19
651.969	687.43
652.168	626
652.367	630.09
652.566	1006.92
652.765	570.7
652.964	965.96
653.163	1424.7
653.362	851.27
653.561	662.86
653.76	630.09
653.959	925
654.158	1004.87
654.357	863.56
654.556	707.91
654.755	1047.88
654.954	1082.69
655.153	787.79
655.352	787.79
655.551	1228.1
655.749	779.59
655.948	746.83
656.147	871.75
656.346	1035.59
656.545	959.81
656.743	787.79
656.942	793.93
657.141	929.1
657.34	838.98
657.538	746.83
657.737	826.7
657.936	783.69
658.135	1002.82
658.333	652.62
658.532	863.56
658.731	1410.37
658.929	1203.52
659.128	1043.78
659.326	720.2
659.525	1342.78
659.724	953.67
659.922	486.73
660.121	634.19
660.319	1092.93
660.518	886.09
660.716	634.19
660.915	693.58
661.113	1375.55
661.312	752.97
661.51	927.05
661.709	734.54
661.907	1123.65
662.105	1391.94
662.304	787.79
662.502	859.46
662.701	1207.62
662.899	945.48
663.097	1129.8
663.296	720.2
663.494	1285.44
663.692	1414.46
663.891	720.2
664.089	697.67
664.287	1158.47
664.485	1373.5
664.684	777.55
664.882	998.73
665.08	1021.25
665.278	1137.99
665.476	652.62
665.675	1144.13
665.873	1537.34
666.071	1303.87
666.269	744.78
666.467	1011.01
666.665	1115.46
666.863	953.67
667.061	986.44
667.259	875.85
667.457	1029.45
667.655	1332.55
667.853	830.79
668.051	982.34
668.249	927.05
668.447	1189.19
668.645	847.18
668.843	1150.28
669.041	1285.44
669.239	1072.45
669.437	886.09
669.635	927.05
669.833	1064.26
670.031	1287.49
670.229	988.49
670.426	1035.59
670.624	947.53
670.822	994.63
671.02	875.85
671.218	838.98
671.415	838.98
671.613	1164.61
671.811	1013.06
672.009	994.63
672.206	1342.78
672.404	1129.8
672.602	1133.89
672.799	992.58
672.997	1303.87
673.195	1492.29
673.392	1023.3
673.59	894.28
673.788	1275.2
673.985	744.78
674.183	1097.03
674.38	982.34
674.578	1447.23
674.775	1045.83
674.973	961.86
675.17	933.19
675.368	1606.97
675.565	1285.44
675.763	922.95
675.96	974.15
676.158	1475.9
676.355	1224
676.553	974.15
676.75	1035.59
676.947	1303.87
677.145	1228.1
677.342	1119.56
677.539	1158.47
677.737	1281.35
677.934	1735.99
678.131	1123.65
678.329	1002.82
678.526	1652.03
678.723	1348.93
678.92	984.39
679.118	1041.73
679.315	920.9
679.512	1647.93
679.709	1115.46
679.906	1082.69
680.104	1539.39
680.301	1320.26
680.498	875.85
680.695	949.57
680.892	1146.18
681.089	1158.47
681.286	1170.76
681.483	1023.3
681.68	1543.49
681.877	1469.76
682.075	1178.95
682.272	1262.91
682.469	1328.45
682.665	1244.48
682.862	908.62
683.059	888.14
683.256	1353.02
683.453	1277.25
683.65	1176.9
683.847	1135.94
684.044	1310.02
684.241	1193.28
684.438	1178.95
684.635	961.86
684.831	1672.51
685.028	1815.87
685.225	1109.32
685.422	1246.53
685.619	1094.98
685.815	1295.68
686.012	1097.03
686.209	957.77
686.405	1008.97
686.602	1469.76
686.799	1006.92
686.996	941.38
687.192	1029.45
687.389	1662.27
687.586	1137.99
687.782	1119.56
687.979	1660.22
688.175	1598.78
688.372	1105.22
688.568	1199.43
688.765	1183.04
688.962	1594.68
689.158	1234.24
689.355	994.63
689.551	1498.43
689.748	1201.47
689.944	1150.28
690.14	953.67
690.337	1557.82
690.533	1322.31
690.73	1219.91
690.926	1181
691.123	1391.94
691.319	1436.99
691.515	1090.88
691.712	1320.26
691.908	1455.42
692.104	1533.25
692.301	1250.63
692.497	1097.03
692.693	1602.88
692.889	1541.44
693.086	1377.6
693.282	884.04
693.478	1391.94
693.674	1830.2
693.87	1293.63
694.067	1023.3
694.263	1441.09
694.459	1301.83
694.655	1344.83
694.851	1250.63
695.047	1598.78
695.243	1588.54
695.439	1375.55
695.635	1127.75
695.831	1502.53
696.027	1428.8
696.224	1097.03
696.42	1594.68
696.615	1758.52
696.811	1561.92
697.007	1137.99
697.203	1211.71
697.399	1625.4
697.595	1703.23
697.791	1162.56
697.987	1342.78
698.183	1168.71
698.379	1273.15
698.575	1178.95
698.77	1258.82
698.966	1596.73
699.162	1785.15
699.358	1353.02
699.554	1219.91
699.749	1666.36
699.945	1670.46
700.141	1250.63
700.337	1443.14
700.532	1545.53
700.728	1350.98
700.924	1148.23
701.119	1140.04
701.315	1641.79
701.511	1453.38
701.706	1340.74
701.902	1211.71
702.097	1570.11
702.293	1545.53
702.489	1279.3
702.684	1256.77
702.88	1576.25
703.075	1305.92
703.271	1465.66
703.466	1103.17
703.662	1498.43
703.857	1686.84
704.053	1187.14
704.248	1252.67
704.443	1735.99
704.639	1799.48
704.834	1410.37
705.03	1215.81
705.225	1754.43
705.42	1959.22
705.616	1469.76
705.811	1191.24
706.006	1506.62
706.202	1471.81
706.397	1375.55
706.592	1201.47
706.787	1557.82
706.983	1586.49
707.178	1551.68
707.373	1404.22
707.568	1789.24
707.763	1809.72
707.959	1312.07
708.154	1344.83
708.349	1559.87
708.544	1588.54
708.739	1609.02
708.934	1267.01
709.129	1789.24
709.324	1875.26
709.519	1224
709.714	1287.49
709.909	1860.92
710.104	1754.43
710.299	1361.22
710.494	1256.77
710.689	1721.66
710.884	1688.89
711.079	1541.44
711.274	1592.64
711.469	1756.47
711.664	1705.28
711.859	1346.88
712.054	1541.44
712.249	1647.93
712.443	1918.26
712.638	1262.91
712.833	1330.5
713.028	1631.55
713.223	1611.07
713.417	1617.21
713.612	1387.84
713.807	1826.11
714.002	2137.4
714.196	1512.77
714.391	1459.52
714.586	1891.64
714.78	1525.05
714.975	1389.89
715.17	1379.65
715.364	1549.63
715.559	1948.98
715.754	1195.33
715.948	1357.12
716.143	2219.32
716.337	1699.13
716.532	1740.09
716.726	1367.36
716.921	1830.2
717.115	2094.39
717.31	1121.6
717.504	1924.41
717.699	1615.16
717.893	1838.39
718.088	1289.54
718.282	1295.68
718.476	1801.53
718.671	1789.24
718.865	1410.37
719.059	1391.94
719.254	1746.23
719.448	1979.7
719.642	2884.91
719.837	1154.37
720.031	1826.11
720.225	1959.22
720.419	1512.77
720.614	1297.73
720.808	1908.02
721.002	1703.23
721.196	1449.28
721.39	1436.99
721.585	2078.01
721.779	1803.58
721.973	1400.13
722.167	1350.98
722.361	1752.38
722.555	2047.29
722.749	1404.22
722.943	1465.66
723.137	1543.49
723.331	1795.39
723.525	1426.75
723.719	1428.8
723.913	1869.11
724.107	2004.28
724.301	1256.77
724.495	1609.02
724.689	2260.27
724.883	1934.65
725.077	1555.77
725.271	1430.85
725.465	2026.81
725.659	1793.34
725.853	1588.54
726.046	1371.46
726.24	1568.06
726.434	1998.13
726.628	1596.73
726.822	1508.67
727.015	2145.59
727.209	2127.16
727.403	1606.97
727.596	1381.7
727.79	2063.67
727.984	2118.96
728.177	1611.07
728.371	1563.97
728.565	1967.42
728.758	1576.25
728.952	1449.28
729.146	1566.01
729.339	2141.49
729.533	1824.06
729.726	1643.84
729.92	1449.28
730.113	2164.02
730.307	1813.82
730.5	1461.57
730.694	1580.35
730.887	1803.58
731.081	2047.29
731.274	1492.29
731.468	1643.84
731.661	1953.08
731.854	1774.91
732.048	1568.06
732.241	1453.38
732.435	1762.62
732.628	1852.73
732.821	1678.65
733.014	1488.19
733.208	1666.36
733.401	2047.29
733.594	1606.97
733.788	1627.45
733.981	2092.34
734.174	2061.62
734.367	1557.82
734.56	1779
734.754	2059.57
734.947	1924.41
735.14	1656.12
735.333	1666.36
735.526	2092.34
735.719	1742.14
735.912	1490.24
736.105	1621.31
736.298	1891.64
736.491	1756.47
736.684	1645.88
736.877	1578.3
737.07	2018.61
737.263	2182.45
737.456	1662.27
737.649	1639.74
737.842	1731.9
738.035	1926.46
738.228	1662.27
738.421	1805.63
738.614	2235.7
738.807	2125.11
739	1447.23
739.192	1652.03
739.385	2088.25
739.578	2168.12
739.771	1893.69
739.964	1670.46
740.156	1979.7
740.349	1887.54
740.542	1885.5
740.735	1529.15
740.927	1647.93
741.12	1781.05
741.313	1580.35
741.505	1944.89
741.698	2016.57
741.891	2112.82
742.083	1916.22
742.276	1772.86
742.468	1989.94
742.661	1840.44
742.854	1770.81
743.046	1787.19
743.239	2403.63
743.431	1942.84
743.624	1785.15
743.816	1541.44
744.009	1815.87
744.201	2127.16
744.393	1989.94
744.586	1649.98
744.778	2202.93
744.971	2039.09
745.163	1809.72
745.355	1867.06
745.548	2051.38
745.74	1891.64
745.932	1787.19
746.125	1649.98
746.317	2524.46
746.509	1981.75
746.702	1764.67
746.894	1766.71
747.086	2098.49
747.278	2293.04
747.471	1961.27
747.663	1940.79
747.855	1998.13
748.047	2346.29
748.239	1797.43
748.431	1819.96
748.623	2313.52
748.815	2409.78
749.008	1678.65
749.2	1676.6
749.392	2254.13
749.584	2190.64
749.776	1848.63
749.968	1922.36
750.16	2465.07
750.352	2039.09
750.544	1875.26
750.736	1828.15
750.928	2153.78
751.12	2159.92
751.311	1893.69
751.503	1895.74
751.695	2211.12
751.887	2008.37
752.079	1609.02
752.271	1699.13
752.463	2858.28
752.654	2290.99
752.846	1754.43
753.038	1819.96
753.23	1879.35
753.421	2284.85
753.613	1877.3
753.805	2043.19
753.997	2399.54
754.188	2352.43
754.38	1738.04
754.572	1860.92
754.763	2114.87
754.955	2190.64
755.146	1994.04
755.338	1975.61
755.53	2164.02
755.721	2096.44
755.913	1682.75
756.104	1764.67
756.296	1963.32
756.487	2309.43
756.679	1752.38
756.87	1867.06
757.062	2022.71
757.253	2252.08
757.445	1903.93
757.636	1930.55
757.827	2141.49
758.019	2727.21
758.21	1791.29
758.401	1795.39
758.593	2708.78
758.784	2313.52
758.975	1770.81
759.167	1842.49
759.358	2094.39
759.549	2420.02
759.74	1897.78
759.932	1873.21
760.123	2440.5
760.314	2014.52
760.505	1957.18
760.696	1842.49
760.888	2489.65
761.079	2037.05
761.27	1840.44
761.461	1637.69
761.652	2503.98
761.843	2116.92
762.034	1779
762.225	2137.4
762.416	2176.31
762.607	2084.15
762.798	2010.42
762.989	1895.74
763.18	2895.15
763.371	1977.66
763.562	1910.07
763.753	1918.26
763.944	2428.21
764.135	2434.35
764.326	2043.19
764.517	1834.3
764.708	2145.59
764.899	2276.66
765.089	1828.15
765.28	1719.61
765.471	2288.95
765.662	2264.37
765.853	2090.29
766.043	1709.37
766.234	2256.18
766.425	2524.46
766.615	1932.6
766.806	1723.71
766.997	2446.64
767.187	2315.57
767.378	1879.35
767.569	1672.51
767.759	2256.18
767.95	2313.52
768.141	2092.34
768.331	1922.36
768.522	2151.73
768.712	2260.27
768.903	1822.01
769.093	1774.91
769.284	2448.69
769.474	2254.13
769.665	1758.52
769.855	1836.35
770.046	2282.8
770.236	2092.34
770.426	1938.74
770.617	1803.58
770.807	2307.38
770.998	2133.3
771.188	2049.33
771.378	1785.15
771.569	2358.58
771.759	2313.52
771.949	1690.94
772.139	1674.56
772.33	2133.3
772.52	2583.85
772.71	1879.35
772.9	1783.1
773.09	2688.3
773.281	2438.45
773.471	1772.86
773.661	1822.01
773.851	2356.53
774.041	1996.09
774.231	1740.09
774.421	2030.9
774.611	2518.32
774.802	2196.79
774.992	1981.75
775.182	1801.53
775.372	2270.51
775.562	2426.16
775.752	1817.91
775.942	1912.12
776.131	2538.8
776.321	2221.36
776.511	1797.43
776.701	1879.35
776.891	2370.87
777.081	1924.41
777.271	2024.76
777.461	1801.53
777.651	2424.11
777.84	2346.29
778.03	2030.9
778.22	1770.81
778.41	2458.93
778.599	2075.96
778.789	1912.12
778.979	1752.38
779.169	2309.43
779.358	2204.98
779.548	2157.88
779.738	1727.8
779.927	2221.36
780.117	1955.13
780.307	1963.32
780.496	1672.51
780.686	2276.66
780.875	2647.34
781.065	1920.31
781.254	1899.83
781.444	2123.06
781.633	2219.32
781.823	1801.53
782.012	1885.5
782.202	2102.58
782.391	2270.51
782.581	1850.68
782.77	2090.29
782.96	2368.82
783.149	2088.25
783.338	1946.94
783.528	1748.28
783.717	2428.21
783.906	2440.5
784.096	2116.92
784.285	1912.12
784.474	2088.25
784.663	2096.44
784.853	1891.64
785.042	1908.02
785.231	2098.49
785.42	2471.22
785.61	1948.98
785.799	1785.15
785.988	2041.14
786.177	2116.92
786.366	1973.56
786.555	2053.43
786.744	2555.18
786.933	2276.66
787.122	1877.3
787.312	1877.3
787.501	2000.18
787.69	2350.39
787.879	1789.24
788.068	1801.53
788.257	1944.89
788.445	2059.57
788.634	1981.75
788.823	1850.68
789.012	2858.28
789.201	2489.65
789.39	1887.54
789.579	1895.74
789.768	2235.7
789.957	2161.97
790.145	1875.26
790.334	1619.26
790.523	2108.73
790.712	2112.82
790.9	1879.35
791.089	1752.38
791.278	2399.54
791.467	2321.71
791.655	2127.16
791.844	2391.34
792.033	2028.85
792.221	2231.6
792.41	2080.05
792.599	1762.62
792.787	2391.34
792.976	2315.57
793.164	1760.57
793.353	1871.16
793.541	2381.11
793.73	2334
793.918	2016.57
794.107	1981.75
794.295	2153.78
794.484	2168.12
794.672	1869.11
794.861	2045.24
795.049	2434.35
795.238	2620.72
795.426	1797.43
795.614	1975.61
795.803	2266.42
795.991	2473.26
796.179	1979.7
796.368	1998.13
796.556	2489.65
796.744	2006.33
796.932	1844.54
797.121	1735.99
797.309	2278.71
797.497	2448.69
797.685	1971.51
797.874	1862.97
798.062	2100.53
798.25	2614.57
798.438	1850.68
798.626	1959.22
798.814	2272.56
799.002	2780.46
799.19	2157.88
799.378	1967.42
799.566	2430.26
799.755	2590
799.943	2116.92
800.131	1891.64
800.318	2360.63
800.506	2309.43
800.694	1963.32
800.882	2161.97
801.07	2530.61
801.258	2178.36
801.446	2006.33
801.634	1865.02
801.822	2293.04
802.01	2309.43
802.197	2061.62
802.385	2116.92
802.573	2334
802.761	2069.81
802.949	2043.19
803.136	1879.35
803.324	2546.99
803.512	2370.87
803.699	2043.19
803.887	1795.39
804.075	2587.95
804.262	2286.9
804.45	1883.45
804.638	2100.53
804.825	2032.95
805.013	2184.5
805.201	2121.01
805.388	1895.74
805.576	2219.32
805.763	2768.17
805.951	1932.6
806.138	2223.41
806.326	2764.08
806.513	2569.52
806.701	2104.63
806.888	2131.25
807.075	2503.98
807.263	2864.43
807.45	1944.89
807.638	2379.06
807.825	2874.67
808.012	2612.53
808.2	2145.59
808.387	2458.93
808.574	2575.66
808.761	2759.98
808.949	2141.49
809.136	2159.92
809.323	2358.58
809.51	2293.04
809.698	2438.45
809.885	2307.38
810.072	2604.33
810.259	2768.17
810.446	2106.68
810.633	2129.2
810.82	2714.92
811.008	2741.55
811.195	2411.82
811.382	2256.18
811.569	2413.87
811.756	2215.22
811.943	2264.37
812.13	2293.04
812.317	2415.92
812.504	2327.86
812.691	2325.81
812.878	2280.75
813.064	2866.47
813.251	2549.04
813.438	2073.91
813.625	2350.39
813.812	2364.72
813.999	2514.22
814.186	2350.39
814.372	2321.71
814.559	2546.99
814.746	2860.33
814.933	2340.15
815.12	2448.69
815.306	2397.49
815.493	2417.97
815.68	2202.93
815.866	2311.47
816.053	2735.4
816.24	3022.12
816.426	2284.85
816.613	2288.95
816.799	2784.55
816.986	2858.28
817.173	2180.4
817.359	2327.86
817.546	2637.1
817.732	2209.08
817.919	1967.42
818.105	2374.96
818.292	2377.01
818.478	2696.49
818.665	2403.63
818.851	2231.6
819.037	3073.32
819.224	2594.09
819.41	2153.78
819.597	2301.23
819.783	2940.2
819.969	2616.62
820.156	2436.4
820.342	2168.12
820.528	3368.23
820.714	2403.63
820.901	2616.62
821.087	2469.17
821.273	3026.22
821.459	2475.31
821.646	2229.56
821.832	2215.22
822.018	2714.92
822.204	2503.98
822.39	2297.14
822.576	2166.07
822.762	2708.78
822.948	2678.06
823.134	2569.52
823.32	2307.38
823.507	2297.14
823.693	2555.18
823.879	2708.78
824.065	2174.26
824.25	2610.48
824.436	2448.69
824.622	2407.73
824.808	2192.69
824.994	2299.19
825.18	2448.69
825.366	2194.74
825.552	2317.62
825.738	2526.51
825.923	2729.26
826.109	2506.03
826.295	2297.14
826.481	2374.96
826.667	2434.35
826.852	2546.99
827.038	2192.69
827.224	2784.55
827.409	3038.5
827.595	2159.92
827.781	2417.97
827.966	2852.14
828.152	2964.78
828.338	2313.52
828.523	2080.05
828.709	2448.69
828.894	2745.64
829.08	2481.46
829.266	2182.45
829.451	2389.3
829.637	2641.2
829.822	2350.39
830.008	2211.12
830.193	2729.26
830.378	2823.47
830.564	2350.39
830.749	2321.71
830.935	2723.12
831.12	2739.5
831.305	2350.39
831.491	2448.69
831.676	2334
831.861	2759.98
832.047	2409.78
832.232	2186.55
832.417	2759.98
832.602	2682.16
832.788	2260.27
832.973	2295.09
833.158	2594.09
833.343	2540.85
833.528	2334
833.714	2297.14
833.899	2805.03
834.084	2989.35
834.269	2475.31
834.454	2403.63
834.639	2725.16
834.824	2647.34
835.009	2641.2
835.194	2463.02
835.379	2800.94
835.564	2960.68
835.749	2506.03
835.934	2090.29
836.119	2622.77
836.304	2542.89
836.489	2315.57
836.674	2641.2
836.859	2295.09
837.044	2870.57
837.228	2514.22
837.413	2065.72
837.598	2669.87
837.783	2886.95
837.968	2370.87
838.152	2200.88
838.337	2198.84
838.522	2938.15
838.707	2796.84
838.891	2460.98
839.076	2766.12
839.261	2805.03
839.445	2262.32
839.63	2362.67
839.815	3042.6
839.999	2522.41
840.184	2342.19
840.368	2290.99
840.553	2882.86
840.737	2800.94
840.922	2211.12
841.106	2254.13
841.291	2366.77
841.475	2510.13
841.66	2159.92
841.844	2297.14
842.029	3261.73
842.213	2301.23
842.397	2407.73
842.582	2161.97
842.766	2884.91
842.951	2841.9
843.135	2434.35
843.319	2379.06
843.504	2514.22
843.688	2942.25
843.872	2166.07
844.056	2243.89
844.241	2727.21
844.425	2555.18
844.609	2559.28
844.793	2032.95
844.977	2745.64
845.161	2698.54
845.346	2358.58
845.53	2237.75
845.714	2530.61
845.898	2841.9
846.082	2092.34
846.266	2266.42
846.45	2592.05
846.634	2649.39
846.818	2241.84
847.002	2546.99
847.186	2903.34
847.37	2293.04
847.554	2258.23
847.738	2426.16
847.922	2733.36
848.106	2606.38
848.29	2256.18
848.473	2264.37
848.657	2696.49
848.841	2647.34
849.025	2358.58
849.209	2016.57
849.392	2716.97
849.576	2452.78
849.76	1969.46
849.944	2387.25
850.127	2864.43
850.311	2426.16
850.495	2059.57
850.678	2155.83
850.862	2835.75
851.046	2970.92
851.229	2456.88
851.413	2225.46
851.596	2624.81
851.78	2495.79
851.964	2516.27
852.147	2204.98
852.331	3333.41
852.514	2862.38
852.698	2313.52
852.881	2149.68
853.065	2686.25
853.248	2690.35
853.431	2460.98
853.615	2344.24
853.798	3073.32
853.982	2540.85
854.165	2379.06
854.348	2360.63
854.532	2364.72
854.715	2352.43
854.898	2309.43
855.081	2176.31
855.265	2719.02
855.448	2944.3
855.631	2266.42
855.814	2196.79
855.997	2768.17
856.181	2424.11
856.364	2364.72
856.547	2186.55
856.73	2602.29
856.913	2690.35
857.096	2133.3
857.279	2399.54
857.462	2536.75
857.645	2911.53
857.828	2389.3
858.011	2336.05
858.194	2444.59
858.377	2661.68
858.56	2108.73
858.743	2252.08
858.926	2426.16
859.109	2587.95
859.292	2221.36
859.475	2102.58
859.658	2694.44
859.841	2669.87
860.023	2026.81
860.206	2149.68
860.389	2577.71
860.572	2829.61
860.755	2254.13
860.937	2256.18
861.12	2532.65
861.303	2440.5
861.486	2407.73
861.668	2078.01
861.851	2747.69
862.034	2645.29
862.216	2243.89
862.399	2022.71
862.581	2538.8
862.764	2915.62
862.947	2290.99
863.129	2053.43
863.312	2153.78
863.494	2862.38
863.677	2526.51
863.859	2018.61
864.042	2698.54
864.224	2735.4
864.406	2260.27
864.589	1979.7
864.771	2624.81
864.954	2334
865.136	2202.93
865.318	2047.29
865.501	2635.05
865.683	1994.04
865.865	2198.84
866.048	2174.26
866.23	2579.76
866.412	2473.26
866.594	2045.24
866.777	2360.63
866.959	2647.34
867.141	2336.05
867.323	2399.54
867.505	2383.15
867.687	2460.98
867.869	2403.63
868.052	2129.2
868.234	2188.6
868.416	2420.02
868.598	2528.56
868.78	2194.74
868.962	2051.38
869.144	2714.92
869.326	2628.91
869.508	2215.22
869.69	2299.19
869.872	2389.3
870.054	2778.41
870.236	2035
870.417	2145.59
870.599	2401.58
870.781	2831.66
870.963	2354.48
871.145	2088.25
871.327	2139.44
871.508	2688.3
871.69	2069.81
871.872	2211.12
872.054	2395.44
872.235	2590
872.417	2245.94
872.599	2110.77
872.78	2805.03
872.962	2415.92
873.144	1940.79
873.325	2327.86
873.507	2751.79
873.689	2645.29
873.87	1899.83
874.052	2254.13
874.233	2448.69
874.415	2657.58
874.596	2247.99
874.778	2065.72
874.959	2458.93
875.141	2704.68
875.322	2190.64
875.503	2078.01
875.685	2592.05
875.866	2194.74
876.048	2088.25
876.229	2161.97
876.41	2530.61
876.592	2630.96
876.773	2104.63
876.954	2127.16
877.136	2882.86
877.317	2473.26
877.498	2026.81
877.679	2260.27
877.86	2669.87
878.042	2653.48
878.223	2194.74
878.404	2551.09
878.585	2739.5
878.766	2985.26
878.947	2442.54
879.128	2391.34
879.309	2729.26
879.49	2895.15
879.672	2442.54
879.853	2272.56
880.034	2309.43
880.215	2555.18
880.396	2458.93
880.576	2329.91
880.757	2391.34
880.938	2895.15
881.119	2137.4
881.3	2256.18
881.481	2530.61
881.662	3403.04
881.843	2247.99
882.023	2219.32
882.204	2643.25
882.385	2649.39
882.566	2407.73
882.747	2313.52
882.927	2614.57
883.108	2620.72
883.289	2305.33
883.469	2469.17
883.65	2538.8
883.831	2635.05
884.011	2532.65
884.192	2434.35
884.373	2802.99
884.553	2649.39
884.734	2616.62
884.914	2653.48
885.095	3319.07
885.275	3192.1
885.456	2723.12
885.636	2295.09
885.817	2774.32
885.997	2637.1
886.178	2479.41
886.358	2477.36
886.538	2759.98
886.719	3771.68
886.899	2424.11
887.08	2422.06
887.26	3022.12
887.44	2641.2
887.621	2413.87
887.801	2569.52
887.981	3294.5
888.161	3013.93
888.342	2503.98
888.522	2456.88
888.702	3061.03
888.882	3101.99
889.062	2684.2
889.242	2334
889.423	3167.53
889.603	3028.26
889.783	2850.09
889.963	2485.55
890.143	3038.5
890.323	3003.69
890.503	2501.94
890.683	2653.48
890.863	2829.61
891.043	2960.68
891.223	2596.14
891.403	2841.9
891.583	2833.71
891.763	2886.95
891.943	2620.72
892.122	2534.7
892.302	2843.95
892.482	2868.52
892.662	2661.68
892.842	2694.44
893.022	3091.75
893.201	2731.31
893.381	2762.03
893.561	2569.52
893.741	2995.5
893.92	2889
894.1	2811.18
894.28	2708.78
894.459	3231.01
894.639	3042.6
894.819	2534.7
894.998	2856.23
895.178	3106.09
895.357	2940.2
895.537	2495.79
895.716	2481.46
895.896	2915.62
896.075	3167.53
896.255	2546.99
896.434	2460.98
896.614	3241.25
896.793	3136.81
896.973	2710.83
897.152	2807.08
897.331	2989.35
897.511	3085.61
897.69	2417.97
897.87	2673.96
898.049	3101.99
898.228	2944.3
898.407	2825.51
898.587	2899.24
898.766	2764.08
898.945	3179.81
899.124	2995.5
899.304	2540.85
899.483	3101.99
899.662	3466.53
899.841	2714.92
900.02	2690.35
900.199	3245.35
900.378	3038.5
900.557	2639.15
900.737	2501.94
900.916	2997.54
901.095	3130.66
901.274	2917.67
901.453	2510.13
901.632	2702.64
901.811	2845.99
901.989	2540.85
902.168	2612.53
902.347	3032.36
902.526	2792.75
902.705	2522.41
902.884	2647.34
903.063	3276.07
903.242	3214.63
903.42	2571.57
903.599	2690.35
903.778	3116.33
903.957	3241.25
904.135	2841.9
904.314	2745.64
904.493	2866.47
904.672	3083.56
904.85	2737.45
905.029	2546.99
905.207	3015.98
905.386	3595.55
905.565	2403.63
905.743	2596.14
905.922	2805.03
906.1	3095.85
906.279	2465.07
906.457	2655.53
906.636	2891.05
906.814	2860.33
906.993	2600.24
907.171	2493.74
907.35	2995.5
907.528	3083.56
907.707	2870.57
907.885	2391.34
908.063	3239.2
908.242	2682.16
908.42	2620.72
908.598	2254.13
908.777	2889
908.955	2759.98
909.133	2503.98
909.311	2467.12
909.49	2786.6
909.668	2891.05
909.846	2587.95
910.024	2381.11
910.202	2770.22
910.38	2979.11
910.559	2501.94
910.737	2530.61
910.915	2874.67
911.093	2823.47
911.271	2630.96
911.449	2827.56
911.627	2895.15
911.805	3460.38
911.983	2612.53
912.161	2428.21
912.339	2868.52
912.517	3065.13
912.695	2764.08
912.872	2567.47
913.05	2759.98
913.228	2854.19
913.406	2489.65
913.584	2393.39
913.762	2919.72
913.939	2620.72
914.117	2411.82
914.295	2430.26
914.473	2845.99
914.65	2764.08
914.828	2354.48
915.006	2473.26
915.184	2465.07
915.361	2780.46
915.539	2546.99
915.716	2639.15
915.894	2839.85
916.072	2819.37
916.249	2669.87
916.427	2624.81
916.604	2325.81
916.782	2895.15
916.959	2383.15
917.137	2538.8
917.314	2721.07
917.492	2721.07
917.669	2469.17
917.847	2508.08
918.024	2682.16
918.201	2587.95
918.379	2473.26
918.556	2565.42
918.733	2788.65
918.911	2665.77
919.088	2581.81
919.265	2370.87
919.442	2704.68
919.62	2661.68
919.797	2245.94
919.974	2180.4
920.151	2678.06
920.328	2659.63
920.506	2313.52
920.683	2542.89
920.86	2403.63
921.037	2383.15
921.214	2350.39
921.391	2182.45
921.568	2731.31
921.745	2436.4
921.922	2385.2
922.099	2241.84
922.276	2755.88
922.453	2598.19
922.63	2184.5
922.807	2540.85
922.984	2657.58
923.161	2448.69
923.338	2293.04
923.514	2295.09
923.691	2544.94
923.868	2682.16
924.045	2190.64
924.222	2118.96
924.399	2471.22
924.575	2708.78
924.752	2379.06
924.929	2254.13
925.105	2596.14
925.282	2200.88
925.459	2329.91
925.635	2321.71
925.812	2512.17
925.989	2188.6
926.165	2231.6
926.342	2028.85
926.518	2247.99
926.695	2389.3
926.871	2129.2
927.048	1905.98
927.224	2540.85
927.401	2331.95
927.577	2217.27
927.754	2098.49
927.93	2608.43
928.107	2546.99
928.283	2127.16
928.459	2168.12
928.636	2383.15
928.812	2252.08
928.988	2137.4
929.165	1842.49
929.341	2200.88
929.517	2331.95
929.693	2315.57
929.87	1674.56
930.046	2497.84
930.222	2227.51
930.398	1840.44
930.574	2139.44
930.751	2258.23
930.927	2194.74
931.103	1991.99
931.279	1965.37
931.455	1922.36
931.631	2202.93
931.807	1783.1
931.983	1895.74
932.159	1813.82
932.335	2100.53
932.511	1891.64
932.687	1908.02
932.863	2145.59
933.039	2051.38
933.215	1692.99
933.391	1701.18
933.566	2106.68
933.742	2092.34
933.918	1813.82
934.094	1662.27
934.27	1914.17
934.445	1936.7
934.621	1922.36
934.797	1596.73
934.973	2018.61
935.148	1977.66
935.324	1588.54
935.5	1400.13
935.675	2092.34
935.851	1996.09
936.027	1625.4
936.202	1531.2
936.378	1944.89
936.553	1731.9
936.729	2004.28
936.904	1492.29
937.08	1406.27
937.255	1549.63
937.431	1387.84
937.606	1305.92
937.782	1643.84
937.957	1652.03
938.133	1393.98
938.308	1260.87
938.483	1441.09
938.659	1264.96
938.834	1359.17
939.009	1236.29
939.185	1398.08
939.36	1301.83
939.535	920.9
939.71	1359.17
939.886	1721.66
940.061	1498.43
940.236	1275.2
940.411	1129.8
940.586	1490.24
940.761	1436.99
940.937	1215.81
941.112	1019.21
941.287	1383.74
941.462	1383.74
941.637	974.15
941.812	1103.17
941.987	1271.11
942.162	1287.49
942.337	1119.56
942.512	974.15
942.687	1461.57
942.862	1256.77
943.037	859.46
943.212	695.63
943.386	1295.68
943.561	1238.34
943.736	1166.66
943.911	1275.2
944.086	1314.11
944.26	1267.01
944.435	929.1
944.61	1031.49
944.785	1361.22
944.959	1656.12
945.134	935.24
945.309	802.12
945.483	994.63
945.658	1359.17
945.833	656.72
946.007	722.25
946.182	1518.91
946.357	884.04
946.531	802.12
946.706	890.18
946.88	691.53
947.055	1140.04
947.229	978.25
947.404	810.31
947.578	1416.51
947.752	1129.8
947.927	802.12
948.101	746.83
948.276	1140.04
948.45	1101.12
948.624	1074.5
948.799	800.07
948.973	1252.67
949.147	800.07
949.321	896.33
949.496	836.94
949.67	1412.42
949.844	1170.76
950.018	855.37
950.193	912.71
950.367	1666.36
950.541	1099.08
950.715	1078.6
950.889	1084.74
951.063	1039.69
951.237	1279.3
951.411	660.81
951.585	738.63
951.759	1279.3
951.933	1115.46
952.107	877.9
952.281	1084.74
952.455	1412.42
952.629	1355.07
952.803	941.38
952.977	875.85
953.151	1293.63
953.325	1260.87
953.499	1148.23
953.672	812.36
953.846	877.9
954.02	1056.07
954.194	750.92
954.368	826.7
954.541	1248.58
954.715	1054.02
954.889	1043.78
955.062	765.26
955.236	1178.95
955.41	1019.21
955.583	1045.83
955.757	757.07
955.93	994.63
956.104	892.23
956.278	855.37
956.451	877.9
956.625	1135.94
956.798	1572.16
956.972	1060.17
957.145	798.03
957.319	1160.52
957.492	982.34
957.665	1090.88
957.839	828.74
958.012	1219.91
958.185	998.73
958.359	834.89
958.532	1068.36
958.705	1324.35
958.879	1166.66
959.052	978.25
959.225	646.48
959.398	1178.95
959.572	1256.77
959.745	826.7
959.918	927.05
960.091	1027.4
960.264	1195.33
960.438	716.11
960.611	695.63
960.784	1393.98
960.957	953.67
961.13	1205.57
961.303	791.88
961.476	1123.65
961.649	1260.87
961.822	675.15
961.995	947.53
962.168	1213.76
962.341	1142.08
962.514	873.8
962.686	900.42
962.859	1203.52
963.032	1226.05
963.205	843.08
963.378	654.67
963.551	1193.28
963.723	1072.45
963.896	939.34
964.069	1084.74
964.242	1092.93
964.414	1320.26
964.587	884.04
964.76	881.99
964.932	1135.94
965.105	1076.55
965.278	843.08
965.45	912.71
965.623	1092.93
965.795	1230.15
965.968	773.45
966.14	861.51
966.313	1062.21
966.485	1109.32
966.658	814.41
966.83	650.57
967.003	1293.63
967.175	1267.01
967.348	888.14
967.52	892.23
967.692	1467.71
967.865	1152.32
968.037	834.89
968.209	1101.12
968.382	1109.32
968.554	1256.77
968.726	877.9
968.898	750.92
969.071	1117.51
969.243	1232.19
969.415	826.7
969.587	988.49
969.759	1662.27
969.932	1289.54
970.104	959.81
970.276	531.79
970.448	965.96
970.62	959.81
970.792	910.66
970.964	896.33
971.136	1563.97
971.308	1187.14
971.48	777.55
971.652	820.55
971.824	1426.75
971.996	1058.12
972.168	820.55
972.339	943.43
972.511	1242.43
972.683	1047.88
972.855	1066.31
973.027	896.33
973.199	1168.71
973.37	1166.66
973.542	941.38
973.714	1002.82
973.886	984.39
974.057	1365.31
974.229	769.35
974.401	789.83
974.572	855.37
974.744	640.33
974.915	781.64
975.087	761.16
975.259	1412.42
975.43	875.85
975.602	843.08
975.773	701.77
975.945	865.61
976.116	1205.57
976.288	765.26
976.459	1033.54
976.63	898.38
976.802	1119.56
976.973	763.21
977.145	941.38
977.316	1443.14
977.487	1371.46
977.659	933.19
977.83	775.5
978.001	1428.8
978.172	1123.65
978.344	613.71
978.515	783.69
978.686	980.29
978.857	1404.22
979.028	791.88
979.2	795.98
979.371	1228.1
979.542	1031.49
979.713	957.77
979.884	351.57
980.055	769.35
980.226	920.9
980.397	716.11
980.568	644.43
980.739	1260.87
980.91	929.1
981.081	877.9
981.252	703.82
981.423	1119.56
981.594	1207.62
981.765	681.29
981.936	875.85
982.106	1002.82
982.277	1293.63
982.448	703.82
982.619	1031.49
982.79	879.94
982.96	1277.25
983.131	855.37
983.302	562.51
983.472	793.93
983.643	1004.87
983.814	845.13
983.984	699.72
984.155	947.53
984.326	1211.71
984.496	935.24
984.667	689.48
984.837	732.49
985.008	1129.8
985.178	916.81
985.349	771.4
985.519	881.99
985.69	748.87
985.86	703.82
986.031	632.14
986.201	998.73
986.371	972.1
986.542	591.18
986.712	501.07
986.882	1129.8
987.053	986.44
987.223	671.05
987.393	744.78
987.563	773.45
987.734	912.71
987.904	871.75
988.074	712.01
988.244	986.44
988.414	869.7
988.585	605.52
988.755	832.84
988.925	920.9
989.095	1320.26
989.265	507.21
989.435	777.55
989.605	1039.69
989.775	1064.26
989.945	875.85
990.115	511.31
990.285	847.18
990.455	929.1
990.625	580.94
990.795	597.32
990.965	1115.46
991.134	689.48
991.304	548.17
991.474	542.03
991.644	1011.01
991.814	1224
991.984	515.41
992.153	648.52
992.323	777.55
992.493	957.77
992.662	445.77
992.832	763.21
993.002	867.66
993.171	974.15
993.341	470.35
993.511	834.89
993.68	654.67
993.85	998.73
994.019	431.44
994.189	421.2
994.358	953.67
994.528	626
994.697	269.65
994.867	462.16
995.036	988.49
995.206	771.4
995.375	507.21
995.544	658.76
995.714	894.28
995.883	781.64
996.052	720.2
996.222	290.13
996.391	1279.3
996.56	894.28
996.73	460.11
996.899	365.9
997.068	1117.51
997.237	736.59
997.406	480.59
997.576	417.1
997.745	871.75
997.914	828.74
998.083	326.99
998.252	490.83
998.421	644.43
998.59	718.15
998.759	384.34
998.928	224.59
999.097	1125.7
999.266	900.42
999.435	654.67
999.604	247.12
999.773	1234.24
999.942	677.2
1000.111	290.13
1000.28	267.6
1000.448	621.9
1000.617	572.75
1000.786	699.72
1000.955	359.76
1001.124	820.55
1001.292	1387.84
1001.461	415.06
1001.63	437.58
1001.798	1158.47
1001.967	1060.17
1002.136	195.92
1002.304	351.57
1002.473	781.64
1002.642	779.59
1002.81	494.93
1002.979	337.23
1003.147	875.85
1003.316	1334.59
1003.484	318.8
1003.653	243.03
1003.821	959.81
1003.99	580.94
1004.158	499.02
1004.327	447.82
1004.495	875.85
1004.663	531.79
1004.832	462.16
1005	320.85
1005.168	865.61
1005.337	795.98
1005.505	257.36
1005.673	515.41
1005.842	841.03
1006.01	908.62
1006.178	228.69
1006.346	314.7
1006.514	781.64
1006.683	1064.26
1006.851	445.77
1007.019	286.03
1007.187	462.16
1007.355	357.71
1007.523	261.46
1007.691	224.59
1007.859	353.62
1008.027	939.34
1008.195	417.1
1008.363	255.31
1008.531	886.09
1008.699	499.02
1008.867	277.84
1009.035	316.75
1009.203	949.57
1009.37	613.71
1009.538	357.71
1009.706	787.79
1009.874	687.43
1010.042	644.43
1010.209	212.31
1010.377	255.31
1010.545	867.66
1010.713	640.33
1010.88	236.88
1011.048	314.7
1011.216	517.45
1011.383	961.86
1011.551	249.17
1011.718	200.02
1011.886	847.18
1012.054	548.17
1012.221	298.32
1012.389	214.35
1012.556	628.04
1012.724	1041.73
1012.891	359.76
1013.058	183.63
1013.226	789.83
1013.393	806.22
1013.561	99.67
1013.728	122.2
1013.895	826.7
1014.063	691.53
1014.23	195.92
1014.397	204.11
1014.565	853.32
1014.732	605.52
1014.899	259.41
1015.066	150.87
1015.233	626
1015.401	779.59
1015.568	378.19
1015.735	392.53
1015.902	605.52
1016.069	691.53
1016.236	107.86
1016.403	187.73
1016.57	466.25
1016.737	832.84
1016.904	296.27
1017.071	222.55
1017.238	464.21
1017.405	795.98
1017.572	265.55
1017.739	357.71
1017.906	752.97
1018.073	740.68
1018.24	218.45
1018.407	286.03
1018.573	746.83
1018.74	591.18
1018.907	314.7
1019.074	114
1019.241	742.73
1019.407	613.71
1019.574	118.1
1019.741	93.52
1019.907	716.11
1020.074	658.76
1020.241	52.56
1020.407	111.96
1020.574	623.95
1020.74	703.82
1020.907	202.07
1021.073	154.96
1021.24	1113.41
1021.406	836.94
1021.573	148.82
1021.739	232.79
1021.906	798.03
1022.072	480.59
1022.239	161.11
1022.405	204.11
1022.571	527.69
1022.738	288.08
1022.904	126.29
1023.07	294.22
1023.237	646.48
1023.403	769.35
1023.569	146.77
1023.735	202.07
1023.902	566.6
1024.068	535.89
1024.234	54.61
1024.4	134.48
1024.566	527.69
1024.732	703.82
1024.898	83.28
1025.065	68.95
1025.231	603.47
1025.397	490.83
1025.563	195.92
1025.729	56.66
1025.895	132.44
1026.061	261.46
1026.227	-82.6
1026.392	132.44
1026.558	771.4
1026.724	666.96
1026.89	95.57
1027.056	171.35
1027.222	654.67
1027.388	320.85
1027.553	116.05
1027.719	27.99
1027.885	836.94
1028.051	664.91
1028.216	-80.55
1028.382	81.24
1028.548	671.05
1028.713	451.92
1028.879	1.37
1029.045	126.29
1029.21	812.36
1029.376	734.54
1029.541	212.31
1029.707	130.39
1029.873	638.28
1030.038	728.39
1030.204	120.15
1030.369	191.83
1030.534	626
1030.7	449.87
1030.865	240.98
1031.031	-25.26
1031.196	499.02
1031.361	433.49
1031.527	103.76
1031.692	60.76
1031.857	128.34
1032.023	558.41
1032.188	-25.26
1032.353	48.47
1032.518	791.88
1032.684	433.49
1032.849	-21.16
1033.014	118.1
1033.179	603.47
1033.344	566.6
1033.509	273.75
1033.674	130.39
1033.839	601.42
1034.004	632.14
1034.17	64.85
1034.335	-86.7
1034.5	394.58
1034.664	232.79
1034.829	-10.92
1034.994	36.18
1035.159	535.89
1035.324	591.18
1035.489	56.66
1035.654	68.95
1035.819	822.6
1035.984	417.1
1036.148	95.57
1036.313	152.91
1036.478	662.86
1036.643	433.49
1036.807	3.41
1036.972	11.61
1037.137	748.87
1037.301	429.39
1037.466	-21.16
1037.631	146.77
1037.795	724.3
1037.96	433.49
1038.124	228.69
1038.289	-74.41
1038.454	568.65
1038.618	568.65
1038.783	60.76
1038.947	50.52
1039.111	478.54
1039.276	308.56
1039.44	-25.26
1039.605	507.21
1039.769	318.8
1039.933	374.1
1040.098	91.48
1040.262	236.88
1040.426	626
1040.591	466.25
1040.755	-84.65
1040.919	93.52
1041.083	578.89
1041.248	384.34
1041.412	-115.37
1041.576	-15.02
1041.74	417.1
1041.904	562.51
1042.068	-17.07
1042.232	87.38
1042.397	666.96
1042.561	525.65
1042.725	-160.42
1042.889	214.35
1043.053	570.7
1043.217	482.64
1043.381	146.77
1043.544	-94.89
1043.708	580.94
1043.872	236.88
1044.036	-217.77
1044.2	-88.75
1044.364	769.35
1044.528	716.11
1044.691	1545.53
1044.855	-168.62
1045.019	564.56
1045.183	537.93
1045.346	17.75
1045.51	-195.24
1045.674	568.65
1045.837	556.36
1046.001	-58.03
1046.165	-105.13
1046.328	855.37
1046.492	558.41
1046.655	130.39
1046.819	114
1046.983	277.84
1047.146	453.97
1047.31	11.61
1047.473	-199.34
1047.636	384.34
1047.8	91.48
1047.963	-62.12
1048.127	-82.6
1048.29	116.05
