Data from Ink_Intensity_USB4F045381__117__00117.txt Node

Date: Mon Jul 17 11:10:47 EDT 2023
User: mmckonesweet
Spectrometer: USB4F04538
Trigger mode: 4
Integration Time (sec): 9.000000E-1
Scans to average: 1
Electric dark correction enabled: true
Nonlinearity correction enabled: false
Boxcar width: 0
XAxis mode: Wavelengths
Number of Pixels in Spectrum: 3648
>>>>>Begin Spectral Data<<<<<
345.52	-950.43
345.736	-950.43
345.952	-950.43
346.168	-1003.68
346.384	-1038.49
346.6	-100.52
346.816	-233.64
347.032	-241.83
347.248	290.64
347.464	-229.54
347.68	-104.62
347.896	94.04
348.112	405.33
348.328	-53.42
348.544	-121
348.76	57.17
348.975	237.39
349.191	-215.21
349.407	-164.01
349.623	12.12
349.839	-106.67
350.055	-145.58
350.27	-6.31
350.486	116.56
350.702	347.98
350.918	180.05
351.133	-104.62
351.349	118.61
351.565	307.02
351.781	-204.97
351.996	-37.03
352.212	370.51
352.428	-59.56
352.644	-194.73
352.859	-237.74
353.075	311.12
353.291	110.42
353.506	-161.96
353.722	-276.65
353.938	-92.33
354.153	343.89
354.369	87.89
354.584	-231.59
354.8	376.66
355.016	-233.64
355.231	-297.13
355.447	-45.23
355.662	118.61
355.878	821.06
356.093	-374.95
356.309	-43.18
356.524	-266.41
356.74	319.31
356.955	-159.91
357.171	1.88
357.386	159.57
357.602	-182.44
357.817	-96.43
358.033	-71.85
358.248	401.23
358.464	139.09
358.679	-12.46
358.895	-321.7
359.11	18.26
359.325	286.54
359.541	1.88
359.756	12.12
359.972	-250.02
360.187	180.05
360.402	-143.53
360.618	-143.53
360.833	986.95
361.048	163.67
361.264	-135.34
361.479	-28.84
361.694	-20.65
361.909	135
362.125	-225.45
362.34	-145.58
362.555	245.59
362.77	83.8
362.986	-213.16
363.201	-180.39
363.416	221.01
363.631	71.51
363.847	-211.11
364.062	-184.49
364.277	145.24
364.492	32.6
364.707	-127.14
364.922	-329.89
365.138	270.16
365.353	337.74
365.568	-221.35
365.783	-92.33
365.998	182.1
366.213	565.07
366.428	-200.87
366.643	36.69
366.858	311.12
367.073	198.48
367.288	-47.27
367.503	-229.54
367.718	79.7
367.933	311.12
368.148	-356.52
368.363	-24.75
368.578	-69.8
368.793	393.04
369.008	-161.96
369.223	-252.07
369.438	116.56
369.653	411.47
369.868	-290.98
370.083	-235.69
370.298	157.52
370.513	399.18
370.728	32.6
370.943	-229.54
371.157	-159.91
371.372	524.11
371.587	-342.18
371.802	-225.45
372.017	44.88
372.232	407.38
372.446	-47.27
372.661	-221.35
372.876	229.2
373.091	241.49
373.306	-30.89
373.52	-149.67
373.735	-178.34
373.95	315.22
374.165	-61.61
374.379	-131.24
374.594	-145.58
374.809	171.86
375.023	89.94
375.238	-227.5
375.453	278.35
375.667	-295.08
375.882	-110.76
376.097	-217.26
376.311	24.4
376.526	-0.17
376.741	-172.2
376.955	118.61
377.17	573.26
377.384	630.6
377.599	-61.61
377.813	-241.83
378.028	579.4
378.242	198.48
378.457	-51.37
378.672	-477.35
378.886	141.14
379.101	-26.79
379.315	-280.74
379.53	-245.93
379.744	233.3
379.958	190.29
380.173	-231.59
380.387	-178.34
380.602	163.67
380.816	-155.82
381.031	-131.24
381.245	-149.67
381.459	225.11
381.674	2828.07
381.888	-202.92
382.103	14.17
382.317	-131.24
382.531	442.19
382.746	-65.71
382.96	-198.82
383.174	-102.57
383.388	489.29
383.603	108.37
383.817	-204.97
384.031	165.71
384.246	450.38
384.46	-53.42
384.674	190.29
384.888	69.46
385.103	81.75
385.317	-274.6
385.531	-12.46
385.745	341.84
385.959	341.84
386.174	-235.69
386.388	-309.41
386.602	-57.51
386.816	-137.38
387.03	-106.67
387.244	-153.77
387.458	96.08
387.672	354.13
387.887	-258.21
388.101	-297.13
388.315	341.84
388.529	124.76
388.743	-51.37
388.957	-204.97
389.171	307.02
389.385	-196.78
389.599	-139.43
389.813	42.84
390.027	184.15
390.241	585.55
390.455	-170.15
390.669	-131.24
390.883	-16.55
391.097	350.03
391.311	83.8
391.525	-270.5
391.738	161.62
391.952	173.91
392.166	-20.65
392.38	-288.93
392.594	368.46
392.808	323.41
393.022	-82.09
393.236	-161.96
393.449	210.77
393.663	147.28
393.877	-250.02
394.091	-84.14
394.305	-32.94
394.518	-65.71
394.732	-252.07
394.946	-186.54
395.16	440.14
395.373	77.65
395.587	-241.83
395.801	-178.34
396.015	247.63
396.228	249.68
396.442	-239.78
396.656	-344.23
396.869	393.04
397.083	403.28
397.297	-37.03
397.51	-131.24
397.724	388.94
397.938	143.19
398.151	-307.37
398.365	-295.08
398.578	229.2
398.792	380.75
399.005	-90.28
399.219	-176.3
399.433	165.71
399.646	270.16
399.86	75.6
400.073	-20.65
400.287	206.67
400.5	28.5
400.714	-28.84
400.927	-147.62
401.141	315.22
401.354	1154.88
401.567	147.28
401.781	-264.36
401.994	270.16
402.208	632.65
402.421	-155.82
402.635	-94.38
402.848	-73.9
403.061	272.21
403.275	-98.47
403.488	-194.73
403.701	483.15
403.915	296.78
404.128	-16.55
404.341	-209.06
404.555	198.48
404.768	16.21
404.981	-22.7
405.195	-155.82
405.408	483.15
405.621	229.2
405.834	83.8
406.048	-202.92
406.261	425.81
406.474	421.71
406.687	-194.73
406.9	16.21
407.114	18.26
407.327	227.15
407.54	-295.08
407.753	-241.83
407.966	-135.34
408.179	214.87
408.392	-151.72
408.605	-354.47
408.819	122.71
409.032	229.2
409.245	-186.54
409.458	1.88
409.671	192.34
409.884	278.35
410.097	-307.37
410.31	20.31
410.523	122.71
410.736	-24.75
410.949	-104.62
411.162	-90.28
411.375	474.96
411.588	239.44
411.801	-39.08
412.014	-262.31
412.227	16.21
412.44	10.07
412.653	-166.06
412.865	28.5
413.078	255.83
413.291	233.3
413.504	-100.52
413.717	-284.84
413.93	165.71
414.143	-184.49
414.356	-18.6
414.568	-288.93
414.781	286.54
414.994	126.8
415.207	-53.42
415.42	-84.14
415.632	249.68
415.845	515.92
416.058	-366.76
416.271	-317.61
416.483	65.36
416.696	481.1
416.909	-188.58
417.121	-112.81
417.334	161.62
417.547	509.77
417.759	-200.87
417.972	-180.39
418.185	-51.37
418.397	235.35
418.61	-221.35
418.823	-250.02
419.035	411.47
419.248	20.31
419.46	-123.05
419.673	-84.14
419.885	153.43
420.098	-4.27
420.311	-223.4
420.523	-411.81
420.736	290.64
420.948	26.45
421.161	-176.3
421.373	-368.81
421.586	122.71
421.798	-84.14
422.01	-278.69
422.223	-67.75
422.435	-12.46
422.648	255.83
422.86	-194.73
423.073	-174.25
423.285	296.78
423.497	-358.57
423.71	-204.97
423.922	-225.45
424.134	216.91
424.347	401.23
424.559	32.6
424.771	61.27
424.984	57.17
425.196	116.56
425.408	-325.8
425.621	-299.17
425.833	294.74
426.045	352.08
426.257	-233.64
426.47	-127.14
426.682	110.42
426.894	188.24
427.106	-192.68
427.318	-110.76
427.531	-106.67
427.743	192.34
427.955	-96.43
428.167	278.35
428.379	186.19
428.591	-39.08
428.804	-57.51
429.016	-180.39
429.228	8.02
429.44	116.56
429.652	122.71
429.864	-278.69
430.076	59.22
430.288	59.22
430.5	-75.95
430.712	-100.52
430.924	282.45
431.136	132.95
431.348	-272.55
431.56	-250.02
431.772	53.08
431.984	-73.9
432.196	-278.69
432.408	-164.01
432.62	-73.9
432.832	151.38
433.044	139.09
433.256	-110.76
433.468	257.87
433.679	-252.07
433.891	-286.89
434.103	28.5
434.315	427.85
434.527	257.87
434.739	-32.94
434.95	-92.33
435.162	206.67
435.374	-108.71
435.586	-145.58
435.798	-155.82
436.009	-159.91
436.221	-65.71
436.433	-141.48
436.645	-129.19
436.856	-112.81
437.068	333.65
437.28	-247.97
437.491	135
437.703	118.61
437.915	102.23
438.126	-194.73
438.338	184.15
438.55	-8.36
438.761	102.23
438.973	-215.21
439.184	-112.81
439.396	85.84
439.608	214.87
439.819	-151.72
440.031	-39.08
440.242	311.12
440.454	184.15
440.665	-188.58
440.877	18.26
441.088	245.59
441.3	59.22
441.511	-305.32
441.723	-204.97
441.934	188.24
442.146	79.7
442.357	-16.55
442.569	98.13
442.78	104.28
442.991	360.27
443.203	143.19
443.414	-278.69
443.626	415.57
443.837	-61.61
444.048	-207.02
444.26	-278.69
444.471	159.57
444.682	288.59
444.894	-385.19
445.105	-297.13
445.316	200.53
445.528	163.67
445.739	-88.23
445.95	-88.23
446.161	173.91
446.373	288.59
446.584	-166.06
446.795	-172.2
447.006	231.25
447.217	436.05
447.429	-348.33
447.64	-274.6
447.851	427.85
448.062	145.24
448.273	-368.81
448.484	-209.06
448.695	210.77
448.907	55.12
449.118	-61.61
449.329	-6.31
449.54	-39.08
449.751	-129.19
449.962	-137.38
450.173	-155.82
450.384	368.46
450.595	393.04
450.806	-194.73
451.017	-168.1
451.228	395.09
451.439	321.36
451.65	-190.63
451.861	-448.68
452.072	-172.2
452.283	83.8
452.494	40.79
452.705	-104.62
452.915	415.57
453.126	188.24
453.337	-135.34
453.548	-258.21
453.759	259.92
453.97	563.02
454.181	53.08
454.391	-168.1
454.602	130.9
454.813	282.45
455.024	-174.25
455.235	-147.62
455.445	147.28
455.656	237.39
455.867	-12.46
456.078	-196.78
456.288	24.4
456.499	198.48
456.71	-186.54
456.921	106.32
457.131	89.94
457.342	173.91
457.553	-24.75
457.763	-149.67
457.974	272.21
458.184	296.78
458.395	-227.5
458.606	-295.08
458.816	380.75
459.027	509.77
459.237	34.64
459.448	-286.89
459.659	393.04
459.869	565.07
460.08	-299.17
460.29	-20.65
460.501	513.87
460.711	-2.22
460.922	-293.03
461.132	-123.05
461.343	769.87
461.553	-90.28
461.764	-264.36
461.974	-131.24
462.184	335.7
462.395	155.47
462.605	-37.03
462.816	-286.89
463.026	190.29
463.236	390.99
463.447	-243.88
463.657	-184.49
463.867	290.64
464.078	40.79
464.288	-26.79
464.498	-168.1
464.709	147.28
464.919	124.76
465.129	-57.51
465.339	-204.97
465.55	229.2
465.76	401.23
465.97	-151.72
466.18	-153.77
466.391	284.5
466.601	206.67
466.811	-18.6
467.021	-151.72
467.231	356.18
467.441	401.23
467.651	-94.38
467.862	-329.89
468.072	108.37
468.282	356.18
468.492	-164.01
468.702	-80.04
468.912	77.65
469.122	714.57
469.332	143.19
469.542	-151.72
469.752	362.32
469.962	194.39
470.172	-245.93
470.382	-133.29
470.592	300.88
470.802	409.42
471.012	42.84
471.222	-129.19
471.432	382.8
471.642	261.97
471.852	10.07
472.062	-151.72
472.272	110.42
472.482	-106.67
472.691	-204.97
472.901	-235.69
473.111	280.4
473.321	733
473.531	-172.2
473.741	26.45
473.95	290.64
474.16	325.46
474.37	5.97
474.58	-94.38
474.79	603.98
474.999	368.46
475.209	-198.82
475.419	-49.32
475.628	151.38
475.838	450.38
476.048	48.98
476.258	-254.12
476.467	431.95
476.677	24.4
476.886	235.35
477.096	-32.94
477.306	32.6
477.515	581.45
477.725	-22.7
477.935	8.02
478.144	657.23
478.354	188.24
478.563	-30.89
478.773	-143.53
478.982	325.46
479.192	477.01
479.401	94.04
479.611	-104.62
479.82	89.94
480.03	323.41
480.239	-135.34
480.449	-131.24
480.658	659.28
480.868	65.36
481.077	73.56
481.287	42.84
481.496	354.13
481.705	636.75
481.915	216.91
482.124	257.87
482.333	360.27
482.543	556.88
482.752	98.13
482.961	8.02
483.171	401.23
483.38	247.63
483.589	1.88
483.799	-22.7
484.008	278.35
484.217	495.44
484.426	51.03
484.636	-6.31
484.845	286.54
485.054	-55.47
485.263	409.42
485.472	122.71
485.682	724.81
485.891	331.6
486.1	-153.77
486.309	12.12
486.518	524.11
486.727	630.6
486.936	40.79
487.146	212.82
487.355	786.25
487.564	114.52
487.773	73.56
487.982	32.6
488.191	235.35
488.4	360.27
488.609	137.04
488.818	157.52
489.027	827.21
489.236	726.86
489.445	85.84
489.654	30.55
489.863	624.46
490.072	358.22
490.281	503.63
490.49	180.05
490.698	753.48
490.907	847.69
491.116	173.91
491.325	-14.51
491.534	630.6
491.743	489.29
491.952	221.01
492.16	204.63
492.369	591.69
492.578	560.97
492.787	280.4
492.996	24.4
493.204	329.55
493.413	819.02
493.622	-57.51
493.831	53.08
494.039	712.52
494.248	184.15
494.457	147.28
494.665	85.84
494.874	595.79
495.083	933.7
495.291	235.35
495.5	51.03
495.709	730.95
495.917	462.67
496.126	345.94
496.335	53.08
496.543	452.43
496.752	583.5
496.96	487.25
497.169	85.84
497.377	454.48
497.586	819.02
497.794	380.75
498.003	-37.03
498.211	466.77
498.42	862.02
498.628	247.63
498.837	190.29
499.045	679.75
499.254	685.9
499.462	231.25
499.671	198.48
499.879	1038.15
500.087	800.59
500.296	231.25
500.504	259.92
500.713	679.75
500.921	1120.07
501.129	245.59
501.338	227.15
501.546	616.27
501.754	493.39
501.962	286.54
502.171	173.91
502.379	706.38
502.587	970.57
502.795	249.68
503.004	264.02
503.212	479.05
503.42	868.17
503.628	253.78
503.837	419.66
504.045	835.4
504.253	1029.96
504.461	311.12
504.669	216.91
504.877	733
505.085	907.08
505.294	259.92
505.502	571.21
505.71	730.95
505.918	892.74
506.126	372.56
506.334	290.64
506.542	579.4
506.75	640.84
506.958	499.53
507.166	489.29
507.374	499.53
507.582	1118.02
507.79	509.77
507.998	274.26
508.206	743.24
508.414	767.82
508.622	464.72
508.83	423.76
509.037	1148.74
509.245	601.93
509.453	321.36
509.661	352.08
509.869	853.83
510.077	692.04
510.285	630.6
510.492	100.18
510.7	1320.77
510.908	591.69
511.116	421.71
511.324	409.42
511.531	671.56
511.739	833.35
511.947	614.22
512.155	823.11
512.362	761.67
512.57	479.05
512.778	311.12
512.985	354.13
513.193	1032.01
513.401	1175.36
513.608	434
513.816	401.23
514.024	919.37
514.231	1044.29
514.439	442.19
514.646	454.48
514.854	1001.29
515.061	1034.05
515.269	534.35
515.477	434
515.684	567.12
515.892	1027.91
516.099	370.51
516.307	327.5
516.514	917.32
516.722	1199.94
516.929	546.64
517.136	468.81
517.344	1154.88
517.551	982.85
517.759	583.5
517.966	630.6
518.173	761.67
518.381	886.6
518.588	616.27
518.796	534.35
519.003	1058.63
519.21	970.57
519.418	599.88
519.625	939.85
519.832	892.74
520.039	905.03
520.247	524.11
520.454	558.92
520.661	1105.73
520.868	1044.29
521.076	683.85
521.283	616.27
521.49	1521.47
521.697	1032.01
521.904	687.95
522.112	624.46
522.319	1113.92
522.526	1011.53
522.733	585.55
522.94	597.84
523.147	902.98
523.354	1107.78
523.561	495.44
523.768	786.25
523.975	1324.87
524.183	1068.87
524.39	761.67
524.597	509.77
524.804	950.09
525.011	763.72
525.218	599.88
525.425	700.23
525.632	1261.38
525.838	954.18
526.045	667.47
526.252	753.48
526.459	2088.76
526.666	1793.85
526.873	628.56
527.08	687.95
527.287	1419.07
527.494	1220.42
527.701	737.1
527.907	630.6
528.114	1240.9
528.321	986.95
528.528	798.54
528.735	716.62
528.941	976.71
529.148	970.57
529.355	962.37
529.562	886.6
529.768	1443.65
529.975	935.75
530.182	843.59
530.388	843.59
530.595	1382.21
530.802	821.06
531.008	933.7
531.215	784.2
531.422	1554.24
531.628	1883.96
531.835	886.6
532.042	941.89
532.248	1019.72
532.455	1279.81
532.661	968.52
532.868	843.59
533.074	1189.7
533.281	1382.21
533.487	972.61
533.694	765.77
533.9	1025.86
534.107	1384.26
534.313	921.42
534.52	958.28
534.726	1460.03
534.933	1793.85
535.139	872.26
535.345	804.68
535.552	1453.89
535.758	1386.3
535.965	1175.36
536.171	956.23
536.377	1507.13
536.584	1646.4
536.79	1009.48
536.996	1077.06
537.203	1425.22
537.409	1460.03
537.615	1011.53
537.821	1193.8
538.028	1503.04
538.234	1556.29
538.44	1052.49
538.646	1040.2
538.853	1654.59
539.059	1255.23
539.265	1437.5
539.471	925.51
539.677	1548.09
539.883	1302.34
540.09	1134.4
540.296	1552.19
540.502	1374.02
540.708	1195.84
540.914	1269.57
541.12	1232.71
541.326	1556.29
541.532	1345.34
541.738	1288
541.944	1171.27
542.15	1634.11
542.356	1419.07
542.562	1273.67
542.768	1359.68
542.974	2055.99
543.18	2043.7
543.386	1277.76
543.592	1011.53
543.798	1816.38
544.004	1795.9
544.21	1140.55
544.415	1347.39
544.621	1550.14
544.827	1726.27
545.033	1177.41
545.239	1488.7
545.445	1335.1
545.651	1668.92
545.856	1255.23
546.062	1210.18
546.268	1480.51
546.474	1603.39
546.679	1316.67
546.885	1369.92
547.091	1470.27
547.297	2055.99
547.502	1429.31
547.708	1238.85
547.914	1414.98
548.119	1750.84
548.325	1154.88
548.531	1228.61
548.736	2004.79
548.942	1433.41
549.147	1384.26
549.353	1476.41
549.559	1967.93
549.764	1742.65
549.97	1294.15
550.175	1335.1
550.381	1814.33
550.586	1572.67
550.792	1425.22
550.997	1482.56
551.203	1902.39
551.408	1947.45
551.614	1451.84
551.819	1335.1
552.025	2332.47
552.23	2268.98
552.435	1453.89
552.641	1558.33
552.846	1666.88
553.052	2228.02
553.257	1591.1
553.462	1513.28
553.668	1683.26
553.873	2068.28
554.078	1634.11
554.283	1488.7
554.489	1843
554.694	1849.15
554.899	1529.66
555.105	1861.43
555.31	1986.36
555.515	2111.29
555.72	1797.95
555.925	1468.22
556.131	2135.86
556.336	1888.06
556.541	1593.15
556.746	1539.9
556.951	2289.46
557.156	2260.79
557.361	1728.31
557.567	1830.71
557.772	2428.72
557.977	2051.89
558.182	1630.01
558.387	1701.69
558.592	1918.78
558.797	2369.33
559.002	1824.57
559.207	1883.96
559.412	1957.69
559.617	2434.86
559.822	1707.84
560.027	1728.31
560.232	2113.33
560.437	2166.58
560.642	1484.61
560.847	1687.36
561.051	1939.26
561.256	2064.18
561.461	1761.08
561.666	1744.7
561.871	2203.44
562.076	2189.11
562.281	1896.25
562.485	1656.64
562.69	2297.65
562.895	2264.88
563.1	1918.78
563.305	1681.21
563.509	2406.19
563.714	2668.33
563.919	1855.29
564.123	1832.76
564.328	2066.23
564.533	2463.54
564.737	1939.26
564.942	1912.63
565.147	2563.89
565.351	2703.15
565.556	2015.03
565.761	2074.42
565.965	2289.46
566.17	1969.98
566.374	1996.6
566.579	1822.52
566.784	2418.48
566.988	2049.85
567.193	1812.28
567.397	1957.69
567.602	1994.55
567.806	2273.07
568.011	2088.76
568.215	1992.5
568.42	2236.21
568.624	2391.86
568.828	2094.9
569.033	2262.83
569.237	2408.24
569.442	2465.58
569.646	1857.34
569.85	2064.18
570.055	2244.4
570.259	2350.9
570.463	2322.23
570.668	2039.61
570.872	2443.06
571.076	2361.14
571.281	2328.37
571.485	2359.09
571.689	2326.32
571.893	2596.65
572.098	2305.84
572.302	2135.86
572.506	2512.69
572.71	2475.82
572.914	2395.95
573.119	2268.98
573.323	2830.12
573.527	2918.18
573.731	2295.6
573.935	2203.44
574.139	2522.93
574.343	2481.97
574.547	2236.21
574.751	2400.05
574.955	3002.15
575.159	2889.51
575.364	2201.4
575.568	2187.06
575.772	2684.72
575.976	2762.54
576.18	2326.32
576.383	2209.59
576.587	2993.96
576.791	2877.23
576.995	2113.33
577.199	2252.59
577.403	2909.99
577.607	3018.54
577.811	2342.71
578.015	2490.16
578.219	2721.58
578.422	2846.51
578.626	2500.4
578.83	2639.66
579.034	2928.42
579.238	2858.79
579.442	2432.82
579.645	2823.98
579.849	2821.93
580.053	2783.02
580.257	2555.69
580.46	2494.26
580.664	2903.85
580.868	3018.54
581.071	2719.53
581.275	2699.05
581.479	2531.12
581.682	3098.41
581.886	2610.99
582.09	2637.61
582.293	3063.59
582.497	3163.94
582.7	2842.41
582.904	2635.57
583.107	2799.4
583.311	2877.23
583.515	2762.54
583.718	2617.13
583.922	3006.25
584.125	3370.79
584.329	2654
584.532	2891.56
584.735	3325.73
584.939	3028.78
585.142	2641.71
585.346	2551.6
585.549	3198.76
585.753	2813.74
585.956	2854.7
586.159	2823.98
586.363	3555.1
586.566	3340.07
586.769	2809.64
586.973	2668.33
587.176	3256.1
587.379	3372.83
587.582	3075.88
587.786	3071.78
587.989	3174.18
588.192	3817.24
588.395	3055.4
588.599	3170.08
588.802	3350.31
589.005	3280.68
589.208	2938.66
589.411	2834.22
589.615	3401.51
589.818	3626.78
590.021	3268.39
590.224	3041.06
590.427	3430.18
590.63	3409.7
590.833	2783.02
591.036	2940.71
591.239	3284.77
591.442	3100.45
591.645	3231.52
591.848	3020.58
592.051	3426.08
592.254	3542.82
592.457	3215.14
592.66	3100.45
592.863	3260.2
593.066	3512.1
593.269	3059.49
593.472	3194.66
593.675	3157.8
593.878	3501.86
594.081	3368.74
594.284	3182.37
594.486	3567.39
594.689	3546.91
594.892	3090.21
595.095	3143.46
595.298	3657.5
595.5	3417.89
595.703	3409.7
595.906	3428.13
596.109	3888.92
596.311	3804.96
596.514	3067.69
596.717	3356.45
596.92	3766.04
597.122	3616.54
597.325	3039.01
597.528	3335.97
597.73	3764
597.933	3671.84
598.136	3225.38
598.338	3223.33
598.541	3804.96
598.743	3997.46
598.946	3354.4
599.148	3534.62
599.351	3854.11
599.554	3948.31
599.756	3831.58
599.959	3624.73
600.161	3983.13
600.363	4333.33
600.566	3604.25
600.768	3454.75
600.971	4257.56
601.173	3938.07
601.376	3430.18
601.578	3555.1
601.78	3886.87
601.983	4476.69
602.185	3481.38
602.388	3733.28
602.59	4013.85
602.792	3936.03
602.995	3714.84
603.197	3622.69
603.399	4267.8
603.601	3954.46
603.804	3647.26
604.006	3563.29
604.208	3952.41
604.41	3493.66
604.613	3860.25
604.815	3522.34
605.017	4486.93
605.219	3702.56
605.421	4034.33
605.623	3712.8
605.826	4337.43
606.028	4230.93
606.23	3772.19
606.432	3800.86
606.634	4456.21
606.836	4325.14
607.038	3647.26
607.24	3872.54
607.442	4003.61
607.644	3893.02
607.846	3897.11
608.048	3819.29
608.25	4441.87
608.452	4005.66
608.654	3946.27
608.856	3936.03
609.058	4173.59
609.26	4255.51
609.462	3964.7
609.664	4050.71
609.866	4642.57
610.067	4441.87
610.269	4101.91
610.471	3897.11
610.673	4026.14
610.875	4345.62
611.077	3737.37
611.278	4081.43
611.48	4341.52
611.682	4738.83
611.884	4183.83
612.085	3976.98
612.287	4046.62
612.489	4353.81
612.69	3886.87
612.892	4153.11
613.094	4474.64
613.295	4321.04
613.497	3921.69
613.699	4048.66
613.9	4685.58
614.102	4411.15
614.304	4040.47
614.505	3837.72
614.707	4441.87
614.908	4319
615.11	4179.73
615.311	4122.39
615.513	4644.62
615.714	4595.47
615.916	4101.91
616.117	4230.93
616.319	4448.02
616.52	4577.04
616.722	4069.14
616.923	4038.42
617.124	4550.42
617.326	4677.39
617.527	4345.62
617.729	4290.32
617.93	4792.08
618.131	4689.68
618.333	4136.73
618.534	4392.72
618.735	4335.38
618.937	4980.49
619.138	4144.92
619.339	4239.12
619.54	4622.09
619.742	4669.2
619.943	4640.53
620.144	4405.01
620.345	4849.42
620.546	4861.71
620.748	4366.1
620.949	4388.63
621.15	4648.72
621.351	4755.21
621.552	4237.08
621.753	4282.13
621.954	4206.36
622.155	5244.68
622.356	4189.97
622.558	4718.35
622.759	4720.4
622.96	5099.27
623.161	4456.21
623.362	4583.18
623.563	4726.54
623.764	4800.27
623.965	4519.7
624.166	4689.68
624.366	4800.27
624.567	4812.56
624.768	4298.52
624.969	4605.71
625.17	4818.7
625.371	4990.73
625.572	4704.01
625.773	4419.35
625.973	5048.07
626.174	5056.26
626.375	4677.39
626.576	4566.8
626.777	5025.54
626.977	5365.51
627.178	4636.43
627.379	4710.16
627.58	5015.3
627.78	4992.78
627.981	4673.29
628.182	4767.5
628.382	5220.1
628.583	4568.85
628.784	4622.09
628.984	4769.55
629.185	5238.53
629.386	5185.29
629.586	4841.23
629.787	4523.79
629.987	5025.54
630.188	5021.45
630.388	4740.88
630.589	4747.02
630.79	5648.13
630.99	5031.69
631.191	4804.36
631.391	4955.91
631.591	5365.51
631.792	5654.27
631.992	5023.5
632.193	4966.15
632.393	5488.39
632.594	5250.82
632.794	4888.33
632.994	5033.74
633.195	5195.53
633.395	5349.12
633.595	4816.65
633.796	5084.94
633.996	5162.76
634.196	5566.21
634.397	4927.24
634.597	5238.53
634.797	5009.16
634.997	5742.33
635.198	5240.58
635.398	4865.8
635.598	5476.1
635.798	5674.75
635.998	5267.2
636.199	5103.37
636.399	5189.38
636.599	5224.2
636.799	4982.54
636.999	5377.8
637.199	5568.26
637.399	5553.92
637.599	5099.27
637.799	5185.29
637.999	5179.14
638.199	5809.92
638.399	5299.97
638.599	5242.63
638.799	5670.65
638.999	5877.5
639.199	5564.16
639.399	5385.99
639.599	5832.44
639.799	5367.56
639.999	5166.85
640.199	5211.91
640.399	5674.75
640.599	5537.54
640.799	5555.97
640.998	5388.04
641.198	5760.77
641.398	5578.5
641.598	5467.91
641.798	5390.08
641.997	6541.04
642.197	5570.3
642.397	5631.74
642.597	5379.84
642.796	5697.28
642.996	6022.91
643.196	5580.54
643.395	5406.47
643.595	5742.33
643.795	5232.39
643.994	5500.67
644.194	5398.27
644.394	5871.36
644.593	5852.92
644.793	5383.94
644.992	5654.27
645.192	5842.68
645.392	5523.2
645.591	5578.5
645.791	5656.32
645.99	6020.86
646.19	5824.25
646.389	5703.42
646.589	5676.8
646.788	6145.78
646.987	5897.98
647.187	6127.35
647.386	5949.18
647.586	5871.36
647.785	6184.69
647.984	5678.85
648.184	5910.27
648.383	5824.25
648.582	5816.06
648.782	5746.43
648.981	5846.78
649.18	5746.43
649.38	5979.9
649.579	5938.94
649.778	5605.12
649.977	6266.61
650.177	6127.35
650.376	5814.01
650.575	5709.57
650.774	6377.2
650.973	5988.09
651.173	5674.75
651.372	6057.72
651.571	6070.01
651.77	6303.48
651.969	5852.92
652.168	6024.95
652.367	5816.06
652.566	6094.58
652.765	5787.39
652.964	6258.42
653.163	6627.06
653.362	6164.22
653.561	6053.62
653.76	6158.07
653.959	6188.79
654.158	6285.05
654.357	6360.82
654.556	5912.32
654.755	6438.64
654.954	6547.19
655.153	6266.61
655.352	5979.9
655.551	6641.39
655.749	6317.81
655.948	6063.86
656.147	5986.04
656.346	6563.57
656.545	6223.61
656.743	6299.38
656.942	6274.81
657.141	6463.22
657.34	6362.87
657.538	6313.72
657.737	6301.43
657.936	6332.15
658.135	6577.9
658.333	6436.6
658.532	6338.29
658.731	6997.74
658.929	6770.41
659.128	6672.11
659.326	6168.31
659.525	6921.96
659.724	6512.37
659.922	6094.58
660.121	6059.77
660.319	6506.23
660.518	6334.2
660.716	6299.38
660.915	6207.22
661.113	7012.07
661.312	6346.48
661.51	6547.19
661.709	6520.56
661.907	6948.59
662.105	7012.07
662.304	6469.36
662.502	6448.88
662.701	6868.72
662.899	6440.69
663.097	6649.58
663.296	6119.16
663.494	7038.7
663.692	7141.1
663.891	6483.7
664.089	6299.38
664.287	6915.82
664.485	6946.54
664.684	6442.74
664.882	6655.73
665.08	6713.07
665.278	6973.16
665.476	6612.72
665.675	6928.11
665.873	7282.41
666.071	7198.44
666.269	6520.56
666.467	6729.45
666.665	6878.96
666.863	6586.1
667.061	6739.69
667.259	6704.88
667.457	6985.45
667.655	7059.18
667.853	6452.98
668.051	6909.68
668.249	6827.76
668.447	7048.94
668.645	6426.36
668.843	6921.96
669.041	7065.32
669.239	6905.58
669.437	6909.68
669.635	6930.16
669.833	6876.91
670.031	7223.02
670.229	6862.57
670.426	6862.57
670.624	6981.35
670.822	6934.25
671.02	6868.72
671.218	6856.43
671.415	6754.03
671.613	7225.06
671.811	6889.2
672.009	6854.38
672.206	7325.41
672.404	6987.5
672.602	7061.23
672.799	7102.18
672.997	7266.02
673.195	7245.54
673.392	6799.09
673.59	6711.02
673.788	7171.82
673.985	6409.97
674.183	7036.65
674.38	6856.43
674.578	7274.21
674.775	6971.11
674.973	6817.52
675.17	6967.02
675.368	7677.66
675.565	7313.13
675.763	6858.48
675.96	7081.71
676.158	7466.72
676.355	7085.8
676.553	6962.92
676.75	7061.23
676.947	7042.79
677.145	6915.82
677.342	6940.4
677.539	7114.47
677.737	7220.97
677.934	7534.31
678.131	7171.82
678.329	7059.18
678.526	7493.35
678.723	7388.9
678.92	7182.06
679.118	6911.72
679.315	6979.31
679.512	7540.45
679.709	7145.19
679.906	7100.14
680.104	7673.57
680.301	7339.75
680.498	6909.68
680.695	6944.49
680.892	6997.74
681.089	7153.38
681.286	7270.12
681.483	6782.7
681.68	7384.8
681.877	7587.55
682.075	7251.69
682.272	7436
682.469	7436
682.665	7192.3
682.862	7147.24
683.059	6860.52
683.256	7245.54
683.453	7235.3
683.65	7026.41
683.847	7110.38
684.044	7360.23
684.241	7085.8
684.438	7317.22
684.635	7059.18
684.831	7814.88
685.028	7747.3
685.225	7081.71
685.422	7220.97
685.619	7393
685.815	7325.41
686.012	7331.56
686.209	7241.45
686.405	7286.5
686.602	7554.79
686.799	7079.66
686.996	6983.4
687.192	6969.07
687.389	7886.56
687.586	7112.42
687.782	7253.73
687.979	7958.24
688.175	7769.82
688.372	7200.49
688.568	7300.84
688.765	7331.56
688.962	7945.95
689.158	7370.47
689.355	7182.06
689.551	7794.4
689.748	7288.55
689.944	7448.29
690.14	6954.73
690.337	7622.37
690.533	7429.86
690.73	7356.13
690.926	7309.03
691.123	7605.99
691.319	7454.44
691.515	7282.41
691.712	7423.72
691.908	7716.58
692.104	7661.28
692.301	7464.68
692.497	7161.58
692.693	7653.09
692.889	7753.44
693.086	7530.21
693.282	7061.23
693.478	7503.59
693.674	7884.51
693.87	7388.9
694.067	7155.43
694.263	7724.77
694.459	7505.63
694.655	7421.67
694.851	7775.97
695.047	7814.88
695.243	7794.4
695.439	7470.82
695.635	7241.45
695.831	7655.14
696.027	7622.37
696.224	7368.42
696.42	7874.27
696.615	8040.15
696.811	7685.86
697.007	7196.39
697.203	7509.73
697.399	7880.41
697.595	8070.87
697.791	7476.96
697.987	7720.67
698.183	7476.96
698.379	7374.56
698.575	7575.27
698.77	7737.06
698.966	7878.37
699.162	8009.44
699.358	7708.38
699.554	7589.6
699.749	7954.14
699.945	7859.93
700.141	7411.43
700.337	7530.21
700.532	7538.4
700.728	7468.77
700.924	7315.17
701.119	7298.79
701.315	7900.89
701.511	7507.68
701.706	7689.95
701.902	7251.69
702.097	7708.38
702.293	7857.89
702.489	7560.93
702.684	7515.87
702.88	7700.19
703.075	7483.11
703.271	7571.17
703.466	7343.85
703.662	7661.28
703.857	7925.47
704.053	7497.44
704.248	7636.7
704.443	7827.17
704.639	7954.14
704.834	7616.23
705.03	7560.93
705.225	7978.72
705.42	8007.39
705.616	7882.46
705.811	7474.92
706.006	7759.58
706.202	7823.07
706.397	7861.98
706.592	7513.83
706.787	7769.82
706.983	7876.32
707.178	7853.79
707.373	7673.57
707.568	8011.48
707.763	7991
707.959	7589.6
708.154	7481.06
708.349	7843.55
708.544	7923.42
708.739	7741.15
708.934	7587.55
709.129	8044.25
709.324	8220.38
709.519	7618.27
709.714	7741.15
709.909	8281.81
710.104	7929.56
710.299	7567.07
710.494	7827.17
710.689	8195.8
710.884	7945.95
711.079	7782.11
711.274	7948
711.469	8062.68
711.664	7927.52
711.859	7634.66
712.054	7720.67
712.249	8279.77
712.443	8240.86
712.638	7542.5
712.833	7708.38
713.028	8120.03
713.223	8021.72
713.417	8081.11
713.612	7780.06
713.807	8404.69
714.002	8777.42
714.196	8003.29
714.391	7769.82
714.586	8152.79
714.78	8034.01
714.975	7880.41
715.17	7767.77
715.364	8089.31
715.559	8443.6
715.754	7569.12
715.948	7593.7
716.143	8384.21
716.337	8007.39
716.532	8111.83
716.726	7859.93
716.921	8193.75
717.115	8513.24
717.31	7685.86
717.504	8156.89
717.699	8050.39
717.893	8224.47
718.088	7595.75
718.282	7714.53
718.476	8068.83
718.671	8070.87
718.865	7648.99
719.059	7646.94
719.254	8044.25
719.448	8470.23
719.642	9227.98
719.837	7749.34
720.031	8013.53
720.225	8224.47
720.419	7792.35
720.614	7909.08
720.808	8251.1
721.002	8009.44
721.196	7704.29
721.39	7833.31
721.585	8298.2
721.779	8072.92
721.973	7698.14
722.167	7620.32
722.361	8220.38
722.555	8222.42
722.749	7710.43
722.943	7894.75
723.137	7728.86
723.331	8111.83
723.525	7671.52
723.719	7651.04
723.913	8294.1
724.107	8414.93
724.301	7735.01
724.495	7634.66
724.689	8384.21
724.883	8333.01
725.077	7790.3
725.271	7765.73
725.465	8285.91
725.659	7970.52
725.853	7966.43
726.046	7624.42
726.24	7773.92
726.434	8292.05
726.628	7888.6
726.822	7669.47
727.015	8324.82
727.209	8378.07
727.403	7991
727.596	7599.84
727.79	8224.47
727.984	8345.3
728.177	8062.68
728.371	8101.59
728.565	8459.99
728.758	7999.2
728.952	7857.89
729.146	7810.78
729.339	8277.72
729.533	8068.83
729.726	8027.87
729.92	7845.6
730.113	8441.56
730.307	8363.73
730.5	7919.32
730.694	7894.75
730.887	8230.62
731.081	8337.11
731.274	7931.61
731.468	8007.39
731.661	8232.66
731.854	8017.63
732.048	7845.6
732.241	7958.24
732.435	8191.7
732.628	8261.34
732.821	7941.85
733.014	7878.37
733.208	8134.36
733.401	8482.52
733.594	7872.22
733.788	7964.38
733.981	8507.09
734.174	8107.74
734.367	7974.62
734.56	8388.31
734.754	8593.11
734.947	8476.37
735.14	7849.69
735.333	8160.98
735.526	8363.73
735.719	8400.6
735.912	8017.63
736.105	7956.19
736.298	8564.43
736.491	8171.22
736.684	8054.49
736.877	7907.04
737.07	8308.44
737.263	8679.12
737.456	7999.2
737.649	7980.76
737.842	8050.39
738.035	8189.66
738.228	8007.39
738.421	8156.89
738.614	8683.22
738.807	8806.09
739	8011.48
739.192	7986.91
739.385	8347.35
739.578	8480.47
739.771	8408.79
739.964	8068.83
740.156	8777.42
740.349	8306.39
740.542	8400.6
740.735	8027.87
740.927	8148.7
741.12	8312.53
741.313	8077.02
741.505	8261.34
741.698	8556.24
741.891	8709.84
742.083	8568.53
742.276	8132.31
742.468	8666.83
742.661	8216.28
742.854	8328.92
743.046	8275.67
743.239	8924.88
743.431	8468.18
743.624	8263.38
743.816	8093.4
744.009	8232.66
744.201	8345.3
744.393	8558.29
744.586	8056.54
744.778	8804.05
744.971	8402.65
745.163	8179.42
745.355	8253.14
745.548	8394.45
745.74	8249.05
745.932	8429.27
746.125	8101.59
746.317	9129.67
746.509	8328.92
746.702	8148.7
746.894	8101.59
747.086	8572.63
747.278	8638.16
747.471	8398.55
747.663	8247
747.855	8421.08
748.047	8773.33
748.239	8228.57
748.431	8099.55
748.623	8885.97
748.815	8701.65
749.008	8302.29
749.2	8017.63
749.392	8503
749.584	8468.18
749.776	8326.87
749.968	8388.31
750.16	8802
750.352	8523.48
750.544	8167.13
750.736	8208.09
750.928	8799.95
751.12	8505.04
751.311	8167.13
751.503	8302.29
751.695	8445.65
751.887	8388.31
752.079	8113.88
752.271	7958.24
752.463	9248.46
752.654	8474.32
752.846	8257.24
753.038	8103.64
753.23	8408.79
753.421	8650.45
753.613	8347.35
753.805	8597.2
753.997	8779.47
754.188	8703.7
754.38	8144.6
754.572	8326.87
754.763	8613.59
754.955	8632.02
755.146	8380.12
755.338	8351.45
755.53	8339.16
755.721	8447.7
755.913	7931.61
756.104	8134.36
756.296	8345.3
756.487	8640.21
756.679	8103.64
756.87	8122.07
757.062	8376.02
757.253	8529.62
757.445	7972.57
757.636	8382.17
757.827	8558.29
758.019	9068.23
758.21	7956.19
758.401	8314.58
758.593	9115.34
758.784	8683.22
758.975	8310.49
759.167	8238.81
759.358	8662.74
759.549	8625.87
759.74	8183.51
759.932	8257.24
760.123	8662.74
760.314	8380.12
760.505	8236.76
760.696	8167.13
760.888	8761.04
761.079	8275.67
761.27	8072.92
761.461	7712.48
761.652	8898.25
761.843	8320.73
762.034	8083.16
762.225	8271.58
762.416	8146.65
762.607	8249.05
762.798	8224.47
762.989	7939.8
763.18	9205.45
763.371	8300.25
763.562	8130.27
763.753	8120.03
763.944	8613.59
764.135	8593.11
764.326	8203.99
764.517	8101.59
764.708	8371.93
764.899	8572.63
765.089	8089.31
765.28	8081.11
765.471	8150.74
765.662	8531.67
765.853	8183.51
766.043	7984.86
766.234	8621.78
766.425	8425.17
766.615	8113.88
766.806	8056.54
766.997	8519.38
767.187	8459.99
767.378	8142.55
767.569	7917.28
767.759	8365.78
767.95	8376.02
768.141	8351.45
768.331	8017.63
768.522	8290.01
768.712	8607.44
768.903	8134.36
769.093	8044.25
769.284	8693.46
769.474	8490.71
769.665	7796.45
769.855	7808.73
770.046	8500.95
770.236	8099.55
770.426	8208.09
770.617	7786.21
770.807	8343.25
770.998	8185.56
771.188	8126.17
771.378	7851.74
771.569	8365.78
771.759	8343.25
771.949	7902.94
772.139	7804.64
772.33	8175.32
772.52	8576.72
772.71	7972.57
772.9	7648.99
773.09	8509.14
773.281	8359.64
773.471	7841.5
773.661	7886.56
773.851	8650.45
774.041	8068.83
774.231	7982.81
774.421	8150.74
774.611	8609.49
774.802	8294.1
774.992	7929.56
775.182	7868.13
775.372	8146.65
775.562	8564.43
775.752	7978.72
775.942	7882.46
776.131	8621.78
776.321	8298.2
776.511	8034.01
776.701	7769.82
776.891	8496.85
777.081	7786.21
777.271	7945.95
777.461	7775.97
777.651	8367.83
777.84	8357.59
778.03	7907.04
778.22	7761.63
778.41	8287.96
778.599	8044.25
778.789	7722.72
778.979	7687.9
779.169	8052.44
779.358	8122.07
779.548	8183.51
779.738	7530.21
779.927	7995.1
780.117	7790.3
780.307	7790.3
780.496	7462.63
780.686	8158.94
780.875	8535.76
781.065	7788.25
781.254	7562.98
781.444	8066.78
781.633	7978.72
781.823	7614.18
782.012	7689.95
782.202	7861.98
782.391	8013.53
782.581	7610.08
782.77	7884.51
782.96	8109.79
783.149	7864.03
783.338	7855.84
783.528	7546.59
783.717	8142.55
783.906	8240.86
784.096	7739.1
784.285	7679.71
784.474	8023.77
784.663	8025.82
784.853	7735.01
785.042	7853.79
785.231	7958.24
785.42	8111.83
785.61	7718.62
785.799	7499.49
785.988	7775.97
786.177	8122.07
786.366	7855.84
786.555	7890.65
786.744	8097.5
786.933	7835.36
787.122	7388.9
787.312	7526.11
787.501	7759.58
787.69	7941.85
787.879	7638.75
788.068	7669.47
788.257	7632.61
788.445	7837.41
788.634	7648.99
788.823	7476.96
789.012	8593.11
789.201	8269.53
789.39	7759.58
789.579	7577.31
789.768	8001.24
789.957	7921.37
790.145	7614.18
790.334	7429.86
790.523	7816.93
790.712	7712.48
790.9	7532.26
791.089	7519.97
791.278	8115.93
791.467	7806.69
791.655	7872.22
791.844	8277.72
792.033	7634.66
792.221	7741.15
792.41	7681.76
792.599	7366.37
792.787	7737.06
792.976	7792.35
793.164	7642.85
793.353	7386.85
793.541	7870.17
793.73	7896.8
793.918	7499.49
794.107	7421.67
794.295	7749.34
794.484	7737.06
794.672	7481.06
794.861	7567.07
795.049	8011.48
795.238	8324.82
795.426	7456.48
795.614	7550.69
795.803	7775.97
795.991	8044.25
796.179	7505.63
796.368	7642.85
796.556	8079.07
796.744	7311.08
796.932	7349.99
797.121	7349.99
797.309	7751.39
797.497	7995.1
797.685	7651.04
797.874	7761.63
798.062	7761.63
798.25	8183.51
798.438	7526.11
798.626	7487.2
798.814	7890.65
799.002	8255.19
799.19	7716.58
799.378	7692
799.566	7964.38
799.755	7913.18
799.943	7560.93
800.131	7511.78
800.318	7876.32
800.506	7810.78
800.694	7562.98
800.882	7630.56
801.07	8009.44
801.258	7802.59
801.446	7683.81
801.634	7509.73
801.822	7786.21
802.01	7821.02
802.197	7499.49
802.385	7757.53
802.573	7958.24
802.761	7794.4
802.949	7974.62
803.136	7618.27
803.324	8177.37
803.512	7718.62
803.699	7694.05
803.887	7536.35
804.075	8132.31
804.262	7864.03
804.45	7505.63
804.638	7728.86
804.825	7837.41
805.013	7808.73
805.201	7694.05
805.388	7628.51
805.576	7956.19
805.763	8589.01
805.951	7986.91
806.138	8117.98
806.326	8578.77
806.513	8068.83
806.701	7778.01
806.888	7628.51
807.075	8167.13
807.263	8593.11
807.45	7747.3
807.638	8019.67
807.825	8521.43
808.012	8367.83
808.2	7984.86
808.387	8044.25
808.574	8300.25
808.761	8656.59
808.949	8003.29
809.136	8044.25
809.323	8290.01
809.51	8144.6
809.698	8251.1
809.885	8079.07
810.072	8486.61
810.259	8449.75
810.446	8052.44
810.633	7880.41
810.82	8664.79
811.008	8550.1
811.195	8154.84
811.382	8027.87
811.569	8292.05
811.756	8007.39
811.943	7974.62
812.13	8140.51
812.317	8093.4
812.504	8349.4
812.691	8171.22
812.878	8048.35
813.064	8644.31
813.251	8400.6
813.438	7835.36
813.625	8183.51
813.812	8179.42
813.999	8275.67
814.186	8287.96
814.372	8107.74
814.559	8351.45
814.746	8652.5
814.933	8087.26
815.12	8249.05
815.306	8347.35
815.493	8343.25
815.68	8294.1
815.866	8140.51
816.053	8816.33
816.24	8922.83
816.426	8021.72
816.613	8021.72
816.799	8662.74
816.986	8732.37
817.173	8003.29
817.359	8044.25
817.546	8507.09
817.732	8107.74
817.919	8044.25
818.105	8138.46
818.292	8398.55
818.478	8546
818.665	8390.36
818.851	8048.35
819.037	8947.4
819.224	8255.19
819.41	7894.75
819.597	7825.12
819.783	8703.7
819.969	8314.58
820.156	8179.42
820.342	8019.67
820.528	9141.96
820.714	8101.59
820.901	8152.79
821.087	8167.13
821.273	8902.35
821.459	8255.19
821.646	8036.06
821.832	8281.81
822.018	8406.74
822.204	8404.69
822.39	8068.83
822.576	8136.41
822.762	8314.58
822.948	8265.43
823.134	8251.1
823.32	7986.91
823.507	7991
823.693	8429.27
823.879	8402.65
824.065	8146.65
824.25	8433.36
824.436	8259.29
824.622	8040.15
824.808	7966.43
824.994	8113.88
825.18	7919.32
825.366	7821.02
825.552	7843.55
825.738	8459.99
825.923	8486.61
826.109	8275.67
826.295	8015.58
826.481	7948
826.667	7988.96
826.852	8072.92
827.038	7591.65
827.224	8394.45
827.409	8582.87
827.595	7775.97
827.781	7904.99
827.966	8337.11
828.152	8738.51
828.338	7743.2
828.523	7605.99
828.709	7939.8
828.894	8503
829.08	7937.76
829.266	7806.69
829.451	7982.81
829.637	8034.01
829.822	7970.52
830.008	7790.3
830.193	8416.98
830.378	8580.82
830.564	7833.31
830.749	7806.69
830.935	8224.47
831.12	8281.81
831.305	7614.18
831.491	7861.98
831.676	7982.81
831.861	8404.69
832.047	7902.94
832.232	7581.41
832.417	8120.03
832.602	8287.96
832.788	7692
832.973	7726.82
833.158	8306.39
833.343	8001.24
833.528	8040.15
833.714	8027.87
833.899	8036.06
834.084	8462.04
834.269	7784.16
834.454	7847.65
834.639	8163.03
834.824	8058.59
835.009	8027.87
835.194	8117.98
835.379	8230.62
835.564	8273.62
835.749	7968.48
835.934	7638.75
836.119	8134.36
836.304	8134.36
836.489	7573.22
836.674	7810.78
836.859	7784.16
837.044	8290.01
837.228	7800.54
837.413	7638.75
837.598	8138.46
837.783	8058.59
837.968	7732.96
838.152	7593.7
838.337	7554.79
838.522	8150.74
838.707	8089.31
838.891	7749.34
839.076	8068.83
839.261	8310.49
839.445	7605.99
839.63	7685.86
839.815	8171.22
839.999	7722.72
840.184	7698.14
840.368	7745.25
840.553	8003.29
840.737	8060.63
840.922	7524.07
841.106	7622.37
841.291	7538.4
841.475	7896.8
841.66	7358.18
841.844	7487.2
842.029	8568.53
842.213	7540.45
842.397	7507.68
842.582	7227.11
842.766	8126.17
842.951	7995.1
843.135	7354.09
843.319	7532.26
843.504	7796.45
843.688	7732.96
843.872	7358.18
844.056	7464.68
844.241	7900.89
844.425	7601.89
844.609	7679.71
844.793	7223.02
844.977	7835.36
845.161	7720.67
845.346	7329.51
845.53	7407.33
845.714	7683.81
845.898	8009.44
846.082	7241.45
846.266	7380.71
846.45	7659.23
846.634	7821.02
846.818	7450.34
847.002	7624.42
847.186	7915.23
847.37	7298.79
847.554	7200.49
847.738	7583.46
847.922	7823.07
848.106	7861.98
848.29	7333.61
848.473	7401.19
848.657	7681.76
848.841	7714.53
849.025	7388.9
849.209	7321.32
849.392	7874.27
849.576	7395.04
849.76	7012.07
849.944	7431.91
850.127	7925.47
850.311	7223.02
850.495	7143.14
850.678	7055.08
850.862	7829.21
851.046	7868.13
851.229	7401.19
851.413	7216.87
851.596	7362.28
851.78	7442.15
851.964	7380.71
852.147	7171.82
852.331	8242.9
852.514	7569.12
852.698	7261.93
852.881	6991.59
853.065	7630.56
853.248	7304.93
853.431	7167.72
853.615	7343.85
853.798	8015.58
853.982	7485.16
854.165	7364.32
854.348	7286.5
854.532	7188.2
854.715	7249.64
854.898	7257.83
855.081	7026.41
855.265	7802.59
855.448	7896.8
855.631	7276.26
855.814	7243.49
855.997	7757.53
856.181	7270.12
856.364	7331.56
856.547	7007.98
856.73	7214.82
856.913	7409.38
857.096	6956.78
857.279	6973.16
857.462	7114.47
857.645	7524.07
857.828	7206.63
858.011	7186.15
858.194	7249.64
858.377	7483.11
858.56	7128.81
858.743	7114.47
858.926	6881
859.109	7358.18
859.292	6946.54
859.475	6856.43
859.658	7460.58
859.841	7329.51
860.023	6979.31
860.206	6889.2
860.389	7399.14
860.572	7466.72
860.755	6995.69
860.937	6799.09
861.12	7167.72
861.303	7110.38
861.486	6829.81
861.668	6729.45
861.851	7180.01
862.034	7270.12
862.216	6891.24
862.399	6692.59
862.581	7200.49
862.764	7397.09
862.947	6885.1
863.129	6782.7
863.312	6842.09
863.494	7483.11
863.677	7106.28
863.859	6446.83
864.042	7366.37
864.224	7474.92
864.406	6719.21
864.589	6563.57
864.771	6936.3
864.954	6717.17
865.136	6487.79
865.318	6629.1
865.501	7130.86
865.683	6608.62
865.865	6649.58
866.048	6641.39
866.23	6942.44
866.412	6874.86
866.594	6600.43
866.777	6727.41
866.959	7005.93
867.141	6747.89
867.323	7016.17
867.505	6852.33
867.687	6813.42
867.869	6924.01
868.052	6690.54
868.234	6530.8
868.416	6860.52
868.598	7032.55
868.78	6741.74
868.962	6575.86
869.144	7114.47
869.326	7227.11
869.508	6588.14
869.69	6573.81
869.872	6735.6
870.054	7214.82
870.236	6278.9
870.417	6541.04
870.599	6747.89
870.781	7245.54
870.963	6721.26
871.145	6328.05
871.327	6713.07
871.508	7014.12
871.69	6545.14
871.872	6682.35
872.054	6645.49
872.235	6938.35
872.417	6680.3
872.599	6297.33
872.78	7274.21
872.962	6866.67
873.144	6319.86
873.325	6598.38
873.507	7255.78
873.689	6924.01
873.87	6299.38
874.052	6604.53
874.233	6921.96
874.415	7073.51
874.596	6543.09
874.778	6401.78
874.959	6999.79
875.141	7100.14
875.322	6633.2
875.503	6440.69
875.685	6983.4
875.866	6508.27
876.048	6563.57
876.229	6473.46
876.41	6702.83
876.592	7048.94
876.773	6733.55
876.954	6514.42
877.136	7276.26
877.317	6844.14
877.498	6332.15
877.679	6663.92
877.86	7118.57
878.042	6821.61
878.223	6668.02
878.404	7067.37
878.585	7210.73
878.766	7544.55
878.947	7007.98
879.128	6762.22
879.309	7315.17
879.49	7335.65
879.672	6921.96
879.853	6858.48
880.034	6903.53
880.215	6981.35
880.396	6870.76
880.576	6692.59
880.757	6815.47
880.938	7270.12
881.119	6866.67
881.3	6821.61
881.481	7053.03
881.662	7939.8
881.843	6737.65
882.023	6668.02
882.204	7229.16
882.385	7038.7
882.566	6897.39
882.747	6856.43
882.927	7012.07
883.108	7507.68
883.289	6924.01
883.469	7055.08
883.65	7159.53
883.831	7229.16
884.011	6952.68
884.192	6956.78
884.373	7347.94
884.553	7173.86
884.734	7190.25
884.914	7313.13
885.095	7958.24
885.275	7831.26
885.456	7384.8
885.636	6979.31
885.817	7386.85
885.997	7425.76
886.178	7157.48
886.358	7044.84
886.538	7300.84
886.719	8359.64
886.899	6946.54
887.08	7100.14
887.26	7739.1
887.44	7134.95
887.621	7151.34
887.801	7317.22
887.981	8138.46
888.161	7540.45
888.342	7157.48
888.522	7349.99
888.702	7724.77
888.882	8042.2
889.062	7474.92
889.242	7012.07
889.423	8025.82
889.603	7737.06
889.783	7239.4
889.963	7212.78
890.143	7763.68
890.323	7786.21
890.503	7341.8
890.683	7282.41
890.863	7704.29
891.043	7839.45
891.223	7347.94
891.403	7532.26
891.583	7380.71
891.763	7569.12
891.943	7634.66
892.122	7347.94
892.302	7714.53
892.482	7603.94
892.662	7487.2
892.842	7212.78
893.022	7605.99
893.201	7419.62
893.381	7528.16
893.561	7309.03
893.741	7702.24
893.92	7634.66
894.1	7659.23
894.28	7595.75
894.459	7827.17
894.639	7685.86
894.819	7354.09
894.998	7470.82
895.178	7896.8
895.357	7767.77
895.537	7407.33
895.716	7466.72
895.896	7704.29
896.075	8158.94
896.255	7325.41
896.434	7214.82
896.614	7900.89
896.793	8099.55
896.973	7536.35
897.152	7462.63
897.331	7890.65
897.511	7841.5
897.69	7323.37
897.87	7503.59
898.049	7831.26
898.228	7562.98
898.407	7749.34
898.587	7393
898.766	7470.82
898.945	7917.28
899.124	7692
899.304	7579.36
899.483	7704.29
899.662	8160.98
899.841	7300.84
900.02	7481.06
900.199	7769.82
900.378	7753.44
900.557	7317.22
900.737	7298.79
900.916	7874.27
901.095	7812.83
901.274	7495.39
901.453	7192.3
901.632	7454.44
901.811	7405.28
901.989	7210.73
902.168	7292.65
902.347	7939.8
902.526	7362.28
902.705	7067.37
902.884	7290.6
903.063	7810.78
903.242	7904.99
903.42	7327.46
903.599	7388.9
903.778	7706.34
903.957	7859.93
904.135	7388.9
904.314	7251.69
904.493	7319.27
904.672	7677.66
904.85	7231.21
905.029	7198.44
905.207	7575.27
905.386	8238.81
905.565	7001.83
905.743	7259.88
905.922	7169.77
906.1	7411.43
906.279	7042.79
906.457	7233.25
906.636	7372.52
906.814	7368.42
906.993	7038.7
907.171	7022.31
907.35	7544.55
907.528	7794.4
907.707	7263.97
907.885	7028.46
908.063	7732.96
908.242	7190.25
908.42	6934.25
908.598	6864.62
908.777	7184.1
908.955	7145.19
909.133	6913.77
909.311	6768.37
909.49	7118.57
909.668	7243.49
909.846	6823.66
910.024	6706.93
910.202	7278.31
910.38	7159.53
910.559	6790.89
910.737	6776.56
910.915	7347.94
911.093	7368.42
911.271	6852.33
911.449	6997.74
911.627	7163.62
911.805	7612.13
911.983	6864.62
912.161	6702.83
912.339	7147.24
912.517	7372.52
912.695	7018.22
912.872	6686.45
913.05	6698.74
913.228	7173.86
913.406	6735.6
913.584	6815.47
913.762	7294.69
913.939	7038.7
914.117	6735.6
914.295	6545.14
914.473	6969.07
914.65	6874.86
914.828	6649.58
915.006	6625.01
915.184	6651.63
915.361	7063.27
915.539	6743.79
915.716	6774.51
915.894	6874.86
916.072	7079.66
916.249	6725.36
916.427	6637.3
916.604	6401.78
916.782	6735.6
916.959	6315.76
917.137	6211.32
917.314	6739.69
917.492	6850.28
917.669	6483.7
917.847	6434.55
918.024	6833.9
918.201	6426.36
918.379	6371.06
918.556	6493.94
918.733	6870.76
918.911	6586.1
919.088	6485.75
919.265	6504.18
919.442	6649.58
919.62	6479.6
919.797	6235.89
919.974	6090.49
920.151	6590.19
920.328	6444.79
920.506	6074.1
920.683	6459.12
920.86	6196.98
921.037	6162.17
921.214	6012.67
921.391	6037.24
921.568	6473.46
921.745	6110.97
921.922	6072.06
922.099	6008.57
922.276	6577.9
922.453	6285.05
922.63	5902.08
922.807	6270.71
922.984	6205.17
923.161	6006.52
923.338	5850.88
923.514	5883.64
923.691	6221.56
923.868	6319.86
924.045	5752.57
924.222	5662.46
924.399	6131.45
924.575	6352.63
924.752	5797.63
924.929	5822.2
925.105	6041.34
925.282	5852.92
925.459	5824.25
925.635	5793.53
925.812	5955.32
925.989	5580.54
926.165	5644.03
926.342	5392.13
926.518	5639.94
926.695	5732.09
926.871	5385.99
927.048	5441.28
927.224	5912.32
927.401	5560.06
927.577	5408.51
927.754	5164.81
927.93	6115.06
928.107	6057.72
928.283	5363.46
928.459	5535.49
928.636	5668.61
928.812	5447.43
928.988	5226.25
929.165	5373.7
929.341	5664.51
929.517	5684.99
929.693	5609.22
929.87	4904.71
930.046	5613.31
930.222	5269.25
930.398	5232.39
930.574	5254.92
930.751	5234.44
930.927	5160.71
931.103	5228.29
931.279	5242.63
931.455	5029.64
931.631	5295.88
931.807	4816.65
931.983	4783.88
932.159	4830.99
932.335	5287.68
932.511	4794.12
932.687	4917
932.863	5084.94
933.039	4974.35
933.215	4669.2
933.391	4646.67
933.566	4992.78
933.742	4910.86
933.918	4603.66
934.094	4488.98
934.27	4830.99
934.445	4865.8
934.621	4681.49
934.797	4538.13
934.973	4943.63
935.148	4859.66
935.324	4243.22
935.5	4069.14
935.675	4857.61
935.851	4536.08
936.027	3970.84
936.202	4099.86
936.378	4380.43
936.553	4112.15
936.729	4384.53
936.904	4034.33
937.08	3723.04
937.255	3757.85
937.431	3555.1
937.606	3411.75
937.782	3737.37
937.957	3796.76
938.133	3530.53
938.308	3391.27
938.483	3602.21
938.659	3411.75
938.834	3311.39
939.009	3186.47
939.185	3364.64
939.36	3270.44
939.535	2862.89
939.71	3182.37
939.886	3446.56
940.061	3405.6
940.236	3086.12
940.411	2946.86
940.586	3297.06
940.761	3411.75
940.937	2905.9
941.112	2629.42
941.287	3047.21
941.462	3024.68
941.637	2658.09
941.812	2692.91
941.987	2961.19
942.162	2991.91
942.337	2805.55
942.512	2613.04
942.687	3239.72
942.862	2912.04
943.037	2465.58
943.212	2234.16
943.386	2674.48
943.561	2877.23
943.736	2649.9
943.911	2948.9
944.086	2938.66
944.26	2795.31
944.435	2498.35
944.61	2559.79
944.785	3065.64
944.959	3079.97
945.134	2547.5
945.309	2305.84
945.483	2445.1
945.658	2969.38
945.833	2090.81
946.007	2395.95
946.182	3000.1
946.357	2520.88
946.531	2316.08
946.706	2400.05
946.88	2197.3
947.055	2598.7
947.229	2473.78
947.404	2330.42
947.578	2928.42
947.752	2588.46
947.927	2240.31
948.101	2228.02
948.276	2881.32
948.45	2619.18
948.624	2725.68
948.799	2412.34
948.973	2694.96
949.147	2309.94
949.321	2426.67
949.496	2342.71
949.67	2899.75
949.844	2498.35
950.018	2391.86
950.193	2426.67
950.367	3022.63
950.541	2713.39
950.715	2506.54
950.889	2481.97
951.063	2705.2
951.237	2768.68
951.411	2185.01
951.585	2346.8
951.759	2834.22
951.933	2578.22
952.107	2473.78
952.281	2481.97
952.455	2979.62
952.629	2836.27
952.803	2418.48
952.977	2207.54
953.151	2785.07
953.325	2764.59
953.499	2656.04
953.672	2152.24
953.846	2330.42
954.02	2481.97
954.194	2252.59
954.368	2418.48
954.541	2727.72
954.715	2467.63
954.889	2412.34
955.062	2277.17
955.236	2539.31
955.41	2471.73
955.583	2639.66
955.757	2115.38
955.93	2426.67
956.104	2352.95
956.278	2414.38
956.451	2453.3
956.625	2623.28
956.798	2912.04
956.972	2780.97
957.145	2232.12
957.319	2697
957.492	2656.04
957.665	2559.79
957.839	2400.05
958.012	2686.76
958.185	2469.68
958.359	2426.67
958.532	2502.45
958.705	2668.33
958.879	2662.19
959.052	2490.16
959.225	2160.44
959.398	2699.05
959.572	2729.77
959.745	2262.83
959.918	2301.75
960.091	2447.15
960.264	2760.49
960.438	2252.59
960.611	2311.99
960.784	2852.65
960.957	2449.2
961.13	2713.39
961.303	2344.75
961.476	2508.59
961.649	2864.94
961.822	2264.88
961.995	2260.79
962.168	2672.43
962.341	2535.21
962.514	2295.6
962.686	2338.61
962.859	2547.5
963.032	2617.13
963.205	2223.92
963.378	2146.1
963.551	2654
963.723	2481.97
963.896	2375.47
964.069	2375.47
964.242	2541.36
964.414	2662.19
964.587	2238.26
964.76	2223.92
964.932	2506.54
965.105	2441.01
965.278	2219.83
965.45	2240.31
965.623	2563.89
965.795	2625.33
965.968	2137.91
966.14	2248.5
966.313	2408.24
966.485	2606.89
966.658	2225.97
966.83	2150.2
967.003	2690.86
967.175	2748.2
967.348	2195.25
967.52	2264.88
967.692	2838.31
967.865	2641.71
968.037	2273.07
968.209	2508.59
968.382	2350.9
968.554	2615.09
968.726	2203.44
968.898	2285.36
969.071	2424.62
969.243	2559.79
969.415	2258.74
969.587	2295.6
969.759	2848.55
969.932	2662.19
970.104	2121.52
970.276	1906.49
970.448	2250.55
970.62	2289.46
970.792	2324.27
970.964	2234.16
971.136	2899.75
971.308	2484.02
971.48	2133.81
971.652	2107.19
971.824	2727.72
971.996	2193.2
972.168	2176.82
972.339	2207.54
972.511	2490.16
972.683	2330.42
972.855	2309.94
973.027	2076.47
973.199	2248.5
973.37	2551.6
973.542	2289.46
973.714	2217.78
973.886	2238.26
974.057	2535.21
974.229	1875.77
974.401	2070.33
974.572	2203.44
974.744	1849.15
974.915	2015.03
975.087	1935.16
975.259	2563.89
975.43	2131.76
975.602	2031.41
975.773	1965.88
975.945	2115.38
976.116	2377.52
976.288	1851.19
976.459	2211.64
976.63	2242.36
976.802	2273.07
976.973	1890.1
977.145	2199.35
977.316	2678.57
977.487	2670.38
977.659	2139.96
977.83	2012.98
978.001	2588.46
978.172	2314.03
978.344	2002.74
978.515	2039.61
978.686	2203.44
978.857	2572.08
979.028	1949.5
979.2	1955.64
979.371	2441.01
979.542	2156.34
979.713	2105.14
979.884	1720.12
980.055	2217.78
980.226	2162.48
980.397	1883.96
980.568	1814.33
980.739	2420.53
980.91	2023.22
981.081	1982.26
981.252	1863.48
981.423	2348.85
981.594	2488.11
981.765	1883.96
981.936	2043.7
982.106	2137.91
982.277	2424.62
982.448	1795.9
982.619	2111.29
982.79	2088.76
982.96	2344.75
983.131	2023.22
983.302	1812.28
983.472	2008.89
983.643	2162.48
983.814	2015.03
983.984	1861.43
984.155	1986.36
984.326	2348.85
984.496	1945.4
984.667	1777.47
984.837	1886.01
985.008	2297.65
985.178	2037.56
985.349	1908.54
985.519	2115.38
985.69	1855.29
985.86	1802.04
986.031	1785.66
986.201	2109.24
986.371	2099
986.542	1699.64
986.712	1675.07
986.882	2180.92
987.053	2068.28
987.223	1767.23
987.393	1822.52
987.563	1865.53
987.734	2295.6
987.904	2205.49
988.074	1728.31
988.244	2066.23
988.414	1877.82
988.585	1640.25
988.755	1869.62
988.925	1929.02
989.095	2346.8
989.265	1673.02
989.435	1828.67
989.605	2178.87
989.775	2125.62
989.945	2080.57
990.115	1662.78
990.285	1953.59
990.455	2002.74
990.625	1713.98
990.795	1609.53
990.965	2193.2
991.134	1683.26
991.304	1578.81
991.474	1654.59
991.644	1879.86
991.814	2281.27
991.984	1527.61
992.153	1560.38
992.323	1963.83
992.493	1881.91
992.662	1462.08
992.832	1793.85
993.002	1896.25
993.171	2004.79
993.341	1390.4
993.511	1836.86
993.68	1775.42
993.85	2096.95
994.019	1423.17
994.189	1419.07
994.358	1814.33
994.528	1713.98
994.697	1265.47
994.867	1412.93
995.036	1937.21
995.206	1810.23
995.375	1480.51
995.544	1615.68
995.714	1892.15
995.883	1754.94
996.052	1691.45
996.222	1296.19
996.391	2260.79
996.56	1900.34
996.73	1363.78
996.899	1369.92
997.068	2049.85
997.237	1849.15
997.406	1331.01
997.576	1380.16
997.745	1793.85
997.914	1720.12
998.083	1222.47
998.252	1380.16
998.421	1683.26
998.59	1527.61
998.759	1457.98
998.928	1290.05
999.097	1972.02
999.266	1724.22
999.435	1609.53
999.604	1142.6
999.773	2148.15
999.942	1605.44
1000.111	1103.68
1000.28	1179.46
1000.448	1515.33
1000.617	1263.43
1000.786	1482.56
1000.955	1146.69
1001.124	1695.55
1001.292	2309.94
1001.461	1312.58
1001.63	1351.49
1001.798	1953.59
1001.967	1920.82
1002.136	1122.12
1002.304	1265.47
1002.473	1709.88
1002.642	1748.79
1002.81	1392.45
1002.979	1181.51
1003.147	1804.09
1003.316	2154.29
1003.484	1201.99
1003.653	1156.93
1003.821	1869.62
1003.99	1455.94
1004.158	1408.83
1004.327	1343.3
1004.495	1599.29
1004.663	1281.86
1004.832	1335.1
1005	1032.01
1005.168	1720.12
1005.337	1642.3
1005.505	1068.87
1005.673	1390.4
1005.842	1634.11
1006.01	1500.99
1006.178	1126.21
1006.346	1109.83
1006.514	1656.64
1006.683	1728.31
1006.851	1187.65
1007.019	1005.38
1007.187	1410.88
1007.355	1081.16
1007.523	986.95
1007.691	1015.62
1007.859	1163.08
1008.027	1748.79
1008.195	1195.84
1008.363	976.71
1008.531	1634.11
1008.699	1324.87
1008.867	1054.53
1009.035	1146.69
1009.203	1656.64
1009.37	1400.64
1009.538	1158.98
1009.706	1478.46
1009.874	1558.33
1010.042	1324.87
1010.209	909.13
1010.377	993.09
1010.545	1546.05
1010.713	1335.1
1010.88	1126.21
1011.048	1085.25
1011.216	1367.87
1011.383	1662.78
1011.551	995.14
1011.718	958.28
1011.886	1589.05
1012.054	1353.54
1012.221	968.52
1012.389	986.95
1012.556	1322.82
1012.724	1769.27
1012.891	1056.58
1013.058	845.64
1013.226	1371.97
1013.393	1333.06
1013.561	855.88
1013.728	702.28
1013.895	1537.85
1014.063	1490.75
1014.23	802.63
1014.397	929.61
1014.565	1546.05
1014.732	1179.46
1014.899	849.74
1015.066	802.63
1015.233	1320.77
1015.401	1396.54
1015.568	880.46
1015.735	1019.72
1015.902	1208.13
1016.069	1408.83
1016.236	892.74
1016.403	853.83
1016.57	958.28
1016.737	1365.82
1016.904	960.33
1017.071	753.48
1017.238	1089.35
1017.405	1394.5
1017.572	859.98
1017.739	1015.62
1017.906	1251.14
1018.073	1482.56
1018.24	683.85
1018.407	757.58
1018.573	1414.98
1018.74	1079.11
1018.907	802.63
1019.074	687.95
1019.241	1267.52
1019.407	1271.62
1019.574	794.44
1019.741	642.89
1019.907	1249.09
1020.074	1275.71
1020.241	606.03
1020.407	819.02
1020.574	1216.32
1020.74	1240.9
1020.907	700.23
1021.073	671.56
1021.24	1582.91
1021.406	1466.17
1021.573	644.94
1021.739	708.43
1021.906	1326.91
1022.072	1134.4
1022.239	692.04
1022.405	675.66
1022.571	1154.88
1022.738	1040.2
1022.904	683.85
1023.07	614.22
1023.237	1015.62
1023.403	1335.1
1023.569	773.96
1023.735	700.23
1023.902	1240.9
1024.068	1154.88
1024.234	585.55
1024.4	655.18
1024.566	978.76
1024.732	1388.35
1024.898	644.94
1025.065	632.65
1025.231	1290.05
1025.397	966.47
1025.563	589.64
1025.729	556.88
1025.895	667.47
1026.061	792.39
1026.227	542.54
1026.392	599.88
1026.558	1228.61
1026.724	1122.12
1026.89	567.12
1027.056	759.63
1027.222	966.47
1027.388	821.06
1027.553	587.6
1027.719	626.51
1027.885	1429.31
1028.051	1095.49
1028.216	495.44
1028.382	591.69
1028.548	1158.98
1028.713	798.54
1028.879	464.72
1029.045	745.29
1029.21	1183.56
1029.376	1224.51
1029.541	581.45
1029.707	610.12
1029.873	1091.4
1030.038	1173.32
1030.204	497.49
1030.369	511.82
1030.534	1101.64
1030.7	821.06
1030.865	589.64
1031.031	462.67
1031.196	1044.29
1031.361	974.66
1031.527	495.44
1031.692	444.24
1031.857	532.3
1032.023	1007.43
1032.188	466.77
1032.353	589.64
1032.518	1285.95
1032.684	835.4
1032.849	343.89
1033.014	526.16
1033.179	1025.86
1033.344	937.8
1033.509	520.01
1033.674	505.68
1033.839	1015.62
1034.004	1029.96
1034.17	434
1034.335	347.98
1034.5	687.95
1034.664	671.56
1034.829	360.27
1034.994	526.16
1035.159	868.17
1035.324	821.06
1035.489	411.47
1035.654	431.95
1035.819	1134.4
1035.984	831.3
1036.148	464.72
1036.313	474.96
1036.478	1042.25
1036.643	821.06
1036.807	347.98
1036.972	364.37
1037.137	1138.5
1037.301	720.71
1037.466	233.3
1037.631	577.36
1037.795	1058.63
1037.96	884.55
1038.124	534.35
1038.289	319.31
1038.454	962.37
1038.618	991.05
1038.783	386.9
1038.947	524.11
1039.111	810.82
1039.276	728.91
1039.44	386.9
1039.605	876.36
1039.769	714.57
1039.933	747.34
1040.098	401.23
1040.262	608.08
1040.426	1048.39
1040.591	921.42
1040.755	255.83
1040.919	380.75
1041.083	694.09
1041.248	630.6
1041.412	245.59
1041.576	266.07
1041.74	663.37
1041.904	905.03
1042.068	329.55
1042.232	345.94
1042.397	872.26
1042.561	855.88
1042.725	118.61
1042.889	458.57
1043.053	868.17
1043.217	839.5
1043.381	403.28
1043.544	218.96
1043.708	986.95
1043.872	454.48
1044.036	73.56
1044.2	147.28
1044.364	995.14
1044.528	966.47
1044.691	5144.33
1044.855	229.2
1045.019	1003.33
1045.183	788.3
1045.346	409.42
1045.51	302.93
1045.674	659.28
1045.837	812.87
1046.001	313.17
1046.165	321.36
1046.328	1158.98
1046.492	812.87
1046.655	450.38
1046.819	378.7
1046.983	540.49
1047.146	792.39
1047.31	317.26
1047.473	167.76
1047.636	558.92
1047.8	446.29
1047.963	284.5
1048.127	274.26
1048.29	495.44
