Data from Ink_Intensity_USB4F045381__30__00030.txt Node

Date: Mon Jul 17 09:47:52 EDT 2023
User: mmckonesweet
Spectrometer: USB4F04538
Trigger mode: 4
Integration Time (sec): 9.000000E-1
Scans to average: 1
Electric dark correction enabled: true
Nonlinearity correction enabled: false
Boxcar width: 0
XAxis mode: Wavelengths
Number of Pixels in Spectrum: 3648
>>>>>Begin Spectral Data<<<<<
345.52	-966.81
345.736	-966.81
345.952	-966.81
346.168	-905.37
346.384	-936.09
346.6	-57.51
346.816	-254.12
347.032	-209.06
347.248	171.86
347.464	-133.29
347.68	-86.19
347.896	104.28
348.112	313.17
348.328	-51.37
348.544	-125.1
348.76	-22.7
348.975	350.03
349.191	-139.43
349.407	-32.94
349.623	-49.32
349.839	-65.71
350.055	-125.1
350.27	73.56
350.486	188.24
350.702	436.05
350.918	212.82
351.133	-182.44
351.349	122.71
351.565	276.31
351.781	-219.3
351.996	24.4
352.212	358.22
352.428	-161.96
352.644	-155.82
352.859	-155.82
353.075	323.41
353.291	36.69
353.506	-135.34
353.722	-106.67
353.938	-75.95
354.153	474.96
354.369	100.18
354.584	-172.2
354.8	270.16
355.016	-215.21
355.231	-186.54
355.447	-69.8
355.662	200.53
355.878	853.83
356.093	-303.27
356.309	-2.22
356.524	-182.44
356.74	210.77
356.955	-143.53
357.171	-32.94
357.386	135
357.602	-243.88
357.817	-86.19
358.033	-82.09
358.248	393.04
358.464	116.56
358.679	-164.01
358.895	-303.27
359.11	-61.61
359.325	335.7
359.541	268.11
359.756	73.56
359.972	-344.23
360.187	108.37
360.402	-139.43
360.618	-166.06
360.833	964.42
361.048	36.69
361.264	-157.86
361.479	-26.79
361.694	89.94
361.909	229.2
362.125	-186.54
362.34	-10.41
362.555	225.11
362.77	61.27
362.986	-250.02
363.201	-63.66
363.416	143.19
363.631	-102.57
363.847	-182.44
364.062	-127.14
364.277	145.24
364.492	147.28
364.707	-92.33
364.922	-446.63
365.138	264.02
365.353	268.11
365.568	-170.15
365.783	-108.71
365.998	122.71
366.213	556.88
366.428	-245.93
366.643	94.04
366.858	284.5
367.073	255.83
367.288	-123.05
367.503	-198.82
367.718	73.56
367.933	276.31
368.148	-284.84
368.363	-32.94
368.578	30.55
368.793	366.42
369.008	-143.53
369.223	-213.16
369.438	284.5
369.653	380.75
369.868	-266.41
370.083	-166.06
370.298	44.88
370.513	360.27
370.728	10.07
370.943	-137.38
371.157	-200.87
371.372	585.55
371.587	-194.73
371.802	-245.93
372.017	61.27
372.232	446.29
372.446	24.4
372.661	-225.45
372.876	243.54
373.091	126.8
373.306	-43.18
373.52	-198.82
373.735	-166.06
373.95	335.7
374.165	-69.8
374.379	-164.01
374.594	-143.53
374.809	122.71
375.023	87.89
375.238	-252.07
375.453	225.11
375.667	-250.02
375.882	-100.52
376.097	-137.38
376.311	48.98
376.526	-100.52
376.741	-116.9
376.955	98.13
377.17	462.67
377.384	550.73
377.599	-75.95
377.813	-209.06
378.028	538.45
378.242	143.19
378.457	-73.9
378.672	-256.17
378.886	36.69
379.101	-47.27
379.315	-297.13
379.53	-135.34
379.744	161.62
379.958	227.15
380.173	-112.81
380.387	-147.62
380.602	143.19
380.816	-121
381.031	-106.67
381.245	-96.43
381.459	145.24
381.674	2418.48
381.888	-256.17
382.103	94.04
382.317	-190.63
382.531	479.05
382.746	-4.27
382.96	-110.76
383.174	-106.67
383.388	474.96
383.603	10.07
383.817	-239.78
384.031	139.09
384.246	425.81
384.46	65.36
384.674	325.46
384.888	12.12
385.103	83.8
385.317	-262.31
385.531	10.07
385.745	415.57
385.959	237.39
386.174	-221.35
386.388	-225.45
386.602	1.88
386.816	-153.77
387.03	-73.9
387.244	-123.05
387.458	51.03
387.672	302.93
387.887	-321.7
388.101	-297.13
388.315	347.98
388.529	53.08
388.743	-106.67
388.957	-268.45
389.171	364.37
389.385	-186.54
389.599	-104.62
389.813	87.89
390.027	161.62
390.241	616.27
390.455	-133.29
390.669	-108.71
390.883	-178.34
391.097	364.37
391.311	5.97
391.525	-172.2
391.738	169.81
391.952	200.53
392.166	-108.71
392.38	-223.4
392.594	202.58
392.808	341.84
393.022	-26.79
393.236	-151.72
393.449	120.66
393.663	147.28
393.877	-252.07
394.091	-24.75
394.305	12.12
394.518	-127.14
394.732	-252.07
394.946	-127.14
395.16	462.67
395.373	94.04
395.587	-198.82
395.801	-207.02
396.015	317.26
396.228	163.67
396.442	-209.06
396.656	-315.56
396.869	278.35
397.083	341.84
397.297	-133.29
397.51	-137.38
397.724	378.7
397.938	67.41
398.151	-245.93
398.365	-215.21
398.578	229.2
398.792	421.71
399.005	-6.31
399.219	-112.81
399.433	75.6
399.646	210.77
399.86	12.12
400.073	-6.31
400.287	229.2
400.5	-73.9
400.714	-28.84
400.927	-129.19
401.141	198.48
401.354	1095.49
401.567	167.76
401.781	-133.29
401.994	257.87
402.208	589.64
402.421	-63.66
402.635	-121
402.848	-22.7
403.061	298.83
403.275	16.21
403.488	-280.74
403.701	456.53
403.915	255.83
404.128	-4.27
404.341	-112.81
404.555	149.33
404.768	-12.46
404.981	81.75
405.195	-178.34
405.408	534.35
405.621	167.76
405.834	57.17
406.048	-227.5
406.261	374.61
406.474	468.81
406.687	-182.44
406.9	65.36
407.114	-0.17
407.327	102.23
407.54	-352.42
407.753	-323.75
407.966	-139.43
408.179	204.63
408.392	-182.44
408.605	-284.84
408.819	132.95
409.032	200.53
409.245	-135.34
409.458	26.45
409.671	178
409.884	237.39
410.097	-200.87
410.31	-71.85
410.523	143.19
410.736	-32.94
410.949	-92.33
411.162	-24.75
411.375	440.14
411.588	255.83
411.801	67.41
412.014	-180.39
412.227	-39.08
412.44	-49.32
412.653	-178.34
412.865	42.84
413.078	284.5
413.291	124.76
413.504	-34.99
413.717	-159.91
413.93	186.19
414.143	-196.78
414.356	-159.91
414.568	-262.31
414.781	270.16
414.994	51.03
415.207	-92.33
415.42	-98.47
415.632	241.49
415.845	548.68
416.058	-311.46
416.271	-213.16
416.483	12.12
416.696	491.34
416.909	-184.49
417.121	-125.1
417.334	163.67
417.547	466.77
417.759	-176.3
417.972	-266.41
418.185	-45.23
418.397	239.44
418.61	-153.77
418.823	-188.58
419.035	356.18
419.248	-80.04
419.46	-51.37
419.673	-129.19
419.885	286.54
420.098	16.21
420.311	-135.34
420.523	-377
420.736	178
420.948	48.98
421.161	-204.97
421.373	-321.7
421.586	169.81
421.798	-112.81
422.01	-237.74
422.223	14.17
422.435	-116.9
422.648	157.52
422.86	-98.47
423.073	-211.11
423.285	362.32
423.497	-340.13
423.71	-172.2
423.922	-288.93
424.134	16.21
424.347	378.7
424.559	69.46
424.771	157.52
424.984	-4.27
425.196	190.29
425.408	-317.61
425.621	-321.7
425.833	229.2
426.045	255.83
426.257	-176.3
426.47	-149.67
426.682	149.33
426.894	225.11
427.106	-227.5
427.318	-110.76
427.531	-37.03
427.743	167.76
427.955	-221.35
428.167	266.07
428.379	169.81
428.591	-22.7
428.804	-34.99
429.016	-229.54
429.228	-61.61
429.44	75.6
429.652	122.71
429.864	-297.13
430.076	44.88
430.288	3.93
430.5	-141.48
430.712	-55.47
430.924	339.79
431.136	44.88
431.348	-348.33
431.56	-166.06
431.772	102.23
431.984	-80.04
432.196	-282.79
432.408	-59.56
432.62	3.93
432.832	139.09
433.044	128.85
433.256	-28.84
433.468	216.91
433.679	-299.17
433.891	-207.02
434.103	-6.31
434.315	382.8
434.527	169.81
434.739	-61.61
434.95	-145.58
435.162	229.2
435.374	-116.9
435.586	-94.38
435.798	-166.06
436.009	-254.12
436.221	-12.46
436.433	-116.9
436.645	-88.23
436.856	-37.03
437.068	259.92
437.28	-207.02
437.491	61.27
437.703	155.47
437.915	173.91
438.126	-157.86
438.338	73.56
438.55	53.08
438.761	188.24
438.973	-71.85
439.184	-49.32
439.396	48.98
439.608	218.96
439.819	-184.49
440.031	-18.6
440.242	149.33
440.454	122.71
440.665	-86.19
440.877	-86.19
441.088	106.32
441.3	-28.84
441.511	-260.26
441.723	-200.87
441.934	147.28
442.146	-37.03
442.357	-8.36
442.569	132.95
442.78	114.52
442.991	403.28
443.203	102.23
443.414	-233.64
443.626	415.57
443.837	-106.67
444.048	-235.69
444.26	-307.37
444.471	40.79
444.682	204.63
444.894	-362.66
445.105	-282.79
445.316	241.49
445.528	188.24
445.739	-45.23
445.95	-161.96
446.161	118.61
446.373	292.69
446.584	-106.67
446.795	-161.96
447.006	143.19
447.217	423.76
447.429	-278.69
447.64	-196.78
447.851	364.37
448.062	3.93
448.273	-377
448.484	-215.21
448.695	155.47
448.907	34.64
449.118	-104.62
449.329	40.79
449.54	-164.01
449.751	-239.78
449.962	-192.68
450.173	-149.67
450.384	266.07
450.595	261.97
450.806	-200.87
451.017	-178.34
451.228	356.18
451.439	266.07
451.65	-184.49
451.861	-444.58
452.072	-209.06
452.283	-24.75
452.494	26.45
452.705	-268.45
452.915	345.94
453.126	83.8
453.337	-129.19
453.548	-235.69
453.759	294.74
453.97	536.4
454.181	98.13
454.391	-108.71
454.602	124.76
454.813	102.23
455.024	-168.1
455.235	-209.06
455.445	122.71
455.656	227.15
455.867	-12.46
456.078	-139.43
456.288	16.21
456.499	104.28
456.71	-227.5
456.921	5.97
457.131	135
457.342	141.14
457.553	-57.51
457.763	-172.2
457.974	149.33
458.184	151.38
458.395	-194.73
458.606	-245.93
458.816	345.94
459.027	390.99
459.237	-75.95
459.448	-377
459.659	298.83
459.869	556.88
460.08	-354.47
460.29	10.07
460.501	485.2
460.711	-129.19
460.922	-262.31
461.132	-170.15
461.343	659.28
461.553	-166.06
461.764	-237.74
461.974	-202.92
462.184	212.82
462.395	180.05
462.605	-114.86
462.816	-241.83
463.026	106.32
463.236	356.18
463.447	-233.64
463.657	-131.24
463.867	229.2
464.078	-16.55
464.288	-94.38
464.498	-166.06
464.709	61.27
464.919	18.26
465.129	-178.34
465.339	-288.93
465.55	141.14
465.76	223.06
465.97	-108.71
466.18	-159.91
466.391	147.28
466.601	28.5
466.811	-131.24
467.021	-157.86
467.231	143.19
467.441	311.12
467.651	-139.43
467.862	-434.34
468.072	69.46
468.282	358.22
468.492	-161.96
468.702	-41.13
468.912	77.65
469.122	679.75
469.332	122.71
469.542	-159.91
469.752	282.45
469.962	75.6
470.172	-184.49
470.382	-243.88
470.592	214.87
470.802	431.95
471.012	-57.51
471.222	-178.34
471.432	206.67
471.642	163.67
471.852	-104.62
472.062	-194.73
472.272	16.21
472.482	-157.86
472.691	-235.69
472.901	-297.13
473.111	40.79
473.321	616.27
473.531	-260.26
473.741	-108.71
473.95	180.05
474.16	268.11
474.37	-39.08
474.58	-225.45
474.79	421.71
474.999	257.87
475.209	-190.63
475.419	-151.72
475.628	28.5
475.838	300.88
476.048	-77.99
476.258	-264.36
476.467	315.22
476.677	-114.86
476.886	34.64
477.096	-14.51
477.306	-43.18
477.515	415.57
477.725	-123.05
477.935	-98.47
478.144	368.46
478.354	-67.75
478.563	-131.24
478.773	-198.82
478.982	288.59
479.192	372.56
479.401	-28.84
479.611	-192.68
479.82	-100.52
480.03	132.95
480.239	-184.49
480.449	-237.74
480.658	448.33
480.868	-69.8
481.077	-41.13
481.287	-123.05
481.496	266.07
481.705	397.14
481.915	212.82
482.124	94.04
482.333	208.72
482.543	368.46
482.752	-59.56
482.961	-254.12
483.171	210.77
483.38	20.31
483.589	-47.27
483.799	-106.67
484.008	81.75
484.217	325.46
484.426	-51.37
484.636	-229.54
484.845	118.61
485.054	-278.69
485.263	241.49
485.472	-10.41
485.682	573.26
485.891	40.79
486.1	-288.93
486.309	-204.97
486.518	286.54
486.727	438.09
486.936	-141.48
487.146	65.36
487.355	481.1
487.564	-49.32
487.773	-145.58
487.982	-110.76
488.191	-45.23
488.4	145.24
488.609	-186.54
488.818	-182.44
489.027	687.95
489.236	452.43
489.445	-110.76
489.654	-129.19
489.863	421.71
490.072	257.87
490.281	245.59
490.49	-80.04
490.698	438.09
490.907	401.23
491.116	-24.75
491.325	-254.12
491.534	487.25
491.743	218.96
491.952	5.97
492.16	42.84
492.369	241.49
492.578	319.31
492.787	-6.31
492.996	8.02
493.204	-43.18
493.413	544.59
493.622	-295.08
493.831	-315.56
494.039	470.86
494.248	-90.28
494.457	-106.67
494.665	-145.58
494.874	268.11
495.083	585.55
495.291	-16.55
495.5	-127.14
495.709	360.27
495.917	227.15
496.126	-49.32
496.335	-184.49
496.543	44.88
496.752	180.05
496.96	73.56
497.169	-278.69
497.377	137.04
497.586	376.66
497.794	81.75
498.003	-274.6
498.211	75.6
498.42	628.56
498.628	30.55
498.837	-102.57
499.045	208.72
499.254	188.24
499.462	-92.33
499.671	-127.14
499.879	610.12
500.087	425.81
500.296	-65.71
500.504	-6.31
500.713	165.71
500.921	763.72
501.129	-118.95
501.338	40.79
501.546	196.43
501.754	245.59
501.962	-28.84
502.171	-180.39
502.379	227.15
502.587	565.07
502.795	34.64
503.004	-90.28
503.212	159.57
503.42	479.05
503.628	-14.51
503.837	75.6
504.045	425.81
504.253	524.11
504.461	3.93
504.669	-225.45
504.877	294.74
505.085	483.15
505.294	-184.49
505.502	57.17
505.71	294.74
505.918	360.27
506.126	-80.04
506.334	-16.55
506.542	202.58
506.75	290.64
506.958	73.56
507.166	-49.32
507.374	26.45
507.582	624.46
507.79	48.98
507.998	12.12
508.206	253.78
508.414	335.7
508.622	-86.19
508.83	-39.08
509.037	585.55
509.245	26.45
509.453	-98.47
509.661	-131.24
509.869	356.18
510.077	192.34
510.285	94.04
510.492	-297.13
510.7	790.35
510.908	28.5
511.116	-24.75
511.324	-22.7
511.531	180.05
511.739	304.98
511.947	81.75
512.155	335.7
512.362	274.26
512.57	-55.47
512.778	-92.33
512.985	-217.26
513.193	405.33
513.401	567.12
513.608	36.69
513.816	44.88
514.024	358.22
514.231	495.44
514.439	12.12
514.646	-26.79
514.854	431.95
515.061	520.01
515.269	3.93
515.477	-12.46
515.684	5.97
515.892	495.44
516.099	-147.62
516.307	-116.9
516.514	298.83
516.722	591.69
516.929	24.4
517.136	-71.85
517.344	532.3
517.551	307.02
517.759	-67.75
517.966	32.6
518.173	102.23
518.381	233.3
518.588	100.18
518.796	-41.13
519.003	450.38
519.21	184.15
519.418	-6.31
519.625	225.11
519.832	276.31
520.039	290.64
520.247	-168.1
520.454	-32.94
520.661	477.01
520.868	284.5
521.076	104.28
521.283	81.75
521.49	681.8
521.697	216.91
521.904	-12.46
522.112	36.69
522.319	462.67
522.526	358.22
522.733	-49.32
522.94	-88.23
523.147	249.68
523.354	425.81
523.561	-104.62
523.768	77.65
523.975	528.21
524.183	280.4
524.39	96.08
524.597	-0.17
524.804	190.29
525.011	48.98
525.218	-8.36
525.425	96.08
525.632	560.97
525.838	143.19
526.045	89.94
526.252	-20.65
526.459	1392.45
526.666	898.89
526.873	-4.27
527.08	-67.75
527.287	587.6
527.494	368.46
527.701	-41.13
527.907	-28.84
528.114	401.23
528.321	255.83
528.528	61.27
528.735	-0.17
528.941	218.96
529.148	120.66
529.355	130.9
529.562	-47.27
529.768	704.33
529.975	149.33
530.182	135
530.388	-30.89
530.595	579.4
530.802	94.04
531.008	233.3
531.215	100.18
531.422	892.74
531.628	1038.15
531.835	44.88
532.042	223.06
532.248	116.56
532.455	335.7
532.661	118.61
532.868	30.55
533.074	313.17
533.281	493.39
533.487	98.13
533.694	53.08
533.9	135
534.107	409.42
534.313	57.17
534.52	-77.99
534.726	489.29
534.933	720.71
535.139	-6.31
535.345	-37.03
535.552	302.93
535.758	374.61
535.965	104.28
536.171	61.27
536.377	491.34
536.584	669.52
536.79	42.84
536.996	167.76
537.203	352.08
537.409	413.52
537.615	153.43
537.821	249.68
538.028	438.09
538.234	495.44
538.44	98.13
538.646	178
538.853	429.9
539.059	321.36
539.265	495.44
539.471	-209.06
539.677	538.45
539.883	329.55
540.09	30.55
540.296	479.05
540.502	378.7
540.708	300.88
540.914	313.17
541.12	171.86
541.326	362.32
541.532	325.46
541.738	208.72
541.944	151.38
542.15	501.58
542.356	397.14
542.562	85.84
542.768	147.28
542.974	907.08
543.18	954.18
543.386	120.66
543.592	-4.27
543.798	733
544.004	618.32
544.21	81.75
544.415	245.59
544.621	409.42
544.827	536.4
545.033	44.88
545.239	407.38
545.445	210.77
545.651	462.67
545.856	132.95
546.062	75.6
546.268	311.12
546.474	343.89
546.679	116.56
546.885	143.19
547.091	227.15
547.297	759.63
547.502	210.77
547.708	-12.46
547.914	212.82
548.119	563.02
548.325	59.22
548.531	89.94
548.736	794.44
548.942	196.43
549.147	155.47
549.353	378.7
549.559	694.09
549.764	499.53
549.97	186.19
550.175	112.47
550.381	581.45
550.586	216.91
550.792	188.24
550.997	218.96
551.203	544.59
551.408	524.11
551.614	159.57
551.819	106.32
552.025	821.06
552.23	862.02
552.435	102.23
552.641	276.31
552.846	270.16
553.052	671.56
553.257	294.74
553.462	175.95
553.668	182.1
553.873	698.19
554.078	108.37
554.283	186.19
554.489	472.91
554.694	362.32
554.899	175.95
555.105	354.13
555.31	575.31
555.515	626.51
555.72	319.31
555.925	67.41
556.131	597.84
556.336	327.5
556.541	151.38
556.746	128.85
556.951	786.25
557.156	859.98
557.361	329.55
557.567	278.35
557.772	952.13
557.977	657.23
558.182	237.39
558.387	149.33
558.592	419.66
558.797	737.1
559.002	319.31
559.207	327.5
559.412	474.96
559.617	933.7
559.822	214.87
560.027	200.53
560.232	646.99
560.437	585.55
560.642	94.04
560.847	178
561.051	489.29
561.256	522.06
561.461	261.97
561.666	214.87
561.871	505.68
562.076	689.99
562.281	321.36
562.485	22.36
562.69	632.65
562.895	761.67
563.1	259.92
563.305	163.67
563.509	796.49
563.714	1013.57
563.919	274.26
564.123	302.93
564.328	423.76
564.533	812.87
564.737	290.64
564.942	169.81
565.147	925.51
565.351	995.14
565.556	307.02
565.761	384.85
565.965	567.12
566.17	288.59
566.374	296.78
566.579	137.04
566.784	626.51
566.988	429.9
567.193	98.13
567.397	311.12
567.602	180.05
567.806	503.63
568.011	325.46
568.215	368.46
568.42	536.4
568.624	466.77
568.828	186.19
569.033	532.3
569.237	606.03
569.442	585.55
569.646	212.82
569.85	390.99
570.055	509.77
570.259	675.66
570.463	606.03
570.668	313.17
570.872	460.62
571.076	456.53
571.281	429.9
571.485	462.67
571.689	548.68
571.893	784.2
572.098	495.44
572.302	294.74
572.506	644.94
572.71	608.08
572.914	347.98
573.119	339.79
573.323	970.57
573.527	868.17
573.731	321.36
573.935	286.54
574.139	683.85
574.343	372.56
574.547	427.85
574.751	393.04
574.955	941.89
575.159	859.98
575.364	272.21
575.568	241.49
575.772	642.89
575.976	894.79
576.18	343.89
576.383	135
576.587	819.02
576.791	655.18
576.995	91.99
577.199	161.62
577.403	814.92
577.607	855.88
577.811	284.5
578.015	520.01
578.219	696.14
578.422	816.97
578.626	345.94
578.83	483.15
579.034	902.98
579.238	630.6
579.442	388.94
579.645	751.43
579.849	573.26
580.053	675.66
580.257	450.38
580.46	403.28
580.664	790.35
580.868	741.19
581.071	548.68
581.275	452.43
581.479	366.42
581.682	765.77
581.886	390.99
582.09	485.2
582.293	755.53
582.497	911.18
582.7	536.4
582.904	313.17
583.107	667.47
583.311	540.49
583.515	515.92
583.718	458.57
583.922	728.91
584.125	1077.06
584.329	276.31
584.532	634.7
584.735	939.85
584.939	776.01
585.142	317.26
585.346	309.07
585.549	724.81
585.753	468.81
585.956	493.39
586.159	509.77
586.363	1054.53
586.566	737.1
586.769	298.83
586.973	333.65
587.176	776.01
587.379	962.37
587.582	765.77
587.786	603.98
587.989	653.13
588.192	1156.93
588.395	454.48
588.599	847.69
588.802	737.1
589.005	847.69
589.208	419.66
589.411	427.85
589.615	839.5
589.818	1036.1
590.021	616.27
590.224	640.84
590.427	913.22
590.63	812.87
590.833	329.55
591.036	395.09
591.239	653.13
591.442	667.47
591.645	730.95
591.848	493.39
592.051	882.5
592.254	945.99
592.457	524.11
592.66	532.3
592.863	698.19
593.066	821.06
593.269	386.9
593.472	599.88
593.675	646.99
593.878	1007.43
594.081	597.84
594.284	440.14
594.486	798.54
594.689	712.52
594.892	624.46
595.095	585.55
595.298	894.79
595.5	628.56
595.703	589.64
595.906	677.71
596.109	1109.83
596.311	1089.35
596.514	239.44
596.717	540.49
596.92	1046.34
597.122	859.98
597.325	347.98
597.528	542.54
597.73	1034.05
597.933	751.43
598.136	444.24
598.338	294.74
598.541	939.85
598.743	1042.25
598.946	577.36
599.148	649.04
599.351	1013.57
599.554	1023.81
599.756	773.96
599.959	651.08
600.161	1001.29
600.363	1349.44
600.566	878.41
600.768	579.4
600.971	1273.67
601.173	970.57
601.376	587.6
601.578	677.71
601.78	923.46
601.983	1314.63
602.185	407.38
602.388	720.71
602.59	958.28
602.792	675.66
602.995	812.87
603.197	579.4
603.399	982.85
603.601	968.52
603.804	628.56
604.006	581.45
604.208	692.04
604.41	466.77
604.613	814.92
604.815	550.73
605.017	1394.5
605.219	681.8
605.421	986.95
605.623	616.27
605.826	1208.13
606.028	1079.11
606.23	624.46
606.432	659.28
606.634	1251.14
606.836	1197.89
607.038	552.78
607.24	896.84
607.442	880.46
607.644	798.54
607.846	786.25
608.048	612.17
608.25	1214.27
608.452	765.77
608.654	702.28
608.856	415.57
609.058	810.82
609.26	958.28
609.462	808.78
609.664	663.37
609.866	1277.76
610.067	1097.54
610.269	882.5
610.471	692.04
610.673	786.25
610.875	1027.91
611.077	563.02
611.278	804.68
611.48	958.28
611.682	1320.77
611.884	804.68
612.085	683.85
612.287	651.08
612.489	1093.44
612.69	548.68
612.892	759.63
613.094	1130.31
613.295	1034.05
613.497	603.98
613.699	671.56
613.9	1244.99
614.102	1163.08
614.304	747.34
614.505	571.21
614.707	866.12
614.908	810.82
615.11	642.89
615.311	782.15
615.513	1072.96
615.714	1083.2
615.916	628.56
616.117	773.96
616.319	896.84
616.52	1163.08
616.722	751.43
616.923	720.71
617.124	1236.8
617.326	1021.77
617.527	886.6
617.729	945.99
617.93	1120.07
618.131	1079.11
618.333	700.23
618.534	782.15
618.735	659.28
618.937	1310.53
619.138	606.03
619.339	636.75
619.54	1068.87
619.742	733
619.943	991.05
620.144	812.87
620.345	1138.5
620.546	1136.45
620.748	694.09
620.949	739.15
621.15	1136.45
621.351	1011.53
621.552	835.4
621.753	599.88
621.954	646.99
622.155	1472.32
622.356	583.5
622.558	948.04
622.759	1101.64
622.96	1263.43
623.161	759.63
623.362	839.5
623.563	974.66
623.764	1040.2
623.965	814.92
624.166	896.84
624.366	943.94
624.567	1046.34
624.768	554.83
624.969	718.67
625.17	933.7
625.371	1118.02
625.572	794.44
625.773	665.42
625.973	1242.95
626.174	1158.98
626.375	892.74
626.576	843.59
626.777	1175.36
626.977	1566.53
627.178	710.47
627.379	870.22
627.58	995.14
627.78	1025.86
627.981	911.18
628.182	923.46
628.382	1257.28
628.583	667.47
628.784	659.28
628.984	960.33
629.185	1128.26
629.386	1111.88
629.586	884.55
629.787	696.14
629.987	1154.88
630.188	1001.29
630.388	878.41
630.589	939.85
630.79	1603.39
630.99	1040.2
631.191	935.75
631.391	980.81
631.591	1269.57
631.792	1462.08
631.992	1001.29
632.193	878.41
632.393	1361.73
632.594	1064.77
632.794	876.36
632.994	1007.43
633.195	1044.29
633.395	1095.49
633.595	821.06
633.796	1029.96
633.996	941.89
634.196	1374.02
634.397	669.52
634.597	890.7
634.797	851.78
634.997	1398.59
635.198	986.95
635.398	747.34
635.598	1204.03
635.798	1408.83
635.998	1294.15
636.199	841.54
636.399	925.51
636.599	1040.2
636.799	933.7
636.999	1130.31
637.199	1242.95
637.399	1273.67
637.599	902.98
637.799	995.14
637.999	931.66
638.199	1451.84
638.399	902.98
638.599	837.45
638.799	1253.19
638.999	1609.53
639.199	1052.49
639.399	1075.01
639.599	1537.85
639.799	859.98
639.999	810.82
640.199	827.21
640.399	1208.13
640.599	1302.34
640.799	948.04
640.998	1075.01
641.198	1488.7
641.398	1277.76
641.598	1070.92
641.798	935.75
641.997	2035.51
642.197	1152.84
642.397	1115.97
642.597	945.99
642.796	1279.81
642.996	1537.85
643.196	1118.02
643.395	915.27
643.595	1240.9
643.795	778.06
643.994	874.31
644.194	1089.35
644.394	1285.95
644.593	1222.47
644.793	829.26
644.992	1191.75
645.192	1279.81
645.392	900.94
645.591	1095.49
645.791	989
645.99	1343.3
646.19	1083.2
646.389	1077.06
646.589	1032.01
646.788	1326.91
646.987	1302.34
647.187	1177.41
647.386	1158.98
647.586	1167.17
647.785	1380.16
647.984	1068.87
648.184	978.76
648.383	1105.73
648.582	1025.86
648.782	1058.63
648.981	1208.13
649.18	1044.29
649.38	1308.48
649.579	902.98
649.778	913.22
649.977	1277.76
650.177	1437.5
650.376	921.42
650.575	907.08
650.774	1693.5
650.973	1107.78
651.173	896.84
651.372	1126.21
651.571	1298.24
651.77	1410.88
651.969	1081.16
652.168	1138.5
652.367	945.99
652.566	1144.64
652.765	948.04
652.964	1249.09
653.163	1822.52
653.362	1171.27
653.561	1122.12
653.76	1099.59
653.959	1189.7
654.158	1460.03
654.357	1277.76
654.556	1075.01
654.755	1347.39
654.954	1423.17
655.153	1134.4
655.352	1122.12
655.551	1630.01
655.749	1134.4
655.948	1228.61
656.147	1148.74
656.346	1480.51
656.545	1392.45
656.743	1224.51
656.942	1083.2
657.141	1199.94
657.34	1048.39
657.538	1087.3
657.737	1079.11
657.936	1158.98
658.135	1447.74
658.333	1099.59
658.532	1226.56
658.731	1843
658.929	1365.82
659.128	1441.6
659.326	1093.44
659.525	1572.67
659.724	1357.63
659.922	831.3
660.121	991.05
660.319	1384.26
660.518	1105.73
660.716	972.61
660.915	956.23
661.113	1658.68
661.312	1007.43
661.51	1374.02
661.709	1128.26
661.907	1439.55
662.105	1718.08
662.304	1085.25
662.502	1183.56
662.701	1595.2
662.899	1263.43
663.097	1505.09
663.296	937.8
663.494	1623.87
663.692	1675.07
663.891	1077.06
664.089	1056.58
664.287	1476.41
664.485	1701.69
664.684	1146.69
664.882	1206.08
665.08	1367.87
665.278	1486.65
665.476	919.37
665.675	1453.89
665.873	1859.38
666.071	1558.33
666.269	1187.65
666.467	1470.27
666.665	1433.41
666.863	1288
667.061	1374.02
667.259	1062.73
667.457	1320.77
667.655	1546.05
667.853	1175.36
668.051	1267.52
668.249	1081.16
668.447	1507.13
668.645	1011.53
668.843	1300.29
669.041	1503.04
669.239	1249.09
669.437	1179.46
669.635	1236.8
669.833	1443.65
670.031	1609.53
670.229	1294.15
670.426	1236.8
670.624	1255.23
670.822	1175.36
671.02	1161.03
671.218	1296.19
671.415	1118.02
671.613	1324.87
671.811	1285.95
672.009	1214.27
672.206	1607.48
672.404	1406.78
672.602	1480.51
672.799	1423.17
672.997	1447.74
673.195	1703.74
673.392	1298.24
673.59	1115.97
673.788	1476.41
673.985	1048.39
674.183	1220.42
674.38	1298.24
674.578	1664.83
674.775	1216.32
674.973	1118.02
675.17	1103.68
675.368	1693.5
675.565	1552.19
675.763	1240.9
675.96	1146.69
676.158	1625.92
676.355	1359.68
676.553	1183.56
676.75	1263.43
676.947	1529.66
677.145	1468.22
677.342	1232.71
677.539	1384.26
677.737	1410.88
677.934	1867.58
678.131	1429.31
678.329	1126.21
678.526	1789.75
678.723	1568.57
678.92	1343.3
679.118	1269.57
679.315	1197.89
679.512	1783.61
679.709	1167.17
679.906	1326.91
680.104	1693.5
680.301	1527.61
680.498	1163.08
680.695	1185.6
680.892	1273.67
681.089	1224.51
681.286	1249.09
681.483	1085.25
681.68	1679.16
681.877	1595.2
682.075	1269.57
682.272	1417.02
682.469	1584.96
682.665	1324.87
682.862	1218.37
683.059	1013.57
683.256	1464.13
683.453	1392.45
683.65	1290.05
683.847	1296.19
684.044	1400.64
684.241	1249.09
684.438	1392.45
684.635	1199.94
684.831	1978.17
685.028	2055.99
685.225	1298.24
685.422	1441.6
685.619	1400.64
685.815	1455.94
686.012	1345.34
686.209	1320.77
686.405	1193.8
686.602	1630.01
686.799	1150.79
686.996	1128.26
687.192	1261.38
687.389	1806.14
687.586	1281.86
687.782	1249.09
687.979	1806.14
688.175	1746.75
688.372	1419.07
688.568	1208.13
688.765	1359.68
688.962	1810.23
689.158	1453.89
689.355	1154.88
689.551	1666.88
689.748	1337.15
689.944	1462.08
690.14	1111.88
690.337	1627.96
690.533	1349.44
690.73	1537.85
690.926	1365.82
691.123	1519.42
691.319	1341.25
691.515	1087.3
691.712	1441.6
691.908	1593.15
692.104	1355.58
692.301	1509.18
692.497	1161.03
692.693	1601.34
692.889	1707.84
693.086	1591.1
693.282	1156.93
693.478	1445.7
693.674	1912.63
693.87	1240.9
694.067	1068.87
694.263	1466.17
694.459	1462.08
694.655	1447.74
694.851	1353.54
695.047	1605.44
695.243	1556.29
695.439	1533.76
695.635	1247.04
695.831	1777.47
696.027	1552.19
696.224	1343.3
696.42	1601.34
696.615	1814.33
696.811	1570.62
697.007	1148.74
697.203	1269.57
697.399	1558.33
697.595	1765.18
697.791	1167.17
697.987	1464.13
698.183	1257.28
698.379	1300.29
698.575	1361.73
698.77	1328.96
698.966	1767.23
699.162	1750.84
699.358	1326.91
699.554	1240.9
699.749	1492.8
699.945	1742.65
700.141	1308.48
700.337	1427.26
700.532	1443.65
700.728	1249.09
700.924	1212.23
701.119	1230.66
701.315	1587.01
701.511	1447.74
701.706	1470.27
701.902	1161.03
702.097	1535.81
702.293	1535.81
702.489	1369.92
702.684	1347.39
702.88	1507.13
703.075	1468.22
703.271	1261.38
703.466	1171.27
703.662	1574.72
703.857	1630.01
704.053	1306.43
704.248	1247.04
704.443	1677.12
704.639	1636.16
704.834	1472.32
705.03	1154.88
705.225	1744.7
705.42	1699.64
705.616	1572.67
705.811	1179.46
706.006	1431.36
706.202	1425.22
706.397	1351.49
706.592	1283.91
706.787	1666.88
706.983	1429.31
707.178	1533.76
707.373	1363.78
707.568	1744.7
707.763	1851.19
707.959	1331.01
708.154	1300.29
708.349	1515.33
708.544	1615.68
708.739	1558.33
708.934	1232.71
709.129	1623.87
709.324	1773.37
709.519	1306.43
709.714	1183.56
709.909	1744.7
710.104	1589.05
710.299	1351.49
710.494	1382.21
710.689	1644.35
710.884	1455.94
711.079	1470.27
711.274	1701.69
711.469	1630.01
711.664	1572.67
711.859	1451.84
712.054	1445.7
712.249	1732.41
712.443	1728.31
712.638	1277.76
712.833	1281.86
713.028	1570.62
713.223	1601.34
713.417	1660.73
713.612	1167.17
713.807	1697.6
714.002	2006.84
714.196	1445.7
714.391	1304.39
714.586	1650.49
714.78	1427.26
714.975	1392.45
715.17	1339.2
715.364	1396.54
715.559	1746.75
715.754	1097.54
715.948	1277.76
716.143	1996.6
716.337	1556.29
716.532	1584.96
716.726	1357.63
716.921	1703.74
717.115	1990.45
717.31	1169.22
717.504	1802.04
717.699	1414.98
717.893	1763.13
718.088	1347.39
718.282	1206.08
718.476	1492.8
718.671	1703.74
718.865	1331.01
719.059	1312.58
719.254	1527.61
719.448	1816.38
719.642	2551.6
719.837	1281.86
720.031	1765.18
720.225	1822.52
720.419	1509.18
720.614	1234.75
720.808	1840.95
721.002	1558.33
721.196	1201.99
721.39	1312.58
721.585	1896.25
721.779	1548.09
721.973	1431.36
722.167	1165.12
722.361	1560.38
722.555	1746.75
722.749	1326.91
722.943	1363.78
723.137	1249.09
723.331	1500.99
723.525	1515.33
723.719	1208.13
723.913	1689.4
724.107	1902.39
724.301	1240.9
724.495	1462.08
724.689	2080.57
724.883	1888.06
725.077	1269.57
725.271	1445.7
725.465	1830.71
725.659	1568.57
725.853	1435.46
726.046	1290.05
726.24	1324.87
726.434	1769.27
726.628	1335.1
726.822	1408.83
727.015	1779.51
727.209	1769.27
727.403	1417.02
727.596	1314.63
727.79	1716.03
727.984	1820.47
728.177	1464.13
728.371	1406.78
728.565	1709.88
728.758	1312.58
728.952	1292.1
729.146	1476.41
729.339	1898.3
729.533	1636.16
729.726	1275.71
729.92	1226.56
730.113	1904.44
730.307	1576.77
730.5	1402.69
730.694	1300.29
730.887	1402.69
731.081	1662.78
731.274	1201.99
731.468	1451.84
731.661	1511.23
731.854	1457.98
732.048	1457.98
732.241	1228.61
732.435	1410.88
732.628	1564.48
732.821	1505.09
733.014	1296.19
733.208	1437.5
733.401	1748.79
733.594	1337.15
733.788	1386.3
733.981	1879.86
734.174	1505.09
734.367	1347.39
734.56	1566.53
734.754	1761.08
734.947	1505.09
735.14	1314.63
735.333	1331.01
735.526	1683.26
735.719	1390.4
735.912	1169.22
736.105	1294.15
736.298	1687.36
736.491	1425.22
736.684	1425.22
736.877	1314.63
737.07	1615.68
737.263	1886.01
737.456	1218.37
737.649	1312.58
737.842	1285.95
738.035	1662.78
738.228	1400.64
738.421	1498.94
738.614	1843
738.807	1744.7
739	1257.28
739.192	1341.25
739.385	1617.72
739.578	1756.99
739.771	1511.23
739.964	1351.49
740.156	1570.62
740.349	1558.33
740.542	1482.56
740.735	1113.92
740.927	1335.1
741.12	1402.69
741.313	1371.97
741.505	1449.79
741.698	1705.79
741.891	1716.03
742.083	1460.03
742.276	1505.09
742.468	1490.75
742.661	1566.53
742.854	1445.7
743.046	1343.3
743.239	1892.15
743.431	1576.77
743.624	1423.17
743.816	1232.71
744.009	1541.95
744.201	1785.66
744.393	1531.71
744.586	1318.72
744.778	1793.85
744.971	1507.13
745.163	1476.41
745.355	1511.23
745.548	1597.24
745.74	1558.33
745.932	1441.6
746.125	1406.78
746.317	2152.24
746.509	1529.66
746.702	1412.93
746.894	1513.28
747.086	1601.34
747.278	1851.19
747.471	1595.2
747.663	1396.54
747.855	1634.11
748.047	1926.97
748.239	1228.61
748.431	1363.78
748.623	1967.93
748.815	1965.88
749.008	1290.05
749.2	1267.52
749.392	1742.65
749.584	1701.69
749.776	1470.27
749.968	1523.52
750.16	1986.36
750.352	1621.82
750.544	1552.19
750.736	1476.41
750.928	1711.93
751.12	1638.2
751.311	1378.11
751.503	1507.13
751.695	1756.99
751.887	1531.71
752.079	1267.52
752.271	1365.82
752.463	2289.46
752.654	1761.08
752.846	1451.84
753.038	1408.83
753.23	1476.41
753.421	1808.19
753.613	1421.12
753.805	1634.11
753.997	1824.57
754.188	1769.27
754.38	1302.34
754.572	1482.56
754.763	1564.48
754.955	1648.44
755.146	1433.41
755.338	1533.76
755.53	1634.11
755.721	1539.9
755.913	1322.82
756.104	1236.8
756.296	1595.2
756.487	1734.46
756.679	1290.05
756.87	1376.06
757.062	1433.41
757.253	1840.95
757.445	1394.5
757.636	1519.42
757.827	1619.77
758.019	2142
758.21	1318.72
758.401	1384.26
758.593	2086.71
758.784	1892.15
758.975	1273.67
759.167	1249.09
759.358	1713.98
759.549	1744.7
759.74	1425.22
759.932	1314.63
760.123	1845.05
760.314	1505.09
760.505	1515.33
760.696	1394.5
760.888	2062.13
761.079	1333.06
761.27	1238.85
761.461	1251.14
761.652	2025.27
761.843	1435.46
762.034	1302.34
762.225	1601.34
762.416	1511.23
762.607	1578.81
762.798	1451.84
762.989	1345.34
763.18	2287.41
763.371	1437.5
763.562	1404.74
763.753	1382.21
763.944	1894.2
764.135	1804.09
764.326	1447.74
764.517	1257.28
764.708	1615.68
764.899	1677.12
765.089	1302.34
765.28	1226.56
765.471	1701.69
765.662	1675.07
765.853	1431.36
766.043	1201.99
766.234	1795.9
766.425	1763.13
766.615	1429.31
766.806	1290.05
766.997	1853.24
767.187	1511.23
767.378	1382.21
767.569	1187.65
767.759	1613.63
767.95	1644.35
768.141	1562.43
768.331	1279.81
768.522	1503.04
768.712	1791.8
768.903	1242.95
769.093	1263.43
769.284	2117.43
769.474	1558.33
769.665	1236.8
769.855	1101.64
770.046	1699.64
770.236	1392.45
770.426	1488.7
770.617	1322.82
770.807	1716.03
770.998	1507.13
771.188	1527.61
771.378	1335.1
771.569	1705.79
771.759	1623.87
771.949	1271.62
772.139	1118.02
772.33	1621.82
772.52	1957.69
772.71	1269.57
772.9	1091.4
773.09	1902.39
773.281	1963.83
773.471	1204.03
773.661	1359.68
773.851	1855.29
774.041	1425.22
774.231	1324.87
774.421	1394.5
774.611	1926.97
774.802	1582.91
774.992	1466.17
775.182	1275.71
775.372	1486.65
775.562	1822.52
775.752	1232.71
775.942	1322.82
776.131	1771.32
776.321	1699.64
776.511	1169.22
776.701	1140.55
776.891	1636.16
777.081	1242.95
777.271	1281.86
777.461	1318.72
777.651	1683.26
777.84	1806.14
778.03	1339.2
778.22	1298.24
778.41	1830.71
778.599	1306.43
778.789	1443.65
778.979	1259.33
779.169	1619.77
779.358	1550.14
779.548	1515.33
779.738	1097.54
779.927	1562.43
780.117	1277.76
780.307	1261.38
780.496	1011.53
780.686	1584.96
780.875	1871.67
781.065	1306.43
781.254	1269.57
781.444	1531.71
781.633	1521.47
781.823	1230.66
782.012	1232.71
782.202	1402.69
782.391	1453.89
782.581	1130.31
782.77	1423.17
782.96	1750.84
783.149	1445.7
783.338	1304.39
783.528	1038.15
783.717	1718.08
783.906	1611.58
784.096	1361.73
784.285	1277.76
784.474	1404.74
784.663	1312.58
784.853	1353.54
785.042	1201.99
785.231	1343.3
785.42	1605.44
785.61	1345.34
785.799	1185.6
785.988	1283.91
786.177	1480.51
786.366	1296.19
786.555	1398.59
786.744	1767.23
786.933	1523.52
787.122	1187.65
787.312	1206.08
787.501	1220.42
787.69	1505.09
787.879	1171.27
788.068	1140.55
788.257	1232.71
788.445	1482.56
788.634	1349.44
788.823	1017.67
789.012	2017.08
789.201	1777.47
789.39	1271.62
789.579	1177.41
789.768	1576.77
789.957	1507.13
790.145	1328.96
790.334	935.75
790.523	1408.83
790.712	1441.6
790.9	1273.67
791.089	1036.1
791.278	1707.84
791.467	1374.02
791.655	1511.23
791.844	1660.73
792.033	1429.31
792.221	1417.02
792.41	1324.87
792.599	1060.68
792.787	1574.72
792.976	1556.29
793.164	1181.51
793.353	1273.67
793.541	1677.12
793.73	1627.96
793.918	1353.54
794.107	1191.75
794.295	1537.85
794.484	1371.97
794.672	1349.44
794.861	1296.19
795.049	1611.58
795.238	1847.1
795.426	1120.07
795.614	1238.85
795.803	1566.53
795.991	1832.76
796.179	1201.99
796.368	1173.32
796.556	1711.93
796.744	1095.49
796.932	1099.59
797.121	1132.36
797.309	1296.19
797.497	1584.96
797.685	1275.71
797.874	1169.22
798.062	1437.5
798.25	1736.51
798.438	1118.02
798.626	1249.09
798.814	1435.46
799.002	2015.03
799.19	1435.46
799.378	1208.13
799.566	1744.7
799.755	1816.38
799.943	1324.87
800.131	1167.17
800.318	1519.42
800.506	1562.43
800.694	1167.17
800.882	1339.2
801.07	1720.12
801.258	1386.3
801.446	1267.52
801.634	1240.9
801.822	1457.98
802.01	1462.08
802.197	1173.32
802.385	1322.82
802.573	1474.37
802.761	1214.27
802.949	1285.95
803.136	1099.59
803.324	1570.62
803.512	1392.45
803.699	1322.82
803.887	1093.44
804.075	1664.83
804.262	1374.02
804.45	1208.13
804.638	1292.1
804.825	1216.32
805.013	1412.93
805.201	1244.99
805.388	1111.88
805.576	1511.23
805.763	1875.77
805.951	1285.95
806.138	1394.5
806.326	1908.54
806.513	1673.02
806.701	1351.49
806.888	1171.27
807.075	1505.09
807.263	1869.62
807.45	1113.92
807.638	1447.74
807.825	1818.43
808.012	1630.01
808.2	1279.81
808.387	1541.95
808.574	1541.95
808.761	1945.4
808.949	1253.19
809.136	1302.34
809.323	1351.49
809.51	1535.81
809.698	1627.96
809.885	1419.07
810.072	1609.53
810.259	1738.55
810.446	1320.77
810.633	1189.7
810.82	1627.96
811.008	1773.37
811.195	1421.12
811.382	1328.96
811.569	1599.29
811.756	1156.93
811.943	1320.77
812.13	1236.8
812.317	1226.56
812.504	1355.58
812.691	1367.87
812.878	1388.35
813.064	1840.95
813.251	1482.56
813.438	1152.84
813.625	1511.23
813.812	1445.7
813.999	1521.47
814.186	1308.48
814.372	1271.62
814.559	1441.6
814.746	1888.06
814.933	1353.54
815.12	1417.02
815.306	1445.7
815.493	1290.05
815.68	1218.37
815.866	1296.19
816.053	1896.25
816.24	2088.76
816.426	1394.5
816.613	1169.22
816.799	1703.74
816.986	1810.23
817.173	1363.78
817.359	1328.96
817.546	1521.47
817.732	1310.53
817.919	1007.43
818.105	1427.26
818.292	1324.87
818.478	1578.81
818.665	1414.98
818.851	1331.01
819.037	1900.34
819.224	1568.57
819.41	1271.62
819.597	1236.8
819.783	1982.26
819.969	1599.29
820.156	1365.82
820.342	1285.95
820.528	2174.77
820.714	1531.71
820.901	1572.67
821.087	1402.69
821.273	1929.02
821.459	1427.26
821.646	1134.4
821.832	1206.08
822.018	1478.46
822.204	1558.33
822.39	1351.49
822.576	1077.06
822.762	1611.58
822.948	1544
823.134	1564.48
823.32	1359.68
823.507	1339.2
823.693	1601.34
823.879	1607.48
824.065	1337.15
824.25	1597.24
824.436	1230.66
824.622	1253.19
824.808	1238.85
824.994	1312.58
825.18	1376.06
825.366	1134.4
825.552	1318.72
825.738	1457.98
825.923	1548.09
826.109	1541.95
826.295	1238.85
826.481	1316.67
826.667	1347.39
826.852	1488.7
827.038	1222.47
827.224	1756.99
827.409	2039.61
827.595	1161.03
827.781	1605.44
827.966	1591.1
828.152	1695.55
828.338	1265.47
828.523	1154.88
828.709	1374.02
828.894	1701.69
829.08	1341.25
829.266	1173.32
829.451	1222.47
829.637	1646.4
829.822	1455.94
830.008	1244.99
830.193	1675.07
830.378	1838.91
830.564	1337.15
830.749	1062.73
830.935	1656.64
831.12	1640.25
831.305	1283.91
831.491	1320.77
831.676	1273.67
831.861	1646.4
832.047	1288
832.232	1179.46
832.417	1691.45
832.602	1556.29
832.788	1152.84
832.973	1261.38
833.158	1423.17
833.343	1525.57
833.528	1421.12
833.714	1302.34
833.899	1632.06
834.084	1978.17
834.269	1433.41
834.454	1238.85
834.639	1716.03
834.824	1486.65
835.009	1351.49
835.194	1423.17
835.379	1642.3
835.564	1775.42
835.749	1439.55
835.934	1126.21
836.119	1687.36
836.304	1546.05
836.489	1226.56
836.674	1355.58
836.859	1226.56
837.044	1744.7
837.228	1318.72
837.413	1187.65
837.598	1527.61
837.783	1615.68
837.968	1361.73
838.152	1175.36
838.337	1154.88
838.522	1828.67
838.707	1675.07
838.891	1384.26
839.076	1541.95
839.261	1734.46
839.445	1204.03
839.63	1234.75
839.815	1894.2
839.999	1435.46
840.184	1255.23
840.368	1222.47
840.553	1632.06
840.737	1668.92
840.922	1285.95
841.106	1120.07
841.291	1171.27
841.475	1529.66
841.66	1187.65
841.844	1300.29
842.029	2219.83
842.213	1247.04
842.397	1138.5
842.582	1138.5
842.766	1673.02
842.951	1691.45
843.135	1195.84
843.319	1138.5
843.504	1539.9
843.688	1640.25
843.872	1034.05
844.056	1156.93
844.241	1556.29
844.425	1312.58
844.609	1361.73
844.793	999.24
844.977	1642.3
845.161	1638.2
845.346	1007.43
845.53	1238.85
845.714	1249.09
845.898	1775.42
846.082	1017.67
846.266	1253.19
846.45	1494.85
846.634	1572.67
846.818	1290.05
847.002	1255.23
847.186	1664.83
847.37	1201.99
847.554	1062.73
847.738	1394.5
847.922	1470.27
848.106	1429.31
848.29	1099.59
848.473	1154.88
848.657	1544
848.841	1337.15
849.025	1136.45
849.209	958.28
849.392	1609.53
849.576	1208.13
849.76	919.37
849.944	1396.54
850.127	1720.12
850.311	1109.83
850.495	964.42
850.678	989
850.862	1636.16
851.046	1779.51
851.229	1331.01
851.413	1027.91
851.596	1406.78
851.78	1195.84
851.964	1195.84
852.147	1128.26
852.331	2055.99
852.514	1601.34
852.698	1212.23
852.881	1019.72
853.065	1474.37
853.248	1353.54
853.431	1314.63
853.615	1273.67
853.798	1869.62
853.982	1507.13
854.165	1308.48
854.348	1253.19
854.532	1316.67
854.715	1120.07
854.898	1183.56
855.081	1167.17
855.265	1677.12
855.448	1797.95
855.631	1079.11
855.814	960.33
855.997	1490.75
856.181	1300.29
856.364	1171.27
856.547	948.04
856.73	1345.34
856.913	1402.69
857.096	974.66
857.279	1161.03
857.462	1279.81
857.645	1570.62
857.828	1263.43
858.011	1208.13
858.194	1240.9
858.377	1597.24
858.56	1132.36
858.743	1193.8
858.926	1083.2
859.109	1587.01
859.292	1118.02
859.475	1052.49
859.658	1679.16
859.841	1482.56
860.023	1066.82
860.206	1009.48
860.389	1390.4
860.572	1705.79
860.755	1097.54
860.937	1136.45
861.12	1326.91
861.303	1398.59
861.486	1216.32
861.668	1079.11
861.851	1494.85
862.034	1462.08
862.216	1181.51
862.399	933.7
862.581	1404.74
862.764	1693.5
862.947	1322.82
863.129	972.61
863.312	1072.96
863.494	1640.25
863.677	1288
863.859	978.76
864.042	1607.48
864.224	1730.36
864.406	1158.98
864.589	968.52
864.771	1406.78
864.954	1095.49
865.136	1038.15
865.318	935.75
865.501	1404.74
865.683	976.71
865.865	1087.3
866.048	1111.88
866.23	1408.83
866.412	1386.3
866.594	1089.35
866.777	1152.84
866.959	1484.61
867.141	1189.7
867.323	1320.77
867.505	1318.72
867.687	1374.02
867.869	1318.72
868.052	1177.41
868.234	1007.43
868.416	1247.04
868.598	1455.94
868.78	1044.29
868.962	857.93
869.144	1531.71
869.326	1394.5
869.508	1052.49
869.69	833.35
869.872	1218.37
870.054	1488.7
870.236	972.61
870.417	997.19
870.599	1253.19
870.781	1691.45
870.963	1273.67
871.145	964.42
871.327	970.57
871.508	1443.65
871.69	1005.38
871.872	999.24
872.054	1265.47
872.235	1351.49
872.417	1124.16
872.599	905.03
872.78	1593.15
872.962	1285.95
873.144	978.76
873.325	1064.77
873.507	1564.48
873.689	1333.06
873.87	997.19
874.052	1181.51
874.233	1273.67
874.415	1425.22
874.596	1046.34
874.778	968.52
874.959	1275.71
875.141	1546.05
875.322	1130.31
875.503	966.47
875.685	1351.49
875.866	905.03
876.048	880.46
876.229	913.22
876.41	1175.36
876.592	1193.8
876.773	989
876.954	800.59
877.136	1642.3
877.317	1220.42
877.498	962.37
877.679	1152.84
877.86	1404.74
878.042	1181.51
878.223	1003.33
878.404	1253.19
878.585	1410.88
878.766	1754.94
878.947	1339.2
879.128	1204.03
879.309	1437.5
879.49	1541.95
879.672	1152.84
879.853	1187.65
880.034	1087.3
880.215	1204.03
880.396	1144.64
880.576	1046.34
880.757	1214.27
880.938	1695.55
881.119	952.13
881.3	888.65
881.481	1052.49
881.662	2076.47
881.843	1027.91
882.023	995.14
882.204	1488.7
882.385	1324.87
882.566	1079.11
882.747	970.57
882.927	1208.13
883.108	1201.99
883.289	1109.83
883.469	1302.34
883.65	1152.84
883.831	1380.16
884.011	1251.14
884.192	1075.01
884.373	1515.33
884.553	1361.73
884.734	1281.86
884.914	1320.77
885.095	1867.58
885.275	1777.47
885.456	1369.92
885.636	974.66
885.817	1177.41
885.997	1324.87
886.178	1052.49
886.358	1079.11
886.538	1345.34
886.719	2201.4
886.899	1146.69
887.08	1249.09
887.26	1587.01
887.44	1183.56
887.621	1017.67
887.801	1201.99
887.981	1931.06
888.161	1531.71
888.342	1197.89
888.522	1019.72
888.702	1685.31
888.882	1603.39
889.062	1427.26
889.242	941.89
889.423	1756.99
889.603	1429.31
889.783	1265.47
889.963	1085.25
890.143	1627.96
890.323	1593.15
890.503	1181.51
890.683	1216.32
890.863	1476.41
891.043	1519.42
891.223	1294.15
891.403	1294.15
891.583	1331.01
891.763	1462.08
891.943	1265.47
892.122	1107.78
892.302	1419.07
892.482	1285.95
892.662	1292.1
892.842	1206.08
893.022	1597.24
893.201	1275.71
893.381	1365.82
893.561	1191.75
893.741	1466.17
893.92	1617.72
894.1	1290.05
894.28	1285.95
894.459	1470.27
894.639	1533.76
894.819	1216.32
894.998	1388.35
895.178	1490.75
895.357	1554.24
895.537	1136.45
895.716	1005.38
895.896	1333.06
896.075	1582.91
896.255	1267.52
896.434	991.05
896.614	1535.81
896.793	1791.8
896.973	1331.01
897.152	1353.54
897.331	1474.37
897.511	1730.36
897.69	1064.77
897.87	1275.71
898.049	1605.44
898.228	1390.4
898.407	1437.5
898.587	1292.1
898.766	1247.04
898.945	1607.48
899.124	1529.66
899.304	1224.51
899.483	1523.52
899.662	1883.96
899.841	1146.69
900.02	1181.51
900.199	1716.03
900.378	1556.29
900.557	1066.82
900.737	1171.27
900.916	1492.8
901.095	1560.38
901.274	1408.83
901.453	1052.49
901.632	1331.01
901.811	1212.23
901.989	1191.75
902.168	1177.41
902.347	1527.61
902.526	1208.13
902.705	1136.45
902.884	1230.66
903.063	1627.96
903.242	1648.44
903.42	1103.68
903.599	1314.63
903.778	1576.77
903.957	1732.41
904.135	1371.97
904.314	1183.56
904.493	1333.06
904.672	1648.44
904.85	1204.03
905.029	1138.5
905.207	1505.09
905.386	2191.16
905.565	1146.69
905.743	1068.87
905.922	1353.54
906.1	1486.65
906.279	1066.82
906.457	1212.23
906.636	1335.1
906.814	1414.98
906.993	1161.03
907.171	1111.88
907.35	1535.81
907.528	1445.7
907.707	1451.84
907.885	1003.33
908.063	1707.84
908.242	1201.99
908.42	1156.93
908.598	929.61
908.777	1470.27
908.955	1304.39
909.133	1212.23
909.311	1075.01
909.49	1328.96
909.668	1224.51
909.846	1257.28
910.024	952.13
910.202	1298.24
910.38	1402.69
910.559	986.95
910.737	1075.01
910.915	1490.75
911.093	1419.07
911.271	1208.13
911.449	1341.25
911.627	1482.56
911.805	1912.63
911.983	945.99
912.161	1093.44
912.339	1470.27
912.517	1603.39
912.695	1277.76
912.872	1113.92
913.05	1146.69
913.228	1441.6
913.406	1097.54
913.584	1003.33
913.762	1468.22
913.939	1232.71
914.117	991.05
914.295	1009.48
914.473	1486.65
914.65	1255.23
914.828	1025.86
915.006	1077.06
915.184	982.85
915.361	1406.78
915.539	1263.43
915.716	1247.04
915.894	1355.58
916.072	1400.64
916.249	1324.87
916.427	1238.85
916.604	1085.25
916.782	1482.56
916.959	923.46
917.137	1040.2
917.314	1343.3
917.492	1376.06
917.669	1156.93
917.847	1201.99
918.024	1308.48
918.201	1091.4
918.379	1062.73
918.556	956.23
918.733	1382.21
918.911	1179.46
919.088	1285.95
919.265	900.94
919.442	1359.68
919.62	1210.18
919.797	958.28
919.974	845.64
920.151	1208.13
920.328	1187.65
920.506	1058.63
920.683	1238.85
920.86	945.99
921.037	997.19
921.214	1054.53
921.391	991.05
921.568	1492.8
921.745	1042.25
921.922	1083.2
922.099	909.13
922.276	1355.58
922.453	1322.82
922.63	1011.53
922.807	1318.72
922.984	1242.95
923.161	1013.57
923.338	925.51
923.514	855.88
923.691	1154.88
923.868	1367.87
924.045	843.59
924.222	941.89
924.399	1224.51
924.575	1474.37
924.752	968.52
924.929	1089.35
925.105	1371.97
925.282	1015.62
925.459	929.61
925.635	1085.25
925.812	1232.71
925.989	1001.29
926.165	999.24
926.342	806.73
926.518	913.22
926.695	1068.87
926.871	931.66
927.048	788.3
927.224	1404.74
927.401	1011.53
927.577	935.75
927.754	814.92
927.93	1343.3
928.107	1208.13
928.283	827.21
928.459	984.9
928.636	1263.43
928.812	974.66
928.988	866.12
929.165	640.84
929.341	1058.63
929.517	1050.44
929.693	1165.12
929.87	677.71
930.046	1124.16
930.222	1046.34
930.398	833.35
930.574	948.04
930.751	1058.63
930.927	1036.1
931.103	997.19
931.279	900.94
931.455	757.58
931.631	1109.83
931.807	634.7
931.983	726.86
932.159	743.24
932.335	952.13
932.511	849.74
932.687	843.59
932.863	995.14
933.039	995.14
933.215	626.51
933.391	626.51
933.566	853.83
933.742	972.61
933.918	816.97
934.094	575.31
934.27	937.8
934.445	892.74
934.621	716.62
934.797	595.79
934.973	1124.16
935.148	999.24
935.324	608.08
935.5	464.72
935.675	1132.36
935.851	902.98
936.027	634.7
936.202	739.15
936.378	974.66
936.553	886.6
936.729	1048.39
936.904	593.74
937.08	581.45
937.255	638.8
937.431	528.21
937.606	362.32
937.782	733
937.957	769.87
938.133	694.09
938.308	503.63
938.483	673.61
938.659	579.4
938.834	571.21
939.009	464.72
939.185	694.09
939.36	495.44
939.535	212.82
939.71	608.08
939.886	833.35
940.061	802.63
940.236	608.08
940.411	487.25
940.586	773.96
940.761	802.63
940.937	513.87
941.112	417.61
941.287	616.27
941.462	698.19
941.637	393.04
941.812	415.57
941.987	782.15
942.162	591.69
942.337	542.54
942.512	390.99
942.687	892.74
942.862	790.35
943.037	288.59
943.212	14.17
943.386	546.64
943.561	704.33
943.736	536.4
943.911	681.8
944.086	716.62
944.26	644.94
944.435	378.7
944.61	474.96
944.785	933.7
944.959	1054.53
945.134	481.1
945.309	302.93
945.483	454.48
945.658	773.96
945.833	91.99
946.007	221.01
946.182	937.8
946.357	292.69
946.531	331.6
946.706	290.64
946.88	128.85
947.055	640.84
947.229	405.33
947.404	294.74
947.578	802.63
947.752	464.72
947.927	194.39
948.101	227.15
948.276	569.16
948.45	542.54
948.624	477.01
948.799	261.97
948.973	620.36
949.147	329.55
949.321	395.09
949.496	360.27
949.67	735.05
949.844	573.26
950.018	298.83
950.193	382.8
950.367	986.95
950.541	399.18
950.715	421.71
950.889	556.88
951.063	571.21
951.237	692.04
951.411	200.53
951.585	139.09
951.759	696.14
951.933	472.91
952.107	249.68
952.281	493.39
952.455	931.66
952.629	753.48
952.803	290.64
952.977	225.11
953.151	724.81
953.325	640.84
953.499	427.85
953.672	188.24
953.846	347.98
954.02	456.53
954.194	186.19
954.368	372.56
954.541	665.42
954.715	315.22
954.889	532.3
955.062	204.63
955.236	434
955.41	493.39
955.583	528.21
955.757	65.36
955.93	487.25
956.104	255.83
956.278	331.6
956.451	272.21
956.625	665.42
956.798	982.85
956.972	554.83
957.145	225.11
957.319	554.83
957.492	460.62
957.665	466.77
957.839	255.83
958.012	614.22
958.185	399.18
958.359	257.87
958.532	517.97
958.705	630.6
958.879	587.6
959.052	315.22
959.225	180.05
959.398	509.77
959.572	626.51
959.745	249.68
959.918	386.9
960.091	390.99
960.264	646.99
960.438	167.76
960.611	264.02
960.784	646.99
960.957	380.75
961.13	722.76
961.303	241.49
961.476	462.67
961.649	661.32
961.822	137.04
961.995	368.46
962.168	730.95
962.341	583.5
962.514	331.6
962.686	339.79
962.859	560.97
963.032	653.13
963.205	284.5
963.378	147.28
963.551	606.03
963.723	493.39
963.896	464.72
964.069	458.57
964.242	466.77
964.414	589.64
964.587	327.5
964.76	304.98
964.932	550.73
965.105	522.06
965.278	280.4
965.45	239.44
965.623	509.77
965.795	657.23
965.968	298.83
966.14	270.16
966.313	470.86
966.485	503.63
966.658	216.91
966.83	286.54
967.003	737.1
967.175	700.23
967.348	264.02
967.52	317.26
967.692	747.34
967.865	677.71
968.037	345.94
968.209	530.25
968.382	485.2
968.554	671.56
968.726	442.19
968.898	319.31
969.071	450.38
969.243	563.02
969.415	368.46
969.587	429.9
969.759	980.81
969.932	606.03
970.104	413.52
970.276	173.91
970.448	425.81
970.62	403.28
970.792	339.79
970.964	325.46
971.136	984.9
971.308	689.99
971.48	231.25
971.652	225.11
971.824	905.03
971.996	364.37
972.168	345.94
972.339	403.28
972.511	747.34
972.683	350.03
972.855	440.14
973.027	352.08
973.199	485.2
973.37	632.65
973.542	442.19
973.714	395.09
973.886	499.53
974.057	685.9
974.229	159.57
974.401	319.31
974.572	247.63
974.744	114.52
974.915	151.38
975.087	202.58
975.259	780.11
975.43	360.27
975.602	327.5
975.773	141.14
975.945	333.65
976.116	628.56
976.288	171.86
976.459	466.77
976.63	397.14
976.802	526.16
976.973	184.15
977.145	386.9
977.316	978.76
977.487	800.59
977.659	374.61
977.83	286.54
978.001	886.6
978.172	569.16
978.344	212.82
978.515	352.08
978.686	335.7
978.857	730.95
979.028	292.69
979.2	210.77
979.371	702.28
979.542	540.49
979.713	448.33
979.884	-63.66
980.055	186.19
980.226	415.57
980.397	184.15
980.568	147.28
980.739	671.56
980.91	444.24
981.081	378.7
981.252	243.54
981.423	601.93
981.594	733
981.765	163.67
981.936	257.87
982.106	448.33
982.277	671.56
982.448	225.11
982.619	358.22
982.79	339.79
982.96	733
983.131	395.09
983.302	48.98
983.472	370.51
983.643	503.63
983.814	335.7
983.984	182.1
984.155	417.61
984.326	671.56
984.496	309.07
984.667	278.35
984.837	374.61
985.008	671.56
985.178	409.42
985.349	264.02
985.519	413.52
985.69	292.69
985.86	237.39
986.031	173.91
986.201	489.29
986.371	601.93
986.542	114.52
986.712	-8.36
986.882	612.17
987.053	565.07
987.223	157.52
987.393	337.74
987.563	372.56
987.734	657.23
987.904	515.92
988.074	249.68
988.244	495.44
988.414	268.11
988.585	110.42
988.755	304.98
988.925	401.23
989.095	814.92
989.265	98.13
989.435	233.3
989.605	509.77
989.775	542.54
989.945	450.38
990.115	57.17
990.285	384.85
990.455	511.82
990.625	300.88
990.795	221.01
990.965	661.32
991.134	210.77
991.304	98.13
991.474	278.35
991.644	485.2
991.814	757.58
991.984	83.8
992.153	184.15
992.323	339.79
992.493	384.85
992.662	-90.28
992.832	321.36
993.002	366.42
993.171	360.27
993.341	5.97
993.511	323.41
993.68	302.93
993.85	505.68
994.019	-24.75
994.189	53.08
994.358	431.95
994.528	223.06
994.697	-43.18
994.867	67.41
995.036	511.82
995.206	259.92
995.375	57.17
995.544	284.5
995.714	501.58
995.883	210.77
996.052	358.22
996.222	-69.8
996.391	819.02
996.56	464.72
996.73	63.32
996.899	-22.7
997.068	745.29
997.237	329.55
997.406	1.88
997.576	-45.23
997.745	401.23
997.914	528.21
998.083	-77.99
998.252	48.98
998.421	431.95
998.59	233.3
998.759	-37.03
998.928	-45.23
999.097	599.88
999.266	454.48
999.435	196.43
999.604	-18.6
999.773	843.59
999.942	225.11
1000.111	-32.94
1000.28	-88.23
1000.448	106.32
1000.617	26.45
1000.786	243.54
1000.955	75.6
1001.124	350.03
1001.292	943.94
1001.461	85.84
1001.63	3.93
1001.798	646.99
1001.967	657.23
1002.136	-39.08
1002.304	-12.46
1002.473	358.22
1002.642	341.84
1002.81	65.36
1002.979	163.67
1003.147	464.72
1003.316	892.74
1003.484	46.93
1003.653	-32.94
1003.821	608.08
1003.99	243.54
1004.158	208.72
1004.327	169.81
1004.495	448.33
1004.663	116.56
1004.832	110.42
1005	-88.23
1005.168	378.7
1005.337	380.75
1005.505	-88.23
1005.673	157.52
1005.842	429.9
1006.01	444.24
1006.178	-51.37
1006.346	12.12
1006.514	427.85
1006.683	608.08
1006.851	-43.18
1007.019	-149.67
1007.187	20.31
1007.355	-178.34
1007.523	-118.95
1007.691	-176.3
1007.859	24.4
1008.027	589.64
1008.195	67.41
1008.363	-82.09
1008.531	626.51
1008.699	89.94
1008.867	-61.61
1009.035	3.93
1009.203	608.08
1009.37	264.02
1009.538	22.36
1009.706	438.09
1009.874	227.15
1010.042	175.95
1010.209	-137.38
1010.377	-61.61
1010.545	491.34
1010.713	315.22
1010.88	-14.51
1011.048	-4.27
1011.216	184.15
1011.383	565.07
1011.551	-69.8
1011.718	-125.1
1011.886	421.71
1012.054	264.02
1012.221	-84.14
1012.389	24.4
1012.556	149.33
1012.724	626.51
1012.891	87.89
1013.058	-133.29
1013.226	319.31
1013.393	413.52
1013.561	-166.06
1013.728	-159.91
1013.895	399.18
1014.063	347.98
1014.23	-67.75
1014.397	-71.85
1014.565	468.81
1014.732	243.54
1014.899	-71.85
1015.066	-106.67
1015.233	249.68
1015.401	345.94
1015.568	3.93
1015.735	102.23
1015.902	290.64
1016.069	343.89
1016.236	3.93
1016.403	-88.23
1016.57	102.23
1016.737	479.05
1016.904	-30.89
1017.071	-143.53
1017.238	48.98
1017.405	558.92
1017.572	-57.51
1017.739	143.19
1017.906	411.47
1018.073	515.92
1018.24	-26.79
1018.407	-67.75
1018.573	544.59
1018.74	204.63
1018.907	-45.23
1019.074	-196.78
1019.241	479.05
1019.407	241.49
1019.574	-75.95
1019.741	-155.82
1019.907	251.73
1020.074	350.03
1020.241	-272.55
1020.407	-137.38
1020.574	405.33
1020.74	450.38
1020.907	-57.51
1021.073	-82.09
1021.24	712.52
1021.406	573.26
1021.573	-129.19
1021.739	-75.95
1021.906	413.52
1022.072	253.78
1022.239	-26.79
1022.405	-145.58
1022.571	225.11
1022.738	114.52
1022.904	-112.81
1023.07	30.55
1023.237	266.07
1023.403	421.71
1023.569	-80.04
1023.735	-45.23
1023.902	286.54
1024.068	329.55
1024.234	-141.48
1024.4	-92.33
1024.566	356.18
1024.732	452.43
1024.898	-155.82
1025.065	-159.91
1025.231	448.33
1025.397	163.67
1025.563	-65.71
1025.729	-104.62
1025.895	-123.05
1026.061	5.97
1026.227	-104.62
1026.392	-18.6
1026.558	509.77
1026.724	411.47
1026.89	-108.71
1027.056	40.79
1027.222	284.5
1027.388	167.76
1027.553	-147.62
1027.719	-86.19
1027.885	524.11
1028.051	407.38
1028.216	-272.55
1028.382	-104.62
1028.548	409.42
1028.713	200.53
1028.879	-192.68
1029.045	77.65
1029.21	503.63
1029.376	501.58
1029.541	3.93
1029.707	-12.46
1029.873	347.98
1030.038	370.51
1030.204	-151.72
1030.369	-20.65
1030.534	569.16
1030.7	71.51
1030.865	-20.65
1031.031	-190.63
1031.196	343.89
1031.361	272.21
1031.527	-123.05
1031.692	-200.87
1031.857	-170.15
1032.023	345.94
1032.188	-172.2
1032.353	-71.85
1032.518	618.32
1032.684	270.16
1032.849	-204.97
1033.014	-114.86
1033.179	423.76
1033.344	343.89
1033.509	3.93
1033.674	-8.36
1033.839	489.29
1034.004	304.98
1034.17	-84.14
1034.335	-143.53
1034.5	165.71
1034.664	100.18
1034.829	-168.1
1034.994	30.55
1035.159	288.59
1035.324	231.25
1035.489	-102.57
1035.654	-192.68
1035.819	530.25
1035.984	319.31
1036.148	-43.18
1036.313	-94.38
1036.478	405.33
1036.643	284.5
1036.807	-225.45
1036.972	-147.62
1037.137	595.79
1037.301	300.88
1037.466	-207.02
1037.631	-75.95
1037.795	532.3
1037.96	255.83
1038.124	94.04
1038.289	-196.78
1038.454	438.09
1038.618	296.78
1038.783	-71.85
1038.947	-32.94
1039.111	284.5
1039.276	118.61
1039.44	-139.43
1039.605	362.32
1039.769	149.33
1039.933	218.96
1040.098	-20.65
1040.262	112.47
1040.426	397.14
1040.591	401.23
1040.755	-219.3
1040.919	-186.54
1041.083	372.56
1041.248	261.97
1041.412	-264.36
1041.576	-159.91
1041.74	186.19
1041.904	390.99
1042.068	-184.49
1042.232	-53.42
1042.397	331.6
1042.561	270.16
1042.725	-301.22
1042.889	26.45
1043.053	464.72
1043.217	419.66
1043.381	-12.46
1043.544	-233.64
1043.708	505.68
1043.872	40.79
1044.036	-301.22
1044.2	-186.54
1044.364	466.77
1044.528	542.54
1044.691	2604.85
1044.855	-192.68
1045.019	456.53
1045.183	358.22
1045.346	-49.32
1045.51	-202.92
1045.674	378.7
1045.837	468.81
1046.001	-37.03
1046.165	-94.38
1046.328	843.59
1046.492	364.37
1046.655	38.74
1046.819	-37.03
1046.983	151.38
1047.146	448.33
1047.31	3.93
1047.473	-276.65
1047.636	266.07
1047.8	65.36
1047.963	-94.38
1048.127	-88.23
1048.29	-2.22
