Data from Ink_Intensity_USB4F045381__181__00181.txt Node

Date: Mon Jul 17 11:41:59 EDT 2023
User: mmckonesweet
Spectrometer: USB4F04538
Trigger mode: 4
Integration Time (sec): 9.000000E-1
Scans to average: 1
Electric dark correction enabled: true
Nonlinearity correction enabled: false
Boxcar width: 0
XAxis mode: Wavelengths
Number of Pixels in Spectrum: 3648
>>>>>Begin Spectral Data<<<<<
345.52	-991.22
345.736	-991.22
345.952	-991.22
346.168	-1011.7
346.384	-1038.32
346.6	-126.97
346.816	-266.24
347.032	-118.78
347.248	342.01
347.464	-249.85
347.68	-98.3
347.896	51.2
348.112	305.15
348.328	-96.25
348.544	-86.01
348.76	30.72
348.975	313.34
349.191	-237.56
349.407	-165.89
349.623	-28.67
349.839	-88.06
350.055	-161.79
350.27	53.25
350.486	178.17
350.702	327.68
350.918	215.04
351.133	-149.5
351.349	157.69
351.565	385.02
351.781	-243.71
351.996	43.01
352.212	239.61
352.428	-145.41
352.644	-253.95
352.859	-307.2
353.075	329.72
353.291	100.35
353.506	-108.54
353.722	-219.13
353.938	-118.78
354.153	473.08
354.369	96.25
354.584	-219.13
354.8	229.37
355.016	-432.12
355.231	-321.53
355.447	-126.97
355.662	24.58
355.878	753.65
356.093	-346.11
356.309	-4.1
356.524	-235.52
356.74	319.48
356.955	-282.62
357.171	32.77
357.386	116.73
357.602	-229.37
357.817	-94.21
358.033	-227.32
358.248	335.87
358.464	149.5
358.679	-94.21
358.895	-323.58
359.11	-63.49
359.325	342.01
359.541	-16.38
359.756	-73.73
359.972	-311.29
360.187	174.08
360.402	-184.32
360.618	-219.13
360.833	976.88
361.048	40.96
361.264	-149.5
361.479	-90.11
361.694	-118.78
361.909	169.98
362.125	-141.31
362.34	-98.3
362.555	258.04
362.77	96.25
362.986	-344.06
363.201	-169.98
363.416	131.07
363.631	4.1
363.847	-163.84
364.062	-186.37
364.277	141.31
364.492	98.3
364.707	-178.17
364.922	-325.63
365.138	188.41
365.353	329.72
365.568	-299
365.783	-129.02
365.998	-57.34
366.213	581.62
366.428	-219.13
366.643	98.3
366.858	270.33
367.073	165.89
367.288	-67.58
367.503	-229.37
367.718	94.21
367.933	323.58
368.148	-317.44
368.363	-122.88
368.578	-43.01
368.793	364.54
369.008	-169.98
369.223	-227.32
369.438	180.22
369.653	391.16
369.868	-276.48
370.083	-221.18
370.298	43.01
370.513	321.53
370.728	-38.91
370.943	-139.26
371.157	-243.71
371.372	516.09
371.587	-305.15
371.802	-319.48
372.017	81.92
372.232	387.07
372.446	-65.53
372.661	-307.2
372.876	184.32
373.091	102.4
373.306	-124.93
373.52	-270.33
373.735	-178.17
373.95	428.03
374.165	-159.74
374.379	-198.65
374.594	-114.69
374.809	77.82
375.023	0
375.238	-286.72
375.453	256
375.667	-294.91
375.882	-176.13
376.097	-210.94
376.311	53.25
376.526	-75.77
376.741	-233.47
376.955	108.54
377.17	538.62
377.384	544.76
377.599	-96.25
377.813	-342.01
378.028	540.66
378.242	147.45
378.457	-49.15
378.672	-415.74
378.886	22.53
379.101	-65.53
379.315	-376.83
379.53	-122.88
379.744	122.88
379.958	176.13
380.173	-155.65
380.387	-215.04
380.602	151.55
380.816	-77.82
381.031	-204.8
381.245	-139.26
381.459	116.73
381.674	2607.06
381.888	-251.9
382.103	61.44
382.317	-223.23
382.531	450.55
382.746	-151.55
382.96	-180.22
383.174	-180.22
383.388	352.25
383.603	67.58
383.817	-301.05
384.031	188.41
384.246	428.03
384.46	8.19
384.674	262.14
384.888	-12.29
385.103	86.01
385.317	-276.48
385.531	-34.82
385.745	315.39
385.959	262.14
386.174	-344.06
386.388	-272.38
386.602	-45.06
386.816	-129.02
387.03	-227.32
387.244	-38.91
387.458	55.3
387.672	331.77
387.887	-317.44
388.101	-294.91
388.315	303.1
388.529	147.45
388.743	-190.46
388.957	-294.91
389.171	319.48
389.385	-147.45
389.599	-186.37
389.813	100.35
390.027	145.41
390.241	618.49
390.455	-90.11
390.669	-102.4
390.883	-110.59
391.097	352.25
391.311	65.54
391.525	-200.7
391.738	229.37
391.952	149.5
392.166	-49.15
392.38	-309.24
392.594	206.84
392.808	294.91
393.022	-129.02
393.236	-204.8
393.449	155.65
393.663	161.79
393.877	-305.15
394.091	-77.82
394.305	-112.64
394.518	-219.13
394.732	-262.14
394.946	-100.35
395.16	475.13
395.373	90.11
395.587	-221.18
395.801	-229.37
396.015	311.29
396.228	180.22
396.442	-294.91
396.656	-460.79
396.869	309.24
397.083	483.32
397.297	-135.17
397.51	-137.21
397.724	393.21
397.938	0
398.151	-372.73
398.365	-251.9
398.578	245.76
398.792	307.2
399.005	-20.48
399.219	-221.18
399.433	126.97
399.646	172.03
399.86	-36.86
400.073	-30.72
400.287	180.22
400.5	-24.58
400.714	4.1
400.927	-131.07
401.141	307.2
401.354	1130.48
401.567	182.27
401.781	-331.77
401.994	258.04
402.208	598.01
402.421	-135.17
402.635	-149.5
402.848	14.34
403.061	288.76
403.275	-88.06
403.488	-319.48
403.701	524.28
403.915	157.69
404.128	20.48
404.341	-196.6
404.555	178.17
404.768	22.53
404.981	-36.86
405.195	-253.95
405.408	419.83
405.621	206.84
405.834	0
406.048	-288.76
406.261	385.02
406.474	454.65
406.687	-227.32
406.9	6.14
407.114	-14.34
407.327	262.14
407.54	-280.57
407.753	-352.25
407.966	-120.83
408.179	155.65
408.392	-229.37
408.605	-333.82
408.819	180.22
409.032	135.17
409.245	-208.89
409.458	-8.19
409.671	219.13
409.884	188.41
410.097	-288.76
410.31	-88.06
410.523	94.21
410.736	-106.49
410.949	-118.78
411.162	-120.83
411.375	395.26
411.588	204.8
411.801	-4.1
412.014	-143.36
412.227	-6.14
412.44	-122.88
412.653	-118.78
412.865	14.34
413.078	294.91
413.291	131.07
413.504	-106.49
413.717	-180.22
413.93	221.18
414.143	-141.31
414.356	-124.93
414.568	-256
414.781	317.44
414.994	120.83
415.207	-131.07
415.42	-53.25
415.632	311.29
415.845	479.22
416.058	-356.35
416.271	-307.2
416.483	49.15
416.696	452.6
416.909	-167.93
417.121	-169.98
417.334	139.26
417.547	511.99
417.759	-229.37
417.972	-290.81
418.185	-108.54
418.397	229.37
418.61	-200.7
418.823	-217.08
419.035	428.03
419.248	79.87
419.46	-65.53
419.673	-163.84
419.885	149.5
420.098	-79.87
420.311	-163.84
420.523	-339.96
420.736	204.8
420.948	-24.58
421.161	-186.37
421.373	-442.36
421.586	100.35
421.798	-178.17
422.01	-430.07
422.223	-110.59
422.435	0
422.648	243.71
422.86	-172.03
423.073	-235.52
423.285	247.8
423.497	-294.91
423.71	-135.17
423.922	-229.37
424.134	172.03
424.347	329.72
424.559	-73.73
424.771	118.78
424.984	-81.92
425.196	180.22
425.408	-342.01
425.621	-368.63
425.833	184.32
426.045	329.72
426.257	-323.58
426.47	-249.85
426.682	159.74
426.894	198.65
427.106	-200.7
427.318	-241.66
427.531	-225.28
427.743	184.32
427.955	-262.14
428.167	241.66
428.379	149.5
428.591	-79.87
428.804	-159.74
429.016	-245.76
429.228	-55.3
429.44	163.84
429.652	-14.34
429.864	-348.15
430.076	-28.67
430.288	-88.06
430.5	-145.41
430.712	-188.41
430.924	346.11
431.136	45.06
431.348	-360.44
431.56	-235.52
431.772	73.73
431.984	-155.65
432.196	-284.67
432.408	-178.17
432.62	-69.63
432.832	124.93
433.044	40.96
433.256	-135.17
433.468	249.85
433.679	-286.72
433.891	-274.43
434.103	-28.67
434.315	399.35
434.527	155.65
434.739	-143.36
434.95	-188.41
435.162	282.62
435.374	-96.25
435.586	-174.08
435.798	-169.98
436.009	-219.13
436.221	2.05
436.433	-180.22
436.645	-143.36
436.856	-73.73
437.068	247.8
437.28	-274.43
437.491	59.39
437.703	208.89
437.915	73.73
438.126	-182.27
438.338	32.77
438.55	47.1
438.761	225.28
438.973	-135.17
439.184	-184.32
439.396	-104.45
439.608	194.56
439.819	-382.97
440.031	-71.68
440.242	243.71
440.454	131.07
440.665	-202.75
440.877	-137.21
441.088	217.08
441.3	-16.38
441.511	-311.29
441.723	-266.24
441.934	131.07
442.146	75.77
442.357	-32.77
442.569	118.78
442.78	26.62
442.991	434.17
443.203	106.49
443.414	-294.91
443.626	362.49
443.837	-178.17
444.048	-286.72
444.26	-358.39
444.471	83.97
444.682	155.65
444.894	-360.44
445.105	-397.31
445.316	223.23
445.528	81.92
445.739	-176.13
445.95	-223.23
446.161	124.93
446.373	327.68
446.584	-212.99
446.795	-180.22
447.006	292.86
447.217	350.2
447.429	-395.26
447.64	-301.05
447.851	219.13
448.062	61.44
448.273	-368.63
448.484	-212.99
448.695	184.32
448.907	-57.34
449.118	-67.58
449.329	-8.19
449.54	-147.45
449.751	-268.28
449.962	-212.99
450.173	-200.7
450.384	256
450.595	362.49
450.806	-251.9
451.017	-231.42
451.228	339.96
451.439	253.95
451.65	-182.27
451.861	-421.88
452.072	-190.46
452.283	-55.3
452.494	-16.38
452.705	-284.67
452.915	460.79
453.126	51.2
453.337	-180.22
453.548	-278.52
453.759	288.76
453.97	526.33
454.181	47.1
454.391	-161.79
454.602	38.91
454.813	122.88
455.024	-100.35
455.235	-268.28
455.445	83.97
455.656	126.97
455.867	18.43
456.078	-241.66
456.288	8.19
456.499	110.59
456.71	-245.76
456.921	10.24
457.131	86.01
457.342	-45.06
457.553	-188.41
457.763	-249.85
457.974	98.3
458.184	223.23
458.395	-282.62
458.606	-333.82
458.816	266.24
459.027	493.56
459.237	-172.03
459.448	-333.82
459.659	290.81
459.869	567.29
460.08	-401.4
460.29	-172.03
460.501	518.14
460.711	-131.07
460.922	-360.44
461.132	-270.33
461.343	632.82
461.553	-309.24
461.764	-237.56
461.974	-194.56
462.184	178.17
462.395	124.93
462.605	-176.13
462.816	-311.29
463.026	73.73
463.236	270.33
463.447	-243.71
463.657	-274.43
463.867	180.22
464.078	-49.15
464.288	-172.03
464.498	-176.13
464.709	34.82
464.919	-2.05
465.129	-180.22
465.339	-360.44
465.55	88.06
465.76	260.09
465.97	-206.84
466.18	-272.38
466.391	190.46
466.601	77.82
466.811	-116.73
467.021	-325.63
467.231	36.86
467.441	274.43
467.651	-141.31
467.862	-499.7
468.072	6.14
468.282	350.2
468.492	-282.62
468.702	-215.04
468.912	77.82
469.122	567.29
469.332	24.58
469.542	-401.4
469.752	161.79
469.962	67.58
470.172	-325.63
470.382	-274.43
470.592	188.41
470.802	274.43
471.012	-143.36
471.222	-380.92
471.432	223.23
471.642	229.37
471.852	-210.94
472.062	-307.2
472.272	4.1
472.482	-163.84
472.691	-425.98
472.901	-364.54
473.111	32.77
473.321	544.76
473.531	-319.48
473.741	-176.13
473.95	163.84
474.16	167.93
474.37	-186.37
474.58	-389.11
474.79	385.02
474.999	208.89
475.209	-331.77
475.419	-212.99
475.628	-63.49
475.838	208.89
476.048	-188.41
476.258	-356.35
476.467	307.2
476.677	-65.53
476.886	-45.06
477.096	-284.67
477.306	-40.96
477.515	239.61
477.725	-200.7
477.935	-161.79
478.144	344.06
478.354	-159.74
478.563	-268.28
478.773	-243.71
478.982	215.04
479.192	167.93
479.401	-88.06
479.611	-280.57
479.82	-225.28
480.03	77.82
480.239	-329.72
480.449	-374.78
480.658	405.5
480.868	-141.31
481.077	-139.26
481.287	-258.04
481.496	196.61
481.705	403.45
481.915	32.77
482.124	59.39
482.333	126.97
482.543	368.63
482.752	-272.38
482.961	-382.97
483.171	143.36
483.38	-90.11
483.589	-73.73
483.799	-241.66
484.008	-12.29
484.217	253.95
484.426	-264.19
484.636	-344.06
484.845	67.58
485.054	-319.48
485.263	94.21
485.472	-331.77
485.682	327.68
485.891	163.84
486.1	-368.63
486.309	-227.32
486.518	67.58
486.727	288.76
486.936	-337.91
487.146	-188.41
487.355	358.39
487.564	-176.13
487.773	-258.04
487.982	-333.82
488.191	-180.22
488.4	-16.38
488.609	-223.23
488.818	-315.39
489.027	618.49
489.236	399.35
489.445	-196.6
489.654	-290.81
489.863	286.72
490.072	129.02
490.281	102.4
490.49	-245.76
490.698	380.92
490.907	442.36
491.116	-208.89
491.325	-376.83
491.534	260.09
491.743	-4.1
491.952	-163.84
492.16	-219.13
492.369	141.31
492.578	204.8
492.787	-149.5
492.996	-409.59
493.204	-151.55
493.413	540.66
493.622	-511.99
493.831	-401.4
494.039	368.63
494.248	-264.19
494.457	-327.67
494.665	-401.4
494.874	145.41
495.083	481.27
495.291	-305.15
495.5	-303.1
495.709	219.13
495.917	-22.53
496.126	-116.73
496.335	-344.06
496.543	-81.92
496.752	77.82
496.96	-43.01
497.169	-450.55
497.377	30.72
497.586	337.91
497.794	-63.49
498.003	-423.93
498.211	-38.91
498.42	364.54
498.628	-131.07
498.837	-292.86
499.045	180.22
499.254	147.45
499.462	-301.05
499.671	-350.2
499.879	374.78
500.087	221.18
500.296	-282.62
500.504	-204.8
500.713	131.07
500.921	483.32
501.129	-313.34
501.338	-231.42
501.546	57.34
501.754	8.19
501.962	-319.48
502.171	-276.48
502.379	143.36
502.587	485.37
502.795	-157.69
503.004	-311.29
503.212	18.43
503.42	192.51
503.628	-256
503.837	-81.92
504.045	157.69
504.253	454.65
504.461	-327.67
504.669	-475.13
504.877	139.26
505.085	421.88
505.294	-421.88
505.502	-30.72
505.71	120.83
505.918	200.7
506.126	-374.78
506.334	-296.96
506.542	-57.34
506.75	75.77
506.958	-129.02
507.166	-196.6
507.374	-139.26
507.582	485.37
507.79	-122.88
507.998	-282.62
508.206	153.6
508.414	83.97
508.622	-339.96
508.83	-266.24
509.037	456.7
509.245	18.43
509.453	-387.07
509.661	-358.39
509.869	139.26
510.077	-32.77
510.285	-167.93
510.492	-565.24
510.7	520.18
510.908	-159.74
511.116	-292.86
511.324	-258.04
511.531	-69.63
511.739	43.01
511.947	-94.21
512.155	28.67
512.362	112.64
512.57	-276.48
512.778	-339.96
512.985	-393.21
513.193	159.74
513.401	409.59
513.608	-178.17
513.816	-305.15
514.024	116.73
514.231	262.14
514.439	-274.43
514.646	-303.1
514.854	247.8
515.061	368.63
515.269	-278.52
515.477	-284.67
515.684	-79.87
515.892	253.95
516.099	-364.54
516.307	-444.41
516.514	131.07
516.722	438.27
516.929	-235.52
517.136	-360.44
517.344	360.44
517.551	131.07
517.759	-268.28
517.966	-251.9
518.173	-51.2
518.381	-26.62
518.588	-184.32
518.796	-391.16
519.003	212.99
519.21	63.49
519.418	-323.58
519.625	-73.73
519.832	133.12
520.039	108.54
520.247	-385.02
520.454	-286.72
520.661	280.57
520.868	262.14
521.076	-329.72
521.283	-251.9
521.49	641.01
521.697	32.77
521.904	-233.47
522.112	-221.18
522.319	192.51
522.526	112.64
522.733	-313.34
522.94	-317.44
523.147	0
523.354	188.41
523.561	-368.63
523.768	-247.8
523.975	167.93
524.183	120.83
524.39	-262.14
524.597	-417.79
524.804	-12.29
525.011	-106.49
525.218	-315.39
525.425	-327.67
525.632	358.39
525.838	-114.69
526.045	-299
526.252	-309.24
526.459	1030.13
526.666	860.15
526.873	-342.01
527.08	-339.96
527.287	395.26
527.494	192.51
527.701	-376.83
527.907	-354.3
528.114	188.41
528.321	-88.06
528.528	-225.28
528.735	-278.52
528.941	-129.02
529.148	-83.97
529.355	-178.17
529.562	-249.85
529.768	364.54
529.975	-81.92
530.182	-227.32
530.388	-296.96
530.595	329.72
530.802	-292.86
531.008	-124.93
531.215	-206.84
531.422	491.51
531.628	665.59
531.835	-198.65
532.042	-172.03
532.248	-196.6
532.455	30.72
532.661	-198.65
532.868	-333.82
533.074	83.97
533.281	206.84
533.487	-284.67
533.694	-344.06
533.9	-174.08
534.107	59.39
534.313	-387.07
534.52	-356.35
534.726	239.61
534.933	530.42
535.139	-323.58
535.345	-382.97
535.552	90.11
535.758	45.06
535.965	-184.32
536.171	-342.01
536.377	223.23
536.584	350.2
536.79	-276.48
536.996	-262.14
537.203	210.94
537.409	157.69
537.615	-202.75
537.821	-88.06
538.028	172.03
538.234	190.46
538.44	-227.32
538.646	-200.7
538.853	210.94
539.059	-139.26
539.265	22.53
539.471	-452.6
539.677	258.04
539.883	-12.29
540.09	-208.89
540.296	102.4
540.502	-20.48
540.708	-151.55
540.914	-176.13
541.12	-241.66
541.326	225.28
541.532	-108.54
541.738	-147.45
541.944	-247.8
542.15	239.61
542.356	-57.34
542.562	-417.79
542.768	-135.17
542.974	653.3
543.18	503.8
543.386	-305.15
543.592	-473.08
543.798	409.59
544.004	319.48
544.21	-305.15
544.415	-147.45
544.621	90.11
544.827	272.38
545.033	-325.63
545.239	-22.53
545.445	-243.71
545.651	49.15
545.856	-290.81
546.062	-237.56
546.268	-114.69
546.474	53.25
546.679	-217.08
546.885	-280.57
547.091	-98.3
547.297	450.55
547.502	-126.97
547.708	-368.63
547.914	-36.86
548.119	190.46
548.325	-374.78
548.531	-311.29
548.736	428.03
548.942	-135.17
549.147	-327.67
549.353	-43.01
549.559	323.58
549.764	88.06
549.97	-301.05
550.175	-317.44
550.381	172.03
550.586	-139.26
550.792	-200.7
550.997	-274.43
551.203	176.13
551.408	167.93
551.614	-362.49
551.819	-380.92
552.025	370.68
552.23	452.6
552.435	-454.65
552.641	-98.3
552.846	-145.41
553.052	329.72
553.257	-258.04
553.462	-323.58
553.668	-182.27
553.873	321.53
554.078	-380.92
554.283	-303.1
554.489	30.72
554.694	-45.06
554.899	-360.44
555.105	-210.94
555.31	83.97
555.515	278.52
555.72	-155.65
555.925	-370.68
556.131	161.79
556.336	-71.68
556.541	-317.44
556.746	-391.16
556.951	272.38
557.156	342.01
557.361	-149.5
557.567	-98.3
557.772	475.13
557.977	266.24
558.182	-307.2
558.387	-282.62
558.592	-114.69
558.797	376.83
559.002	-143.36
559.207	-112.64
559.412	67.58
559.617	507.9
559.822	-196.6
560.027	-305.15
560.232	88.06
560.437	200.7
560.642	-497.66
560.847	-301.05
561.051	-12.29
561.256	122.88
561.461	-239.61
561.666	-380.92
561.871	16.38
562.076	153.6
562.281	-253.95
562.485	-360.44
562.69	253.95
562.895	233.47
563.1	-346.11
563.305	-286.72
563.509	305.15
563.714	638.97
563.919	-335.87
564.123	-319.48
564.328	-77.82
564.533	358.39
564.737	-161.79
564.942	-286.72
565.147	473.08
565.351	454.65
565.556	-182.27
565.761	-192.51
565.965	139.26
566.17	-192.51
566.374	-247.8
566.579	-321.53
566.784	104.45
566.988	-83.97
567.193	-364.54
567.397	-329.72
567.602	-229.37
567.806	-36.86
568.011	-342.01
568.215	-237.56
568.42	30.72
568.624	-22.53
568.828	-323.58
569.033	-38.91
569.237	188.41
569.442	188.41
569.646	-358.39
569.85	-274.43
570.055	-65.53
570.259	114.69
570.463	-88.06
570.668	-288.76
570.872	20.48
571.076	-43.01
571.281	-114.69
571.485	-196.6
571.689	75.77
571.893	217.08
572.098	-106.49
572.302	-223.23
572.506	151.55
572.71	30.72
572.914	-274.43
573.119	-339.96
573.323	360.44
573.527	333.82
573.731	-237.56
573.935	-364.54
574.139	126.97
574.343	-69.63
574.547	-217.08
574.751	-215.04
574.955	352.25
575.159	354.3
575.364	-329.72
575.568	-309.24
575.772	53.25
575.976	299
576.18	-253.95
576.383	-430.07
576.587	368.63
576.791	157.69
576.995	-454.65
577.199	-413.69
577.403	219.13
577.607	315.39
577.811	-337.91
578.015	-206.84
578.219	192.51
578.422	229.37
578.626	-227.32
578.83	-92.16
579.034	274.43
579.238	75.77
579.442	-301.05
579.645	122.88
579.849	-22.53
580.053	106.49
580.257	-135.17
580.46	-194.56
580.664	241.66
580.868	155.65
581.071	-81.92
581.275	-88.06
581.479	-202.75
581.682	186.37
581.886	-331.77
582.09	-151.55
582.293	131.07
582.497	280.57
582.7	-98.3
582.904	-303.1
583.107	131.07
583.311	2.05
583.515	-180.22
583.718	-176.13
583.922	243.71
584.125	544.76
584.329	-274.43
584.532	-65.53
584.735	294.91
584.939	139.26
585.142	-415.74
585.346	-317.44
585.549	108.54
585.753	-65.53
585.956	-237.56
586.159	-139.26
586.363	460.79
586.566	133.12
586.769	-352.25
586.973	-247.8
587.176	108.54
587.379	256
587.582	161.79
587.786	-2.05
587.989	53.25
588.192	624.63
588.395	-155.65
588.599	24.58
588.802	94.21
589.005	206.84
589.208	-221.18
589.411	-243.71
589.615	309.24
589.818	511.99
590.021	28.67
590.224	-71.68
590.427	233.47
590.63	223.23
590.833	-397.31
591.036	-286.72
591.239	-8.19
591.442	-63.49
591.645	71.68
591.848	-233.47
592.051	172.03
592.254	268.28
592.457	-126.97
592.66	-172.03
592.863	36.86
593.066	57.34
593.269	-233.47
593.472	-178.17
593.675	-161.79
593.878	274.43
594.081	-133.12
594.284	-313.34
594.486	135.17
594.689	81.92
594.892	-90.11
595.095	-176.13
595.298	204.8
595.5	-75.77
595.703	-182.27
595.906	-110.59
596.109	378.87
596.311	200.7
596.514	-481.27
596.717	-208.89
596.92	333.82
597.122	131.07
597.325	-380.92
597.528	-219.13
597.73	321.53
597.933	67.58
598.136	-182.27
598.338	-444.41
598.541	139.26
598.743	303.1
598.946	-237.56
599.148	-237.56
599.351	323.58
599.554	172.03
599.756	-149.5
599.959	-186.37
600.161	352.25
600.363	679.93
600.566	28.67
600.768	-202.75
600.971	405.5
601.173	231.42
601.376	-172.03
601.578	-196.6
601.78	167.93
601.983	729.08
602.185	-301.05
602.388	-69.63
602.59	178.17
602.792	-63.49
602.995	-10.24
603.197	-210.94
603.399	303.1
603.601	159.74
603.804	-186.37
604.006	-198.65
604.208	6.14
604.41	-462.84
604.613	4.1
604.815	-235.52
605.017	641.01
605.219	-122.88
605.421	212.99
605.623	-153.6
605.826	360.44
606.028	454.65
606.23	-215.04
606.432	-169.98
606.634	440.31
606.836	456.7
607.038	-309.24
607.24	-49.15
607.442	122.88
607.644	69.63
607.846	-4.1
608.048	-327.67
608.25	348.15
608.452	-55.3
608.654	-190.46
608.856	-432.12
609.058	12.29
609.26	157.69
609.462	-34.82
609.664	-131.07
609.866	544.76
610.067	294.91
610.269	-18.43
610.471	-126.97
610.673	-65.53
610.875	266.24
611.077	-303.1
611.278	-81.92
611.48	59.39
611.682	511.99
611.884	-145.41
612.085	-110.59
612.287	-159.74
612.489	178.17
612.69	-307.2
612.892	-30.72
613.094	366.59
613.295	262.14
613.497	-305.15
613.699	-202.75
613.9	450.55
614.102	280.57
614.304	-157.69
614.505	-376.83
614.707	104.45
614.908	0
615.11	-350.2
615.311	-71.68
615.513	339.96
615.714	233.47
615.916	-278.52
616.117	-124.93
616.319	57.34
616.52	241.66
616.722	-145.41
616.923	-190.46
617.124	356.35
617.326	301.05
617.527	-69.63
617.729	-4.1
617.93	282.62
618.131	319.48
618.333	-133.12
618.534	-122.88
618.735	-96.25
618.937	501.75
619.138	-268.28
619.339	-233.47
619.54	190.46
619.742	28.67
619.943	-90.11
620.144	-188.41
620.345	294.91
620.546	346.11
620.748	-284.67
620.949	-147.45
621.15	110.59
621.351	108.54
621.552	-172.03
621.753	-413.69
621.954	-270.33
622.155	649.21
622.356	-276.48
622.558	-36.86
622.759	129.02
622.96	604.15
623.161	-174.08
623.362	-167.93
623.563	49.15
623.764	43.01
623.965	-208.89
624.166	32.77
624.366	69.63
624.567	188.41
624.768	-440.31
624.969	-262.14
625.17	2.05
625.371	231.42
625.572	83.97
625.773	-311.29
625.973	352.25
626.174	188.41
626.375	-102.4
626.576	-49.15
626.777	167.93
626.977	665.59
627.178	-108.54
627.379	-71.68
627.58	16.38
627.78	124.93
627.981	-122.88
628.182	-20.48
628.382	473.08
628.583	-215.04
628.784	-286.72
628.984	30.72
629.185	286.72
629.386	305.15
629.586	-6.14
629.787	-212.99
629.987	333.82
630.188	112.64
630.388	-98.3
630.589	-102.4
630.79	704.5
630.99	180.22
631.191	-139.26
631.391	-73.73
631.591	217.08
631.792	421.88
631.992	-55.3
632.193	-79.87
632.393	565.24
632.594	45.06
632.794	-147.45
632.994	-75.77
633.195	163.84
633.395	133.12
633.595	-225.28
633.796	-14.34
633.996	8.19
634.196	479.22
634.397	-329.72
634.597	-49.15
634.797	-34.82
634.997	518.14
635.198	40.96
635.398	-212.99
635.598	196.61
635.798	497.66
635.998	249.85
636.199	-194.56
636.399	45.06
636.599	-106.49
636.799	-100.35
636.999	215.04
637.199	239.61
637.399	329.72
637.599	-100.35
637.799	43.01
637.999	-6.14
638.199	499.7
638.399	-237.56
638.599	-106.49
638.799	272.38
638.999	591.86
639.199	16.38
639.399	-38.91
639.599	475.13
639.799	-36.86
639.999	-180.22
640.199	-223.23
640.399	202.75
640.599	241.66
640.799	2.05
640.998	116.73
641.198	407.55
641.398	268.28
641.598	-108.54
641.798	-47.1
641.997	1066.99
642.197	188.41
642.397	57.34
642.597	-147.45
642.796	303.1
642.996	499.7
643.196	49.15
643.395	-194.56
643.595	319.48
643.795	-262.14
643.994	-63.49
644.194	-75.77
644.394	401.4
644.593	202.75
644.793	-219.13
644.992	40.96
645.192	206.84
645.392	-241.66
645.591	77.82
645.791	-108.54
645.99	294.91
646.19	-16.38
646.389	34.82
646.589	-8.19
646.788	264.19
646.987	280.57
647.187	30.72
647.386	24.58
647.586	104.45
647.785	331.77
647.984	-167.93
648.184	14.34
648.383	98.3
648.582	92.16
648.782	-90.11
648.981	106.49
649.18	-8.19
649.38	131.07
649.579	-110.59
649.778	-165.89
649.977	243.71
650.177	229.37
650.376	-96.25
650.575	-126.97
650.774	581.62
650.973	122.88
651.173	-186.37
651.372	-45.06
651.571	221.18
651.77	364.54
651.969	-124.93
652.168	-83.97
652.367	-106.49
652.566	157.69
652.765	-96.25
652.964	174.08
653.163	634.87
653.362	141.31
653.561	-28.67
653.76	-114.69
653.959	110.59
654.158	352.25
654.357	120.83
654.556	-77.82
654.755	329.72
654.954	376.83
655.153	-92.16
655.352	16.38
655.551	528.38
655.749	-30.72
655.948	53.25
656.147	110.59
656.346	321.53
656.545	153.6
656.743	-12.29
656.942	55.3
657.141	180.22
657.34	-61.44
657.538	-2.05
657.737	-65.53
657.936	98.3
658.135	253.95
658.333	-22.53
658.532	51.2
658.731	612.34
658.929	348.15
659.128	258.04
659.326	-83.97
659.525	401.4
659.724	180.22
659.922	-235.52
660.121	-200.7
660.319	241.66
660.518	-12.29
660.716	-178.17
660.915	-118.78
661.113	487.42
661.312	-159.74
661.51	10.24
661.709	-147.45
661.907	268.28
662.105	638.97
662.304	-40.96
662.502	90.11
662.701	505.85
662.899	196.61
663.097	311.29
663.296	-276.48
663.494	415.74
663.692	509.94
663.891	-43.01
664.089	-71.68
664.287	176.13
664.485	501.75
664.684	-126.97
664.882	106.49
665.08	180.22
665.278	258.04
665.476	-133.12
665.675	253.95
665.873	634.87
666.071	413.69
666.269	-49.15
666.467	196.61
666.665	208.89
666.863	229.37
667.061	104.45
667.259	-63.49
667.457	176.13
667.655	362.49
667.853	-194.56
668.051	40.96
668.249	65.54
668.447	325.63
668.645	-73.73
668.843	186.37
669.041	380.92
669.239	106.49
669.437	73.73
669.635	73.73
669.833	149.5
670.031	409.59
670.229	118.78
670.426	108.54
670.624	79.87
670.822	-57.34
671.02	-36.86
671.218	45.06
671.415	-34.82
671.613	282.62
671.811	102.4
672.009	-6.14
672.206	370.68
672.404	223.23
672.602	180.22
672.799	153.6
672.997	309.24
673.195	509.94
673.392	118.78
673.59	-36.86
673.788	421.88
673.985	-270.33
674.183	124.93
674.38	-106.49
674.578	526.33
674.775	38.91
674.973	-129.02
675.17	-47.1
675.368	630.77
675.565	352.25
675.763	30.72
675.96	-49.15
676.158	634.87
676.355	249.85
676.553	-61.44
676.75	45.06
676.947	208.89
677.145	215.04
677.342	73.73
677.539	77.82
677.737	327.68
677.934	782.32
678.131	184.32
678.329	-77.82
678.526	626.68
678.723	434.17
678.92	94.21
679.118	63.49
679.315	-92.16
679.512	651.25
679.709	-14.34
679.906	73.73
680.104	516.09
680.301	204.8
680.498	28.67
680.695	-57.34
680.892	149.5
681.089	180.22
681.286	122.88
681.483	-65.53
681.68	393.21
681.877	493.56
682.075	98.3
682.272	192.51
682.469	372.73
682.665	225.28
682.862	-24.58
683.059	-61.44
683.256	231.42
683.453	288.76
683.65	176.13
683.847	61.44
684.044	311.29
684.241	14.34
684.438	149.5
684.635	-98.3
684.831	714.74
685.028	737.27
685.225	43.01
685.422	229.37
685.619	182.27
685.815	284.67
686.012	98.3
686.209	4.1
686.405	-43.01
686.602	411.64
686.799	-147.45
686.996	6.14
687.192	40.96
687.389	675.83
687.586	12.29
687.782	81.92
687.979	544.76
688.175	499.7
688.372	108.54
688.568	61.44
688.765	116.73
688.962	569.34
689.158	206.84
689.355	-106.49
689.551	374.78
689.748	147.45
689.944	182.27
690.14	-122.88
690.337	524.28
690.533	143.36
690.73	253.95
690.926	122.88
691.123	389.11
691.319	323.58
691.515	-69.63
691.712	251.9
691.908	466.94
692.104	417.79
692.301	233.47
692.497	0
692.693	532.47
692.889	342.01
693.086	258.04
693.282	-118.78
693.478	335.87
693.674	712.69
693.87	77.82
694.067	-94.21
694.263	327.68
694.459	282.62
694.655	264.19
694.851	215.04
695.047	413.69
695.243	399.35
695.439	235.52
695.635	49.15
695.831	444.41
696.027	325.63
696.224	45.06
696.42	401.4
696.615	612.34
696.811	460.79
697.007	-57.34
697.203	153.6
697.399	462.84
697.595	653.3
697.791	8.19
697.987	212.99
698.183	4.1
698.379	159.74
698.575	106.49
698.77	159.74
698.966	493.56
699.162	675.83
699.358	223.23
699.554	147.45
699.749	376.83
699.945	534.52
700.141	243.71
700.337	276.48
700.532	294.91
700.728	190.46
700.924	65.54
701.119	-28.67
701.315	442.36
701.511	235.52
701.706	215.04
701.902	-65.53
702.097	301.05
702.293	411.64
702.489	190.46
702.684	131.07
702.88	348.15
703.075	256
703.271	149.5
703.466	-53.25
703.662	362.49
703.857	532.47
704.053	143.36
704.248	90.11
704.443	471.03
704.639	540.66
704.834	126.97
705.03	10.24
705.225	569.34
705.42	636.92
705.616	163.84
705.811	79.87
706.006	309.24
706.202	272.38
706.397	280.57
706.592	90.11
706.787	385.02
706.983	430.07
707.178	450.55
707.373	233.47
707.568	526.33
707.763	602.1
707.959	159.74
708.154	167.93
708.349	389.11
708.544	395.26
708.739	321.53
708.934	92.16
709.129	565.24
709.324	600.05
709.519	96.25
709.714	-30.72
709.909	647.16
710.104	497.66
710.299	194.56
710.494	180.22
710.689	473.08
710.884	350.2
711.079	210.94
711.274	313.34
711.469	546.81
711.664	540.66
711.859	98.3
712.054	190.46
712.249	491.51
712.443	663.54
712.638	-53.25
712.833	73.73
713.028	405.5
713.223	319.48
713.417	471.03
713.612	65.54
713.807	557.05
714.002	960.5
714.196	335.87
714.391	227.32
714.586	532.47
714.78	385.02
714.975	231.42
715.17	167.93
715.364	352.25
715.559	622.58
715.754	-73.73
715.948	92.16
716.143	880.63
716.337	501.75
716.532	454.65
716.726	172.03
716.921	495.61
717.115	819.19
717.31	79.87
717.504	606.2
717.699	335.87
717.893	632.82
718.088	98.3
718.282	81.92
718.476	450.55
718.671	468.98
718.865	196.61
719.059	266.24
719.254	360.44
719.448	817.14
719.642	1454.06
719.837	24.58
720.031	598.01
720.225	679.93
720.419	368.63
720.614	155.65
720.808	598.01
721.002	331.77
721.196	102.4
721.39	122.88
721.585	743.41
721.779	425.98
721.973	200.7
722.167	61.44
722.361	520.18
722.555	628.73
722.749	264.19
722.943	188.41
723.137	139.26
723.331	561.14
723.525	258.04
723.719	157.69
723.913	593.91
724.107	794.61
724.301	133.12
724.495	235.52
724.689	915.44
724.883	763.89
725.077	77.82
725.271	110.59
725.465	712.69
725.659	442.36
725.853	200.7
726.046	2.05
726.24	301.05
726.434	610.29
726.628	208.89
726.822	172.03
727.015	798.71
727.209	761.84
727.403	225.28
727.596	104.45
727.79	704.5
727.984	659.45
728.177	237.56
728.371	288.76
728.565	681.97
728.758	174.08
728.952	106.49
729.146	182.27
729.339	708.6
729.533	448.51
729.726	198.65
729.92	139.26
730.113	774.13
730.307	479.22
730.5	258.04
730.694	141.31
730.887	446.46
731.081	548.86
731.274	51.2
731.468	215.04
731.661	493.56
731.854	327.68
732.048	137.21
732.241	59.39
732.435	317.44
732.628	475.13
732.821	301.05
733.014	155.65
733.208	243.71
733.401	610.29
733.594	231.42
733.788	253.95
733.981	811
734.174	493.56
734.367	196.61
734.56	337.91
734.754	647.16
734.947	438.27
735.14	206.84
735.333	163.84
735.526	614.39
735.719	331.77
735.912	122.88
736.105	135.17
736.298	499.7
736.491	366.59
736.684	239.61
736.877	239.61
737.07	538.62
737.263	784.37
737.456	141.31
737.649	135.17
737.842	319.48
738.035	477.18
738.228	344.06
738.421	411.64
738.614	806.9
738.807	618.49
739	69.63
739.192	153.6
739.385	647.16
739.578	663.54
739.771	475.13
739.964	245.76
740.156	593.91
740.349	438.27
740.542	417.79
740.735	81.92
740.927	188.41
741.12	278.52
741.313	100.35
741.505	327.68
741.698	509.94
741.891	589.82
742.083	436.22
742.276	186.37
742.468	526.33
742.661	407.55
742.854	303.1
743.046	286.72
743.239	780.28
743.431	481.27
743.624	278.52
743.816	155.65
744.009	434.17
744.201	604.15
744.393	542.71
744.586	186.37
744.778	745.46
744.971	550.9
745.163	335.87
745.355	479.22
745.548	559.1
745.74	393.21
745.932	294.91
746.125	237.56
746.317	1134.57
746.509	540.66
746.702	251.9
746.894	356.35
747.086	675.83
747.278	811
747.471	421.88
747.663	286.72
747.855	489.46
748.047	937.97
748.239	229.37
748.431	245.76
748.623	874.48
748.815	942.07
749.008	151.55
749.2	249.85
749.392	669.69
749.584	706.55
749.776	327.68
749.968	411.64
750.16	1026.03
750.352	542.71
750.544	409.59
750.736	262.14
750.928	655.35
751.12	538.62
751.311	339.96
751.503	299
751.695	614.39
751.887	491.51
752.079	118.78
752.271	253.95
752.463	1335.28
752.654	714.74
752.846	327.68
753.038	288.76
753.23	397.31
753.421	774.13
753.613	307.2
753.805	598.01
753.997	714.74
754.188	706.55
754.38	290.81
754.572	372.73
754.763	460.79
754.955	643.06
755.146	278.52
755.338	356.35
755.53	706.55
755.721	507.9
755.913	118.78
756.104	174.08
756.296	577.53
756.487	737.27
756.679	260.09
756.87	331.77
757.062	532.47
757.253	716.79
757.445	270.33
757.636	430.07
757.827	524.28
758.019	1157.1
758.21	286.72
758.401	325.63
758.593	976.88
758.784	882.67
758.975	169.98
759.167	215.04
759.358	557.05
759.549	729.08
759.74	313.34
759.932	280.57
760.123	899.06
760.314	452.6
760.505	483.32
760.696	264.19
760.888	1077.23
761.079	440.31
761.27	239.61
761.461	114.69
761.652	968.69
761.843	567.29
762.034	344.06
762.225	606.2
762.416	487.42
762.607	645.11
762.798	352.25
762.989	266.24
763.18	1409
763.371	458.75
763.562	331.77
763.753	321.53
763.944	794.61
764.135	868.34
764.326	528.38
764.517	286.72
764.708	706.55
764.899	694.26
765.089	288.76
765.28	139.26
765.471	591.86
765.662	739.32
765.853	428.03
766.043	221.18
766.234	802.8
766.425	823.28
766.615	370.68
766.806	188.41
766.997	845.81
767.187	602.1
767.378	323.58
767.569	172.03
767.759	747.51
767.95	614.39
768.141	575.48
768.331	262.14
768.522	557.05
768.712	794.61
768.903	225.28
769.093	223.23
769.284	911.35
769.474	710.65
769.665	266.24
769.855	172.03
770.046	649.21
770.236	436.22
770.426	499.7
770.617	215.04
770.807	759.8
770.998	561.14
771.188	415.74
771.378	233.47
771.569	817.14
771.759	778.23
771.949	264.19
772.139	86.01
772.33	546.81
772.52	1003.5
772.71	262.14
772.9	219.13
773.09	935.92
773.281	983.03
773.471	303.1
773.661	346.11
773.851	864.24
774.041	538.62
774.231	270.33
774.421	567.29
774.611	1030.13
774.802	614.39
774.992	411.64
775.182	317.44
775.372	565.24
775.562	817.14
775.752	450.55
775.942	405.5
776.131	960.5
776.321	770.04
776.511	342.01
776.701	352.25
776.891	866.29
777.081	425.98
777.271	403.45
777.461	319.48
777.651	933.87
777.84	917.49
778.03	522.23
778.22	364.54
778.41	960.5
778.599	468.98
778.789	458.75
778.979	307.2
779.169	702.45
779.358	632.82
779.548	747.51
779.738	155.65
779.927	718.84
780.117	368.63
780.307	428.03
780.496	180.22
780.686	718.84
780.875	970.74
781.065	362.49
781.254	370.68
781.444	606.2
781.633	720.89
781.823	376.83
782.012	327.68
782.202	577.53
782.391	573.43
782.581	253.95
782.77	479.22
782.96	770.04
783.149	634.87
783.338	428.03
783.528	151.55
783.717	827.38
783.906	851.95
784.096	466.94
784.285	221.18
784.474	618.49
784.663	481.27
784.853	360.44
785.042	403.45
785.231	587.77
785.42	890.87
785.61	448.51
785.799	356.35
785.988	589.82
786.177	598.01
786.366	360.44
786.555	575.48
786.744	851.95
786.933	557.05
787.122	278.52
787.312	241.66
787.501	458.75
787.69	778.23
787.879	346.11
788.068	329.72
788.257	368.63
788.445	614.39
788.634	352.25
788.823	241.66
789.012	1220.59
789.201	1089.52
789.39	438.27
789.579	337.91
789.768	591.86
789.957	606.2
790.145	389.11
790.334	-8.19
790.523	628.73
790.712	542.71
790.9	481.27
791.089	180.22
791.278	851.95
791.467	684.02
791.655	536.57
791.844	903.15
792.033	563.19
792.221	573.43
792.41	544.76
792.599	253.95
792.787	860.15
792.976	870.39
793.164	282.62
793.353	360.44
793.541	876.53
793.73	788.47
793.918	387.07
794.107	393.21
794.295	679.93
794.484	622.58
794.672	413.69
794.861	405.5
795.049	815.09
795.238	1034.22
795.426	253.95
795.614	503.8
795.803	819.19
795.991	1007.6
796.179	446.46
796.368	352.25
796.556	958.45
796.744	434.17
796.932	344.06
797.121	282.62
797.309	638.97
797.497	823.28
797.685	346.11
797.874	372.73
798.062	530.42
798.25	989.17
798.438	337.91
798.626	325.63
798.814	749.56
799.002	1118.19
799.19	557.05
799.378	419.83
799.566	1038.32
799.755	1028.08
799.943	614.39
800.131	286.72
800.318	694.26
800.506	772.08
800.694	407.55
800.882	589.82
801.07	958.45
801.258	634.87
801.446	462.84
801.634	438.27
801.822	684.02
802.01	645.11
802.197	294.91
802.385	511.99
802.573	804.85
802.761	409.59
802.949	468.98
803.136	235.52
803.324	905.2
803.512	813.04
803.699	499.7
803.887	270.33
804.075	999.41
804.262	565.24
804.45	280.57
804.638	473.08
804.825	503.8
805.013	511.99
805.201	438.27
805.388	305.15
805.576	729.08
805.763	1066.99
805.951	399.35
806.138	501.75
806.326	1128.43
806.513	894.96
806.701	495.61
806.888	444.41
807.075	892.91
807.263	1155.05
807.45	247.8
807.638	630.77
807.825	1271.79
808.012	1001.46
808.2	534.52
808.387	737.27
808.574	868.34
808.761	1048.56
808.949	425.98
809.136	577.53
809.323	669.69
809.51	690.17
809.698	847.86
809.885	546.81
810.072	823.28
810.259	1005.55
810.446	493.56
810.633	397.31
810.82	1050.61
811.008	1157.1
811.195	716.79
811.382	561.14
811.569	729.08
811.756	436.22
811.943	561.14
812.13	442.36
812.317	667.64
812.504	641.01
812.691	583.67
812.878	690.17
813.064	1150.96
813.251	757.75
813.438	376.83
813.625	649.21
813.812	651.25
813.999	641.01
814.186	557.05
814.372	536.57
814.559	815.09
814.746	1056.75
814.933	561.14
815.12	706.55
815.306	643.06
815.493	636.92
815.68	526.33
815.866	573.43
816.053	1001.46
816.24	1273.84
816.426	622.58
816.613	460.79
816.799	942.07
816.986	1032.18
817.173	542.71
817.359	483.32
817.546	808.95
817.732	501.75
817.919	344.06
818.105	561.14
818.292	675.83
818.478	903.15
818.665	704.5
818.851	503.8
819.037	1368.04
819.224	858.1
819.41	411.64
819.597	466.94
819.783	1196.01
819.969	948.21
820.156	569.34
820.342	485.37
820.528	1511.4
820.714	790.52
820.901	833.52
821.087	503.8
821.273	1171.44
821.459	788.47
821.646	493.56
821.832	493.56
822.018	786.42
822.204	921.59
822.39	614.39
822.576	466.94
822.762	907.25
822.948	1001.46
823.134	684.02
823.32	540.66
823.507	618.49
823.693	913.39
823.879	972.79
824.065	565.24
824.25	837.62
824.436	618.49
824.622	657.4
824.808	421.88
824.994	716.79
825.18	718.84
825.366	481.27
825.552	643.06
825.738	624.63
825.923	1007.6
826.109	755.7
826.295	598.01
826.481	704.5
826.667	763.89
826.852	720.89
827.038	489.46
827.224	1097.71
827.409	1187.82
827.595	419.83
827.781	737.27
827.966	1009.65
828.152	1060.85
828.338	661.49
828.523	471.03
828.709	630.77
828.894	1101.81
829.08	593.91
829.266	577.53
829.451	698.36
829.637	1005.55
829.822	690.17
830.008	573.43
830.193	962.55
830.378	1310.7
830.564	624.63
830.749	503.8
830.935	958.45
831.12	952.31
831.305	522.23
831.491	692.21
831.676	544.76
831.861	1007.6
832.047	622.58
832.232	501.75
832.417	1218.54
832.602	876.53
832.788	546.81
832.973	583.67
833.158	933.87
833.343	851.95
833.528	694.26
833.714	620.53
833.899	1058.8
834.084	1286.12
834.269	745.46
834.454	598.01
834.639	1083.38
834.824	856.05
835.009	706.55
835.194	757.75
835.379	1081.33
835.564	1181.68
835.749	712.69
835.934	522.23
836.119	1023.98
836.304	940.02
836.489	608.25
836.674	813.04
836.859	634.87
837.044	1138.67
837.228	636.92
837.413	528.38
837.598	929.78
837.783	1105.9
837.968	743.41
838.152	423.93
838.337	458.75
838.522	1101.81
838.707	1110
838.891	786.42
839.076	946.16
839.261	1023.98
839.445	761.84
839.63	702.45
839.815	1288.17
839.999	753.65
840.184	684.02
840.368	649.21
840.553	1046.51
840.737	1236.97
840.922	579.58
841.106	491.51
841.291	604.15
841.475	933.87
841.66	628.73
841.844	624.63
842.029	1597.42
842.213	690.17
842.397	606.2
842.582	587.77
842.766	1171.44
842.951	1048.56
843.135	679.93
843.319	679.93
843.504	952.31
843.688	1105.9
843.872	466.94
844.056	606.2
844.241	1005.55
844.425	851.95
844.609	858.1
844.793	440.31
844.977	1138.67
845.161	954.35
845.346	436.22
845.53	663.54
845.714	890.87
845.898	1306.6
846.082	491.51
846.266	516.09
846.45	913.39
846.634	942.07
846.818	643.06
847.002	843.76
847.186	958.45
847.37	718.84
847.554	454.65
847.738	731.12
847.922	1032.18
848.106	1019.89
848.29	436.22
848.473	608.25
848.657	1118.19
848.841	770.04
849.025	591.86
849.209	438.27
849.392	1071.09
849.576	827.38
849.76	403.45
849.944	720.89
850.127	1273.84
850.311	626.68
850.495	538.62
850.678	460.79
850.862	1243.12
851.046	1288.17
851.229	872.43
851.413	544.76
851.596	931.83
851.78	927.73
851.964	776.18
852.147	694.26
852.331	1685.48
852.514	1099.76
852.698	724.98
852.881	569.34
853.065	1224.69
853.248	915.44
853.431	868.34
853.615	788.47
853.798	1392.62
853.982	970.74
854.165	790.52
854.348	561.14
854.532	651.25
854.715	741.36
854.898	692.21
855.081	692.21
855.265	1294.32
855.448	1394.67
855.631	598.01
855.814	663.54
855.997	1193.97
856.181	831.48
856.364	716.79
856.547	503.8
856.73	903.15
856.913	894.96
857.096	524.28
857.279	802.8
857.462	817.14
857.645	1095.66
857.828	774.13
858.011	757.75
858.194	802.8
858.377	1075.18
858.56	536.57
858.743	630.77
858.926	645.11
859.109	1017.84
859.292	610.29
859.475	548.86
859.658	1138.67
859.841	1044.46
860.023	495.61
860.206	559.1
860.389	868.34
860.572	1204.21
860.755	743.41
860.937	593.91
861.12	886.77
861.303	866.29
861.486	663.54
861.668	511.99
861.851	1130.48
862.034	1007.6
862.216	829.43
862.399	487.42
862.581	1099.76
862.764	1368.04
862.947	720.89
863.129	700.41
863.312	602.1
863.494	1216.49
863.677	860.15
863.859	391.16
864.042	1036.27
864.224	1230.83
864.406	692.21
864.589	536.57
864.771	1073.14
864.954	751.6
865.136	647.16
865.318	460.79
865.501	1069.04
865.683	534.52
865.865	632.82
866.048	681.97
866.23	980.98
866.412	991.22
866.594	581.62
866.777	692.21
866.959	1032.18
867.141	706.55
867.323	854
867.505	759.8
867.687	892.91
867.869	991.22
868.052	679.93
868.234	497.66
868.416	917.49
868.598	983.03
868.78	731.12
868.962	567.29
869.144	1228.78
869.326	1052.66
869.508	608.25
869.69	528.38
869.872	718.84
870.054	1228.78
870.236	532.47
870.417	638.97
870.599	858.1
870.781	1286.12
870.963	772.08
871.145	614.39
871.327	745.46
871.508	1066.99
871.69	643.06
871.872	636.92
872.054	950.26
872.235	1036.27
872.417	686.07
872.599	600.05
872.78	1257.45
872.962	958.45
873.144	462.84
873.325	591.86
873.507	1347.56
873.689	1048.56
873.87	499.7
874.052	806.9
874.233	878.58
874.415	1200.11
874.596	782.32
874.778	528.38
874.959	991.22
875.141	1249.26
875.322	657.4
875.503	626.68
875.685	1071.09
875.866	567.29
876.048	575.48
876.229	624.63
876.41	856.05
876.592	989.17
876.773	575.48
876.954	557.05
877.136	1191.92
877.317	856.05
877.498	557.05
877.679	729.08
877.86	999.41
878.042	933.87
878.223	708.6
878.404	1050.61
878.585	1015.79
878.766	1320.94
878.947	854
879.128	880.63
879.309	1116.14
879.49	1327.08
879.672	802.8
879.853	712.69
880.034	745.46
880.215	958.45
880.396	729.08
880.576	741.36
880.757	739.32
880.938	1341.42
881.119	534.52
881.3	696.31
881.481	829.43
881.662	1796.07
881.843	606.2
882.023	684.02
882.204	1079.28
882.385	974.83
882.566	665.59
882.747	632.82
882.927	933.87
883.108	888.82
883.289	684.02
883.469	942.07
883.65	972.79
883.831	1021.94
884.011	882.67
884.192	600.05
884.373	1273.84
884.553	1069.04
884.734	811
884.914	913.39
885.095	1574.89
885.275	1388.52
885.456	968.69
885.636	616.44
885.817	886.77
885.997	1023.98
886.178	661.49
886.358	829.43
886.538	999.41
886.719	2023.39
886.899	698.36
887.08	827.38
887.26	1286.12
887.44	819.19
887.621	704.5
887.801	983.03
887.981	1593.32
888.161	1279.98
888.342	778.23
888.522	925.68
888.702	1290.22
888.882	1312.75
889.062	1015.79
889.242	587.77
889.423	1404.91
889.603	1161.2
889.783	925.68
889.963	729.08
890.143	1124.33
890.323	1339.37
890.503	677.88
890.683	827.38
890.863	1034.22
891.043	1138.67
891.223	901.11
891.403	989.17
891.583	1097.71
891.763	1118.19
891.943	841.72
892.122	696.31
892.302	1175.53
892.482	960.5
892.662	933.87
892.842	851.95
893.022	1150.96
893.201	995.31
893.381	944.11
893.561	757.75
893.741	1363.95
893.92	1249.26
894.1	892.91
894.28	890.87
894.459	1411.05
894.639	1257.45
894.819	831.48
894.998	1003.5
895.178	1290.22
895.357	1198.06
895.537	851.95
895.716	641.01
895.896	1087.47
896.075	1396.71
896.255	948.21
896.434	819.19
896.614	1376.24
896.793	1433.58
896.973	960.5
897.152	1017.84
897.331	1212.4
897.511	1322.99
897.69	673.78
897.87	856.05
898.049	1259.5
898.228	1023.98
898.407	1087.47
898.587	1015.79
898.766	905.2
898.945	1353.71
899.124	1089.52
899.304	983.03
899.483	1306.6
899.662	1515.5
899.841	804.85
900.02	786.42
900.199	1458.15
900.378	1138.67
900.557	839.67
900.737	831.48
900.916	1155.05
901.095	1404.91
901.274	1220.59
901.453	706.55
901.632	946.16
901.811	899.06
901.989	858.1
902.168	722.93
902.347	1335.28
902.526	1026.03
902.705	864.24
902.884	1007.6
903.063	1406.95
903.242	1392.62
903.42	815.09
903.599	1011.7
903.778	1392.62
903.957	1556.46
904.135	985.07
904.314	983.03
904.493	1243.12
904.672	1327.08
904.85	921.59
905.029	892.91
905.207	1290.22
905.386	1820.64
905.565	811
905.743	831.48
905.922	1081.33
906.1	1376.24
906.279	684.02
906.457	770.04
906.636	1134.57
906.814	1048.56
906.993	817.14
907.171	950.26
907.35	1345.52
907.528	1341.42
907.707	1103.86
907.885	763.89
908.063	1603.56
908.242	860.15
908.42	892.91
908.598	690.17
908.777	1359.85
908.955	964.59
909.133	1015.79
909.311	790.52
909.49	997.36
909.668	1105.9
909.846	976.88
910.024	628.73
910.202	1071.09
910.38	1282.03
910.559	733.17
910.737	720.89
910.915	1177.58
911.093	1232.88
911.271	837.62
911.449	1064.94
911.627	1196.01
911.805	1648.61
911.983	880.63
912.161	847.86
912.339	1140.72
912.517	1357.8
912.695	1048.56
912.872	831.48
913.05	1044.46
913.228	1236.97
913.406	866.29
913.584	815.09
913.762	1318.89
913.939	958.45
914.117	831.48
914.295	827.38
914.473	1214.45
914.65	1247.21
914.828	899.06
915.006	716.79
915.184	741.36
915.361	1224.69
915.539	909.3
915.716	1101.81
915.894	1167.34
916.072	1314.8
916.249	1028.08
916.427	1110
916.604	823.28
916.782	1206.25
916.959	671.73
917.137	835.57
917.314	1165.29
917.492	1275.88
917.669	864.24
917.847	935.92
918.024	1187.82
918.201	837.62
918.379	933.87
918.556	942.07
918.733	1310.7
918.911	1023.98
919.088	985.07
919.265	782.32
919.442	1132.53
919.62	1048.56
919.797	722.93
919.974	622.58
920.151	1200.11
920.328	1196.01
920.506	755.7
920.683	1105.9
920.86	909.3
921.037	841.72
921.214	942.07
921.391	806.9
921.568	1292.27
921.745	894.96
921.922	872.43
922.099	819.19
922.276	1286.12
922.453	1216.49
922.63	675.83
922.807	1183.73
922.984	1136.62
923.161	901.11
923.338	821.24
923.514	663.54
923.691	935.92
923.868	1036.27
924.045	765.94
924.222	700.41
924.399	1060.85
924.575	1271.79
924.752	917.49
924.929	983.03
925.105	1114.1
925.282	813.04
925.459	841.72
925.635	772.08
925.812	978.93
925.989	843.76
926.165	892.91
926.342	622.58
926.518	856.05
926.695	1050.61
926.871	753.65
927.048	663.54
927.224	1193.97
927.401	937.97
927.577	962.55
927.754	561.14
927.93	1298.41
928.107	1187.82
928.283	612.34
928.459	827.38
928.636	1118.19
928.812	1023.98
928.988	630.77
929.165	591.86
929.341	909.3
929.517	1030.13
929.693	987.12
929.87	481.27
930.046	1171.44
930.222	929.78
930.398	608.25
930.574	845.81
930.751	1120.24
930.927	845.81
931.103	739.32
931.279	815.09
931.455	673.78
931.631	1060.85
931.807	573.43
931.983	550.9
932.159	708.6
932.335	1001.46
932.511	733.17
932.687	659.45
932.863	1087.47
933.039	925.68
933.215	550.9
933.391	509.94
933.566	862.19
933.742	913.39
933.918	688.12
934.094	485.37
934.27	897.01
934.445	897.01
934.621	765.94
934.797	622.58
934.973	1105.9
935.148	1001.46
935.324	567.29
935.5	366.59
935.675	1101.81
935.851	872.43
936.027	692.21
936.202	737.27
936.378	884.72
936.553	681.97
936.729	983.03
936.904	540.66
937.08	458.75
937.255	651.25
937.431	487.42
937.606	352.25
937.782	679.93
937.957	739.32
938.133	540.66
938.308	419.83
938.483	657.4
938.659	546.81
938.834	516.09
939.009	339.96
939.185	561.14
939.36	462.84
939.535	137.21
939.71	575.48
939.886	849.91
940.061	849.91
940.236	673.78
940.411	454.65
940.586	804.85
940.761	823.28
940.937	411.64
941.112	366.59
941.287	577.53
941.462	598.01
941.637	264.19
941.812	432.12
941.987	690.17
942.162	661.49
942.337	380.92
942.512	395.26
942.687	774.13
942.862	663.54
943.037	260.09
943.212	57.34
943.386	524.28
943.561	571.38
943.736	559.1
943.911	614.39
944.086	647.16
944.26	561.14
944.435	362.49
944.61	460.79
944.785	862.19
944.959	1058.8
945.134	391.16
945.309	231.42
945.483	374.78
945.658	755.7
945.833	28.67
946.007	282.62
946.182	913.39
946.357	368.63
946.531	288.76
946.706	176.13
946.88	129.02
947.055	583.67
947.229	233.47
947.404	225.28
947.578	835.57
947.752	462.84
947.927	145.41
948.101	133.12
948.276	532.47
948.45	600.05
948.624	446.46
948.799	202.75
948.973	628.73
949.147	217.08
949.321	292.86
949.496	225.28
949.67	731.12
949.844	473.08
950.018	245.76
950.193	247.8
950.367	1036.27
950.541	532.47
950.715	411.64
950.889	446.46
951.063	483.32
951.237	638.97
951.411	79.87
951.585	90.11
951.759	655.35
951.933	493.56
952.107	325.63
952.281	434.17
952.455	884.72
952.629	681.97
952.803	227.32
952.977	169.98
953.151	622.58
953.325	634.87
953.499	438.27
953.672	108.54
953.846	247.8
954.02	489.46
954.194	272.38
954.368	219.13
954.541	630.77
954.715	409.59
954.889	352.25
955.062	157.69
955.236	507.9
955.41	421.88
955.583	348.15
955.757	155.65
955.93	446.46
956.104	258.04
956.278	290.81
956.451	288.76
956.625	507.9
956.798	972.79
956.972	493.56
957.145	288.76
957.319	417.79
957.492	460.79
957.665	397.31
957.839	161.79
958.012	667.64
958.185	331.77
958.359	331.77
958.532	413.69
958.705	716.79
958.879	561.14
959.052	360.44
959.225	145.41
959.398	475.13
959.572	520.18
959.745	274.43
959.918	356.35
960.091	389.11
960.264	606.2
960.438	196.61
960.611	194.56
960.784	604.15
960.957	364.54
961.13	643.06
961.303	133.12
961.476	493.56
961.649	743.41
961.822	147.45
961.995	313.34
962.168	602.1
962.341	516.09
962.514	272.38
962.686	231.42
962.859	552.95
963.032	692.21
963.205	249.85
963.378	69.63
963.551	626.68
963.723	446.46
963.896	372.73
964.069	407.55
964.242	595.96
964.414	704.5
964.587	385.02
964.76	331.77
964.932	565.24
965.105	485.37
965.278	221.18
965.45	290.81
965.623	473.08
965.795	673.78
965.968	313.34
966.14	256
966.313	393.21
966.485	493.56
966.658	184.32
966.83	221.18
967.003	731.12
967.175	679.93
967.348	221.18
967.52	266.24
967.692	876.53
967.865	632.82
968.037	284.67
968.209	542.71
968.382	444.41
968.554	731.12
968.726	307.2
968.898	251.9
969.071	776.18
969.243	544.76
969.415	301.05
969.587	327.68
969.759	1001.46
969.932	688.12
970.104	303.1
970.276	-28.67
970.448	395.26
970.62	333.82
970.792	401.4
970.964	266.24
971.136	919.54
971.308	624.63
971.48	233.47
971.652	319.48
971.824	827.38
971.996	335.87
972.168	348.15
972.339	339.96
972.511	679.93
972.683	358.39
972.855	462.84
973.027	327.68
973.199	479.22
973.37	704.5
973.542	511.99
973.714	452.6
973.886	413.69
974.057	704.5
974.229	137.21
974.401	260.09
974.572	327.68
974.744	36.86
974.915	192.51
975.087	235.52
975.259	745.46
975.43	360.44
975.602	262.14
975.773	227.32
975.945	264.19
976.116	657.4
976.288	180.22
976.459	458.75
976.63	397.31
976.802	522.23
976.973	208.89
977.145	442.36
977.316	880.63
977.487	557.05
977.659	446.46
977.83	317.44
978.001	892.91
978.172	532.47
978.344	280.57
978.515	272.38
978.686	305.15
978.857	819.19
979.028	301.05
979.2	151.55
979.371	786.42
979.542	485.37
979.713	342.01
979.884	-147.45
980.055	243.71
980.226	362.49
980.397	202.75
980.568	186.37
980.739	655.35
980.91	335.87
981.081	368.63
981.252	169.98
981.423	684.02
981.594	712.69
981.765	165.89
981.936	294.91
982.106	401.4
982.277	733.17
982.448	114.69
982.619	468.98
982.79	432.12
982.96	753.65
983.131	342.01
983.302	45.06
983.472	329.72
983.643	610.29
983.814	374.78
983.984	260.09
984.155	380.92
984.326	661.49
984.496	403.45
984.667	200.7
984.837	309.24
985.008	702.45
985.178	403.45
985.349	202.75
985.519	450.55
985.69	268.28
985.86	303.1
986.031	139.26
986.201	401.4
986.371	550.9
986.542	131.07
986.712	12.29
986.882	542.71
987.053	475.13
987.223	159.74
987.393	432.12
987.563	395.26
987.734	520.18
987.904	497.66
988.074	167.93
988.244	514.04
988.414	399.35
988.585	118.78
988.755	344.06
988.925	411.64
989.095	841.72
989.265	110.59
989.435	278.52
989.605	618.49
989.775	585.72
989.945	395.26
990.115	32.77
990.285	487.42
990.455	503.8
990.625	294.91
990.795	135.17
990.965	794.61
991.134	282.62
991.304	200.7
991.474	94.21
991.644	481.27
991.814	847.86
991.984	135.17
992.153	137.21
992.323	370.68
992.493	407.55
992.662	-114.69
992.832	376.83
993.002	436.22
993.171	595.96
993.341	0
993.511	360.44
993.68	385.02
993.85	630.77
994.019	-8.19
994.189	73.73
994.358	475.13
994.528	337.91
994.697	-120.83
994.867	-18.43
995.036	591.86
995.206	206.84
995.375	14.34
995.544	249.85
995.714	530.42
995.883	356.35
996.052	223.23
996.222	-20.48
996.391	802.8
996.56	473.08
996.73	53.25
996.899	26.62
997.068	755.7
997.237	409.59
997.406	51.2
997.576	-73.73
997.745	460.79
997.914	499.7
998.083	-73.73
998.252	129.02
998.421	372.73
998.59	327.68
998.759	-36.86
998.928	-53.25
999.097	698.36
999.266	430.07
999.435	190.46
999.604	-65.53
999.773	866.29
999.942	272.38
1000.111	-174.08
1000.28	-30.72
1000.448	98.3
1000.617	118.78
1000.786	241.66
1000.955	-53.25
1001.124	423.93
1001.292	964.59
1001.461	-2.05
1001.63	16.38
1001.798	692.21
1001.967	778.23
1002.136	-106.49
1002.304	-32.77
1002.473	321.53
1002.642	385.02
1002.81	24.58
1002.979	-4.1
1003.147	522.23
1003.316	884.72
1003.484	94.21
1003.653	-69.63
1003.821	583.67
1003.99	294.91
1004.158	167.93
1004.327	106.49
1004.495	475.13
1004.663	153.6
1004.832	200.7
1005	-102.4
1005.168	548.86
1005.337	342.01
1005.505	-98.3
1005.673	210.94
1005.842	499.7
1006.01	409.59
1006.178	-38.91
1006.346	10.24
1006.514	430.07
1006.683	704.5
1006.851	47.1
1007.019	-104.45
1007.187	102.4
1007.355	-57.34
1007.523	-184.32
1007.691	-122.88
1007.859	-49.15
1008.027	608.25
1008.195	16.38
1008.363	-153.6
1008.531	579.58
1008.699	186.37
1008.867	-79.87
1009.035	12.29
1009.203	589.82
1009.37	323.58
1009.538	34.82
1009.706	454.65
1009.874	395.26
1010.042	253.95
1010.209	-106.49
1010.377	-79.87
1010.545	536.57
1010.713	344.06
1010.88	22.53
1011.048	-47.1
1011.216	303.1
1011.383	628.73
1011.551	-45.06
1011.718	-47.1
1011.886	511.99
1012.054	368.63
1012.221	-79.87
1012.389	-65.53
1012.556	335.87
1012.724	825.33
1012.891	116.73
1013.058	-202.75
1013.226	514.04
1013.393	524.28
1013.561	-153.6
1013.728	-174.08
1013.895	526.33
1014.063	401.4
1014.23	-188.41
1014.397	-81.92
1014.565	520.18
1014.732	292.86
1014.899	-81.92
1015.066	-122.88
1015.233	352.25
1015.401	579.58
1015.568	30.72
1015.735	49.15
1015.902	344.06
1016.069	405.5
1016.236	-8.19
1016.403	-106.49
1016.57	151.55
1016.737	483.32
1016.904	57.34
1017.071	-131.07
1017.238	53.25
1017.405	454.65
1017.572	-24.58
1017.739	135.17
1017.906	497.66
1018.073	552.95
1018.24	-102.4
1018.407	-22.53
1018.573	663.54
1018.74	315.39
1018.907	14.34
1019.074	-159.74
1019.241	507.9
1019.407	344.06
1019.574	-24.58
1019.741	-184.32
1019.907	299
1020.074	487.42
1020.241	-245.76
1020.407	-126.97
1020.574	440.31
1020.74	362.49
1020.907	-43.01
1021.073	-112.64
1021.24	880.63
1021.406	614.39
1021.573	-141.31
1021.739	-49.15
1021.906	536.57
1022.072	294.91
1022.239	-86.01
1022.405	-118.78
1022.571	233.47
1022.738	65.54
1022.904	-81.92
1023.07	43.01
1023.237	264.19
1023.403	471.03
1023.569	-28.67
1023.735	-36.86
1023.902	335.87
1024.068	444.41
1024.234	-167.93
1024.4	-100.35
1024.566	378.87
1024.732	446.46
1024.898	-73.73
1025.065	-292.86
1025.231	509.94
1025.397	172.03
1025.563	-86.01
1025.729	-118.78
1025.895	-210.94
1026.061	6.14
1026.227	-270.33
1026.392	-88.06
1026.558	569.34
1026.724	385.02
1026.89	-57.34
1027.056	16.38
1027.222	372.73
1027.388	161.79
1027.553	-122.88
1027.719	-131.07
1027.885	622.58
1028.051	434.17
1028.216	-235.52
1028.382	-53.25
1028.548	434.17
1028.713	278.52
1028.879	-167.93
1029.045	69.63
1029.21	561.14
1029.376	614.39
1029.541	30.72
1029.707	-73.73
1029.873	374.78
1030.038	520.18
1030.204	-65.53
1030.369	-16.38
1030.534	503.8
1030.7	192.51
1030.865	-90.11
1031.031	-116.73
1031.196	430.07
1031.361	323.58
1031.527	-133.12
1031.692	-194.56
1031.857	-190.46
1032.023	409.59
1032.188	-237.56
1032.353	-57.34
1032.518	667.64
1032.684	344.06
1032.849	-182.27
1033.014	-57.34
1033.179	493.56
1033.344	372.73
1033.509	-8.19
1033.674	-118.78
1033.839	405.5
1034.004	501.75
1034.17	-86.01
1034.335	-243.71
1034.5	176.13
1034.664	45.06
1034.829	-204.8
1034.994	-34.82
1035.159	372.73
1035.324	376.83
1035.489	-100.35
1035.654	-112.64
1035.819	514.04
1035.984	329.72
1036.148	-26.62
1036.313	-77.82
1036.478	395.26
1036.643	221.18
1036.807	-149.5
1036.972	-176.13
1037.137	540.66
1037.301	288.76
1037.466	-315.39
1037.631	36.86
1037.795	466.94
1037.96	344.06
1038.124	10.24
1038.289	-278.52
1038.454	391.16
1038.618	434.17
1038.783	-92.16
1038.947	-36.86
1039.111	303.1
1039.276	135.17
1039.44	-229.37
1039.605	301.05
1039.769	114.69
1039.933	266.24
1040.098	-30.72
1040.262	118.78
1040.426	405.5
1040.591	393.21
1040.755	-200.7
1040.919	-131.07
1041.083	378.87
1041.248	184.32
1041.412	-221.18
1041.576	-229.37
1041.74	237.56
1041.904	401.4
1042.068	-141.31
1042.232	-49.15
1042.397	485.37
1042.561	249.85
1042.725	-368.63
1042.889	90.11
1043.053	466.94
1043.217	401.4
1043.381	-49.15
1043.544	-325.63
1043.708	532.47
1043.872	34.82
1044.036	-415.74
1044.2	-167.93
1044.364	473.08
1044.528	606.2
1044.691	4624.31
1044.855	-237.56
1045.019	528.38
1045.183	440.31
1045.346	-53.25
1045.51	-260.09
1045.674	391.16
1045.837	380.92
1046.001	-145.41
1046.165	-163.84
1046.328	819.19
1046.492	399.35
1046.655	51.2
1046.819	16.38
1046.983	71.68
1047.146	358.39
1047.31	-81.92
1047.473	-290.81
1047.636	311.29
1047.8	22.53
1047.963	-83.97
1048.127	-190.46
1048.29	61.44
