Data from Ink_Intensity_USB4F045381__29__00029.txt Node

Date: Mon Jul 17 09:46:26 EDT 2023
User: mmckonesweet
Spectrometer: USB4F04538
Trigger mode: 4
Integration Time (sec): 9.000000E-1
Scans to average: 1
Electric dark correction enabled: true
Nonlinearity correction enabled: false
Boxcar width: 0
XAxis mode: Wavelengths
Number of Pixels in Spectrum: 3648
>>>>>Begin Spectral Data<<<<<
345.52	-1040.54
345.736	-1040.54
345.952	-1040.54
346.168	-1003.68
346.384	-993.44
346.6	-90.28
346.816	-260.26
347.032	-213.16
347.248	259.92
347.464	-121
347.68	-192.68
347.896	63.32
348.112	405.33
348.328	-49.32
348.544	-77.99
348.76	36.69
348.975	239.44
349.191	-229.54
349.407	-159.91
349.623	-16.55
349.839	5.97
350.055	-80.04
350.27	42.84
350.486	120.66
350.702	376.66
350.918	276.31
351.133	-170.15
351.349	149.33
351.565	411.47
351.781	-192.68
351.996	-32.94
352.212	276.31
352.428	-147.62
352.644	-153.77
352.859	-172.2
353.075	292.69
353.291	-12.46
353.506	-118.95
353.722	-159.91
353.938	-114.86
354.153	421.71
354.369	48.98
354.584	-184.49
354.8	198.48
355.016	-309.41
355.231	-147.62
355.447	-39.08
355.662	132.95
355.878	804.68
356.093	-297.13
356.309	14.17
356.524	-237.74
356.74	173.91
356.955	-127.14
357.171	-2.22
357.386	89.94
357.602	-352.42
357.817	-71.85
358.033	-237.74
358.248	268.11
358.464	157.52
358.679	-121
358.895	-409.76
359.11	-67.75
359.325	317.26
359.541	249.68
359.756	28.5
359.972	-305.32
360.187	163.67
360.402	-178.34
360.618	-202.92
360.833	847.69
361.048	116.56
361.264	-135.34
361.479	-57.51
361.694	-84.14
361.909	83.8
362.125	-176.3
362.34	-147.62
362.555	245.59
362.77	98.13
362.986	-286.89
363.201	-129.19
363.416	59.22
363.631	-0.17
363.847	-207.02
364.062	-221.35
364.277	216.91
364.492	89.94
364.707	-176.3
364.922	-327.85
365.138	202.58
365.353	264.02
365.568	-254.12
365.783	-110.76
365.998	59.22
366.213	556.88
366.428	-194.73
366.643	65.36
366.858	323.41
367.073	208.72
367.288	-96.43
367.503	-260.26
367.718	65.36
367.933	255.83
368.148	-209.06
368.363	-55.47
368.578	-75.95
368.793	366.42
369.008	-102.57
369.223	-243.88
369.438	223.06
369.653	421.71
369.868	-266.41
370.083	-215.21
370.298	69.46
370.513	354.13
370.728	-88.23
370.943	-155.82
371.157	-157.86
371.372	417.61
371.587	-250.02
371.802	-274.6
372.017	-12.46
372.232	403.28
372.446	-45.23
372.661	-256.17
372.876	192.34
373.091	100.18
373.306	-69.8
373.52	-194.73
373.735	-186.54
373.95	319.31
374.165	-149.67
374.379	-213.16
374.594	-90.28
374.809	40.79
375.023	12.12
375.238	-250.02
375.453	149.33
375.667	-241.83
375.882	-137.38
376.097	-237.74
376.311	-47.27
376.526	-32.94
376.741	-274.6
376.955	120.66
377.17	538.45
377.384	515.92
377.599	-71.85
377.813	-213.16
378.028	571.21
378.242	102.23
378.457	-121
378.672	-331.94
378.886	106.32
379.101	-41.13
379.315	-288.93
379.53	-143.53
379.744	139.09
379.958	38.74
380.173	-155.82
380.387	-190.63
380.602	130.9
380.816	-190.63
381.031	-110.76
381.245	-164.01
381.459	190.29
381.674	2492.21
381.888	-209.06
382.103	46.93
382.317	-221.35
382.531	388.94
382.746	-121
382.96	-125.1
383.174	-102.57
383.388	302.93
383.603	59.22
383.817	-301.22
384.031	96.08
384.246	397.14
384.46	8.02
384.674	337.74
384.888	-28.84
385.103	20.31
385.317	-245.93
385.531	-4.27
385.745	278.35
385.959	276.31
386.174	-174.25
386.388	-213.16
386.602	-22.7
386.816	-118.95
387.03	-129.19
387.244	-59.56
387.458	-24.75
387.672	333.65
387.887	-264.36
388.101	-313.51
388.315	364.37
388.529	55.12
388.743	-82.09
388.957	-223.4
389.171	284.5
389.385	-221.35
389.599	-45.23
389.813	-16.55
390.027	110.42
390.241	638.8
390.455	-133.29
390.669	-172.2
390.883	-88.23
391.097	323.41
391.311	32.6
391.525	-157.86
391.738	202.58
391.952	65.36
392.166	-41.13
392.38	-200.87
392.594	335.7
392.808	282.45
393.022	-80.04
393.236	-121
393.449	153.43
393.663	114.52
393.877	-209.06
394.091	-75.95
394.305	-80.04
394.518	-106.67
394.732	-272.55
394.946	-110.76
395.16	323.41
395.373	34.64
395.587	-131.24
395.801	-131.24
396.015	237.39
396.228	163.67
396.442	-262.31
396.656	-415.91
396.869	266.07
397.083	417.61
397.297	-86.19
397.51	-37.03
397.724	350.03
397.938	165.71
398.151	-282.79
398.365	-270.5
398.578	165.71
398.792	292.69
399.005	-8.36
399.219	-102.57
399.433	141.14
399.646	67.41
399.86	40.79
400.073	-34.99
400.287	120.66
400.5	-106.67
400.714	42.84
400.927	-39.08
401.141	139.09
401.354	939.85
401.567	198.48
401.781	-231.59
401.994	239.44
402.208	501.58
402.421	-45.23
402.635	-45.23
402.848	28.5
403.061	382.8
403.275	-32.94
403.488	-266.41
403.701	470.86
403.915	173.91
404.128	20.31
404.341	-159.91
404.555	102.23
404.768	28.5
404.981	-51.37
405.195	-102.57
405.408	462.67
405.621	44.88
405.834	-57.51
406.048	-190.63
406.261	454.48
406.474	382.8
406.687	-172.2
406.9	-61.61
407.114	-133.29
407.327	159.57
407.54	-196.78
407.753	-235.69
407.966	-108.71
408.179	296.78
408.392	-235.69
408.605	-262.31
408.819	141.14
409.032	137.04
409.245	-188.58
409.458	36.69
409.671	135
409.884	210.77
410.097	-256.17
410.31	40.79
410.523	118.61
410.736	-45.23
410.949	-110.76
411.162	-141.48
411.375	421.71
411.588	243.54
411.801	14.17
412.014	-157.86
412.227	20.31
412.44	-30.89
412.653	-141.48
412.865	-10.41
413.078	151.38
413.291	194.39
413.504	-71.85
413.717	-145.58
413.93	204.63
414.143	-129.19
414.356	-45.23
414.568	-299.17
414.781	223.06
414.994	89.94
415.207	-61.61
415.42	-110.76
415.632	298.83
415.845	485.2
416.058	-172.2
416.271	-264.36
416.483	61.27
416.696	507.73
416.909	-118.95
417.121	-170.15
417.334	192.34
417.547	556.88
417.759	-176.3
417.972	-147.62
418.185	-112.81
418.397	202.58
418.61	-198.82
418.823	-166.06
419.035	309.07
419.248	-8.36
419.46	-63.66
419.673	-96.43
419.885	196.43
420.098	-51.37
420.311	-141.48
420.523	-356.52
420.736	75.6
420.948	-37.03
421.161	-147.62
421.373	-315.56
421.586	63.32
421.798	-102.57
422.01	-344.23
422.223	-32.94
422.435	-47.27
422.648	284.5
422.86	-110.76
423.073	-200.87
423.285	304.98
423.497	-202.92
423.71	-116.9
423.922	-188.58
424.134	102.23
424.347	409.42
424.559	34.64
424.771	126.8
424.984	-94.38
425.196	202.58
425.408	-350.37
425.621	-235.69
425.833	319.31
426.045	339.79
426.257	-299.17
426.47	-172.2
426.682	157.52
426.894	182.1
427.106	-57.51
427.318	-86.19
427.531	-121
427.743	241.49
427.955	-159.91
428.167	223.06
428.379	186.19
428.591	-69.8
428.804	-6.31
429.016	-221.35
429.228	-14.51
429.44	85.84
429.652	94.04
429.864	-311.46
430.076	-65.71
430.288	-0.17
430.5	-14.51
430.712	-92.33
430.924	374.61
431.136	163.67
431.348	-393.38
431.56	-155.82
431.772	-6.31
431.984	-32.94
432.196	-131.24
432.408	-141.48
432.62	-67.75
432.832	145.24
433.044	126.8
433.256	-20.65
433.468	259.92
433.679	-276.65
433.891	-215.21
434.103	-90.28
434.315	397.14
434.527	212.82
434.739	-49.32
434.95	-90.28
435.162	266.07
435.374	-43.18
435.586	-139.43
435.798	-184.49
436.009	-225.45
436.221	-16.55
436.433	-149.67
436.645	-155.82
436.856	26.45
437.068	286.54
437.28	-290.98
437.491	137.04
437.703	126.8
437.915	59.22
438.126	-32.94
438.338	114.52
438.55	79.7
438.761	223.06
438.973	-202.92
439.184	-180.39
439.396	48.98
439.608	300.88
439.819	-227.5
440.031	-30.89
440.242	212.82
440.454	143.19
440.665	-143.53
440.877	-47.27
441.088	178
441.3	16.21
441.511	-235.69
441.723	-149.67
441.934	167.76
442.146	20.31
442.357	48.98
442.569	122.71
442.78	3.93
442.991	460.62
443.203	196.43
443.414	-252.07
443.626	350.03
443.837	-94.38
444.048	-245.93
444.26	-305.32
444.471	126.8
444.682	270.16
444.894	-288.93
445.105	-223.4
445.316	268.11
445.528	149.33
445.739	-18.6
445.95	-47.27
446.161	130.9
446.373	341.84
446.584	-49.32
446.795	-116.9
447.006	274.26
447.217	427.85
447.429	-284.84
447.64	-141.48
447.851	292.69
448.062	34.64
448.273	-323.75
448.484	-225.45
448.695	190.29
448.907	-41.13
449.118	-61.61
449.329	98.13
449.54	-49.32
449.751	-237.74
449.962	-143.53
450.173	-198.82
450.384	319.31
450.595	292.69
450.806	-139.43
451.017	-108.71
451.228	345.94
451.439	296.78
451.65	-129.19
451.861	-284.84
452.072	-182.44
452.283	75.6
452.494	-10.41
452.705	-215.21
452.915	347.98
453.126	147.28
453.337	-168.1
453.548	-155.82
453.759	337.74
453.97	634.7
454.181	42.84
454.391	-77.99
454.602	145.24
454.813	98.13
455.024	-55.47
455.235	-121
455.445	116.56
455.656	268.11
455.867	30.55
456.078	-102.57
456.288	-12.46
456.499	194.39
456.71	-139.43
456.921	61.27
457.131	214.87
457.342	167.76
457.553	-30.89
457.763	-188.58
457.974	216.91
458.184	292.69
458.395	-321.7
458.606	-172.2
458.816	257.87
459.027	491.34
459.237	98.13
459.448	-374.95
459.659	311.12
459.869	554.83
460.08	-329.89
460.29	24.4
460.501	487.25
460.711	-0.17
460.922	-239.78
461.132	-129.19
461.343	692.04
461.553	-155.82
461.764	-82.09
461.974	-102.57
462.184	208.72
462.395	182.1
462.605	-39.08
462.816	-176.3
463.026	137.04
463.236	352.08
463.447	-229.54
463.657	-174.25
463.867	370.51
464.078	-94.38
464.288	-45.23
464.498	-112.81
464.709	40.79
464.919	89.94
465.129	-39.08
465.339	-155.82
465.55	229.2
465.76	235.35
465.97	-39.08
466.18	-151.72
466.391	200.53
466.601	126.8
466.811	20.31
467.021	-176.3
467.231	212.82
467.441	427.85
467.651	-88.23
467.862	-274.6
468.072	8.02
468.282	388.94
468.492	-104.62
468.702	-39.08
468.912	135
469.122	737.1
469.332	157.52
469.542	-73.9
469.752	286.54
469.962	184.15
470.172	-135.34
470.382	-121
470.592	397.14
470.802	501.58
471.012	104.28
471.222	-77.99
471.432	337.74
471.642	335.7
471.852	42.84
472.062	-157.86
472.272	-10.41
472.482	-153.77
472.691	-155.82
472.901	-188.58
473.111	229.2
473.321	673.61
473.531	-92.33
473.741	-0.17
473.95	216.91
474.16	304.98
474.37	55.12
474.58	-164.01
474.79	577.36
474.999	339.79
475.209	-116.9
475.419	16.21
475.628	188.24
475.838	434
476.048	-0.17
476.258	-90.28
476.467	335.7
476.677	36.69
476.886	163.67
477.096	34.64
477.306	104.28
477.515	520.01
477.725	59.22
477.935	69.46
478.144	583.5
478.354	67.41
478.563	53.08
478.773	-43.18
478.982	233.3
479.192	448.33
479.401	153.43
479.611	-37.03
479.82	8.02
480.03	261.97
480.239	-10.41
480.449	-96.43
480.658	616.27
480.868	63.32
481.077	159.57
481.287	3.93
481.496	352.08
481.705	616.27
481.915	264.02
482.124	216.91
482.333	362.32
482.543	522.06
482.752	14.17
482.961	-8.36
483.171	466.77
483.38	223.06
483.589	89.94
483.799	-41.13
484.008	229.2
484.217	606.03
484.426	98.13
484.636	-51.37
484.845	292.69
485.054	3.93
485.263	304.98
485.472	89.94
485.682	724.81
485.891	290.64
486.1	-28.84
486.309	-8.36
486.518	438.09
486.727	665.42
486.936	63.32
487.146	214.87
487.355	716.62
487.564	42.84
487.773	165.71
487.982	112.47
488.191	112.47
488.4	329.55
488.609	141.14
488.818	55.12
489.027	884.55
489.236	603.98
489.445	178
489.654	67.41
489.863	528.21
490.072	329.55
490.281	393.04
490.49	110.42
490.698	667.47
490.907	622.41
491.116	184.15
491.325	-63.66
491.534	683.85
491.743	470.86
491.952	188.24
492.16	204.63
492.369	419.66
492.578	640.84
492.787	249.68
492.996	233.3
493.204	309.07
493.413	853.83
493.622	18.26
493.831	14.17
494.039	753.48
494.248	155.47
494.457	167.76
494.665	-34.99
494.874	485.2
495.083	814.92
495.291	241.49
495.5	239.44
495.709	548.68
495.917	378.7
496.126	171.86
496.335	251.73
496.543	409.42
496.752	524.11
496.96	608.08
497.169	69.46
497.377	454.48
497.586	722.76
497.794	298.83
498.003	28.5
498.211	403.28
498.42	859.98
498.628	347.98
498.837	190.29
499.045	581.45
499.254	563.02
499.462	143.19
499.671	143.19
499.879	888.65
500.087	620.36
500.296	280.4
500.504	341.84
500.713	552.78
500.921	1034.05
501.129	300.88
501.338	249.68
501.546	618.32
501.754	577.36
501.962	372.56
502.171	184.15
502.379	577.36
502.587	958.28
502.795	401.23
503.004	241.49
503.212	464.72
503.42	735.05
503.628	288.59
503.837	384.85
504.045	716.62
504.253	1005.38
504.461	286.54
504.669	118.61
504.877	683.85
505.085	950.09
505.294	104.28
505.502	468.81
505.71	520.01
505.918	780.11
506.126	321.36
506.334	278.35
506.542	472.91
506.75	628.56
506.958	448.33
507.166	438.09
507.374	479.05
507.582	1032.01
507.79	440.14
507.998	186.19
508.206	603.98
508.414	679.75
508.622	309.07
508.83	362.32
509.037	900.94
509.245	563.02
509.453	278.35
509.661	374.61
509.869	612.17
510.077	517.97
510.285	503.63
510.492	98.13
510.7	1212.23
510.908	407.38
511.116	380.75
511.324	364.37
511.531	560.97
511.739	710.47
511.947	560.97
512.155	603.98
512.362	733
512.57	438.09
512.778	315.22
512.985	184.15
513.193	864.07
513.401	984.9
513.608	448.33
513.816	444.24
514.024	739.15
514.231	950.09
514.439	407.38
514.646	438.09
514.854	747.34
515.061	970.57
515.269	474.96
515.477	421.71
515.684	411.47
515.892	909.13
516.099	284.5
516.307	214.87
516.514	782.15
516.722	1007.43
516.929	438.09
517.136	376.66
517.344	1058.63
517.551	782.15
517.759	388.94
517.966	569.16
518.173	552.78
518.381	663.37
518.588	546.64
518.796	472.91
519.003	853.83
519.21	636.75
519.418	395.09
519.625	718.67
519.832	589.64
520.039	755.53
520.247	288.59
520.454	438.09
520.661	943.94
520.868	819.02
521.076	491.34
521.283	560.97
521.49	1341.25
521.697	778.06
521.904	520.01
522.112	487.25
522.319	849.74
522.526	821.06
522.733	462.67
522.94	538.45
523.147	694.09
523.354	894.79
523.561	298.83
523.768	663.37
523.975	1120.07
524.183	839.5
524.39	665.42
524.597	419.66
524.804	726.86
525.011	585.55
525.218	452.43
525.425	524.11
525.632	1064.77
525.838	716.62
526.045	522.06
526.252	450.38
526.459	1707.84
526.666	1484.61
526.873	556.88
527.08	503.63
527.287	1189.7
527.494	929.61
527.701	440.14
527.907	520.01
528.114	1027.91
528.321	710.47
528.528	563.02
528.735	636.75
528.941	665.42
529.148	575.31
529.355	601.93
529.562	579.4
529.768	1183.56
529.975	761.67
530.182	675.66
530.388	458.57
530.595	1056.58
530.802	515.92
531.008	730.95
531.215	626.51
531.422	1500.99
531.628	1468.22
531.835	714.57
532.042	763.72
532.248	739.15
532.455	870.22
532.661	595.79
532.868	644.94
533.074	997.19
533.281	1085.25
533.487	653.13
533.694	544.59
533.9	683.85
534.107	1077.06
534.313	591.69
534.52	538.45
534.726	1120.07
534.933	1324.87
535.139	624.46
535.345	499.53
535.552	1005.38
535.758	937.8
535.965	778.06
536.171	671.56
536.377	1083.2
536.584	1265.47
536.79	728.91
536.996	747.34
537.203	1025.86
537.409	974.66
537.615	886.6
537.821	890.7
538.028	1083.2
538.234	1140.55
538.44	806.73
538.646	845.64
538.853	1138.5
539.059	882.5
539.265	1208.13
539.471	567.12
539.677	1326.91
539.883	927.56
540.09	819.02
540.296	1216.32
540.502	1021.77
540.708	776.01
540.914	915.27
541.12	663.37
541.326	1089.35
541.532	1064.77
541.738	847.69
541.944	864.07
542.15	1271.62
542.356	1017.67
542.562	704.33
542.768	853.83
542.974	1496.89
543.18	1408.83
543.386	765.77
543.592	720.71
543.798	1376.06
544.004	1367.87
544.21	864.07
544.415	927.56
544.621	1199.94
544.827	1324.87
545.033	714.57
545.239	1021.77
545.445	888.65
545.651	1154.88
545.856	831.3
546.062	941.89
546.268	954.18
546.474	1058.63
546.679	948.04
546.885	978.76
547.091	956.23
547.297	1673.02
547.502	997.19
547.708	778.06
547.914	878.41
548.119	1376.06
548.325	814.92
548.531	829.26
548.736	1367.87
548.942	991.05
549.147	857.93
549.353	1122.12
549.559	1376.06
549.764	1236.8
549.97	872.26
550.175	905.03
550.381	1234.75
550.586	1079.11
550.792	964.42
550.997	982.85
551.203	1257.28
551.408	1238.85
551.614	866.12
551.819	892.74
552.025	1603.39
552.23	1699.64
552.435	948.04
552.641	1218.37
552.846	1070.92
553.052	1529.66
553.257	1058.63
553.462	1017.67
553.668	1087.3
553.873	1390.4
554.078	966.47
554.283	972.61
554.489	1288
554.694	1322.82
554.899	872.26
555.105	1273.67
555.31	1531.71
555.515	1414.98
555.72	1113.92
555.925	974.66
556.131	1445.7
556.336	1132.36
556.541	1021.77
556.746	1027.91
556.951	1589.05
557.156	1570.62
557.361	1175.36
557.567	1253.19
557.772	1748.79
557.977	1376.06
558.182	1075.01
558.387	970.57
558.592	1201.99
558.797	1625.92
559.002	1226.56
559.207	1265.47
559.412	1314.63
559.617	1789.75
559.822	1050.44
560.027	1027.91
560.232	1462.08
560.437	1482.56
560.642	995.14
560.847	1070.92
561.051	1455.94
561.256	1283.91
561.461	1240.9
561.666	939.85
561.871	1494.85
562.076	1546.05
562.281	1167.17
562.485	993.09
562.69	1537.85
562.895	1640.25
563.1	1185.6
563.305	1044.29
563.509	1673.02
563.714	1906.49
563.919	1101.64
564.123	1171.27
564.328	1359.68
564.533	1662.78
564.737	1177.41
564.942	1226.56
565.147	1726.27
565.351	1869.62
565.556	1365.82
565.761	1154.88
565.965	1507.13
566.17	1206.08
566.374	1140.55
566.579	1177.41
566.784	1378.11
566.988	1281.86
567.193	1023.81
567.397	1212.23
567.602	1187.65
567.806	1412.93
568.011	1298.24
568.215	1292.1
568.42	1500.99
568.624	1474.37
568.828	1187.65
569.033	1427.26
569.237	1576.77
569.442	1574.72
569.646	1070.92
569.85	1279.81
570.055	1494.85
570.259	1597.24
570.463	1466.17
570.668	1300.29
570.872	1478.46
571.076	1531.71
571.281	1349.44
571.485	1337.15
571.689	1472.32
571.893	1756.99
572.098	1425.22
572.302	1253.19
572.506	1630.01
572.71	1560.38
572.914	1283.91
573.119	1298.24
573.323	2004.79
573.527	1847.1
573.731	1306.43
573.935	1251.14
574.139	1550.14
574.343	1304.39
574.547	1394.5
574.751	1361.73
574.955	1961.78
575.159	1847.1
575.364	1230.66
575.568	1331.01
575.772	1636.16
575.976	1941.3
576.18	1328.96
576.383	1165.12
576.587	1765.18
576.791	1707.84
576.995	1228.61
577.199	1158.98
577.403	1869.62
577.607	1828.67
577.811	1347.39
578.015	1480.51
578.219	1716.03
578.422	1787.71
578.626	1451.84
578.83	1627.96
579.034	1873.72
579.238	1621.82
579.442	1322.82
579.645	1603.39
579.849	1484.61
580.053	1591.1
580.257	1421.12
580.46	1535.81
580.664	1890.1
580.868	1935.16
581.071	1625.92
581.275	1679.16
581.479	1496.89
581.682	1879.86
581.886	1376.06
582.09	1552.19
582.293	1847.1
582.497	1916.73
582.7	1681.21
582.904	1406.78
583.107	1763.13
583.311	1587.01
583.515	1617.72
583.718	1584.96
583.922	1818.43
584.125	2176.82
584.329	1488.7
584.532	1713.98
584.735	2213.68
584.939	1863.48
585.142	1384.26
585.346	1500.99
585.549	1761.08
585.753	1613.63
585.956	1544
586.159	1689.4
586.363	2213.68
586.566	1849.15
586.769	1482.56
586.973	1511.23
587.176	1998.65
587.379	2039.61
587.582	1998.65
587.786	1789.75
587.989	1763.13
588.192	2246.45
588.395	1689.4
588.599	1855.29
588.802	1943.35
589.005	2033.46
589.208	1677.12
589.411	1529.66
589.615	2058.04
589.818	2205.49
590.021	1820.47
590.224	1726.27
590.427	1994.55
590.63	2023.22
590.833	1392.45
591.036	1562.43
591.239	1812.28
591.442	1795.9
591.645	2006.84
591.848	1646.4
592.051	2109.24
592.254	2113.33
592.457	1773.37
592.66	1693.5
592.863	1859.38
593.066	1943.35
593.269	1662.78
593.472	1838.91
593.675	1699.64
593.878	2185.01
594.081	1881.91
594.284	1732.41
594.486	2082.61
594.689	1879.86
594.892	1896.25
595.095	1732.41
595.298	2225.97
595.5	1939.26
595.703	1806.14
595.906	1808.19
596.109	2424.62
596.311	2297.65
596.514	1554.24
596.717	1836.86
596.92	2295.6
597.122	2053.94
597.325	1490.75
597.528	1726.27
597.73	2215.73
597.933	2049.85
598.136	1838.91
598.338	1460.03
598.541	2113.33
598.743	2238.26
598.946	1736.51
599.148	1896.25
599.351	2230.07
599.554	2297.65
599.756	1969.98
599.959	1888.06
600.161	2277.17
600.363	2647.85
600.566	2033.46
600.768	1795.9
600.971	2572.08
601.173	2262.83
601.376	1888.06
601.578	1912.63
601.78	2219.83
601.983	2619.18
602.185	1873.72
602.388	2062.13
602.59	2219.83
602.792	2060.09
602.995	2111.29
603.197	1941.3
603.399	2367.28
603.601	2191.16
603.804	1933.11
604.006	1863.48
604.208	2053.94
604.41	1816.38
604.613	2154.29
604.815	1947.45
605.017	2752.3
605.219	2002.74
605.421	2277.17
605.623	1922.87
605.826	2443.06
606.028	2436.91
606.23	1843
606.432	2010.93
606.634	2580.27
606.836	2340.66
607.038	1883.96
607.24	2088.76
607.442	2117.43
607.644	2324.27
607.846	2039.61
608.048	1959.74
608.25	2449.2
608.452	1953.59
608.654	1910.58
608.856	1845.05
609.058	2303.79
609.26	2387.76
609.462	2068.28
609.664	1967.93
609.866	2631.47
610.067	2494.26
610.269	2203.44
610.471	2139.96
610.673	2236.21
610.875	2383.66
611.077	1894.2
611.278	2117.43
611.48	2307.89
611.682	2754.35
611.884	2195.25
612.085	2121.52
612.287	2053.94
612.489	2516.78
612.69	2017.08
612.892	2262.83
613.094	2535.21
613.295	2318.13
613.497	1986.36
613.699	2172.72
613.9	2610.99
614.102	2643.76
614.304	2189.11
614.505	1867.58
614.707	2371.38
614.908	2287.41
615.11	2023.22
615.311	2250.55
615.513	2473.78
615.714	2643.76
615.916	1994.55
616.117	2162.48
616.319	2209.59
616.52	2402.1
616.722	2129.72
616.923	2199.35
617.124	2561.84
617.326	2438.96
617.527	2182.96
617.729	2412.34
617.93	2447.15
618.131	2658.09
618.333	2187.06
618.534	2062.13
618.735	2207.54
618.937	2789.16
619.138	2019.13
619.339	2060.09
619.54	2412.34
619.742	2389.81
619.943	2223.92
620.144	2250.55
620.345	2608.94
620.546	2694.96
620.748	2023.22
620.949	2217.78
621.15	2377.52
621.351	2520.88
621.552	2135.86
621.753	1910.58
621.954	2099
622.155	2977.58
622.356	2215.73
622.558	2301.75
622.759	2524.97
622.96	2864.94
623.161	2107.19
623.362	2344.75
623.563	2512.69
623.764	2459.44
623.965	2373.43
624.166	2457.39
624.366	2281.27
624.567	2563.89
624.768	1937.21
624.969	2228.02
625.17	2461.49
625.371	2602.8
625.572	2363.19
625.773	2127.67
625.973	2641.71
626.174	2529.07
626.375	2490.16
626.576	2279.22
626.777	2598.7
626.977	3131.17
627.178	2275.12
627.379	2406.19
627.58	2496.3
627.78	2324.27
627.981	2346.8
628.182	2379.57
628.382	2744.11
628.583	2248.5
628.784	2230.07
628.984	2547.5
629.185	2754.35
629.386	2637.61
629.586	2391.86
629.787	2197.3
629.987	2715.44
630.188	2651.95
630.388	2438.96
630.589	2301.75
630.79	3137.32
630.99	2537.26
631.191	2424.62
631.391	2465.58
631.591	2731.82
631.792	2842.41
631.992	2438.96
632.193	2406.19
632.393	2985.77
632.594	2537.26
632.794	2389.81
632.994	2389.81
633.195	2565.93
633.395	2617.13
633.595	2383.66
633.796	2688.81
633.996	2438.96
634.196	2903.85
634.397	2264.88
634.597	2613.04
634.797	2371.38
634.997	2969.38
635.198	2686.76
635.398	2281.27
635.598	2823.98
635.798	3071.78
635.998	2817.83
636.199	2475.82
636.399	2578.22
636.599	2479.92
636.799	2484.02
636.999	2791.21
637.199	2828.07
637.399	2844.46
637.599	2365.23
637.799	2594.61
637.999	2570.03
638.199	3039.01
638.399	2416.43
638.599	2490.16
638.799	2887.47
638.999	3231.52
639.199	2592.56
639.399	2602.8
639.599	3165.99
639.799	2461.49
639.999	2494.26
640.199	2492.21
640.399	2846.51
640.599	2817.83
640.799	2555.69
640.998	2629.42
641.198	2985.77
641.398	2778.92
641.598	2674.48
641.798	2543.41
641.997	3720.99
642.197	2742.06
642.397	2631.47
642.597	2441.01
642.796	2903.85
642.996	3139.37
643.196	2596.65
643.395	2393.9
643.595	2795.31
643.795	2434.86
643.994	2559.79
644.194	2647.85
644.394	3104.55
644.593	2873.13
644.793	2371.38
644.992	2885.42
645.192	2842.41
645.392	2371.38
645.591	2727.72
645.791	2649.9
645.99	2860.84
646.19	2733.87
646.389	2778.92
646.589	2645.8
646.788	2883.37
646.987	2918.18
647.187	2733.87
647.386	2809.64
647.586	2809.64
647.785	2977.58
647.984	2709.29
648.184	2744.11
648.383	2803.5
648.582	2809.64
648.782	2711.34
648.981	2754.35
649.18	2731.82
649.38	3057.45
649.579	2664.24
649.778	2647.85
649.977	2881.32
650.177	2983.72
650.376	2647.85
650.575	2776.87
650.774	3325.73
650.973	2797.35
651.173	2565.93
651.372	2744.11
651.571	3034.92
651.77	2993.96
651.969	2842.41
652.168	2836.27
652.367	2692.91
652.566	3069.73
652.765	2592.56
652.964	2950.95
653.163	3444.51
653.362	2830.12
653.561	2752.3
653.76	2639.66
653.959	2770.73
654.158	3075.88
654.357	2973.48
654.556	2658.09
654.755	3049.25
654.954	3202.85
655.153	2778.92
655.352	2844.46
655.551	3409.7
655.749	2897.71
655.948	2889.51
656.147	2885.42
656.346	3104.55
656.545	2938.66
656.743	2901.8
656.942	2842.41
657.141	3168.04
657.34	2780.97
657.538	2819.88
657.737	2834.22
657.936	2850.6
658.135	3270.44
658.333	2828.07
658.532	2907.94
658.731	3252
658.929	3342.11
659.128	2977.58
659.326	2737.96
659.525	3264.29
659.724	2977.58
659.922	2559.79
660.121	2707.24
660.319	3133.22
660.518	2871.08
660.716	2690.86
660.915	2895.66
661.113	3444.51
661.312	2844.46
661.51	2985.77
661.709	2946.86
661.907	3329.83
662.105	3499.81
662.304	2899.75
662.502	3014.44
662.701	3516.19
662.899	2897.71
663.097	3153.7
663.296	2854.7
663.494	3389.22
663.692	3534.62
663.891	2930.47
664.089	2819.88
664.287	3323.68
664.485	3444.51
664.684	2971.43
664.882	3122.98
665.08	3258.15
665.278	3186.47
665.476	2774.83
665.675	3221.28
665.873	3651.36
666.071	3409.7
666.269	2934.57
666.467	3071.78
666.665	3256.1
666.863	3096.36
667.061	3141.41
667.259	2979.62
667.457	3268.39
667.655	3350.31
667.853	2887.47
668.051	3026.73
668.249	2883.37
668.447	3278.63
668.645	2752.3
668.843	3256.1
669.041	3295.01
669.239	3116.84
669.437	3018.54
669.635	3209
669.833	3247.91
670.031	3393.31
670.229	3049.25
670.426	3182.37
670.624	3069.73
670.822	3061.54
671.02	3028.78
671.218	3010.34
671.415	3067.69
671.613	3266.34
671.811	3174.18
672.009	2930.47
672.206	3493.66
672.404	3219.24
672.602	3202.85
672.799	3120.93
672.997	3280.68
673.195	3493.66
673.392	3192.61
673.59	2854.7
673.788	3364.64
673.985	2785.07
674.183	3137.32
674.38	3106.6
674.578	3319.59
674.775	3077.93
674.973	2821.93
675.17	2934.57
675.368	3622.69
675.565	3315.49
675.763	2963.24
675.96	2938.66
676.158	3514.14
676.355	3120.93
676.553	3075.88
676.75	3012.39
676.947	3137.32
677.145	3213.09
677.342	3039.01
677.539	3213.09
677.737	3286.82
677.934	3710.75
678.131	3282.72
678.329	2940.71
678.526	3440.42
678.723	3493.66
678.92	3030.82
679.118	3055.4
679.315	2973.48
679.512	3493.66
679.709	2981.67
679.906	3120.93
680.104	3460.9
680.301	3407.65
680.498	3086.12
680.695	2838.31
680.892	3098.41
681.089	3047.21
681.286	3223.33
681.483	2752.3
681.68	3393.31
681.877	3305.25
682.075	3067.69
682.272	3329.83
682.469	3235.62
682.665	3229.48
682.862	2928.42
683.059	2961.19
683.256	3360.55
683.453	3190.56
683.65	3188.52
683.847	2993.96
684.044	3196.71
684.241	3069.73
684.438	3282.72
684.635	2983.72
684.831	3714.84
685.028	3630.88
685.225	3102.5
685.422	3129.13
685.619	3237.67
685.815	3301.15
686.012	3000.1
686.209	3133.22
686.405	3104.55
686.602	3307.3
686.799	2942.76
686.996	3065.64
687.192	2998.06
687.389	3776.28
687.586	3067.69
687.782	3067.69
687.979	3559.2
688.175	3587.87
688.372	3213.09
688.568	2996.01
688.765	3108.65
688.962	3581.73
689.158	3192.61
689.355	2912.04
689.551	3483.42
689.748	3067.69
689.944	3168.04
690.14	2893.61
690.337	3360.55
690.533	3133.22
690.73	3262.24
690.926	3141.41
691.123	3440.42
691.319	3305.25
691.515	2809.64
691.712	3202.85
691.908	3473.18
692.104	3235.62
692.301	3180.32
692.497	2955.05
692.693	3356.45
692.889	3464.99
693.086	3137.32
693.282	2866.99
693.478	3323.68
693.674	3583.77
693.87	3096.36
694.067	2944.81
694.263	3299.11
694.459	2926.38
694.655	3096.36
694.851	3239.72
695.047	3360.55
695.243	3551.01
695.439	3104.55
695.635	2879.27
695.831	3634.97
696.027	3182.37
696.224	3090.21
696.42	3278.63
696.615	3641.12
696.811	3288.87
697.007	2854.7
697.203	3200.8
697.399	3407.65
697.595	3575.58
697.791	3006.25
697.987	3206.95
698.183	2940.71
698.379	3079.97
698.575	3082.02
698.77	3219.24
698.966	3458.85
699.162	3577.63
699.358	3176.23
699.554	3030.82
699.749	3391.27
699.945	3430.18
700.141	3233.57
700.337	3260.2
700.532	3292.96
700.728	3245.86
700.924	3022.63
701.119	2932.52
701.315	3325.73
701.511	3278.63
701.706	3120.93
701.902	2856.75
702.097	3288.87
702.293	3372.83
702.489	3256.1
702.684	3168.04
702.88	3372.83
703.075	3241.76
703.271	3082.02
703.466	2953
703.662	3391.27
703.857	3493.66
704.053	3122.98
704.248	3112.74
704.443	3565.34
704.639	3374.88
704.834	3098.41
705.03	3022.63
705.225	3485.47
705.42	3473.18
705.616	3239.72
705.811	3010.34
706.006	3200.8
706.202	3333.92
706.397	3092.26
706.592	2934.57
706.787	3354.4
706.983	3258.15
707.178	3340.07
707.373	3084.07
707.568	3368.74
707.763	3524.38
707.959	3094.31
708.154	2850.6
708.349	3374.88
708.544	3354.4
708.739	3419.94
708.934	3116.84
709.129	3464.99
709.324	3530.53
709.519	3143.46
709.714	3100.45
709.909	3559.2
710.104	3456.8
710.299	2991.91
710.494	3079.97
710.689	3489.57
710.884	3223.33
711.079	3227.43
711.274	3282.72
711.469	3512.1
711.664	3381.03
711.859	3073.83
712.054	3237.67
712.249	3432.22
712.443	3567.39
712.638	2948.9
712.833	3010.34
713.028	3157.8
713.223	3333.92
713.417	3393.31
713.612	3043.11
713.807	3432.22
714.002	3753.76
714.196	3268.39
714.391	3065.64
714.586	3471.14
714.78	3333.92
714.975	3118.89
715.17	3059.49
715.364	3268.39
715.559	3399.46
715.754	2889.51
715.948	2842.41
716.143	3698.46
716.337	3528.48
716.532	3409.7
716.726	2959.14
716.921	3360.55
717.115	3761.95
717.31	3032.87
717.504	3647.26
717.699	3213.09
717.893	3452.7
718.088	3039.01
718.282	2946.86
718.476	3444.51
718.671	3409.7
718.865	3075.88
719.059	3047.21
719.254	3354.4
719.448	3614.49
719.642	4263.7
719.837	2963.24
720.031	3493.66
720.225	3567.39
720.419	3147.56
720.614	3116.84
720.808	3485.47
721.002	3366.69
721.196	3102.5
721.39	3057.45
721.585	3700.51
721.779	3335.97
721.973	3127.08
722.167	2932.52
722.361	3403.55
722.555	3391.27
722.749	2985.77
722.943	3043.11
723.137	3028.78
723.331	3383.07
723.525	3198.76
723.719	3122.98
723.913	3421.99
724.107	3559.2
724.301	2918.18
724.495	3196.71
724.689	3579.68
724.883	3462.94
725.077	2987.82
725.271	3190.56
725.465	3544.86
725.659	3262.24
725.853	3065.64
726.046	2883.37
726.24	3100.45
726.434	3372.83
726.628	3082.02
726.822	3215.14
727.015	3485.47
727.209	3620.64
727.403	3198.76
727.596	2885.42
727.79	3520.29
727.984	3284.77
728.177	3131.17
728.371	3184.42
728.565	3581.73
728.758	3092.26
728.952	3022.63
729.146	3161.89
729.339	3510.05
729.533	3256.1
729.726	3149.61
729.92	2971.43
730.113	3682.08
730.307	3497.76
730.5	3018.54
730.694	3077.93
730.887	3219.24
731.081	3510.05
731.274	3018.54
731.468	3106.6
731.661	3174.18
731.854	3399.46
732.048	3157.8
732.241	3016.49
732.435	3254.05
732.628	3428.13
732.821	3188.52
733.014	3000.1
733.208	3067.69
733.401	3426.08
733.594	3084.07
733.788	3086.12
733.981	3632.93
734.174	3362.59
734.367	3174.18
734.56	3211.04
734.754	3563.29
734.947	3264.29
735.14	3045.16
735.333	3088.17
735.526	3448.61
735.719	3114.79
735.912	3051.3
736.105	3272.48
736.298	3268.39
736.491	3188.52
736.684	3077.93
736.877	3147.56
737.07	3399.46
737.263	3518.24
737.456	3163.94
737.649	3022.63
737.842	3213.09
738.035	3288.87
738.228	3272.48
738.421	3297.06
738.614	3479.33
738.807	3395.36
739	2914.09
739.192	2926.38
739.385	3428.13
739.578	3522.34
739.771	3391.27
739.964	2944.81
740.156	3383.07
740.349	3270.44
740.542	3178.28
740.735	2856.75
740.927	2940.71
741.12	3129.13
741.313	3002.15
741.505	3229.48
741.698	3469.09
741.891	3458.85
742.083	3219.24
742.276	3168.04
742.468	3440.42
742.661	3282.72
742.854	3075.88
743.046	3272.48
743.239	3766.04
743.431	3362.59
743.624	3127.08
743.816	3020.58
744.009	3135.27
744.201	3352.35
744.393	3301.15
744.586	3059.49
744.778	3456.8
744.971	3448.61
745.163	3063.59
745.355	3190.56
745.548	3282.72
745.74	3190.56
745.932	3202.85
746.125	3063.59
746.317	3821.34
746.509	3415.84
746.702	3165.99
746.894	3235.62
747.086	3555.1
747.278	3551.01
747.471	3364.64
747.663	3184.42
747.855	3299.11
748.047	3745.56
748.239	3221.28
748.431	3096.36
748.623	3809.05
748.815	3800.86
749.008	3120.93
749.2	3100.45
749.392	3510.05
749.584	3372.83
749.776	3231.52
749.968	3260.2
750.16	3895.07
750.352	3215.14
750.544	3116.84
750.736	2889.51
750.928	3346.21
751.12	3405.6
751.311	3118.89
751.503	3206.95
751.695	3446.56
751.887	3270.44
752.079	2826.03
752.271	3094.31
752.463	4099.86
752.654	3649.31
752.846	3198.76
753.038	3198.76
753.23	3174.18
753.421	3395.36
753.613	3131.17
753.805	3237.67
753.997	3555.1
754.188	3487.52
754.38	3071.78
754.572	3102.5
754.763	3284.77
754.955	3452.7
755.146	2993.96
755.338	3129.13
755.53	3415.84
755.721	3249.96
755.913	2955.05
756.104	2993.96
756.296	3231.52
756.487	3297.06
756.679	3002.15
756.87	3102.5
757.062	3159.85
757.253	3342.11
757.445	3000.1
757.636	3168.04
757.827	3268.39
758.019	3870.49
758.21	3071.78
758.401	3026.73
758.593	3690.27
758.784	3518.24
758.975	2836.27
759.167	2864.94
759.358	3249.96
759.549	3573.53
759.74	2963.24
759.932	3045.16
760.123	3620.64
760.314	3030.82
760.505	3149.61
760.696	3043.11
760.888	3731.23
761.079	3202.85
761.27	2852.65
761.461	2805.55
761.652	3594.01
761.843	3129.13
762.034	2969.38
762.225	3325.73
762.416	3299.11
762.607	3284.77
762.798	3043.11
762.989	3057.45
763.18	3940.12
763.371	3079.97
763.562	3055.4
763.753	2938.66
763.944	3407.65
764.135	3370.79
764.326	3182.37
764.517	2909.99
764.708	3245.86
764.899	3292.96
765.089	2834.22
765.28	2944.81
765.471	3217.19
765.662	3321.63
765.853	2979.62
766.043	2883.37
766.234	3485.47
766.425	3454.75
766.615	2955.05
766.806	2891.56
766.997	3526.43
767.187	3229.48
767.378	2809.64
767.569	2727.72
767.759	3239.72
767.95	3356.45
768.141	3159.85
768.331	2918.18
768.522	3051.3
768.712	3338.02
768.903	2912.04
769.093	2879.27
769.284	3616.54
769.474	3182.37
769.665	2846.51
769.855	2778.92
770.046	3268.39
770.236	2948.9
770.426	3125.03
770.617	2852.65
770.807	3227.43
770.998	2979.62
771.188	3053.35
771.378	2909.99
771.569	3288.87
771.759	3237.67
771.949	2817.83
772.139	2660.14
772.33	3104.55
772.52	3561.25
772.71	2817.83
772.9	2844.46
773.09	3583.77
773.281	3428.13
773.471	2772.78
773.661	2901.8
773.851	3272.48
774.041	3022.63
774.231	2813.74
774.421	3065.64
774.611	3381.03
774.802	3147.56
774.992	2893.61
775.182	2866.99
775.372	3249.96
775.562	3288.87
775.752	2830.12
775.942	2916.14
776.131	3374.88
776.321	3198.76
776.511	2881.32
776.701	2729.77
776.891	3372.83
777.081	2748.2
777.271	2973.48
777.461	2907.94
777.651	3143.46
777.84	3284.77
778.03	2938.66
778.22	2828.07
778.41	3462.94
778.599	2887.47
778.789	2842.41
778.979	2668.33
779.169	3254.05
779.358	3057.45
779.548	3149.61
779.738	2678.57
779.927	3122.98
780.117	2760.49
780.307	2916.14
780.496	2617.13
780.686	3043.11
780.875	3350.31
781.065	2852.65
781.254	2723.63
781.444	3006.25
781.633	2955.05
781.823	2662.19
782.012	2854.7
782.202	2848.55
782.391	2809.64
782.581	2805.55
782.77	2811.69
782.96	3221.28
783.149	2883.37
783.338	2746.16
783.528	2617.13
783.717	3190.56
783.906	3278.63
784.096	2725.68
784.285	2610.99
784.474	2891.56
784.663	2787.11
784.853	2746.16
785.042	2690.86
785.231	2852.65
785.42	3110.69
785.61	2828.07
785.799	2555.69
785.988	2918.18
786.177	2854.7
786.366	2756.4
786.555	2895.66
786.744	3241.76
786.933	2860.84
787.122	2727.72
787.312	2613.04
787.501	2799.4
787.69	2926.38
787.879	2926.38
788.068	2649.9
788.257	2703.15
788.445	2715.44
788.634	2826.03
788.823	2520.88
789.012	3706.65
789.201	3125.03
789.39	2666.28
789.579	2649.9
789.768	2799.4
789.957	2950.95
790.145	2742.06
790.334	2424.62
790.523	2932.52
790.712	2957.1
790.9	2813.74
791.089	2615.09
791.278	3209
791.467	2957.1
791.655	2780.97
791.844	3163.94
792.033	2617.13
792.221	2963.24
792.41	2768.68
792.599	2570.03
792.787	2864.94
792.976	2993.96
793.164	2619.18
793.353	2627.37
793.541	3024.68
793.73	2924.33
793.918	2699.05
794.107	2672.43
794.295	2727.72
794.484	2821.93
794.672	2662.19
794.861	2502.45
795.049	3082.02
795.238	3202.85
795.426	2455.34
795.614	2557.74
795.803	3073.83
795.991	3209
796.179	2678.57
796.368	2500.4
796.556	3079.97
796.744	2641.71
796.932	2559.79
797.121	2588.46
797.309	2826.03
797.497	3112.74
797.685	2803.5
797.874	2740.01
798.062	2733.87
798.25	3206.95
798.438	2490.16
798.626	2658.09
798.814	3022.63
799.002	3338.02
799.19	2877.23
799.378	2578.22
799.566	3120.93
799.755	3231.52
799.943	2703.15
800.131	2686.76
800.318	2924.33
800.506	2965.29
800.694	2578.22
800.882	2776.87
801.07	3100.45
801.258	2783.02
801.446	2697
801.634	2578.22
801.822	2862.89
802.01	2791.21
802.197	2627.37
802.385	2770.73
802.573	2858.79
802.761	2600.75
802.949	2664.24
803.136	2604.85
803.324	3118.89
803.512	2922.28
803.699	2729.77
803.887	2549.55
804.075	3190.56
804.262	2719.53
804.45	2410.29
804.638	2686.76
804.825	2713.39
805.013	2676.52
805.201	2768.68
805.388	2496.3
805.576	2903.85
805.763	3329.83
805.951	2604.85
806.138	2735.92
806.326	3307.3
806.513	3006.25
806.701	2801.45
806.888	2787.11
807.075	3014.44
807.263	3354.4
807.45	2584.37
807.638	2895.66
807.825	3327.78
808.012	3190.56
808.2	2752.3
808.387	2963.24
808.574	2940.71
808.761	3354.4
808.949	2709.29
809.136	2869.03
809.323	2805.55
809.51	2787.11
809.698	2877.23
809.885	2901.8
810.072	2993.96
810.259	3137.32
810.446	2764.59
810.633	2740.01
810.82	3256.1
811.008	3264.29
811.195	2817.83
811.382	2717.48
811.569	2975.53
811.756	2717.48
811.943	2909.99
812.13	2944.81
812.317	2985.77
812.504	2903.85
812.691	2787.11
812.878	2830.12
813.064	3362.59
813.251	3004.2
813.438	2699.05
813.625	2969.38
813.812	2936.62
813.999	3004.2
814.186	2703.15
814.372	2854.7
814.559	2963.24
814.746	3340.07
814.933	2850.6
815.12	3063.59
815.306	2924.33
815.493	2774.83
815.68	2916.14
815.866	2879.27
816.053	3284.77
816.24	3514.14
816.426	2973.48
816.613	2780.97
816.799	3045.16
816.986	3108.65
817.173	2856.75
817.359	2793.26
817.546	3004.2
817.732	2729.77
817.919	2582.32
818.105	2862.89
818.292	2742.06
818.478	3198.76
818.665	2842.41
818.851	2725.68
819.037	3297.06
819.224	2973.48
819.41	2699.05
819.597	2709.29
819.783	3428.13
819.969	3047.21
820.156	2830.12
820.342	2649.9
820.528	3632.93
820.714	2983.72
820.901	3196.71
821.087	2850.6
821.273	3475.23
821.459	2852.65
821.646	2795.31
821.832	2662.19
822.018	3036.97
822.204	2930.47
822.39	2826.03
822.576	2651.95
822.762	3026.73
822.948	2942.76
823.134	2860.84
823.32	2789.16
823.507	2565.93
823.693	2934.57
823.879	3059.49
824.065	2635.57
824.25	2991.91
824.436	2668.33
824.622	2721.58
824.808	2590.51
824.994	2885.42
825.18	2905.9
825.366	2500.4
825.552	2733.87
825.738	2961.19
825.923	3153.7
826.109	3041.06
826.295	2676.52
826.481	2649.9
826.667	2811.69
826.852	2836.27
827.038	2651.95
827.224	3180.32
827.409	3456.8
827.595	2578.22
827.781	2815.79
827.966	3145.51
828.152	3182.37
828.338	2754.35
828.523	2688.81
828.709	2754.35
828.894	3112.74
829.08	2737.96
829.266	2690.86
829.451	2654
829.637	3026.73
829.822	2729.77
830.008	2651.95
830.193	3014.44
830.378	3141.41
830.564	2735.92
830.749	2576.17
830.935	2981.67
831.12	3045.16
831.305	2514.73
831.491	2768.68
831.676	2543.41
831.861	2922.28
832.047	2694.96
832.232	2408.24
832.417	3155.75
832.602	2768.68
832.788	2565.93
832.973	2475.82
833.158	2805.55
833.343	2768.68
833.528	2719.53
833.714	2635.57
833.899	3036.97
834.084	3268.39
834.269	2752.3
834.454	2606.89
834.639	3082.02
834.824	2807.59
835.009	2735.92
835.194	2787.11
835.379	2989.86
835.564	2918.18
835.749	2637.61
835.934	2414.38
836.119	2946.86
836.304	2828.07
836.489	2654
836.674	2764.59
836.859	2633.52
837.044	3026.73
837.228	2762.54
837.413	2434.86
837.598	2889.51
837.783	2971.43
837.968	2701.1
838.152	2340.66
838.337	2416.43
838.522	3084.07
838.707	3082.02
838.891	2719.53
839.076	2924.33
839.261	3120.93
839.445	2572.08
839.63	2735.92
839.815	3034.92
839.999	2656.04
840.184	2457.39
840.368	2531.12
840.553	3059.49
840.737	2936.62
840.922	2531.12
841.106	2469.68
841.291	2451.25
841.475	2834.22
841.66	2602.8
841.844	2492.21
842.029	3598.11
842.213	2486.06
842.397	2553.65
842.582	2492.21
842.766	3090.21
842.951	2928.42
843.135	2420.53
843.319	2543.41
843.504	2729.77
843.688	2955.05
843.872	2283.31
844.056	2572.08
844.241	2838.31
844.425	2707.24
844.609	2727.72
844.793	2336.56
844.977	2930.47
845.161	2881.32
845.346	2332.47
845.53	2469.68
845.714	2717.48
845.898	3153.7
846.082	2395.95
846.266	2522.93
846.45	2797.35
846.634	2709.29
846.818	2555.69
847.002	2660.14
847.186	2899.75
847.37	2281.27
847.554	2250.55
847.738	2477.87
847.922	2780.97
848.106	2821.93
848.29	2205.49
848.473	2543.41
848.657	2740.01
848.841	2567.98
849.025	2494.26
849.209	2242.36
849.392	2914.09
849.576	2699.05
849.76	2266.93
849.944	2576.17
850.127	2985.77
850.311	2461.49
850.495	2125.62
850.678	2236.21
850.862	2948.9
851.046	2940.71
851.229	2660.14
851.413	2354.99
851.596	2506.54
851.78	2787.11
851.964	2506.54
852.147	2447.15
852.331	3331.87
852.514	2938.66
852.698	2498.35
852.881	2232.12
853.065	2821.93
853.248	2610.99
853.431	2477.87
853.615	2318.13
853.798	3198.76
853.982	2703.15
854.165	2547.5
854.348	2449.2
854.532	2588.46
854.715	2510.64
854.898	2332.47
855.081	2357.04
855.265	2899.75
855.448	3020.58
855.631	2334.51
855.814	2332.47
855.997	2805.55
856.181	2584.37
856.364	2375.47
856.547	2238.26
856.73	2574.13
856.913	2639.66
857.096	2166.58
857.279	2395.95
857.462	2402.1
857.645	2795.31
857.828	2578.22
858.011	2365.23
858.194	2342.71
858.377	2715.44
858.56	2311.99
858.743	2387.76
858.926	2367.28
859.109	2629.42
859.292	2383.66
859.475	2191.16
859.658	2836.27
859.841	2662.19
860.023	2160.44
860.206	2078.52
860.389	2443.06
860.572	2772.78
860.755	2238.26
860.937	2262.83
861.12	2492.21
861.303	2422.58
861.486	2285.36
861.668	2266.93
861.851	2537.26
862.034	2686.76
862.216	2225.97
862.399	2123.57
862.581	2481.97
862.764	2805.55
862.947	2260.79
863.129	2193.2
863.312	2203.44
863.494	2862.89
863.677	2547.5
863.859	2058.04
864.042	2619.18
864.224	2752.3
864.406	2266.93
864.589	2109.24
864.771	2584.37
864.954	2172.72
865.136	2125.62
865.318	2043.7
865.501	2631.47
865.683	2103.09
865.865	2193.2
866.048	2178.87
866.23	2451.25
866.412	2363.19
866.594	2072.37
866.777	2314.03
866.959	2623.28
867.141	2148.15
867.323	2461.49
867.505	2301.75
867.687	2305.84
867.869	2379.57
868.052	2230.07
868.234	2088.76
868.416	2320.18
868.598	2490.16
868.78	2090.81
868.962	2178.87
869.144	2717.48
869.326	2641.71
869.508	2101.05
869.69	2125.62
869.872	2279.22
870.054	2537.26
870.236	2041.65
870.417	2082.61
870.599	2330.42
870.781	2776.87
870.963	2166.58
871.145	2096.95
871.327	2160.44
871.508	2529.07
871.69	2072.37
871.872	2185.01
872.054	2404.14
872.235	2496.3
872.417	2105.14
872.599	1998.65
872.78	2717.48
872.962	2416.43
873.144	1986.36
873.325	2131.76
873.507	2744.11
873.689	2373.43
873.87	2021.17
874.052	2244.4
874.233	2363.19
874.415	2625.33
874.596	2146.1
874.778	1947.45
874.959	2488.11
875.141	2654
875.322	2139.96
875.503	2025.27
875.685	2430.77
875.866	2078.52
876.048	2152.24
876.229	2070.33
876.41	2389.81
876.592	2332.47
876.773	2125.62
876.954	1949.5
877.136	2697
877.317	2385.71
877.498	2019.13
877.679	2168.63
877.86	2428.72
878.042	2414.38
878.223	2076.47
878.404	2330.42
878.585	2422.58
878.766	2686.76
878.947	2420.53
879.128	2371.38
879.309	2510.64
879.49	2733.87
879.672	2250.55
879.853	2154.29
880.034	2262.83
880.215	2311.99
880.396	2189.11
880.576	2074.42
880.757	2264.88
880.938	2737.96
881.119	2137.91
881.3	2139.96
881.481	2299.7
881.662	3258.15
881.843	2117.43
882.023	2066.23
882.204	2492.21
882.385	2461.49
882.566	2111.29
882.747	2086.71
882.927	2342.71
883.108	2617.13
883.289	2178.87
883.469	2430.77
883.65	2295.6
883.831	2563.89
884.011	2307.89
884.192	2291.51
884.373	2516.78
884.553	2688.81
884.734	2565.93
884.914	2522.93
885.095	3157.8
885.275	2844.46
885.456	2633.52
885.636	2223.92
885.817	2428.72
885.997	2475.82
886.178	2322.23
886.358	2363.19
886.538	2518.83
886.719	3317.54
886.899	2326.32
887.08	2467.63
887.26	2690.86
887.44	2293.55
887.621	2201.4
887.801	2369.33
887.981	3106.6
888.161	2559.79
888.342	2359.09
888.522	2314.03
888.702	2725.68
888.882	2946.86
889.062	2422.58
889.242	2336.56
889.423	2936.62
889.603	2682.67
889.783	2449.2
889.963	2375.47
890.143	2813.74
890.323	2891.56
890.503	2334.51
890.683	2543.41
890.863	2690.86
891.043	2635.57
891.223	2522.93
891.403	2594.61
891.583	2602.8
891.763	2764.59
891.943	2400.05
892.122	2426.67
892.302	2645.8
892.482	2549.55
892.662	2432.82
892.842	2293.55
893.022	2641.71
893.201	2426.67
893.381	2406.19
893.561	2406.19
893.741	2639.66
893.92	2840.36
894.1	2369.33
894.28	2535.21
894.459	2697
894.639	2682.67
894.819	2412.34
894.998	2498.35
895.178	2750.25
895.357	2864.94
895.537	2316.08
895.716	2357.04
895.896	2582.32
896.075	2930.47
896.255	2404.14
896.434	2156.34
896.614	2846.51
896.793	3036.97
896.973	2481.97
897.152	2443.06
897.331	2793.26
897.511	2828.07
897.69	2254.64
897.87	2484.02
898.049	2801.45
898.228	2574.13
898.407	2600.75
898.587	2561.84
898.766	2484.02
898.945	2551.6
899.124	2518.83
899.304	2398
899.483	2748.2
899.662	2975.53
899.841	2520.88
900.02	2473.78
900.199	2871.08
900.378	2656.04
900.557	2299.7
900.737	2324.27
900.916	2752.3
901.095	2770.73
901.274	2531.12
901.453	2283.31
901.632	2430.77
901.811	2322.23
901.989	2404.14
902.168	2139.96
902.347	2707.24
902.526	2449.2
902.705	2268.98
902.884	2373.43
903.063	2768.68
903.242	2973.48
903.42	2395.95
903.599	2443.06
903.778	2807.59
903.957	2953
904.135	2533.17
904.314	2377.52
904.493	2725.68
904.672	2694.96
904.85	2387.76
905.029	2301.75
905.207	2662.19
905.386	3350.31
905.565	2187.06
905.743	2361.14
905.922	2473.78
906.1	2715.44
906.279	2121.52
906.457	2189.11
906.636	2498.35
906.814	2338.61
906.993	2250.55
907.171	2119.48
907.35	2703.15
907.528	2744.11
907.707	2316.08
907.885	2080.57
908.063	2778.92
908.242	2213.68
908.42	2273.07
908.598	1988.41
908.777	2600.75
908.955	2412.34
909.133	2346.8
909.311	2234.16
909.49	2406.19
909.668	2422.58
909.846	2303.79
910.024	2051.89
910.202	2484.02
910.38	2580.27
910.559	2025.27
910.737	2041.65
910.915	2461.49
911.093	2477.87
911.271	2320.18
911.449	2422.58
911.627	2418.48
911.805	2981.67
911.983	2129.72
912.161	2139.96
912.339	2522.93
912.517	2615.09
912.695	2207.54
912.872	2158.39
913.05	2154.29
913.228	2350.9
913.406	2133.81
913.584	2117.43
913.762	2574.13
913.939	2242.36
914.117	2062.13
914.295	2060.09
914.473	2514.73
914.65	2553.65
914.828	2123.57
915.006	2092.85
915.184	2121.52
915.361	2381.62
915.539	2293.55
915.716	2236.21
915.894	2291.51
916.072	2422.58
916.249	2309.94
916.427	2260.79
916.604	2084.66
916.782	2461.49
916.959	1830.71
917.137	2125.62
917.314	2363.19
917.492	2328.37
917.669	2088.76
917.847	2133.81
918.024	2260.79
918.201	2105.14
918.379	2107.19
918.556	2023.22
918.733	2400.05
918.911	2123.57
919.088	2203.44
919.265	1988.41
919.442	2316.08
919.62	2051.89
919.797	1797.95
919.974	1830.71
920.151	2252.59
920.328	2197.3
920.506	2002.74
920.683	2148.15
920.86	1867.58
921.037	2045.75
921.214	1994.55
921.391	1935.16
921.568	2350.9
921.745	1826.62
921.922	1943.35
922.099	1767.23
922.276	2342.71
922.453	2228.02
922.63	1843
922.807	2232.12
922.984	2127.67
923.161	1965.88
923.338	1771.32
923.514	1865.53
923.691	2066.23
923.868	2035.51
924.045	1781.56
924.222	1752.89
924.399	2137.91
924.575	2326.32
924.752	1984.31
924.929	1918.78
925.105	2223.92
925.282	1763.13
925.459	1765.18
925.635	1851.19
925.812	1972.02
925.989	1945.4
926.165	1904.44
926.342	1646.4
926.518	1779.51
926.695	1941.3
926.871	1601.34
927.048	1539.9
927.224	2068.28
927.401	1859.38
927.577	1808.19
927.754	1525.57
927.93	2195.25
928.107	2107.19
928.283	1748.79
928.459	1793.85
928.636	1941.3
928.812	1892.15
928.988	1560.38
929.165	1513.28
929.341	1859.38
929.517	1869.62
929.693	1947.45
929.87	1507.13
930.046	1959.74
930.222	1791.8
930.398	1650.49
930.574	1738.55
930.751	1906.49
930.927	1675.07
931.103	1601.34
931.279	1713.98
931.455	1558.33
931.631	1759.03
931.807	1363.78
931.983	1447.74
932.159	1445.7
932.335	1840.95
932.511	1595.2
932.687	1474.37
932.863	1689.4
933.039	1533.76
933.215	1392.45
933.391	1365.82
933.566	1570.62
933.742	1734.46
933.918	1400.64
934.094	1302.34
934.27	1574.72
934.445	1597.24
934.621	1500.99
934.797	1390.4
934.973	1793.85
935.148	1619.77
935.324	1230.66
935.5	1156.93
935.675	1851.19
935.851	1709.88
936.027	1273.67
936.202	1382.21
936.378	1457.98
936.553	1439.55
936.729	1656.64
936.904	1253.19
937.08	1152.84
937.255	1226.56
937.431	1089.35
937.606	933.7
937.782	1156.93
937.957	1378.11
938.133	1236.8
938.308	1044.29
938.483	1236.8
938.659	980.81
938.834	1050.44
939.009	954.18
939.185	1115.97
939.36	982.85
939.535	675.66
939.71	1154.88
939.886	1337.15
940.061	1189.7
940.236	1077.06
940.411	945.99
940.586	1195.84
940.761	1328.96
940.937	939.85
941.112	704.33
941.287	1048.39
941.462	1126.21
941.637	730.95
941.812	843.59
941.987	1163.08
942.162	1011.53
942.337	937.8
942.512	872.26
942.687	1230.66
942.862	1161.03
943.037	681.8
943.212	511.82
943.386	866.12
943.561	1077.06
943.736	859.98
943.911	1048.39
944.086	1081.16
944.26	978.76
944.435	812.87
944.61	753.48
944.785	1244.99
944.959	1331.01
945.134	812.87
945.309	616.27
945.483	829.26
945.658	1220.42
945.833	458.57
946.007	622.41
946.182	1228.61
946.357	689.99
946.531	577.36
946.706	673.61
946.88	501.58
947.055	991.05
947.229	681.8
947.404	610.12
947.578	1183.56
947.752	778.06
947.927	669.52
948.101	495.44
948.276	864.07
948.45	921.42
948.624	847.69
948.799	669.52
948.973	1032.01
949.147	644.94
949.321	653.13
949.496	644.94
949.67	1075.01
949.844	874.31
950.018	745.29
950.193	708.43
950.367	1412.93
950.541	773.96
950.715	831.3
950.889	882.5
951.063	720.71
951.237	1005.38
951.411	413.52
951.585	565.07
951.759	1013.57
951.933	841.54
952.107	624.46
952.281	814.92
952.455	1218.37
952.629	1054.53
952.803	620.36
952.977	663.37
953.151	1107.78
953.325	999.24
953.499	896.84
953.672	628.56
953.846	687.95
954.02	708.43
954.194	581.45
954.368	667.47
954.541	986.95
954.715	737.1
954.889	702.28
955.062	591.69
955.236	833.35
955.41	898.89
955.583	800.59
955.757	509.77
955.93	810.82
956.104	624.46
956.278	530.25
956.451	700.23
956.625	1003.33
956.798	1322.82
956.972	847.69
957.145	583.5
957.319	796.49
957.492	819.02
957.665	880.46
957.839	550.73
958.012	972.61
958.185	622.41
958.359	618.32
958.532	823.11
958.705	1036.1
958.879	976.71
959.052	864.07
959.225	474.96
959.398	724.81
959.572	937.8
959.745	663.37
959.918	751.43
960.091	814.92
960.264	929.61
960.438	640.84
960.611	509.77
960.784	1109.83
960.957	655.18
961.13	1011.53
961.303	620.36
961.476	898.89
961.649	917.32
961.822	595.79
961.995	716.62
962.168	966.47
962.341	808.78
962.514	628.56
962.686	616.27
962.859	907.08
963.032	941.89
963.205	667.47
963.378	509.77
963.551	853.83
963.723	821.06
963.896	786.25
964.069	739.15
964.242	786.25
964.414	1066.82
964.587	730.95
964.76	726.86
964.932	927.56
965.105	771.91
965.278	618.32
965.45	618.32
965.623	773.96
965.795	931.66
965.968	581.45
966.14	556.88
966.313	692.04
966.485	784.2
966.658	522.06
966.83	597.84
967.003	1122.12
967.175	1050.44
967.348	601.93
967.52	595.79
967.692	1124.16
967.865	900.94
968.037	622.41
968.209	837.45
968.382	790.35
968.554	958.28
968.726	679.75
968.898	569.16
969.071	968.52
969.243	845.64
969.415	651.08
969.587	620.36
969.759	1386.3
969.932	1007.43
970.104	657.23
970.276	438.09
970.448	675.66
970.62	724.81
970.792	757.58
970.964	749.39
971.136	1120.07
971.308	864.07
971.48	497.49
971.652	522.06
971.824	1220.42
971.996	646.99
972.168	659.28
972.339	601.93
972.511	991.05
972.683	782.15
972.855	816.97
973.027	667.47
973.199	872.26
973.37	847.69
973.542	751.43
973.714	655.18
973.886	874.31
974.057	945.99
974.229	434
974.401	501.58
974.572	544.59
974.744	378.7
974.915	532.3
975.087	491.34
975.259	1087.3
975.43	546.64
975.602	509.77
975.773	384.85
975.945	528.21
976.116	941.89
976.288	417.61
976.459	749.39
976.63	720.71
976.802	921.42
976.973	493.39
977.145	710.47
977.316	1101.64
977.487	1079.11
977.659	597.84
977.83	610.12
978.001	1091.4
978.172	773.96
978.344	454.48
978.515	511.82
978.686	528.21
978.857	1046.34
979.028	567.12
979.2	477.01
979.371	943.94
979.542	702.28
979.713	722.76
979.884	169.81
980.055	603.98
980.226	612.17
980.397	524.11
980.568	436.05
980.739	964.42
980.91	675.66
981.081	769.87
981.252	323.41
981.423	933.7
981.594	917.32
981.765	548.68
981.936	622.41
982.106	769.87
982.277	941.89
982.448	526.16
982.619	661.32
982.79	649.04
982.96	945.99
983.131	597.84
983.302	288.59
983.472	659.28
983.643	761.67
983.814	575.31
983.984	503.63
984.155	692.04
984.326	898.89
984.496	558.92
984.667	540.49
984.837	573.26
985.008	999.24
985.178	675.66
985.349	560.97
985.519	567.12
985.69	552.78
985.86	538.45
986.031	458.57
986.201	651.08
986.371	857.93
986.542	362.32
986.712	241.49
986.882	804.68
987.053	716.62
987.223	331.6
987.393	606.03
987.563	497.49
987.734	876.36
987.904	806.73
988.074	378.7
988.244	663.37
988.414	491.34
988.585	347.98
988.755	520.01
988.925	534.35
989.095	1027.91
989.265	438.09
989.435	517.97
989.605	859.98
989.775	667.47
989.945	798.54
990.115	331.6
990.285	612.17
990.455	739.15
990.625	472.91
990.795	290.64
990.965	905.03
991.134	407.38
991.304	251.73
991.474	477.01
991.644	599.88
991.814	991.05
991.984	284.5
992.153	302.93
992.323	573.26
992.493	554.83
992.662	251.73
992.832	606.03
993.002	649.04
993.171	606.03
993.341	231.25
993.511	540.49
993.68	474.96
993.85	786.25
994.019	210.77
994.189	311.12
994.358	610.12
994.528	421.71
994.697	77.65
994.867	216.91
995.036	769.87
995.206	522.06
995.375	339.79
995.544	505.68
995.714	798.54
995.883	444.24
996.052	581.45
996.222	167.76
996.391	1079.11
996.56	577.36
996.73	245.59
996.899	282.45
997.068	816.97
997.237	573.26
997.406	231.25
997.576	159.57
997.745	493.39
997.914	603.98
998.083	116.56
998.252	307.02
998.421	464.72
998.59	384.85
998.759	235.35
998.928	204.63
999.097	849.74
999.266	716.62
999.435	454.48
999.604	192.34
999.773	1017.67
999.942	499.53
1000.111	143.19
1000.28	96.08
1000.448	278.35
1000.617	311.12
1000.786	380.75
1000.955	147.28
1001.124	560.97
1001.292	1193.8
1001.461	233.3
1001.63	333.65
1001.798	796.49
1001.967	651.08
1002.136	61.27
1002.304	237.39
1002.473	597.84
1002.642	511.82
1002.81	319.31
1002.979	143.19
1003.147	667.47
1003.316	1105.73
1003.484	259.92
1003.653	180.05
1003.821	749.39
1003.99	460.62
1004.158	423.76
1004.327	298.83
1004.495	608.08
1004.663	288.59
1004.832	300.88
1005	139.09
1005.168	636.75
1005.337	386.9
1005.505	40.79
1005.673	417.61
1005.842	550.73
1006.01	620.36
1006.178	132.95
1006.346	249.68
1006.514	626.51
1006.683	800.59
1006.851	159.57
1007.019	40.79
1007.187	245.59
1007.355	116.56
1007.523	18.26
1007.691	116.56
1007.859	196.43
1008.027	745.29
1008.195	175.95
1008.363	73.56
1008.531	610.12
1008.699	337.74
1008.867	20.31
1009.035	204.63
1009.203	665.42
1009.37	436.05
1009.538	182.1
1009.706	585.55
1009.874	483.15
1010.042	393.04
1010.209	65.36
1010.377	81.75
1010.545	583.5
1010.713	372.56
1010.88	98.13
1011.048	218.96
1011.216	331.6
1011.383	798.54
1011.551	139.09
1011.718	100.18
1011.886	741.19
1012.054	407.38
1012.221	71.51
1012.389	48.98
1012.556	341.84
1012.724	882.5
1012.891	227.15
1013.058	-39.08
1013.226	589.64
1013.393	591.69
1013.561	-84.14
1013.728	-45.23
1013.895	626.51
1014.063	534.35
1014.23	26.45
1014.397	34.64
1014.565	556.88
1014.732	325.46
1014.899	5.97
1015.066	40.79
1015.233	380.75
1015.401	538.45
1015.568	188.24
1015.735	241.49
1015.902	509.77
1016.069	542.54
1016.236	75.6
1016.403	28.5
1016.57	196.43
1016.737	548.68
1016.904	192.34
1017.071	-28.84
1017.238	235.35
1017.405	620.36
1017.572	141.14
1017.739	321.36
1017.906	466.77
1018.073	601.93
1018.24	-24.75
1018.407	182.1
1018.573	603.98
1018.74	298.83
1018.907	73.56
1019.074	-92.33
1019.241	618.32
1019.407	366.42
1019.574	59.22
1019.741	-4.27
1019.907	388.94
1020.074	474.96
1020.241	-174.25
1020.407	-14.51
1020.574	558.92
1020.74	501.58
1020.907	94.04
1021.073	-24.75
1021.24	806.73
1021.406	696.14
1021.573	128.85
1021.739	40.79
1021.906	595.79
1022.072	423.76
1022.239	26.45
1022.405	-34.99
1022.571	411.47
1022.738	245.59
1022.904	-8.36
1023.07	81.75
1023.237	268.11
1023.403	671.56
1023.569	38.74
1023.735	18.26
1023.902	386.9
1024.068	419.66
1024.234	14.17
1024.4	12.12
1024.566	393.04
1024.732	581.45
1024.898	22.36
1025.065	-53.42
1025.231	524.11
1025.397	235.35
1025.563	53.08
1025.729	-80.04
1025.895	-127.14
1026.061	182.1
1026.227	-106.67
1026.392	55.12
1026.558	679.75
1026.724	374.61
1026.89	-22.7
1027.056	112.47
1027.222	446.29
1027.388	249.68
1027.553	-92.33
1027.719	-22.7
1027.885	696.14
1028.051	481.1
1028.216	-258.21
1028.382	10.07
1028.548	532.3
1028.713	255.83
1028.879	-104.62
1029.045	145.24
1029.21	606.03
1029.376	542.54
1029.541	75.6
1029.707	5.97
1029.873	501.58
1030.038	501.58
1030.204	-8.36
1030.369	5.97
1030.534	489.29
1030.7	180.05
1030.865	-6.31
1031.031	-53.42
1031.196	431.95
1031.361	354.13
1031.527	-10.41
1031.692	-108.71
1031.857	-10.41
1032.023	429.9
1032.188	-125.1
1032.353	94.04
1032.518	696.14
1032.684	356.18
1032.849	-141.48
1033.014	5.97
1033.179	509.77
1033.344	499.53
1033.509	218.96
1033.674	-37.03
1033.839	446.29
1034.004	464.72
1034.17	-26.79
1034.335	-84.14
1034.5	186.19
1034.664	108.37
1034.829	-28.84
1034.994	30.55
1035.159	388.94
1035.324	278.35
1035.489	-86.19
1035.654	-71.85
1035.819	649.04
1035.984	440.14
1036.148	-26.79
1036.313	-24.75
1036.478	495.44
1036.643	239.44
1036.807	-125.1
1036.972	-94.38
1037.137	603.98
1037.301	317.26
1037.466	-207.02
1037.631	55.12
1037.795	677.71
1037.96	384.85
1038.124	143.19
1038.289	-178.34
1038.454	407.38
1038.618	460.62
1038.783	46.93
1038.947	-49.32
1039.111	274.26
1039.276	208.72
1039.44	-28.84
1039.605	341.84
1039.769	261.97
1039.933	296.78
1040.098	69.46
1040.262	214.87
1040.426	548.68
1040.591	438.09
1040.755	-55.47
1040.919	-39.08
1041.083	372.56
1041.248	192.34
1041.412	-104.62
1041.576	-198.82
1041.74	233.3
1041.904	507.73
1042.068	-104.62
1042.232	-22.7
1042.397	513.87
1042.561	407.38
1042.725	-141.48
1042.889	143.19
1043.053	483.15
1043.217	427.85
1043.381	145.24
1043.544	-176.3
1043.708	595.79
1043.872	30.55
1044.036	-241.83
1044.2	-157.86
1044.364	552.78
1044.528	579.4
1044.691	4417.3
1044.855	-188.58
1045.019	442.19
1045.183	421.71
1045.346	85.84
1045.51	-131.24
1045.674	415.57
1045.837	319.31
1046.001	-151.72
1046.165	-77.99
1046.328	890.7
1046.492	421.71
1046.655	112.47
1046.819	51.03
1046.983	135
1047.146	431.95
1047.31	20.31
1047.473	-176.3
1047.636	356.18
1047.8	65.36
1047.963	-51.37
1048.127	-65.71
1048.29	145.24
