Data from Ink_Intensity_USB4F045381__152__00152.txt Node

Date: Mon Jul 17 11:28:50 EDT 2023
User: mmckonesweet
Spectrometer: USB4F04538
Trigger mode: 4
Integration Time (sec): 9.000000E-1
Scans to average: 1
Electric dark correction enabled: true
Nonlinearity correction enabled: false
Boxcar width: 0
XAxis mode: Wavelengths
Number of Pixels in Spectrum: 3648
>>>>>Begin Spectral Data<<<<<
345.52	-1076.89
345.736	-1076.89
345.952	-1076.89
346.168	-988.83
346.384	-1054.36
346.6	-102.06
346.816	-149.16
347.032	-216.74
347.248	274.77
347.464	-226.98
347.68	-79.53
347.896	72.02
348.112	440.65
348.328	-89.77
348.544	-116.39
348.76	-54.95
348.975	248.15
349.191	-272.04
349.407	-167.59
349.623	-3.75
349.839	-110.25
350.055	-259.75
350.27	-57
350.486	158.03
350.702	405.84
350.918	166.23
351.133	-274.09
351.349	198.99
351.565	305.49
351.781	-235.18
351.996	-5.8
352.212	182.61
352.428	-181.93
352.644	-243.37
352.859	-222.89
353.075	301.39
353.291	37.2
353.506	-179.88
353.722	-224.94
353.938	-91.82
354.153	401.74
354.369	131.41
354.584	-247.46
354.8	182.61
355.016	-319.14
355.231	-325.29
355.447	-151.21
355.662	90.45
355.878	698.7
356.093	-425.64
356.309	-124.58
356.524	-269.99
356.74	151.89
356.955	-292.52
357.171	-130.73
357.386	125.27
357.602	-280.23
357.817	-95.91
358.033	-136.87
358.248	276.82
358.464	153.94
358.679	-147.11
358.895	-382.63
359.11	10.58
359.325	184.66
359.541	20.82
359.756	-67.24
359.972	-302.76
360.187	182.61
360.402	-247.46
360.618	-214.7
360.833	862.54
361.048	65.88
361.264	-192.17
361.479	-179.88
361.694	-44.71
361.909	223.57
362.125	-267.94
362.34	-149.16
362.555	223.57
362.77	35.16
362.986	-282.28
363.201	-196.26
363.416	166.23
363.631	-44.71
363.847	-233.13
364.062	-251.56
364.277	168.27
364.492	16.73
364.707	-163.5
364.922	-380.58
365.138	178.51
365.353	301.39
365.568	-370.34
365.783	-118.44
365.998	47.44
366.213	489.81
366.428	-200.36
366.643	20.82
366.858	117.08
367.073	143.7
367.288	-93.87
367.503	-374.44
367.718	141.65
367.933	342.35
368.148	-358.05
368.363	-132.78
368.578	-1.71
368.793	399.7
369.008	-169.64
369.223	-233.13
369.438	119.12
369.653	325.97
369.868	-343.72
370.083	-167.59
370.298	102.74
370.513	323.92
370.728	-44.71
370.943	-243.37
371.157	-192.17
371.372	512.33
371.587	-265.89
371.802	-345.77
372.017	39.25
372.232	385.36
372.446	-50.86
372.661	-321.19
372.876	190.8
373.091	125.27
373.306	-81.58
373.52	-321.19
373.735	-214.7
373.95	399.7
374.165	-145.06
374.379	-183.98
374.594	-183.98
374.809	37.2
375.023	-46.76
375.238	-249.51
375.453	229.71
375.667	-300.71
375.882	-161.45
376.097	-278.18
376.311	-44.71
376.526	-97.96
376.741	-251.56
376.955	61.78
377.17	520.53
377.384	498
377.599	-9.9
377.813	-290.47
378.028	590.16
378.242	133.46
378.457	-50.86
378.672	-349.86
378.886	59.73
379.101	-87.72
379.315	-388.77
379.53	-181.93
379.744	215.38
379.958	86.36
380.173	-151.21
380.387	-259.75
380.602	121.17
380.816	-130.73
381.031	-241.32
381.245	-134.82
381.459	47.44
381.674	846.15
381.888	-304.81
382.103	26.96
382.317	-290.47
382.531	483.66
382.746	-104.11
382.96	-186.02
383.174	-85.67
383.388	420.17
383.603	-38.57
383.817	-280.23
384.031	170.32
384.246	379.22
384.46	-128.68
384.674	293.2
384.888	-28.33
385.103	108.88
385.317	-356.01
385.531	-67.24
385.745	248.15
385.959	219.47
386.174	-241.32
386.388	-274.09
386.602	-36.52
386.816	-71.34
387.03	-167.59
387.244	-95.91
387.458	18.77
387.672	303.44
387.887	-356.01
388.101	-267.94
388.315	280.91
388.529	90.45
388.743	-226.98
388.957	-306.85
389.171	309.58
389.385	-161.45
389.599	-167.59
389.813	-102.06
390.027	182.61
390.241	620.88
390.455	-143.02
390.669	-159.4
390.883	-44.71
391.097	371.02
391.311	18.77
391.525	-218.79
391.738	186.71
391.952	192.85
392.166	-163.5
392.38	-345.77
392.594	217.43
392.808	215.38
393.022	-161.45
393.236	-235.18
393.449	147.8
393.663	149.84
393.877	-247.46
394.091	-100.01
394.305	-200.36
394.518	-136.87
394.732	-280.23
394.946	-218.79
395.16	440.65
395.373	35.16
395.587	-233.13
395.801	-181.93
396.015	172.37
396.228	104.79
396.442	-345.77
396.656	-413.35
396.869	256.34
397.083	375.12
397.297	-159.4
397.51	-257.7
397.724	272.72
397.938	127.32
398.151	-392.87
398.365	-345.77
398.578	190.8
398.792	352.59
399.005	-32.43
399.219	-186.02
399.433	65.88
399.646	188.75
399.86	-34.47
400.073	22.87
400.287	158.03
400.5	-54.95
400.714	-93.87
400.927	-85.67
401.141	207.19
401.354	1116.48
401.567	188.75
401.781	-296.61
401.994	141.65
402.208	528.72
402.421	-147.11
402.635	-212.65
402.848	-11.95
403.061	237.91
403.275	-87.72
403.488	-325.29
403.701	416.08
403.915	127.32
404.128	33.11
404.341	-245.41
404.555	133.46
404.768	-40.62
404.981	37.2
405.195	-233.13
405.408	323.92
405.621	82.26
405.834	33.11
406.048	-310.95
406.261	282.96
406.474	420.17
406.687	-237.22
406.9	-140.97
407.114	37.2
407.327	182.61
407.54	-347.81
407.753	-370.34
407.966	-147.11
408.179	131.41
408.392	-245.41
408.605	-360.1
408.819	172.37
409.032	168.27
409.245	-288.42
409.458	-95.91
409.671	231.76
409.884	231.76
410.097	-392.87
410.31	45.4
410.523	121.17
410.736	-52.91
410.949	-183.98
411.162	-194.22
411.375	346.45
411.588	260.43
411.801	-22.19
412.014	-159.4
412.227	-81.58
412.44	-153.26
412.653	-194.22
412.865	-118.44
413.078	276.82
413.291	209.23
413.504	-175.78
413.717	-267.94
413.93	252.24
414.143	-173.74
414.356	-75.43
414.568	-413.35
414.781	219.47
414.994	123.22
415.207	-75.43
415.42	-163.5
415.632	141.65
415.845	514.38
416.058	-349.86
416.271	-296.61
416.483	-22.19
416.696	422.22
416.909	-251.56
417.121	-231.08
417.334	112.98
417.547	485.71
417.759	-284.33
417.972	-321.19
418.185	-173.74
418.397	385.36
418.61	-296.61
418.823	-251.56
419.035	375.12
419.248	37.2
419.46	-196.26
419.673	-46.76
419.885	137.56
420.098	6.49
420.311	-259.75
420.523	-493.22
420.736	137.56
420.948	43.35
421.161	-208.55
421.373	-435.88
421.586	129.36
421.798	-140.97
422.01	-372.39
422.223	-208.55
422.435	-100.01
422.648	158.03
422.86	-157.35
423.073	-206.5
423.285	264.53
423.497	-306.85
423.71	-304.81
423.922	-304.81
424.134	72.02
424.347	391.5
424.559	12.63
424.771	43.35
424.984	-54.95
425.196	108.88
425.408	-407.2
425.621	-339.62
425.833	172.37
426.045	289.1
426.257	-280.23
426.47	-231.08
426.682	67.92
426.894	125.27
427.106	-153.26
427.318	-175.78
427.531	-151.21
427.743	231.76
427.955	-224.94
428.167	252.24
428.379	61.78
428.591	-28.33
428.804	-120.49
429.016	-333.48
429.228	12.63
429.44	115.03
429.652	-5.8
429.864	-376.48
430.076	-87.72
430.288	-38.57
430.5	-245.41
430.712	-85.67
430.924	239.95
431.136	31.06
431.348	-313
431.56	-190.12
431.772	-50.86
431.984	-126.63
432.196	-308.9
432.408	-241.32
432.62	-42.67
432.832	10.58
433.044	-63.15
433.256	-175.78
433.468	192.85
433.679	-374.44
433.891	-331.43
434.103	10.58
434.315	397.65
434.527	137.56
434.739	-87.72
434.95	-229.03
435.162	143.7
435.374	-206.5
435.586	-169.64
435.798	-290.47
436.009	-265.89
436.221	-44.71
436.433	-190.12
436.645	-161.45
436.856	-173.74
437.068	274.77
437.28	-255.65
437.491	108.88
437.703	106.84
437.915	-65.19
438.126	-255.65
438.338	45.4
438.55	-26.28
438.761	145.75
438.973	-169.64
439.184	-253.61
439.396	-38.57
439.608	63.83
439.819	-313
440.031	-89.77
440.242	174.42
440.454	151.89
440.665	-196.26
440.877	-210.6
441.088	88.4
441.3	-24.23
441.511	-419.49
441.723	-243.37
441.934	84.31
442.146	88.4
442.357	-114.34
442.569	2.39
442.78	-11.95
442.991	389.46
443.203	90.45
443.414	-345.77
443.626	233.81
443.837	-226.98
444.048	-323.24
444.26	-423.59
444.471	41.3
444.682	225.62
444.894	-392.87
445.105	-292.52
445.316	221.52
445.528	117.08
445.739	-81.58
445.95	-177.83
446.161	55.64
446.373	211.28
446.584	-231.08
446.795	-188.07
447.006	139.6
447.217	383.31
447.429	-364.2
447.64	-308.9
447.851	354.64
448.062	6.49
448.273	-435.88
448.484	-233.13
448.695	67.92
448.907	-1.71
449.118	-212.65
449.329	-28.33
449.54	-186.02
449.751	-243.37
449.962	-247.46
450.173	-294.57
450.384	209.23
450.595	330.06
450.806	-253.61
451.017	-192.17
451.228	293.2
451.439	233.81
451.65	-315.05
451.861	-495.27
452.072	-179.88
452.283	-26.28
452.494	-34.47
452.705	-267.94
452.915	332.11
453.126	98.64
453.337	-134.82
453.548	-319.14
453.759	170.32
453.97	545.1
454.181	6.49
454.391	-218.79
454.602	2.39
454.813	170.32
455.024	-218.79
455.235	-210.6
455.445	43.35
455.656	90.45
455.867	-87.72
456.078	-325.29
456.288	-93.87
456.499	53.59
456.71	-341.67
456.921	20.82
457.131	45.4
457.342	20.82
457.553	-179.88
457.763	-222.89
457.974	153.94
458.184	166.23
458.395	-317.09
458.606	-458.4
458.816	209.23
459.027	420.17
459.237	-22.19
459.448	-392.87
459.659	315.73
459.869	483.66
460.08	-423.59
460.29	-171.69
460.501	393.55
460.711	-132.78
460.922	-345.77
461.132	-300.71
461.343	571.72
461.553	-333.48
461.764	-390.82
461.974	-298.66
462.184	258.39
462.395	96.6
462.605	-231.08
462.816	-407.2
463.026	-42.67
463.236	264.53
463.447	-321.19
463.657	-255.65
463.867	266.58
464.078	-79.53
464.288	-265.89
464.498	-290.47
464.709	-24.23
464.919	-104.11
465.129	-153.26
465.339	-315.05
465.55	94.55
465.76	162.13
465.97	-263.85
466.18	-290.47
466.391	172.37
466.601	96.6
466.811	-235.18
467.021	-413.35
467.231	96.6
467.441	289.1
467.651	-231.08
467.862	-462.5
468.072	-97.96
468.282	348.5
468.492	-194.22
468.702	-163.5
468.912	22.87
469.122	600.4
469.332	108.88
469.542	-384.68
469.752	59.73
469.962	-1.71
470.172	-362.15
470.382	-280.23
470.592	121.17
470.802	291.15
471.012	-134.82
471.222	-304.81
471.432	256.34
471.642	158.03
471.852	-149.16
472.062	-349.86
472.272	-3.75
472.482	-239.27
472.691	-382.63
472.901	-313
473.111	-3.75
473.321	567.63
473.531	-366.25
473.741	-200.36
473.95	94.55
474.16	86.36
474.37	-138.92
474.58	-372.39
474.79	387.41
474.999	227.67
475.209	-335.53
475.419	-257.7
475.628	-112.3
475.838	299.34
476.048	-202.41
476.258	-341.67
476.467	203.09
476.677	-77.48
476.886	-71.34
477.096	-208.55
477.306	-202.41
477.515	348.5
477.725	-206.5
477.935	-245.41
478.144	301.39
478.354	-159.4
478.563	-235.18
478.773	-386.72
478.982	194.9
479.192	201.04
479.401	-181.93
479.611	-325.29
479.82	-171.69
480.03	24.92
480.239	-257.7
480.449	-356.01
480.658	362.83
480.868	-194.22
481.077	-181.93
481.287	-222.89
481.496	162.13
481.705	340.3
481.915	-59.05
482.124	-32.43
482.333	59.73
482.543	395.6
482.752	-95.91
482.961	-300.71
483.171	209.23
483.38	-32.43
483.589	-173.74
483.799	-376.48
484.008	-112.3
484.217	188.75
484.426	-263.85
484.636	-321.19
484.845	61.78
485.054	-282.28
485.263	67.92
485.472	-267.94
485.682	371.02
485.891	78.16
486.1	-433.83
486.309	-259.75
486.518	108.88
486.727	315.73
486.936	-274.09
487.146	-132.78
487.355	364.88
487.564	-171.69
487.773	-175.78
487.982	-247.46
488.191	-85.67
488.4	63.83
488.609	-243.37
488.818	-249.51
489.027	534.86
489.236	307.54
489.445	-243.37
489.654	-288.42
489.863	282.96
490.072	125.27
490.281	37.2
490.49	-315.05
490.698	381.26
490.907	338.26
491.116	-247.46
491.325	-341.67
491.534	289.1
491.743	39.25
491.952	-210.6
492.16	-251.56
492.369	84.31
492.578	104.79
492.787	-159.4
492.996	-364.2
493.204	-159.4
493.413	411.98
493.622	-405.16
493.831	-433.83
494.039	358.74
494.248	-194.22
494.457	-292.52
494.665	-423.59
494.874	143.7
495.083	469.33
495.291	-261.8
495.5	-329.38
495.709	162.13
495.917	29.01
496.126	-220.84
496.335	-376.48
496.543	-77.48
496.752	108.88
496.96	-120.49
497.169	-501.41
497.377	65.88
497.586	356.69
497.794	-161.45
498.003	-462.5
498.211	0.34
498.42	299.34
498.628	-218.79
498.837	-407.2
499.045	67.92
499.254	57.68
499.462	-317.09
499.671	-317.09
499.879	395.6
500.087	207.19
500.296	-319.14
500.504	-304.81
500.713	47.44
500.921	530.77
501.129	-362.15
501.338	-284.33
501.546	88.4
501.754	69.97
501.962	-259.75
502.171	-345.77
502.379	172.37
502.587	418.13
502.795	-239.27
503.004	-313
503.212	-18.09
503.42	330.06
503.628	-233.13
503.837	-167.59
504.045	153.94
504.253	434.51
504.461	-290.47
504.669	-433.83
504.877	276.82
505.085	399.7
505.294	-384.68
505.502	0.34
505.71	96.6
505.918	86.36
506.126	-315.05
506.334	-267.94
506.542	-69.29
506.75	125.27
506.958	-89.77
507.166	-259.75
507.374	-52.91
507.582	465.23
507.79	-108.2
507.998	-313
508.206	110.93
508.414	125.27
508.622	-317.09
508.83	-259.75
509.037	354.64
509.245	16.73
509.453	-392.87
509.661	-325.29
509.869	205.14
510.077	-40.62
510.285	-202.41
510.492	-540.32
510.7	627.02
510.908	-93.87
511.116	-265.89
511.324	-310.95
511.531	-153.26
511.739	2.39
511.947	-102.06
512.155	76.12
512.362	135.51
512.57	-235.18
512.778	-317.09
512.985	-507.55
513.193	272.72
513.401	280.91
513.608	-239.27
513.816	-257.7
514.024	151.89
514.231	250.19
514.439	-304.81
514.646	-255.65
514.854	237.91
515.061	371.02
515.269	-249.51
515.477	-298.66
515.684	-190.12
515.892	190.8
516.099	-378.53
516.307	-450.21
516.514	203.09
516.722	385.36
516.929	-263.85
517.136	-315.05
517.344	409.94
517.551	100.69
517.759	-313
517.966	-202.41
518.173	-9.9
518.381	-18.09
518.588	-177.83
518.796	-358.05
519.003	276.82
519.21	-54.95
519.418	-243.37
519.625	74.07
519.832	31.06
520.039	92.5
520.247	-372.39
520.454	-292.52
520.661	219.47
520.868	172.37
521.076	-259.75
521.283	-239.27
521.49	618.83
521.697	143.7
521.904	-188.07
522.112	-284.33
522.319	231.76
522.526	96.6
522.733	-341.67
522.94	-372.39
523.147	16.73
523.354	215.38
523.561	-423.59
523.768	-216.74
523.975	282.96
524.183	41.3
524.39	-206.5
524.597	-380.58
524.804	63.83
525.011	-163.5
525.218	-329.38
525.425	-231.08
525.632	385.36
525.838	-122.54
526.045	-315.05
526.252	-294.57
526.459	1177.92
526.666	934.22
526.873	-292.52
527.08	-317.09
527.287	422.22
527.494	215.38
527.701	-380.58
527.907	-364.2
528.114	84.31
528.321	-5.8
528.528	-177.83
528.735	-317.09
528.941	-132.78
529.148	-138.92
529.355	-210.6
529.562	-331.43
529.768	541.01
529.975	-104.11
530.182	-165.54
530.388	-212.65
530.595	233.81
530.802	-247.46
531.008	-77.48
531.215	-274.09
531.422	481.61
531.628	739.66
531.835	-81.58
532.042	-118.44
532.248	-93.87
532.455	108.88
532.661	-159.4
532.868	-259.75
533.074	39.25
533.281	174.42
533.487	-177.83
533.694	-339.62
533.9	-247.46
534.107	117.08
534.313	-333.48
534.52	-356.01
534.726	244.05
534.933	563.53
535.139	-296.61
535.345	-423.59
535.552	84.31
535.758	16.73
535.965	-120.49
536.171	-243.37
536.377	203.09
536.584	395.6
536.79	-216.74
536.996	-153.26
537.203	137.56
537.409	215.38
537.615	-267.94
537.821	-83.63
538.028	186.71
538.234	254.29
538.44	-214.7
538.646	-214.7
538.853	256.34
539.059	-1.71
539.265	127.32
539.471	-427.68
539.677	285.01
539.883	-16.04
540.09	-235.18
540.296	215.38
540.502	80.21
540.708	-167.59
540.914	-22.19
541.12	-306.85
541.326	164.18
541.532	-5.8
541.738	-208.55
541.944	-198.31
542.15	264.53
542.356	2.39
542.562	-280.23
542.768	-171.69
542.974	676.17
543.18	538.96
543.386	-288.42
543.592	-333.48
543.798	465.23
544.004	354.64
544.21	-241.32
544.415	-114.34
544.621	141.65
544.827	358.74
545.033	-366.25
545.239	53.59
545.445	-181.93
545.651	166.23
545.856	-261.8
546.062	-241.32
546.268	4.44
546.474	115.03
546.679	-292.52
546.885	-200.36
547.091	-110.25
547.297	534.86
547.502	-114.34
547.708	-349.86
547.914	-147.11
548.119	205.14
548.325	-267.94
548.531	-345.77
548.736	436.56
548.942	-87.72
549.147	-249.51
549.353	-26.28
549.559	360.78
549.764	119.12
549.97	-235.18
550.175	-278.18
550.381	258.39
550.586	-63.15
550.792	-222.89
550.997	-276.13
551.203	180.56
551.408	223.57
551.614	-294.57
551.819	-239.27
552.025	457.04
552.23	557.39
552.435	-224.94
552.641	-140.97
552.846	-87.72
553.052	422.22
553.257	-73.39
553.462	-192.17
553.668	-85.67
553.873	346.45
554.078	-304.81
554.283	-263.85
554.489	168.27
554.694	135.51
554.899	-265.89
555.105	-44.71
555.31	196.95
555.515	252.24
555.72	-128.68
555.925	-222.89
556.131	366.93
556.336	-93.87
556.541	-132.78
556.746	-276.13
556.951	442.7
557.156	551.24
557.361	-50.86
557.567	-69.29
557.772	674.12
557.977	237.91
558.182	-155.3
558.387	-208.55
558.592	-124.58
558.797	414.03
559.002	-73.39
559.207	-118.44
559.412	110.93
559.617	489.81
559.822	-261.8
560.027	-306.85
560.232	186.71
560.437	395.6
560.642	-278.18
560.847	-290.47
561.051	96.6
561.256	184.66
561.461	-194.22
561.666	-237.22
561.871	158.03
562.076	258.39
562.281	-132.78
562.485	-233.13
562.69	383.31
562.895	350.54
563.1	-255.65
563.305	-290.47
563.509	424.27
563.714	690.51
563.919	-288.42
564.123	-147.11
564.328	92.5
564.533	375.12
564.737	-118.44
564.942	-192.17
565.147	559.44
565.351	678.22
565.556	-73.39
565.761	-69.29
565.965	229.71
566.17	-102.06
566.374	-169.64
566.579	-235.18
566.784	213.33
566.988	26.96
567.193	-323.24
567.397	-153.26
567.602	-218.79
567.806	123.22
568.011	-173.74
568.215	-143.02
568.42	100.69
568.624	133.46
568.828	-179.88
569.033	39.25
569.237	393.55
569.442	268.63
569.646	-329.38
569.85	-186.02
570.055	67.92
570.259	248.15
570.463	26.96
570.668	-163.5
570.872	110.93
571.076	127.32
571.281	-63.15
571.485	-93.87
571.689	145.75
571.893	403.79
572.098	-18.09
572.302	-161.45
572.506	334.16
572.71	131.41
572.914	-85.67
573.119	-124.58
573.323	514.38
573.527	510.29
573.731	-71.34
573.935	-292.52
574.139	289.1
574.343	92.5
574.547	-175.78
574.751	-169.64
574.955	520.53
575.159	399.7
575.364	-104.11
575.568	-247.46
575.772	121.17
575.976	440.65
576.18	-108.2
576.383	-226.98
576.587	454.99
576.791	340.3
576.995	-339.62
577.199	-251.56
577.403	403.79
577.607	420.17
577.811	-181.93
578.015	-67.24
578.219	334.16
578.422	381.26
578.626	-54.95
578.83	61.78
579.034	495.95
579.238	203.09
579.442	-198.31
579.645	254.29
579.849	143.7
580.053	182.61
580.257	-18.09
580.46	63.83
580.664	379.22
580.868	309.58
581.071	53.59
581.275	35.16
581.479	-42.67
581.682	403.79
581.886	-202.41
582.09	29.01
582.293	422.22
582.497	354.64
582.7	198.99
582.904	-167.59
583.107	174.42
583.311	217.43
583.515	-50.86
583.718	-22.19
583.922	330.06
584.125	725.32
584.329	-75.43
584.532	43.35
584.735	514.38
584.939	344.4
585.142	-167.59
585.346	-13.99
585.549	268.63
585.753	72.02
585.956	0.34
586.159	153.94
586.363	696.65
586.566	293.2
586.769	-42.67
586.973	-132.78
587.176	262.48
587.379	444.75
587.582	313.68
587.786	86.36
587.989	168.27
588.192	833.86
588.395	33.11
588.599	274.77
588.802	395.6
589.005	323.92
589.208	45.4
589.411	8.53
589.615	461.13
589.818	659.79
590.021	209.23
590.224	35.16
590.427	407.89
590.63	403.79
590.833	-249.51
591.036	-124.58
591.239	198.99
591.442	53.59
591.645	158.03
591.848	-108.2
592.051	321.87
592.254	487.76
592.457	84.31
592.66	-26.28
592.863	215.38
593.066	411.98
593.269	-7.85
593.472	94.55
593.675	106.84
593.878	512.33
594.081	88.4
594.284	-136.87
594.486	395.6
594.689	287.06
594.892	133.46
595.095	-20.14
595.298	463.18
595.5	162.13
595.703	190.8
595.906	147.8
596.109	629.07
596.311	510.29
596.514	-235.18
596.717	22.87
596.92	506.19
597.122	389.46
597.325	-206.5
597.528	-71.34
597.73	651.6
597.933	209.23
598.136	-52.91
598.338	-214.7
598.541	403.79
598.743	522.57
598.946	84.31
599.148	-40.62
599.351	579.92
599.554	518.48
599.756	88.4
599.959	96.6
600.161	504.14
600.363	952.65
600.566	344.4
600.768	-20.14
600.971	665.93
601.173	411.98
601.376	20.82
601.578	10.58
601.78	424.27
601.983	862.54
602.185	-18.09
602.388	270.67
602.59	358.74
602.792	188.75
602.995	235.86
603.197	43.35
603.399	405.84
603.601	278.87
603.804	112.98
604.006	65.88
604.208	276.82
604.41	-52.91
604.613	264.53
604.815	53.59
605.017	854.34
605.219	123.22
605.421	371.02
605.623	129.36
605.826	645.45
606.028	645.45
606.23	43.35
606.432	125.27
606.634	723.27
606.836	606.54
607.038	-69.29
607.24	221.52
607.442	391.5
607.644	418.13
607.846	225.62
608.048	-30.38
608.25	670.03
608.452	215.38
608.654	108.88
608.856	-13.99
609.058	223.57
609.26	510.29
609.462	117.08
609.664	246.1
609.866	768.33
610.067	534.86
610.269	346.45
610.471	162.13
610.673	354.64
610.875	584.01
611.077	-3.75
611.278	227.67
611.48	434.51
611.682	842.06
611.884	170.32
612.085	217.43
612.287	174.42
612.489	471.37
612.69	-34.47
612.892	207.19
613.094	655.69
613.295	444.75
613.497	-16.04
613.699	149.84
613.9	749.9
614.102	678.22
614.304	215.38
614.505	-46.76
614.707	297.3
614.908	489.81
615.11	2.39
615.311	194.9
615.513	670.03
615.714	538.96
615.916	29.01
616.117	139.6
616.319	348.5
616.52	592.2
616.722	110.93
616.923	133.46
617.124	649.55
617.326	622.92
617.527	221.52
617.729	323.92
617.93	598.35
618.131	512.33
618.333	190.8
618.534	190.8
618.735	315.73
618.937	825.67
619.138	20.82
619.339	80.21
619.54	579.92
619.742	323.92
619.943	350.54
620.144	176.47
620.345	682.31
620.546	772.43
620.748	141.65
620.949	285.01
621.15	502.09
621.351	534.86
621.552	188.75
621.753	43.35
621.954	121.17
622.155	905.54
622.356	198.99
622.558	383.31
622.759	436.56
622.96	999.75
623.161	266.58
623.362	280.91
623.563	346.45
623.764	586.06
623.965	307.54
624.166	418.13
624.366	403.79
624.567	569.68
624.768	-91.82
624.969	223.57
625.17	442.7
625.371	753.99
625.572	305.49
625.773	201.04
625.973	766.28
626.174	719.18
626.375	325.97
626.576	407.89
626.777	622.92
626.977	1036.61
627.178	178.51
627.379	319.82
627.58	477.52
627.78	483.66
627.981	285.01
628.182	366.93
628.382	739.66
628.583	182.61
628.784	178.51
628.984	448.85
629.185	753.99
629.386	631.12
629.586	272.72
629.787	201.04
629.987	678.22
630.188	528.72
630.388	231.76
630.589	387.41
630.79	1218.88
630.99	559.44
631.191	403.79
631.391	385.36
631.591	721.23
631.792	874.82
631.992	432.46
632.193	346.45
632.393	936.26
632.594	579.92
632.794	256.34
632.994	389.46
633.195	584.01
633.395	588.11
633.595	313.68
633.796	561.48
633.996	397.65
634.196	846.15
634.397	88.4
634.597	360.78
634.797	414.03
634.997	860.49
635.198	536.91
635.398	239.95
635.598	641.36
635.798	954.69
635.998	776.52
636.199	319.82
636.399	381.26
636.599	409.94
636.799	289.1
636.999	600.4
637.199	717.13
637.399	870.73
637.599	313.68
637.799	479.57
637.999	477.52
638.199	1042.76
638.399	293.2
638.599	330.06
638.799	768.33
638.999	1065.29
639.199	518.48
639.399	487.76
639.599	1020.23
639.799	379.22
639.999	358.74
640.199	201.04
640.399	749.9
640.599	825.67
640.799	444.75
640.998	641.36
641.198	915.78
641.398	737.61
641.598	448.85
641.798	426.32
641.997	1597.76
642.197	571.72
642.397	477.52
642.597	354.64
642.796	829.77
642.996	1016.13
643.196	545.1
643.395	282.96
643.595	790.86
643.795	342.35
643.994	504.14
644.194	416.08
644.394	901.45
644.593	713.03
644.793	231.76
644.992	567.63
645.192	805.19
645.392	313.68
645.591	557.39
645.791	452.94
645.99	809.29
646.19	647.5
646.389	590.16
646.589	432.46
646.788	870.73
646.987	858.44
647.187	676.17
647.386	723.27
647.586	688.46
647.785	887.11
647.984	510.29
648.184	467.28
648.383	506.19
648.582	604.49
648.782	510.29
648.981	629.07
649.18	500.05
649.38	846.15
649.579	477.52
649.778	491.85
649.977	840.01
650.177	848.2
650.376	481.61
650.575	448.85
650.774	1116.48
650.973	590.16
651.173	282.96
651.372	584.01
651.571	801.1
651.77	946.5
651.969	510.29
652.168	608.59
652.367	483.66
652.566	885.06
652.765	442.7
652.964	772.43
653.163	1280.32
653.362	753.99
653.561	475.47
653.76	590.16
653.959	782.67
654.158	895.3
654.357	749.9
654.556	645.45
654.755	880.97
654.954	903.5
655.153	651.6
655.352	581.96
655.551	1100.1
655.749	555.34
655.948	627.02
656.147	684.36
656.346	897.35
656.545	749.9
656.743	690.51
656.942	612.68
657.141	825.67
657.34	565.58
657.538	647.5
657.737	647.5
657.936	694.6
658.135	944.45
658.333	518.48
658.532	690.51
658.731	1304.9
658.929	1014.09
659.128	909.64
659.326	608.59
659.525	1218.88
659.724	889.16
659.922	317.78
660.121	446.8
660.319	895.3
660.518	665.93
660.716	434.51
660.915	559.44
661.113	1118.53
661.312	588.11
661.51	788.81
661.709	493.9
661.907	1034.57
662.105	1239.36
662.304	678.22
662.502	670.03
662.701	1108.29
662.899	932.17
663.097	930.12
663.296	508.24
663.494	1106.24
663.692	1378.62
663.891	553.29
664.089	561.48
664.287	1022.28
664.485	1116.48
664.684	612.68
664.882	817.48
665.08	946.5
665.278	905.54
665.476	518.48
665.675	938.31
665.873	1382.72
666.071	1116.48
666.269	766.28
666.467	895.3
666.665	1071.43
666.863	1014.09
667.061	852.3
667.259	735.56
667.457	911.69
667.655	1184.07
667.853	598.35
668.051	883.02
668.249	747.85
668.447	1163.59
668.645	641.36
668.843	936.26
669.041	1091.91
669.239	983.37
669.437	899.4
669.635	946.5
669.833	870.73
670.031	1136.96
670.229	829.77
670.426	811.34
670.624	872.78
670.822	862.54
671.02	710.99
671.218	823.62
671.415	643.4
671.613	1065.29
671.811	852.3
672.009	729.42
672.206	1261.89
672.404	938.31
672.602	1030.47
672.799	934.22
672.997	1038.66
673.195	1278.27
673.392	864.58
673.59	719.18
673.788	1126.72
673.985	469.33
674.183	831.82
674.38	921.93
674.578	1202.5
674.775	899.4
674.973	637.26
675.17	702.79
675.368	1378.62
675.565	1130.82
675.763	801.1
675.96	780.62
676.158	1343.81
676.355	1007.94
676.553	799.05
676.75	887.11
676.947	1096
677.145	985.41
677.342	960.84
677.539	944.45
677.737	1126.72
677.934	1608
678.131	999.75
678.329	756.04
678.526	1448.26
678.723	1276.23
678.92	983.37
679.118	874.82
679.315	833.86
679.512	1378.62
679.709	842.06
679.906	899.4
680.104	1263.94
680.301	1083.72
680.498	741.71
680.695	790.86
680.892	850.25
681.089	1007.94
681.286	946.5
681.483	647.5
681.68	1233.22
681.877	1337.66
682.075	917.83
682.272	1034.57
682.469	1239.36
682.665	999.75
682.862	801.1
683.059	698.7
683.256	1202.5
683.453	1108.29
683.65	942.41
683.847	887.11
684.044	1337.66
684.241	964.93
684.438	907.59
684.635	741.71
684.831	1667.39
685.028	1573.18
685.225	926.02
685.422	1059.14
685.619	1053
685.815	1083.72
686.012	1012.04
686.209	946.5
686.405	1020.23
686.602	1268.03
686.799	807.24
686.996	895.3
687.192	858.44
687.389	1546.56
687.586	878.92
687.782	889.16
687.979	1526.08
688.175	1411.39
688.372	977.22
688.568	919.88
688.765	1044.81
688.962	1468.73
689.158	1044.81
689.355	700.75
689.551	1362.24
689.748	969.03
689.944	1055.05
690.14	870.73
690.337	1390.91
690.533	1077.57
690.73	1153.35
690.926	1003.85
691.123	1257.79
691.319	1141.06
691.515	813.38
691.712	1194.31
691.908	1308.99
692.104	1233.22
692.301	1120.58
692.497	840.01
692.693	1300.8
692.889	1376.58
693.086	1153.35
693.282	872.78
693.478	1124.68
693.674	1681.72
693.87	1108.29
694.067	856.39
694.263	1337.66
694.459	1147.2
694.655	1186.12
694.851	1149.25
695.047	1419.58
695.243	1446.21
695.439	1231.17
695.635	995.65
695.831	1362.24
696.027	1251.65
696.224	1055.05
696.42	1321.28
696.615	1603.9
696.811	1411.39
697.007	917.83
697.203	940.36
697.399	1374.53
697.595	1550.65
697.791	1016.13
697.987	1247.55
698.183	928.07
698.379	1001.8
698.575	1044.81
698.77	1038.66
698.966	1483.07
699.162	1456.45
699.358	1067.33
699.554	1024.33
699.749	1476.93
699.945	1509.69
700.141	1173.83
700.337	1167.68
700.532	1159.49
700.728	1055.05
700.924	981.32
701.119	989.51
701.315	1485.12
701.511	1208.64
701.706	1220.93
701.902	985.41
702.097	1268.03
702.293	1442.11
702.489	1118.53
702.684	1081.67
702.88	1251.65
703.075	1169.73
703.271	1192.26
703.466	1014.09
703.662	1386.82
703.857	1538.37
704.053	1096
704.248	1157.44
704.443	1503.55
704.639	1536.32
704.834	1163.59
705.03	1192.26
705.225	1530.17
705.42	1712.44
705.616	1268.03
705.811	940.36
706.006	1200.45
706.202	1276.23
706.397	1265.99
706.592	1067.33
706.787	1452.35
706.983	1429.82
707.178	1317.19
707.373	1356.1
707.568	1481.02
707.763	1653.05
707.959	1182.02
708.154	1253.7
708.349	1407.3
708.544	1515.84
708.739	1290.56
708.934	1020.23
709.129	1579.33
709.324	1673.53
709.519	1124.68
709.714	1077.57
709.909	1657.15
710.104	1571.13
710.299	1239.36
710.494	1208.64
710.689	1558.85
710.884	1458.5
711.079	1356.1
711.274	1431.87
711.469	1554.75
711.664	1564.99
711.859	1122.63
712.054	1313.09
712.249	1577.28
712.443	1687.87
712.638	991.56
712.833	1165.64
713.028	1513.79
713.223	1331.52
713.417	1554.75
713.612	1241.41
713.807	1589.57
714.002	2115.89
714.196	1526.08
714.391	1118.53
714.586	1634.62
714.78	1397.06
714.975	1268.03
715.17	1128.77
715.364	1456.45
715.559	1644.86
715.754	1007.94
715.948	1177.92
716.143	1966.39
716.337	1626.43
716.532	1505.6
716.726	1257.79
716.921	1628.48
717.115	1990.97
717.31	1130.82
717.504	1710.4
717.699	1339.71
717.893	1710.4
718.088	1091.91
718.282	1089.86
718.476	1581.37
718.671	1526.08
718.865	1304.9
719.059	1288.51
719.254	1466.69
719.448	1898.81
719.642	1411.39
719.837	1075.52
720.031	1769.79
720.225	1796.41
720.419	1292.61
720.614	1222.98
720.808	1628.48
721.002	1487.17
721.196	1153.35
721.39	1251.65
721.585	1849.66
721.779	1526.08
721.973	1315.14
722.167	1153.35
722.361	1554.75
722.555	1843.51
722.749	1278.27
722.943	1378.62
723.137	1364.29
723.331	1710.4
723.525	1321.28
723.719	1249.6
723.913	1626.43
724.107	1839.42
724.301	1186.12
724.495	1362.24
724.689	1970.49
724.883	1954.1
725.077	1218.88
725.271	1321.28
725.465	1820.99
725.659	1442.11
725.853	1460.54
726.046	1077.57
726.24	1401.15
726.434	1812.79
726.628	1333.57
726.822	1208.64
727.015	1765.69
727.209	1855.8
727.403	1354.05
727.596	1186.12
727.79	1644.86
727.984	1745.21
728.177	1356.1
728.371	1468.73
728.565	1931.58
728.758	1370.43
728.952	1339.71
729.146	1231.17
729.339	1933.62
729.533	1517.89
729.726	1403.2
729.92	1251.65
730.113	1876.28
730.307	1657.15
730.5	1337.66
730.694	1229.12
730.887	1448.26
731.081	1755.45
731.274	1237.31
731.468	1378.62
731.661	1526.08
731.854	1521.98
732.048	1403.2
732.241	1268.03
732.435	1515.84
732.628	1728.83
732.821	1485.12
733.014	1345.86
733.208	1456.45
733.401	1755.45
733.594	1405.25
733.788	1435.97
733.981	1950.01
734.174	1726.78
734.367	1339.71
734.56	1458.5
734.754	1886.52
734.947	1651
735.14	1411.39
735.333	1478.97
735.526	1694.01
735.719	1526.08
735.912	1399.1
736.105	1386.82
736.298	1673.53
736.491	1667.39
736.684	1427.78
736.877	1325.38
737.07	1763.64
737.263	2091.32
737.456	1460.54
737.649	1425.73
737.842	1667.39
738.035	1775.93
738.228	1485.12
738.421	1712.44
738.614	1993.01
738.807	1784.12
739	1294.66
739.192	1435.97
739.385	1841.47
739.578	1825.08
739.771	1780.03
739.964	1546.56
740.156	1777.98
740.349	1700.16
740.542	1567.04
740.735	1261.89
740.927	1460.54
741.12	1521.98
741.313	1415.49
741.505	1624.38
741.698	1827.13
741.891	1765.69
742.083	1591.61
742.276	1499.45
742.468	1790.27
742.661	1798.46
742.854	1462.59
743.046	1485.12
743.239	2222.39
743.431	1839.42
743.624	1519.93
743.816	1372.48
744.009	1659.2
744.201	1837.37
744.393	1663.29
744.586	1294.66
744.778	2103.61
744.971	1698.11
745.163	1470.78
745.355	1614.14
745.548	1730.87
745.74	1685.82
745.932	1673.53
746.125	1675.58
746.317	2357.55
746.509	1761.59
746.702	1521.98
746.894	1542.46
747.086	1970.49
747.278	2054.45
747.471	1648.96
747.663	1653.05
747.855	1921.34
748.047	2232.63
748.239	1417.54
748.431	1610.04
748.623	2251.06
748.815	2222.39
749.008	1413.44
749.2	1505.6
749.392	1896.76
749.584	1980.73
749.776	1679.68
749.968	1673.53
750.16	2320.69
750.352	1784.12
750.544	1659.2
750.736	1476.93
750.928	1993.01
751.12	1997.11
751.311	1591.61
751.503	1558.85
751.695	1833.27
751.887	1900.86
752.079	1392.96
752.271	1519.93
752.463	2435.38
752.654	2107.7
752.846	1689.92
753.038	1589.57
753.23	1601.85
753.421	1888.57
753.613	1544.51
753.805	1724.73
753.997	1923.38
754.188	2181.43
754.38	1579.33
754.572	1581.37
754.763	1681.72
754.955	2040.12
755.146	1640.76
755.338	1657.15
755.53	1958.2
755.721	1820.99
755.913	1417.54
756.104	1513.79
756.296	1868.09
756.487	2087.22
756.679	1530.17
756.87	1485.12
757.062	1636.67
757.253	2085.17
757.445	1567.04
757.636	1673.53
757.827	1814.84
758.019	2486.58
758.21	1429.82
758.401	1608
758.593	2386.22
758.784	2165.04
758.975	1530.17
759.167	1599.8
759.358	1913.14
759.549	2115.89
759.74	1575.23
759.932	1585.47
760.123	2242.87
760.314	1706.3
760.505	1849.66
760.696	1671.48
760.888	2373.94
761.079	1808.7
761.27	1554.75
761.461	1468.73
761.652	2160.95
761.843	1911.1
762.034	1653.05
762.225	1868.09
762.416	1866.04
762.607	1915.19
762.798	1724.73
762.989	1577.28
763.18	2713.9
763.371	1775.93
763.562	1579.33
763.753	1669.44
763.944	2128.18
764.135	2140.47
764.326	1896.76
764.517	1575.23
764.708	2087.22
764.899	2079.03
765.089	1687.87
765.28	1530.17
765.471	1993.01
765.662	1997.11
765.853	1640.76
766.043	1386.82
766.234	2158.9
766.425	2111.8
766.615	1694.01
766.806	1481.02
766.997	2246.96
767.187	1952.06
767.378	1648.96
767.569	1587.52
767.759	2119.99
767.95	2058.55
768.141	1913.14
768.331	1579.33
768.522	1947.96
768.712	2212.15
768.903	1569.09
769.093	1669.44
769.284	2365.75
769.474	1935.67
769.665	1493.31
769.855	1509.69
770.046	2124.08
770.236	1911.1
770.426	1808.7
770.617	1542.46
770.807	1937.72
770.998	1943.86
771.188	1751.35
771.378	1530.17
771.569	2199.86
771.759	1999.16
771.949	1511.74
772.139	1478.97
772.33	2021.69
772.52	2183.48
772.71	1618.24
772.9	1616.19
773.09	2365.75
773.281	2328.88
773.471	1593.66
773.661	1675.58
773.851	2146.61
774.041	1855.8
774.231	1591.61
774.421	1833.27
774.611	2349.36
774.802	1954.1
774.992	1737.02
775.182	1558.85
775.372	1904.95
775.562	2150.71
775.752	1622.33
775.942	1769.79
776.131	2408.75
776.321	2160.95
776.511	1636.67
776.701	1540.41
776.891	2214.2
777.081	1698.11
777.271	1767.74
777.461	1786.17
777.651	2128.18
777.84	2263.35
778.03	1962.3
778.22	1618.24
778.41	2363.7
778.599	1814.84
778.789	1888.57
778.979	1509.69
779.169	2165.04
779.358	2017.59
779.548	1997.11
779.738	1653.05
779.927	2148.66
780.117	1724.73
780.307	1761.59
780.496	1464.64
780.686	2076.98
780.875	2289.97
781.065	1671.48
781.254	1732.92
781.444	2060.6
781.633	1894.71
781.823	1636.67
782.012	1599.8
782.202	1886.52
782.391	1962.3
782.581	1683.77
782.77	1962.3
782.96	2201.91
783.149	2054.45
783.338	1706.3
783.528	1605.95
783.717	2136.37
783.906	2275.63
784.096	1882.42
784.285	1556.8
784.474	1845.56
784.663	1761.59
784.853	1835.32
785.042	1806.65
785.231	1921.34
785.42	2150.71
785.61	1913.14
785.799	1581.37
785.988	1833.27
786.177	1755.45
786.366	1786.17
786.555	1866.04
786.744	2136.37
786.933	2019.64
787.122	1589.57
787.312	1595.71
787.501	1792.31
787.69	2126.13
787.879	1696.06
788.068	1614.14
788.257	1651
788.445	1941.82
788.634	1749.31
788.823	1618.24
789.012	2638.13
789.201	2271.54
789.39	1804.6
789.579	1689.92
789.768	2091.32
789.957	1968.44
790.145	1700.16
790.334	1349.95
790.523	1866.04
790.712	1892.66
790.9	1853.75
791.089	1571.13
791.278	2199.86
791.467	1960.25
791.655	1993.01
791.844	2224.44
792.033	1917.24
792.221	2007.35
792.41	1780.03
792.599	1577.28
792.787	2109.75
792.976	2109.75
793.164	1642.81
793.353	1636.67
793.541	2193.72
793.73	2226.48
793.918	1788.22
794.107	1655.1
794.295	1923.38
794.484	2027.83
794.672	1765.69
794.861	1714.49
795.049	2165.04
795.238	2421.04
795.426	1552.7
795.614	1900.86
795.803	2124.08
795.991	2470.19
796.179	1691.96
796.368	1657.15
796.556	2300.21
796.744	1759.55
796.932	1655.1
797.121	1651
797.309	1997.11
797.497	2199.86
797.685	1786.17
797.874	1743.16
798.062	1978.68
798.25	2341.17
798.438	1595.71
798.626	1728.83
798.814	2109.75
799.002	2568.49
799.19	1964.34
799.378	1890.62
799.566	2322.74
799.755	2500.91
799.943	1919.29
800.131	1780.03
800.318	2066.74
800.506	2136.37
800.694	1751.35
800.882	1896.76
801.07	2445.62
801.258	1935.67
801.446	1767.74
801.634	1808.7
801.822	2054.45
802.01	2119.99
802.197	1734.97
802.385	1929.53
802.573	2169.14
802.761	1913.14
802.949	1800.51
803.136	1632.57
803.324	2308.4
803.512	2101.56
803.699	1933.62
803.887	1634.62
804.075	2418.99
804.262	2083.13
804.45	1763.64
804.638	1921.34
804.825	1782.07
805.013	1882.42
805.201	1907
805.388	1810.75
805.576	2218.29
805.763	2545.97
805.951	1745.21
806.138	2036.02
806.326	2562.35
806.513	2271.54
806.701	1931.58
806.888	1782.07
807.075	2140.47
807.263	2681.13
807.45	1837.37
807.638	1954.1
807.825	2605.36
808.012	2451.76
808.2	1880.38
808.387	2140.47
808.574	2173.24
808.761	2527.53
808.949	1929.53
809.136	2005.3
809.323	2068.79
809.51	2128.18
809.698	2292.02
809.885	2029.88
810.072	2287.92
810.259	2443.57
810.446	2025.78
810.633	1874.23
810.82	2470.19
811.008	2615.6
811.195	2124.08
811.382	1980.73
811.569	2236.72
811.756	1982.78
811.943	1945.91
812.13	1964.34
812.317	2134.32
812.504	2160.95
812.691	2074.93
812.878	2111.8
813.064	2640.17
813.251	2265.39
813.438	1839.42
813.625	2189.62
813.812	2294.07
813.999	2263.35
814.186	2021.69
814.372	2070.84
814.559	2462
814.746	2644.27
814.933	2083.13
815.12	2249.01
815.306	2064.69
815.493	2040.12
815.68	2036.02
815.866	2140.47
816.053	2556.21
816.24	2820.39
816.426	2222.39
816.613	1925.43
816.799	2437.42
816.986	2451.76
817.173	2066.74
817.359	1964.34
817.546	2394.42
817.732	2079.03
817.919	1870.14
818.105	2160.95
818.292	2181.43
818.478	2289.97
818.665	2236.72
818.851	1952.06
819.037	2812.2
819.224	2382.13
819.41	1984.82
819.597	1917.24
819.783	2767.15
819.969	2447.66
820.156	2109.75
820.342	1935.67
820.528	3012.9
820.714	2287.92
820.901	2324.79
821.087	2076.98
821.273	2722.09
821.459	2418.99
821.646	2031.93
821.832	2122.04
822.018	2505.01
822.204	2312.5
822.39	2091.32
822.576	1915.19
822.762	2453.81
822.948	2466.1
823.134	2150.71
823.32	2158.9
823.507	2107.7
823.693	2126.13
823.879	2459.95
824.065	2066.74
824.25	2277.68
824.436	2197.81
824.622	2136.37
824.808	1900.86
824.994	2179.38
825.18	2152.76
825.366	1958.2
825.552	2173.24
825.738	2351.41
825.923	2562.35
826.109	2441.52
826.295	2042.17
826.481	2244.92
826.667	2308.4
826.852	2312.5
827.038	2113.85
827.224	2564.4
827.409	2650.41
827.595	1962.3
827.781	2171.19
827.966	2599.21
828.152	2593.07
828.338	2044.21
828.523	1968.44
828.709	2232.63
828.894	2746.67
829.08	2105.65
829.266	2019.64
829.451	2253.11
829.637	2441.52
829.822	2240.82
830.008	2027.83
830.193	2599.21
830.378	2730.28
830.564	2103.61
830.749	1894.71
830.935	2464.05
831.12	2476.34
831.305	2003.25
831.491	2214.2
831.676	1982.78
831.861	2500.91
832.047	2058.55
832.232	1923.38
832.417	2603.31
832.602	2470.19
832.788	2099.51
832.973	2038.07
833.158	2453.81
833.343	2347.31
833.528	2199.86
833.714	2234.68
833.899	2584.88
834.084	2763.05
834.269	2312.5
834.454	2181.43
834.639	2574.64
834.824	2283.83
835.009	2136.37
835.194	2289.97
835.379	2529.58
835.564	2871.59
835.749	2150.71
835.934	2046.26
836.119	2615.6
836.304	2468.14
836.489	1962.3
836.674	2257.2
836.859	2201.91
837.044	2728.24
837.228	2154.8
837.413	2036.02
837.598	2392.37
837.783	2564.4
837.968	2187.57
838.152	2036.02
838.337	1853.75
838.522	2611.5
838.707	2541.87
838.891	2218.29
839.076	2470.19
839.261	2566.45
839.445	1984.82
839.63	2138.42
839.815	2646.32
839.999	2306.35
840.184	2013.49
840.368	2181.43
840.553	2646.32
840.737	2646.32
840.922	2119.99
841.106	2042.17
841.291	2138.42
841.475	2357.55
841.66	1900.86
841.844	2054.45
842.029	3125.54
842.213	2058.55
842.397	2068.79
842.582	2013.49
842.766	2681.13
842.951	2443.57
843.135	2003.25
843.319	2195.76
843.504	2355.51
843.688	2611.5
843.872	1976.63
844.056	2124.08
844.241	2476.34
844.425	2287.92
844.609	2355.51
844.793	1919.29
844.977	2656.56
845.161	2418.99
845.346	1960.25
845.53	2128.18
845.714	2341.17
845.898	2713.9
846.082	1886.52
846.266	1960.25
846.45	2449.71
846.634	2367.79
846.818	2050.36
847.002	2197.81
847.186	2519.34
847.37	2109.75
847.554	2017.59
847.738	2210.1
847.922	2351.41
848.106	2476.34
848.29	2007.35
848.473	2163
848.657	2484.53
848.841	2296.11
849.025	2029.88
849.209	1820.99
849.392	2558.25
849.576	2230.58
849.76	1859.9
849.944	2220.34
850.127	2703.66
850.311	2079.03
850.495	1960.25
850.678	1913.14
850.862	2593.07
851.046	2847.02
851.229	2447.66
851.413	2015.54
851.596	2345.27
851.78	2249.01
851.964	2222.39
852.147	2103.61
852.331	3090.73
852.514	2625.84
852.698	2105.65
852.881	1960.25
853.065	2453.81
853.248	2300.21
853.431	2292.02
853.615	2154.8
853.798	2959.66
853.982	2388.27
854.165	2148.66
854.348	1935.67
854.532	2144.56
854.715	2292.02
854.898	2163
855.081	2087.22
855.265	2703.66
855.448	2785.58
855.631	2058.55
855.814	2079.03
855.997	2515.25
856.181	2343.22
856.364	2156.85
856.547	1855.8
856.73	2361.65
856.913	2406.7
857.096	1919.29
857.279	2222.39
857.462	2210.1
857.645	2556.21
857.828	2201.91
858.011	2255.15
858.194	2074.93
858.377	2451.76
858.56	1945.91
858.743	2240.82
858.926	2251.06
859.109	2384.18
859.292	1984.82
859.475	1878.33
859.658	2677.04
859.841	2431.28
860.023	1984.82
860.206	1861.94
860.389	2388.27
860.572	2599.21
860.755	2099.51
860.937	2056.5
861.12	2332.98
861.303	2279.73
861.486	2046.26
861.668	2009.4
861.851	2464.05
862.034	2459.95
862.216	2095.41
862.399	1812.79
862.581	2218.29
862.764	2722.09
862.947	2091.32
863.129	1931.58
863.312	2052.41
863.494	2754.86
863.677	2349.36
863.859	1784.12
864.042	2486.58
864.224	2603.31
864.406	2214.2
864.589	1907
864.771	2275.63
864.954	2052.41
865.136	2052.41
865.318	1820.99
865.501	2470.19
865.683	1931.58
865.865	2021.69
866.048	1986.87
866.23	2304.31
866.412	2316.59
866.594	1798.46
866.777	2031.93
866.959	2509.1
867.141	2101.56
867.323	2181.43
867.505	2160.95
867.687	2214.2
867.869	2179.38
868.052	2079.03
868.234	1786.17
868.416	2185.52
868.598	2533.68
868.78	2027.83
868.962	1825.08
869.144	2459.95
869.326	2427.18
869.508	1907
869.69	1980.73
869.872	2171.19
870.054	2517.29
870.236	1808.7
870.417	1954.1
870.599	2072.89
870.781	2625.84
870.963	2113.85
871.145	1831.23
871.327	2023.73
871.508	2470.19
871.69	2003.25
871.872	2140.47
872.054	2320.69
872.235	2328.88
872.417	2122.04
872.599	1931.58
872.78	2562.35
872.962	2216.24
873.144	1814.84
873.325	2115.89
873.507	2560.3
873.689	2361.65
873.87	1839.42
874.052	2076.98
874.233	2154.8
874.415	2611.5
874.596	2105.65
874.778	1814.84
874.959	2238.77
875.141	2462
875.322	2021.69
875.503	2132.28
875.685	2414.9
875.866	1890.62
876.048	1945.91
876.229	1980.73
876.41	2158.9
876.592	2439.47
876.773	2019.64
876.954	1915.19
877.136	2666.8
877.317	2222.39
877.498	1794.36
877.679	2011.45
877.86	2433.33
878.042	2255.15
878.223	1980.73
878.404	2429.23
878.585	2572.59
878.766	2627.89
878.947	2271.54
879.128	2322.74
879.309	2517.29
879.49	2535.73
879.672	2195.76
879.853	2210.1
880.034	2156.85
880.215	2283.83
880.396	2074.93
880.576	2070.84
880.757	2224.44
880.938	2652.46
881.119	2044.21
881.3	2124.08
881.481	2304.31
881.662	3287.33
881.843	2158.9
882.023	2009.4
882.204	2427.18
882.385	2365.75
882.566	2101.56
882.747	2033.97
882.927	2369.84
883.108	2517.29
883.289	2134.32
883.469	2369.84
883.65	2429.23
883.831	2445.62
884.011	2396.46
884.192	2259.25
884.373	2648.36
884.553	2363.7
884.734	2242.87
884.914	2439.47
885.095	3244.32
885.275	2826.54
885.456	2386.22
885.636	2107.7
885.817	2470.19
885.997	2494.77
886.178	2156.85
886.358	2349.36
886.538	2517.29
886.719	3438.88
886.899	2099.51
887.08	2380.08
887.26	2779.43
887.44	2232.63
887.621	2263.35
887.801	2412.85
887.981	2928.94
888.161	2767.15
888.342	2287.92
888.522	2257.2
888.702	2752.81
888.882	2896.17
889.062	2439.47
889.242	2052.41
889.423	3041.57
889.603	2746.67
889.783	2398.51
889.963	2445.62
890.143	2844.97
890.323	2918.7
890.503	2294.07
890.683	2347.31
890.863	2535.73
891.043	2683.18
891.223	2349.36
891.403	2505.01
891.583	2681.13
891.763	2582.83
891.943	2416.94
892.122	2357.55
892.302	2615.6
892.482	2625.84
892.662	2576.69
892.842	2349.36
893.022	2631.98
893.201	2584.88
893.381	2660.65
893.561	2269.49
893.741	2822.44
893.92	2746.67
894.1	2576.69
894.28	2525.49
894.459	2933.03
894.639	2763.05
894.819	2470.19
894.998	2519.34
895.178	2877.74
895.357	2773.29
895.537	2285.87
895.716	2341.17
895.896	2681.13
896.075	3025.19
896.255	2498.86
896.434	2316.59
896.614	2906.41
896.793	3010.86
896.973	2478.38
897.152	2502.96
897.331	2754.86
897.511	2918.7
897.69	2361.65
897.87	2529.58
898.049	2722.09
898.228	2650.41
898.407	2701.61
898.587	2646.32
898.766	2548.01
898.945	2826.54
899.124	2746.67
899.304	2574.64
899.483	2933.03
899.662	3209.51
899.841	2353.46
900.02	2511.15
900.199	3055.91
900.378	2783.53
900.557	2418.99
900.737	2263.35
900.916	2787.63
901.095	3041.57
901.274	2683.18
901.453	2375.99
901.632	2507.06
901.811	2652.46
901.989	2324.79
902.168	2406.7
902.347	2873.64
902.526	2640.17
902.705	2449.71
902.884	2402.61
903.063	3084.58
903.242	3051.81
903.42	2435.38
903.599	2609.45
903.778	2996.52
903.957	3053.86
904.135	2611.5
904.314	2472.24
904.493	2662.7
904.672	2822.44
904.85	2451.76
905.029	2337.07
905.207	2750.76
905.386	3402.02
905.565	2345.27
905.743	2427.18
905.922	2525.49
906.1	2961.7
906.279	2287.92
906.457	2392.37
906.636	2505.01
906.814	2500.91
906.993	2455.86
907.171	2390.32
907.35	2793.77
907.528	2840.87
907.707	2726.19
907.885	2263.35
908.063	3174.69
908.242	2406.7
908.42	2509.1
908.598	2048.31
908.777	2900.27
908.955	2685.23
909.133	2455.86
909.311	2263.35
909.49	2562.35
909.668	2603.31
909.846	2310.45
910.024	2156.85
910.202	2748.72
910.38	2820.39
910.559	2375.99
910.737	2210.1
910.915	2748.72
911.093	2672.94
911.271	2435.38
911.449	2685.23
911.627	2603.31
911.805	3098.92
911.983	2228.53
912.161	2267.44
912.339	2650.41
912.517	2857.26
912.695	2464.05
912.872	2263.35
913.05	2378.03
913.228	2603.31
913.406	2335.03
913.584	2238.77
913.762	2718
913.939	2449.71
914.117	2228.53
914.295	2257.2
914.473	2652.46
914.65	2625.84
914.828	2175.28
915.006	2373.94
915.184	2197.81
915.361	2607.41
915.539	2351.41
915.716	2445.62
915.894	2492.72
916.072	2623.79
916.249	2418.99
916.427	2298.16
916.604	2185.52
916.782	2597.17
916.959	2181.43
917.137	2224.44
917.314	2550.06
917.492	2599.21
917.669	2308.4
917.847	2308.4
918.024	2646.32
918.201	2275.63
918.379	2265.39
918.556	2294.07
918.733	2593.07
918.911	2427.18
919.088	2507.06
919.265	2322.74
919.442	2406.7
919.62	2468.14
919.797	2130.23
919.974	2087.22
920.151	2492.72
920.328	2459.95
920.506	2210.1
920.683	2486.58
920.86	2156.85
921.037	2242.87
921.214	2249.01
921.391	2066.74
921.568	2539.82
921.745	2193.72
921.922	2150.71
922.099	2021.69
922.276	2552.11
922.453	2406.7
922.63	2070.84
922.807	2418.99
922.984	2459.95
923.161	2044.21
923.338	2109.75
923.514	1964.34
923.691	2236.72
923.868	2392.37
924.045	2044.21
924.222	1872.18
924.399	2363.7
924.575	2681.13
924.752	2203.96
924.929	2138.42
925.105	2341.17
925.282	2160.95
925.459	2117.94
925.635	2009.4
925.812	2238.77
925.989	2130.23
926.165	2083.13
926.342	1765.69
926.518	1997.11
926.695	2189.62
926.871	2042.17
927.048	1767.74
927.224	2414.9
927.401	1988.92
927.577	2083.13
927.754	1759.55
927.93	2406.7
928.107	2418.99
928.283	1935.67
928.459	2038.07
928.636	2255.15
928.812	2062.65
928.988	1730.87
929.165	1718.59
929.341	2134.32
929.517	2224.44
929.693	2255.15
929.87	1632.57
930.046	2349.36
930.222	1993.01
930.398	1749.31
930.574	1972.54
930.751	2058.55
930.927	2119.99
931.103	1835.32
931.279	1945.91
931.455	1831.23
931.631	2101.56
931.807	1685.82
931.983	1694.01
932.159	1714.49
932.335	2085.17
932.511	1829.18
932.687	1773.88
932.863	2029.88
933.039	1837.37
933.215	1571.13
933.391	1655.1
933.566	1935.67
933.742	1835.32
933.918	1679.68
934.094	1521.98
934.27	1956.15
934.445	1995.06
934.621	1708.35
934.797	1495.36
934.973	2023.73
935.148	1880.38
935.324	1319.23
935.5	1362.24
935.675	1943.86
935.851	1786.17
936.027	1413.44
936.202	1540.41
936.378	1816.89
936.553	1655.1
936.729	1775.93
936.904	1325.38
937.08	1345.86
937.255	1476.93
937.431	1274.18
937.606	1204.55
937.782	1397.06
937.957	1552.7
938.133	1370.43
938.308	1157.44
938.483	1429.82
938.659	1263.94
938.834	1298.75
939.009	1165.64
939.185	1337.66
939.36	1177.92
939.535	852.3
939.71	1163.59
939.886	1554.75
940.061	1345.86
940.236	1253.7
940.411	1071.43
940.586	1319.23
940.761	1405.25
940.937	985.41
941.112	919.88
941.287	1257.79
941.462	1358.14
941.637	876.87
941.812	936.26
941.987	1280.32
942.162	1169.73
942.337	1077.57
942.512	989.51
942.687	1403.2
942.862	1239.36
943.037	782.67
943.212	538.96
943.386	958.79
943.561	1085.76
943.736	1120.58
943.911	1282.37
944.086	1321.28
944.26	1239.36
944.435	917.83
944.61	1016.13
944.785	1388.86
944.959	1642.81
945.134	962.89
945.309	899.4
945.483	874.82
945.658	1317.19
945.833	559.44
946.007	747.85
946.182	1464.64
946.357	821.58
946.531	788.81
946.706	813.38
946.88	684.36
947.055	1130.82
947.229	733.51
947.404	618.83
947.578	1251.65
947.752	874.82
947.927	702.79
948.101	713.03
948.276	1124.68
948.45	1169.73
948.624	966.98
948.799	790.86
948.973	1169.73
949.147	727.37
949.321	846.15
949.496	833.86
949.67	1329.47
949.844	1128.77
950.018	805.19
950.193	895.3
950.367	1577.28
950.541	837.96
950.715	995.65
950.889	956.74
951.063	1005.89
951.237	1112.39
951.411	598.35
951.585	627.02
951.759	1100.1
951.933	1055.05
952.107	883.02
952.281	1012.04
952.455	1413.44
952.629	1163.59
952.803	809.29
952.977	825.67
953.151	1161.54
953.325	1145.16
953.499	971.08
953.672	655.69
953.846	891.21
954.02	1012.04
954.194	788.81
954.368	756.04
954.541	1284.42
954.715	948.55
954.889	905.54
955.062	715.08
955.236	1036.61
955.41	952.65
955.583	948.55
955.757	641.36
955.93	954.69
956.104	758.09
956.278	815.43
956.451	942.41
956.625	1270.08
956.798	1567.04
956.972	1136.96
957.145	702.79
957.319	997.7
957.492	1036.61
957.665	973.13
957.839	719.18
958.012	1104.2
958.185	862.54
958.359	850.25
958.532	1057.09
958.705	1165.64
958.879	1120.58
959.052	895.3
959.225	659.79
959.398	1018.18
959.572	1136.96
959.745	715.08
959.918	844.1
960.091	987.46
960.264	1149.25
960.438	680.27
960.611	739.66
960.784	1231.17
960.957	928.07
961.13	1073.48
961.303	831.82
961.476	1044.81
961.649	1251.65
961.822	727.37
961.995	852.3
962.168	1265.99
962.341	1038.66
962.514	784.71
962.686	756.04
962.859	1151.3
963.032	1114.44
963.205	792.91
963.378	635.21
963.551	1128.77
963.723	1163.59
963.896	854.34
964.069	885.06
964.242	1059.14
964.414	1358.14
964.587	862.54
964.76	833.86
964.932	1093.96
965.105	1073.48
965.278	854.34
965.45	753.99
965.623	1128.77
965.795	1190.21
965.968	809.29
966.14	729.42
966.313	913.74
966.485	1009.99
966.658	844.1
966.83	706.89
967.003	1220.93
967.175	1155.4
967.348	772.43
967.52	880.97
967.692	1388.86
967.865	1163.59
968.037	833.86
968.209	1053
968.382	1009.99
968.554	1216.83
968.726	708.94
968.898	715.08
969.071	1067.33
969.243	1132.87
969.415	829.77
969.587	840.01
969.759	1491.26
969.932	1155.4
970.104	764.23
970.276	428.37
970.448	905.54
970.62	874.82
970.792	964.93
970.964	731.47
971.136	1395.01
971.308	1161.54
971.48	756.04
971.652	772.43
971.824	1360.19
971.996	899.4
972.168	837.96
972.339	840.01
972.511	1218.88
972.683	954.69
972.855	983.37
973.027	737.61
973.199	1173.83
973.37	1175.88
973.542	915.78
973.714	952.65
973.886	1001.8
974.057	1306.95
974.229	710.99
974.401	778.57
974.572	772.43
974.744	647.5
974.915	702.79
975.087	704.84
975.259	1382.72
975.43	799.05
975.602	692.55
975.773	665.93
975.945	833.86
976.116	1222.98
976.288	670.03
976.459	1024.33
976.63	895.3
976.802	997.7
976.973	653.64
977.145	837.96
977.316	1356.1
977.487	1014.09
977.659	801.1
977.83	727.37
978.001	1345.86
978.172	1073.48
978.344	622.92
978.515	641.36
978.686	854.34
978.857	1292.61
979.028	690.51
979.2	610.64
979.371	1263.94
979.542	956.74
979.713	809.29
979.884	436.56
980.055	764.23
980.226	866.63
980.397	698.7
980.568	547.15
980.739	1153.35
980.91	971.08
981.081	883.02
981.252	614.73
981.423	1046.85
981.594	1161.54
981.765	590.16
981.936	862.54
982.106	993.61
982.277	1182.02
982.448	624.97
982.619	817.48
982.79	819.53
982.96	1087.81
983.131	719.18
983.302	530.77
983.472	889.16
983.643	954.69
983.814	739.66
983.984	612.68
984.155	772.43
984.326	1167.68
984.496	723.27
984.667	680.27
984.837	670.03
985.008	1190.21
985.178	807.24
985.349	794.95
985.519	829.77
985.69	788.81
985.86	620.88
986.031	549.2
986.201	946.5
986.371	966.98
986.542	491.85
986.712	434.51
986.882	1026.37
987.053	1106.24
987.223	547.15
987.393	792.91
987.563	717.13
987.734	1022.28
987.904	919.88
988.074	624.97
988.244	989.51
988.414	735.56
988.585	622.92
988.755	784.71
988.925	770.38
989.095	1323.33
989.265	487.76
989.435	698.7
989.605	1053
989.775	1063.24
989.945	952.65
990.115	543.05
990.285	860.49
990.455	919.88
990.625	727.37
990.795	577.87
990.965	1155.4
991.134	670.03
991.304	598.35
991.474	543.05
991.644	954.69
991.814	1083.72
991.984	452.94
992.153	561.48
992.323	766.28
992.493	780.62
992.662	373.07
992.832	778.57
993.002	903.5
993.171	837.96
993.341	387.41
993.511	637.26
993.68	633.16
993.85	944.45
994.019	473.42
994.189	510.29
994.358	876.87
994.528	665.93
994.697	209.23
994.867	397.65
995.036	1030.47
995.206	641.36
995.375	446.8
995.544	555.34
995.714	887.11
995.883	649.55
996.052	794.95
996.222	317.78
996.391	1200.45
996.56	807.24
996.73	328.02
996.899	371.02
997.068	1136.96
997.237	807.24
997.406	481.61
997.576	260.43
997.745	848.2
997.914	903.5
998.083	192.85
998.252	454.99
998.421	792.91
998.59	610.64
998.759	362.83
998.928	235.86
999.097	1003.85
999.266	862.54
999.435	553.29
999.604	215.38
999.773	1196.36
999.942	694.6
1000.111	266.58
1000.28	248.15
1000.448	448.85
1000.617	565.58
1000.786	635.21
1000.955	280.91
1001.124	831.82
1001.292	1317.19
1001.461	305.49
1001.63	375.12
1001.798	1024.33
1001.967	1050.95
1002.136	250.19
1002.304	305.49
1002.473	788.81
1002.642	659.79
1002.81	354.64
1002.979	420.17
1003.147	799.05
1003.316	1298.75
1003.484	344.4
1003.653	276.82
1003.821	876.87
1003.99	598.35
1004.158	504.14
1004.327	454.99
1004.495	815.43
1004.663	555.34
1004.832	473.42
1005	192.85
1005.168	813.38
1005.337	749.9
1005.505	258.39
1005.673	493.9
1005.842	889.16
1006.01	874.82
1006.178	201.04
1006.346	289.1
1006.514	766.28
1006.683	1009.99
1006.851	305.49
1007.019	174.42
1007.187	452.94
1007.355	209.23
1007.523	201.04
1007.691	213.33
1007.859	297.3
1008.027	983.37
1008.195	418.13
1008.363	182.61
1008.531	862.54
1008.699	459.09
1008.867	194.9
1009.035	186.71
1009.203	928.07
1009.37	551.24
1009.538	362.83
1009.706	655.69
1009.874	682.31
1010.042	596.3
1010.209	219.47
1010.377	223.57
1010.545	813.38
1010.713	588.11
1010.88	201.04
1011.048	289.1
1011.216	498
1011.383	1096
1011.551	182.61
1011.718	143.7
1011.886	776.52
1012.054	596.3
1012.221	203.09
1012.389	274.77
1012.556	457.04
1012.724	1026.37
1012.891	418.13
1013.058	112.98
1013.226	743.75
1013.393	760.14
1013.561	92.5
1013.728	112.98
1013.895	786.76
1014.063	715.08
1014.23	129.36
1014.397	225.62
1014.565	690.51
1014.732	510.29
1014.899	178.51
1015.066	164.18
1015.233	608.59
1015.401	708.94
1015.568	225.62
1015.735	354.64
1015.902	579.92
1016.069	584.01
1016.236	162.13
1016.403	76.12
1016.57	321.87
1016.737	745.8
1016.904	149.84
1017.071	80.21
1017.238	342.35
1017.405	747.85
1017.572	194.9
1017.739	399.7
1017.906	721.23
1018.073	815.43
1018.24	176.47
1018.407	213.33
1018.573	831.82
1018.74	493.9
1018.907	194.9
1019.074	0.34
1019.241	842.06
1019.407	553.29
1019.574	94.55
1019.741	100.69
1019.907	657.74
1020.074	594.25
1020.241	-120.49
1020.407	74.07
1020.574	665.93
1020.74	665.93
1020.907	137.56
1021.073	69.97
1021.24	997.7
1021.406	850.25
1021.573	92.5
1021.739	96.6
1021.906	717.13
1022.072	428.37
1022.239	172.37
1022.405	84.31
1022.571	575.82
1022.738	262.48
1022.904	84.31
1023.07	170.32
1023.237	553.29
1023.403	768.33
1023.569	94.55
1023.735	96.6
1023.902	667.98
1024.068	524.62
1024.234	47.44
1024.4	61.78
1024.566	543.05
1024.732	645.45
1024.898	80.21
1025.065	-36.52
1025.231	631.12
1025.397	442.7
1025.563	133.46
1025.729	22.87
1025.895	72.02
1026.061	248.15
1026.227	-24.23
1026.392	88.4
1026.558	815.43
1026.724	608.59
1026.89	88.4
1027.056	182.61
1027.222	532.81
1027.388	305.49
1027.553	-3.75
1027.719	43.35
1027.885	854.34
1028.051	588.11
1028.216	-73.39
1028.382	106.84
1028.548	616.78
1028.713	383.31
1028.879	-9.9
1029.045	227.67
1029.21	766.28
1029.376	719.18
1029.541	209.23
1029.707	117.08
1029.873	643.4
1030.038	631.12
1030.204	-26.28
1030.369	49.49
1030.534	594.25
1030.7	334.16
1030.865	137.56
1031.031	22.87
1031.196	526.67
1031.361	432.46
1031.527	-16.04
1031.692	-124.58
1031.857	-20.14
1032.023	567.63
1032.188	-30.38
1032.353	29.01
1032.518	698.7
1032.684	473.42
1032.849	-65.19
1033.014	88.4
1033.179	604.49
1033.344	510.29
1033.509	123.22
1033.674	59.73
1033.839	461.13
1034.004	575.82
1034.17	6.49
1034.335	-85.67
1034.5	381.26
1034.664	332.11
1034.829	0.34
1034.994	18.77
1035.159	457.04
1035.324	391.5
1035.489	-46.76
1035.654	-42.67
1035.819	749.9
1035.984	485.71
1036.148	92.5
1036.313	106.84
1036.478	686.41
1036.643	303.44
1036.807	-20.14
1036.972	-50.86
1037.137	733.51
1037.301	438.61
1037.466	-204.46
1037.631	10.58
1037.795	620.88
1037.96	416.08
1038.124	227.67
1038.289	-46.76
1038.454	547.15
1038.618	532.81
1038.783	43.35
1038.947	76.12
1039.111	420.17
1039.276	254.29
1039.44	-46.76
1039.605	457.04
1039.769	332.11
1039.933	399.7
1040.098	112.98
1040.262	198.99
1040.426	665.93
1040.591	498
1040.755	-87.72
1040.919	8.53
1041.083	500.05
1041.248	358.74
1041.412	-126.63
1041.576	-161.45
1041.74	330.06
1041.904	538.96
1042.068	-65.19
1042.232	-63.15
1042.397	649.55
1042.561	401.74
1042.725	-165.54
1042.889	219.47
1043.053	498
1043.217	479.57
1043.381	84.31
1043.544	-167.59
1043.708	633.16
1043.872	125.27
1044.036	-233.13
1044.2	-167.59
1044.364	764.23
1044.528	717.13
1044.691	1382.72
1044.855	-140.97
1045.019	616.78
1045.183	504.14
1045.346	14.68
1045.51	-75.43
1045.674	463.18
1045.837	477.52
1046.001	-71.34
1046.165	-18.09
1046.328	895.3
1046.492	440.65
1046.655	203.09
1046.819	-44.71
1046.983	305.49
1047.146	411.98
1047.31	61.78
1047.473	-224.94
1047.636	379.22
1047.8	110.93
1047.963	12.63
1048.127	-140.97
1048.29	260.43
