Data from Ink_Intensity_USB4F045381__183__00183.txt Node

Date: Mon Jul 17 11:42:59 EDT 2023
User: mmckonesweet
Spectrometer: USB4F04538
Trigger mode: 4
Integration Time (sec): 9.000000E-1
Scans to average: 1
Electric dark correction enabled: true
Nonlinearity correction enabled: false
Boxcar width: 0
XAxis mode: Wavelengths
Number of Pixels in Spectrum: 3648
>>>>>Begin Spectral Data<<<<<
345.52	-1029.62
345.736	-1029.62
345.952	-1029.62
346.168	-984.56
346.384	-1000.94
346.6	-210.43
346.816	-251.39
347.032	-208.38
347.248	360.95
347.464	-251.39
347.68	-91.65
347.896	96.77
348.112	369.15
348.328	-85.5
348.544	-50.69
348.76	31.23
348.975	291.32
349.191	-171.52
349.407	-171.52
349.623	160.25
349.839	-54.78
350.055	-103.93
350.27	27.14
350.486	186.88
350.702	293.37
350.918	162.3
351.133	-175.61
351.349	238.08
351.565	328.19
351.781	-210.43
351.996	27.14
352.212	256.51
352.428	-228.86
352.644	-239.1
352.859	-222.72
353.075	201.21
353.291	141.82
353.506	-177.66
353.722	-181.76
353.938	-17.92
354.153	477.69
354.369	16.9
354.584	-189.95
354.8	287.23
355.016	-298.49
355.231	-194.05
355.447	-62.98
355.662	82.43
355.878	844.28
356.093	-335.35
356.309	-7.68
356.524	-230.91
356.74	281.08
356.955	-206.33
357.171	-81.41
357.386	107.01
357.602	-140.8
357.817	-52.74
358.033	-210.43
358.248	367.1
358.464	92.67
358.679	-189.95
358.895	-325.12
359.11	-52.74
359.325	373.24
359.541	64
359.756	-71.17
359.972	-259.58
360.187	147.97
360.402	-224.76
360.618	-222.72
360.833	983.54
361.048	113.15
361.264	-179.71
361.479	-99.84
361.694	8.7
361.909	227.84
362.125	-206.33
362.34	-99.84
362.555	240.12
362.77	123.39
362.986	-296.44
363.201	-220.67
363.416	131.58
363.631	115.2
363.847	-214.52
364.062	-251.39
364.277	154.11
364.492	156.16
364.707	-132.61
364.922	-419.32
365.138	305.66
365.353	332.28
365.568	-308.73
365.783	-142.85
365.998	66.05
366.213	565.75
366.428	-210.43
366.643	-50.69
366.858	190.97
367.073	229.88
367.288	-79.36
367.503	-267.77
367.718	68.09
367.933	287.23
368.148	-400.89
368.363	-75.26
368.578	64
368.793	518.65
369.008	-75.26
369.223	-212.48
369.438	188.93
369.653	401.91
369.868	-216.57
370.083	-189.95
370.298	47.62
370.513	424.44
370.728	-13.82
370.943	-187.9
371.157	-173.57
371.372	477.69
371.587	-278.01
371.802	-345.59
372.017	41.47
372.232	465.4
372.446	-54.78
372.661	-237.05
372.876	137.73
373.091	162.3
373.306	-169.47
373.52	-273.92
373.735	-120.32
373.95	414.2
374.165	-155.13
374.379	-103.93
374.594	-95.74
374.809	6.66
375.023	2.56
375.238	-310.78
375.453	252.41
375.667	-228.86
375.882	-173.57
376.097	-241.15
376.311	31.23
376.526	14.85
376.741	-173.57
376.955	59.9
377.17	492.02
377.384	477.69
377.599	-101.89
377.813	-255.48
378.028	610.81
378.242	150.01
378.457	-108.03
378.672	-386.55
378.886	86.53
379.101	0.51
379.315	-335.35
379.53	-153.09
379.744	182.78
379.958	233.98
380.173	-161.28
380.387	-204.28
380.602	162.3
380.816	-126.46
381.031	-163.33
381.245	-134.65
381.459	137.73
381.674	2658.78
381.888	-255.48
382.103	109.05
382.317	-177.66
382.531	485.88
382.746	-67.07
382.96	-189.95
383.174	-44.54
383.388	487.93
383.603	-69.12
383.817	-292.35
384.031	158.21
384.246	563.7
384.46	-44.54
384.674	346.62
384.888	23.04
385.103	35.33
385.317	-265.72
385.531	-48.64
385.745	309.76
385.959	254.46
386.174	-161.28
386.388	-280.06
386.602	23.04
386.816	-200.19
387.03	-151.04
387.244	-187.9
387.458	49.66
387.672	354.81
387.887	-278.01
388.101	-267.77
388.315	289.28
388.529	49.66
388.743	-239.1
388.957	-251.39
389.171	301.56
389.385	-169.47
389.599	-136.7
389.813	23.04
390.027	150.01
390.241	657.91
390.455	-210.43
390.669	-157.18
390.883	-77.31
391.097	324.09
391.311	47.62
391.525	-148.99
391.738	197.12
391.952	162.3
392.166	-71.17
392.38	-204.28
392.594	274.94
392.808	291.32
393.022	-99.84
393.236	-167.42
393.449	141.82
393.663	221.69
393.877	-280.06
394.091	-185.85
394.305	-24.06
394.518	-194.05
394.732	-318.97
394.946	-175.61
395.16	383.48
395.373	184.83
395.587	-257.53
395.801	-226.81
396.015	219.64
396.228	264.7
396.442	-241.15
396.656	-339.45
396.869	276.99
397.083	408.06
397.297	-99.84
397.51	-153.09
397.724	397.82
397.938	125.44
398.151	-288.25
398.365	-300.54
398.578	135.68
398.792	332.28
399.005	0.51
399.219	-89.6
399.433	182.78
399.646	262.65
399.86	47.62
400.073	-71.17
400.287	231.93
400.5	-40.45
400.714	-81.41
400.927	-58.88
401.141	254.46
401.354	1001.97
401.567	158.21
401.781	-222.72
401.994	276.99
402.208	539.13
402.421	-91.65
402.635	-73.21
402.848	53.76
403.061	276.99
403.275	-91.65
403.488	-196.09
403.701	502.26
403.915	221.69
404.128	-1.54
404.341	-157.18
404.555	100.86
404.768	70.14
404.981	68.09
405.195	-171.52
405.408	471.54
405.621	309.76
405.834	74.24
406.048	-280.06
406.261	381.43
406.474	518.65
406.687	-189.95
406.9	16.9
407.114	-22.02
407.327	162.3
407.54	-345.59
407.753	-249.34
407.966	-73.21
408.179	213.5
408.392	-224.76
408.605	-294.4
408.819	193.02
409.032	182.78
409.245	-216.57
409.458	-34.3
409.671	186.88
409.884	201.21
410.097	-253.44
410.31	-13.82
410.523	231.93
410.736	2.56
410.949	-95.74
411.162	-130.56
411.375	360.95
411.588	276.99
411.801	27.14
412.014	-232.96
412.227	29.18
412.44	-50.69
412.653	-214.52
412.865	8.7
413.078	164.35
413.291	207.36
413.504	-124.41
413.717	-212.48
413.93	313.85
414.143	-60.93
414.356	-124.41
414.568	-269.82
414.781	281.08
414.994	180.73
415.207	-93.69
415.42	-54.78
415.632	256.51
415.845	580.09
416.058	-224.76
416.271	-316.92
416.483	-1.54
416.696	508.41
416.909	-77.31
417.121	-253.44
417.334	172.54
417.547	510.46
417.759	-136.7
417.972	-163.33
418.185	-73.21
418.397	195.07
418.61	-202.24
418.823	-185.85
419.035	451.07
419.248	18.94
419.46	-155.13
419.673	-75.26
419.885	260.6
420.098	-116.22
420.311	-144.89
420.523	-296.44
420.736	256.51
420.948	-5.63
421.161	-165.37
421.373	-404.99
421.586	117.25
421.798	-17.92
422.01	-181.76
422.223	-1.54
422.435	-19.97
422.648	115.2
422.86	-151.04
423.073	-228.86
423.285	358.91
423.497	-255.48
423.71	-144.89
423.922	-165.37
424.134	129.53
424.347	412.15
424.559	47.62
424.771	31.23
424.984	14.85
425.196	125.44
425.408	-325.12
425.621	-269.82
425.833	299.52
426.045	373.24
426.257	-253.44
426.47	-202.24
426.682	150.01
426.894	154.11
427.106	-167.42
427.318	-161.28
427.531	-87.55
427.743	252.41
427.955	-243.2
428.167	231.93
428.379	182.78
428.591	47.62
428.804	-83.45
429.016	-226.81
429.228	-40.45
429.44	109.05
429.652	18.94
429.864	-253.44
430.076	14.85
430.288	6.66
430.5	-138.75
430.712	-155.13
430.924	266.75
431.136	100.86
431.348	-384.51
431.56	-173.57
431.772	41.47
431.984	-28.16
432.196	-239.1
432.408	-89.6
432.62	25.09
432.832	139.77
433.044	133.63
433.256	-120.32
433.468	164.35
433.679	-232.96
433.891	-196.09
434.103	-48.64
434.315	383.48
434.527	186.88
434.739	-67.07
434.95	-144.89
435.162	285.18
435.374	39.42
435.586	-142.85
435.798	-249.34
436.009	-204.28
436.221	23.04
436.433	-116.22
436.645	-114.17
436.856	-26.11
437.068	367.1
437.28	-237.05
437.491	141.82
437.703	90.62
437.915	100.86
438.126	-110.08
438.338	49.66
438.55	-5.63
438.761	207.36
438.973	-124.41
439.184	-157.18
439.396	76.29
439.608	254.46
439.819	-247.29
440.031	-56.83
440.242	215.55
440.454	236.03
440.665	-146.94
440.877	-52.74
441.088	193.02
441.3	-7.68
441.511	-380.41
441.723	-132.61
441.934	174.59
442.146	129.53
442.357	-75.26
442.569	0.51
442.78	6.66
442.991	465.4
443.203	82.43
443.414	-333.31
443.626	336.38
443.837	-48.64
444.048	-189.95
444.26	-296.44
444.471	55.81
444.682	211.45
444.894	-321.02
445.105	-296.44
445.316	297.47
445.528	166.4
445.739	-93.69
445.95	-159.23
446.161	102.91
446.373	358.91
446.584	-230.91
446.795	-153.09
447.006	209.4
447.217	371.19
447.429	-343.55
447.64	-214.52
447.851	268.8
448.062	96.77
448.273	-321.02
448.484	-220.67
448.695	258.56
448.907	64
449.118	-44.54
449.329	53.76
449.54	-75.26
449.751	-196.09
449.962	-116.22
450.173	-146.94
450.384	315.9
450.595	336.38
450.806	-185.85
451.017	-169.47
451.228	363
451.439	260.6
451.65	-171.52
451.861	-429.56
452.072	-214.52
452.283	-19.97
452.494	20.99
452.705	-306.68
452.915	412.15
453.126	182.78
453.337	-259.58
453.548	-251.39
453.759	268.8
453.97	588.28
454.181	12.8
454.391	-189.95
454.602	125.44
454.813	137.73
455.024	-218.62
455.235	-214.52
455.445	104.96
455.656	129.53
455.867	-56.83
456.078	-187.9
456.288	-24.06
456.499	197.12
456.71	-185.85
456.921	4.61
457.131	117.25
457.342	143.87
457.553	-118.27
457.763	-175.61
457.974	219.64
458.184	209.4
458.395	-368.12
458.606	-216.57
458.816	276.99
459.027	524.79
459.237	-50.69
459.448	-409.08
459.659	369.15
459.869	508.41
460.08	-349.69
460.29	-60.93
460.501	469.5
460.711	-85.5
460.922	-333.31
461.132	-167.42
461.343	659.96
461.553	-230.91
461.764	-318.97
461.974	-181.76
462.184	303.61
462.395	66.05
462.605	-153.09
462.816	-353.79
463.026	86.53
463.236	363
463.447	-341.5
463.657	-237.05
463.867	270.84
464.078	8.7
464.288	-173.57
464.498	-263.68
464.709	39.42
464.919	82.43
465.129	-165.37
465.339	-222.72
465.55	72.19
465.76	324.09
465.97	-159.23
466.18	-253.44
466.391	238.08
466.601	66.05
466.811	-153.09
467.021	-269.82
467.231	84.48
467.441	399.87
467.651	-126.46
467.862	-409.08
468.072	109.05
468.282	317.95
468.492	-169.47
468.702	-212.48
468.912	72.19
469.122	664.05
469.332	2.56
469.542	-247.29
469.752	188.93
469.962	33.28
470.172	-267.77
470.382	-239.1
470.592	180.73
470.802	336.38
471.012	-161.28
471.222	-329.21
471.432	289.28
471.642	164.35
471.852	-99.84
472.062	-226.81
472.272	53.76
472.482	-189.95
472.691	-335.35
472.901	-321.02
473.111	117.25
473.321	532.98
473.531	-192
473.741	-108.03
473.95	137.73
474.16	219.64
474.37	-157.18
474.58	-411.13
474.79	457.21
474.999	238.08
475.209	-220.67
475.419	-220.67
475.628	-46.59
475.838	279.04
476.048	-177.66
476.258	-280.06
476.467	309.76
476.677	-17.92
476.886	-83.45
477.096	-116.22
477.306	-159.23
477.515	387.58
477.725	-194.05
477.935	-99.84
478.144	432.63
478.354	-148.99
478.563	-157.18
478.773	-239.1
478.982	188.93
479.192	330.23
479.401	-77.31
479.611	-345.59
479.82	-124.41
480.03	16.9
480.239	-298.49
480.449	-318.97
480.658	401.91
480.868	-148.99
481.077	-99.84
481.287	-212.48
481.496	170.49
481.705	303.61
481.915	51.71
482.124	68.09
482.333	199.16
482.543	350.71
482.752	-206.33
482.961	-368.12
483.171	221.69
483.38	66.05
483.589	-159.23
483.799	-257.53
484.008	16.9
484.217	322.04
484.426	-189.95
484.636	-339.45
484.845	129.53
485.054	-148.99
485.263	12.8
485.472	-210.43
485.682	426.49
485.891	113.15
486.1	-294.4
486.309	-239.1
486.518	197.12
486.727	389.63
486.936	-222.72
487.146	-75.26
487.355	330.23
487.564	-187.9
487.773	-183.81
487.982	-235
488.191	-38.4
488.4	76.29
488.609	-177.66
488.818	-290.3
489.027	547.32
489.236	387.58
489.445	-208.38
489.654	-232.96
489.863	352.76
490.072	61.95
490.281	115.2
490.49	-243.2
490.698	309.76
490.907	422.39
491.116	-173.57
491.325	-407.03
491.534	414.2
491.743	45.57
491.952	-138.75
492.16	-161.28
492.369	119.29
492.578	203.26
492.787	-151.04
492.996	-316.92
493.204	-89.6
493.413	477.69
493.622	-398.84
493.831	-390.65
494.039	377.34
494.248	-280.06
494.457	-226.81
494.665	-386.55
494.874	238.08
495.083	465.4
495.291	-144.89
495.5	-275.96
495.709	264.7
495.917	121.34
496.126	-144.89
496.335	-269.82
496.543	-120.32
496.752	135.68
496.96	8.7
497.169	-345.59
497.377	76.29
497.586	348.67
497.794	-19.97
498.003	-443.9
498.211	-40.45
498.42	408.06
498.628	-167.42
498.837	-321.02
499.045	133.63
499.254	160.25
499.462	-230.91
499.671	-269.82
499.879	457.21
500.087	272.89
500.296	-308.73
500.504	-200.19
500.713	119.29
500.921	551.42
501.129	-220.67
501.338	-140.8
501.546	86.53
501.754	55.81
501.962	-239.1
502.171	-327.16
502.379	166.4
502.587	440.83
502.795	-230.91
503.004	-321.02
503.212	16.9
503.42	309.76
503.628	-255.48
503.837	-108.03
504.045	240.12
504.253	489.98
504.461	-200.19
504.669	-423.42
504.877	195.07
505.085	352.76
505.294	-335.35
505.502	-69.12
505.71	-83.45
505.918	256.51
506.126	-355.83
506.334	-280.06
506.542	-26.11
506.75	195.07
506.958	-101.89
507.166	-114.17
507.374	-93.69
507.582	580.09
507.79	-118.27
507.998	-263.68
508.206	86.53
508.414	180.73
508.622	-222.72
508.83	-183.81
509.037	383.48
509.245	39.42
509.453	-235
509.661	-300.54
509.869	168.45
510.077	12.8
510.285	-48.64
510.492	-558.58
510.7	592.37
510.908	-99.84
511.116	-210.43
511.324	-187.9
511.531	-69.12
511.739	64
511.947	-99.84
512.155	-22.02
512.362	104.96
512.57	-144.89
512.778	-263.68
512.985	-380.41
513.193	369.15
513.401	442.87
513.608	-159.23
513.816	-189.95
514.024	164.35
514.231	389.63
514.439	-294.4
514.646	-140.8
514.854	207.36
515.061	346.62
515.269	-275.96
515.477	-259.58
515.684	-179.71
515.892	260.6
516.099	-316.92
516.307	-421.37
516.514	229.88
516.722	442.87
516.929	-239.1
517.136	-374.27
517.344	465.4
517.551	203.26
517.759	-267.77
517.966	-230.91
518.173	-1.54
518.381	45.57
518.588	-169.47
518.796	-331.26
519.003	260.6
519.21	29.18
519.418	-245.24
519.625	96.77
519.832	-7.68
520.039	154.11
520.247	-370.17
520.454	-245.24
520.661	301.56
520.868	184.83
521.076	-230.91
521.283	-181.76
521.49	621.05
521.697	164.35
521.904	-210.43
522.112	-280.06
522.319	166.4
522.526	170.49
522.733	-161.28
522.94	-269.82
523.147	55.81
523.354	250.36
523.561	-343.55
523.768	-251.39
523.975	285.18
524.183	29.18
524.39	-140.8
524.597	-331.26
524.804	100.86
525.011	-140.8
525.218	-292.35
525.425	-267.77
525.632	360.95
525.838	-116.22
526.045	-222.72
526.252	-245.24
526.459	1135.09
526.666	827.89
526.873	-280.06
527.08	-275.96
527.287	420.35
527.494	285.18
527.701	-251.39
527.907	-335.35
528.114	209.4
528.321	12.8
528.528	-226.81
528.735	-331.26
528.941	-81.41
529.148	-146.94
529.355	-157.18
529.562	-323.07
529.768	432.63
529.975	-69.12
530.182	-210.43
530.388	-275.96
530.595	291.32
530.802	-132.61
531.008	-89.6
531.215	-235
531.422	383.48
531.628	780.79
531.835	-136.7
532.042	-148.99
532.248	-142.85
532.455	80.38
532.661	-169.47
532.868	-269.82
533.074	64
533.281	254.46
533.487	-239.1
533.694	-202.24
533.9	-112.13
534.107	166.4
534.313	-282.11
534.52	-394.75
534.726	309.76
534.933	494.07
535.139	-402.94
535.345	-310.78
535.552	96.77
535.758	72.19
535.965	-192
536.171	-280.06
536.377	215.55
536.584	346.62
536.79	-226.81
536.996	-228.86
537.203	-15.87
537.409	80.38
537.615	-116.22
537.821	-108.03
538.028	174.59
538.234	141.82
538.44	-194.05
538.646	-165.37
538.853	188.93
539.059	-19.97
539.265	102.91
539.471	-431.61
539.677	363
539.883	-58.88
540.09	-230.91
540.296	96.77
540.502	-50.69
540.708	-97.79
540.914	-58.88
541.12	-208.38
541.326	209.4
541.532	-44.54
541.738	-122.37
541.944	-271.87
542.15	301.56
542.356	-17.92
542.562	-327.16
542.768	-173.57
542.974	684.53
543.18	459.26
543.386	-294.4
543.592	-359.93
543.798	403.96
544.004	340.47
544.21	-296.44
544.415	-171.52
544.621	8.7
544.827	303.61
545.033	-380.41
545.239	-67.07
545.445	-230.91
545.651	109.05
545.856	-333.31
546.062	-208.38
546.268	-62.98
546.474	33.28
546.679	-249.34
546.885	-169.47
547.091	-62.98
547.297	485.88
547.502	-194.05
547.708	-323.07
547.914	-148.99
548.119	123.39
548.325	-357.88
548.531	-296.44
548.736	375.29
548.942	-140.8
549.147	-280.06
549.353	-85.5
549.559	338.43
549.764	109.05
549.97	-148.99
550.175	-169.47
550.381	246.27
550.586	-36.35
550.792	-226.81
550.997	-204.28
551.203	141.82
551.408	166.4
551.614	-263.68
551.819	-245.24
552.025	416.25
552.23	530.94
552.435	-341.5
552.641	-114.17
552.846	-81.41
553.052	377.34
553.257	-54.78
553.462	-253.44
553.668	-22.02
553.873	223.74
554.078	-249.34
554.283	-255.48
554.489	86.53
554.694	76.29
554.899	-296.44
555.105	-48.64
555.31	35.33
555.515	287.23
555.72	-103.93
555.925	-353.79
556.131	188.93
556.336	-175.61
556.541	-292.35
556.746	-310.78
556.951	352.76
557.156	418.3
557.361	-175.61
557.567	-114.17
557.772	559.61
557.977	205.31
558.182	-220.67
558.387	-206.33
558.592	-77.31
558.797	326.14
559.002	-99.84
559.207	-140.8
559.412	-22.02
559.617	440.83
559.822	-290.3
560.027	-259.58
560.232	70.14
560.437	270.84
560.642	-292.35
560.847	-325.12
561.051	102.91
561.256	47.62
561.461	-144.89
561.666	-323.07
561.871	188.93
562.076	193.02
562.281	-148.99
562.485	-304.64
562.69	195.07
562.895	176.64
563.1	-189.95
563.305	-335.35
563.509	358.91
563.714	641.53
563.919	-286.2
564.123	-271.87
564.328	66.05
564.533	346.62
564.737	-177.66
564.942	-280.06
565.147	393.72
565.351	602.61
565.556	-89.6
565.761	-161.28
565.965	104.96
566.17	-81.41
566.374	-189.95
566.579	-351.74
566.784	141.82
566.988	37.38
567.193	-353.79
567.397	-259.58
567.602	-271.87
567.806	104.96
568.011	-245.24
568.215	-189.95
568.42	-46.59
568.624	-34.3
568.828	-273.92
569.033	-179.71
569.237	184.83
569.442	211.45
569.646	-390.65
569.85	-218.62
570.055	29.18
570.259	125.44
570.463	-11.78
570.668	-212.48
570.872	2.56
571.076	-9.73
571.281	-79.36
571.485	-140.8
571.689	6.66
571.893	215.55
572.098	-95.74
572.302	-189.95
572.506	176.64
572.71	41.47
572.914	-169.47
573.119	-226.81
573.323	418.3
573.527	342.52
573.731	-198.14
573.935	-312.83
574.139	143.87
574.343	-44.54
574.547	-239.1
574.751	-151.04
574.955	412.15
575.159	315.9
575.364	-222.72
575.568	-308.73
575.772	141.82
575.976	281.08
576.18	-255.48
576.383	-318.97
576.587	291.32
576.791	152.06
576.995	-345.59
577.199	-415.23
577.403	285.18
577.607	272.89
577.811	-321.02
578.015	-124.41
578.219	221.69
578.422	305.66
578.626	-198.14
578.83	-101.89
579.034	346.62
579.238	80.38
579.442	-288.25
579.645	94.72
579.849	82.43
580.053	100.86
580.257	-253.44
580.46	-241.15
580.664	262.65
580.868	199.16
581.071	51.71
581.275	-153.09
581.479	-288.25
581.682	197.12
581.886	-257.53
582.09	-101.89
582.293	268.8
582.497	303.61
582.7	-97.79
582.904	-288.25
583.107	70.14
583.311	-7.68
583.515	-101.89
583.718	-97.79
583.922	162.3
584.125	530.94
584.329	-284.16
584.532	-54.78
584.735	416.25
584.939	170.49
585.142	-431.61
585.346	-257.53
585.549	147.97
585.753	-97.79
585.956	-153.09
586.159	-95.74
586.363	408.06
586.566	197.12
586.769	-255.48
586.973	-284.16
587.176	236.03
587.379	295.42
587.582	41.47
587.786	47.62
587.989	51.71
588.192	645.62
588.395	-157.18
588.599	-26.11
588.802	88.57
589.005	326.14
589.208	-148.99
589.411	-251.39
589.615	276.99
589.818	424.44
590.021	-36.35
590.224	-165.37
590.427	254.46
590.63	256.51
590.833	-372.22
591.036	-222.72
591.239	-97.79
591.442	-9.73
591.645	35.33
591.848	-198.14
592.051	109.05
592.254	293.37
592.457	-138.75
592.66	-177.66
592.863	68.09
593.066	100.86
593.269	-245.24
593.472	-105.98
593.675	-40.45
593.878	272.89
594.081	-44.54
594.284	-271.87
594.486	98.81
594.689	102.91
594.892	-124.41
595.095	-144.89
595.298	215.55
595.5	6.66
595.703	-222.72
595.906	-130.56
596.109	438.78
596.311	324.09
596.514	-433.66
596.717	-99.84
596.92	416.25
597.122	121.34
597.325	-345.59
597.528	-230.91
597.73	383.48
597.933	150.01
598.136	-189.95
598.338	-435.71
598.541	238.08
598.743	406.01
598.946	-177.66
599.148	-204.28
599.351	291.32
599.554	205.31
599.756	-73.21
599.959	-167.42
600.161	424.44
600.363	664.05
600.566	18.94
600.768	-271.87
600.971	477.69
601.173	236.03
601.376	-132.61
601.578	-163.33
601.78	246.27
601.983	633.33
602.185	-239.1
602.388	45.57
602.59	150.01
602.792	51.71
602.995	18.94
603.197	-259.58
603.399	250.36
603.601	94.72
603.804	-155.13
604.006	-271.87
604.208	-3.58
604.41	-312.83
604.613	-19.97
604.815	-275.96
605.017	565.75
605.219	-60.93
605.421	152.06
605.623	-194.05
605.826	403.96
606.028	438.78
606.23	-214.52
606.432	-173.57
606.634	485.88
606.836	346.62
607.038	-312.83
607.24	4.61
607.442	111.1
607.644	178.69
607.846	-91.65
608.048	-292.35
608.25	375.29
608.452	-69.12
608.654	-112.13
608.856	-361.98
609.058	55.81
609.26	199.16
609.462	14.85
609.664	-148.99
609.866	551.42
610.067	172.54
610.269	-34.3
610.471	-120.32
610.673	-26.11
610.875	229.88
611.077	-304.64
611.278	-132.61
611.48	178.69
611.682	537.08
611.884	-62.98
612.085	-81.41
612.287	-140.8
612.489	285.18
612.69	-296.44
612.892	-79.36
613.094	326.14
613.295	287.23
613.497	-306.68
613.699	-181.76
613.9	481.78
614.102	268.8
614.304	-142.85
614.505	-247.29
614.707	76.29
614.908	121.34
615.11	-312.83
615.311	-93.69
615.513	293.37
615.714	301.56
615.916	-310.78
616.117	-138.75
616.319	147.97
616.52	330.23
616.722	-173.57
616.923	-167.42
617.124	399.87
617.326	254.46
617.527	-30.21
617.729	86.53
617.93	223.74
618.131	260.6
618.333	-105.98
618.534	-157.18
618.735	-87.55
618.937	444.92
619.138	-286.2
619.339	-232.96
619.54	215.55
619.742	12.8
619.943	-9.73
620.144	-91.65
620.345	254.46
620.546	395.77
620.748	-271.87
620.949	-165.37
621.15	107.01
621.351	195.07
621.552	-212.48
621.753	-364.03
621.954	-255.48
622.155	664.05
622.356	-243.2
622.558	64
622.759	113.15
622.96	408.06
623.161	-243.2
623.362	-165.37
623.563	107.01
623.764	156.16
623.965	-112.13
624.166	53.76
624.366	0.51
624.567	207.36
624.768	-347.64
624.969	-130.56
625.17	96.77
625.371	330.23
625.572	-65.02
625.773	-255.48
625.973	301.56
626.174	322.04
626.375	-155.13
626.576	-134.65
626.777	236.03
626.977	649.72
627.178	-112.13
627.379	10.75
627.58	137.73
627.78	170.49
627.981	-26.11
628.182	-65.02
628.382	459.26
628.583	-232.96
628.784	-239.1
628.984	-60.93
629.185	299.52
629.386	322.04
629.586	-79.36
629.787	-198.14
629.987	281.08
630.188	125.44
630.388	-132.61
630.589	-151.04
630.79	678.39
630.99	174.59
631.191	-24.06
631.391	-9.73
631.591	272.89
631.792	449.02
631.992	-24.06
632.193	-161.28
632.393	494.07
632.594	190.97
632.794	-128.51
632.994	-7.68
633.195	129.53
633.395	141.82
633.595	-161.28
633.796	100.86
633.996	-85.5
634.196	363
634.397	-296.44
634.597	43.52
634.797	-40.45
634.997	481.78
635.198	119.29
635.398	-206.33
635.598	190.97
635.798	416.25
635.998	246.27
636.199	-194.05
636.399	-54.78
636.599	-24.06
636.799	-112.13
636.999	131.58
637.199	213.5
637.399	358.91
637.599	-146.94
637.799	66.05
637.999	14.85
638.199	410.11
638.399	-237.05
638.599	-83.45
638.799	219.64
638.999	571.9
639.199	18.94
639.399	-40.45
639.599	563.7
639.799	-91.65
639.999	-173.57
640.199	-206.33
640.399	240.12
640.599	281.08
640.799	-67.07
640.998	96.77
641.198	483.83
641.398	219.64
641.598	-46.59
641.798	-144.89
641.997	1087.98
642.197	104.96
642.397	-13.82
642.597	-89.6
642.796	340.47
642.996	459.26
643.196	41.47
643.395	-151.04
643.595	367.1
643.795	-333.31
643.994	-126.46
644.194	-83.45
644.394	375.29
644.593	295.42
644.793	-232.96
644.992	39.42
645.192	264.7
645.392	-108.03
645.591	-75.26
645.791	-95.74
645.99	180.73
646.19	80.38
646.389	16.9
646.589	-91.65
646.788	346.62
646.987	317.95
647.187	107.01
647.386	80.38
647.586	207.36
647.785	330.23
647.984	-93.69
648.184	37.38
648.383	96.77
648.582	39.42
648.782	-67.07
648.981	47.62
649.18	-30.21
649.38	268.8
649.579	-110.08
649.778	-9.73
649.977	244.22
650.177	240.12
650.376	-108.03
650.575	-179.71
650.774	504.31
650.973	41.47
651.173	-206.33
651.372	14.85
651.571	107.01
651.77	332.28
651.969	-108.03
652.168	-1.54
652.367	-46.59
652.566	281.08
652.765	-169.47
652.964	176.64
653.163	641.53
653.362	125.44
653.561	-120.32
653.76	-120.32
653.959	29.18
654.158	401.91
654.357	150.01
654.556	47.62
654.755	301.56
654.954	367.1
655.153	35.33
655.352	-5.63
655.551	506.36
655.749	76.29
655.948	-46.59
656.147	-17.92
656.346	221.69
656.545	80.38
656.743	39.42
656.942	-5.63
657.141	160.25
657.34	-5.63
657.538	72.19
657.737	-15.87
657.936	117.25
658.135	371.19
658.333	-155.13
658.532	51.71
658.731	580.09
658.929	334.33
659.128	242.17
659.326	-97.79
659.525	463.35
659.724	197.12
659.922	-257.53
660.121	-138.75
660.319	291.32
660.518	2.56
660.716	-263.68
660.915	-132.61
661.113	430.59
661.312	-67.07
661.51	86.53
661.709	-130.56
661.907	342.52
662.105	590.33
662.304	10.75
662.502	-30.21
662.701	514.55
662.899	96.77
663.097	299.52
663.296	-157.18
663.494	481.78
663.692	514.55
663.891	-56.83
664.089	-99.84
664.287	299.52
664.485	532.98
664.684	-173.57
664.882	39.42
665.08	203.26
665.278	193.02
665.476	-198.14
665.675	281.08
665.873	694.77
666.071	438.78
666.269	-99.84
666.467	182.78
666.665	254.46
666.863	205.31
667.061	72.19
667.259	-46.59
667.457	172.54
667.655	401.91
667.853	-67.07
668.051	35.33
668.249	76.29
668.447	338.43
668.645	-157.18
668.843	135.68
669.041	336.38
669.239	162.3
669.437	84.48
669.635	113.15
669.833	104.96
670.031	469.5
670.229	78.33
670.426	27.14
670.624	80.38
670.822	66.05
671.02	-75.26
671.218	109.05
671.415	-79.36
671.613	244.22
671.811	121.34
672.009	-79.36
672.206	434.68
672.404	295.42
672.602	207.36
672.799	78.33
672.997	305.66
673.195	524.79
673.392	184.83
673.59	-148.99
673.788	403.96
673.985	-282.11
674.183	92.67
674.38	-58.88
674.578	438.78
674.775	64
674.973	-77.31
675.17	-56.83
675.368	623.09
675.565	242.17
675.763	-132.61
675.96	-87.55
676.158	547.32
676.355	186.88
676.553	-58.88
676.75	27.14
676.947	291.32
677.145	186.88
677.342	104.96
677.539	113.15
677.737	231.93
677.934	698.87
678.131	180.73
678.329	-56.83
678.526	586.23
678.723	342.52
678.92	35.33
679.118	82.43
679.315	-120.32
679.512	526.84
679.709	51.71
679.906	162.3
680.104	500.22
680.301	203.26
680.498	-65.02
680.695	-65.02
680.892	29.18
681.089	129.53
681.286	-5.63
681.483	-132.61
681.68	414.2
681.877	393.72
682.075	23.04
682.272	248.32
682.469	229.88
682.665	152.06
682.862	-114.17
683.059	-171.52
683.256	305.66
683.453	211.45
683.65	55.81
683.847	2.56
684.044	172.54
684.241	102.91
684.438	121.34
684.635	-81.41
684.831	688.63
685.028	770.55
685.225	115.2
685.422	215.55
685.619	184.83
685.815	219.64
686.012	168.45
686.209	51.71
686.405	6.66
686.602	430.59
686.799	-13.82
686.996	-50.69
687.192	33.28
687.389	815.6
687.586	-89.6
687.782	43.52
687.979	602.61
688.175	508.41
688.372	74.24
688.568	59.9
688.765	223.74
688.962	610.81
689.158	178.69
689.355	-81.41
689.551	461.3
689.748	98.81
689.944	170.49
690.14	-128.51
690.337	453.11
690.533	180.73
690.73	262.65
690.926	141.82
691.123	399.87
691.319	227.84
691.515	-62.98
691.712	219.64
691.908	328.19
692.104	401.91
692.301	254.46
692.497	-3.58
692.693	406.01
692.889	506.36
693.086	170.49
693.282	-62.98
693.478	293.37
693.674	715.25
693.87	143.87
694.067	-62.98
694.263	320
694.459	162.3
694.655	266.75
694.851	127.49
695.047	412.15
695.243	547.32
695.439	236.03
695.635	8.7
695.831	426.49
696.027	403.96
696.224	68.09
696.42	379.39
696.615	575.99
696.811	424.44
697.007	-13.82
697.203	111.1
697.399	393.72
697.595	643.57
697.791	27.14
697.987	268.8
698.183	92.67
698.379	158.21
698.575	-34.3
698.77	107.01
698.966	461.3
699.162	569.85
699.358	139.77
699.554	96.77
699.749	551.42
699.945	510.46
700.141	170.49
700.337	281.08
700.532	248.32
700.728	92.67
700.924	-17.92
701.119	-38.4
701.315	449.02
701.511	262.65
701.706	209.4
701.902	-79.36
702.097	317.95
702.293	436.73
702.489	150.01
702.684	57.86
702.88	305.66
703.075	229.88
703.271	109.05
703.466	-30.21
703.662	320
703.857	451.07
704.053	-7.68
704.248	92.67
704.443	446.97
704.639	471.54
704.834	117.25
705.03	25.09
705.225	575.99
705.42	541.18
705.616	211.45
705.811	57.86
706.006	205.31
706.202	141.82
706.397	104.96
706.592	23.04
706.787	498.17
706.983	360.95
707.178	348.67
707.373	96.77
707.568	481.78
707.763	588.28
707.959	100.86
708.154	102.91
708.349	426.49
708.544	399.87
708.739	311.8
708.934	10.75
709.129	524.79
709.324	563.7
709.519	29.18
709.714	37.38
709.909	539.13
710.104	522.74
710.299	104.96
710.494	205.31
710.689	522.74
710.884	340.47
711.079	139.77
711.274	356.86
711.469	459.26
711.664	422.39
711.859	14.85
712.054	246.27
712.249	481.78
712.443	639.48
712.638	27.14
712.833	84.48
713.028	307.71
713.223	256.51
713.417	363
713.612	135.68
713.807	430.59
714.002	1010.16
714.196	313.85
714.391	72.19
714.586	674.29
714.78	403.96
714.975	154.11
715.17	109.05
715.364	262.65
715.559	621.05
715.754	-185.85
715.948	145.92
716.143	866.8
716.337	477.69
716.532	375.29
716.726	141.82
716.921	614.9
717.115	825.84
717.31	-7.68
717.504	678.39
717.699	276.99
717.893	580.09
718.088	51.71
718.282	8.7
718.476	414.2
718.671	535.03
718.865	104.96
719.059	164.35
719.254	397.82
719.448	717.3
719.642	1489.39
719.837	-67.07
720.031	602.61
720.225	600.57
720.419	207.36
720.614	178.69
720.808	608.76
721.002	354.81
721.196	102.91
721.39	162.3
721.585	686.58
721.779	500.22
721.973	195.07
722.167	-50.69
722.361	510.46
722.555	627.19
722.749	145.92
722.943	190.97
723.137	137.73
723.331	399.87
723.525	174.59
723.719	223.74
723.913	467.45
724.107	715.25
724.301	104.96
724.495	195.07
724.689	881.14
724.883	715.25
725.077	182.78
725.271	109.05
725.465	666.1
725.659	434.68
725.853	344.57
726.046	92.67
726.24	348.67
726.434	616.95
726.628	170.49
726.822	283.13
727.015	723.44
727.209	745.97
727.403	186.88
727.596	-13.82
727.79	629.24
727.984	727.54
728.177	203.26
728.371	219.64
728.565	649.72
728.758	197.12
728.952	55.81
729.146	207.36
729.339	721.4
729.533	358.91
729.726	262.65
729.92	141.82
730.113	788.98
730.307	451.07
730.5	233.98
730.694	68.09
730.887	334.33
731.081	543.22
731.274	-13.82
731.468	264.7
731.661	416.25
731.854	305.66
732.048	172.54
732.241	147.97
732.435	279.04
732.628	391.67
732.821	301.56
733.014	100.86
733.208	195.07
733.401	608.76
733.594	229.88
733.788	182.78
733.981	752.12
734.174	494.07
734.367	182.78
734.56	324.09
734.754	745.97
734.947	514.55
735.14	72.19
735.333	254.46
735.526	670.2
735.719	317.95
735.912	92.67
736.105	86.53
736.298	426.49
736.491	166.4
736.684	107.01
736.877	186.88
737.07	428.54
737.263	786.93
737.456	150.01
737.649	53.76
737.842	330.23
738.035	399.87
738.228	301.56
738.421	326.14
738.614	729.59
738.807	625.14
739	-19.97
739.192	117.25
739.385	588.28
739.578	731.64
739.771	444.92
739.964	164.35
740.156	594.42
740.349	352.76
740.542	444.92
740.735	150.01
740.927	215.55
741.12	170.49
741.313	141.82
741.505	326.14
741.698	539.13
741.891	610.81
742.083	270.84
742.276	211.45
742.468	494.07
742.661	401.91
742.854	211.45
743.046	115.2
743.239	846.32
743.431	371.19
743.624	182.78
743.816	18.94
744.009	309.76
744.201	549.37
744.393	375.29
744.586	98.81
744.778	657.91
744.971	401.91
745.163	270.84
745.355	330.23
745.548	451.07
745.74	418.3
745.932	195.07
746.125	186.88
746.317	1004.02
746.509	492.02
746.702	182.78
746.894	303.61
747.086	522.74
747.278	727.54
747.471	350.71
747.663	311.8
747.855	543.22
748.047	840.18
748.239	145.92
748.431	244.22
748.623	965.11
748.815	778.74
749.008	193.02
749.2	31.23
749.392	623.09
749.584	547.32
749.776	379.39
749.968	338.43
750.16	987.63
750.352	428.54
750.544	375.29
750.736	233.98
750.928	664.05
751.12	588.28
751.311	266.75
751.503	279.04
751.695	559.61
751.887	573.94
752.079	4.61
752.271	221.69
752.463	1130.99
752.654	655.86
752.846	287.23
753.038	268.8
753.23	391.67
753.421	727.54
753.613	315.9
753.805	473.59
753.997	821.75
754.188	688.63
754.38	266.75
754.572	309.76
754.763	492.02
754.955	674.29
755.146	317.95
755.338	311.8
755.53	616.95
755.721	535.03
755.913	125.44
756.104	152.06
756.296	459.26
756.487	739.83
756.679	217.6
756.87	240.12
757.062	477.69
757.253	635.38
757.445	266.75
757.636	350.71
757.827	580.09
758.019	1157.61
758.21	219.64
758.401	180.73
758.593	932.34
758.784	889.33
758.975	164.35
759.167	162.3
759.358	604.66
759.549	760.31
759.74	268.8
759.932	154.11
760.123	748.02
760.314	326.14
760.505	401.91
760.696	244.22
760.888	907.76
761.079	520.7
761.27	205.31
761.461	88.57
761.652	942.58
761.843	481.78
762.034	375.29
762.225	649.72
762.416	543.22
762.607	582.14
762.798	258.56
762.989	240.12
763.18	1270.25
763.371	430.59
763.562	225.79
763.753	334.33
763.944	793.08
764.135	780.79
764.326	440.83
764.517	342.52
764.708	608.76
764.899	616.95
765.089	289.28
765.28	141.82
765.471	514.55
765.662	733.68
765.853	330.23
766.043	121.34
766.234	748.02
766.425	776.69
766.615	326.14
766.806	164.35
766.997	844.28
767.187	723.44
767.378	248.32
767.569	182.78
767.759	655.86
767.95	555.51
768.141	446.97
768.331	215.55
768.522	547.32
768.712	662.01
768.903	219.64
769.093	233.98
769.284	956.91
769.474	551.42
769.665	178.69
769.855	115.2
770.046	756.21
770.236	494.07
770.426	537.08
770.617	197.12
770.807	760.31
770.998	500.22
771.188	459.26
771.378	305.66
771.569	711.16
771.759	725.49
771.949	227.84
772.139	55.81
772.33	672.25
772.52	926.19
772.71	203.26
772.9	133.63
773.09	938.48
773.281	1001.97
773.471	285.18
773.661	195.07
773.851	739.83
774.041	438.78
774.231	244.22
774.421	391.67
774.611	903.67
774.802	479.74
774.992	449.02
775.182	178.69
775.372	598.52
775.562	739.83
775.752	274.94
775.942	342.52
776.131	854.51
776.321	700.92
776.511	285.18
776.701	119.29
776.891	778.74
777.081	416.25
777.271	436.73
777.461	227.84
777.651	805.36
777.84	840.18
778.03	428.54
778.22	340.47
778.41	864.75
778.599	363
778.789	406.01
778.979	240.12
779.169	694.77
779.358	645.62
779.548	600.57
779.738	107.01
779.927	690.68
780.117	440.83
780.307	303.61
780.496	82.43
780.686	614.9
780.875	1022.45
781.065	328.19
781.254	260.6
781.444	559.61
781.633	676.34
781.823	166.4
782.012	262.65
782.202	395.77
782.391	528.89
782.581	195.07
782.77	489.98
782.96	764.4
783.149	633.33
783.338	307.71
783.528	125.44
783.717	807.41
783.906	879.09
784.096	397.82
784.285	272.89
784.474	459.26
784.663	326.14
784.853	403.96
785.042	403.96
785.231	551.42
785.42	780.79
785.61	453.11
785.799	197.12
785.988	489.98
786.177	504.31
786.366	320
786.555	492.02
786.744	758.26
786.933	514.55
787.122	170.49
787.312	197.12
787.501	401.91
787.69	774.64
787.879	328.19
788.068	363
788.257	358.91
788.445	567.8
788.634	295.42
788.823	174.59
789.012	1182.19
789.201	856.56
789.39	469.5
789.579	248.32
789.768	575.99
789.957	629.24
790.145	293.37
790.334	27.14
790.523	537.08
790.712	496.12
790.9	385.53
791.089	135.68
791.278	860.66
791.467	641.53
791.655	559.61
791.844	784.88
792.033	481.78
792.221	467.45
792.41	363
792.599	158.21
792.787	776.69
792.976	807.41
793.164	229.88
793.353	354.81
793.541	791.03
793.73	782.84
793.918	346.62
794.107	326.14
794.295	575.99
794.484	598.52
794.672	356.86
794.861	309.76
795.049	713.21
795.238	920.05
795.426	270.84
795.614	475.64
795.803	629.24
795.991	891.38
796.179	391.67
796.368	320
796.556	948.72
796.744	377.34
796.932	231.93
797.121	203.26
797.309	532.98
797.497	801.27
797.685	330.23
797.874	293.37
798.062	516.6
798.25	1116.65
798.438	211.45
798.626	395.77
798.814	768.5
799.002	1139.18
799.19	600.57
799.378	481.78
799.566	840.18
799.755	991.73
799.943	633.33
800.131	305.66
800.318	684.53
800.506	678.39
800.694	317.95
800.882	516.6
801.07	1018.35
801.258	580.09
801.446	385.53
801.634	342.52
801.822	645.62
802.01	637.43
802.197	281.08
802.385	528.89
802.573	694.77
802.761	477.69
802.949	532.98
803.136	195.07
803.324	874.99
803.512	709.11
803.699	467.45
803.887	178.69
804.075	1055.22
804.262	719.35
804.45	207.36
804.638	473.59
804.825	375.29
805.013	467.45
805.201	375.29
805.388	240.12
805.576	625.14
805.763	1053.17
805.951	387.58
806.138	551.42
806.326	1190.38
806.513	743.92
806.701	412.15
806.888	317.95
807.075	750.07
807.263	1100.27
807.45	256.51
807.638	600.57
807.825	1092.08
808.012	883.19
808.2	532.98
808.387	678.39
808.574	795.12
808.761	1032.69
808.949	313.85
809.136	606.71
809.323	625.14
809.51	588.28
809.698	680.44
809.885	621.05
810.072	682.49
810.259	864.75
810.446	608.76
810.633	393.72
810.82	936.43
811.008	1022.45
811.195	532.98
811.382	459.26
811.569	713.21
811.756	526.84
811.943	528.89
812.13	389.63
812.317	604.66
812.504	594.42
812.691	440.83
812.878	539.13
813.064	1075.7
813.251	774.64
813.438	297.47
813.625	705.01
813.812	686.58
813.999	657.91
814.186	580.09
814.372	451.07
814.559	692.73
814.746	991.73
814.933	408.06
815.12	723.44
815.306	602.61
815.493	459.26
815.68	428.54
815.866	614.9
816.053	893.43
816.24	1196.53
816.426	555.51
816.613	373.24
816.799	991.73
816.986	997.87
817.173	436.73
817.359	414.2
817.546	874.99
817.732	385.53
817.919	188.93
818.105	483.83
818.292	619
818.478	776.69
818.665	670.2
818.851	401.91
819.037	1280.49
819.224	797.17
819.41	365.05
819.597	408.06
819.783	1204.72
819.969	881.14
820.156	483.83
820.342	406.01
820.528	1466.86
820.714	662.01
820.901	809.46
821.087	416.25
821.273	1087.98
821.459	680.44
821.646	391.67
821.832	348.67
822.018	754.16
822.204	801.27
822.39	510.46
822.576	385.53
822.762	893.43
822.948	891.38
823.134	668.15
823.32	563.7
823.507	575.99
823.693	842.23
823.879	856.56
824.065	573.94
824.25	838.13
824.436	555.51
824.622	530.94
824.808	373.24
824.994	678.39
825.18	555.51
825.366	506.36
825.552	406.01
825.738	762.36
825.923	897.52
826.109	711.16
826.295	350.71
826.481	551.42
826.667	713.21
826.852	596.47
827.038	391.67
827.224	987.63
827.409	1247.72
827.595	467.45
827.781	770.55
827.966	969.2
828.152	997.87
828.338	571.9
828.523	418.3
828.709	434.68
828.894	1225.2
829.08	432.63
829.266	422.39
829.451	686.58
829.637	844.28
829.822	680.44
830.008	532.98
830.193	1034.74
830.378	1096.18
830.564	590.33
830.749	506.36
830.935	899.57
831.12	956.91
831.305	502.26
831.491	565.75
831.676	496.12
831.861	999.92
832.047	639.48
832.232	358.91
832.417	1026.54
832.602	778.74
832.788	475.64
832.973	457.21
833.158	834.04
833.343	870.9
833.528	719.35
833.714	580.09
833.899	842.23
834.084	1233.39
834.269	801.27
834.454	549.37
834.639	961.01
834.824	811.51
835.009	756.21
835.194	649.72
835.379	969.2
835.564	1270.25
835.749	649.72
835.934	369.15
836.119	1053.17
836.304	803.32
836.489	471.54
836.674	848.37
836.859	545.27
837.044	1122.8
837.228	627.19
837.413	485.88
837.598	918
837.783	1049.07
837.968	651.77
838.152	403.96
838.337	383.48
838.522	1130.99
838.707	1006.06
838.891	719.35
839.076	930.29
839.261	1053.17
839.445	621.05
839.63	688.63
839.815	1243.63
839.999	776.69
840.184	492.02
840.368	514.55
840.553	948.72
840.737	981.49
840.922	494.07
841.106	408.06
841.291	557.56
841.475	836.08
841.66	545.27
841.844	444.92
842.029	1522.15
842.213	549.37
842.397	612.85
842.582	451.07
842.766	1120.75
842.951	983.54
843.135	520.7
843.319	506.36
843.504	836.08
843.688	1006.06
843.872	502.26
844.056	467.45
844.241	954.87
844.425	713.21
844.609	897.52
844.793	432.63
844.977	1069.55
845.161	909.81
845.346	502.26
845.53	530.94
845.714	870.9
845.898	1247.72
846.082	446.97
846.266	575.99
846.45	844.28
846.634	858.61
846.818	551.42
847.002	668.15
847.186	944.63
847.37	680.44
847.554	451.07
847.738	739.83
847.922	797.17
848.106	918
848.29	467.45
848.473	483.83
848.657	1049.07
848.841	786.93
849.025	619
849.209	305.66
849.392	969.2
849.576	776.69
849.76	291.32
849.944	592.37
850.127	1194.48
850.311	547.32
850.495	424.44
850.678	401.91
850.862	1077.74
851.046	1190.38
851.229	750.07
851.413	375.29
851.596	764.4
851.78	834.04
851.964	735.73
852.147	606.71
852.331	1526.25
852.514	1169.9
852.698	676.34
852.881	375.29
853.065	1051.12
853.248	809.46
853.431	619
853.615	684.53
853.798	1415.66
853.982	872.95
854.165	745.97
854.348	580.09
854.532	633.33
854.715	764.4
854.898	586.23
855.081	522.74
855.265	1219.05
855.448	1274.35
855.631	487.93
855.814	571.9
855.997	1098.22
856.181	854.51
856.364	629.24
856.547	406.01
856.73	928.24
856.913	858.61
857.096	389.63
857.279	659.96
857.462	612.85
857.645	1174
857.828	588.28
858.011	588.28
858.194	666.1
858.377	1042.93
858.56	432.63
858.743	606.71
858.926	645.62
859.109	1044.98
859.292	588.28
859.475	465.4
859.658	1106.42
859.841	983.54
860.023	510.46
860.206	573.94
860.389	874.99
860.572	1221.1
860.755	637.43
860.937	623.09
861.12	827.89
861.303	805.36
861.486	563.7
861.668	426.49
861.851	1018.35
862.034	887.28
862.216	672.25
862.399	322.04
862.581	975.35
862.764	1210.86
862.947	596.47
863.129	627.19
863.312	487.93
863.494	1237.49
863.677	887.28
863.859	305.66
864.042	1001.97
864.224	1174
864.406	619
864.589	446.97
864.771	936.43
864.954	797.17
865.136	530.94
865.318	430.59
865.501	989.68
865.683	426.49
865.865	639.48
866.048	444.92
866.23	969.2
866.412	817.65
866.594	485.88
866.777	641.53
866.959	1130.99
867.141	692.73
867.323	811.51
867.505	659.96
867.687	893.43
867.869	776.69
868.052	559.61
868.234	526.84
868.416	938.48
868.598	1006.06
868.78	631.29
868.962	440.83
869.144	1053.17
869.326	997.87
869.508	598.52
869.69	385.53
869.872	700.92
870.054	1116.65
870.236	434.68
870.417	537.08
870.599	756.21
870.781	1341.93
870.963	745.97
871.145	483.83
871.327	524.79
871.508	1149.42
871.69	655.86
871.872	549.37
872.054	696.82
872.235	977.39
872.417	551.42
872.599	477.69
872.78	1327.6
872.962	854.51
873.144	453.11
873.325	649.72
873.507	1210.86
873.689	858.61
873.87	502.26
874.052	776.69
874.233	721.4
874.415	1055.22
874.596	598.52
874.778	459.26
874.959	877.04
875.141	1118.7
875.322	592.37
875.503	596.47
875.685	903.67
875.866	481.78
876.048	563.7
876.229	506.36
876.41	786.93
876.592	891.38
876.773	535.03
876.954	434.68
877.136	1206.77
877.317	778.74
877.498	426.49
877.679	670.2
877.86	928.24
878.042	854.51
878.223	520.7
878.404	911.86
878.585	1038.83
878.766	1395.18
878.947	1006.06
879.128	838.13
879.309	1128.94
879.49	1182.19
879.672	571.9
879.853	619
880.034	705.01
880.215	895.47
880.396	627.19
880.576	575.99
880.757	719.35
880.938	1227.25
881.119	557.56
881.3	596.47
881.481	803.32
881.662	1663.46
881.843	600.57
882.023	451.07
882.204	903.67
882.385	870.9
882.566	604.66
882.747	508.41
882.927	797.17
883.108	920.05
883.289	707.06
883.469	834.04
883.65	834.04
883.831	954.87
884.011	858.61
884.192	602.61
884.373	1106.42
884.553	1026.54
884.734	834.04
884.914	942.58
885.095	1563.11
885.275	1282.54
885.456	942.58
885.636	481.78
885.817	969.2
885.997	1004.02
886.178	670.2
886.358	621.05
886.538	979.44
886.719	1868.26
886.899	645.62
887.08	868.85
887.26	1178.09
887.44	752.12
887.621	541.18
887.801	848.37
887.981	1522.15
888.161	1051.12
888.342	676.34
888.522	721.4
888.702	1182.19
888.882	1284.59
889.062	920.05
889.242	508.41
889.423	1454.57
889.603	1075.7
889.783	748.02
889.963	680.44
890.143	1171.95
890.323	1237.49
890.503	692.73
890.683	713.21
890.863	1047.02
891.043	1026.54
891.223	877.04
891.403	944.63
891.583	915.95
891.763	1079.79
891.943	934.39
892.122	682.49
892.302	1030.64
892.482	1022.45
892.662	860.66
892.842	803.32
893.022	1055.22
893.201	905.71
893.381	866.8
893.561	827.89
893.741	1159.66
893.92	1165.81
894.1	821.75
894.28	877.04
894.459	1237.49
894.639	1094.13
894.819	711.16
894.998	946.67
895.178	1069.55
895.357	1161.71
895.537	729.59
895.716	637.43
895.896	1047.02
896.075	1384.94
896.255	782.84
896.434	653.81
896.614	1264.11
896.793	1356.27
896.973	907.76
897.152	918
897.331	1040.88
897.511	1251.82
897.69	674.29
897.87	829.94
898.049	1278.44
898.228	1065.46
898.407	981.49
898.587	1014.26
898.766	879.09
898.945	1237.49
899.124	1128.94
899.304	950.77
899.483	1210.86
899.662	1532.39
899.841	690.68
900.02	791.03
900.199	1432.04
900.378	1124.85
900.557	723.44
900.737	653.81
900.916	1147.37
901.095	1298.92
901.274	1110.51
901.453	690.68
901.632	997.87
901.811	924.15
901.989	799.22
902.168	772.6
902.347	1288.68
902.526	924.15
902.705	862.71
902.884	907.76
903.063	1403.37
903.242	1462.76
903.42	743.92
903.599	940.53
903.778	1315.31
903.957	1468.91
904.135	975.35
904.314	895.47
904.493	1157.61
904.672	1178.09
904.85	809.46
905.029	817.65
905.207	1165.81
905.386	1864.16
905.565	664.05
905.743	752.12
905.922	991.73
906.1	1327.6
906.279	737.78
906.457	817.65
906.636	1018.35
906.814	1006.06
906.993	827.89
907.171	766.45
907.35	1178.09
907.528	1280.49
907.707	1133.04
907.885	690.68
908.063	1489.39
908.242	801.27
908.42	807.41
908.598	590.33
908.777	1298.92
908.955	924.15
909.133	909.81
909.311	885.23
909.49	1051.12
909.668	1063.41
909.846	811.51
910.024	590.33
910.202	1083.89
910.38	1108.46
910.559	729.59
910.737	668.15
910.915	1169.9
911.093	1098.22
911.271	745.97
911.449	940.53
911.627	1214.96
911.805	1616.36
911.983	756.21
912.161	741.88
912.339	1112.56
912.517	1298.92
912.695	956.91
912.872	772.6
913.05	807.41
913.228	1229.29
913.406	846.32
913.584	694.77
913.762	1227.25
913.939	997.87
914.117	647.67
914.295	748.02
914.473	1169.9
914.65	1153.52
914.828	754.16
915.006	786.93
915.184	670.2
915.361	1221.1
915.539	893.43
915.716	1022.45
915.894	1126.89
916.072	1288.68
916.249	1169.9
916.427	1026.54
916.604	774.64
916.782	1210.86
916.959	754.16
917.137	737.78
917.314	1038.83
917.492	1122.8
917.669	870.9
917.847	948.72
918.024	1126.89
918.201	920.05
918.379	852.47
918.556	809.46
918.733	1260.01
918.911	961.01
919.088	1014.26
919.265	858.61
919.442	1161.71
919.62	956.91
919.797	727.54
919.974	657.91
920.151	1130.99
920.328	1038.83
920.506	778.74
920.683	991.73
920.86	768.5
921.037	940.53
921.214	766.45
921.391	657.91
921.568	1219.05
921.745	909.81
921.922	690.68
922.099	696.82
922.276	1157.61
922.453	1079.79
922.63	801.27
922.807	961.01
922.984	1067.5
923.161	793.08
923.338	729.59
923.514	776.69
923.691	932.34
923.868	1098.22
924.045	723.44
924.222	690.68
924.399	961.01
924.575	1161.71
924.752	834.04
924.929	834.04
925.105	1155.57
925.282	844.28
925.459	860.66
925.635	715.25
925.812	1008.11
925.989	827.89
926.165	801.27
926.342	600.57
926.518	807.41
926.695	981.49
926.871	612.85
927.048	619
927.224	1092.08
927.401	786.93
927.577	762.36
927.754	565.75
927.93	1208.81
928.107	1104.37
928.283	528.89
928.459	805.36
928.636	1047.02
928.812	911.86
928.988	608.76
929.165	498.17
929.341	909.81
929.517	924.15
929.693	1079.79
929.87	549.37
930.046	1130.99
930.222	862.71
930.398	551.42
930.574	713.21
930.751	977.39
930.927	700.92
931.103	719.35
931.279	723.44
931.455	696.82
931.631	969.2
931.807	477.69
931.983	530.94
932.159	596.47
932.335	948.72
932.511	713.21
932.687	629.24
932.863	965.11
933.039	866.8
933.215	532.98
933.391	461.3
933.566	795.12
933.742	870.9
933.918	559.61
934.094	256.51
934.27	813.56
934.445	850.42
934.621	655.86
934.797	565.75
934.973	938.48
935.148	829.94
935.324	397.82
935.5	317.95
935.675	1026.54
935.851	887.28
936.027	584.18
936.202	598.52
936.378	831.99
936.553	678.39
936.729	879.09
936.904	428.54
937.08	453.11
937.255	555.51
937.431	422.39
937.606	410.11
937.782	506.36
937.957	791.03
938.133	442.87
938.308	375.29
938.483	690.68
938.659	483.83
938.834	526.84
939.009	268.8
939.185	649.72
939.36	371.19
939.535	172.54
939.71	498.17
939.886	903.67
940.061	766.45
940.236	625.14
940.411	317.95
940.586	682.49
940.761	684.53
940.937	424.44
941.112	311.8
941.287	569.85
941.462	616.95
941.637	104.96
941.812	367.1
941.987	565.75
942.162	610.81
942.337	330.23
942.512	393.72
942.687	815.6
942.862	684.53
943.037	195.07
943.212	-24.06
943.386	530.94
943.561	578.04
943.736	526.84
943.911	727.54
944.086	739.83
944.26	623.09
944.435	231.93
944.61	401.91
944.785	795.12
944.959	893.43
945.134	377.34
945.309	309.76
945.483	244.22
945.658	717.3
945.833	154.11
946.007	147.97
946.182	858.61
946.357	287.23
946.531	227.84
946.706	190.97
946.88	47.62
947.055	582.14
947.229	197.12
947.404	227.84
947.578	651.77
947.752	385.53
947.927	92.67
948.101	55.81
948.276	489.98
948.45	600.57
948.624	461.3
948.799	180.73
948.973	584.18
949.147	211.45
949.321	268.8
949.496	285.18
949.67	778.74
949.844	373.24
950.018	219.64
950.193	276.99
950.367	1010.16
950.541	428.54
950.715	406.01
950.889	391.67
951.063	377.34
951.237	598.52
951.411	49.66
951.585	98.81
951.759	600.57
951.933	545.27
952.107	268.8
952.281	461.3
952.455	834.04
952.629	758.26
952.803	147.97
952.977	145.92
953.151	670.2
953.325	631.29
953.499	434.68
953.672	41.47
953.846	248.32
954.02	344.57
954.194	170.49
954.368	211.45
954.541	631.29
954.715	387.58
954.889	371.19
955.062	256.51
955.236	467.45
955.41	367.1
955.583	352.76
955.757	53.76
955.93	522.74
956.104	207.36
956.278	133.63
956.451	285.18
956.625	563.7
956.798	946.67
956.972	430.59
957.145	107.01
957.319	489.98
957.492	555.51
957.665	406.01
957.839	156.16
958.012	608.76
958.185	383.48
958.359	272.89
958.532	338.43
958.705	575.99
958.879	506.36
959.052	346.62
959.225	133.63
959.398	565.75
959.572	580.09
959.745	231.93
959.918	285.18
960.091	401.91
960.264	520.7
960.438	90.62
960.611	176.64
960.784	612.85
960.957	350.71
961.13	584.18
961.303	133.63
961.476	434.68
961.649	592.37
961.822	121.34
961.995	326.14
962.168	582.14
962.341	408.06
962.514	250.36
962.686	178.69
962.859	440.83
963.032	551.42
963.205	207.36
963.378	41.47
963.551	606.71
963.723	426.49
963.896	432.63
964.069	416.25
964.242	539.13
964.414	678.39
964.587	264.7
964.76	365.05
964.932	608.76
965.105	449.02
965.278	205.31
965.45	166.4
965.623	420.35
965.795	633.33
965.968	219.64
966.14	352.76
966.313	418.3
966.485	457.21
966.658	293.37
966.83	156.16
967.003	672.25
967.175	631.29
967.348	252.41
967.52	299.52
967.692	778.74
967.865	608.76
968.037	350.71
968.209	600.57
968.382	477.69
968.554	641.53
968.726	236.03
968.898	268.8
969.071	520.7
969.243	604.66
969.415	307.71
969.587	358.91
969.759	928.24
969.932	670.2
970.104	336.38
970.276	16.9
970.448	342.52
970.62	276.99
970.792	358.91
970.964	256.51
971.136	920.05
971.308	604.66
971.48	201.21
971.652	219.64
971.824	793.08
971.996	375.29
972.168	274.94
972.339	229.88
972.511	772.6
972.683	524.79
972.855	408.06
973.027	268.8
973.199	389.63
973.37	688.63
973.542	416.25
973.714	424.44
973.886	492.02
974.057	645.62
974.229	162.3
974.401	227.84
974.572	293.37
974.744	18.94
974.915	178.69
975.087	188.93
975.259	887.28
975.43	307.71
975.602	211.45
975.773	205.31
975.945	227.84
976.116	604.66
976.288	197.12
976.459	373.24
976.63	406.01
976.802	625.14
976.973	123.39
977.145	274.94
977.316	852.47
977.487	473.59
977.659	358.91
977.83	238.08
978.001	834.04
978.172	555.51
978.344	199.16
978.515	213.5
978.686	397.82
978.857	782.84
979.028	215.55
979.2	129.53
979.371	678.39
979.542	434.68
979.713	332.28
979.884	-140.8
980.055	264.7
980.226	381.43
980.397	266.75
980.568	139.77
980.739	647.67
980.91	356.86
981.081	401.91
981.252	127.49
981.423	584.18
981.594	717.3
981.765	84.48
981.936	274.94
982.106	424.44
982.277	725.49
982.448	188.93
982.619	360.95
982.79	305.66
982.96	688.63
983.131	291.32
983.302	0.51
983.472	383.48
983.643	463.35
983.814	338.43
983.984	150.01
984.155	285.18
984.326	723.44
984.496	334.33
984.667	262.65
984.837	383.48
985.008	772.6
985.178	451.07
985.349	266.75
985.519	408.06
985.69	289.28
985.86	240.12
986.031	125.44
986.201	496.12
986.371	588.28
986.542	137.73
986.712	29.18
986.882	584.18
987.053	569.85
987.223	131.58
987.393	248.32
987.563	334.33
987.734	514.55
987.904	543.22
988.074	121.34
988.244	473.59
988.414	299.52
988.585	174.59
988.755	229.88
988.925	328.19
989.095	702.97
989.265	207.36
989.435	268.8
989.605	553.46
989.775	545.27
989.945	420.35
990.115	80.38
990.285	391.67
990.455	457.21
990.625	264.7
990.795	166.4
990.965	782.84
991.134	238.08
991.304	100.86
991.474	113.15
991.644	510.46
991.814	768.5
991.984	104.96
992.153	113.15
992.323	338.43
992.493	397.82
992.662	-22.02
992.832	324.09
993.002	432.63
993.171	477.69
993.341	43.52
993.511	338.43
993.68	281.08
993.85	608.76
994.019	-26.11
994.189	-9.73
994.358	487.93
994.528	268.8
994.697	-67.07
994.867	33.28
995.036	604.66
995.206	367.1
995.375	64
995.544	266.75
995.714	403.96
995.883	336.38
996.052	260.6
996.222	-56.83
996.391	879.09
996.56	416.25
996.73	14.85
996.899	-108.03
997.068	680.44
997.237	391.67
997.406	6.66
997.576	-75.26
997.745	469.5
997.914	416.25
998.083	-128.51
998.252	84.48
998.421	311.8
998.59	231.93
998.759	-65.02
998.928	-34.3
999.097	639.48
999.266	426.49
999.435	170.49
999.604	-126.46
999.773	825.84
999.942	285.18
1000.111	-97.79
1000.28	-110.08
1000.448	117.25
1000.617	45.57
1000.786	236.03
1000.955	-85.5
1001.124	416.25
1001.292	1014.26
1001.461	-26.11
1001.63	-42.5
1001.798	651.77
1001.967	553.46
1002.136	-83.45
1002.304	-38.4
1002.473	408.06
1002.642	395.77
1002.81	-30.21
1002.979	35.33
1003.147	563.7
1003.316	903.67
1003.484	-24.06
1003.653	-11.78
1003.821	662.01
1003.99	188.93
1004.158	135.68
1004.327	6.66
1004.495	547.32
1004.663	193.02
1004.832	121.34
1005	-134.65
1005.168	543.22
1005.337	459.26
1005.505	-159.23
1005.673	156.16
1005.842	489.98
1006.01	449.02
1006.178	-36.35
1006.346	64
1006.514	379.39
1006.683	600.57
1006.851	55.81
1007.019	-81.41
1007.187	139.77
1007.355	-112.13
1007.523	-153.09
1007.691	-148.99
1007.859	20.99
1008.027	641.53
1008.195	14.85
1008.363	-108.03
1008.531	514.55
1008.699	172.54
1008.867	-167.42
1009.035	-32.26
1009.203	573.94
1009.37	375.29
1009.538	-50.69
1009.706	440.83
1009.874	418.3
1010.042	320
1010.209	-91.65
1010.377	-95.74
1010.545	473.59
1010.713	317.95
1010.88	-44.54
1011.048	10.75
1011.216	225.79
1011.383	633.33
1011.551	-132.61
1011.718	-120.32
1011.886	584.18
1012.054	207.36
1012.221	-58.88
1012.389	-77.31
1012.556	276.99
1012.724	717.3
1012.891	43.52
1013.058	-204.28
1013.226	506.36
1013.393	496.12
1013.561	-179.71
1013.728	-237.05
1013.895	451.07
1014.063	432.63
1014.23	-194.05
1014.397	-79.36
1014.565	567.8
1014.732	207.36
1014.899	45.57
1015.066	-179.71
1015.233	354.81
1015.401	473.59
1015.568	-103.93
1015.735	27.14
1015.902	342.52
1016.069	344.57
1016.236	-28.16
1016.403	-79.36
1016.57	78.33
1016.737	463.35
1016.904	-81.41
1017.071	-91.65
1017.238	96.77
1017.405	510.46
1017.572	31.23
1017.739	156.16
1017.906	434.68
1018.073	559.61
1018.24	-161.28
1018.407	6.66
1018.573	516.6
1018.74	164.35
1018.907	-42.5
1019.074	-157.18
1019.241	627.19
1019.407	303.61
1019.574	-54.78
1019.741	-87.55
1019.907	465.4
1020.074	375.29
1020.241	-300.54
1020.407	-138.75
1020.574	449.02
1020.74	367.1
1020.907	-60.93
1021.073	-177.66
1021.24	778.74
1021.406	666.1
1021.573	-179.71
1021.739	-120.32
1021.906	528.89
1022.072	188.93
1022.239	-95.74
1022.405	12.8
1022.571	297.47
1022.738	88.57
1022.904	-50.69
1023.07	-13.82
1023.237	307.71
1023.403	473.59
1023.569	-85.5
1023.735	-3.58
1023.902	270.84
1024.068	242.17
1024.234	-81.41
1024.4	-71.17
1024.566	313.85
1024.732	444.92
1024.898	-3.58
1025.065	-237.05
1025.231	444.92
1025.397	184.83
1025.563	-71.17
1025.729	-177.66
1025.895	-142.85
1026.061	74.24
1026.227	-214.52
1026.392	-99.84
1026.558	549.37
1026.724	428.54
1026.89	-157.18
1027.056	16.9
1027.222	395.77
1027.388	201.21
1027.553	-140.8
1027.719	-148.99
1027.885	643.57
1028.051	406.01
1028.216	-353.79
1028.382	-138.75
1028.548	465.4
1028.713	174.59
1028.879	-140.8
1029.045	-9.73
1029.21	639.48
1029.376	457.21
1029.541	-22.02
1029.707	16.9
1029.873	473.59
1030.038	360.95
1030.204	-89.6
1030.369	-58.88
1030.534	451.07
1030.7	190.97
1030.865	-11.78
1031.031	-146.94
1031.196	428.54
1031.361	367.1
1031.527	-235
1031.692	-171.52
1031.857	-56.83
1032.023	453.11
1032.188	-194.05
1032.353	-46.59
1032.518	586.23
1032.684	297.47
1032.849	-292.35
1033.014	-58.88
1033.179	526.84
1033.344	453.11
1033.509	-138.75
1033.674	-34.3
1033.839	399.87
1034.004	420.35
1034.17	-165.37
1034.335	-194.05
1034.5	176.64
1034.664	168.45
1034.829	-267.77
1034.994	-32.26
1035.159	317.95
1035.324	326.14
1035.489	-95.74
1035.654	-185.85
1035.819	610.81
1035.984	334.33
1036.148	-151.04
1036.313	-93.69
1036.478	440.83
1036.643	299.52
1036.807	-226.81
1036.972	-189.95
1037.137	551.42
1037.301	334.33
1037.466	-280.06
1037.631	-69.12
1037.795	535.03
1037.96	436.73
1038.124	29.18
1038.289	-194.05
1038.454	434.68
1038.618	367.1
1038.783	-140.8
1038.947	-34.3
1039.111	340.47
1039.276	162.3
1039.44	-226.81
1039.605	283.13
1039.769	182.78
1039.933	199.16
1040.098	-17.92
1040.262	123.39
1040.426	485.88
1040.591	428.54
1040.755	-179.71
1040.919	-120.32
1041.083	340.47
1041.248	225.79
1041.412	-230.91
1041.576	-161.28
1041.74	207.36
1041.904	418.3
1042.068	-128.51
1042.232	-112.13
1042.397	457.21
1042.561	360.95
1042.725	-331.26
1042.889	16.9
1043.053	420.35
1043.217	348.67
1043.381	-62.98
1043.544	-189.95
1043.708	514.55
1043.872	113.15
1044.036	-353.79
1044.2	-245.24
1044.364	510.46
1044.528	602.61
1044.691	4817.33
1044.855	-206.33
1045.019	428.54
1045.183	465.4
1045.346	-126.46
1045.51	-159.23
1045.674	285.18
1045.837	440.83
1046.001	-144.89
1046.165	-81.41
1046.328	745.97
1046.492	309.76
1046.655	61.95
1046.819	2.56
1046.983	209.4
1047.146	465.4
1047.31	-95.74
1047.473	-259.58
1047.636	307.71
1047.8	113.15
1047.963	-52.74
1048.127	-157.18
1048.29	51.71
