Data from Ink_Intensity_USB4F045381__0__00000.txt Node

Date: Mon Jul 17 09:21:09 EDT 2023
User: mmckonesweet
Spectrometer: USB4F04538
Trigger mode: 4
Integration Time (sec): 9.000000E-1
Scans to average: 1
Electric dark correction enabled: true
Nonlinearity correction enabled: false
Boxcar width: 0
XAxis mode: Wavelengths
Number of Pixels in Spectrum: 3648
>>>>>Begin Spectral Data<<<<<
345.52	-877.21
345.736	-877.21
345.952	-877.21
346.168	-875.17
346.384	-899.74
346.6	-76.46
346.816	-277.16
347.032	-244.39
347.248	206.16
347.464	-111.27
347.68	-60.07
347.896	116.05
348.112	417.1
348.328	-33.45
348.544	-166.57
348.76	50.52
348.975	179.54
349.191	-160.42
349.407	25.94
349.623	17.75
349.839	-72.36
350.055	68.95
350.27	247.12
350.486	251.22
350.702	427.34
350.918	335.18
351.133	-105.13
351.349	200.02
351.565	384.34
351.781	-80.55
351.996	165.2
352.212	435.53
352.428	-35.5
352.644	-60.07
352.859	-82.6
353.075	339.28
353.291	-29.35
353.506	15.7
353.722	-68.27
353.938	-12.97
354.153	505.17
354.369	220.5
354.584	-51.88
354.8	269.65
355.016	-174.76
355.231	-137.9
355.447	136.53
355.662	83.28
355.878	1056.07
356.093	-96.94
356.309	134.48
356.524	-125.61
356.74	345.42
356.955	38.23
357.171	154.96
357.386	216.4
357.602	-144.04
357.817	97.62
358.033	-49.83
358.248	376.14
358.464	187.73
358.679	103.76
358.895	-174.76
359.11	97.62
359.325	449.87
359.541	292.18
359.756	189.78
359.972	-230.06
360.187	130.39
360.402	-45.74
360.618	34.13
360.833	814.41
361.048	206.16
361.264	-72.36
361.479	140.63
361.694	-23.21
361.909	249.17
362.125	-25.26
362.34	122.2
362.555	302.42
362.77	130.39
362.986	-39.59
363.201	-21.16
363.416	150.87
363.631	85.33
363.847	7.51
364.062	44.37
364.277	288.08
364.492	173.39
364.707	40.28
364.922	-217.77
365.138	361.81
365.353	427.34
365.568	-105.13
365.783	46.42
365.998	214.35
366.213	599.37
366.428	9.56
366.643	195.92
366.858	398.67
367.073	304.46
367.288	91.48
367.503	-90.79
367.718	206.16
367.933	372.05
368.148	-25.26
368.363	138.58
368.578	23.89
368.793	521.55
369.008	17.75
369.223	-6.83
369.438	275.79
369.653	638.28
369.868	-12.97
370.083	-31.4
370.298	234.83
370.513	525.65
370.728	296.27
370.943	71
371.157	-25.26
371.372	619.85
371.587	32.08
371.802	-88.75
372.017	189.78
372.232	466.25
372.446	206.16
372.661	-43.69
372.876	445.77
373.091	279.89
373.306	154.96
373.52	58.71
373.735	-2.73
373.95	494.93
374.165	212.31
374.379	75.09
374.594	95.57
374.809	247.12
375.023	157.01
375.238	-41.64
375.453	320.85
375.667	-55.98
375.882	171.35
376.097	83.28
376.311	318.8
376.526	136.53
376.741	-33.45
376.955	359.76
377.17	765.26
377.384	656.72
377.599	181.59
377.813	159.06
378.028	709.96
378.242	367.95
378.457	140.63
378.672	-25.26
378.886	392.53
379.101	152.92
379.315	15.7
379.53	68.95
379.744	187.73
379.958	390.48
380.173	171.35
380.387	163.15
380.602	380.24
380.816	126.29
381.031	154.96
381.245	185.68
381.459	353.62
381.674	2231.6
381.888	128.34
382.103	365.9
382.317	83.28
382.531	738.63
382.746	152.92
382.96	181.59
383.174	204.11
383.388	654.67
383.603	429.39
383.817	159.06
384.031	415.06
384.246	595.28
384.46	331.09
384.674	503.12
384.888	355.66
385.103	218.45
385.317	71
385.531	245.07
385.745	628.04
385.959	554.32
386.174	202.07
386.388	212.31
386.602	322.9
386.816	128.34
387.03	316.75
387.244	382.29
387.458	351.57
387.672	556.36
387.887	161.11
388.101	138.58
388.315	675.15
388.529	388.43
388.743	349.52
388.957	222.55
389.171	591.18
389.385	232.79
389.599	263.51
389.813	546.12
390.027	525.65
390.241	1000.77
390.455	386.38
390.669	343.38
390.883	228.69
391.097	763.21
391.311	439.63
391.525	290.13
391.738	521.55
391.952	501.07
392.166	470.35
392.38	302.42
392.594	587.08
392.808	654.67
393.022	390.48
393.236	439.63
393.449	621.9
393.663	480.59
393.877	263.51
394.091	451.92
394.305	306.51
394.518	290.13
394.732	253.27
394.946	406.86
395.16	775.5
395.373	537.93
395.587	382.29
395.801	361.81
396.015	722.25
396.228	535.89
396.442	216.4
396.656	361.81
396.869	789.83
397.083	773.45
397.297	480.59
397.51	337.23
397.724	867.66
397.938	570.7
398.151	222.55
398.365	343.38
398.578	693.58
398.792	804.17
399.005	550.22
399.219	476.49
399.433	632.14
399.646	630.09
399.86	574.8
400.073	632.14
400.287	742.73
400.5	441.68
400.714	568.65
400.927	654.67
401.141	744.78
401.354	1391.94
401.567	808.27
401.781	398.67
401.994	750.92
402.208	1078.6
402.421	486.73
402.635	615.76
402.848	632.14
403.061	902.47
403.275	609.61
403.488	515.41
403.701	1064.26
403.915	761.16
404.128	718.15
404.341	572.75
404.555	750.92
404.768	638.28
404.981	662.86
405.195	515.41
405.408	1221.95
405.621	740.68
405.834	732.49
406.048	609.61
406.261	1039.69
406.474	1187.14
406.687	634.19
406.9	697.67
407.114	664.91
407.327	734.54
407.54	525.65
407.753	566.6
407.966	548.17
408.179	976.2
408.392	589.13
408.605	484.69
408.819	920.9
409.032	808.27
409.245	634.19
409.458	843.08
409.671	1006.92
409.884	980.29
410.097	552.27
410.31	836.94
410.523	902.47
410.736	728.39
410.949	759.11
411.162	851.27
411.375	1230.15
411.588	1047.88
411.801	998.73
412.014	681.29
412.227	851.27
412.44	795.98
412.653	718.15
412.865	933.19
413.078	1080.64
413.291	1037.64
413.504	873.8
413.717	834.89
413.93	1090.88
414.143	724.3
414.356	777.55
414.568	701.77
414.781	1111.36
414.994	996.68
415.207	914.76
415.42	963.91
415.632	1172.8
415.845	1328.45
416.058	705.87
416.271	785.74
416.483	982.34
416.696	1373.5
416.909	1045.83
417.121	857.42
417.334	1224
417.547	1606.97
417.759	982.34
417.972	943.43
418.185	853.32
418.397	1217.86
418.61	824.65
418.823	933.19
419.035	1416.51
419.248	1129.8
419.46	1074.5
419.673	1162.56
419.885	1391.94
420.098	1008.97
420.311	980.29
420.523	881.99
420.736	1262.91
420.948	1262.91
421.161	1015.11
421.373	818.5
421.586	1316.16
421.798	1144.13
422.01	914.76
422.223	1176.9
422.435	1037.64
422.648	1385.79
422.86	1121.6
423.073	1002.82
423.285	1572.16
423.497	937.29
423.71	1002.82
423.922	1068.36
424.134	1336.64
424.347	1631.55
424.559	1344.83
424.771	1441.09
424.984	1129.8
425.196	1404.22
425.408	1049.93
425.621	1080.64
425.833	1639.74
426.045	1469.76
426.257	1221.95
426.47	1193.28
426.682	1549.63
426.894	1547.58
427.106	1361.22
427.318	1289.54
427.531	1273.15
427.743	1592.64
427.955	1367.36
428.167	1760.57
428.379	1606.97
428.591	1500.48
428.804	1475.9
429.016	1369.41
429.228	1463.62
429.44	1566.01
429.652	1647.93
429.864	1334.59
430.076	1525.05
430.288	1584.45
430.5	1518.91
430.712	1539.39
430.924	1850.68
431.136	1731.9
431.348	1367.36
431.56	1426.75
431.772	1656.12
431.984	1572.16
432.196	1639.74
432.408	1574.21
432.62	1541.44
432.832	1774.91
433.044	1918.26
433.256	1776.95
433.468	1897.78
433.679	1434.94
433.891	1619.26
434.103	1733.95
434.315	2151.73
434.527	2002.23
434.739	1797.43
434.95	1770.81
435.162	2137.4
435.374	1813.82
435.586	1727.8
435.798	1664.32
436.009	1697.08
436.221	1817.91
436.433	1824.06
436.645	1754.43
436.856	1856.83
437.068	2157.88
437.28	1791.29
437.491	2112.82
437.703	2045.24
437.915	2145.59
438.126	2000.18
438.338	2102.58
438.55	1930.55
438.761	2227.51
438.973	2114.87
439.184	1918.26
439.396	2266.42
439.608	2420.02
439.819	1815.87
440.031	2063.67
440.242	2413.87
440.454	2282.8
440.665	2108.73
440.877	2204.98
441.088	2221.36
441.3	2084.15
441.511	1875.26
441.723	1998.13
441.934	2327.86
442.146	2319.67
442.357	2270.51
442.569	2338.1
442.78	2297.14
442.991	2618.67
443.203	2358.58
443.414	2006.33
443.626	2686.25
443.837	2194.74
444.048	2370.87
444.26	2172.21
444.471	2397.49
444.682	2567.47
444.894	2102.58
445.105	2073.91
445.316	2643.24
445.528	2497.84
445.739	2368.82
445.95	2450.74
446.161	2465.07
446.373	2704.68
446.584	2450.74
446.795	2540.85
447.006	2764.08
447.217	2907.43
447.429	2241.84
447.64	2264.37
447.851	2704.68
448.062	2712.88
448.273	2297.14
448.484	2344.24
448.695	2657.58
448.907	2606.38
449.118	2565.42
449.329	2647.34
449.54	2622.77
449.751	2340.15
449.962	2475.31
450.173	2514.22
450.384	2897.19
450.595	3028.26
450.806	2651.44
451.017	2731.31
451.228	2960.68
451.439	2884.91
451.65	2841.9
451.861	2532.65
452.072	2678.06
452.283	2868.52
452.494	2972.97
452.705	2739.5
452.915	3290.4
453.126	3013.93
453.337	2774.32
453.548	2762.03
453.759	3081.51
453.97	3527.97
454.181	3069.22
454.391	3042.6
454.602	3020.07
454.813	3235.11
455.024	2999.59
455.235	3065.13
455.445	3124.52
455.656	3210.53
455.867	3157.29
456.078	3063.08
456.288	3054.89
456.499	3339.55
456.71	3190.05
456.921	3317.03
457.131	3372.32
457.342	3317.03
457.553	3308.83
457.763	3202.34
457.974	3638.56
458.184	3542.3
458.395	3300.64
458.606	3226.92
458.816	3620.13
459.027	4111.64
459.237	3665.18
459.448	3398.95
459.659	3779.87
459.869	4197.65
460.08	3460.38
460.29	3812.64
460.501	4162.84
460.711	3845.4
460.922	3589.41
461.132	3929.37
461.343	4412.69
461.553	3683.61
461.764	3865.88
461.974	3818.78
462.184	4068.63
462.395	4293.91
462.605	4199.7
462.816	3872.03
463.026	4138.26
463.236	4334.87
463.447	3947.8
463.657	3994.9
463.867	4549.9
464.078	4230.42
464.288	4189.46
464.498	4355.35
464.709	4420.88
464.919	4463.89
465.129	4308.24
465.339	4406.55
465.55	4701.45
465.76	4521.23
465.97	4461.84
466.18	4586.77
466.391	5113.1
466.601	4832.52
466.811	4732.17
467.021	4656.4
467.231	5127.43
467.441	5068.04
467.651	5104.9
467.862	4973.83
468.072	5258.5
468.282	5666.05
468.492	4957.45
468.702	5403.91
468.912	5309.7
469.122	5956.86
469.332	5727.49
469.542	5098.76
469.752	5694.72
469.962	5823.74
470.172	5502.21
470.382	5534.98
470.592	5727.49
470.802	6165.75
471.012	5874.94
471.222	6014.2
471.432	6233.33
471.642	6153.46
471.852	6163.7
472.062	5963
472.272	6386.93
472.482	6194.42
472.691	6307.06
472.901	6239.48
473.111	6538.48
473.321	7152.87
473.531	6395.12
473.741	6585.58
473.95	6921.45
474.16	6860.01
474.37	6892.78
474.58	7021.8
474.79	7396.58
474.999	7222.5
475.209	6954.22
475.419	7173.35
475.628	7306.47
475.838	7636.19
476.048	7632.1
476.258	7359.72
476.467	8086.75
476.677	7750.88
476.886	7976.16
477.096	7996.64
477.306	7732.45
477.515	8338.65
477.725	8051.93
477.935	8230.1
478.144	8451.28
478.354	8158.42
478.563	8563.92
478.773	8324.31
478.982	8682.7
479.192	9202.89
479.401	8598.74
479.611	8754.38
479.82	8617.17
480.03	9110.73
480.239	8922.32
480.449	8914.13
480.658	9723.07
480.868	9297.1
481.077	9694.4
481.287	9489.6
481.496	9665.73
481.705	10097.85
481.915	9694.4
482.124	10050.75
482.333	10044.6
482.543	10278.07
482.752	9977.02
482.961	10101.95
483.171	10503.35
483.38	10247.35
483.589	10544.31
483.799	10251.45
484.008	10638.51
484.217	10955.95
484.426	10820.78
484.636	10726.58
484.845	11281.58
485.054	10728.63
485.263	11101.36
485.472	11148.46
485.682	11611.3
485.891	11381.93
486.1	10892.46
486.309	11603.11
486.518	11592.87
486.727	12010.65
486.936	11443.37
487.146	11871.39
487.355	12156.06
487.564	11859.1
487.773	12031.13
487.982	12016.8
488.191	12059.81
488.4	12403.86
488.609	12215.45
488.818	12299.42
489.027	13159.56
489.236	12838.03
489.445	12758.16
489.654	12655.76
489.863	13075.6
490.072	12674.2
490.281	13157.52
490.49	12803.22
490.698	13720.71
490.907	13499.53
491.116	13309.07
491.325	13149.32
491.534	13765.76
491.743	13477
491.952	13595.78
492.16	13560.97
492.369	13784.19
492.578	14017.66
492.787	13737.09
492.996	13751.43
493.204	13780.1
493.413	14394.49
493.622	13857.92
493.831	13927.55
494.039	14775.41
494.248	14181.5
494.457	14355.58
494.665	14431.35
494.874	14730.36
495.083	15176.81
495.291	14699.64
495.5	14611.57
495.709	15072.37
495.917	15115.37
496.126	14861.43
496.335	15066.22
496.543	15058.03
496.752	15465.58
496.96	15352.94
497.169	15096.94
497.377	15397.99
497.586	15866.98
497.794	15504.49
498.003	15524.97
498.211	15750.24
498.42	16000.1
498.628	15850.6
498.837	15504.49
499.045	16118.88
499.254	15993.95
499.462	15940.71
499.671	16241.76
499.879	16467.03
500.087	16700.5
500.296	16460.89
500.504	16196.7
500.713	16622.68
500.921	17032.27
501.129	16163.93
501.338	16591.96
501.546	16501.85
501.754	16794.71
501.962	16600.15
502.171	16690.26
502.379	17245.26
502.587	17357.9
502.795	17241.17
503.004	17032.27
503.212	17175.63
503.42	17521.74
503.628	17110.1
503.837	17656.9
504.045	17493.07
504.253	17939.52
504.461	17472.59
504.669	17288.27
504.877	17847.36
505.085	18123.84
505.294	17405
505.502	17689.67
505.71	18023.49
505.918	17923.14
506.126	17773.64
506.334	17693.77
506.542	18056.26
506.75	18220.1
506.958	17955.91
507.166	18041.92
507.374	18285.63
507.582	18670.65
507.79	18291.77
507.998	18383.93
508.206	18852.92
508.414	18705.46
508.622	18504.76
508.83	18394.17
509.037	18986.04
509.245	18416.7
509.453	18633.78
509.661	18682.94
509.869	19139.63
510.077	18902.07
510.285	19104.82
510.492	18609.21
510.7	19676.2
510.908	18996.28
511.116	18668.6
511.324	18916.4
511.531	19364.91
511.739	19418.16
511.947	19381.29
512.155	19686.44
512.362	19446.83
512.57	19506.22
512.778	19340.33
512.985	19420.2
513.193	19856.42
513.401	19891.24
513.608	19842.09
513.816	19645.48
514.024	20104.23
514.231	20067.36
514.439	19631.15
514.646	19610.67
514.854	20378.65
515.061	20048.93
515.269	19823.65
515.477	20366.37
515.684	19983.4
515.892	20462.62
516.099	20204.58
516.307	20024.36
516.514	20511.77
516.722	20847.64
516.929	20595.74
517.136	20503.58
517.344	20556.83
517.551	20493.34
517.759	20935.7
517.966	20716.57
518.173	20911.13
518.381	21007.38
518.588	20991
518.796	20737.05
519.003	21187.6
519.21	21052.44
519.418	20984.85
519.625	21158.93
519.832	20986.9
520.039	21414.93
520.247	21179.41
520.454	21109.78
520.661	21912.58
520.868	21736.46
521.076	21439.5
521.283	21433.36
521.49	22191.11
521.697	21675.02
521.904	21525.52
522.112	21457.93
522.319	22266.88
522.526	21998.6
522.733	22213.63
522.94	22029.32
523.147	21908.49
523.354	22164.48
523.561	22354.94
523.768	22101
523.975	22877.18
524.183	22447.1
524.39	22406.14
524.597	22303.74
524.804	22490.11
525.011	22641.66
525.218	22404.1
525.425	22486.01
525.632	23057.4
525.838	22752.25
526.045	22670.33
526.252	22709.24
526.459	23735.28
526.666	23780.33
526.873	22846.46
527.08	23000.05
527.287	23204.85
527.494	22897.66
527.701	23045.11
527.907	23174.13
528.114	23608.3
528.321	23497.71
528.528	23344.11
528.735	23641.07
528.941	23399.41
529.148	23276.53
529.355	23276.53
529.562	23026.68
529.768	23981.03
529.975	23575.53
530.182	23622.64
530.388	23567.34
530.595	24237.03
530.802	23262.19
531.008	24271.84
531.215	24157.16
531.422	24642.53
531.628	24787.93
531.835	24194.02
532.042	24132.58
532.248	24663
532.455	24548.32
532.661	24484.83
532.868	24355.81
533.074	24667.1
533.281	25101.27
533.487	24855.51
533.694	24372.19
533.9	25021.4
534.107	24583.13
534.313	24726.49
534.52	24990.68
534.726	25351.12
534.933	25695.18
535.139	24972.25
535.345	25062.36
535.552	25314.26
535.758	25166.81
535.965	25287.64
536.171	25381.84
536.377	25881.55
536.584	25646.03
536.79	25451.47
536.996	25693.13
537.203	25666.51
537.409	25689.04
537.615	25748.43
537.821	25695.18
538.028	26489.79
538.234	26457.03
538.44	25871.31
538.646	25822.16
538.853	26428.35
539.059	26192.84
539.265	26553.28
539.471	26008.52
539.677	26596.29
539.883	26600.38
540.09	26340.29
540.296	26981.31
540.502	26614.72
540.708	26317.76
540.914	26604.48
541.12	26526.66
541.326	26667.97
541.532	26829.76
541.738	27237.3
541.944	26862.52
542.15	27440.05
542.356	27534.26
542.562	27143.1
542.768	27278.26
542.974	28003.24
543.18	27868.08
543.386	27235.25
543.592	27378.61
543.798	27984.81
544.004	27906.99
544.21	27628.46
544.415	27317.17
544.621	27931.56
544.827	27782.06
545.033	27585.46
545.239	27986.86
545.445	28119.98
545.651	28007.34
545.856	27816.88
546.062	28126.12
546.268	28259.24
546.474	28273.57
546.679	27831.21
546.885	28087.21
547.091	27945.9
547.297	28498.85
547.502	28390.31
547.708	27773.87
547.914	27980.71
548.119	28339.11
548.325	28277.67
548.531	28281.77
548.736	28914.59
548.942	28312.49
549.147	28181.42
549.353	29019.03
549.559	29418.39
549.764	28996.51
549.97	28621.73
550.175	28691.36
550.381	29268.89
550.586	28629.92
550.792	28832.67
550.997	29070.23
551.203	29492.12
551.408	29356.95
551.614	28681.12
551.819	29293.46
552.025	29725.58
552.23	30073.74
552.435	29240.22
552.641	30247.82
552.846	29346.71
553.052	30247.82
553.257	29821.84
553.462	29666.19
553.668	29694.86
553.873	30419.85
554.078	29776.78
554.283	30241.67
554.489	30315.4
554.694	30475.14
554.899	30282.63
555.105	30315.4
555.31	30557.06
555.515	30425.99
555.72	30796.67
555.925	30184.33
556.131	30608.26
556.336	30546.82
556.541	30593.92
556.746	30546.82
556.951	30700.42
557.156	31144.83
557.361	30737.28
557.567	30815.1
557.772	31460.21
557.977	30718.85
558.182	30563.2
558.387	30694.27
558.592	30649.22
558.797	31478.64
559.002	30899.07
559.207	30856.06
559.412	31030.14
559.617	31298.42
559.822	30993.28
560.027	31075.2
560.232	31456.12
560.437	31597.43
560.642	31296.38
560.847	31468.41
561.051	31597.43
561.256	31431.54
561.461	31148.92
561.666	31351.67
561.871	31423.35
562.076	31683.44
562.281	31683.44
562.485	31476.6
562.69	31708.02
562.895	31763.31
563.1	31259.51
563.305	31523.7
563.509	32158.57
563.714	32283.5
563.919	31677.3
564.123	31576.95
564.328	31572.85
564.533	32158.57
564.737	31437.69
564.942	31781.74
565.147	32832.35
565.351	32633.7
565.556	31972.21
565.761	32537.44
565.965	31918.96
566.17	31906.67
566.374	32185.19
566.579	31976.3
566.784	32035.69
566.988	32183.15
567.193	31951.73
567.397	32281.45
567.602	32197.48
567.806	32338.79
568.011	32535.4
568.215	32942.94
568.42	32656.23
568.624	32516.97
568.828	32412.52
569.033	32822.11
569.237	33117.02
569.442	32856.93
569.646	32482.15
569.85	32811.87
570.055	33033.05
570.259	33135.45
570.463	32928.61
570.668	33311.58
570.872	33194.84
571.076	33217.37
571.281	32813.92
571.485	33581.91
571.689	33307.48
571.893	33518.42
572.098	33577.81
572.302	33727.31
572.506	33596.24
572.71	33262.43
572.914	33387.35
573.119	33401.69
573.323	34020.17
573.527	34495.3
573.731	33610.58
573.935	33794.9
574.139	34272.07
574.343	33622.87
574.547	33712.98
574.751	34038.61
574.955	34523.97
575.159	34196.3
575.364	33499.99
575.568	33805.14
575.772	34038.61
575.976	34734.92
576.18	33989.45
576.383	34036.56
576.587	34450.25
576.791	34530.12
576.995	34061.13
577.199	34249.55
577.403	34978.62
577.607	35027.77
577.811	34632.52
578.015	34460.49
578.219	34581.32
578.422	35185.47
578.626	34472.78
578.83	34843.46
579.034	34966.34
579.238	34794.31
579.442	35052.35
579.645	35429.18
579.849	35269.44
580.053	35144.51
580.257	34509.64
580.46	35380.03
580.664	35683.12
580.868	35298.11
581.071	35517.24
581.275	35339.07
581.479	35099.45
581.682	35351.35
581.886	35035.97
582.09	35527.48
582.293	35603.25
582.497	35781.43
582.7	35572.53
582.904	35377.98
583.107	35576.63
583.311	35625.78
583.515	35709.75
583.718	35345.21
583.922	35851.06
584.125	36068.14
584.329	35255.1
584.532	35695.41
584.735	36428.59
584.939	35806
585.142	35484.47
585.346	35748.66
585.549	36156.21
585.753	35937.07
585.956	35955.5
586.159	35937.07
586.363	36641.57
586.566	36676.39
586.769	36064.05
586.973	36332.33
587.176	36524.84
587.379	36381.48
587.582	36692.77
587.786	36305.71
587.989	36600.61
588.192	37075.74
588.395	36002.61
588.599	36803.36
588.802	37206.81
589.005	36786.98
589.208	37120.8
589.411	36948.77
589.615	37243.68
589.818	37813.01
590.021	37274.4
590.224	37284.64
590.427	37446.43
590.63	37286.68
590.833	37081.89
591.036	37415.71
591.239	37382.94
591.442	37014.3
591.645	37255.96
591.848	37143.33
592.051	37948.18
592.254	38095.63
592.457	37632.79
592.66	37448.47
592.863	38189.84
593.066	38005.52
593.269	37753.62
593.472	38042.38
593.675	38007.57
593.878	38202.13
594.081	37901.07
594.284	37909.27
594.486	38267.66
594.689	38593.29
594.892	38234.89
595.095	37935.89
595.298	38351.63
595.5	38003.47
595.703	38382.35
595.906	38253.33
596.109	38654.73
596.311	38640.39
596.514	38009.62
596.717	38667.02
596.92	39402.24
597.122	38959.87
597.325	38537.99
597.528	38388.49
597.73	39256.83
597.933	38302.48
598.136	38892.29
598.338	38439.69
598.541	39183.1
598.743	39697.14
598.946	38632.2
599.148	38853.38
599.351	39498.49
599.554	39662.33
599.756	39234.3
599.959	39387.9
600.161	39594.75
600.363	40174.32
600.566	39488.25
600.768	39207.68
600.971	39625.46
601.173	39453.44
601.376	39000.83
601.578	39236.35
601.78	39711.48
601.983	39768.82
602.185	39295.74
602.388	40041.2
602.59	39852.79
602.792	39590.65
602.995	39785.21
603.197	39492.35
603.399	40172.27
603.601	40041.2
603.804	39416.57
604.006	39467.77
604.208	39568.12
604.41	39717.62
604.613	39807.73
604.815	39772.92
605.017	40477.42
605.219	39817.97
605.421	39752.44
605.623	39529.21
605.826	40332.01
606.028	40364.78
606.23	39783.16
606.432	40340.21
606.634	40571.63
606.836	40633.07
607.038	40180.46
607.24	40413.93
607.442	40266.48
607.644	40145.65
607.846	40454.89
608.048	40078.07
608.25	40033.01
608.452	39951.09
608.654	40264.43
608.856	39774.97
609.058	40454.89
609.26	40583.91
609.462	40549.1
609.664	40377.07
609.866	40626.92
610.067	40774.38
610.269	40473.32
610.471	40571.63
610.673	40536.81
610.875	40631.02
611.077	40323.82
611.278	40430.32
611.48	40467.18
611.682	40643.31
611.884	40569.58
612.085	40405.74
612.287	40551.15
612.489	40856.29
612.69	40610.54
612.892	40839.91
613.094	40669.93
613.295	40512.24
613.497	40407.79
613.699	40338.16
613.9	41425.63
614.102	41304.8
614.304	40921.83
614.505	40405.74
614.707	40741.61
614.908	40706.79
615.11	40870.63
615.311	41292.51
615.513	40942.31
615.714	41259.74
615.916	40866.53
616.117	40934.12
616.319	41155.3
616.52	40954.6
616.722	41157.35
616.923	41175.78
617.124	41284.32
617.326	41464.54
617.527	40960.74
617.729	41310.94
617.93	41171.68
618.131	41290.46
618.333	40452.84
618.534	40977.12
618.735	40784.61
618.937	41317.09
619.138	40862.44
619.339	40598.25
619.54	41075.43
619.742	40962.79
619.943	41388.77
620.144	41143.01
620.345	41224.93
620.546	41464.54
620.748	41253.6
620.949	41364.19
621.15	41519.84
621.351	41009.89
621.552	40860.39
621.753	41038.56
621.954	41212.64
622.155	40923.88
622.356	41220.83
622.558	41042.66
622.759	41087.71
622.96	41310.94
623.161	40899.3
623.362	41407.2
623.563	41614.04
623.764	41042.66
623.965	41380.57
624.166	41769.69
624.366	41650.91
624.567	41603.8
624.768	41315.04
624.969	40884.97
625.17	41509.6
625.371	41695.96
625.572	40997.6
625.773	41265.89
625.973	42027.73
626.174	41884.37
626.375	42011.35
626.576	41853.65
626.777	41564.89
626.977	41683.67
627.178	41614.04
627.379	41487.07
627.58	41628.38
627.78	41939.67
627.981	41607.9
628.182	41810.65
628.382	42035.92
628.583	41614.04
628.784	41695.96
628.984	41583.32
629.185	42713.8
629.386	42138.32
629.586	41845.46
629.787	41480.92
629.987	42037.97
630.188	42336.98
630.388	42339.02
630.589	41409.25
630.79	42535.63
630.99	41835.22
631.191	42242.77
631.391	41962.2
631.591	41886.42
631.792	41847.51
631.992	42298.06
632.193	42027.73
632.393	42371.79
632.594	42040.02
632.794	41861.85
632.994	42547.92
633.195	42187.47
633.395	42289.87
633.595	41976.53
633.796	42670.79
633.996	42060.5
634.196	42805.96
634.397	42095.31
634.597	42468.05
634.797	41997.01
634.997	42701.51
635.198	42398.41
635.398	41994.96
635.598	42332.88
635.798	42633.93
635.998	42033.88
636.199	42420.94
636.399	41929.43
636.599	42085.08
636.799	42158.8
636.999	42586.83
637.199	42654.41
637.399	42572.49
637.599	42552.01
637.799	41972.44
637.999	42691.27
638.199	43295.42
638.399	42300.11
638.599	41980.63
638.799	42611.4
638.999	42953.41
639.199	42396.37
639.399	42517.2
639.599	43119.3
639.799	42447.57
639.999	42998.47
640.199	43086.53
640.399	42975.94
640.599	42113.75
640.799	43426.49
640.998	42691.27
641.198	43227.84
641.398	42748.62
641.598	42937.03
641.798	43387.58
641.997	43399.87
642.197	43014.85
642.397	42914.5
642.597	43055.81
642.796	43203.27
642.996	42889.93
643.196	42683.08
643.395	43107.01
643.595	43014.85
643.795	42769.1
643.994	42685.13
644.194	42871.5
644.394	43862.71
644.593	43324.1
644.793	43303.62
644.992	43567.8
645.192	43584.19
645.392	43391.68
645.591	43537.08
645.791	43504.32
645.99	43614.91
646.19	43338.43
646.389	43412.16
646.589	43291.33
646.788	43782.84
646.987	43492.03
647.187	43668.15
647.386	43322.05
647.586	43836.09
647.785	44006.07
647.984	43872.95
648.184	43637.44
648.383	43729.59
648.582	43934.39
648.782	43637.44
648.981	43936.44
649.18	42963.65
649.38	43875
649.579	43594.43
649.778	43616.96
649.977	43854.52
650.177	43635.39
650.376	43541.18
650.575	43588.28
650.774	44229.3
650.973	43604.67
651.173	43135.68
651.372	43322.05
651.571	43465.41
651.77	44032.69
651.969	43455.17
652.168	43723.45
652.367	43729.59
652.566	43788.99
652.765	43956.92
652.964	44180.15
653.163	44366.51
653.362	44247.73
653.561	43547.32
653.76	43621.05
653.959	43506.37
654.158	45050.53
654.357	44047.03
654.556	43264.71
654.755	44305.07
654.954	44131
655.153	43698.87
655.352	44174
655.551	44513.97
655.749	43926.2
655.948	43922.1
656.147	43813.56
656.346	44044.98
656.545	43831.99
656.743	43627.2
656.942	44016.31
657.141	43918.01
657.34	44198.58
657.538	44442.29
657.737	44120.76
657.936	44098.23
658.135	44313.27
658.333	44079.8
658.532	44100.28
658.731	44593.84
658.929	44282.55
659.128	43838.14
659.326	44018.36
659.525	44264.11
659.724	44044.98
659.922	43563.71
660.121	43872.95
660.319	44360.37
660.518	44182.2
660.716	43760.31
660.915	43981.49
661.113	44724.91
661.312	44098.23
661.51	44364.46
661.709	44395.18
661.907	44722.86
662.105	45159.08
662.304	44464.81
662.502	44866.22
662.701	45025.96
662.899	44714.67
663.097	44653.23
663.296	44004.02
663.494	45038.25
663.692	44825.26
663.891	44069.56
664.089	44249.78
664.287	44579.5
664.485	44225.2
664.684	44249.78
664.882	44393.14
665.08	44491.44
665.278	44542.64
665.476	44067.51
665.675	44782.25
665.873	44731.05
666.071	44534.45
666.269	44214.96
666.467	44505.77
666.665	44432.05
666.863	43752.12
667.061	44995.24
667.259	44526.25
667.457	44839.59
667.655	45157.03
667.853	44255.92
668.051	44337.84
668.249	44399.28
668.447	44630.7
668.645	43752.12
668.843	44755.63
669.041	44610.22
669.239	44321.46
669.437	44364.46
669.635	44280.5
669.833	44296.88
670.031	44300.98
670.229	44092.08
670.426	44413.62
670.624	44518.06
670.822	43932.34
671.02	44358.32
671.218	44305.07
671.415	43881.14
671.613	44352.18
671.811	43954.87
672.009	44298.93
672.206	44335.79
672.404	44341.94
672.602	44153.52
672.799	44087.99
672.997	44810.92
673.195	44362.42
673.392	43791.03
673.59	43838.14
673.788	44198.58
673.985	43293.38
674.183	43766.46
674.38	44044.98
674.578	44264.11
674.775	44186.29
674.973	43567.8
675.17	43786.94
675.368	44315.31
675.565	43926.2
675.763	43748.03
675.96	43758.27
676.158	44157.62
676.355	43621.05
676.553	43913.91
676.75	43782.84
676.947	44296.88
677.145	43862.71
677.342	43823.8
677.539	43698.87
677.737	44110.52
677.934	44296.88
678.131	43641.53
678.329	43823.8
678.526	43961.01
678.723	43428.54
678.92	43780.79
679.118	43862.71
679.315	43569.85
679.512	44266.16
679.709	43690.68
679.906	43123.4
680.104	44192.43
680.301	43494.08
680.498	43489.98
680.695	43317.95
680.892	43694.78
681.089	43770.55
681.286	43719.35
681.483	43291.33
681.68	43883.19
681.877	43911.86
682.075	43297.47
682.272	43346.62
682.469	43420.35
682.665	43100.87
682.862	43256.51
683.059	43104.96
683.256	43551.42
683.453	43168.45
683.65	43211.46
683.847	43518.65
684.044	43139.78
684.241	42746.57
684.438	43332.29
684.635	42797.77
684.831	43545.28
685.028	43453.12
685.225	43078.34
685.422	42537.68
685.619	42642.12
685.815	42830.54
686.012	42863.3
686.209	42805.96
686.405	43088.58
686.602	43676.35
686.799	42183.38
686.996	42801.86
687.192	42787.53
687.389	43551.42
687.586	42435.28
687.782	42988.23
687.979	43621.05
688.175	43035.33
688.372	42765
688.568	42838.73
688.765	42197.71
688.962	43160.26
689.158	42490.57
689.355	42162.9
689.551	42592.97
689.748	42939.08
689.944	42642.12
690.14	42158.8
690.337	42642.12
690.533	42273.49
690.73	41964.24
690.926	42476.24
691.123	42242.77
691.319	42543.82
691.515	42183.38
691.712	42199.76
691.908	42287.82
692.104	41792.22
692.301	42355.41
692.497	42062.55
692.693	42314.45
692.889	42228.43
693.086	41726.68
693.282	41536.22
693.478	41528.03
693.674	42044.12
693.87	42035.92
694.067	41790.17
694.263	42207.95
694.459	41816.79
694.655	41804.5
694.851	41855.7
695.047	42066.64
695.243	42525.39
695.439	41863.89
695.635	42056.4
695.831	42158.8
696.027	42017.49
696.224	41683.67
696.42	41925.33
696.615	42494.67
696.811	42220.24
697.007	41507.55
697.203	41661.15
697.399	41556.7
697.595	41954.01
697.791	41183.97
697.987	41808.6
698.183	41458.4
698.379	41409.25
698.575	41568.99
698.77	41267.94
698.966	41544.41
699.162	41618.14
699.358	41198.3
699.554	41284.32
699.749	41765.59
699.945	41761.5
700.141	41282.27
700.337	41458.4
700.532	41396.96
700.728	41024.23
700.924	40934.12
701.119	40876.77
701.315	41437.92
701.511	40766.18
701.706	41360.09
701.902	40422.12
702.097	40774.38
702.293	41198.3
702.489	41028.32
702.684	41177.82
702.88	40792.81
703.075	41200.35
703.271	40899.3
703.466	41071.33
703.662	40479.47
703.857	40844.01
704.053	40850.15
704.248	40719.08
704.443	41269.98
704.639	41259.74
704.834	40942.31
705.03	40815.33
705.225	41188.06
705.42	41013.99
705.616	41224.93
705.811	40837.86
706.006	40817.38
706.202	40749.8
706.397	40209.14
706.592	40311.53
706.787	40469.23
706.983	40395.5
707.178	40786.66
707.373	40637.16
707.568	40811.24
707.763	40729.32
707.959	40528.62
708.154	40561.39
708.349	40309.49
708.544	40770.28
708.739	40563.43
708.934	40131.31
709.129	40399.6
709.324	40352.49
709.519	40192.75
709.714	40465.13
709.909	40805.09
710.104	40563.43
710.299	39973.62
710.494	39815.93
710.689	40295.15
710.884	39914.23
711.079	40327.92
711.274	40364.78
711.469	40315.63
711.664	40354.54
711.859	40014.58
712.054	40469.23
712.249	40262.38
712.443	40350.45
712.638	40241.9
712.833	39553.79
713.028	39860.98
713.223	39811.83
713.417	40768.23
713.612	40121.07
713.807	40739.56
714.002	41116.39
714.196	40631.02
714.391	39994.1
714.586	40530.67
714.78	40409.84
714.975	40571.63
715.17	39916.28
715.364	40647.4
715.559	40821.48
715.754	39863.03
715.948	39832.31
716.143	39850.74
716.337	39994.1
716.532	40239.86
716.726	39453.44
716.921	39494.39
717.115	40110.83
717.31	39328.51
717.504	39586.55
717.699	39455.48
717.893	39557.88
718.088	38902.53
718.282	39195.39
718.476	39387.9
718.671	39109.38
718.865	38624.01
719.059	38882.05
719.254	39383.8
719.448	39138.05
719.642	38845.19
719.837	38619.91
720.031	39125.76
720.225	38546.19
720.419	38671.11
720.614	38472.46
720.808	39193.34
721.002	38554.38
721.196	38699.78
721.39	38806.28
721.585	38515.47
721.779	38382.35
721.973	38265.61
722.167	38509.32
722.361	38732.55
722.555	39353.08
722.749	38273.81
722.943	38652.68
723.137	38034.19
723.331	38601.48
723.525	37843.73
723.719	38275.85
723.913	38677.26
724.107	38261.52
724.301	38327.05
724.495	37759.77
724.689	38611.72
724.883	38724.36
725.077	38374.16
725.271	38574.86
725.465	38529.8
725.659	38667.02
725.853	38421.26
726.046	38097.68
726.24	37882.64
726.434	38216.46
726.628	38028.05
726.822	38251.28
727.015	38939.4
727.209	38304.52
727.403	38261.52
727.596	38058.77
727.79	38570.76
727.984	38634.25
728.177	38458.12
728.371	38804.23
728.565	38837
728.758	38206.22
728.952	38167.31
729.146	38693.64
729.339	38824.71
729.533	38243.09
729.726	38251.28
729.92	38191.89
730.113	38656.78
730.307	38447.88
730.5	37896.98
730.694	38017.81
730.887	38302.48
731.081	38787.85
731.274	38609.67
731.468	38275.85
731.661	38071.06
731.854	38218.51
732.048	38228.75
732.241	38163.21
732.435	38228.75
732.628	38345.48
732.821	38173.45
733.014	38214.41
733.208	38509.32
733.401	38884.1
733.594	37915.41
733.788	38071.06
733.981	38558.47
734.174	38347.53
734.367	37694.23
734.56	38066.96
734.754	38275.85
734.947	38226.7
735.14	37925.65
735.333	38069.01
735.526	38163.21
735.719	37309.21
735.912	37860.12
736.105	37882.64
736.298	38081.3
736.491	37804.82
736.684	37630.74
736.877	37954.32
737.07	38046.48
737.263	38587.14
737.456	37939.99
737.649	37743.38
737.842	38374.16
738.035	38093.58
738.228	37970.71
738.421	38075.15
738.614	37991.19
738.807	38015.76
739	37909.27
739.192	37995.28
739.385	37755.67
739.578	38349.58
739.771	38142.74
739.964	37718.81
740.156	38056.72
740.349	37770
740.542	38513.42
740.735	37899.03
740.927	38148.88
741.12	37608.22
741.313	37688.09
741.505	37927.7
741.698	37651.22
741.891	37767.96
742.083	37780.24
742.276	37993.23
742.468	38126.35
742.661	37546.78
742.854	37696.28
743.046	37585.69
743.239	38171.41
743.431	37894.93
743.624	37405.47
743.816	37202.72
744.009	37751.57
744.201	37638.93
744.393	37743.38
744.586	37661.46
744.778	37681.94
744.971	37530.39
745.163	37450.52
745.355	37643.03
745.548	37047.07
745.74	36623.14
745.932	36944.67
746.125	37065.5
746.317	37745.43
746.509	36920.1
746.702	36705.06
746.894	36942.63
747.086	36617
747.278	36991.78
747.471	37057.31
747.663	36543.27
747.855	37032.74
748.047	37360.41
748.239	37352.22
748.431	37165.85
748.623	37602.07
748.815	37481.24
749.008	37151.52
749.2	37319.45
749.392	37497.63
749.584	36973.35
749.776	37024.54
749.968	36872.99
750.16	37348.12
750.352	37004.06
750.544	36555.56
750.736	36461.35
750.928	36805.41
751.12	36510.5
751.311	36385.58
751.503	36559.66
751.695	36647.72
751.887	36301.61
752.079	36188.97
752.271	36215.6
752.463	37630.74
752.654	36522.79
752.846	36334.38
753.038	36315.95
753.23	36442.92
753.421	36451.11
753.613	35990.32
753.805	36621.09
753.997	36567.85
754.188	36508.46
754.38	35994.42
754.572	35994.42
754.763	36117.29
754.955	35672.88
755.146	35656.5
755.338	35543.86
755.53	35879.73
755.721	35679.03
755.913	35621.69
756.104	35304.25
756.296	35816.24
756.487	35875.63
756.679	36025.14
756.87	35613.49
757.062	35830.58
757.253	36072.24
757.445	35515.19
757.636	35507
757.827	34937.66
758.019	35894.07
758.21	35218.24
758.401	35074.88
758.593	35572.53
758.784	35437.37
758.975	34515.78
759.167	34868.03
759.358	35267.39
759.549	35265.34
759.74	34904.9
759.932	34689.86
760.123	35302.2
760.314	34650.95
760.505	34700.1
760.696	34974.53
760.888	35142.46
761.079	34569.03
761.27	34675.52
761.461	34599.75
761.652	35107.65
761.843	34452.3
762.034	34863.94
762.225	34532.17
762.416	34585.41
762.607	33962.83
762.798	34388.81
762.989	34362.18
763.18	34982.72
763.371	34007.89
763.562	34093.9
763.753	34218.83
763.944	34503.49
764.135	34452.3
764.326	34020.17
764.517	34014.03
764.708	34239.31
764.899	34118.48
765.089	33583.96
765.28	33626.96
765.471	34235.21
765.662	33813.33
765.853	33712.98
766.043	33082.2
766.234	34116.43
766.425	33598.29
766.615	33389.4
766.806	33366.87
766.997	33893.2
767.187	33577.81
767.378	33524.57
767.569	33262.43
767.759	33526.61
767.95	33586
768.141	33944.4
768.331	33313.62
768.522	33219.42
768.712	33778.51
768.903	33489.75
769.093	33336.15
769.284	33893.2
769.474	33190.75
769.665	32627.56
769.855	32893.79
770.046	33219.42
770.236	33031.01
770.426	33024.86
770.617	32512.87
770.807	32971.61
770.998	32820.06
771.188	32701.28
771.378	32252.78
771.569	32695.14
771.759	32729.95
771.949	32314.22
772.139	32564.07
772.33	32027.5
772.52	32926.56
772.71	32476.01
772.9	32160.62
773.09	32654.18
773.281	33004.38
773.471	32023.4
773.661	32344.94
773.851	32416.61
774.041	31699.83
774.231	31581.04
774.421	32117.61
774.611	32158.57
774.802	32148.33
774.992	31669.11
775.182	31683.44
775.372	31890.29
775.562	31937.39
775.752	31964.01
775.942	31888.24
776.131	32279.4
776.321	31933.29
776.511	31796.08
776.701	31259.51
776.891	31949.68
777.081	31415.16
777.271	31150.97
777.461	31323
777.651	31503.22
777.84	31398.77
778.03	31380.34
778.22	31193.98
778.41	31474.55
778.599	31110.01
778.789	30962.56
778.979	30972.8
779.169	31208.31
779.358	31230.84
779.548	31478.64
779.738	30876.54
779.927	31116.15
780.117	30892.93
780.307	30628.74
780.496	30550.92
780.686	31306.62
780.875	31353.72
781.065	30622.59
781.254	30530.44
781.444	30397.32
781.633	30409.61
781.823	30225.29
782.012	30579.59
782.202	30307.21
782.391	30393.22
782.581	30673.79
782.77	30530.44
782.96	30700.42
783.149	30403.46
783.338	30669.7
783.528	30296.97
783.717	30294.92
783.906	30395.27
784.096	30380.93
784.285	30401.41
784.474	30034.83
784.663	30237.58
784.853	29760.4
785.042	30067.59
785.231	30356.36
785.42	30321.54
785.61	29985.68
785.799	29535.12
785.988	29453.2
786.177	29576.08
786.366	29690.77
786.555	29504.4
786.744	29606.8
786.933	29172.63
787.122	29553.55
787.312	29434.77
787.501	29709.2
787.69	29555.6
787.879	29653.9
788.068	29010.84
788.257	28748.7
788.445	29045.66
788.634	29283.22
788.823	29383.57
789.012	30026.64
789.201	29631.38
789.39	29236.12
789.579	28826.53
789.768	29383.57
789.957	29129.62
790.145	29156.25
790.334	29021.08
790.523	28969.88
790.712	28955.55
790.9	29152.15
791.089	28539.81
791.278	29248.41
791.467	28851.1
791.655	28967.84
791.844	28576.67
792.033	28523.43
792.221	28597.15
792.41	28412.84
792.599	28210.09
792.787	29043.61
792.976	29111.19
793.164	28466.08
793.353	28652.45
793.541	29082.52
793.73	29055.9
793.918	28711.84
794.107	28412.84
794.295	27921.32
794.484	28556.19
794.672	28187.56
794.861	28095.4
795.049	28713.89
795.238	28799.9
795.426	28199.85
795.614	28216.23
795.803	28443.56
795.991	28955.55
796.179	28222.37
796.368	27997.1
796.556	28392.36
796.744	27677.61
796.932	28017.58
797.121	27882.41
797.309	28148.65
797.497	28504.99
797.685	28107.69
797.874	27825.07
798.062	28220.33
798.25	28177.32
798.438	27964.33
798.626	27784.11
798.814	28169.13
799.002	28498.85
799.19	28007.34
799.378	27610.03
799.566	28259.24
799.755	27769.77
799.943	27573.17
800.131	27790.25
800.318	27831.21
800.506	27863.98
800.694	27595.7
800.882	27884.46
801.07	27995.05
801.258	27730.86
801.446	27917.23
801.634	27456.43
801.822	27808.68
802.01	27827.12
802.197	27962.28
802.385	28089.26
802.573	28259.24
802.761	28205.99
802.949	27767.73
803.136	27612.08
803.324	28212.13
803.512	28122.02
803.699	27929.52
803.887	27710.38
804.075	28373.92
804.262	27794.35
804.45	27904.94
804.638	27958.19
804.825	27941.8
805.013	27773.87
805.201	27669.42
805.388	27607.98
805.576	28353.44
805.763	28365.73
805.951	27792.3
806.138	28005.29
806.326	28326.82
806.513	27921.32
806.701	27966.38
806.888	28058.54
807.075	28494.75
807.263	28158.89
807.45	27919.28
807.638	28240.81
807.825	28439.46
808.012	27978.67
808.2	27968.43
808.387	28613.54
808.574	28380.07
808.761	28343.2
808.949	28119.98
809.136	28304.29
809.323	27909.04
809.51	28191.66
809.698	28130.22
809.885	27945.9
810.072	28394.4
810.259	28365.73
810.446	28023.72
810.633	27997.1
810.82	28423.08
811.008	28627.87
811.195	28388.26
811.382	28324.77
811.569	28265.38
811.756	27726.77
811.943	28210.09
812.13	28062.63
812.317	28134.31
812.504	27771.82
812.691	27831.21
812.878	28328.87
813.064	28474.27
813.251	27700.14
813.438	28158.89
813.625	28117.93
813.812	27806.64
813.999	27909.04
814.186	28130.22
814.372	28109.74
814.559	28191.66
814.746	27945.9
814.933	27589.55
815.12	28279.72
815.306	28050.35
815.493	27929.52
815.68	28308.39
815.866	27997.1
816.053	28304.29
816.24	28375.97
816.426	28007.34
816.613	28292.01
816.799	28412.84
816.986	28629.92
817.173	27972.52
817.359	27843.5
817.546	28038.06
817.732	27446.19
817.919	27728.81
818.105	27880.36
818.292	28156.84
818.478	28132.26
818.665	28318.63
818.851	28093.35
819.037	28421.03
819.224	27562.93
819.41	27777.97
819.597	27315.12
819.783	28050.35
819.969	28273.57
820.156	27986.86
820.342	27702.19
820.528	28490.66
820.714	28017.58
820.901	28154.79
821.087	27702.19
821.273	28310.44
821.459	27616.18
821.646	27650.99
821.832	27880.36
822.018	28087.21
822.204	27360.18
822.39	27710.38
822.576	27716.53
822.762	27669.42
822.948	27550.64
823.134	27747.25
823.32	27507.63
823.507	27126.71
823.693	27906.99
823.879	27253.69
824.065	27098.04
824.25	26895.29
824.436	27069.37
824.622	26958.78
824.808	27534.26
824.994	27769.77
825.18	26696.64
825.366	27120.57
825.552	27462.58
825.738	27130.81
825.923	27814.83
826.109	27247.54
826.295	26772.41
826.481	26733.5
826.667	26930.11
826.852	26971.07
827.038	27104.18
827.224	27575.22
827.409	27544.5
827.595	27136.95
827.781	26780.6
827.966	27014.07
828.152	26790.84
828.338	26631.1
828.523	26360.77
828.709	26696.64
828.894	26993.59
829.08	26336.2
829.266	26096.58
829.451	26411.97
829.637	26575.81
829.822	26377.15
830.008	26127.3
830.193	26964.92
830.378	26878.91
830.564	26256.32
830.749	26135.49
830.935	26717.12
831.12	26309.57
831.305	25990.09
831.491	26280.9
831.676	26233.8
831.861	26295.24
832.047	26334.15
832.232	26112.97
832.417	26624.96
832.602	25924.55
832.788	26164.17
832.973	25889.74
833.158	25977.8
833.343	25906.12
833.528	25912.27
833.714	26602.43
833.899	26526.66
834.084	26614.72
834.269	26340.29
834.454	25824.2
834.639	26285
834.824	25932.75
835.009	25873.35
835.194	25811.92
835.379	25674.7
835.564	25742.28
835.749	25480.14
835.934	25383.89
836.119	25674.7
836.304	25578.45
836.489	25322.45
836.674	25564.11
836.859	25414.61
837.044	25760.72
837.228	25408.47
837.413	25424.85
837.598	25945.03
837.783	25879.5
837.968	25478.1
838.152	25279.44
838.337	25488.34
838.522	25754.57
838.707	25955.27
838.891	25357.27
839.076	25523.15
839.261	25785.29
839.445	25459.66
839.63	25570.26
839.815	25533.39
839.999	24912.86
840.184	24959.96
840.368	24757.21
840.553	25086.93
840.737	25185.24
840.922	24533.98
841.106	24777.69
841.291	24886.23
841.475	24857.56
841.66	24597.47
841.844	24388.58
842.029	25521.1
842.213	24392.67
842.397	24656.86
842.582	24232.93
842.766	24914.91
842.951	24955.86
843.135	24579.04
843.319	24466.4
843.504	24749.02
843.688	25002.97
843.872	24212.45
844.056	24486.88
844.241	24970.2
844.425	24521.7
844.609	24333.28
844.793	24531.93
844.977	24632.29
845.161	24261.6
845.346	23917.54
845.53	24140.77
845.714	24085.48
845.898	24398.82
846.082	23780.33
846.266	23815.15
846.45	23948.26
846.634	23981.03
846.818	23923.69
847.002	24077.29
847.186	24423.39
847.37	23954.41
847.554	24110.05
847.738	24112.1
847.922	23696.36
848.106	24146.92
848.29	23788.52
848.473	23573.49
848.657	23841.77
848.841	23722.99
849.025	23559.15
849.209	23337.97
849.392	23575.53
849.576	23581.68
849.76	22819.83
849.944	23466.99
850.127	23948.26
850.311	23028.73
850.495	23041.01
850.678	22676.48
850.862	23630.83
851.046	23874.54
851.229	23340.02
851.413	22918.14
851.596	23020.53
851.78	22924.28
851.964	23110.64
852.147	22844.41
852.331	23647.21
852.514	23020.53
852.698	22938.62
852.881	22469.63
853.065	23329.78
853.248	22987.77
853.431	22543.36
853.615	22961.14
853.798	23307.25
853.982	22922.23
854.165	22789.11
854.348	22815.74
854.532	23041.01
854.715	23041.01
854.898	22821.88
855.081	22793.21
855.265	23141.36
855.448	22981.62
855.631	22559.74
855.814	22385.66
855.997	22733.82
856.181	22557.69
856.364	22438.91
856.547	22529.02
856.73	22539.26
856.913	22539.26
857.096	22365.18
857.279	22184.96
857.462	22209.54
857.645	22547.45
857.828	22332.42
858.011	22039.56
858.194	22006.79
858.377	22336.51
858.56	21875.72
858.743	22047.75
858.926	21447.69
859.109	21951.49
859.292	21953.54
859.475	21654.54
859.658	22324.22
859.841	21896.2
860.023	21564.43
860.206	21517.32
860.389	21976.07
860.572	22117.38
860.755	21677.07
860.937	21969.93
861.12	21873.67
861.303	21847.05
861.486	21359.63
861.668	21627.92
861.851	21672.97
862.034	21974.02
862.216	21429.26
862.399	21040.15
862.581	21308.43
862.764	21744.65
862.947	21427.21
863.129	21017.62
863.312	20839.45
863.494	21502.99
863.677	21171.22
863.859	20462.62
864.042	20704.28
864.224	21388.3
864.406	21060.63
864.589	20579.36
864.771	20913.17
864.954	20773.91
865.136	21103.64
865.318	20444.19
865.501	20392.99
865.683	20157.47
865.865	20702.23
866.048	20517.92
866.23	20429.85
866.412	20415.52
866.594	20472.86
866.777	20423.71
866.959	20671.51
867.141	20284.45
867.323	20694.04
867.505	20794.39
867.687	20464.67
867.869	20374.56
868.052	20479
868.234	20112.42
868.416	20276.26
868.598	20253.73
868.78	20241.44
868.962	20175.91
869.144	20546.59
869.326	20282.4
869.508	20124.71
869.69	19848.23
869.872	19975.2
870.054	20712.47
870.236	19866.66
870.417	20212.77
870.599	20304.93
870.781	20519.96
870.963	19987.49
871.145	19866.66
871.327	20194.34
871.508	20454.43
871.69	20175.91
871.872	20206.62
872.054	20503.58
872.235	20397.09
872.417	20106.27
872.599	19842.09
872.78	20333.6
872.962	20247.58
873.144	19604.52
873.325	20220.96
873.507	20290.59
873.689	19940.39
873.87	19684.39
874.052	20063.27
874.233	19692.58
874.415	20423.71
874.596	19862.57
874.778	19989.54
874.959	20067.36
875.141	20691.99
875.322	20280.35
875.503	20419.61
875.685	20542.49
875.866	20057.12
876.048	20104.23
876.229	20544.54
876.41	20220.96
876.592	20499.48
876.773	20323.36
876.954	20096.03
877.136	20425.76
877.317	20014.12
877.498	19975.2
877.679	20180
877.86	20294.69
878.042	20108.32
878.223	20139.04
878.404	20530.2
878.585	20726.81
878.766	20636.7
878.947	20511.77
879.128	20507.68
879.309	20775.96
879.49	20702.23
879.672	20659.23
879.853	20456.48
880.034	20071.46
880.215	20630.55
880.396	20702.23
880.576	20522.01
880.757	20794.39
880.938	21017.62
881.119	20933.65
881.3	20755.48
881.481	21101.59
881.662	21699.59
881.843	20536.35
882.023	20452.38
882.204	20904.98
882.385	20970.52
882.566	20646.94
882.747	20657.18
882.927	20818.97
883.108	21089.3
883.289	20483.1
883.469	20980.76
883.65	20456.48
883.831	20888.6
884.011	20892.69
884.192	20986.9
884.373	21240.85
884.553	21138.45
884.734	20861.97
884.914	21181.46
885.095	21445.65
885.275	21644.3
885.456	21214.23
885.636	20761.62
885.817	21177.36
885.997	21036.05
886.178	21072.92
886.358	21251.09
886.538	21750.79
886.719	22455.29
886.899	21255.18
887.08	21619.72
887.26	21914.63
887.44	21335.06
887.621	21509.13
887.801	21675.02
887.981	22201.35
888.161	22014.98
888.342	21728.27
888.522	21969.93
888.702	22060.04
888.882	22252.55
889.062	21961.73
889.242	21656.59
889.423	21892.1
889.603	22191.11
889.783	22318.08
889.963	21640.2
890.143	22123.52
890.323	22240.26
890.503	22060.04
890.683	21998.6
890.863	22254.59
891.043	22170.63
891.223	21873.67
891.403	22127.62
891.583	22203.39
891.763	22103.04
891.943	21904.39
892.122	21865.48
892.302	21924.87
892.482	21883.91
892.662	21863.43
892.842	21695.5
893.022	22049.8
893.201	21881.86
893.381	22064.13
893.561	21933.06
893.741	22240.26
893.92	22303.74
894.1	22283.27
894.28	22002.69
894.459	21820.42
894.639	22141.96
894.819	21505.04
894.998	22266.88
895.178	22326.27
895.357	22219.78
895.537	21558.28
895.716	21883.91
895.896	22332.42
896.075	22365.18
896.255	21953.54
896.434	21920.77
896.614	22662.14
896.793	22455.29
896.973	22416.38
897.152	21885.96
897.331	21752.84
897.511	22180.87
897.69	21443.6
897.87	21736.46
898.049	22096.9
898.228	22115.33
898.407	21996.55
898.587	21810.18
898.766	21586.96
898.945	21791.75
899.124	21523.47
899.304	21644.3
899.483	21847.05
899.662	22500.35
899.841	22057.99
900.02	21828.62
900.199	22252.55
900.378	22023.17
900.557	21812.23
900.737	21502.99
900.916	21916.68
901.095	21951.49
901.274	21910.53
901.453	21705.74
901.632	21724.17
901.811	21705.74
901.989	21515.28
902.168	21281.81
902.347	21740.55
902.526	21277.71
902.705	21021.72
902.884	21341.2
903.063	21826.57
903.242	21632.01
903.42	21267.47
903.599	21427.21
903.778	21806.09
903.957	21597.2
904.135	21441.55
904.314	21212.18
904.493	21281.81
904.672	21703.69
904.85	21199.89
905.029	21169.17
905.207	21271.57
905.386	22227.97
905.565	20849.69
905.743	20829.21
905.922	20440.09
906.1	21044.24
906.279	20567.07
906.457	20892.69
906.636	21423.12
906.814	20861.97
906.993	20808.73
907.171	21003.28
907.35	21003.28
907.528	20980.76
907.707	21003.28
907.885	20769.82
908.063	21263.38
908.242	20640.79
908.42	20630.55
908.598	20526.11
908.777	20724.76
908.955	20429.85
909.133	20470.81
909.311	20235.3
909.49	20339.74
909.668	20169.76
909.846	20405.28
910.024	19942.44
910.202	20026.4
910.38	20284.45
910.559	19772.46
910.737	19594.28
910.915	20124.71
911.093	20010.02
911.271	19987.49
911.449	20188.19
911.627	20069.41
911.805	20212.77
911.983	19676.2
912.161	19684.39
912.339	19809.32
912.517	20071.46
912.695	19612.71
912.872	19459.12
913.05	19772.46
913.228	19682.34
913.406	19498.03
913.584	19383.34
913.762	19737.64
913.939	19412.01
914.117	19502.12
914.295	19520.56
914.473	19973.16
914.65	19778.6
914.828	19303.47
915.006	19153.97
915.184	19348.53
915.361	19149.87
915.539	19225.65
915.716	19332.14
915.894	19598.38
916.072	19432.49
916.249	19573.8
916.427	19399.73
916.604	19127.35
916.782	19176.5
916.959	18920.5
917.137	18687.03
917.314	19295.28
917.492	19149.87
917.669	18805.81
917.847	18809.91
918.024	18906.16
918.201	18613.31
918.379	18506.81
918.556	18781.24
918.733	18875.45
918.911	18289.73
919.088	18754.62
919.265	18416.7
919.442	18476.09
919.62	18224.19
919.797	18015.3
919.974	17986.63
920.151	18316.35
920.328	18084.93
920.506	17734.73
920.683	18011.2
920.86	17656.9
921.037	17738.82
921.214	17814.6
921.391	17542.22
921.568	18181.18
921.745	17712.2
921.922	17531.98
922.099	17110.1
922.276	18140.22
922.453	17790.02
922.63	17327.18
922.807	17898.56
922.984	17484.87
923.161	17214.54
923.338	17316.94
923.514	17257.55
923.691	17458.25
923.868	17407.05
924.045	16690.26
924.222	16792.66
924.399	16876.63
924.575	16944.21
924.752	17052.75
924.929	16989.27
925.105	17171.54
925.282	16680.02
925.459	16735.32
925.635	16800.85
925.812	16866.39
925.989	16532.57
926.165	16581.72
926.342	16114.78
926.518	16450.65
926.695	16305.24
926.871	16538.71
927.048	16125.02
927.224	16499.8
927.401	16239.71
927.577	16290.91
927.754	15866.98
927.93	16280.67
928.107	16077.92
928.283	15623.27
928.459	15946.85
928.636	15873.12
928.812	15643.75
928.988	15596.65
929.165	15207.53
929.341	15576.17
929.517	15594.6
929.693	15567.98
929.87	14795.89
930.046	15455.34
930.222	15160.43
930.398	15271.02
930.574	15346.8
930.751	15334.51
930.927	15252.59
931.103	15350.89
931.279	14943.35
931.455	14539.9
931.631	14767.22
931.807	14611.57
931.983	14728.31
932.159	14341.24
932.335	14503.03
932.511	14449.78
932.687	14134.4
932.863	14179.45
933.039	14111.87
933.215	13931.65
933.391	13765.76
933.566	14126.21
933.742	13778.05
933.918	13874.31
934.094	13485.19
934.27	13497.48
934.445	13227.15
934.621	13223.05
934.797	12969.1
934.973	13458.57
935.148	13323.4
935.324	12623
935.5	12543.13
935.675	13044.88
935.851	12641.43
936.027	12500.12
936.202	12190.88
936.378	12260.51
936.553	12178.59
936.729	12156.06
936.904	11863.2
937.08	11533.48
937.255	11138.22
937.431	11064.49
937.606	10853.55
937.782	10964.14
937.957	11017.39
938.133	10620.08
938.308	10134.71
938.483	10355.9
938.659	10058.94
938.834	10120.38
939.009	10003.64
939.185	9659.59
939.36	9499.84
939.535	9043.15
939.71	9526.47
939.886	9710.79
940.061	9389.25
940.236	9190.6
940.411	8946.89
940.586	9082.06
940.761	8991.95
940.937	8912.08
941.112	8746.19
941.287	8776.91
941.462	8662.23
941.637	8596.69
941.812	8643.79
941.987	8694.99
942.162	8611.03
942.337	8297.69
942.512	8291.54
942.687	8426.71
942.862	8563.92
943.037	7978.2
943.212	7648.48
943.386	8078.55
943.561	8309.97
943.736	8191.19
943.911	8078.55
944.086	8033.5
944.26	8117.47
944.435	7951.58
944.61	8160.47
944.785	8279.25
944.959	8183
945.134	7863.52
945.309	7795.93
945.483	7576.8
945.658	7916.76
945.833	7335.14
946.007	7673.06
946.182	8334.55
946.357	7625.95
946.531	7900.38
946.706	7888.09
946.88	7548.13
947.055	7898.33
947.229	7537.89
947.404	7658.72
947.578	8207.58
947.752	7724.26
947.927	7617.76
948.101	7597.28
948.276	7851.23
948.45	8070.36
948.624	7929.05
948.799	7822.56
948.973	8004.83
949.147	7648.48
949.321	7949.53
949.496	7875.81
949.67	8361.17
949.844	8043.74
950.018	7941.34
950.193	8291.54
950.367	8848.59
950.541	8301.78
950.715	8494.29
950.889	8269.02
951.063	8398.04
951.237	8426.71
951.411	8047.83
951.585	8080.6
951.759	8324.31
951.933	8373.46
952.107	8221.91
952.281	8709.33
952.455	8672.46
952.629	8539.35
952.803	8549.59
952.977	8393.94
953.151	8678.61
953.325	8871.12
953.499	8606.93
953.672	8496.34
953.846	8387.8
954.02	8535.25
954.194	8434.9
954.368	8412.37
954.541	8778.96
954.715	8580.31
954.889	8477.91
955.062	8514.77
955.236	8717.52
955.41	8445.14
955.583	8633.55
955.757	8453.33
955.93	8711.38
956.104	8549.59
956.278	8682.7
956.451	8758.48
956.625	8826.06
956.798	9512.13
956.972	8996.04
957.145	8639.7
957.319	8934.6
957.492	8762.58
957.665	9012.43
957.839	8879.31
958.012	9110.73
958.185	8862.93
958.359	8699.09
958.532	8887.5
958.705	9235.66
958.879	8883.41
959.052	8813.77
959.225	8821.97
959.398	9127.11
959.572	9028.81
959.745	8889.55
959.918	8934.6
960.091	8864.97
960.264	9012.43
960.438	8455.38
960.611	8701.14
960.784	8875.21
960.957	8637.65
961.13	8957.13
961.303	8807.63
961.476	9114.83
961.649	8961.23
961.822	8946.89
961.995	8819.92
962.168	9293
962.341	9163.98
962.514	8826.06
962.686	8815.82
962.859	8971.47
963.032	9090.25
963.205	8768.72
963.378	8520.92
963.551	9037
963.723	8881.36
963.896	8971.47
964.069	8838.35
964.242	8996.04
964.414	9106.63
964.587	8811.73
964.76	8977.61
964.932	9186.51
965.105	9086.15
965.278	8664.27
965.45	8582.35
965.623	8754.38
965.795	9010.38
965.968	8778.96
966.14	8668.37
966.313	8838.35
966.485	8740.05
966.658	8654.03
966.83	8611.03
967.003	9202.89
967.175	8963.28
967.348	8666.32
967.52	8809.68
967.692	9272.52
967.865	9020.62
968.037	8807.63
968.209	8901.84
968.382	8881.36
968.554	8717.52
968.726	8502.48
968.898	8684.75
969.071	8717.52
969.243	8617.17
969.415	8250.58
969.587	8395.99
969.759	9039.05
969.932	8541.39
970.104	8475.86
970.276	8037.59
970.448	8266.97
970.62	8232.15
970.792	8307.93
970.964	8160.47
971.136	8621.27
971.308	8404.18
971.48	8166.62
971.652	8170.71
971.824	8764.62
971.996	8537.3
972.168	8594.64
972.339	8504.53
972.511	8694.99
972.683	8420.56
972.855	8275.16
973.027	8422.61
973.199	8248.54
973.37	8461.52
973.542	8428.76
973.714	8410.32
973.886	8504.53
974.057	8430.8
974.229	8000.73
974.401	7972.06
974.572	7953.63
974.744	7695.58
974.915	7806.17
975.087	7935.2
975.259	8383.7
975.43	7638.24
975.602	7875.81
975.773	7650.53
975.945	7752.93
976.116	8066.27
976.288	7599.33
976.459	7783.65
976.63	7785.69
976.802	7804.13
976.973	7503.07
977.145	7748.83
977.316	8019.16
977.487	8144.09
977.659	7857.37
977.83	7734.5
978.001	8137.95
978.172	7890.14
978.344	7683.3
978.515	7748.83
978.686	7486.69
978.857	7924.96
979.028	7431.4
979.2	7439.59
979.371	7879.9
979.542	7552.23
979.713	7507.17
979.884	6978.79
980.055	7568.61
980.226	7347.43
980.397	7415.01
980.568	7324.9
980.739	7906.52
980.91	7509.22
981.081	7396.58
981.252	7443.68
981.423	7742.69
981.594	7646.43
981.765	7339.24
981.936	7437.54
982.106	7494.88
982.277	7498.98
982.448	7058.67
982.619	7128.3
982.79	7052.52
982.96	7431.4
983.131	7169.26
983.302	7029.99
983.472	7212.26
983.643	7365.86
983.814	7015.66
983.984	6831.34
984.155	7095.53
984.326	7425.25
984.496	7240.93
984.667	6872.3
984.837	6954.22
985.008	7462.12
985.178	6995.18
985.349	6669.55
985.519	6978.79
985.69	6671.6
985.86	6511.86
986.031	6526.19
986.201	6728.94
986.371	6857.96
986.542	6429.94
986.712	6552.82
986.882	6954.22
987.053	6890.73
987.223	6542.58
987.393	6655.22
987.563	6421.75
987.734	6810.86
987.904	7021.8
988.074	6587.63
988.244	6604.02
988.414	6452.47
988.585	6456.56
988.755	6458.61
988.925	6499.57
989.095	6755.57
989.265	6468.85
989.435	6384.88
989.605	6550.77
989.775	6534.39
989.945	6487.28
990.115	6182.14
990.285	6350.07
990.455	6243.57
990.625	6356.21
990.795	6233.33
990.965	6601.97
991.134	6149.37
991.304	6149.37
991.474	6245.62
991.644	6262.01
991.814	6444.28
991.984	5905.66
992.153	5838.08
992.323	6233.33
992.493	6087.93
992.662	5829.88
992.832	5979.39
993.002	6208.76
993.171	6360.31
993.341	5811.45
993.511	6106.36
993.68	5887.23
993.85	6214.9
994.019	5577.98
994.189	5688.57
994.358	5883.13
994.528	5709.05
994.697	5571.84
994.867	5610.75
995.036	5960.95
995.206	5670.14
995.375	5506.31
995.544	5631.23
995.714	5739.77
995.883	5483.78
996.052	5655.81
996.222	5438.72
996.391	6311.16
996.56	5481.73
996.73	5463.3
996.899	5324.04
997.068	5950.71
997.237	5756.16
997.406	5233.93
997.576	5334.28
997.745	5471.49
997.914	5426.43
998.083	5088.52
998.252	5276.93
998.421	5387.52
998.59	5022.98
998.759	5209.35
998.928	5084.42
999.097	5487.87
999.266	5221.64
999.435	5166.34
999.604	4789.52
999.773	5530.88
999.942	5152.01
1000.111	4934.92
1000.28	4793.61
1000.448	4873.48
1000.617	4916.49
1000.786	5072.14
1000.955	4816.14
1001.124	5041.42
1001.292	5612.8
1001.461	4908.3
1001.63	4914.44
1001.798	5393.67
1001.967	5266.69
1002.136	4517.14
1002.304	4744.46
1002.473	4910.35
1002.642	4848.91
1002.81	4853
1002.979	4474.13
1003.147	5014.79
1003.316	5203.21
1003.484	4625.68
1003.653	4392.21
1003.821	5184.77
1003.99	4619.53
1004.158	4787.47
1004.327	4437.27
1004.495	4846.86
1004.663	4388.11
1004.832	4551.95
1005	4259.09
1005.168	4670.73
1005.337	4580.62
1005.505	4449.55
1005.673	4293.91
1005.842	4746.51
1006.01	4683.02
1006.178	4275.48
1006.346	4201.75
1006.514	4384.02
1006.683	4592.91
1006.851	4226.32
1007.019	4054.3
1007.187	4216.09
1007.355	4027.67
1007.523	3896.6
1007.691	3917.08
1007.859	3941.66
1008.027	4476.18
1008.195	4152.6
1008.363	3962.14
1008.531	4576.53
1008.699	4037.91
1008.867	3808.54
1009.035	3906.84
1009.203	4302.1
1009.37	4130.07
1009.538	3984.66
1009.706	4168.98
1009.874	4308.24
1010.042	4080.92
1010.209	3816.73
1010.377	3718.43
1010.545	4152.6
1010.713	4005.14
1010.88	3788.06
1011.048	3849.5
1011.216	4021.53
1011.383	4330.77
1011.551	3759.39
1011.718	3505.44
1011.886	4175.13
1012.054	3843.35
1012.221	3636.51
1012.389	3589.41
1012.556	3874.07
1012.724	4166.93
1012.891	3685.66
1013.058	3331.36
1013.226	4058.39
1013.393	3824.92
1013.561	3171.62
1013.728	3368.23
1013.895	3763.48
1014.063	3816.73
1014.23	3364.13
1014.397	3257.64
1014.565	3800.35
1014.732	3532.06
1014.899	3274.02
1015.066	3177.76
1015.233	3466.53
1015.401	3568.93
1015.568	3360.03
1015.735	3392.8
1015.902	3482.91
1016.069	3597.6
1016.236	3124.52
1016.403	3149.09
1016.57	3138.85
1016.737	3585.31
1016.904	3138.85
1017.071	2936.1
1017.238	3101.99
1017.405	3556.64
1017.572	3228.96
1017.739	3237.16
1017.906	3235.11
1018.073	3468.58
1018.24	2802.99
1018.407	3011.88
1018.573	3345.7
1018.74	3145
1018.907	3065.13
1019.074	2927.91
1019.241	3276.07
1019.407	3145
1019.574	2991.4
1019.741	2798.89
1019.907	3274.02
1020.074	3249.44
1020.241	2747.69
1020.407	2716.97
1020.574	3175.72
1020.74	3173.67
1020.907	2866.47
1021.073	2794.79
1021.24	3378.47
1021.406	3360.03
1021.573	2647.34
1021.739	2579.76
1021.906	2923.82
1022.072	2782.51
1022.239	2659.63
1022.405	2573.61
1022.571	2802.99
1022.738	2649.39
1022.904	2671.92
1023.07	2544.94
1023.237	2915.62
1023.403	3005.74
1023.569	2575.66
1023.735	2571.57
1023.902	2786.6
1024.068	2739.5
1024.234	2460.98
1024.4	2442.54
1024.566	2716.97
1024.732	2932.01
1024.898	2594.09
1025.065	2317.62
1025.231	2837.8
1025.397	2514.22
1025.563	2360.63
1025.729	2221.36
1025.895	2350.39
1026.061	2417.97
1026.227	2211.12
1026.392	2463.02
1026.558	2676.01
1026.724	2551.09
1026.89	2221.36
1027.056	2362.67
1027.222	2587.95
1027.388	2413.87
1027.553	2280.75
1027.719	2262.32
1027.885	2860.33
1028.051	2522.41
1028.216	2014.52
1028.382	2202.93
1028.548	2546.99
1028.713	2229.56
1028.879	2014.52
1029.045	2159.92
1029.21	2684.2
1029.376	2612.53
1029.541	2188.6
1029.707	2078.01
1029.873	2313.52
1030.038	2348.34
1030.204	1967.42
1030.369	2043.19
1030.534	2393.39
1030.7	2245.94
1030.865	1957.18
1031.031	1983.8
1031.196	2309.43
1031.361	2426.16
1031.527	1873.21
1031.692	1895.74
1031.857	1910.07
1032.023	2327.86
1032.188	1828.15
1032.353	1899.83
1032.518	2432.3
1032.684	2002.23
1032.849	1799.48
1033.014	1801.53
1033.179	2190.64
1033.344	2258.23
1033.509	1875.26
1033.674	1844.54
1033.839	2137.4
1034.004	2141.49
1034.17	1729.85
1034.335	1645.88
1034.5	1932.6
1034.664	1781.05
1034.829	1672.51
1034.994	1705.28
1035.159	2123.06
1035.324	1938.74
1035.489	1752.38
1035.654	1729.85
1035.819	2252.08
1035.984	1981.75
1036.148	1615.16
1036.313	1557.82
1036.478	2024.76
1036.643	1854.78
1036.807	1572.16
1036.972	1572.16
1037.137	2069.81
1037.301	1768.76
1037.466	1416.51
1037.631	1635.64
1037.795	2084.15
1037.96	1873.21
1038.124	1656.12
1038.289	1334.59
1038.454	1885.5
1038.618	1885.5
1038.783	1457.47
1038.947	1551.68
1039.111	1695.04
1039.276	1623.36
1039.44	1393.98
1039.605	1836.35
1039.769	1639.74
1039.933	1715.52
1040.098	1477.95
1040.262	1649.98
1040.426	1813.82
1040.591	1828.15
1040.755	1393.98
1040.919	1400.13
1041.083	1631.55
1041.248	1600.83
1041.412	1234.24
1041.576	1258.82
1041.74	1578.3
1041.904	1842.49
1042.068	1269.06
1042.232	1367.36
1042.397	1758.52
1042.561	1480
1042.725	1078.6
1042.889	1406.27
1043.053	1647.93
1043.217	1705.28
1043.381	1393.98
1043.544	1125.7
1043.708	1862.97
1043.872	1199.43
1044.036	982.34
1044.2	1150.28
1044.364	1658.17
1044.528	1824.06
1044.691	3503.39
1044.855	1209.67
1045.019	1699.13
1045.183	1469.76
1045.346	1217.86
1045.51	1121.6
1045.674	1463.62
1045.837	1609.02
1046.001	1277.25
1046.165	1187.14
1046.328	1912.12
1046.492	1588.54
1046.655	1289.54
1046.819	1140.04
1046.983	1152.32
1047.146	1504.57
1047.31	1162.56
1047.473	861.51
1047.636	1289.54
1047.8	1092.93
1047.963	1097.03
1048.127	1054.02
1048.29	1176.9
