Data from Ink_Intensity_USB4F045381__124__00124.txt Node

Date: Mon Jul 17 11:13:06 EDT 2023
User: mmckonesweet
Spectrometer: USB4F04538
Trigger mode: 4
Integration Time (sec): 9.000000E-1
Scans to average: 1
Electric dark correction enabled: true
Nonlinearity correction enabled: false
Boxcar width: 0
XAxis mode: Wavelengths
Number of Pixels in Spectrum: 3648
>>>>>Begin Spectral Data<<<<<
345.52	-1109.32
345.736	-1109.32
345.952	-1109.32
346.168	-1066.31
346.384	-1064.26
346.6	-136.53
346.816	-234.83
347.032	-214.35
347.248	340.65
347.464	-226.64
347.68	-111.96
347.896	88.75
348.112	465.57
348.328	-97.62
348.544	-109.91
348.76	-1.37
348.975	238.25
349.191	-249.17
349.407	-245.07
349.623	-23.89
349.839	-56.66
350.055	-124.24
350.27	-21.84
350.486	170.66
350.702	301.73
350.918	133.8
351.133	-238.93
351.349	156.33
351.565	311.97
351.781	-310.61
351.996	-21.84
352.212	311.97
352.428	-157.01
352.644	-218.45
352.859	-200.02
353.075	219.82
353.291	74.41
353.506	-124.24
353.722	-236.88
353.938	-118.1
354.153	418.47
354.369	-32.08
354.584	-220.5
354.8	191.14
355.016	-302.42
355.231	-247.12
355.447	-91.48
355.662	82.6
355.878	795.29
356.093	-345.42
356.309	-44.37
356.524	-333.14
356.74	195.24
356.955	-222.55
357.171	-56.66
357.386	86.7
357.602	-290.13
357.817	-99.67
358.033	-191.83
358.248	273.06
358.464	107.18
358.679	-220.5
358.895	-355.66
359.11	-1.37
359.325	225.96
359.541	37.55
359.756	-68.95
359.972	-380.24
360.187	133.8
360.402	-230.74
360.618	-261.46
360.833	998.04
361.048	12.97
361.264	-218.45
361.479	-99.67
361.694	62.12
361.909	187.05
362.125	-218.45
362.34	-146.77
362.555	230.06
362.77	92.84
362.986	-331.09
363.201	-197.97
363.416	166.57
363.631	-21.84
363.847	-214.35
364.062	-236.88
364.277	146.09
364.492	74.41
364.707	-230.74
364.922	-453.97
365.138	166.57
365.353	324.26
365.568	-318.8
365.783	-118.1
365.998	68.27
366.213	555.68
366.428	-240.98
366.643	33.45
366.858	141.99
367.073	152.23
367.288	-126.29
367.503	-361.81
367.718	45.74
367.933	258.73
368.148	-326.99
368.363	-64.85
368.578	4.78
368.793	443.04
369.008	-185.68
369.223	-281.94
369.438	193.19
369.653	389.8
369.868	-337.23
370.083	-322.9
370.298	45.74
370.513	297.64
370.728	8.87
370.943	-214.35
371.157	-208.21
371.372	469.67
371.587	-376.14
371.802	-281.94
372.017	146.09
372.232	385.7
372.446	-77.14
372.661	-306.51
372.876	205.48
373.091	125.61
373.306	-144.72
373.52	-277.84
373.735	-179.54
373.95	334.5
374.165	-132.44
374.379	-169.3
374.594	-163.15
374.809	12.97
375.023	-83.28
375.238	-306.51
375.453	201.38
375.667	-185.68
375.882	-128.34
376.097	-306.51
376.311	31.4
376.526	35.5
376.741	-204.11
376.955	125.61
377.17	547.49
377.384	533.15
377.599	-93.52
377.813	-296.27
378.028	567.97
378.242	103.08
378.457	-138.58
378.672	-384.34
378.886	29.35
379.101	-25.94
379.315	-451.92
379.53	-216.4
379.744	64.17
379.958	88.75
380.173	-171.35
380.387	-214.35
380.602	193.19
380.816	-232.79
381.031	-165.2
381.245	-251.22
381.459	135.85
381.674	2699.91
381.888	-202.07
382.103	119.46
382.317	-173.39
382.531	490.15
382.746	-52.56
382.96	-222.55
383.174	-146.77
383.388	314.02
383.603	33.45
383.817	-370
384.031	64.17
384.246	455.33
384.46	-34.13
384.674	248.49
384.888	70.31
385.103	-34.13
385.317	-277.84
385.531	-71
385.745	307.88
385.959	258.73
386.174	-232.79
386.388	-347.47
386.602	-71
386.816	-169.3
387.03	-73.04
387.244	-163.15
387.458	55.98
387.672	350.89
387.887	-331.09
388.101	-351.57
388.315	295.59
388.529	33.45
388.743	-251.22
388.957	-265.55
389.171	332.45
389.385	-179.54
389.599	-193.87
389.813	45.74
390.027	164.52
390.241	594.59
390.455	-159.06
390.669	-208.21
390.883	-93.52
391.097	352.93
391.311	23.21
391.525	-216.4
391.738	129.7
391.952	156.33
392.166	-105.81
392.38	-279.89
392.594	213.67
392.808	271.01
393.022	-169.3
393.236	-191.83
393.449	156.33
393.663	107.18
393.877	-249.17
394.091	-138.58
394.305	-109.91
394.518	-175.44
394.732	-298.32
394.946	-109.91
395.16	432.8
395.373	53.93
395.587	-249.17
395.801	-275.79
396.015	271.01
396.228	191.14
396.442	-296.27
396.656	-349.52
396.869	359.08
397.083	473.76
397.297	-81.24
397.51	-253.27
397.724	309.93
397.938	96.94
398.151	-279.89
398.365	-251.22
398.578	182.95
398.792	320.17
399.005	-56.66
399.219	-148.82
399.433	43.69
399.646	185
399.86	-40.28
400.073	-7.51
400.287	139.94
400.5	-126.29
400.714	-15.7
400.927	-101.72
401.141	213.67
401.354	1004.19
401.567	135.85
401.781	-298.32
401.994	240.3
402.208	578.21
402.421	-101.72
402.635	-93.52
402.848	-19.8
403.061	228.01
403.275	-91.48
403.488	-269.65
403.701	445.09
403.915	262.82
404.128	-89.43
404.341	-157.01
404.555	170.66
404.768	-71
404.981	-36.18
405.195	-230.74
405.408	486.05
405.621	166.57
405.834	70.31
406.048	-277.84
406.261	354.98
406.474	397.99
406.687	-193.87
406.9	-99.67
407.114	43.69
407.327	217.77
407.54	-324.94
407.753	-351.57
407.966	-157.01
408.179	258.73
408.392	-271.7
408.605	-320.85
408.819	70.31
409.032	178.86
409.245	-187.73
409.458	41.64
409.671	172.71
409.884	254.63
410.097	-339.28
410.31	-85.33
410.523	94.89
410.736	-25.94
410.949	-68.95
411.162	-128.34
411.375	373.41
411.588	254.63
411.801	-27.99
412.014	-359.76
412.227	-38.23
412.44	-103.76
412.653	-296.27
412.865	41.64
413.078	266.92
413.291	144.04
413.504	-122.2
413.717	-210.26
413.93	164.52
414.143	-161.11
414.356	-154.96
414.568	-400.72
414.781	289.45
414.994	185
415.207	-159.06
415.42	-154.96
415.632	221.86
415.845	438.95
416.058	-331.09
416.271	-290.13
416.483	31.4
416.696	533.15
416.909	-171.35
417.121	-286.03
417.334	43.69
417.547	498.34
417.759	-257.36
417.972	-347.47
418.185	-134.48
418.397	211.62
418.61	-292.18
418.823	-232.79
419.035	379.56
419.248	-79.19
419.46	-85.33
419.673	-105.81
419.885	150.18
420.098	-68.95
420.311	-216.4
420.523	-462.16
420.736	221.86
420.948	0.68
421.161	-253.27
421.373	-404.82
421.586	150.18
421.798	-97.62
422.01	-433.49
422.223	-109.91
422.435	-173.39
422.648	162.47
422.86	-232.79
423.073	-265.55
423.285	305.83
423.497	-273.75
423.71	-230.74
423.922	-314.7
424.134	154.28
424.347	414.37
424.559	53.93
424.771	84.65
424.984	-7.51
425.196	158.38
425.408	-404.82
425.621	-312.66
425.833	203.43
426.045	311.97
426.257	-298.32
426.47	-273.75
426.682	150.18
426.894	148.14
427.106	-253.27
427.318	-27.99
427.531	-204.11
427.743	203.43
427.955	-249.17
428.167	166.57
428.379	123.56
428.591	21.16
428.804	-114
429.016	-269.65
429.228	-109.91
429.44	107.18
429.652	-27.99
429.864	-394.58
430.076	-46.42
430.288	-62.8
430.5	-132.44
430.712	-144.72
430.924	234.15
431.136	6.83
431.348	-363.86
431.56	-333.14
431.772	-3.41
431.984	-163.15
432.196	-253.27
432.408	-214.35
432.62	8.87
432.832	129.7
433.044	33.45
433.256	-87.38
433.468	199.34
433.679	-359.76
433.891	-306.51
434.103	4.78
434.315	342.69
434.527	180.9
434.739	-191.83
434.95	-148.82
435.162	250.53
435.374	-91.48
435.586	-195.92
435.798	-165.2
436.009	-226.64
436.221	-27.99
436.433	-206.16
436.645	-183.63
436.856	-144.72
437.068	322.21
437.28	-271.7
437.491	43.69
437.703	156.33
437.915	31.4
438.126	-134.48
438.338	41.64
438.55	-81.24
438.761	98.99
438.973	-146.77
439.184	-189.78
439.396	-3.41
439.608	213.67
439.819	-286.03
440.031	-114
440.242	154.28
440.454	195.24
440.665	-279.89
440.877	-91.48
441.088	164.52
441.3	-107.86
441.511	-374.1
441.723	-210.26
441.934	144.04
442.146	-3.41
442.357	-77.14
442.569	82.6
442.78	12.97
442.991	404.13
443.203	80.55
443.414	-294.22
443.626	391.84
443.837	-157.01
444.048	-298.32
444.26	-331.09
444.471	58.03
444.682	168.62
444.894	-413.01
445.105	-413.01
445.316	242.34
445.528	127.66
445.739	-136.53
445.95	-165.2
446.161	-3.41
446.373	232.1
446.584	-218.45
446.795	-255.31
447.006	277.16
447.217	361.13
447.429	-353.62
447.64	-329.04
447.851	320.17
448.062	45.74
448.273	-367.95
448.484	-187.73
448.695	209.58
448.907	-27.99
449.118	-97.62
449.329	33.45
449.54	-40.28
449.751	-236.88
449.962	-238.93
450.173	-302.42
450.384	191.14
450.595	340.65
450.806	-275.79
451.017	-150.87
451.228	418.47
451.439	275.11
451.65	-197.97
451.861	-429.39
452.072	-230.74
452.283	-27.99
452.494	-56.66
452.705	-222.55
452.915	406.18
453.126	256.68
453.337	-189.78
453.548	-228.69
453.759	281.25
453.97	547.49
454.181	31.4
454.391	-232.79
454.602	29.35
454.813	201.38
455.024	-93.52
455.235	-175.44
455.445	41.64
455.656	41.64
455.867	-17.75
456.078	-173.39
456.288	-52.56
456.499	162.47
456.71	-167.25
456.921	113.32
457.131	166.57
457.342	119.46
457.553	-62.8
457.763	-142.68
457.974	84.65
458.184	256.68
458.395	-240.98
458.606	-179.54
458.816	316.07
459.027	473.76
459.237	-42.32
459.448	-353.62
459.659	293.54
459.869	580.26
460.08	-384.34
460.29	-64.85
460.501	479.91
460.711	-17.75
460.922	-310.61
461.132	-238.93
461.343	686.75
461.553	-318.8
461.764	-259.41
461.974	-161.11
462.184	205.48
462.395	172.71
462.605	-181.59
462.816	-316.75
463.026	105.13
463.236	346.79
463.447	-245.07
463.657	-255.31
463.867	307.88
464.078	90.79
464.288	-181.59
464.498	-253.27
464.709	62.12
464.919	111.27
465.129	-191.83
465.339	-238.93
465.55	160.42
465.76	244.39
465.97	-216.4
466.18	-253.27
466.391	223.91
466.601	160.42
466.811	-157.01
467.021	-253.27
467.231	156.33
467.441	299.69
467.651	-150.87
467.862	-384.34
468.072	90.79
468.282	389.8
468.492	-202.07
468.702	-99.67
468.912	-7.51
469.122	656.03
469.332	58.03
469.542	-146.77
469.752	309.93
469.962	105.13
470.172	-206.16
470.382	-296.27
470.592	252.58
470.802	438.95
471.012	-71
471.222	-146.77
471.432	346.79
471.642	275.11
471.852	6.83
472.062	-204.11
472.272	-1.37
472.482	-99.67
472.691	-208.21
472.901	-232.79
473.111	228.01
473.321	615.07
473.531	-251.22
473.741	-34.13
473.95	103.08
474.16	262.82
474.37	-77.14
474.58	-253.27
474.79	551.59
474.999	195.24
475.209	-257.36
475.419	-134.48
475.628	12.97
475.838	410.28
476.048	-40.28
476.258	-251.22
476.467	369.32
476.677	-13.65
476.886	12.97
477.096	-87.38
477.306	29.35
477.515	457.38
477.725	-85.33
477.935	-23.89
478.144	537.25
478.354	12.97
478.563	-136.53
478.773	-212.31
478.982	225.96
479.192	383.65
479.401	-50.52
479.611	-187.73
479.82	-34.13
480.03	182.95
480.239	-101.72
480.449	-218.45
480.658	430.76
480.868	-11.61
481.077	27.31
481.287	-66.9
481.496	281.25
481.705	533.15
481.915	162.47
482.124	201.38
482.333	228.01
482.543	447.14
482.752	23.21
482.961	-161.11
483.171	418.47
483.38	219.82
483.589	-36.18
483.799	-154.96
484.008	156.33
484.217	359.08
484.426	-58.71
484.636	-202.07
484.845	285.35
485.054	-159.06
485.263	228.01
485.472	-62.8
485.682	565.92
485.891	307.88
486.1	-183.63
486.309	-58.71
486.518	326.31
486.727	561.83
486.936	-109.91
487.146	158.38
487.355	574.11
487.564	49.83
487.773	37.55
487.982	10.92
488.191	148.14
488.4	182.95
488.609	-19.8
488.818	-44.37
489.027	760.48
489.236	608.93
489.445	-30.04
489.654	-66.9
489.863	463.52
490.072	252.58
490.281	379.56
490.49	-7.51
490.698	699.04
490.907	643.74
491.116	33.45
491.325	-99.67
491.534	539.3
491.743	330.41
491.952	43.69
492.16	131.75
492.369	486.05
492.578	596.64
492.787	117.42
492.996	-208.21
493.204	223.91
493.413	711.33
493.622	-122.2
493.831	-103.76
494.039	717.47
494.248	86.7
494.457	25.26
494.665	-95.57
494.874	516.77
495.083	785.05
495.291	90.79
495.5	-3.41
495.709	600.74
495.917	340.65
496.126	254.63
496.335	2.73
496.543	248.49
496.752	426.66
496.96	404.13
497.169	-56.66
497.377	363.17
497.586	567.97
497.794	129.7
498.003	6.83
498.211	295.59
498.42	727.71
498.628	156.33
498.837	17.07
499.045	537.25
499.254	424.61
499.462	105.13
499.671	33.45
499.879	762.53
500.087	627.36
500.296	146.09
500.504	185
500.713	512.67
500.921	918.17
501.129	74.41
501.338	64.17
501.546	512.67
501.754	475.81
501.962	137.9
502.171	185
502.379	477.86
502.587	858.78
502.795	201.38
503.004	139.94
503.212	430.76
503.42	631.46
503.628	111.27
503.837	219.82
504.045	594.59
504.253	924.32
504.461	119.46
504.669	31.4
504.877	672.42
505.085	838.3
505.294	111.27
505.502	424.61
505.71	438.95
505.918	549.54
506.126	146.09
506.334	111.27
506.542	438.95
506.75	578.21
506.958	281.25
507.166	258.73
507.374	359.08
507.582	914.08
507.79	236.2
507.998	213.67
508.206	570.02
508.414	647.84
508.622	176.81
508.83	170.66
509.037	920.22
509.245	434.85
509.453	174.76
509.661	96.94
509.869	629.41
510.077	449.19
510.285	414.37
510.492	-27.99
510.7	1047.19
510.908	484
511.116	254.63
511.324	295.59
511.531	441
511.739	805.53
511.947	418.47
512.155	531.11
512.362	539.3
512.57	299.69
512.778	189.1
512.985	103.08
513.193	785.05
513.401	948.89
513.608	311.97
513.816	340.65
514.024	629.41
514.231	848.54
514.439	221.86
514.646	287.4
514.854	776.86
515.061	819.87
515.269	336.55
515.477	332.45
515.684	348.84
515.892	889.5
516.099	228.01
516.307	193.19
516.514	752.29
516.722	1022.62
516.929	361.13
517.136	266.92
517.344	944.8
517.551	721.57
517.759	262.82
517.966	314.02
518.173	570.02
518.381	596.64
518.588	404.13
518.796	361.13
519.003	883.36
519.21	613.03
519.418	344.74
519.625	701.09
519.832	610.98
520.039	737.95
520.247	242.34
520.454	350.89
520.661	924.32
520.868	752.29
521.076	414.37
521.283	426.66
521.49	1327.77
521.697	774.81
521.904	402.08
522.112	404.13
522.319	973.47
522.526	866.97
522.733	363.17
522.94	334.5
523.147	703.14
523.354	944.8
523.561	279.21
523.768	459.43
523.975	918.17
524.183	766.62
524.39	512.67
524.597	393.89
524.804	807.58
525.011	594.59
525.218	455.33
525.425	449.19
525.632	1106.59
525.838	496.29
526.045	549.54
526.252	469.67
526.459	1813.13
526.666	1555.09
526.873	422.56
527.08	449.19
527.287	1112.73
527.494	1022.62
527.701	303.78
527.907	492.2
528.114	909.98
528.321	866.97
528.528	547.49
528.735	553.63
528.941	760.48
529.148	735.9
529.355	692.9
529.562	467.62
529.768	1208.98
529.975	783.01
530.182	584.35
530.388	529.06
530.595	1090.2
530.802	488.1
531.008	770.72
531.215	643.74
531.422	1376.92
531.628	1659.54
531.835	760.48
532.042	735.9
532.248	844.45
532.455	924.32
532.661	744.1
532.868	549.54
533.074	1069.72
533.281	1129.11
533.487	688.8
533.694	557.73
533.9	668.32
534.107	1069.72
534.313	643.74
534.52	590.5
534.726	1145.5
534.933	1507.99
535.139	533.15
535.345	586.4
535.552	1122.97
535.758	1024.67
535.965	696.99
536.171	717.47
536.377	1213.08
536.584	1333.91
536.79	709.28
536.996	795.29
537.203	1077.91
537.409	1217.18
537.615	844.45
537.821	858.78
538.028	1258.14
538.234	1217.18
538.44	815.77
538.646	875.17
538.853	1145.5
539.059	1043.1
539.265	1200.79
539.471	625.31
539.677	1270.42
539.883	1069.72
540.09	848.54
540.296	1245.85
540.502	1059.48
540.708	905.88
540.914	955.04
541.12	873.12
541.326	1233.56
541.532	1047.19
541.738	942.75
541.944	842.4
542.15	1313.43
542.356	1024.67
542.562	768.67
542.768	871.07
542.974	1788.56
543.18	1677.97
543.386	809.63
543.592	629.41
543.798	1626.77
544.004	1426.07
544.21	807.58
544.415	987.8
544.621	1149.59
544.827	1401.49
545.033	803.49
545.239	1215.13
545.445	1000.09
545.651	1251.99
545.856	955.04
546.062	912.03
546.268	1129.11
546.474	1309.33
546.679	983.71
546.885	1014.43
547.091	1182.36
547.297	1813.13
547.502	1061.53
547.708	869.02
547.914	1063.58
548.119	1489.56
548.325	836.25
548.531	877.21
548.736	1620.63
548.942	1217.18
549.147	946.84
549.353	1331.86
549.559	1651.35
549.764	1528.47
549.97	1036.95
550.175	1053.34
550.381	1475.22
550.586	1225.37
550.792	1137.31
550.997	1069.72
551.203	1512.08
551.408	1583.76
551.614	916.12
551.819	1104.54
552.025	1843.85
552.23	1878.67
552.435	1045.15
552.641	1321.62
552.846	1133.21
553.052	1794.7
553.257	1319.57
553.462	1153.69
553.668	1288.86
553.873	1686.16
554.078	1077.91
554.283	1114.78
554.489	1630.87
554.694	1565.33
554.899	1051.29
555.105	1333.91
555.31	1600.15
555.515	1718.93
555.72	1321.62
555.925	1147.55
556.131	1790.61
556.336	1456.79
556.541	1108.63
556.746	1127.07
556.951	1888.91
557.156	1884.81
557.361	1319.57
557.567	1395.35
557.772	2105.99
557.977	1667.73
558.182	1165.98
558.387	1266.33
558.592	1458.84
558.797	2032.27
559.002	1368.73
559.207	1391.25
559.412	1483.41
559.617	1948.3
559.822	1385.11
560.027	1323.67
560.232	1761.94
560.437	1968.78
560.642	1278.62
560.847	1338.01
561.051	1653.39
561.256	1727.12
561.461	1401.49
561.666	1319.57
561.871	1768.08
562.076	1987.21
562.281	1495.7
562.485	1278.62
562.69	1806.99
562.895	2054.8
563.1	1424.02
563.305	1325.72
563.509	2054.8
563.714	2278.02
563.919	1499.8
564.123	1438.36
564.328	1723.02
564.533	2011.79
564.737	1528.47
564.942	1407.64
565.147	2163.34
565.351	2239.11
565.556	1587.86
565.761	1589.91
565.965	1798.8
566.17	1575.57
566.374	1487.51
566.579	1442.45
566.784	1860.24
566.988	1763.98
567.193	1282.71
567.397	1495.7
567.602	1540.76
567.806	1778.32
568.011	1565.33
568.215	1720.98
568.42	1819.28
568.624	1792.66
568.828	1766.03
569.033	1706.64
569.237	2062.99
569.442	1948.3
569.646	1497.75
569.85	1716.88
570.055	1774.22
570.259	2034.32
570.463	1923.73
570.668	1628.82
570.872	1864.33
571.076	1856.14
571.281	1872.53
571.485	1712.78
571.689	1970.83
571.893	2185.87
572.098	1813.13
572.302	1708.69
572.506	2224.78
572.71	1972.88
572.914	1743.5
573.119	1706.64
573.323	2337.41
573.527	2355.85
573.731	1745.55
573.935	1647.25
574.139	2112.14
574.343	1876.62
574.547	1772.18
574.751	1909.39
574.955	2372.23
575.159	2364.04
575.364	1800.85
575.568	1782.42
575.772	2179.72
575.976	2339.46
576.18	1774.22
576.383	1634.96
576.587	2433.67
576.791	2224.78
576.995	1673.87
577.199	1723.02
577.403	2413.19
577.607	2519.68
577.811	1858.19
578.015	1921.68
578.219	2275.98
578.422	2275.98
578.626	2093.71
578.83	2128.52
579.034	2505.35
579.238	2112.14
579.442	1962.64
579.645	2445.96
579.849	2282.12
580.053	2357.89
580.257	2067.08
580.46	1872.53
580.664	2390.66
580.868	2435.72
581.071	2323.08
581.275	2105.99
581.479	1958.54
581.682	2458.25
581.886	2079.37
582.09	2130.57
582.293	2474.63
582.497	2589.32
582.7	2239.11
582.904	2022.03
583.107	2329.22
583.311	2310.79
583.515	2149
583.718	2163.34
583.922	2468.49
584.125	2849.41
584.329	2065.04
584.532	2306.7
584.735	2851.46
584.939	2613.89
585.142	1964.68
585.346	2138.76
585.549	2515.59
585.753	2314.89
585.956	2265.74
586.159	2423.43
586.363	2984.57
586.566	2738.82
586.769	2261.64
586.973	2212.49
587.176	2652.8
587.379	2826.88
587.582	2478.72
587.786	2470.53
587.989	2568.84
588.192	3127.93
588.395	2372.23
588.599	2593.41
588.802	2726.53
589.005	2785.92
589.208	2429.57
589.411	2425.48
589.615	2925.18
589.818	3000.96
590.021	2636.42
590.224	2421.38
590.427	2816.64
590.63	2949.76
590.833	2140.81
591.036	2398.85
591.239	2517.64
591.442	2650.75
591.645	2710.15
591.848	2413.19
592.051	2798.21
592.254	2882.17
592.457	2488.96
592.66	2441.86
592.863	2640.51
593.066	2906.75
593.269	2482.82
593.472	2609.79
593.675	2529.92
593.878	2998.91
594.081	2663.04
594.284	2495.11
594.486	3048.06
594.689	2929.28
594.892	2697.86
595.095	2517.64
595.298	3007.1
595.5	2841.22
595.703	2650.75
595.906	2884.22
596.109	3232.38
596.311	3117.69
596.514	2335.37
596.717	2687.62
596.92	3338.87
597.122	2998.91
597.325	2480.77
597.528	2761.34
597.73	3318.39
597.933	2970.24
598.136	2704
598.338	2413.19
598.541	3185.27
598.743	3320.44
598.946	2761.34
599.148	2804.35
599.351	3277.43
599.554	3281.53
599.756	2847.36
599.959	2736.77
600.161	3328.63
600.363	3785.33
600.566	3097.21
600.768	2845.31
600.971	3562.1
601.173	3412.6
601.376	2908.8
601.578	2882.17
601.78	3256.95
601.983	3838.58
602.185	2894.46
602.388	3101.31
602.59	3324.54
602.792	3117.69
602.995	3142.27
603.197	2878.08
603.399	3576.44
603.601	3277.43
603.804	2880.13
604.006	2941.57
604.208	3285.62
604.41	2980.48
604.613	3054.2
604.815	3078.78
605.017	3988.08
605.219	3138.17
605.421	3347.06
605.623	2939.52
605.826	3623.54
606.028	3680.88
606.23	3058.3
606.432	3195.51
606.634	3803.76
606.836	3807.86
607.038	3056.25
607.24	3263.1
607.442	3416.69
607.644	3314.3
607.846	3215.99
608.048	3121.79
608.25	3715.7
608.452	3285.62
608.654	3113.6
608.856	3134.07
609.058	3314.3
609.26	3615.35
609.462	3275.38
609.664	3240.57
609.866	3928.69
610.067	3670.64
610.269	3330.68
610.471	3320.44
610.673	3474.04
610.875	3744.37
611.077	3213.95
611.278	3287.67
611.48	3564.15
611.682	4012.65
611.884	3287.67
612.085	3191.42
612.287	3338.87
612.489	3639.92
612.69	3236.47
612.892	3515
613.094	3873.39
613.295	3662.45
613.497	3205.75
613.699	3365.5
613.9	4029.04
614.102	3797.62
614.304	3347.06
614.505	3228.28
614.707	3742.32
614.908	3674.74
615.11	3400.31
615.311	3461.75
615.513	3930.73
615.714	4000.37
615.916	3392.12
616.117	3455.61
616.319	3629.68
616.52	3963.5
616.722	3390.07
616.923	3502.71
617.124	4010.61
617.326	3904.11
617.527	3517.04
617.729	3791.47
617.93	3930.73
618.131	4051.56
618.333	3461.75
618.534	3596.92
618.735	3656.31
618.937	4168.3
619.138	3469.94
619.339	3367.54
619.54	4020.85
619.742	3748.47
619.943	3814
620.144	3672.69
620.345	3986.03
620.546	4297.32
620.748	3537.52
620.949	3629.68
621.15	4014.7
621.351	3953.26
621.552	3611.25
621.753	3453.56
621.954	3607.16
622.155	4188.78
622.356	3580.53
622.558	3850.86
622.759	3900.02
622.96	4280.94
623.161	3691.12
623.362	3578.48
623.563	3998.32
623.764	4135.53
623.965	3795.57
624.166	4041.33
624.366	3965.55
624.567	4143.72
624.768	3498.61
624.969	3725.94
625.17	4037.23
625.371	4325.99
625.572	3928.69
625.773	3906.16
625.973	4203.11
626.174	4108.91
626.375	3867.25
626.576	4059.76
626.777	4207.21
626.977	4680.29
627.178	3820.14
627.379	3953.26
627.58	4088.43
627.78	4225.64
627.981	3945.07
628.182	4162.16
628.382	4444.77
628.583	3844.72
628.784	3895.92
628.984	3924.59
629.185	4409.96
629.386	4366.95
629.586	4160.11
629.787	3992.17
629.987	4422.25
630.188	4313.7
630.388	4002.41
630.589	3983.98
630.79	4936.29
630.99	4260.46
631.191	4076.14
631.391	4237.93
631.591	4438.63
631.792	4686.44
631.992	4397.67
632.193	4059.76
632.393	4756.07
632.594	4270.7
632.794	4096.62
632.994	4409.96
633.195	4405.86
633.395	4407.91
633.595	4043.37
633.796	4350.57
633.996	4209.26
634.196	4719.2
634.397	4051.56
634.597	4153.96
634.797	4239.98
634.997	4885.09
635.198	4442.73
635.398	4043.37
635.598	4612.71
635.798	4919.9
635.998	4565.6
636.199	4180.59
636.399	4422.25
636.599	4323.94
636.799	4457.06
636.999	4594.28
637.199	4735.59
637.399	4938.34
637.599	4244.07
637.799	4399.72
637.999	4371.05
638.199	4860.51
638.399	4438.63
638.599	4215.4
638.799	4659.81
638.999	5116.51
639.199	4450.92
639.399	4536.93
639.599	5018.21
639.799	4452.97
639.999	4414.06
640.199	4483.69
640.399	4766.31
640.599	4616.8
640.799	4629.09
640.998	4706.91
641.198	5042.78
641.398	4858.46
641.598	4725.35
641.798	4676.2
641.997	5800.53
642.197	4768.35
642.397	4737.63
642.597	4688.48
642.796	4975.2
642.996	5319.26
643.196	4719.2
643.395	4622.95
643.595	4977.25
643.795	4420.2
643.994	4584.04
644.194	4729.44
644.394	5126.75
644.593	4919.9
644.793	4557.41
644.992	4805.22
645.192	5190.24
645.392	4514.41
645.591	4848.22
645.791	4823.65
645.99	5085.79
646.19	4979.29
646.389	4698.72
646.589	4733.54
646.788	5239.39
646.987	5063.26
647.187	5184.09
647.386	4936.29
647.586	5091.93
647.785	5302.87
647.984	4956.77
648.184	4786.79
648.383	5026.4
648.582	5059.17
648.782	4913.76
648.981	4991.58
649.18	4919.9
649.38	5239.39
649.579	4924
649.778	5036.64
649.977	5491.29
650.177	5407.32
650.376	4926.05
650.575	4868.7
650.774	5642.84
650.973	5028.45
651.173	4784.74
651.372	5020.25
651.571	5210.72
651.77	5493.33
651.969	4997.73
652.168	5022.3
652.367	5067.36
652.566	5464.66
652.765	5124.7
652.964	5292.63
653.163	5804.63
653.362	5329.5
653.561	5091.93
653.76	5077.6
653.959	5321.31
654.158	5538.39
654.357	5327.45
654.556	4987.49
654.755	5526.1
654.954	5524.05
655.153	5122.65
655.352	5317.21
655.551	5794.39
655.749	5233.24
655.948	5300.83
656.147	5419.61
656.346	5599.83
656.545	5470.81
656.743	5372.5
656.942	5345.88
657.141	5640.79
657.34	5407.32
657.538	5257.82
657.737	5292.63
657.936	5411.42
658.135	5687.89
658.333	5294.68
658.532	5315.16
658.731	5984.85
658.929	5872.21
659.128	5663.32
659.326	5397.08
659.525	5861.97
659.724	5587.54
659.922	5012.06
660.121	5214.81
660.319	5626.45
660.518	5456.47
660.716	5257.82
660.915	5448.28
661.113	6007.38
661.312	5354.07
661.51	5397.08
661.709	5544.53
661.907	5964.37
662.105	6179.4
662.304	5544.53
662.502	5567.06
662.701	6113.87
662.899	5802.58
663.097	5816.91
663.296	5407.32
663.494	6277.71
663.692	6091.34
663.891	5681.75
664.089	5433.94
664.287	5927.5
664.485	6132.3
664.684	5575.25
664.882	5710.42
665.08	5911.12
665.278	5790.29
665.476	5382.74
665.675	6083.15
665.873	6214.22
666.071	5995.09
666.269	5599.83
666.467	5929.55
666.665	5980.75
666.863	5917.26
667.061	5780.05
667.259	5700.18
667.457	5952.08
667.655	6060.62
667.853	5646.93
668.051	5724.76
668.249	5765.71
668.447	6240.84
668.645	5382.74
668.843	5884.5
669.041	6066.77
669.239	5868.11
669.437	5904.98
669.635	5962.32
669.833	5808.72
670.031	6093.39
670.229	5911.12
670.426	5952.08
670.624	5982.8
670.822	5993.04
671.02	5771.86
671.218	6072.91
671.415	5812.82
671.613	6124.11
671.811	5974.61
672.009	5911.12
672.206	6337.1
672.404	6187.6
672.602	6154.83
672.799	6013.52
672.997	6259.28
673.195	6468.17
673.392	6031.95
673.59	5821.01
673.788	6206.03
673.985	5571.16
674.183	6089.29
674.38	5999.18
674.578	6386.25
674.775	5939.79
674.973	5771.86
675.17	5855.83
675.368	6328.91
675.565	6478.41
675.763	5759.57
675.96	6005.33
676.158	6513.22
676.355	6099.53
676.553	6189.64
676.75	6034
676.947	6134.35
677.145	6142.54
677.342	6142.54
677.539	6255.18
677.737	6365.77
677.934	6806.08
678.131	6414.92
678.329	6146.64
678.526	6783.56
678.723	6709.83
678.92	6228.56
679.118	6001.23
679.315	5978.7
679.512	6615.62
679.709	6087.25
679.906	6189.64
680.104	6627.91
680.301	6398.54
680.498	6117.97
680.695	5927.5
680.892	6169.16
681.089	6316.62
681.286	6181.45
681.483	5933.65
681.68	6591.05
681.877	6644.29
682.075	6269.51
682.272	6261.32
682.469	6427.21
682.665	6347.34
682.862	6230.6
683.059	5974.61
683.256	6425.16
683.453	6197.84
683.65	6222.41
683.847	6107.73
684.044	6447.69
684.241	6124.11
684.438	6316.62
684.635	6058.57
684.831	6853.19
685.028	6945.34
685.225	6087.25
685.422	6421.06
685.619	6421.06
685.815	6333
686.012	6419.02
686.209	6363.72
686.405	6171.21
686.602	6525.51
686.799	5952.08
686.996	6046.29
687.192	6224.46
687.389	6855.23
687.586	6341.19
687.782	6253.13
687.979	6715.97
688.175	6713.92
688.372	6212.17
688.568	6376.01
688.765	6312.52
688.962	6750.79
689.158	6279.75
689.355	5941.84
689.551	6840.9
689.748	6376.01
689.944	6304.33
690.14	6175.31
690.337	6672.96
690.533	6509.13
690.73	6343.24
690.926	6402.63
691.123	6607.43
691.319	6480.46
691.515	6238.8
691.712	6505.03
691.908	6695.49
692.104	6642.25
692.301	6466.12
692.497	6158.92
692.693	6920.77
692.889	6758.98
693.086	6386.25
693.282	6187.6
693.478	6748.74
693.674	6990.4
693.87	6466.12
694.067	6273.61
694.263	6769.22
694.459	6574.66
694.655	6654.53
694.851	6453.83
695.047	6722.12
695.243	6771.27
695.439	6601.29
695.635	6429.26
695.831	6863.43
696.027	6574.66
696.224	6384.2
696.42	6851.14
696.615	7045.7
696.811	6797.89
697.007	6343.24
697.203	6525.51
697.399	6627.91
697.595	6949.44
697.791	6478.41
697.987	6568.52
698.183	6369.87
698.379	6435.4
698.575	6541.89
698.77	6550.09
698.966	6783.56
699.162	7043.65
699.358	6451.78
699.554	6476.36
699.749	7002.69
699.945	7062.08
700.141	6433.35
700.337	6550.09
700.532	6699.59
700.728	6505.03
700.924	6519.37
701.119	6425.16
701.315	6763.08
701.511	6738.5
701.706	6695.49
701.902	6249.04
702.097	6730.31
702.293	6806.08
702.489	6648.39
702.684	6619.72
702.88	6730.31
703.075	6709.83
703.271	6597.19
703.466	6509.13
703.662	6746.69
703.857	6840.9
704.053	6543.94
704.248	6734.4
704.443	7131.71
704.639	7017.02
704.834	6611.53
705.03	6539.85
705.225	7066.17
705.42	7051.84
705.616	6715.97
705.811	6308.43
706.006	6847.04
706.202	6808.13
706.397	6591.05
706.592	6500.94
706.787	6832.71
706.983	7004.74
707.178	6832.71
707.373	6619.72
707.568	7191.1
707.763	7066.17
707.959	6801.99
708.154	6658.63
708.349	6918.72
708.544	7252.54
708.739	6951.49
708.934	6781.51
709.129	7221.82
709.324	7330.36
709.519	6718.02
709.714	6603.33
709.909	7066.17
710.104	7191.1
710.299	6701.64
710.494	6572.61
710.689	7033.41
710.884	6871.62
711.079	6875.71
711.274	7033.41
711.469	7187
711.664	6996.54
711.859	6777.41
712.054	6900.29
712.249	6875.71
712.443	7326.27
712.638	6662.72
712.833	6715.97
713.028	7000.64
713.223	7035.46
713.417	7047.74
713.612	6791.75
713.807	7248.44
714.002	7692.85
714.196	6976.06
714.391	6648.39
714.586	7205.44
714.78	6996.54
714.975	6824.51
715.17	6828.61
715.364	7021.12
715.559	7344.7
715.754	6414.92
715.948	6779.46
716.143	7354.94
716.337	7168.57
716.532	7057.98
716.726	6754.88
716.921	7111.23
717.115	7569.98
717.31	6720.07
717.504	7459.38
717.699	7012.93
717.893	7187
718.088	6869.57
718.282	6769.22
718.476	7170.62
718.671	7074.37
718.865	6576.71
719.059	6873.67
719.254	7012.93
719.448	7514.68
719.642	8174.13
719.837	6572.61
720.031	7285.31
720.225	7234.11
720.419	6967.87
720.614	6787.65
720.808	7445.05
721.002	6869.57
721.196	6910.53
721.39	6656.58
721.585	7313.98
721.779	7211.58
721.973	6849.09
722.167	6500.94
722.361	7031.36
722.555	7367.23
722.749	6851.14
722.943	6898.24
723.137	6787.65
723.331	7240.25
723.525	6996.54
723.719	6918.72
723.913	7270.97
724.107	7434.81
724.301	6586.95
724.495	6806.08
724.689	7572.02
724.883	7486.01
725.077	6980.16
725.271	7004.74
725.465	7420.47
725.659	7254.59
725.853	6877.76
726.046	6636.1
726.24	6920.77
726.434	7256.64
726.628	7029.31
726.822	6976.06
727.015	7477.82
727.209	7447.1
727.403	6861.38
727.596	6900.29
727.79	7371.32
727.984	7430.71
728.177	7043.65
728.371	7230.01
728.565	7397.95
728.758	6922.82
728.952	6824.51
729.146	6851.14
729.339	7545.4
729.533	7060.03
729.726	6951.49
729.92	6933.06
730.113	7639.61
730.307	7316.03
730.5	7047.74
730.694	6883.91
730.887	7098.94
731.081	7576.12
731.274	7010.88
731.468	7166.53
731.661	7248.44
731.854	7240.25
732.048	6996.54
732.241	6838.85
732.435	7012.93
732.628	7385.66
732.821	7293.5
733.014	7121.47
733.208	7070.27
733.401	7561.78
733.594	6922.82
733.788	6931.01
733.981	7574.07
734.174	7465.53
734.367	7068.22
734.56	7201.34
734.754	7555.64
734.947	7436.86
735.14	6963.78
735.333	7133.76
735.526	7426.62
735.719	7236.16
735.912	7111.23
736.105	7148.09
736.298	7189.05
736.491	7307.84
736.684	7060.03
736.877	7199.29
737.07	7500.34
737.263	7772.72
737.456	7141.95
737.649	7107.13
737.842	7270.97
738.035	7410.23
738.228	7057.98
738.421	7486.01
738.614	7604.79
738.807	7588.41
739	6990.4
739.192	7045.7
739.385	7483.96
739.578	7623.22
739.771	7518.78
739.964	7270.97
740.156	7655.99
740.349	7305.79
740.542	7303.74
740.735	7162.43
740.927	7172.67
741.12	7287.36
741.313	7066.17
741.505	7428.67
741.698	7479.86
741.891	7553.59
742.083	7293.5
742.276	7156.29
742.468	7819.83
742.661	7516.73
742.854	7176.77
743.046	7189.05
743.239	7985.71
743.431	7463.48
743.624	7205.44
743.816	6947.39
744.009	7373.37
744.201	7787.06
744.393	7504.44
744.586	6982.21
744.778	7780.92
744.971	7469.62
745.163	7285.31
745.355	7197.24
745.548	7576.12
745.74	7402.04
745.932	7332.41
746.125	7332.41
746.317	8194.61
746.509	7535.16
746.702	7365.18
746.894	7252.54
747.086	7504.44
747.278	7791.16
747.471	7594.55
747.663	7184.96
747.855	7694.9
748.047	8053.3
748.239	7381.56
748.431	7209.53
748.623	8008.24
748.815	7809.59
749.008	7180.86
749.2	7309.88
749.392	7754.29
749.584	7649.85
749.776	7338.55
749.968	7483.96
750.16	8069.68
750.352	7655.99
750.544	7422.52
750.736	7406.14
750.928	7672.37
751.12	7488.06
751.311	7332.41
751.503	7471.67
751.695	7672.37
751.887	7555.64
752.079	7174.72
752.271	7344.7
752.463	8288.81
752.654	7723.57
752.846	7393.85
753.038	7291.45
753.23	7504.44
753.421	7658.04
753.613	7252.54
753.805	7793.2
753.997	7842.35
754.188	7959.09
754.38	7273.02
754.572	7361.08
754.763	7760.44
754.955	7836.21
755.146	7365.18
755.338	7436.86
755.53	7686.71
755.721	7627.32
755.913	7135.81
756.104	7074.37
756.296	7569.98
756.487	7891.51
756.679	7332.41
756.87	7258.68
757.062	7385.66
757.253	7651.89
757.445	7287.36
757.636	7524.92
757.827	7588.41
758.019	8221.23
758.21	7111.23
758.401	7547.45
758.593	7899.7
758.784	7950.9
758.975	7127.61
759.167	7375.42
759.358	7488.06
759.549	7799.35
759.74	7332.41
759.932	7119.42
760.123	7834.16
760.314	7447.1
760.505	7365.18
760.696	7219.77
760.888	7967.28
761.079	7270.97
761.27	7094.85
761.461	6935.1
761.652	8028.72
761.843	7453.24
762.034	7342.65
762.225	7639.61
762.416	7574.07
762.607	7424.57
762.798	7264.83
762.989	6978.11
763.18	8223.28
763.371	7133.76
763.562	7119.42
763.753	7232.06
763.944	7594.55
764.135	7699
764.326	7408.19
764.517	7211.58
764.708	7508.54
764.899	7567.93
765.089	7174.72
765.28	7062.08
765.471	7481.91
765.662	7418.43
765.853	7094.85
766.043	7156.29
766.234	7694.9
766.425	7621.17
766.615	7340.6
766.806	7019.07
766.997	7590.45
767.187	7510.58
767.378	7156.29
767.569	6971.97
767.759	7699
767.95	7285.31
768.141	7375.42
768.331	7270.97
768.522	7324.22
768.712	7526.97
768.903	7193.15
769.093	7000.64
769.284	7756.34
769.474	7408.19
769.665	7139.9
769.855	6926.91
770.046	7469.62
770.236	7250.49
770.426	7258.68
770.617	6914.63
770.807	7533.11
770.998	7486.01
771.188	7270.97
771.378	7205.44
771.569	7512.63
771.759	7547.45
771.949	7072.32
772.139	7035.46
772.33	7356.99
772.52	7791.16
772.71	7313.98
772.9	6830.66
773.09	7780.92
773.281	7756.34
773.471	7012.93
773.661	6892.1
773.851	7565.88
774.041	7254.59
774.231	7082.56
774.421	7256.64
774.611	7754.29
774.802	7299.64
774.992	7215.68
775.182	7127.61
775.372	7303.74
775.562	7518.78
775.752	7289.4
775.942	7045.7
776.131	7725.62
776.321	7270.97
776.511	7057.98
776.701	7033.41
776.891	7488.06
777.081	7047.74
777.271	7144
777.461	6904.39
777.651	7395.9
777.84	7590.45
778.03	7279.16
778.22	7137.85
778.41	7496.25
778.599	7115.33
778.789	7033.41
778.979	7246.4
779.169	7256.64
779.358	7156.29
779.548	7221.82
779.738	6824.51
779.927	7199.29
780.117	7170.62
780.307	6933.06
780.496	6689.35
780.686	7338.55
780.875	7791.16
781.065	7023.17
781.254	7023.17
781.444	7156.29
781.633	7213.63
781.823	6877.76
782.012	7012.93
782.202	6910.53
782.391	7320.12
782.581	6926.91
782.77	7246.4
782.96	7492.15
783.149	7213.63
783.338	6857.28
783.528	6847.04
783.717	7352.89
783.906	7342.65
784.096	7168.57
784.285	6740.55
784.474	7103.04
784.663	7064.13
784.853	7006.78
785.042	7246.4
785.231	7156.29
785.42	7334.46
785.61	6869.57
785.799	6728.26
785.988	7154.24
786.177	7057.98
786.366	6826.56
786.555	7119.42
786.744	7256.64
786.933	7123.52
787.122	6799.94
787.312	6697.54
787.501	6935.1
787.69	7238.2
787.879	6828.61
788.068	6920.77
788.257	6910.53
788.445	7047.74
788.634	6775.36
788.823	6691.4
789.012	7752.24
789.201	7447.1
789.39	6806.08
789.579	6699.59
789.768	7164.48
789.957	7107.13
790.145	6828.61
790.334	6619.72
790.523	6881.86
790.712	7109.18
790.9	6945.34
791.089	6738.5
791.278	7377.47
791.467	7361.08
791.655	7213.63
791.844	7172.67
792.033	6801.99
792.221	6967.87
792.41	6871.62
792.599	6564.42
792.787	7240.25
792.976	7412.28
793.164	6797.89
793.353	6629.96
793.541	7107.13
793.73	7160.38
793.918	6857.28
794.107	6822.47
794.295	6996.54
794.484	7064.13
794.672	6812.23
794.861	6861.38
795.049	7195.2
795.238	7469.62
795.426	6627.91
795.614	6818.37
795.803	7047.74
795.991	7221.82
796.179	6672.96
796.368	6732.36
796.556	7340.6
796.744	6838.85
796.932	6820.42
797.121	6623.81
797.309	6933.06
797.497	7363.13
797.685	6863.43
797.874	6484.55
798.062	7172.67
798.25	7176.77
798.438	6560.33
798.626	6591.05
798.814	7225.92
799.002	7680.57
799.19	6959.68
799.378	6810.18
799.566	7330.36
799.755	7330.36
799.943	6877.76
800.131	6742.6
800.318	7219.77
800.506	7062.08
800.694	6844.99
800.882	6885.95
801.07	7459.38
801.258	7070.27
801.446	6779.46
801.634	6799.94
801.822	7100.99
802.01	7010.88
802.197	6756.93
802.385	6914.63
802.573	7096.89
802.761	6900.29
802.949	6926.91
803.136	6656.58
803.324	7336.51
803.512	7107.13
803.699	7041.6
803.887	6863.43
804.075	7506.49
804.262	7150.14
804.45	6857.28
804.638	7014.98
804.825	7080.51
805.013	6943.3
805.201	7148.09
805.388	6691.4
805.576	7453.24
805.763	7832.12
805.951	6781.51
806.138	7268.92
806.326	7760.44
806.513	7412.28
806.701	6838.85
806.888	7033.41
807.075	7522.87
807.263	7774.77
807.45	6726.21
807.638	7127.61
807.825	7815.73
808.012	7649.85
808.2	7154.24
808.387	7488.06
808.574	7619.13
808.761	7778.87
808.949	7260.73
809.136	7221.82
809.323	7318.07
809.51	7438.91
809.698	7535.16
809.885	7342.65
810.072	7375.42
810.259	7639.61
810.446	7250.49
810.633	7309.88
810.82	7987.76
811.008	7950.9
811.195	7563.83
811.382	7223.87
811.569	7688.76
811.756	7363.13
811.943	7453.24
812.13	7385.66
812.317	7350.84
812.504	7524.92
812.691	7293.5
812.878	7535.16
813.064	7905.84
813.251	7813.68
813.438	7234.11
813.625	7477.82
813.812	7508.54
813.999	7514.68
814.186	7406.14
814.372	7291.45
814.559	7463.48
814.746	7893.55
814.933	7270.97
815.12	7463.48
815.306	7375.42
815.493	7475.77
815.68	7385.66
815.866	7254.59
816.053	7752.24
816.24	7954.99
816.426	7518.78
816.613	7232.06
816.799	7877.17
816.986	7963.19
817.173	7293.5
817.359	7225.92
817.546	7625.27
817.732	7242.3
817.919	7180.86
818.105	7557.69
818.292	7551.54
818.478	7719.48
818.665	7492.15
818.851	7244.35
819.037	8196.65
819.224	7612.98
819.41	7141.95
819.597	7164.48
819.783	8129.07
819.969	7795.25
820.156	7459.38
820.342	7328.31
820.528	8360.49
820.714	7504.44
820.901	7598.65
821.087	7406.14
821.273	8057.39
821.459	7496.25
821.646	7445.05
821.832	7352.89
822.018	7739.96
822.204	7580.21
822.39	7477.82
822.576	7174.72
822.762	7707.19
822.948	7764.53
823.134	7391.8
823.32	7369.27
823.507	7203.39
823.693	7705.14
823.879	7830.07
824.065	7111.23
824.25	7615.03
824.436	7326.27
824.622	7328.31
824.808	7463.48
824.994	7430.71
825.18	7311.93
825.366	7141.95
825.552	7264.83
825.738	7469.62
825.923	7920.18
826.109	7451.19
826.295	7074.37
826.481	7418.43
826.667	7524.92
826.852	7299.64
827.038	7270.97
827.224	7889.46
827.409	7828.02
827.595	7203.39
827.781	7502.39
827.966	7803.44
828.152	7606.84
828.338	7105.09
828.523	7064.13
828.709	7144
828.894	7676.47
829.08	7109.18
829.266	7246.4
829.451	7365.18
829.637	7752.24
829.822	7268.92
830.008	7234.11
830.193	7785.01
830.378	7625.27
830.564	7289.4
830.749	7168.57
830.935	7699
831.12	7414.33
831.305	6916.67
831.491	7158.33
831.676	7119.42
831.861	7588.41
832.047	7156.29
832.232	6840.9
832.417	7426.62
832.602	7412.28
832.788	7082.56
832.973	7078.46
833.158	7324.22
833.343	7318.07
833.528	7088.7
833.714	7049.79
833.899	7447.1
834.084	7746.1
834.269	7074.37
834.454	7144
834.639	7600.69
834.824	7324.22
835.009	7246.4
835.194	7279.16
835.379	7504.44
835.564	7746.1
835.749	7107.13
835.934	6879.81
836.119	7350.84
836.304	7230.01
836.489	7010.88
836.674	7232.06
836.859	6898.24
837.044	7516.73
837.228	6883.91
837.413	6885.95
837.598	7383.61
837.783	7426.62
837.968	6998.59
838.152	6994.5
838.337	6656.58
838.522	7453.24
838.707	7369.27
838.891	7041.6
839.076	7221.82
839.261	7492.15
839.445	6861.38
839.63	7103.04
839.815	7432.76
839.999	6957.63
840.184	6941.25
840.368	6986.3
840.553	7443
840.737	7320.12
840.922	6996.54
841.106	6902.34
841.291	6928.96
841.475	7092.8
841.66	6732.36
841.844	7006.78
842.029	7787.06
842.213	6898.24
842.397	6758.98
842.582	6828.61
842.766	7426.62
842.951	7258.68
843.135	6752.84
843.319	6816.32
843.504	7096.89
843.688	7393.85
843.872	6771.27
844.056	6871.62
844.241	7383.61
844.425	6910.53
844.609	7074.37
844.793	6699.59
844.977	7221.82
845.161	7090.75
845.346	6601.29
845.53	6828.61
845.714	7084.61
845.898	7270.97
846.082	6701.64
846.266	6771.27
846.45	6996.54
846.634	7023.17
846.818	6836.8
847.002	6902.34
847.186	7230.01
847.37	6736.45
847.554	6668.87
847.738	6746.69
847.922	7057.98
848.106	7195.2
848.29	6756.93
848.473	6617.67
848.657	7270.97
848.841	6810.18
849.025	6685.25
849.209	6410.82
849.392	7135.81
849.576	6826.56
849.76	6402.63
849.944	6877.76
850.127	7299.64
850.311	6484.55
850.495	6394.44
850.678	6505.03
850.862	7225.92
851.046	7254.59
851.229	6808.13
851.413	6550.09
851.596	6828.61
851.78	6830.66
851.964	6853.19
852.147	6623.81
852.331	7449.14
852.514	7189.05
852.698	6824.51
852.881	6314.57
853.065	7111.23
853.248	6824.51
853.431	6791.75
853.615	6586.95
853.798	7383.61
853.982	6982.21
854.165	6591.05
854.348	6586.95
854.532	6625.86
854.715	6550.09
854.898	6459.98
855.081	6451.78
855.265	7049.79
855.448	6984.26
855.631	6357.58
855.814	6384.2
855.997	7117.37
856.181	6849.09
856.364	6543.94
856.547	6326.86
856.73	6640.2
856.913	6707.78
857.096	6398.54
857.279	6617.67
857.462	6496.84
857.645	7002.69
857.828	6568.52
858.011	6490.7
858.194	6623.81
858.377	6937.15
858.56	6330.95
858.743	6603.33
858.926	6513.22
859.109	6902.34
859.292	6292.04
859.475	6206.03
859.658	6984.26
859.841	6804.03
860.023	6072.91
860.206	6283.85
860.389	6740.55
860.572	6945.34
860.755	6324.81
860.937	6419.02
861.12	6539.85
861.303	6328.91
861.486	6275.66
861.668	6144.59
861.851	6689.35
862.034	6881.86
862.216	6353.48
862.399	6228.56
862.581	6722.12
862.764	7002.69
862.947	6433.35
863.129	6150.73
863.312	6179.4
863.494	6902.34
863.677	6632.01
863.859	6046.29
864.042	6918.72
864.224	6701.64
864.406	6453.83
864.589	5890.64
864.771	6414.92
864.954	6087.25
865.136	6085.2
865.318	5872.21
865.501	6627.91
865.683	5968.46
865.865	6095.44
866.048	6126.16
866.23	6500.94
866.412	6378.06
866.594	6042.19
866.777	6289.99
866.959	6558.28
867.141	6246.99
867.323	6353.48
867.505	6333
867.687	6509.13
867.869	6429.26
868.052	5861.97
868.234	5980.75
868.416	6617.67
868.598	6619.72
868.78	6095.44
868.962	6005.33
869.144	6472.26
869.326	6539.85
869.508	6042.19
869.69	5997.14
869.872	6052.43
870.054	6517.32
870.236	5872.21
870.417	5886.54
870.599	6160.97
870.781	6756.93
870.963	6058.57
871.145	5950.03
871.327	6079.05
871.508	6480.46
871.69	5896.78
871.872	5851.73
872.054	6275.66
872.235	6490.7
872.417	5935.7
872.599	5853.78
872.78	6566.47
872.962	6220.36
873.144	5923.41
873.325	6277.71
873.507	6685.25
873.689	6382.15
873.87	6001.23
874.052	6275.66
874.233	6361.67
874.415	6644.29
874.596	6222.41
874.778	5990.99
874.959	6419.02
875.141	6672.96
875.322	6062.67
875.503	5954.13
875.685	6468.17
875.866	5954.13
876.048	6060.62
876.229	5950.03
876.41	6242.89
876.592	6386.25
876.773	6070.86
876.954	5931.6
877.136	6660.68
877.317	6214.22
877.498	5966.42
877.679	6197.84
877.86	6564.42
878.042	6296.14
878.223	5823.06
878.404	6617.67
878.585	6488.65
878.766	6896.19
878.947	6607.43
879.128	6296.14
879.309	6603.33
879.49	6558.28
879.672	6109.77
879.853	6218.32
880.034	6138.44
880.215	6404.68
880.396	6216.27
880.576	6326.86
880.757	6335.05
880.938	6847.04
881.119	6122.06
881.3	6255.18
881.481	6378.06
881.662	7397.95
881.843	6267.47
882.023	6257.23
882.204	6697.54
882.385	6660.68
882.566	6316.62
882.747	6238.8
882.927	6691.4
883.108	6642.25
883.289	6396.49
883.469	6652.49
883.65	6558.28
883.831	6570.57
884.011	6492.74
884.192	6552.13
884.373	6943.3
884.553	7094.85
884.734	6668.87
884.914	6877.76
885.095	7498.3
885.275	7131.71
885.456	6879.81
885.636	6392.39
885.817	6861.38
885.997	6951.49
886.178	6527.56
886.358	6584.9
886.538	6916.67
886.719	7823.92
886.899	6564.42
887.08	6617.67
887.26	6918.72
887.44	6787.65
887.621	6509.13
887.801	6679.11
887.981	7615.03
888.161	7080.51
888.342	6668.87
888.522	6779.46
888.702	7387.71
888.882	7209.53
889.062	6873.67
889.242	6498.89
889.423	7291.45
889.603	7084.61
889.783	6795.84
889.963	6756.93
890.143	7242.3
890.323	7254.59
890.503	6806.08
890.683	6853.19
890.863	6986.3
891.043	6851.14
891.223	6851.14
891.403	6988.35
891.583	7160.38
891.763	6996.54
891.943	7086.65
892.122	6642.25
892.302	7023.17
892.482	6982.21
892.662	6736.45
892.842	6791.75
893.022	7021.12
893.201	6828.61
893.381	7055.93
893.561	6722.12
893.741	7281.21
893.92	7109.18
894.1	6873.67
894.28	6808.13
894.459	7373.37
894.639	7262.78
894.819	6836.8
894.998	6922.82
895.178	7344.7
895.357	7221.82
895.537	6758.98
895.716	6724.16
895.896	7053.89
896.075	7399.99
896.255	6978.11
896.434	6863.43
896.614	7406.14
896.793	7385.66
896.973	7017.02
897.152	6873.67
897.331	7115.33
897.511	7533.11
897.69	6853.19
897.87	6865.47
898.049	7477.82
898.228	7201.34
898.407	7045.7
898.587	7002.69
898.766	6707.78
898.945	7193.15
899.124	6982.21
899.304	6922.82
899.483	7365.18
899.662	7602.74
899.841	6738.5
900.02	6890.05
900.199	7311.93
900.378	7236.16
900.557	6652.49
900.737	6681.16
900.916	7172.67
901.095	7107.13
901.274	7017.02
901.453	6570.57
901.632	6875.71
901.811	6861.38
901.989	6722.12
902.168	6748.74
902.347	7365.18
902.526	6896.19
902.705	6720.07
902.884	6871.62
903.063	7332.41
903.242	7227.96
903.42	6570.57
903.599	6939.2
903.778	7221.82
903.957	7297.6
904.135	6873.67
904.314	6758.98
904.493	7041.6
904.672	7096.89
904.85	6564.42
905.029	6748.74
905.207	7031.36
905.386	7715.38
905.565	6412.87
905.743	6599.24
905.922	6808.13
906.1	7053.89
906.279	6562.37
906.457	6619.72
906.636	6857.28
906.814	6543.94
906.993	6689.35
907.171	6431.3
907.35	6928.96
907.528	6935.1
907.707	6724.16
907.885	6369.87
908.063	7227.96
908.242	6675.01
908.42	6535.75
908.598	6390.35
908.777	6853.19
908.955	6652.49
909.133	6562.37
909.311	6361.67
909.49	6570.57
909.668	6732.36
909.846	6570.57
910.024	6322.76
910.202	6711.88
910.38	6904.39
910.559	6222.41
910.737	6212.17
910.915	6797.89
911.093	6736.45
911.271	6339.15
911.449	6453.83
911.627	6638.15
911.805	6904.39
911.983	6355.53
912.161	6111.82
912.339	6525.51
912.517	6666.82
912.695	6378.06
912.872	6142.54
913.05	6236.75
913.228	6505.03
913.406	6093.39
913.584	6126.16
913.762	6459.98
913.939	6199.88
914.117	6031.95
914.295	5866.07
914.473	6400.58
914.65	6642.25
914.828	6238.8
915.006	5833.3
915.184	6083.15
915.361	6339.15
915.539	6203.98
915.716	6289.99
915.894	6160.97
916.072	6521.42
916.249	6146.64
916.427	6203.98
916.604	6251.08
916.782	6273.61
916.959	5911.12
917.137	5837.39
917.314	6349.39
917.492	6296.14
917.669	5866.07
917.847	5853.78
918.024	6183.5
918.201	5909.07
918.379	6054.48
918.556	5921.36
918.733	6152.78
918.911	6001.23
919.088	6117.97
919.265	5759.57
919.442	6130.25
919.62	5894.74
919.797	5630.55
919.974	5542.49
920.151	5956.18
920.328	5888.59
920.506	5648.98
920.683	5896.78
920.86	5747.28
921.037	5728.85
921.214	5691.99
921.391	5505.62
921.568	6044.24
921.745	5581.4
921.922	5630.55
922.099	5423.7
922.276	6003.28
922.453	6031.95
922.63	5577.3
922.807	5571.16
922.984	5743.19
923.161	5476.95
923.338	5386.84
923.514	5472.86
923.691	5689.94
923.868	5696.08
924.045	5395.03
924.222	5413.46
924.399	5726.8
924.575	5790.29
924.752	5454.42
924.929	5333.59
925.105	5585.49
925.282	5331.55
925.459	5259.87
925.635	5266.01
925.812	5395.03
925.989	5225.05
926.165	5278.3
926.342	5102.17
926.518	5153.37
926.695	5472.86
926.871	4905.57
927.048	5022.3
927.224	5386.84
927.401	5259.87
927.577	5063.26
927.754	4786.79
927.93	5399.13
928.107	5331.55
928.283	4973.15
928.459	5167.71
928.636	5448.28
928.812	5124.7
928.988	4932.19
929.165	4711.01
929.341	5032.54
929.517	5091.93
929.693	5206.62
929.87	4612.71
930.046	5120.6
930.222	4846.18
930.398	4555.37
930.574	4655.72
930.751	5026.4
930.927	4872.8
931.103	4721.25
931.279	4700.77
931.455	4534.89
931.631	5014.11
931.807	4299.37
931.983	4438.63
932.159	4508.26
932.335	4692.58
932.511	4452.97
932.687	4377.19
932.863	4803.17
933.039	4547.17
933.215	4209.26
933.391	4104.81
933.566	4448.87
933.742	4625
933.918	4119.15
934.094	4074.09
934.27	4412.01
934.445	4440.68
934.621	4321.9
934.797	3936.88
934.973	4332.14
935.148	4473.45
935.324	3844.72
935.5	3676.79
935.675	4420.2
935.851	4285.03
936.027	3732.08
936.202	3811.95
936.378	3900.02
936.553	3908.21
936.729	4229.74
936.904	3617.4
937.08	3523.19
937.255	3656.31
937.431	3275.38
937.606	3160.7
937.782	3558
937.957	3574.39
938.133	3428.98
938.308	3060.35
938.483	3287.67
938.659	3060.35
938.834	3074.68
939.009	3162.75
939.185	3215.99
939.36	2896.51
939.535	2564.74
939.71	3019.39
939.886	3359.35
940.061	3007.1
940.236	2998.91
940.411	2765.44
940.586	3003
940.761	3003
940.937	2630.27
941.112	2622.08
941.287	2671.23
941.462	2755.2
941.637	2439.81
941.812	2511.49
941.987	2763.39
942.162	2732.67
942.337	2441.86
942.512	2366.09
942.687	2972.29
942.862	2644.61
943.037	2318.98
943.212	2118.28
943.386	2497.16
943.561	2544.26
943.736	2445.96
943.911	2515.59
944.086	2599.55
944.26	2542.21
944.435	2419.33
944.61	2251.4
944.785	2751.1
944.959	2914.94
945.134	2212.49
945.309	2165.39
945.483	2288.26
945.658	2511.49
945.833	1755.79
946.007	2138.76
946.182	2816.64
946.357	2142.86
946.531	2192.01
946.706	2271.88
946.88	2024.08
947.055	2382.47
947.229	2167.43
947.404	1997.45
947.578	2683.52
947.752	2536.07
947.927	2112.14
948.101	2122.38
948.276	2597.51
948.45	2419.33
948.624	2364.04
948.799	2093.71
948.973	2611.84
949.147	2101.9
949.321	2097.8
949.496	2278.02
949.67	2708.1
949.844	2304.65
950.018	2251.4
950.193	2081.42
950.367	2996.86
950.541	2333.32
950.715	2302.6
950.889	2413.19
951.063	2245.26
951.237	2687.62
951.411	2040.46
951.585	2056.84
951.759	2564.74
951.933	2382.47
952.107	2153.1
952.281	2361.99
952.455	2755.2
952.629	2622.08
952.803	2003.6
952.977	2194.06
953.151	2595.46
953.325	2484.87
953.499	2398.85
953.672	2163.34
953.846	2171.53
954.02	2374.28
954.194	2132.62
954.368	2093.71
954.541	2536.07
954.715	2312.84
954.889	2325.13
955.062	1962.64
955.236	2425.48
955.41	2206.34
955.583	2327.18
955.757	2019.98
955.93	2364.04
956.104	2105.99
956.278	2237.06
956.451	2181.77
956.625	2503.3
956.798	2914.94
956.972	2351.75
957.145	1931.92
957.319	2480.77
957.492	2486.92
957.665	2275.98
957.839	2118.28
958.012	2538.12
958.185	2255.5
958.359	2099.85
958.532	2384.52
958.705	2531.97
958.879	2450.05
959.052	2200.2
959.225	2101.9
959.398	2372.23
959.572	2529.92
959.745	2218.63
959.918	2259.59
960.091	2241.16
960.264	2407.05
960.438	1972.88
960.611	2065.04
960.784	2351.75
960.957	2185.87
961.13	2609.79
961.303	2032.27
961.476	2290.31
961.649	2630.27
961.822	1866.38
961.995	2034.32
962.168	2435.72
962.341	2345.61
962.514	2159.24
962.686	2077.32
962.859	2386.57
963.032	2298.5
963.205	2116.23
963.378	1843.85
963.551	2491.01
963.723	2292.36
963.896	2134.67
964.069	2169.48
964.242	2214.54
964.414	2472.58
964.587	2112.14
964.76	2171.53
964.932	2380.42
965.105	2325.13
965.278	1946.25
965.45	1958.54
965.623	2374.28
965.795	2441.86
965.968	2062.99
966.14	2079.37
966.313	2224.78
966.485	2253.45
966.658	2040.46
966.83	1991.31
967.003	2536.07
967.175	2470.53
967.348	1985.16
967.52	2071.18
967.692	2552.45
967.865	2407.05
968.037	2032.27
968.209	2226.82
968.382	2388.61
968.554	2441.86
968.726	1970.83
968.898	1993.36
969.071	2364.04
969.243	2425.48
969.415	2056.84
969.587	2108.04
969.759	2677.38
969.932	2341.51
970.104	1999.5
970.276	1778.32
970.448	2030.22
970.62	2142.86
970.792	2079.37
970.964	1972.88
971.136	2757.25
971.308	2241.16
971.48	1936.01
971.652	1858.19
971.824	2634.37
971.996	2192.01
972.168	2046.6
972.339	1948.3
972.511	2335.37
972.683	2157.19
972.855	2196.11
973.027	1925.77
973.199	2151.05
973.37	2314.89
973.542	2060.94
973.714	1999.5
973.886	2155.15
974.057	2376.33
974.229	1874.57
974.401	1905.29
974.572	2128.52
974.744	1698.45
974.915	1878.67
975.087	1923.73
975.259	2413.19
975.43	2003.6
975.602	1839.76
975.773	1731.22
975.945	1829.52
976.116	2294.41
976.288	1743.5
976.459	2038.41
976.63	2118.28
976.802	2249.35
976.973	1806.99
977.145	2009.74
977.316	2538.12
977.487	2480.77
977.659	1958.54
977.83	1671.83
978.001	2310.79
978.172	1956.49
978.344	1880.72
978.515	1884.81
978.686	1964.68
978.857	2380.42
979.028	1893.01
979.2	1766.03
979.371	2275.98
979.542	2024.08
979.713	1936.01
979.884	1458.84
980.055	1864.33
980.226	1929.87
980.397	1700.5
980.568	1624.72
980.739	2208.39
980.91	2003.6
981.081	1901.2
981.252	1667.73
981.423	2124.43
981.594	2218.63
981.765	1585.81
981.936	1776.27
982.106	1884.81
982.277	2165.39
982.448	1677.97
982.619	1843.85
982.79	1915.53
982.96	2142.86
983.131	1827.47
983.302	1411.73
983.472	1815.18
983.643	2060.94
983.814	1921.68
983.984	1647.25
984.155	1766.03
984.326	2167.43
984.496	1794.7
984.667	1667.73
984.837	1774.22
985.008	2214.54
985.178	1751.7
985.349	1657.49
985.519	1733.26
985.69	1692.3
985.86	1647.25
986.031	1630.87
986.201	1858.19
986.371	2015.88
986.542	1573.52
986.712	1428.12
986.882	2028.17
987.053	2013.84
987.223	1483.41
987.393	1727.12
987.563	1630.87
987.734	2054.8
987.904	1913.49
988.074	1544.85
988.244	1917.58
988.414	1671.83
988.585	1530.52
988.755	1757.84
988.925	1837.71
989.095	2163.34
989.265	1555.09
989.435	1725.07
989.605	1944.21
989.775	1940.11
989.945	1868.43
990.115	1391.25
990.285	1809.04
990.455	1829.52
990.625	1606.29
990.795	1381.01
990.965	1960.59
991.134	1538.71
991.304	1491.6
991.474	1434.26
991.644	1741.46
991.814	2105.99
991.984	1331.86
992.153	1489.56
992.323	1708.69
992.493	1766.03
992.662	1348.25
992.832	1624.72
993.002	1706.64
993.171	1753.74
993.341	1262.23
993.511	1526.42
993.68	1626.77
993.85	1792.66
994.019	1278.62
994.189	1305.24
994.358	1817.23
994.528	1565.33
994.697	1147.55
994.867	1366.68
995.036	1806.99
995.206	1565.33
995.375	1276.57
995.544	1587.86
995.714	1737.36
995.883	1542.8
996.052	1544.85
996.222	1057.43
996.391	2128.52
996.56	1665.68
996.73	1280.66
996.899	1127.07
997.068	1966.73
997.237	1663.63
997.406	1278.62
997.576	1247.9
997.745	1622.67
997.914	1602.19
998.083	1114.78
998.252	1118.87
998.421	1456.79
998.59	1381.01
998.759	1118.87
998.928	1170.07
999.097	1913.49
999.266	1559.19
999.435	1510.04
999.604	1114.78
999.773	2032.27
999.942	1426.07
1000.111	1219.22
1000.28	1159.83
1000.448	1317.53
1000.617	1260.18
1000.786	1321.62
1000.955	993.95
1001.124	1616.53
1001.292	2151.05
1001.461	1172.12
1001.63	1112.73
1001.798	1958.54
1001.967	1774.22
1002.136	1086.11
1002.304	1036.95
1002.473	1530.52
1002.642	1487.51
1002.81	1116.83
1002.979	1077.91
1003.147	1684.11
1003.316	2015.88
1003.484	1096.35
1003.653	1088.15
1003.821	1751.7
1003.99	1413.78
1004.158	1249.94
1004.327	1223.32
1004.495	1477.27
1004.663	1192.6
1004.832	1192.6
1005	914.08
1005.168	1626.77
1005.337	1348.25
1005.505	922.27
1005.673	1270.42
1005.842	1489.56
1006.01	1479.32
1006.178	1020.57
1006.346	1069.72
1006.514	1407.64
1006.683	1641.11
1006.851	1041.05
1007.019	823.97
1007.187	1157.78
1007.355	1014.43
1007.523	776.86
1007.691	735.9
1007.859	1008.28
1008.027	1655.44
1008.195	1049.24
1008.363	758.43
1008.531	1507.99
1008.699	1098.39
1008.867	836.25
1009.035	926.36
1009.203	1587.86
1009.37	1270.42
1009.538	1004.19
1009.706	1331.86
1009.874	1301.14
1010.042	1223.32
1010.209	805.53
1010.377	909.98
1010.545	1421.97
1010.713	1235.61
1010.88	877.21
1011.048	987.8
1011.216	1266.33
1011.383	1530.52
1011.551	819.87
1011.718	744.1
1011.886	1456.79
1012.054	1251.99
1012.221	758.43
1012.389	787.1
1012.556	1075.87
1012.724	1575.57
1012.891	1069.72
1013.058	631.46
1013.226	1440.4
1013.393	1385.11
1013.561	604.83
1013.728	715.42
1013.895	1403.54
1014.063	1223.32
1014.23	690.85
1014.397	799.39
1014.565	1327.77
1014.732	1022.62
1014.899	811.68
1015.066	641.7
1015.233	1184.41
1015.401	1272.47
1015.568	891.55
1015.735	903.84
1015.902	1219.22
1016.069	1211.03
1016.236	750.24
1016.403	742.05
1016.57	950.94
1016.737	1356.44
1016.904	805.53
1017.071	664.22
1017.238	983.71
1017.405	1321.62
1017.572	713.38
1017.739	971.42
1017.906	1053.34
1018.073	1364.63
1018.24	703.14
1018.407	778.91
1018.573	1292.95
1018.74	901.79
1018.907	766.62
1019.074	606.88
1019.241	1231.51
1019.407	1043.1
1019.574	664.22
1019.741	479.91
1019.907	1200.79
1020.074	1137.31
1020.241	451.24
1020.407	537.25
1020.574	1096.35
1020.74	1155.74
1020.907	744.1
1021.073	504.48
1021.24	1532.56
1021.406	1292.95
1021.573	615.07
1021.739	719.52
1021.906	1303.19
1022.072	873.12
1022.239	750.24
1022.405	651.94
1022.571	1026.72
1022.738	866.97
1022.904	633.51
1023.07	807.58
1023.237	1002.14
1023.403	1184.41
1023.569	537.25
1023.735	613.03
1023.902	1069.72
1024.068	991.9
1024.234	500.39
1024.4	619.17
1024.566	975.52
1024.732	1045.15
1024.898	565.92
1025.065	395.94
1025.231	1014.43
1025.397	791.2
1025.563	594.59
1025.729	598.69
1025.895	451.24
1026.061	635.55
1026.227	348.84
1026.392	561.83
1026.558	1245.85
1026.724	930.46
1026.89	477.86
1027.056	651.94
1027.222	940.7
1027.388	848.54
1027.553	541.35
1027.719	479.91
1027.885	1342.1
1028.051	979.61
1028.216	369.32
1028.382	551.59
1028.548	977.56
1028.713	746.14
1028.879	447.14
1029.045	604.83
1029.21	1241.75
1029.376	1139.35
1029.541	576.16
1029.707	467.62
1029.873	1004.19
1030.038	1036.95
1030.204	451.24
1030.369	541.35
1030.534	1012.38
1030.7	633.51
1030.865	486.05
1031.031	455.33
1031.196	1049.24
1031.361	940.7
1031.527	424.61
1031.692	438.95
1031.857	424.61
1032.023	969.37
1032.188	361.13
1032.353	432.8
1032.518	1204.89
1032.684	922.27
1032.849	271.01
1033.014	391.84
1033.179	918.17
1033.344	920.22
1033.509	512.67
1033.674	463.52
1033.839	918.17
1034.004	946.84
1034.17	334.5
1034.335	242.34
1034.5	787.1
1034.664	576.16
1034.829	369.32
1034.994	420.52
1035.159	758.43
1035.324	832.16
1035.489	418.47
1035.654	342.69
1035.819	1149.59
1035.984	856.73
1036.148	484
1036.313	502.43
1036.478	1088.15
1036.643	684.7
1036.807	377.51
1036.972	260.77
1037.137	1098.39
1037.301	813.73
1037.466	148.14
1037.631	354.98
1037.795	1043.1
1037.96	815.77
1038.124	561.83
1038.289	324.26
1038.454	901.79
1038.618	946.84
1038.783	383.65
1038.947	406.18
1039.111	686.75
1039.276	586.4
1039.44	385.7
1039.605	754.34
1039.769	637.6
1039.933	694.94
1040.098	408.23
1040.262	574.11
1040.426	899.74
1040.591	899.74
1040.755	254.63
1040.919	365.22
1041.083	789.15
1041.248	619.17
1041.412	234.15
1041.576	209.58
1041.74	572.07
1041.904	756.38
1042.068	250.53
1042.232	285.35
1042.397	838.3
1042.561	721.57
1042.725	62.12
1042.889	443.04
1043.053	811.68
1043.217	715.42
1043.381	342.69
1043.544	84.65
1043.708	938.65
1043.872	443.04
1044.036	66.22
1044.2	176.81
1044.364	905.88
1044.528	973.47
1044.691	3170.94
1044.855	96.94
1045.019	830.11
1045.183	778.91
1045.346	219.82
1045.51	144.04
1045.674	762.53
1045.837	768.67
1046.001	223.91
1046.165	250.53
1046.328	1170.07
1046.492	694.94
1046.655	361.13
1046.819	352.93
1046.983	432.8
1047.146	713.38
1047.31	336.55
1047.473	-27.99
1047.636	598.69
1047.8	492.2
1047.963	129.7
1048.127	158.38
1048.29	410.28
