Data from Ink_Intensity_USB4F045381__67__00067.txt Node

Date: Mon Jul 17 10:35:15 EDT 2023
User: mmckonesweet
Spectrometer: USB4F04538
Trigger mode: 4
Integration Time (sec): 9.000000E-1
Scans to average: 1
Electric dark correction enabled: true
Nonlinearity correction enabled: false
Boxcar width: 0
XAxis mode: Wavelengths
Number of Pixels in Spectrum: 3648
>>>>>Begin Spectral Data<<<<<
345.52	-1027.91
345.736	-1027.91
345.952	-1027.91
346.168	-1046.34
346.384	-984.9
346.6	-98.13
346.816	-227.15
347.032	-163.67
347.248	196.78
347.464	-194.39
347.68	-126.8
347.896	143.53
348.112	377
348.328	-112.47
348.544	-79.7
348.76	-10.07
348.975	295.08
349.191	-139.09
349.407	-200.53
349.623	59.56
349.839	-16.21
350.055	-141.14
350.27	0.17
350.486	180.39
350.702	393.38
350.918	223.4
351.133	-196.43
351.349	131.24
351.565	452.77
351.781	-171.86
351.996	45.23
352.212	340.13
352.428	-59.22
352.644	-190.29
352.859	-171.86
353.075	297.13
353.291	133.29
353.506	-114.52
353.722	-235.35
353.938	-98.13
354.153	440.48
354.369	84.14
354.584	-200.53
354.8	323.75
355.016	-276.31
355.231	-221.01
355.447	-75.6
355.662	211.11
355.878	870.56
356.093	-321.36
356.309	-28.5
356.524	-247.63
356.74	215.21
356.955	-126.8
357.171	-85.84
357.386	121
357.602	-200.53
357.817	-81.75
358.033	-135
358.248	389.28
358.464	196.78
358.679	-137.04
358.895	-304.98
359.11	8.36
359.325	303.27
359.541	-30.55
359.756	4.27
359.972	-300.88
360.187	155.82
360.402	-210.77
360.618	-202.58
360.833	985.24
361.048	106.67
361.264	-110.42
361.479	-71.51
361.694	47.27
361.909	223.4
362.125	-188.24
362.34	-73.56
362.555	239.78
362.77	57.51
362.986	-315.22
363.201	-116.56
363.416	207.02
363.631	-12.12
363.847	-198.48
364.062	-184.15
364.277	276.65
364.492	100.52
364.707	-137.04
364.922	-347.98
365.138	284.84
365.353	297.13
365.568	-278.35
365.783	-130.9
365.998	112.81
366.213	571.55
366.428	-243.54
366.643	22.7
366.858	311.46
367.073	176.3
367.288	-79.7
367.503	-259.92
367.718	110.76
367.933	313.51
368.148	-292.69
368.363	-108.37
368.578	77.99
368.793	381.09
369.008	-102.23
369.223	-202.58
369.438	209.06
369.653	372.9
369.868	-278.35
370.083	-241.49
370.298	98.47
370.513	352.42
370.728	63.66
370.943	-114.52
371.157	-110.42
371.372	487.59
371.587	-317.26
371.802	-327.5
372.017	69.8
372.232	440.48
372.446	-122.71
372.661	-321.36
372.876	338.09
373.091	123.05
373.306	-91.99
373.52	-223.06
373.735	-186.19
373.95	325.8
374.165	-110.42
374.379	-128.85
374.594	-94.04
374.809	106.67
375.023	61.61
375.238	-235.35
375.453	231.59
375.667	-335.7
375.882	-147.28
376.097	-202.58
376.311	20.65
376.526	-89.94
376.741	-130.9
376.955	41.13
377.17	589.99
377.384	540.83
377.599	-98.13
377.813	-241.49
378.028	495.78
378.242	139.43
378.457	-124.76
378.672	-386.9
378.886	96.43
379.101	-48.98
379.315	-350.03
379.53	-169.81
379.744	180.39
379.958	264.36
380.173	-163.67
380.387	-141.14
380.602	114.86
380.816	10.41
381.031	-251.73
381.245	-130.9
381.459	161.96
381.674	2758.78
381.888	-251.73
382.103	71.85
382.317	-145.24
382.531	450.72
382.746	41.13
382.96	-221.01
383.174	-118.61
383.388	471.2
383.603	41.13
383.817	-257.87
384.031	190.63
384.246	477.35
384.46	-48.98
384.674	360.61
384.888	90.28
385.103	94.38
385.317	-221.01
385.531	-38.74
385.745	395.43
385.959	299.17
386.174	-200.53
386.388	-241.49
386.602	28.84
386.816	-122.71
387.03	-126.8
387.244	-190.29
387.458	-26.45
387.672	303.27
387.887	-223.06
388.101	-286.54
388.315	333.99
388.529	211.11
388.743	-188.24
388.957	-272.21
389.171	254.12
389.385	-180.05
389.599	-94.04
389.813	39.08
390.027	155.82
390.241	639.14
390.455	-104.28
390.669	-98.13
390.883	-81.75
391.097	391.33
391.311	71.85
391.525	-145.24
391.738	231.59
391.952	159.91
392.166	-147.28
392.38	-192.34
392.594	284.84
392.808	309.41
393.022	-38.74
393.236	-98.13
393.449	290.98
393.663	209.06
393.877	-225.11
394.091	-106.32
394.305	-83.8
394.518	-55.12
394.732	-261.97
394.946	-171.86
395.16	434.34
395.373	151.72
395.587	-190.29
395.801	-163.67
396.015	336.04
396.228	145.58
396.442	-264.02
396.656	-302.93
396.869	311.46
397.083	463.01
397.297	-89.94
397.51	-200.53
397.724	405.67
397.938	116.9
398.151	-333.65
398.365	-282.45
398.578	207.02
398.792	362.66
399.005	-98.13
399.219	-91.99
399.433	86.19
399.646	221.35
399.86	28.84
400.073	57.51
400.287	209.06
400.5	-59.22
400.714	45.23
400.927	-24.4
401.141	284.84
401.354	1136.79
401.567	159.91
401.781	-284.5
401.994	270.5
402.208	587.94
402.421	-147.28
402.635	-135
402.848	49.32
403.061	282.79
403.275	-32.6
403.488	-186.19
403.701	422.05
403.915	327.85
404.128	-22.36
404.341	-167.76
404.555	180.39
404.768	0.17
404.981	49.32
405.195	-184.15
405.408	417.96
405.621	231.59
405.834	24.75
406.048	-151.38
406.261	438.44
406.474	508.07
406.687	-241.49
406.9	-28.5
407.114	-20.31
407.327	82.09
407.54	-364.37
407.753	-317.26
407.966	-65.36
408.179	299.17
408.392	-192.34
408.605	-302.93
408.819	219.3
409.032	125.1
409.245	-149.33
409.458	69.8
409.671	270.5
409.884	270.5
410.097	-241.49
410.31	2.22
410.523	174.25
410.736	-20.31
410.949	-44.88
411.162	-87.89
411.375	424.1
411.588	297.13
411.801	39.08
412.014	-192.34
412.227	65.71
412.44	-26.45
412.653	-143.19
412.865	53.42
413.078	243.88
413.291	198.82
413.504	-118.61
413.717	-192.34
413.93	350.37
414.143	-110.42
414.356	-155.47
414.568	-278.35
414.781	293.03
414.994	77.99
415.207	-48.98
415.42	-128.85
415.632	307.37
415.845	444.58
416.058	-266.07
416.271	-253.78
416.483	98.47
416.696	526.5
416.909	-122.71
417.121	-208.72
417.334	225.45
417.547	503.97
417.759	-190.29
417.972	-151.38
418.185	-51.03
418.397	254.12
418.61	-143.19
418.823	-151.38
419.035	434.34
419.248	0.17
419.46	-26.45
419.673	-83.8
419.885	182.44
420.098	20.65
420.311	-106.32
420.523	-378.7
420.736	217.26
420.948	-5.97
421.161	-145.24
421.373	-343.89
421.586	143.53
421.798	-38.74
422.01	-255.83
422.223	-57.17
422.435	-53.08
422.648	229.54
422.86	-77.65
423.073	-171.86
423.285	284.84
423.497	-196.43
423.71	-204.63
423.922	-221.01
424.134	233.64
424.347	336.04
424.559	51.37
424.771	145.58
424.984	-40.79
425.196	141.48
425.408	-245.59
425.621	-155.47
425.833	262.31
426.045	297.13
426.257	-202.58
426.47	-208.72
426.682	118.95
426.894	282.79
427.106	-28.5
427.318	-180.05
427.531	-57.17
427.743	256.17
427.955	-153.43
428.167	174.25
428.379	221.35
428.591	-57.17
428.804	-24.4
429.016	-208.72
429.228	-141.14
429.44	123.05
429.652	-24.4
429.864	-298.83
430.076	-40.79
430.288	16.55
430.5	-139.09
430.712	-128.85
430.924	262.31
431.136	43.18
431.348	-288.59
431.56	-163.67
431.772	104.62
431.984	-61.27
432.196	-204.63
432.408	-200.53
432.62	49.32
432.832	198.82
433.044	80.04
433.256	-53.08
433.468	286.89
433.679	-298.83
433.891	-223.06
434.103	94.38
434.315	317.61
434.527	196.78
434.739	-55.12
434.95	-145.24
435.162	348.33
435.374	-65.36
435.586	-135
435.798	-122.71
436.009	-296.78
436.221	69.8
436.433	-190.29
436.645	-85.84
436.856	-102.23
437.068	360.61
437.28	-237.39
437.491	143.53
437.703	108.71
437.915	184.49
438.126	-104.28
438.338	88.23
438.55	127.14
438.761	168.1
438.973	-208.72
439.184	-87.89
439.396	34.99
439.608	217.26
439.819	-294.74
440.031	-57.17
440.242	250.02
440.454	297.13
440.665	-182.1
440.877	-69.46
441.088	241.83
441.3	-71.51
441.511	-370.51
441.723	-169.81
441.934	112.81
442.146	24.75
442.357	-34.64
442.569	133.29
442.78	63.66
442.991	436.39
443.203	166.06
443.414	-288.59
443.626	370.85
443.837	-147.28
444.048	-296.78
444.26	-296.78
444.471	139.43
444.682	301.22
444.894	-421.71
445.105	-366.42
445.316	245.93
445.528	207.02
445.739	-24.4
445.95	-204.63
446.161	139.43
446.373	241.83
446.584	-94.04
446.795	-151.38
447.006	239.78
447.217	469.16
447.429	-257.87
447.64	-337.74
447.851	385.19
448.062	41.13
448.273	-399.18
448.484	-270.16
448.695	278.69
448.907	28.84
449.118	-40.79
449.329	-5.97
449.54	47.27
449.751	-169.81
449.962	-173.91
450.173	-218.96
450.384	245.93
450.595	385.19
450.806	-225.11
451.017	-302.93
451.228	370.85
451.439	260.26
451.65	-204.63
451.861	-390.99
452.072	-132.95
452.283	65.71
452.494	-28.5
452.705	-239.44
452.915	430.24
453.126	209.06
453.337	-147.28
453.548	-345.94
453.759	295.08
453.97	604.32
454.181	-36.69
454.391	-161.62
454.602	123.05
454.813	209.06
455.024	-184.15
455.235	-163.67
455.445	166.06
455.656	125.1
455.867	-18.26
456.078	-155.47
456.288	-48.98
456.499	139.43
456.71	-212.82
456.921	-14.17
457.131	217.26
457.342	186.54
457.553	-130.9
457.763	-192.34
457.974	164.01
458.184	315.56
458.395	-302.93
458.606	-272.21
458.816	391.33
459.027	471.2
459.237	-12.12
459.448	-352.08
459.659	286.89
459.869	630.95
460.08	-368.46
460.29	-69.46
460.501	520.35
460.711	-102.23
460.922	-288.59
461.132	-317.26
461.343	694.43
461.553	-241.49
461.764	-284.5
461.974	-292.69
462.184	250.02
462.395	202.92
462.605	-147.28
462.816	-274.26
463.026	73.9
463.236	381.09
463.447	-270.16
463.657	-225.11
463.867	145.58
464.078	-3.93
464.288	-114.52
464.498	-270.16
464.709	51.37
464.919	20.65
465.129	-139.09
465.339	-270.16
465.55	159.91
465.76	262.31
465.97	-163.67
466.18	-276.31
466.391	270.5
466.601	168.1
466.811	-128.85
467.021	-259.92
467.231	114.86
467.441	346.28
467.651	-135
467.862	-397.14
468.072	-12.12
468.282	370.85
468.492	-139.09
468.702	-67.41
468.912	53.42
469.122	618.66
469.332	22.7
469.542	-282.45
469.752	217.26
469.962	10.41
470.172	-235.35
470.382	-231.25
470.592	149.67
470.802	368.81
471.012	-36.69
471.222	-110.42
471.432	319.65
471.642	217.26
471.852	-36.69
472.062	-161.62
472.272	-34.64
472.482	-221.01
472.691	-296.78
472.901	-323.41
473.111	26.79
473.321	575.65
473.531	-235.35
473.741	-106.32
473.95	174.25
474.16	196.78
474.37	-132.95
474.58	-380.75
474.79	463.01
474.999	225.45
475.209	-214.87
475.419	-194.39
475.628	-85.84
475.838	336.04
476.048	-159.57
476.258	-274.26
476.467	327.85
476.677	-102.23
476.886	-69.46
477.096	-143.19
477.306	-106.32
477.515	323.75
477.725	-104.28
477.935	-114.52
478.144	352.42
478.354	-169.81
478.563	-235.35
478.773	-225.11
478.982	131.24
479.192	350.37
479.401	-130.9
479.611	-399.18
479.82	-180.05
480.03	129.19
480.239	-259.92
480.449	-302.93
480.658	469.16
480.868	-137.04
481.077	-157.52
481.287	-96.08
481.496	229.54
481.705	354.47
481.915	16.55
482.124	51.37
482.333	221.35
482.543	370.85
482.752	-161.62
482.961	-270.16
483.171	239.78
483.38	65.71
483.589	-75.6
483.799	-233.3
484.008	53.42
484.217	268.45
484.426	-155.47
484.636	-339.79
484.845	-10.07
485.054	-288.59
485.263	75.95
485.472	-200.53
485.682	422.05
485.891	139.43
486.1	-335.7
486.309	-261.97
486.518	213.16
486.727	397.48
486.936	-302.93
487.146	-24.4
487.355	403.62
487.564	-180.05
487.773	-151.38
487.982	-198.48
488.191	18.6
488.4	-24.4
488.609	-151.38
488.818	-190.29
489.027	630.95
489.236	436.39
489.445	-165.71
489.654	-225.11
489.863	266.41
490.072	65.71
490.281	168.1
490.49	-178
490.698	444.58
490.907	362.66
491.116	-192.34
491.325	-386.9
491.534	350.37
491.743	110.76
491.952	-48.98
492.16	-241.49
492.369	159.91
492.578	272.55
492.787	-151.38
492.996	-327.5
493.204	-75.6
493.413	499.88
493.622	-378.7
493.831	-401.23
494.039	379.04
494.248	-247.63
494.457	-200.53
494.665	-343.89
494.874	295.08
495.083	557.22
495.291	-114.52
495.5	-257.87
495.709	280.74
495.917	100.52
496.126	-79.7
496.335	-280.4
496.543	-75.6
496.752	172.2
496.96	-14.17
497.169	-440.14
497.377	59.56
497.586	331.94
497.794	-147.28
498.003	-386.9
498.211	2.22
498.42	497.83
498.628	-153.43
498.837	-261.97
499.045	164.01
499.254	86.19
499.462	-208.72
499.671	-309.07
499.879	465.06
500.087	377
500.296	-223.06
500.504	-196.43
500.713	125.1
500.921	600.23
501.129	-313.17
501.338	-151.38
501.546	98.47
501.754	86.19
501.962	-188.24
502.171	-362.32
502.379	67.75
502.587	440.48
502.795	-184.15
503.004	-210.77
503.212	57.51
503.42	362.66
503.628	-251.73
503.837	-81.75
504.045	256.17
504.253	372.9
504.461	-184.15
504.669	-341.84
504.877	164.01
505.085	362.66
505.294	-409.42
505.502	-30.55
505.71	194.73
505.918	278.69
506.126	-132.95
506.334	-198.48
506.542	94.38
506.75	143.53
506.958	-71.51
507.166	-194.39
507.374	-32.6
507.582	340.13
507.79	-122.71
507.998	-225.11
508.206	133.29
508.414	196.78
508.622	-311.12
508.83	-206.67
509.037	497.83
509.245	30.89
509.453	-264.02
509.661	-208.72
509.869	311.46
510.077	-51.03
510.285	-145.24
510.492	-528.21
510.7	567.46
510.908	12.46
511.116	-304.98
511.324	-208.72
511.531	57.51
511.739	143.53
511.947	-116.56
512.155	4.27
512.362	65.71
512.57	-212.82
512.778	-286.54
512.985	-376.66
513.193	379.04
513.401	413.86
513.608	-282.45
513.816	-282.45
514.024	198.82
514.231	354.47
514.439	-257.87
514.646	-167.76
514.854	254.12
515.061	329.89
515.269	-329.55
515.477	-264.02
515.684	-100.18
515.892	270.5
516.099	-356.18
516.307	-327.5
516.514	213.16
516.722	426.15
516.929	-204.63
517.136	-284.5
517.344	256.17
517.551	37.03
517.759	-290.64
517.966	-216.91
518.173	-36.69
518.381	-28.5
518.588	-118.61
518.796	-270.16
519.003	297.13
519.21	18.6
519.418	-212.82
519.625	84.14
519.832	12.46
520.039	118.95
520.247	-399.18
520.454	-366.42
520.661	309.41
520.868	176.3
521.076	-245.59
521.283	-233.3
521.49	514.21
521.697	86.19
521.904	-139.09
522.112	-161.62
522.319	176.3
522.526	198.82
522.733	-352.08
522.94	-302.93
523.147	116.9
523.354	286.89
523.561	-366.42
523.768	-178
523.975	288.93
524.183	24.75
524.39	-180.05
524.597	-335.7
524.804	100.52
525.011	-145.24
525.218	-331.6
525.425	-294.74
525.632	442.53
525.838	-59.22
526.045	-294.74
526.252	-327.5
526.459	1138.84
526.666	854.17
526.873	-261.97
527.08	-272.21
527.287	391.33
527.494	305.32
527.701	-413.52
527.907	-307.02
528.114	211.11
528.321	51.37
528.528	-132.95
528.735	-292.69
528.941	-91.99
529.148	-22.36
529.355	-204.63
529.562	-229.2
529.768	290.98
529.975	-57.17
530.182	-94.04
530.388	-247.63
530.595	280.74
530.802	-202.58
531.008	-135
531.215	-206.67
531.422	747.68
531.628	766.11
531.835	-153.43
532.042	-173.91
532.248	-26.45
532.455	26.79
532.661	-135
532.868	-257.87
533.074	108.71
533.281	270.5
533.487	-198.48
533.694	-329.55
533.9	-135
534.107	172.2
534.313	-253.78
534.52	-345.94
534.726	207.02
534.933	540.83
535.139	-352.08
535.345	-444.24
535.552	151.72
535.758	-1.88
535.965	-212.82
536.171	-261.97
536.377	252.07
536.584	389.28
536.79	-266.07
536.996	-173.91
537.203	118.95
537.409	198.82
537.615	-218.96
537.821	-73.56
538.028	250.02
538.234	237.74
538.44	-225.11
538.646	-145.24
538.853	207.02
539.059	73.9
539.265	141.48
539.471	-407.38
539.677	260.26
539.883	-24.4
540.09	-257.87
540.296	59.56
540.502	-28.5
540.708	-159.57
540.914	-110.42
541.12	-274.26
541.326	135.34
541.532	49.32
541.738	-247.63
541.944	-171.86
542.15	260.26
542.356	8.36
542.562	-264.02
542.768	-159.57
542.974	606.37
543.18	583.84
543.386	-255.83
543.592	-304.98
543.798	344.23
544.004	321.7
544.21	-274.26
544.415	-96.08
544.621	137.38
544.827	331.94
545.033	-259.92
545.239	-24.4
545.445	-180.05
545.651	139.43
545.856	-276.31
546.062	-261.97
546.268	18.6
546.474	26.79
546.679	-251.73
546.885	-98.13
547.091	-110.42
547.297	544.93
547.502	-157.52
547.708	-319.31
547.914	-126.8
548.119	202.92
548.325	-323.41
548.531	-358.22
548.736	430.24
548.942	-184.15
549.147	-278.35
549.353	-53.08
549.559	282.79
549.764	159.91
549.97	-233.3
550.175	-175.95
550.381	252.07
550.586	-16.21
550.792	-202.58
550.997	-247.63
551.203	157.86
551.408	123.05
551.614	-384.85
551.819	-304.98
552.025	450.72
552.23	493.73
552.435	-304.98
552.641	-38.74
552.846	10.41
553.052	360.61
553.257	-155.47
553.462	-200.53
553.668	-55.12
553.873	319.65
554.078	-259.92
554.283	-253.78
554.489	112.81
554.694	45.23
554.899	-309.07
555.105	-51.03
555.31	147.62
555.515	245.93
555.72	-143.19
555.925	-284.5
556.131	223.4
556.336	-96.08
556.541	-319.31
556.746	-341.84
556.951	245.93
557.156	377
557.361	-147.28
557.567	-157.52
557.772	491.68
557.977	233.64
558.182	-235.35
558.387	-225.11
558.592	-114.52
558.797	403.62
559.002	-114.52
559.207	-116.56
559.412	-38.74
559.617	483.49
559.822	-221.01
560.027	-229.2
560.232	131.24
560.437	317.61
560.642	-382.8
560.847	-272.21
561.051	118.95
561.256	200.87
561.461	-112.47
561.666	-266.07
561.871	92.33
562.076	102.57
562.281	-188.24
562.485	-350.03
562.69	217.26
562.895	303.27
563.1	-233.3
563.305	-268.11
563.509	340.13
563.714	573.6
563.919	-223.06
564.123	-178
564.328	-8.02
564.533	350.37
564.737	-180.05
564.942	-257.87
565.147	438.44
565.351	643.23
565.556	-132.95
565.761	-157.52
565.965	100.52
566.17	-14.17
566.374	-225.11
566.579	-364.37
566.784	108.71
566.988	-65.36
567.193	-360.27
567.397	-282.45
567.602	-231.25
567.806	12.46
568.011	-229.2
568.215	-202.58
568.42	-5.97
568.624	10.41
568.828	-208.72
569.033	-83.8
569.237	209.06
569.442	223.4
569.646	-329.55
569.85	-255.83
570.055	-12.12
570.259	98.47
570.463	-12.12
570.668	-192.34
570.872	8.36
571.076	84.14
571.281	-55.12
571.485	-61.27
571.689	-98.13
571.893	319.65
572.098	-53.08
572.302	-180.05
572.506	188.58
572.71	18.6
572.914	-159.57
573.119	-132.95
573.323	336.04
573.527	315.56
573.731	-241.49
573.935	-311.12
574.139	100.52
574.343	-63.32
574.547	-184.15
574.751	-155.47
574.955	438.44
575.159	295.08
575.364	-335.7
575.568	-333.65
575.772	53.42
575.976	307.37
576.18	-264.02
576.383	-380.75
576.587	272.55
576.791	233.64
576.995	-339.79
577.199	-497.49
577.403	323.75
577.607	319.65
577.811	-309.07
578.015	-139.09
578.219	123.05
578.422	227.5
578.626	-188.24
578.83	-24.4
579.034	272.55
579.238	37.03
579.442	-241.49
579.645	121
579.849	-20.31
580.053	0.17
580.257	-280.4
580.46	-192.34
580.664	215.21
580.868	186.54
581.071	-71.51
581.275	-100.18
581.479	-161.62
581.682	172.2
581.886	-206.67
582.09	-114.52
582.293	250.02
582.497	262.31
582.7	-61.27
582.904	-288.59
583.107	-8.02
583.311	-48.98
583.515	-171.86
583.718	-182.1
583.922	168.1
584.125	329.89
584.329	-356.18
584.532	-24.4
584.735	338.09
584.939	188.58
585.142	-307.02
585.346	-282.45
585.549	194.73
585.753	24.75
585.956	-126.8
586.159	-51.03
586.363	446.63
586.566	161.96
586.769	-212.82
586.973	-319.31
587.176	176.3
587.379	336.04
587.582	73.9
587.786	-67.41
587.989	41.13
588.192	602.27
588.395	-106.32
588.599	116.9
588.802	159.91
589.005	221.35
589.208	-171.86
589.411	-227.15
589.615	315.56
589.818	463.01
590.021	-24.4
590.224	-106.32
590.427	225.45
590.63	227.5
590.833	-302.93
591.036	-284.5
591.239	-89.94
591.442	-75.6
591.645	-57.17
591.848	-194.39
592.051	170.15
592.254	368.81
592.457	-114.52
592.66	-233.3
592.863	8.36
593.066	184.49
593.269	-237.39
593.472	-120.66
593.675	-216.91
593.878	270.5
594.081	-91.99
594.284	-274.26
594.486	153.77
594.689	69.8
594.892	-139.09
595.095	-200.53
595.298	194.73
595.5	-114.52
595.703	-14.17
595.906	-3.93
596.109	397.48
596.311	303.27
596.514	-468.81
596.717	-137.04
596.92	346.28
597.122	225.45
597.325	-380.75
597.528	-286.54
597.73	358.57
597.933	73.9
598.136	-159.57
598.338	-368.46
598.541	84.14
598.743	333.99
598.946	-184.15
599.148	-135
599.351	377
599.554	362.66
599.756	26.79
599.959	-163.67
600.161	241.83
600.363	764.06
600.566	-61.27
600.768	-155.47
600.971	426.15
601.173	239.78
601.376	-212.82
601.578	-225.11
601.78	204.97
601.983	536.74
602.185	-274.26
602.388	-110.42
602.59	143.53
602.792	43.18
602.995	8.36
603.197	-147.28
603.399	266.41
603.601	151.72
603.804	-198.48
604.006	-237.39
604.208	82.09
604.41	-261.97
604.613	-24.4
604.815	-288.59
605.017	635.04
605.219	-53.08
605.421	166.06
605.623	-266.07
605.826	444.58
606.028	440.48
606.23	-128.85
606.432	-161.62
606.634	413.86
606.836	426.15
607.038	-323.41
607.24	-73.56
607.442	153.77
607.644	51.37
607.846	-106.32
608.048	-253.78
608.25	319.65
608.452	-38.74
608.654	-145.24
608.856	-399.18
609.058	37.03
609.26	176.3
609.462	-108.37
609.664	-159.57
609.866	524.45
610.067	336.04
610.269	59.56
610.471	-130.9
610.673	26.79
610.875	266.41
611.077	-337.74
611.278	-24.4
611.48	102.57
611.682	434.34
611.884	-94.04
612.085	-128.85
612.287	-190.29
612.489	274.6
612.69	-333.65
612.892	-79.7
613.094	168.1
613.295	188.58
613.497	-243.54
613.699	-96.08
613.9	499.88
614.102	282.79
614.304	-155.47
614.505	-266.07
614.707	65.71
614.908	71.85
615.11	-327.5
615.311	-161.62
615.513	282.79
615.714	245.93
615.916	-284.5
616.117	-104.28
616.319	-16.21
616.52	276.65
616.722	-259.92
616.923	-102.23
617.124	352.42
617.326	237.74
617.527	-71.51
617.729	98.47
617.93	223.4
618.131	288.93
618.333	-48.98
618.534	-91.99
618.735	-118.61
618.937	428.2
619.138	-259.92
619.339	-212.82
619.54	225.45
619.742	-24.4
619.943	12.46
620.144	-116.56
620.345	327.85
620.546	364.71
620.748	-294.74
620.949	-155.47
621.15	110.76
621.351	170.15
621.552	-151.38
621.753	-319.31
621.954	-268.11
622.155	641.18
622.356	-239.44
622.558	45.23
622.759	32.94
622.96	579.75
623.161	-147.28
623.362	-196.43
623.563	-1.88
623.764	108.71
623.965	-112.47
624.166	59.56
624.366	41.13
624.567	274.6
624.768	-352.08
624.969	-178
625.17	43.18
625.371	272.55
625.572	-8.02
625.773	-270.16
625.973	211.11
626.174	168.1
626.375	-147.28
626.576	-38.74
626.777	180.39
626.977	657.57
627.178	-159.57
627.379	-163.67
627.58	18.6
627.78	147.62
627.981	-141.14
628.182	65.71
628.382	411.81
628.583	-218.96
628.784	-331.6
628.984	-24.4
629.185	303.27
629.386	290.98
629.586	-59.22
629.787	-196.43
629.987	262.31
630.188	80.04
630.388	-73.56
630.589	-61.27
630.79	694.43
630.99	223.4
631.191	-143.19
631.391	-57.17
631.591	276.65
631.792	499.88
631.992	-28.5
632.193	-153.43
632.393	426.15
632.594	110.76
632.794	-98.13
632.994	28.84
633.195	92.33
633.395	127.14
633.595	-190.29
633.796	32.94
633.996	-48.98
634.196	409.76
634.397	-321.36
634.597	-57.17
634.797	-106.32
634.997	499.88
635.198	71.85
635.398	-268.11
635.598	180.39
635.798	475.3
635.998	239.78
636.199	-241.49
636.399	2.22
636.599	-194.39
636.799	-186.19
636.999	16.55
637.199	358.57
637.399	352.42
637.599	-122.71
637.799	0.17
637.999	43.18
638.199	475.3
638.399	-159.57
638.599	-212.82
638.799	182.44
638.999	542.88
639.199	-1.88
639.399	-16.21
639.599	510.11
639.799	-18.26
639.999	-235.35
640.199	-235.35
640.399	153.77
640.599	239.78
640.799	-137.04
640.998	77.99
641.198	465.06
641.398	235.69
641.598	-57.17
641.798	-42.84
641.997	987.29
642.197	145.58
642.397	-98.13
642.597	-165.71
642.796	184.49
642.996	473.25
643.196	65.71
643.395	-161.62
643.595	227.5
643.795	-292.69
643.994	-143.19
644.194	-106.32
644.394	270.5
644.593	184.49
644.793	-405.33
644.992	-12.12
645.192	254.12
645.392	-180.05
645.591	-12.12
645.791	-100.18
645.99	245.93
646.19	77.99
646.389	45.23
646.589	-83.8
646.788	276.65
646.987	272.55
647.187	141.48
647.386	104.62
647.586	174.25
647.785	336.04
647.984	-81.75
648.184	8.36
648.383	49.32
648.582	34.99
648.782	-65.36
648.981	-10.07
649.18	-44.88
649.38	178.34
649.579	-151.38
649.778	-173.91
649.977	143.53
650.177	172.2
650.376	-233.3
650.575	-118.61
650.774	528.55
650.973	-20.31
651.173	-237.39
651.372	-87.89
651.571	241.83
651.77	397.48
651.969	-91.99
652.168	-20.31
652.367	-57.17
652.566	75.95
652.765	-137.04
652.964	135.34
653.163	600.23
653.362	4.27
653.561	-122.71
653.76	-98.13
653.959	-1.88
654.158	186.54
654.357	100.52
654.556	-36.69
654.755	268.45
654.954	194.73
655.153	-69.46
655.352	-77.65
655.551	426.15
655.749	-53.08
655.948	-85.84
656.147	16.55
656.346	204.97
656.545	80.04
656.743	-22.36
656.942	-1.88
657.141	161.96
657.34	-106.32
657.538	-8.02
657.737	-87.89
657.936	51.37
658.135	229.54
658.333	-130.9
658.532	-10.07
658.731	575.65
658.929	352.42
659.128	209.06
659.326	-118.61
659.525	438.44
659.724	151.72
659.922	-366.42
660.121	-210.77
660.319	137.38
660.518	-1.88
660.716	-180.05
660.915	-218.96
661.113	489.64
661.312	-167.76
661.51	4.27
661.709	-161.62
661.907	354.47
662.105	536.74
662.304	-59.22
662.502	-28.5
662.701	391.33
662.899	30.89
663.097	225.45
663.296	-276.31
663.494	440.48
663.692	458.92
663.891	-116.56
664.089	-227.15
664.287	237.74
664.485	413.86
664.684	-206.67
664.882	41.13
665.08	215.21
665.278	86.19
665.476	-194.39
665.675	172.2
665.873	608.42
666.071	446.63
666.269	-165.71
666.467	57.51
666.665	207.02
666.863	168.1
667.061	43.18
667.259	-178
667.457	114.86
667.655	366.76
667.853	-231.25
668.051	34.99
668.249	-67.41
668.447	297.13
668.645	-221.01
668.843	94.38
669.041	235.69
669.239	45.23
669.437	16.55
669.635	22.7
669.833	69.8
670.031	348.33
670.229	28.84
670.426	8.36
670.624	24.75
670.822	22.7
671.02	-110.42
671.218	-132.95
671.415	-139.09
671.613	147.62
671.811	22.7
672.009	-67.41
672.206	297.13
672.404	207.02
672.602	184.49
672.799	47.27
672.997	252.07
673.195	430.24
673.392	32.94
673.59	-169.81
673.788	389.28
673.985	-239.44
674.183	0.17
674.38	-83.8
674.578	368.81
674.775	0.17
674.973	-159.57
675.17	-139.09
675.368	567.46
675.565	309.41
675.763	-89.94
675.96	-180.05
676.158	403.62
676.355	94.38
676.553	-112.47
676.75	-96.08
676.947	219.3
677.145	123.05
677.342	-34.64
677.539	145.58
677.737	106.67
677.934	649.38
678.131	139.43
678.329	-98.13
678.526	387.24
678.723	254.12
678.92	86.19
679.118	-16.21
679.315	-137.04
679.512	442.53
679.709	-83.8
679.906	34.99
680.104	329.89
680.301	190.63
680.498	-104.28
680.695	-89.94
680.892	110.76
681.089	22.7
681.286	82.09
681.483	-194.39
681.68	243.88
681.877	280.74
682.075	2.22
682.272	282.79
682.469	231.59
682.665	80.04
682.862	-175.95
683.059	-266.07
683.256	225.45
683.453	174.25
683.65	12.46
683.847	-118.61
684.044	110.76
684.241	-46.93
684.438	12.46
684.635	-147.28
684.831	620.71
685.028	622.75
685.225	-114.52
685.422	69.8
685.619	41.13
685.815	204.97
686.012	-18.26
686.209	-18.26
686.405	-128.85
686.602	452.77
686.799	-180.05
686.996	-79.7
687.192	-159.57
687.389	637.09
687.586	-42.84
687.782	-85.84
687.979	495.78
688.175	475.3
688.372	8.36
688.568	-73.56
688.765	45.23
688.962	483.49
689.158	47.27
689.355	-212.82
689.551	313.51
689.748	41.13
689.944	55.47
690.14	-266.07
690.337	354.47
690.533	14.51
690.73	182.44
690.926	-16.21
691.123	329.89
691.319	137.38
691.515	-190.29
691.712	8.36
691.908	348.33
692.104	180.39
692.301	88.23
692.497	-188.24
692.693	362.66
692.889	286.89
693.086	-16.21
693.282	-231.25
693.478	270.5
693.674	565.41
693.87	-79.7
694.067	-255.83
694.263	266.41
694.459	139.43
694.655	92.33
694.851	135.34
695.047	286.89
695.243	237.74
695.439	123.05
695.635	-89.94
695.831	364.71
696.027	155.82
696.224	-91.99
696.42	215.21
696.615	516.26
696.811	319.65
697.007	-106.32
697.203	-16.21
697.399	278.69
697.595	506.02
697.791	-102.23
697.987	108.71
698.183	-73.56
698.379	20.65
698.575	37.03
698.77	32.94
698.966	309.41
699.162	489.64
699.358	14.51
699.554	-22.36
699.749	315.56
699.945	450.72
700.141	131.24
700.337	59.56
700.532	112.81
700.728	-10.07
700.924	-85.84
701.119	-110.42
701.315	258.21
701.511	180.39
701.706	90.28
701.902	-243.54
702.097	241.83
702.293	333.99
702.489	98.47
702.684	-48.98
702.88	135.34
703.075	73.9
703.271	-73.56
703.466	-157.52
703.662	182.44
703.857	274.6
704.053	-65.36
704.248	-12.12
704.443	299.17
704.639	303.27
704.834	-3.93
705.03	-67.41
705.225	411.81
705.42	448.68
705.616	77.99
705.811	-135
706.006	118.95
706.202	143.53
706.397	137.38
706.592	-137.04
706.787	223.4
706.983	237.74
707.178	133.29
707.373	49.32
707.568	430.24
707.763	524.45
707.959	-36.69
708.154	-22.36
708.349	254.12
708.544	264.36
708.739	204.97
708.934	-153.43
709.129	368.81
709.324	487.59
709.519	-122.71
709.714	-34.64
709.909	397.48
710.104	252.07
710.299	-20.31
710.494	-83.8
710.689	417.96
710.884	196.78
711.079	123.05
711.274	112.81
711.469	315.56
711.664	243.88
711.859	-85.84
712.054	121
712.249	368.81
712.443	518.31
712.638	-147.28
712.833	-16.21
713.028	207.02
713.223	88.23
713.417	247.97
713.612	-85.84
713.807	352.42
714.002	780.45
714.196	129.19
714.391	-91.99
714.586	501.92
714.78	88.23
714.975	-38.74
715.17	-55.12
715.364	118.95
715.559	430.24
715.754	-288.59
715.948	26.79
716.143	708.77
716.337	290.98
716.532	221.35
716.726	-46.93
716.921	413.86
717.115	680.1
717.31	-104.28
717.504	481.44
717.699	131.24
717.893	323.75
718.088	-59.22
718.282	-145.24
718.476	254.12
718.671	262.31
718.865	-67.41
719.059	-34.64
719.254	245.93
719.448	479.4
719.642	172.2
719.837	-169.81
720.031	325.8
720.225	544.93
720.419	53.42
720.614	-63.32
720.808	297.13
721.002	153.77
721.196	-63.32
721.39	28.84
721.585	549.03
721.779	340.13
721.973	-65.36
722.167	-114.52
722.361	233.64
722.555	471.2
722.749	-77.65
722.943	49.32
723.137	-38.74
723.331	319.65
723.525	-20.31
723.719	-51.03
723.913	362.66
724.107	508.07
724.301	-155.47
724.495	75.95
724.689	645.28
724.883	483.49
725.077	-42.84
725.271	20.65
725.465	411.81
725.659	262.31
725.853	24.75
726.046	-167.76
726.24	98.47
726.434	491.68
726.628	-116.56
726.822	6.31
727.015	520.35
727.209	463.01
727.403	-48.98
727.596	-175.95
727.79	348.33
727.984	458.92
728.177	-32.6
728.371	75.95
728.565	454.82
728.758	4.27
728.952	-155.47
729.146	-69.46
729.339	442.53
729.533	237.74
729.726	-20.31
729.92	-65.36
730.113	483.49
730.307	297.13
730.5	-44.88
730.694	-16.21
730.887	61.61
731.081	323.75
731.274	-169.81
731.468	55.47
731.661	198.82
731.854	61.61
732.048	-12.12
732.241	-69.46
732.435	61.61
732.628	311.46
732.821	26.79
733.014	-89.94
733.208	-98.13
733.401	458.92
733.594	-46.93
733.788	-20.31
733.981	518.31
734.174	301.22
734.367	-28.5
734.56	88.23
734.754	393.38
734.947	237.74
735.14	-106.32
735.333	57.51
735.526	405.67
735.719	45.23
735.912	-132.95
736.105	-130.9
736.298	258.21
736.491	106.67
736.684	-53.08
736.877	-5.97
737.07	319.65
737.263	501.92
737.456	-42.84
737.649	-118.61
737.842	184.49
738.035	217.26
738.228	0.17
738.421	147.62
738.614	491.68
738.807	401.57
739	-180.05
739.192	-122.71
739.385	356.52
739.578	352.42
739.771	192.68
739.964	-42.84
740.156	237.74
740.349	182.44
740.542	180.39
740.735	-106.32
740.927	-20.31
741.12	34.99
741.313	-155.47
741.505	41.13
741.698	297.13
741.891	311.46
742.083	221.35
742.276	-3.93
742.468	213.16
742.661	207.02
742.854	-18.26
743.046	-28.5
743.239	704.67
743.431	118.95
743.624	41.13
743.816	-167.76
744.009	143.53
744.201	360.61
744.393	217.26
744.586	-98.13
744.778	534.69
744.971	155.82
745.163	-63.32
745.355	92.33
745.548	229.54
745.74	123.05
745.932	41.13
746.125	-32.6
746.317	747.68
746.509	288.93
746.702	12.46
746.894	51.37
747.086	315.56
747.278	555.17
747.471	116.9
747.663	28.84
747.855	213.16
748.047	585.89
748.239	-38.74
748.431	-196.43
748.623	635.04
748.815	551.07
749.008	-53.08
749.2	-98.13
749.392	348.33
749.584	422.05
749.776	114.86
749.968	110.76
750.16	696.48
750.352	172.2
750.544	67.75
750.736	-110.42
750.928	420
751.12	37.03
751.311	-38.74
751.503	28.84
751.695	342.18
751.887	137.38
752.079	-249.68
752.271	-51.03
752.463	975
752.654	415.91
752.846	92.33
753.038	-48.98
753.23	14.51
753.421	383.14
753.613	-48.98
753.805	151.72
753.997	501.92
754.188	450.72
754.38	-85.84
754.572	-3.93
754.763	135.34
754.955	413.86
755.146	67.75
755.338	110.76
755.53	348.33
755.721	254.12
755.913	-132.95
756.104	-91.99
756.296	71.85
756.487	385.19
756.679	-155.47
756.87	16.55
757.062	116.9
757.253	385.19
757.445	2.22
757.636	137.38
757.827	190.63
758.019	721.06
758.21	-46.93
758.401	-48.98
758.593	602.27
758.784	532.64
758.975	-102.23
759.167	-89.94
759.358	268.45
759.549	495.78
759.74	-38.74
759.932	-16.21
760.123	589.99
760.314	84.14
760.505	155.82
760.696	-53.08
760.888	676
761.079	164.01
761.27	-89.94
761.461	-180.05
761.652	626.85
761.843	82.09
762.034	-36.69
762.225	196.78
762.416	184.49
762.607	346.28
762.798	47.27
762.989	-75.6
763.18	999.58
763.371	168.1
763.562	-106.32
763.753	-3.93
763.944	420
764.135	540.83
764.326	108.71
764.517	-79.7
764.708	321.7
764.899	411.81
765.089	0.17
765.28	-149.33
765.471	309.41
765.662	323.75
765.853	73.9
766.043	-89.94
766.234	438.44
766.425	434.34
766.615	69.8
766.806	-167.76
766.997	499.88
767.187	317.61
767.378	-85.84
767.569	-94.04
767.759	327.85
767.95	356.52
768.141	151.72
768.331	-55.12
768.522	229.54
768.712	344.23
768.903	-104.28
769.093	-57.17
769.284	573.6
769.474	204.97
769.665	-182.1
769.855	-227.15
770.046	336.04
770.236	131.24
770.426	141.48
770.617	-104.28
770.807	379.04
770.998	161.96
771.188	135.34
771.378	-71.51
771.569	364.71
771.759	362.66
771.949	-124.76
772.139	-276.31
772.33	276.65
772.52	587.94
772.71	-77.65
772.9	-130.9
773.09	645.28
773.281	520.35
773.471	-16.21
773.661	-30.55
773.851	501.92
774.041	131.24
774.231	-71.51
774.421	80.04
774.611	704.67
774.802	211.11
774.992	92.33
775.182	-122.71
775.372	200.87
775.562	417.96
775.752	-30.55
775.942	-24.4
776.131	528.55
776.321	389.28
776.511	-79.7
776.701	-81.75
776.891	508.07
777.081	-42.84
777.271	67.75
777.461	-81.75
777.651	374.95
777.84	600.23
778.03	88.23
778.22	24.75
778.41	577.7
778.599	12.46
778.789	22.7
778.979	-96.08
779.169	344.23
779.358	241.83
779.548	194.73
779.738	-122.71
779.927	258.21
780.117	12.46
780.307	41.13
780.496	-190.29
780.686	313.51
780.875	602.27
781.065	-94.04
781.254	-87.89
781.444	274.6
781.633	278.69
781.823	-139.09
782.012	-89.94
782.202	161.96
782.391	176.3
782.581	-26.45
782.77	34.99
782.96	364.71
783.149	121
783.338	24.75
783.528	-255.83
783.717	483.49
783.906	499.88
784.096	12.46
784.285	-22.36
784.474	153.77
784.663	20.65
784.853	-3.93
785.042	-42.84
785.231	102.57
785.42	465.06
785.61	98.47
785.799	-169.81
785.988	82.09
786.177	131.24
786.366	-30.55
786.555	104.62
786.744	409.76
786.933	151.72
787.122	-89.94
787.312	-253.78
787.501	49.32
787.69	360.61
787.879	20.65
788.068	-143.19
788.257	-91.99
788.445	172.2
788.634	8.36
788.823	-149.33
789.012	819.36
789.201	530.59
789.39	53.42
789.579	-85.84
789.768	118.95
789.957	270.5
790.145	-94.04
790.334	-302.93
790.523	207.02
790.712	127.14
790.9	8.36
791.089	-196.43
791.278	514.21
791.467	252.07
791.655	172.2
791.844	381.09
792.033	110.76
792.221	131.24
792.41	39.08
792.599	-157.52
792.787	317.61
792.976	395.43
793.164	-120.66
793.353	-128.85
793.541	377
793.73	301.22
793.918	14.51
794.107	-69.46
794.295	168.1
794.484	176.3
794.672	63.66
794.861	-63.32
795.049	426.15
795.238	622.75
795.426	-184.15
795.614	-10.07
795.803	250.02
795.991	489.64
796.179	-85.84
796.368	-71.51
796.556	561.31
796.744	26.79
796.932	-59.22
797.121	-124.76
797.309	207.02
797.497	377
797.685	20.65
797.874	-63.32
798.062	110.76
798.25	567.46
798.438	-65.36
798.626	-79.7
798.814	286.89
799.002	727.2
799.19	123.05
799.378	-12.12
799.566	489.64
799.755	518.31
799.943	159.91
800.131	-130.9
800.318	377
800.506	309.41
800.694	-44.88
800.882	86.19
801.07	440.48
801.258	174.25
801.446	-61.27
801.634	-24.4
801.822	272.55
802.01	209.06
802.197	-57.17
802.385	26.79
802.573	303.27
802.761	12.46
802.949	8.36
803.136	-204.63
803.324	434.34
803.512	164.01
803.699	98.47
803.887	-270.16
804.075	481.44
804.262	98.47
804.45	-122.71
804.638	4.27
804.825	-20.31
805.013	131.24
805.201	-20.31
805.388	-124.76
805.576	180.39
805.763	598.18
805.951	-40.79
806.138	90.28
806.326	577.7
806.513	379.04
806.701	28.84
806.888	-96.08
807.075	151.72
807.263	620.71
807.45	-231.25
807.638	59.56
807.825	649.38
808.012	559.27
808.2	12.46
808.387	200.87
808.574	307.37
808.761	557.22
808.949	-77.65
809.136	49.32
809.323	155.82
809.51	137.38
809.698	284.84
809.885	123.05
810.072	286.89
810.259	446.63
810.446	-16.21
810.633	-36.69
810.82	434.34
811.008	542.88
811.195	69.8
811.382	8.36
811.569	188.58
811.756	-59.22
811.943	0.17
812.13	-153.43
812.317	141.48
812.504	28.84
812.691	37.03
812.878	67.75
813.064	499.88
813.251	252.07
813.438	-155.47
813.625	188.58
813.812	174.25
813.999	164.01
814.186	-28.5
814.372	14.51
814.559	239.78
814.746	497.83
814.933	43.18
815.12	131.24
815.306	151.72
815.493	-36.69
815.68	-61.27
815.866	-3.93
816.053	479.4
816.24	759.97
816.426	28.84
816.613	-81.75
816.799	329.89
816.986	481.44
817.173	-94.04
817.359	-44.88
817.546	282.79
817.732	-91.99
817.919	-270.16
818.105	141.48
818.292	65.71
818.478	366.76
818.665	14.51
818.851	-114.52
819.037	743.58
819.224	315.56
819.41	-135
819.597	-26.45
819.783	647.33
819.969	422.05
820.156	-3.93
820.342	-87.89
820.528	950.43
820.714	176.3
820.901	233.64
821.087	-42.84
821.273	639.14
821.459	133.29
821.646	-77.65
821.832	-83.8
822.018	243.88
822.204	155.82
822.39	-12.12
822.576	-161.62
822.762	264.36
822.948	348.33
823.134	143.53
823.32	-32.6
823.507	-32.6
823.693	258.21
823.879	385.19
824.065	-24.4
824.25	278.69
824.436	-116.56
824.622	-10.07
824.808	-85.84
824.994	118.95
825.18	77.99
825.366	-110.42
825.552	-57.17
825.738	174.25
825.923	503.97
826.109	172.2
826.295	-89.94
826.481	45.23
826.667	135.34
826.852	188.58
827.038	-163.67
827.224	428.2
827.409	641.18
827.595	-116.56
827.781	145.58
827.966	467.11
828.152	428.2
828.338	-30.55
828.523	-124.76
828.709	37.03
828.894	512.16
829.08	22.7
829.266	-91.99
829.451	41.13
829.637	489.64
829.822	61.61
830.008	-112.47
830.193	368.81
830.378	612.51
830.564	51.37
830.749	-96.08
830.935	387.24
831.12	395.43
831.305	-8.02
831.491	149.67
831.676	8.36
831.861	430.24
832.047	-36.69
832.232	-180.05
832.417	442.53
832.602	290.98
832.788	47.27
832.973	-104.28
833.158	270.5
833.343	303.27
833.528	65.71
833.714	118.95
833.899	381.09
834.084	616.61
834.269	204.97
834.454	12.46
834.639	499.88
834.824	241.83
835.009	88.23
835.194	198.82
835.379	336.04
835.564	532.64
835.749	143.53
835.934	-81.75
836.119	331.94
836.304	278.69
836.489	-12.12
836.674	264.36
836.859	32.94
837.044	624.8
837.228	-12.12
837.413	-163.67
837.598	295.08
837.783	436.39
837.968	28.84
838.152	-163.67
838.337	-126.8
838.522	526.5
838.707	360.61
838.891	221.35
839.076	387.24
839.261	491.68
839.445	-8.02
839.63	80.04
839.815	594.08
839.999	204.97
840.184	-69.46
840.368	-5.97
840.553	370.85
840.737	450.72
840.922	-141.14
841.106	-48.98
841.291	-122.71
841.475	262.31
841.66	24.75
841.844	39.08
842.029	987.29
842.213	-59.22
842.397	-20.31
842.582	-178
842.766	512.16
842.951	389.28
843.135	-14.17
843.319	-59.22
843.504	256.17
843.688	409.76
843.872	-147.28
844.056	-38.74
844.241	381.09
844.425	172.2
844.609	233.64
844.793	-241.49
844.977	432.29
845.161	374.95
845.346	-206.67
845.53	-81.75
845.714	166.06
845.898	567.46
846.082	-284.5
846.266	-79.7
846.45	184.49
846.634	215.21
846.818	-155.47
847.002	180.39
847.186	313.51
847.37	-65.36
847.554	-89.94
847.738	61.61
847.922	307.37
848.106	372.9
848.29	-180.05
848.473	-67.41
848.657	442.53
848.841	247.97
849.025	53.42
849.209	-288.59
849.392	467.11
849.576	82.09
849.76	-257.87
849.944	125.1
850.127	639.14
850.311	20.65
850.495	-214.87
850.678	-83.8
850.862	520.35
851.046	639.14
851.229	176.3
851.413	-180.05
851.596	225.45
851.78	190.63
851.964	207.02
852.147	2.22
852.331	962.72
852.514	532.64
852.698	69.8
852.881	-190.29
853.065	520.35
853.248	231.59
853.431	88.23
853.615	88.23
853.798	794.78
853.982	366.76
854.165	155.82
854.348	-77.65
854.532	59.56
854.715	123.05
854.898	41.13
855.081	30.89
855.265	626.85
855.448	643.23
855.631	34.99
855.814	37.03
855.997	454.82
856.181	258.21
856.364	-51.03
856.547	-188.24
856.73	301.22
856.913	305.32
857.096	-180.05
857.279	16.55
857.462	147.62
857.645	530.59
857.828	71.85
858.011	96.43
858.194	133.29
858.377	534.69
858.56	-118.61
858.743	63.66
858.926	94.38
859.109	348.33
859.292	-38.74
859.475	-169.81
859.658	616.61
859.841	338.09
860.023	-143.19
860.206	-182.1
860.389	258.21
860.572	606.37
860.755	16.55
860.937	-26.45
861.12	231.59
861.303	305.32
861.486	55.47
861.668	-12.12
861.851	358.57
862.034	358.57
862.216	127.14
862.399	-171.86
862.581	397.48
862.764	682.14
862.947	-12.12
863.129	22.7
863.312	59.56
863.494	585.89
863.677	305.32
863.859	-231.25
864.042	403.62
864.224	635.04
864.406	125.1
864.589	-135
864.771	377
864.954	47.27
865.136	-53.08
865.318	-184.15
865.501	444.58
865.683	-202.58
865.865	20.65
866.048	-28.5
866.23	354.47
866.412	362.66
866.594	-34.64
866.777	94.38
866.959	409.76
867.141	57.51
867.323	245.93
867.505	118.95
867.687	344.23
867.869	303.27
868.052	118.95
868.234	-153.43
868.416	254.12
868.598	444.58
868.78	-40.79
868.962	-102.23
869.144	452.77
869.326	467.11
869.508	-20.31
869.69	-18.26
869.872	57.51
870.054	520.35
870.236	-139.09
870.417	26.79
870.599	299.17
870.781	637.09
870.963	45.23
871.145	-106.32
871.327	-18.26
871.508	528.55
871.69	-87.89
871.872	-24.4
872.054	231.59
872.235	397.48
872.417	131.24
872.599	-112.47
872.78	604.32
872.962	336.04
873.144	-145.24
873.325	53.42
873.507	589.99
873.689	352.42
873.87	-163.67
874.052	96.43
874.233	155.82
874.415	526.5
874.596	28.84
874.778	-89.94
874.959	188.58
875.141	508.07
875.322	-14.17
875.503	-61.27
875.685	379.04
875.866	-98.13
876.048	-30.55
876.229	-77.65
876.41	313.51
876.592	348.33
876.773	-118.61
876.954	-175.95
877.136	516.26
877.317	190.63
877.498	-208.72
877.679	75.95
877.86	364.71
878.042	225.45
878.223	12.46
878.404	211.11
878.585	383.14
878.766	567.46
878.947	297.13
879.128	110.76
879.309	446.63
879.49	448.68
879.672	-1.88
879.853	28.84
880.034	20.65
880.215	196.78
880.396	22.7
880.576	-48.98
880.757	102.57
880.938	602.27
881.119	-79.7
881.3	-36.69
881.481	129.19
881.662	1106.07
881.843	-143.19
882.023	-155.47
882.204	286.89
882.385	196.78
882.566	-81.75
882.747	-130.9
882.927	186.54
883.108	221.35
883.289	-85.84
883.469	192.68
883.65	69.8
883.831	241.83
884.011	16.55
884.192	-16.21
884.373	422.05
884.553	327.85
884.734	112.81
884.914	209.06
885.095	821.41
885.275	639.14
885.456	247.97
885.636	-188.24
885.817	229.54
885.997	200.87
886.178	-102.23
886.358	-40.79
886.538	223.4
886.719	1263.77
886.899	-73.56
887.08	41.13
887.26	510.11
887.44	-38.74
887.621	-147.28
887.801	121
887.981	788.64
888.161	426.15
888.342	59.56
888.522	-48.98
888.702	489.64
888.882	637.09
889.062	114.86
889.242	-237.39
889.423	624.8
889.603	354.47
889.783	100.52
889.963	-12.12
890.143	405.67
890.323	526.5
890.503	-16.21
890.683	34.99
890.863	223.4
891.043	338.09
891.223	123.05
891.403	135.34
891.583	139.43
891.763	270.5
891.943	47.27
892.122	-40.79
892.302	245.93
892.482	245.93
892.662	118.95
892.842	-5.97
893.022	260.26
893.201	98.47
893.381	121
893.561	6.31
893.741	434.34
893.92	313.51
894.1	51.37
894.28	63.66
894.459	491.68
894.639	389.28
894.819	0.17
894.998	77.99
895.178	356.52
895.357	323.75
895.537	-3.93
895.716	-218.96
895.896	172.2
896.075	542.88
896.255	102.57
896.434	-266.07
896.614	542.88
896.793	589.99
896.973	90.28
897.152	69.8
897.331	426.15
897.511	407.72
897.69	-96.08
897.87	12.46
898.049	487.59
898.228	225.45
898.407	223.4
898.587	139.43
898.766	143.53
898.945	393.38
899.124	252.07
899.304	55.47
899.483	442.53
899.662	696.48
899.841	-61.27
900.02	-55.12
900.199	516.26
900.378	420
900.557	-63.32
900.737	-44.88
900.916	403.62
901.095	438.44
901.274	247.97
901.453	-61.27
901.632	186.54
901.811	164.01
901.989	-8.02
902.168	-89.94
902.347	415.91
902.526	227.5
902.705	26.79
902.884	26.79
903.063	565.41
903.242	575.65
903.42	-89.94
903.599	176.3
903.778	436.39
903.957	655.52
904.135	106.67
904.314	133.29
904.493	426.15
904.672	401.57
904.85	102.57
905.029	90.28
905.207	350.37
905.386	1054.87
905.565	-100.18
905.743	69.8
905.922	182.44
906.1	467.11
906.279	-81.75
906.457	-32.6
906.636	198.82
906.814	245.93
906.993	-8.02
907.171	-91.99
907.35	438.44
907.528	405.67
907.707	231.59
907.885	-24.4
908.063	661.66
908.242	82.09
908.42	-32.6
908.598	-79.7
908.777	510.11
908.955	123.05
909.133	198.82
909.311	-114.52
909.49	262.31
909.668	307.37
909.846	45.23
910.024	-130.9
910.202	190.63
910.38	405.67
910.559	-112.47
910.737	-22.36
910.915	379.04
911.093	356.52
911.271	-8.02
911.449	217.26
911.627	417.96
911.805	745.63
911.983	45.23
912.161	8.36
912.339	393.38
912.517	508.07
912.695	215.21
912.872	43.18
913.05	37.03
913.228	424.1
913.406	71.85
913.584	-34.64
913.762	471.2
913.939	131.24
914.117	61.61
914.295	-102.23
914.473	458.92
914.65	383.14
914.828	28.84
915.006	12.46
915.184	69.8
915.361	352.42
915.539	207.02
915.716	221.35
915.894	368.81
916.072	422.05
916.249	272.55
916.427	254.12
916.604	37.03
916.782	325.8
916.959	-40.79
917.137	49.32
917.314	329.89
917.492	440.48
917.669	272.55
917.847	125.1
918.024	393.38
918.201	65.71
918.379	86.19
918.556	94.38
918.733	467.11
918.911	243.88
919.088	221.35
919.265	37.03
919.442	309.41
919.62	229.54
919.797	-42.84
919.974	-57.17
920.151	317.61
920.328	233.64
920.506	16.55
920.683	202.92
920.86	102.57
921.037	153.77
921.214	75.95
921.391	4.27
921.568	522.4
921.745	108.71
921.922	104.62
922.099	-116.56
922.276	518.31
922.453	315.56
922.63	32.94
922.807	313.51
922.984	319.65
923.161	194.73
923.338	69.8
923.514	-12.12
923.691	305.32
923.868	338.09
924.045	59.56
924.222	-98.13
924.399	356.52
924.575	559.27
924.752	73.9
924.929	131.24
925.105	442.53
925.282	100.52
925.459	-18.26
925.635	90.28
925.812	245.93
925.989	180.39
926.165	159.91
926.342	-63.32
926.518	24.75
926.695	387.24
926.871	-12.12
927.048	-100.18
927.224	497.83
927.401	176.3
927.577	80.04
927.754	-73.56
927.93	512.16
928.107	495.78
928.283	-65.36
928.459	123.05
928.636	438.44
928.812	190.63
928.988	-5.97
929.165	-139.09
929.341	182.44
929.517	272.55
929.693	338.09
929.87	-204.63
930.046	442.53
930.222	110.76
930.398	32.94
930.574	116.9
930.751	229.54
930.927	151.72
931.103	16.55
931.279	41.13
931.455	20.65
931.631	245.93
931.807	-81.75
931.983	-24.4
932.159	-65.36
932.335	303.27
932.511	102.57
932.687	24.75
932.863	364.71
933.039	245.93
933.215	-139.09
933.391	-114.52
933.566	159.91
933.742	342.18
933.918	82.09
934.094	-75.6
934.27	231.59
934.445	346.28
934.621	100.52
934.797	-18.26
934.973	434.34
935.148	313.51
935.324	-135
935.5	-253.78
935.675	469.16
935.851	360.61
936.027	143.53
936.202	57.51
936.378	313.51
936.553	176.3
936.729	407.72
936.904	-36.69
937.08	55.47
937.255	161.96
937.431	-104.28
937.606	-89.94
937.782	157.86
937.957	235.69
938.133	82.09
938.308	-55.12
938.483	188.58
938.659	-14.17
938.834	16.55
939.009	-79.7
939.185	155.82
939.36	26.79
939.535	-319.31
939.71	82.09
939.886	465.06
940.061	352.42
940.236	143.53
940.411	-96.08
940.586	356.52
940.761	317.61
940.937	73.9
941.112	-81.75
941.287	241.83
941.462	204.97
941.637	-163.67
941.812	-36.69
941.987	315.56
942.162	258.21
942.337	8.36
942.512	-53.08
942.687	417.96
942.862	454.82
943.037	-48.98
943.212	-286.54
943.386	147.62
943.561	198.82
943.736	164.01
943.911	116.9
944.086	368.81
944.26	319.65
944.435	-8.02
944.61	131.24
944.785	540.83
944.959	632.99
945.134	84.14
945.309	-139.09
945.483	12.46
945.658	487.59
945.833	-278.35
946.007	-143.19
946.182	477.35
946.357	82.09
946.531	-87.89
946.706	-87.89
946.88	-266.07
947.055	321.7
947.229	-10.07
947.404	-42.84
947.578	436.39
947.752	57.51
947.927	-221.01
948.101	-261.97
948.276	141.48
948.45	262.31
948.624	41.13
948.799	-155.47
948.973	213.16
949.147	10.41
949.321	-48.98
949.496	-118.61
949.67	374.95
949.844	71.85
950.018	-128.85
950.193	-114.52
950.367	639.14
950.541	129.19
950.715	32.94
950.889	123.05
951.063	61.61
951.237	323.75
951.411	-286.54
951.585	-284.5
951.759	192.68
951.933	164.01
952.107	-112.47
952.281	137.38
952.455	538.79
952.629	387.24
952.803	-106.32
952.977	-42.84
953.151	266.41
953.325	311.46
953.499	92.33
953.672	-180.05
953.846	-85.84
954.02	49.32
954.194	-198.48
954.368	-98.13
954.541	374.95
954.715	71.85
954.889	24.75
955.062	-126.8
955.236	82.09
955.41	108.71
955.583	153.77
955.757	-221.01
955.93	32.94
956.104	-118.61
956.278	-114.52
956.451	-5.97
956.625	237.74
956.798	559.27
956.972	57.51
957.145	-161.62
957.319	207.02
957.492	127.14
957.665	90.28
957.839	-65.36
958.012	258.21
958.185	20.65
958.359	-51.03
958.532	143.53
958.705	426.15
958.879	252.07
959.052	-53.08
959.225	-210.77
959.398	143.53
959.572	110.76
959.745	-149.33
959.918	-42.84
960.091	45.23
960.264	223.4
960.438	-200.53
960.611	-128.85
960.784	315.56
960.957	61.61
961.13	235.69
961.303	-122.71
961.476	104.62
961.649	389.28
961.822	-278.35
961.995	-10.07
962.168	303.27
962.341	139.43
962.514	-38.74
962.686	-118.61
962.859	145.58
963.032	250.02
963.205	-186.19
963.378	-296.78
963.551	237.74
963.723	262.31
963.896	94.38
964.069	77.99
964.242	139.43
964.414	321.7
964.587	32.94
964.76	-40.79
964.932	139.43
965.105	116.9
965.278	-89.94
965.45	-83.8
965.623	223.4
965.795	329.89
965.968	-38.74
966.14	-114.52
966.313	161.96
966.485	151.72
966.658	-57.17
966.83	-163.67
967.003	434.34
967.175	362.66
967.348	-196.43
967.52	-14.17
967.692	420
967.865	272.55
968.037	-102.23
968.209	241.83
968.382	41.13
968.554	401.57
968.726	-110.42
968.898	-128.85
969.071	110.76
969.243	229.54
969.415	-10.07
969.587	-36.69
969.759	596.13
969.932	370.85
970.104	-40.79
970.276	-294.74
970.448	8.36
970.62	-20.31
970.792	94.38
970.964	-36.69
971.136	606.37
971.308	178.34
971.48	-87.89
971.652	-159.57
971.824	503.97
971.996	-24.4
972.168	-20.31
972.339	-55.12
972.511	399.52
972.683	34.99
972.855	172.2
973.027	-108.37
973.199	116.9
973.37	274.6
973.542	102.57
973.714	49.32
973.886	237.74
974.057	354.47
974.229	-249.68
974.401	-128.85
974.572	41.13
974.744	-229.2
974.915	-159.57
975.087	-192.34
975.259	417.96
975.43	77.99
975.602	-77.65
975.773	-194.39
975.945	-14.17
976.116	327.85
976.288	-169.81
976.459	18.6
976.63	80.04
976.802	204.97
976.973	-69.46
977.145	80.04
977.316	563.36
977.487	149.67
977.659	71.85
977.83	-40.79
978.001	516.26
978.172	131.24
978.344	-114.52
978.515	-55.12
978.686	8.36
978.857	491.68
979.028	-94.04
979.2	-128.85
979.371	428.2
979.542	211.11
979.713	106.67
979.884	-458.57
980.055	-44.88
980.226	77.99
980.397	-153.43
980.568	-149.33
980.739	333.99
980.91	80.04
981.081	143.53
981.252	-122.71
981.423	270.5
981.594	362.66
981.765	-196.43
981.936	26.79
982.106	174.25
982.277	460.96
982.448	-135
982.619	94.38
982.79	80.04
982.96	354.47
983.131	-48.98
983.302	-282.45
983.472	18.6
983.643	184.49
983.814	75.95
983.984	-175.95
984.155	86.19
984.326	352.42
984.496	-51.03
984.667	-192.34
984.837	88.23
985.008	415.91
985.178	86.19
985.349	-67.41
985.519	145.58
985.69	-18.26
985.86	-81.75
986.031	-102.23
986.201	180.39
986.371	313.51
986.542	-161.62
986.712	-247.63
986.882	338.09
987.053	270.5
987.223	-198.48
987.393	49.32
987.563	80.04
987.734	391.33
987.904	215.21
988.074	-114.52
988.244	161.96
988.414	77.99
988.585	-112.47
988.755	-5.97
988.925	110.76
989.095	503.97
989.265	-132.95
989.435	-44.88
989.605	319.65
989.775	290.98
989.945	102.57
990.115	-171.86
990.285	135.34
990.455	270.5
990.625	-51.03
990.795	-175.95
990.965	389.28
991.134	-32.6
991.304	-167.76
991.474	-104.28
991.644	188.58
991.814	534.69
991.984	-243.54
992.153	-171.86
992.323	112.81
992.493	73.9
992.662	-323.41
992.832	-10.07
993.002	155.82
993.171	178.34
993.341	-206.67
993.511	18.6
993.68	18.6
993.85	252.07
994.019	-247.63
994.189	-130.9
994.358	121
994.528	94.38
994.697	-315.22
994.867	-221.01
995.036	342.18
995.206	10.41
995.375	-175.95
995.544	51.37
995.714	213.16
995.883	116.9
996.052	-16.21
996.222	-364.37
996.391	606.37
996.56	200.87
996.73	-200.53
996.899	-276.31
997.068	403.62
997.237	143.53
997.406	-135
997.576	-216.91
997.745	217.26
997.914	245.93
998.083	-343.89
998.252	-151.38
998.421	186.54
998.59	-48.98
998.759	-268.11
998.928	-319.31
999.097	417.96
999.266	280.74
999.435	-77.65
999.604	-214.87
999.773	600.23
999.942	84.14
1000.111	-327.5
1000.28	-358.22
1000.448	-112.47
1000.617	-178
1000.786	-81.75
1000.955	-216.91
1001.124	149.67
1001.292	688.29
1001.461	-221.01
1001.63	-243.54
1001.798	463.01
1001.967	420
1002.136	-286.54
1002.304	-239.44
1002.473	209.06
1002.642	190.63
1002.81	-151.38
1002.979	-282.45
1003.147	258.21
1003.316	686.24
1003.484	-261.97
1003.653	-251.73
1003.821	344.23
1003.99	94.38
1004.158	-18.26
1004.327	-89.94
1004.495	241.83
1004.663	-124.76
1004.832	-18.26
1005	-288.59
1005.168	258.21
1005.337	174.25
1005.505	-313.17
1005.673	0.17
1005.842	311.46
1006.01	282.79
1006.178	-327.5
1006.346	-184.15
1006.514	143.53
1006.683	342.18
1006.851	-204.63
1007.019	-401.23
1007.187	-63.32
1007.355	-276.31
1007.523	-364.37
1007.691	-323.41
1007.859	-249.68
1008.027	420
1008.195	-194.39
1008.363	-276.31
1008.531	239.78
1008.699	57.51
1008.867	-261.97
1009.035	-141.14
1009.203	333.99
1009.37	57.51
1009.538	-143.19
1009.706	266.41
1009.874	297.13
1010.042	63.66
1010.209	-360.27
1010.377	-304.98
1010.545	450.72
1010.713	51.37
1010.88	-196.43
1011.048	-221.01
1011.216	-118.61
1011.383	301.22
1011.551	-309.07
1011.718	-390.99
1011.886	385.19
1012.054	75.95
1012.221	-302.93
1012.389	-290.64
1012.556	-10.07
1012.724	485.54
1012.891	-83.8
1013.058	-368.46
1013.226	282.79
1013.393	192.68
1013.561	-327.5
1013.728	-360.27
1013.895	319.65
1014.063	262.31
1014.23	-347.98
1014.397	-261.97
1014.565	307.37
1014.732	37.03
1014.899	-282.45
1015.066	-358.22
1015.233	118.95
1015.401	221.35
1015.568	-126.8
1015.735	-126.8
1015.902	67.75
1016.069	190.63
1016.236	-229.2
1016.403	-331.6
1016.57	-26.45
1016.737	321.7
1016.904	-218.96
1017.071	-362.32
1017.238	-40.79
1017.405	278.69
1017.572	-214.87
1017.739	-94.04
1017.906	170.15
1018.073	264.36
1018.24	-280.4
1018.407	-175.95
1018.573	397.48
1018.74	123.05
1018.907	-192.34
1019.074	-323.41
1019.241	366.76
1019.407	102.57
1019.574	-171.86
1019.741	-298.83
1019.907	221.35
1020.074	125.1
1020.241	-409.42
1020.407	-331.6
1020.574	309.41
1020.74	225.45
1020.907	-188.24
1021.073	-286.54
1021.24	602.27
1021.406	413.86
1021.573	-300.88
1021.739	-245.59
1021.906	245.93
1022.072	153.77
1022.239	-235.35
1022.405	-196.43
1022.571	180.39
1022.738	-12.12
1022.904	-292.69
1023.07	-237.39
1023.237	211.11
1023.403	436.39
1023.569	-245.59
1023.735	-268.11
1023.902	149.67
1024.068	147.62
1024.234	-302.93
1024.4	-288.59
1024.566	233.64
1024.732	245.93
1024.898	-216.91
1025.065	-352.08
1025.231	338.09
1025.397	77.99
1025.563	-194.39
1025.729	-315.22
1025.895	-300.88
1026.061	-120.66
1026.227	-399.18
1026.392	-261.97
1026.558	403.62
1026.724	213.16
1026.89	-323.41
1027.056	-159.57
1027.222	239.78
1027.388	32.94
1027.553	-253.78
1027.719	-216.91
1027.885	520.35
1028.051	319.65
1028.216	-450.38
1028.382	-249.68
1028.548	327.85
1028.713	4.27
1028.879	-311.12
1029.045	-83.8
1029.21	434.34
1029.376	389.28
1029.541	-192.34
1029.707	-100.18
1029.873	252.07
1030.038	270.5
1030.204	-257.87
1030.369	-161.62
1030.534	290.98
1030.7	-20.31
1030.865	-210.77
1031.031	-329.55
1031.196	225.45
1031.361	270.5
1031.527	-212.82
1031.692	-278.35
1031.857	-311.12
1032.023	311.46
1032.188	-257.87
1032.353	-229.2
1032.518	471.2
1032.684	254.12
1032.849	-368.46
1033.014	-104.28
1033.179	309.41
1033.344	270.5
1033.509	-169.81
1033.674	-280.4
1033.839	393.38
1034.004	245.93
1034.17	-278.35
1034.335	-214.87
1034.5	145.58
1034.664	-8.02
1034.829	-298.83
1034.994	-130.9
1035.159	176.3
1035.324	245.93
1035.489	-245.59
1035.654	-253.78
1035.819	499.88
1035.984	276.65
1036.148	-98.13
1036.313	-216.91
1036.478	346.28
1036.643	237.74
1036.807	-198.48
1036.972	-333.65
1037.137	456.87
1037.301	131.24
1037.466	-309.07
1037.631	-175.95
1037.795	358.57
1037.96	223.4
1038.124	-8.02
1038.289	-304.98
1038.454	303.27
1038.618	278.69
1038.783	-184.15
1038.947	-77.65
1039.111	284.84
1039.276	45.23
1039.44	-233.3
1039.605	211.11
1039.769	123.05
1039.933	250.02
1040.098	-135
1040.262	71.85
1040.426	354.47
1040.591	311.46
1040.755	-245.59
1040.919	-182.1
1041.083	258.21
1041.248	125.1
1041.412	-374.61
1041.576	-270.16
1041.74	196.78
1041.904	268.45
1042.068	-249.68
1042.232	-135
1042.397	366.76
1042.561	293.03
1042.725	-401.23
1042.889	-42.84
1043.053	368.81
1043.217	295.08
1043.381	-104.28
1043.544	-382.8
1043.708	417.96
1043.872	-65.36
1044.036	-382.8
1044.2	-366.42
1044.364	442.53
1044.528	563.36
1044.691	3145.85
1044.855	-327.5
1045.019	397.48
1045.183	266.41
1045.346	-237.39
1045.51	-319.31
1045.674	321.7
1045.837	350.37
1046.001	-155.47
1046.165	-245.59
1046.328	733.34
1046.492	325.8
1046.655	-53.08
1046.819	-130.9
1046.983	26.79
1047.146	319.65
1047.31	-85.84
1047.473	-290.64
1047.636	250.02
1047.8	51.37
1047.963	-157.52
1048.127	-200.53
1048.29	69.8
