Data from Ink_Intensity_USB4F045381__131__00131.txt Node

Date: Mon Jul 17 11:19:23 EDT 2023
User: mmckonesweet
Spectrometer: USB4F04538
Trigger mode: 4
Integration Time (sec): 9.000000E-1
Scans to average: 1
Electric dark correction enabled: true
Nonlinearity correction enabled: false
Boxcar width: 0
XAxis mode: Wavelengths
Number of Pixels in Spectrum: 3648
>>>>>Begin Spectral Data<<<<<
345.52	-1067.33
345.736	-1067.33
345.952	-1067.33
346.168	-948.55
346.384	-993.61
346.6	-201.04
346.816	-278.87
347.032	-211.28
347.248	229.03
347.464	-182.61
347.68	-184.66
347.896	75.43
348.112	433.83
348.328	-65.88
348.544	-78.16
348.76	159.4
348.975	304.81
349.191	-172.37
349.407	-123.22
349.623	-12.63
349.839	-59.73
350.055	-194.9
350.27	-8.53
350.486	153.26
350.702	378.53
350.918	208.55
351.133	-180.56
351.349	198.31
351.565	474.79
351.781	-184.66
351.996	-20.82
352.212	372.39
352.428	-88.4
352.644	-145.75
352.859	-221.52
353.075	290.47
353.291	206.5
353.506	-127.32
353.722	-229.71
353.938	-76.12
354.153	442.02
354.369	87.72
354.584	-178.51
354.8	190.12
355.016	-276.82
355.231	-178.51
355.447	-106.84
355.662	122.54
355.878	769.69
356.093	-366.93
356.309	-4.44
356.524	-158.03
356.74	255.65
356.955	-209.23
357.171	-33.11
357.386	177.83
357.602	-205.14
357.817	-112.98
358.033	-176.47
358.248	331.43
358.464	108.2
358.679	-127.32
358.895	-366.93
359.11	-92.5
359.325	337.57
359.541	36.52
359.756	-29.01
359.972	-334.16
360.187	157.35
360.402	-168.27
360.618	-123.22
360.833	958.11
361.048	91.82
361.264	-133.46
361.479	-29.01
361.694	34.47
361.909	161.45
362.125	-180.56
362.34	-176.47
362.555	315.05
362.77	89.77
362.986	-246.1
363.201	-153.94
363.416	177.83
363.631	67.24
363.847	-131.41
364.062	-182.61
364.277	143.02
364.492	48.81
364.707	-160.08
364.922	-305.49
365.138	327.33
365.353	356.01
365.568	-250.19
365.783	-98.64
365.998	81.58
366.213	532.13
366.428	-270.67
366.643	83.63
366.858	245.41
367.073	261.8
367.288	-76.12
367.503	-332.11
367.718	140.97
367.933	288.42
368.148	-254.29
368.363	-31.06
368.578	-43.35
368.793	409.25
369.008	-121.17
369.223	-244.05
369.438	188.07
369.653	319.14
369.868	-315.73
370.083	-205.14
370.298	69.29
370.513	474.79
370.728	-0.34
370.943	-168.27
371.157	-143.7
371.372	536.23
371.587	-252.24
371.802	-340.3
372.017	46.76
372.232	454.31
372.446	-86.36
372.661	-317.78
372.876	181.93
373.091	147.11
373.306	-155.99
373.52	-186.71
373.735	-131.41
373.95	376.48
374.165	-125.27
374.379	-131.41
374.594	-178.51
374.809	91.82
375.023	52.91
375.238	-250.19
375.453	247.46
375.667	-266.58
375.882	-209.23
376.097	-139.6
376.311	65.19
376.526	-67.92
376.741	-330.06
376.955	52.91
377.17	554.66
377.384	599.71
377.599	-129.36
377.813	-295.25
378.028	487.08
378.242	124.58
378.457	-67.92
378.672	-397.65
378.886	-20.82
379.101	-24.92
379.315	-305.49
379.53	-172.37
379.744	210.6
379.958	216.74
380.173	-201.04
380.387	-221.52
380.602	122.54
380.816	-33.11
381.031	-160.08
381.245	-63.83
381.459	269.99
381.674	2662.02
381.888	-168.27
382.103	7.85
382.317	-196.95
382.531	472.74
382.746	-119.12
382.96	-143.7
383.174	-123.22
383.388	405.16
383.603	69.29
383.817	-262.48
384.031	106.15
384.246	521.89
384.46	-24.92
384.674	310.95
384.888	57
385.103	169.64
385.317	-338.26
385.531	-82.26
385.745	315.05
385.959	313
386.174	-260.43
386.388	-248.15
386.602	16.04
386.816	-162.13
387.03	-57.68
387.244	-196.95
387.458	108.2
387.672	360.1
387.887	-266.58
388.101	-217.43
388.315	433.83
388.529	140.97
388.743	-190.8
388.957	-323.92
389.171	372.39
389.385	-209.23
389.599	-201.04
389.813	-33.11
390.027	134.82
390.241	624.29
390.455	-117.08
390.669	-160.08
390.883	-129.36
391.097	368.29
391.311	48.81
391.525	-121.17
391.738	171.69
391.952	130.73
392.166	-6.49
392.38	-289.1
392.594	267.94
392.808	300.71
393.022	-137.56
393.236	-160.08
393.449	204.46
393.663	122.54
393.877	-328.02
394.091	-106.84
394.305	-4.44
394.518	-4.44
394.732	-319.82
394.946	-82.26
395.16	376.48
395.373	179.88
395.587	-227.67
395.801	-141.65
396.015	278.18
396.228	216.74
396.442	-260.43
396.656	-344.4
396.869	351.91
397.083	435.88
397.297	-39.25
397.51	-139.6
397.724	347.81
397.938	77.48
398.151	-282.96
398.365	-280.91
398.578	161.45
398.792	317.09
399.005	-43.35
399.219	-102.74
399.433	126.63
399.646	233.13
399.86	75.43
400.073	3.75
400.287	257.7
400.5	-37.2
400.714	-61.78
400.927	-104.79
401.141	194.22
401.354	1117.85
401.567	204.46
401.781	-246.1
401.994	257.7
402.208	591.52
402.421	-168.27
402.635	-57.68
402.848	9.9
403.061	255.65
403.275	-74.07
403.488	-172.37
403.701	446.12
403.915	222.89
404.128	-0.34
404.341	-110.93
404.555	257.7
404.768	18.09
404.981	-72.02
405.195	-223.57
405.408	419.49
405.621	284.33
405.834	20.14
406.048	-254.29
406.261	407.2
406.474	452.26
406.687	-188.75
406.9	-41.3
407.114	11.95
407.327	200.36
407.54	-311.63
407.753	-266.58
407.966	-168.27
408.179	294.57
408.392	-201.04
408.605	-268.63
408.819	157.35
409.032	216.74
409.245	-217.43
409.458	-16.73
409.671	206.5
409.884	181.93
410.097	-260.43
410.31	-8.53
410.523	140.97
410.736	73.39
410.949	-31.06
411.162	-61.78
411.375	425.64
411.588	269.99
411.801	-8.53
412.014	-188.75
412.227	40.62
412.44	48.81
412.653	-168.27
412.865	-8.53
413.078	208.55
413.291	175.78
413.504	-123.22
413.717	-207.19
413.93	243.37
414.143	-176.47
414.356	-135.51
414.568	-307.54
414.781	310.95
414.994	118.44
415.207	-110.93
415.42	-57.68
415.632	294.57
415.845	558.75
416.058	-285.01
416.271	-211.28
416.483	50.86
416.696	517.79
416.909	-119.12
417.121	-215.38
417.334	214.7
417.547	462.5
417.759	-190.8
417.972	-278.87
418.185	-12.63
418.397	253.61
418.61	-219.47
418.823	-164.18
419.035	360.1
419.248	75.43
419.46	-96.6
419.673	-53.59
419.885	206.5
420.098	69.29
420.311	-98.64
420.523	-325.97
420.736	192.17
420.948	95.91
421.161	-178.51
421.373	-405.84
421.586	136.87
421.798	-39.25
422.01	-205.14
422.223	-119.12
422.435	-115.03
422.648	212.65
422.86	-145.75
423.073	-110.93
423.285	292.52
423.497	-141.65
423.71	-221.52
423.922	-184.66
424.134	132.78
424.347	362.15
424.559	-29.01
424.771	48.81
424.984	-0.34
425.196	91.82
425.408	-278.87
425.621	-305.49
425.833	302.76
426.045	323.24
426.257	-262.48
426.47	-233.81
426.682	196.26
426.894	161.45
427.106	-213.33
427.318	-244.05
427.531	-49.49
427.743	247.46
427.955	-264.53
428.167	147.11
428.379	286.37
428.591	50.86
428.804	-82.26
429.016	-213.33
429.228	-22.87
429.44	155.3
429.652	-57.68
429.864	-301.39
430.076	46.76
430.288	63.15
430.5	-115.03
430.712	-100.69
430.924	356.01
431.136	118.44
431.348	-389.46
431.56	-233.81
431.772	22.19
431.984	24.23
432.196	-205.14
432.408	-211.28
432.62	-16.73
432.832	167.59
433.044	116.39
433.256	-61.78
433.468	237.22
433.679	-289.1
433.891	-289.1
434.103	79.53
434.315	446.12
434.527	243.37
434.739	-104.79
434.95	-125.27
435.162	282.28
435.374	-43.35
435.586	-127.32
435.798	-192.85
436.009	-215.38
436.221	52.91
436.433	-166.23
436.645	-98.64
436.856	-31.06
437.068	358.05
437.28	-225.62
437.491	120.49
437.703	173.74
437.915	179.88
438.126	-160.08
438.338	59.05
438.55	52.91
438.761	222.89
438.973	-135.51
439.184	-174.42
439.396	188.07
439.608	251.56
439.819	-360.78
440.031	-53.59
440.242	253.61
440.454	278.18
440.665	-188.75
440.877	-129.36
441.088	165.54
441.3	-8.53
441.511	-270.67
441.723	-250.19
441.934	190.12
442.146	20.14
442.357	1.71
442.569	106.15
442.78	7.85
442.991	464.55
443.203	100.01
443.414	-250.19
443.626	478.88
443.837	-147.8
444.048	-297.3
444.26	-278.87
444.471	124.58
444.682	265.89
444.894	-440.65
445.105	-278.87
445.316	214.7
445.528	220.84
445.739	-82.26
445.95	-188.75
446.161	126.63
446.373	347.81
446.584	-145.75
446.795	-188.75
447.006	290.47
447.217	435.88
447.429	-356.69
447.64	-291.15
447.851	284.33
448.062	188.07
448.273	-344.4
448.484	-131.41
448.695	130.73
448.907	54.95
449.118	-125.27
449.329	-31.06
449.54	-108.88
449.751	-94.55
449.962	-221.52
450.173	-184.66
450.384	343.72
450.595	386.72
450.806	-176.47
451.017	-162.13
451.228	480.93
451.439	337.57
451.65	-135.51
451.861	-332.11
452.072	-162.13
452.283	151.21
452.494	-4.44
452.705	-217.43
452.915	489.12
453.126	186.02
453.337	-213.33
453.548	-268.63
453.759	327.33
453.97	476.84
454.181	11.95
454.391	-153.94
454.602	97.96
454.813	183.98
455.024	-78.16
455.235	-188.75
455.445	163.5
455.656	151.21
455.867	67.24
456.078	-172.37
456.288	81.58
456.499	155.3
456.71	-180.56
456.921	57
457.131	169.64
457.342	91.82
457.553	-127.32
457.763	-205.14
457.974	290.47
458.184	290.47
458.395	-270.67
458.606	-254.29
458.816	327.33
459.027	446.12
459.237	-24.92
459.448	-409.94
459.659	327.33
459.869	753.31
460.08	-301.39
460.29	-65.88
460.501	515.75
460.711	-65.88
460.922	-272.72
461.132	-209.23
461.343	626.34
461.553	-221.52
461.764	-235.86
461.974	-205.14
462.184	198.31
462.395	237.22
462.605	-145.75
462.816	-219.47
463.026	222.89
463.236	378.53
463.447	-252.24
463.657	-254.29
463.867	165.54
464.078	65.19
464.288	-151.89
464.498	-244.05
464.709	116.39
464.919	26.28
465.129	-184.66
465.339	-190.8
465.55	286.37
465.76	323.24
465.97	-112.98
466.18	-170.32
466.391	286.37
466.601	134.82
466.811	-112.98
467.021	-254.29
467.231	163.5
467.441	349.86
467.651	-153.94
467.862	-416.08
468.072	85.67
468.282	368.29
468.492	-211.28
468.702	-201.04
468.912	110.25
469.122	659.1
469.332	69.29
469.542	-254.29
469.752	251.56
469.962	83.63
470.172	-219.47
470.382	-186.71
470.592	247.46
470.802	452.26
471.012	-16.73
471.222	-160.08
471.432	286.37
471.642	269.99
471.852	-45.4
472.062	-229.71
472.272	67.24
472.482	-129.36
472.691	-231.76
472.901	-340.3
473.111	143.02
473.321	568.99
473.531	-280.91
473.741	-102.74
473.95	278.18
474.16	253.61
474.37	-67.92
474.58	-313.68
474.79	536.23
474.999	233.13
475.209	-221.52
475.419	-115.03
475.628	36.52
475.838	392.87
476.048	-106.84
476.258	-205.14
476.467	519.84
476.677	24.23
476.886	52.91
477.096	-115.03
477.306	-76.12
477.515	427.68
477.725	-84.31
477.935	-43.35
478.144	378.53
478.354	-22.87
478.563	-139.6
478.773	-172.37
478.982	276.13
479.192	339.62
479.401	7.85
479.611	-258.39
479.82	-80.21
480.03	200.36
480.239	-203.09
480.449	-274.77
480.658	501.41
480.868	-8.53
481.077	-43.35
481.287	-31.06
481.496	208.55
481.705	519.84
481.915	188.07
482.124	87.72
482.333	272.04
482.543	462.5
482.752	-37.2
482.961	-186.71
483.171	313
483.38	194.22
483.589	-69.97
483.799	-145.75
484.008	138.92
484.217	356.01
484.426	-63.83
484.636	-233.81
484.845	298.66
485.054	-88.4
485.263	120.49
485.472	-57.68
485.682	478.88
485.891	261.8
486.1	-285.01
486.309	-123.22
486.518	321.19
486.727	499.36
486.936	-180.56
487.146	-4.44
487.355	550.56
487.564	-110.93
487.773	-86.36
487.982	-78.16
488.191	73.39
488.4	173.74
488.609	-106.84
488.818	-55.64
489.027	704.16
489.236	482.98
489.445	16.04
489.654	-119.12
489.863	458.4
490.072	143.02
490.281	210.6
490.49	7.85
490.698	444.07
490.907	579.23
491.116	-39.25
491.325	-178.51
491.534	577.19
491.743	245.41
491.952	1.71
492.16	-39.25
492.369	263.85
492.578	431.78
492.787	100.01
492.996	-223.57
493.204	120.49
493.413	612
493.622	-262.48
493.831	-254.29
494.039	499.36
494.248	3.75
494.457	-98.64
494.665	-270.67
494.874	405.16
495.083	675.49
495.291	65.19
495.5	-121.17
495.709	405.16
495.917	267.94
496.126	16.04
496.335	-33.11
496.543	173.74
496.752	310.95
496.96	169.64
497.169	-188.75
497.377	325.29
497.586	525.99
497.794	91.82
498.003	-196.95
498.211	241.32
498.42	560.8
498.628	40.62
498.837	-63.83
499.045	390.82
499.254	267.94
499.462	-22.87
499.671	-61.78
499.879	741.02
500.087	448.16
500.296	-6.49
500.504	-33.11
500.713	353.96
500.921	786.08
501.129	18.09
501.338	11.95
501.546	413.35
501.754	323.24
501.962	11.95
502.171	-26.96
502.379	413.35
502.587	704.16
502.795	91.82
503.004	30.38
503.212	298.66
503.42	542.37
503.628	50.86
503.837	73.39
504.045	499.36
504.253	630.43
504.461	3.75
504.669	-172.37
504.877	384.68
505.085	716.45
505.294	-115.03
505.502	239.27
505.71	304.81
505.918	530.08
506.126	-86.36
506.334	-12.63
506.542	261.8
506.75	362.15
506.958	83.63
507.166	63.15
507.374	181.93
507.582	728.74
507.79	126.63
507.998	65.19
508.206	394.92
508.414	464.55
508.622	9.9
508.83	122.54
509.037	792.22
509.245	181.93
509.453	-16.73
509.661	-84.31
509.869	499.36
510.077	192.17
510.285	151.21
510.492	-153.94
510.7	921.24
510.908	323.24
511.116	83.63
511.324	57
511.531	378.53
511.739	388.77
511.947	216.74
512.155	345.77
512.362	405.16
512.57	116.39
512.778	24.23
512.985	-53.59
513.193	628.39
513.401	741.02
513.608	165.54
513.816	73.39
514.024	509.6
514.231	671.39
514.439	124.58
514.646	50.86
514.854	630.43
515.061	706.21
515.269	-31.06
515.477	130.73
515.684	196.26
515.892	607.91
516.099	-51.54
516.307	-6.49
516.514	544.42
516.722	806.56
516.929	175.78
517.136	3.75
517.344	755.36
517.551	556.71
517.759	-8.53
517.966	134.82
518.173	333.48
518.381	403.11
518.588	255.65
518.796	126.63
519.003	607.91
519.21	519.84
519.418	134.82
519.625	421.54
519.832	409.25
520.039	546.47
520.247	-65.88
520.454	181.93
520.661	702.11
520.868	620.19
521.076	247.46
521.283	224.94
521.49	1070.75
521.697	585.38
521.904	186.02
522.112	130.73
522.319	679.58
522.526	573.09
522.733	179.88
522.94	143.02
523.147	540.32
523.354	726.69
523.561	100.01
523.768	331.43
523.975	794.27
524.183	530.08
524.39	278.18
524.597	36.52
524.804	417.44
525.011	284.33
525.218	200.36
525.425	147.11
525.632	927.39
525.838	358.05
526.045	259.75
526.252	202.41
526.459	1572.5
526.666	1298.07
526.873	214.7
527.08	179.88
527.287	792.22
527.494	736.93
527.701	159.4
527.907	161.45
528.114	685.73
528.321	491.17
528.528	249.51
528.735	341.67
528.941	460.45
529.148	421.54
529.355	288.42
529.562	210.6
529.768	900.76
529.975	446.12
530.182	284.33
530.388	269.99
530.595	841.37
530.802	321.19
531.008	401.06
531.215	327.33
531.422	984.73
531.628	1334.93
531.835	321.19
532.042	423.59
532.248	452.26
532.455	642.72
532.661	269.99
532.868	298.66
533.074	751.26
533.281	884.38
533.487	392.87
533.694	306.85
533.9	372.39
534.107	741.02
534.313	263.85
534.52	183.98
534.726	796.32
534.933	1048.22
535.139	337.57
535.345	327.33
535.552	753.31
535.758	722.59
535.965	425.64
536.171	360.1
536.377	818.85
536.584	1040.03
536.79	384.68
536.996	431.78
537.203	747.17
537.409	732.83
537.615	425.64
537.821	544.42
538.028	884.38
538.234	798.37
538.44	349.86
538.646	466.6
538.853	769.69
539.059	695.97
539.265	814.75
539.471	175.78
539.677	927.39
539.883	675.49
540.09	411.3
540.296	927.39
540.502	650.91
540.708	532.13
540.914	620.19
541.12	480.93
541.326	804.51
541.532	775.84
541.738	581.28
541.944	540.32
542.15	880.29
542.356	655.01
542.562	505.51
542.768	550.56
542.974	1324.69
543.18	1334.93
543.386	458.4
543.592	296.61
543.798	1187.48
544.004	958.11
544.21	454.31
544.415	540.32
544.621	896.67
544.827	1080.99
545.033	560.8
545.239	802.46
545.445	581.28
545.651	908.96
545.856	351.91
546.062	591.52
546.268	704.16
546.474	847.52
546.679	564.9
546.885	614.05
547.091	704.16
547.297	1361.56
547.502	720.54
547.708	347.81
547.914	673.44
548.119	1003.16
548.325	487.08
548.531	401.06
548.736	1312.41
548.942	695.97
549.147	577.19
549.353	716.45
549.559	1207.96
549.764	1023.64
549.97	589.47
550.175	495.27
550.381	1148.57
550.586	872.09
550.792	704.16
550.997	630.43
551.203	1072.79
551.408	1062.55
551.614	558.75
551.819	661.15
552.025	1379.99
552.23	1386.13
552.435	659.1
552.641	786.08
552.846	886.43
553.052	1302.17
553.257	724.64
553.462	687.78
553.668	732.83
553.873	1189.53
554.078	671.39
554.283	722.59
554.489	1042.07
554.694	902.81
554.899	560.8
555.105	845.47
555.31	1207.96
555.515	1183.38
555.72	818.85
555.925	599.71
556.131	1205.91
556.336	931.48
556.541	794.27
556.746	601.76
556.951	1425.04
557.156	1371.8
557.361	810.65
557.567	878.24
557.772	1603.22
557.977	1263.26
558.182	597.67
558.387	824.99
558.592	896.67
558.797	1416.85
559.002	966.3
559.207	839.33
559.412	1105.56
559.617	1515.16
559.822	677.54
560.027	736.93
560.232	1105.56
560.437	1171.1
560.642	773.79
560.847	751.26
561.051	1072.79
561.256	1167
561.461	822.94
561.666	781.98
561.871	1191.58
562.076	1277.59
562.281	908.96
562.485	765.6
562.69	1386.13
562.895	1439.38
563.1	851.61
563.305	810.65
563.509	1535.64
563.714	1666.71
563.919	796.32
564.123	861.85
564.328	1152.67
564.533	1482.39
564.737	880.29
564.942	911
565.147	1560.21
565.351	1726.1
565.556	1070.75
565.761	1056.41
565.965	1250.97
566.17	1031.83
566.374	1044.12
566.579	802.46
566.784	1271.45
566.988	1140.38
567.193	798.37
567.397	958.11
567.602	997.02
567.806	1240.73
568.011	982.68
568.215	1005.21
568.42	1179.29
568.624	1306.26
568.828	949.92
569.033	1255.06
569.237	1445.52
569.442	1408.66
569.646	777.89
569.85	1089.18
570.055	1296.02
570.259	1394.33
570.463	1228.44
570.668	1121.95
570.872	1273.5
571.076	1306.26
571.281	1244.82
571.485	1177.24
571.689	1353.37
571.893	1556.11
572.098	1197.72
572.302	1105.56
572.506	1552.02
572.71	1345.17
572.914	1152.67
573.119	1099.42
573.323	1685.14
573.527	1599.12
573.731	1066.65
573.935	1093.27
574.139	1379.99
574.343	1205.91
574.547	1156.76
574.751	1164.95
574.955	1781.39
575.159	1750.67
575.364	1101.47
575.568	988.83
575.772	1459.86
575.976	1719.95
576.18	1275.54
576.383	1103.51
576.587	1775.25
576.791	1572.5
576.995	898.72
577.199	1087.13
577.403	1660.56
577.607	1724.05
577.811	1144.47
578.015	1314.45
578.219	1541.78
578.422	1681.04
578.626	1152.67
578.83	1449.62
579.034	1803.92
579.238	1515.16
579.442	1232.54
579.645	1572.5
579.849	1539.73
580.053	1633.94
580.257	1255.06
580.46	1427.09
580.664	1699.47
580.868	1650.32
581.071	1451.67
581.275	1453.72
581.479	1326.74
581.682	1832.59
581.886	1269.4
582.09	1328.79
582.293	1818.25
582.497	1762.96
582.7	1531.54
582.904	1244.82
583.107	1705.62
583.311	1646.23
583.515	1466
583.718	1404.57
583.922	1750.67
584.125	2182.79
584.329	1291.93
584.532	1523.35
584.735	2137.74
584.939	1791.63
585.142	1236.63
585.346	1285.78
585.549	1777.3
585.753	1588.88
585.956	1543.83
586.159	1513.11
586.363	2039.44
586.566	1826.45
586.769	1377.94
586.973	1367.7
587.176	1760.91
587.379	2031.24
587.582	1816.21
587.786	1756.82
587.989	1726.1
588.192	2434.69
588.395	1728.14
588.599	1855.12
588.802	1875.6
589.005	2027.15
589.208	1549.97
589.411	1623.7
589.615	2084.49
589.818	2117.26
590.021	1908.37
590.224	1683.09
590.427	2035.34
590.63	2098.83
590.833	1410.71
591.036	1486.48
591.239	1748.62
591.442	1781.39
591.645	1939.09
591.848	1816.21
592.051	1984.14
592.254	2188.94
592.457	1818.25
592.66	1668.75
592.863	1814.16
593.066	2047.63
593.269	1713.81
593.472	1678.99
593.675	1765.01
593.878	2182.79
594.081	1769.1
594.284	1592.98
594.486	2121.35
594.689	1934.99
594.892	1748.62
595.095	1801.87
595.298	2174.6
595.5	1871.5
595.703	1857.17
595.906	1959.56
596.109	2289.29
596.311	2248.33
596.514	1560.21
596.717	1838.73
596.92	2379.4
597.122	2178.7
597.325	1543.83
597.528	1777.3
597.73	2440.84
597.933	2123.4
598.136	1830.54
598.338	1453.72
598.541	2229.9
598.743	2387.59
598.946	1947.28
599.148	1937.04
599.351	2524.8
599.554	2264.71
599.756	1928.85
599.959	1934.99
600.161	2440.84
600.363	2700.93
600.566	2158.22
600.768	2018.96
600.971	2596.48
601.173	2236.04
601.376	2002.57
601.578	2072.2
601.78	2449.03
601.983	2737.79
602.185	2027.15
602.388	2154.12
602.59	2463.37
602.792	2186.89
602.995	2168.46
603.197	1982.09
603.399	2559.62
603.601	2338.44
603.804	2027.15
604.006	2037.39
604.208	2229.9
604.41	1824.4
604.613	2215.56
604.815	1990.28
605.017	2932.35
605.219	2088.59
605.421	2483.84
605.623	2150.03
605.826	2733.7
606.028	2756.22
606.23	2018.96
606.432	2133.64
606.634	2778.75
606.836	2705.03
607.038	2002.57
607.24	2301.58
607.442	2412.17
607.644	2494.08
607.846	2283.14
608.048	2090.63
608.25	2780.8
608.452	2260.62
608.654	2072.2
608.856	1853.07
609.058	2369.16
609.26	2510.47
609.462	2223.75
609.664	2195.08
609.866	3073.66
610.067	2592.39
610.269	2338.44
610.471	2350.73
610.673	2449.03
610.875	2678.4
611.077	2107.02
611.278	2297.48
611.48	2623.11
611.682	2969.21
611.884	2377.35
612.085	2426.5
612.287	2391.69
612.489	2719.36
612.69	2117.26
612.892	2420.36
613.094	2678.4
613.295	2653.83
613.497	2186.89
613.699	2270.86
613.9	3012.22
614.102	2819.71
614.304	2500.23
614.505	2272.9
614.707	2633.35
614.908	2612.87
615.11	2182.79
615.311	2518.66
615.513	2834.05
615.714	2887.29
615.916	2342.53
616.117	2363.01
616.319	2670.21
616.52	2913.92
616.722	2412.17
616.923	2530.95
617.124	2969.21
617.326	2885.25
617.527	2506.37
617.729	2735.74
617.93	2963.07
618.131	2860.67
618.333	2432.65
618.534	2592.39
618.735	2498.18
618.937	3153.53
619.138	2383.49
619.339	2352.77
619.54	2934.4
619.742	2662.02
619.943	2786.94
620.144	2526.85
620.345	3147.39
620.546	3067.52
620.748	2557.57
620.949	2487.94
621.15	2942.59
621.351	2911.87
621.552	2432.65
621.753	2539.14
621.954	2469.51
622.155	3538.55
622.356	2537.09
622.558	2690.69
622.759	2821.76
622.96	3260.02
623.161	2827.9
623.362	2555.52
623.563	2893.44
623.764	2797.18
623.965	2598.53
624.166	2854.53
624.366	2813.57
624.567	3010.17
624.768	2399.88
624.969	2621.06
625.17	2952.83
625.371	3024.51
625.572	2739.84
625.773	2690.69
625.973	3247.74
626.174	3196.54
626.375	2739.84
626.576	2821.76
626.777	3090.04
626.977	3499.64
627.178	2639.49
627.379	2848.38
627.58	2977.41
627.78	3018.36
627.981	2883.2
628.182	2791.04
628.382	3337.85
628.583	2676.35
628.784	2735.74
628.984	2967.17
629.185	3262.07
629.386	3341.94
629.586	2862.72
629.787	2768.51
629.987	3247.74
630.188	3231.35
630.388	2750.08
630.589	2954.88
630.79	3737.2
630.99	3057.28
631.191	3016.32
631.391	2969.21
631.591	3339.9
631.792	3571.32
631.992	3024.51
632.193	3055.23
632.393	3686
632.594	3237.5
632.794	3051.13
632.994	3114.62
633.195	3251.83
633.395	3325.56
633.595	2858.62
633.796	3108.48
633.996	3227.26
634.196	3489.4
634.397	2965.12
634.597	3100.28
634.797	3055.23
634.997	3567.22
635.198	3300.98
635.398	2844.29
635.598	3409.53
635.798	3745.39
635.998	3563.12
636.199	2918.01
636.399	3239.55
636.599	3096.19
636.799	3028.6
636.999	3303.03
637.199	3505.78
637.399	3587.7
637.599	3096.19
637.799	3235.45
637.999	3288.7
638.199	3876.46
638.399	3188.35
638.599	3075.71
638.799	3452.53
638.999	3958.38
639.199	3288.7
639.399	3346.04
639.599	3903.09
639.799	3343.99
639.999	3088
640.199	3059.32
640.399	3526.26
640.599	3481.21
640.799	3358.33
640.998	3542.64
641.198	3829.36
641.398	3688.05
641.598	3503.73
641.798	3260.02
641.997	4615.78
642.197	3569.27
642.397	3313.27
642.597	3276.41
642.796	3626.61
642.996	3886.7
643.196	3348.09
643.395	3198.59
643.595	3751.54
643.795	3382.9
643.994	3401.33
644.194	3520.12
644.394	3853.94
644.593	3931.76
644.793	3317.37
644.992	3735.15
645.192	3688.05
645.392	3313.27
645.591	3419.77
645.791	3440.25
645.99	3821.17
646.19	3567.22
646.389	3554.93
646.589	3327.61
646.788	3792.5
646.987	3862.13
647.187	3886.7
647.386	3788.4
647.586	3759.73
647.785	3870.32
647.984	3481.21
648.184	3589.75
648.383	3628.66
648.582	3659.38
648.782	3726.96
648.981	3638.9
649.18	3597.94
649.38	3800.69
649.579	3655.28
649.778	3587.7
649.977	3927.66
650.177	4021.87
650.376	3493.49
650.575	3763.83
650.774	4255.34
650.973	3841.65
651.173	3563.12
651.372	3796.59
651.571	3976.81
651.77	4161.13
651.969	3710.58
652.168	3784.3
652.367	3634.8
652.566	3882.61
652.765	3743.35
652.964	3948.14
653.163	4429.42
653.362	3894.9
653.561	3796.59
653.76	3657.33
653.959	3845.74
654.158	4136.56
654.357	3866.22
654.556	3724.91
654.755	4208.23
654.954	4327.02
655.153	3892.85
655.352	3886.7
655.551	4359.78
655.749	3923.57
655.948	3835.5
656.147	3882.61
656.346	4218.47
656.545	4165.23
656.743	3982.96
656.942	3948.14
657.141	4134.51
657.34	4021.87
657.538	3974.77
657.737	3862.13
657.936	4146.8
658.135	4324.97
658.333	3923.57
658.532	4120.17
658.731	4730.47
658.929	4443.75
659.128	4331.11
659.326	3874.42
659.525	4398.7
659.724	4195.95
659.922	3862.13
660.121	3991.15
660.319	4300.39
660.518	4003.44
660.716	4128.36
660.915	3923.57
661.113	4695.65
661.312	4097.64
661.51	4165.23
661.709	3978.86
661.907	4447.85
662.105	4742.75
662.304	4157.04
662.502	4195.95
662.701	4580.96
662.899	4308.58
663.097	4480.61
663.296	3952.24
663.494	4572.77
663.692	4638.31
663.891	3972.72
664.089	4017.77
664.287	4484.71
664.485	4724.32
664.684	4177.51
664.882	4062.83
665.08	4382.31
665.278	4566.63
665.476	4079.21
665.675	4529.77
665.873	4802.15
666.071	4726.37
666.269	4134.51
666.467	4464.23
666.665	4603.49
666.863	4404.84
667.061	4308.58
667.259	4120.17
667.457	4669.03
667.655	4730.47
667.853	4173.42
668.051	4468.33
668.249	4349.54
668.447	4742.75
668.645	4206.19
668.843	4488.81
669.041	4632.16
669.239	4398.7
669.437	4339.3
669.635	4404.84
669.833	4431.46
670.031	4877.92
670.229	4394.6
670.426	4437.61
670.624	4417.13
670.822	4370.02
671.02	4197.99
671.218	4509.29
671.415	4390.5
671.613	4630.12
671.811	4615.78
672.009	4490.85
672.206	4796
672.404	4644.45
672.602	4410.98
672.799	4431.46
672.997	4845.15
673.195	5021.28
673.392	4558.44
673.59	4322.92
673.788	4783.71
673.985	4114.03
674.183	4507.24
674.38	4451.94
674.578	4802.15
674.775	4605.54
674.973	4476.52
675.17	4324.97
675.368	5092.96
675.565	4808.29
675.763	4353.64
675.96	4429.42
676.158	4843.1
676.355	4730.47
676.553	4456.04
676.75	4451.94
676.947	4779.62
677.145	4785.76
677.342	4521.57
677.539	4736.61
677.737	4886.11
677.934	5252.7
678.131	4775.52
678.329	4540.01
678.526	5103.2
678.723	4984.41
678.92	4763.23
679.118	4591.2
679.315	4456.04
679.512	5195.36
679.709	4709.99
679.906	4693.6
680.104	5238.36
680.301	4941.41
680.498	4453.99
680.695	4365.93
680.892	4750.95
681.089	4875.87
681.286	4720.23
681.483	4554.34
681.68	5103.2
681.877	5107.29
682.075	4787.81
682.272	4916.83
682.469	5021.28
682.665	4871.78
682.862	4648.55
683.059	4464.23
683.256	5015.13
683.453	4859.49
683.65	4677.22
683.847	4681.32
684.044	4824.67
684.241	4636.26
684.438	4963.93
684.635	4546.15
684.831	5520.98
685.028	5449.3
685.225	4628.07
685.422	4976.22
685.619	5023.33
685.815	4996.7
686.012	4873.82
686.209	4714.08
686.405	4777.57
686.602	5066.33
686.799	4767.33
686.996	4595.3
687.192	4888.16
687.389	5477.98
687.586	4679.27
687.782	4886.11
687.979	5248.6
688.175	5189.21
688.372	4922.98
688.568	4841.06
688.765	4896.35
688.962	5183.07
689.158	4890.21
689.355	4656.74
689.551	5041.76
689.748	4982.37
689.944	4834.91
690.14	4669.03
690.337	5340.76
690.533	4947.55
690.73	4849.25
690.926	4931.17
691.123	5183.07
691.319	5107.29
691.515	4839.01
691.712	4994.65
691.908	5348.95
692.104	5062.24
692.301	5029.47
692.497	4761.19
692.693	5322.33
692.889	5293.66
693.086	5092.96
693.282	4738.66
693.478	5054.05
693.674	5637.72
693.87	4970.08
694.067	4781.67
694.263	5006.94
694.459	5226.07
694.655	5111.39
694.851	5000.8
695.047	5246.55
695.243	5297.75
695.439	5049.95
695.635	4763.23
695.831	5193.31
696.027	5095
696.224	4900.45
696.42	5174.88
696.615	5566.04
696.811	5234.27
697.007	4826.72
697.203	4882.02
697.399	5178.97
697.595	5449.3
697.791	4828.77
697.987	5011.04
698.183	5080.67
698.379	4834.91
698.575	4998.75
698.77	4970.08
698.966	5316.19
699.162	5623.38
699.358	4933.22
699.554	5029.47
699.749	5267.03
699.945	5414.49
700.141	5109.34
700.337	5125.72
700.532	5166.68
700.728	5043.81
700.924	5086.81
701.119	4867.68
701.315	5441.11
701.511	5371.48
701.706	5193.31
701.902	4882.02
702.097	5283.42
702.293	5629.52
702.489	5178.97
702.684	4984.41
702.88	5285.47
703.075	5166.68
703.271	5090.91
703.466	4867.68
703.662	5299.8
703.857	5590.61
704.053	5066.33
704.248	5228.12
704.443	5719.64
704.639	5525.08
704.834	5228.12
705.03	4994.65
705.225	5578.33
705.42	5690.96
705.616	5324.38
705.811	5074.53
706.006	5185.12
706.202	5281.37
706.397	5197.4
706.592	4927.07
706.787	5432.92
706.983	5500.5
707.178	5514.84
707.373	5224.03
707.568	5512.79
707.763	5670.48
707.959	5172.83
708.154	5217.88
708.349	5529.17
708.544	5772.88
708.739	5496.41
708.934	5095
709.129	5553.75
709.324	5779.03
709.519	5185.12
709.714	5109.34
709.909	5686.87
710.104	5477.98
710.299	5248.6
710.494	5154.4
710.689	5533.27
710.884	5441.11
711.079	5303.9
711.274	5439.06
711.469	5766.74
711.664	5394.01
711.859	5183.07
712.054	5443.16
712.249	5760.59
712.443	5779.03
712.638	5178.97
712.833	5283.42
713.028	5553.75
713.223	5588.57
713.417	5549.65
713.612	5400.15
713.807	5602.9
714.002	6180.43
714.196	5553.75
714.391	5351
714.586	5852.75
714.78	5637.72
714.975	5447.26
715.17	5408.34
715.364	5467.74
715.559	5830.23
715.754	4994.65
715.948	5201.5
716.143	6014.54
716.337	5477.98
716.532	5576.28
716.726	5420.63
716.921	5760.59
717.115	6032.97
717.31	5293.66
717.504	5856.85
717.699	5611.09
717.893	5760.59
718.088	5199.45
718.282	5162.59
718.476	5699.16
718.671	5668.44
718.865	5252.7
719.059	5303.9
719.254	5537.37
719.448	5869.14
719.642	6915.65
719.837	5023.33
720.031	5654.1
720.225	5901.9
720.419	5461.59
720.614	5295.71
720.808	5799.51
721.002	5633.62
721.196	5340.76
721.39	5391.96
721.585	5983.82
721.779	5678.68
721.973	5316.19
722.167	5209.69
722.361	5561.94
722.555	5940.82
722.749	5281.37
722.943	5346.91
723.137	5355.1
723.331	5764.69
723.525	5506.65
723.719	5480.02
723.913	5906
724.107	6014.54
724.301	5271.13
724.495	5373.53
724.689	6200.91
724.883	5930.58
725.077	5398.1
725.271	5430.87
725.465	5914.19
725.659	5731.92
725.853	5549.65
726.046	5258.84
726.24	5539.41
726.434	5875.28
726.628	5467.74
726.822	5394.01
727.015	5987.92
727.209	6037.07
727.403	5547.61
727.596	5394.01
727.79	5920.34
727.984	6012.49
728.177	5424.73
728.371	5639.76
728.565	5967.44
728.758	5496.41
728.952	5482.07
729.146	5428.82
729.339	5969.49
729.533	5678.68
729.726	5535.32
729.92	5516.89
730.113	6104.65
730.307	5725.78
730.5	5537.37
730.694	5576.28
730.887	5563.99
731.081	5938.77
731.274	5637.72
731.468	5398.1
731.661	5848.66
731.854	5557.85
732.048	5348.95
732.241	5488.21
732.435	5756.5
732.628	5764.69
732.821	5807.7
733.014	5518.93
733.208	5516.89
733.401	5994.06
733.594	5547.61
733.788	5529.17
733.981	6028.88
734.174	5918.29
734.367	5684.82
734.56	5897.81
734.754	6041.17
734.947	6035.02
735.14	5578.33
735.333	5809.75
735.526	6217.29
735.719	5797.46
735.912	5533.27
736.105	5645.91
736.298	5908.05
736.491	5793.36
736.684	5535.32
736.877	5572.18
737.07	5910.1
737.263	6143.56
737.456	5602.9
737.649	5471.83
737.842	5852.75
738.035	5860.95
738.228	5881.42
738.421	5979.73
738.614	6278.73
738.807	6248.01
739	5459.54
739.192	5609.05
739.385	6155.85
739.578	5992.02
739.771	6049.36
739.964	5682.77
740.156	6129.23
740.349	5885.52
740.542	5838.42
740.735	5791.31
740.927	5520.98
741.12	5781.07
741.313	5715.54
741.505	5813.84
741.698	5916.24
741.891	5979.73
742.083	5967.44
742.276	5916.24
742.468	6094.41
742.661	5930.58
742.854	5854.8
743.046	5762.64
743.239	6366.79
743.431	6002.26
743.624	5656.15
743.816	5480.02
744.009	6041.17
744.201	6233.68
744.393	5940.82
744.586	5811.79
744.778	6209.1
744.971	6006.35
745.163	5897.81
745.355	5836.37
745.548	6000.21
745.74	5822.03
745.932	5762.64
746.125	5721.68
746.317	6651.46
746.509	6153.8
746.702	5979.73
746.894	5791.31
747.086	6258.25
747.278	6295.11
747.471	5867.09
747.663	5840.47
747.855	6108.75
748.047	6342.22
748.239	5729.88
748.431	5805.65
748.623	6643.27
748.815	6444.62
749.008	5809.75
749.2	5815.89
749.392	6241.87
749.584	6174.28
749.776	6098.51
749.968	5922.38
750.16	6604.36
750.352	5967.44
750.544	5922.38
750.736	5703.25
750.928	6264.4
751.12	6205
751.311	5813.84
751.503	5916.24
751.695	6383.18
751.887	6127.18
752.079	5670.48
752.271	5738.07
752.463	6868.55
752.654	6301.26
752.846	6000.21
753.038	5965.39
753.23	6018.64
753.421	6336.07
753.613	5936.72
753.805	6157.9
753.997	6221.39
754.188	6456.9
754.38	5885.52
754.572	5881.42
754.763	6100.56
754.955	6200.91
755.146	5910.1
755.338	5965.39
755.53	6168.14
755.721	6202.96
755.913	5787.22
756.104	5819.99
756.296	6188.62
756.487	6313.55
756.679	5791.31
756.87	5865.04
757.062	6010.45
757.253	6360.65
757.445	5795.41
757.636	5819.99
757.827	6110.8
758.019	6692.42
758.21	5848.66
758.401	5774.93
758.593	6626.89
758.784	6372.94
758.975	5686.87
759.167	5688.92
759.358	6368.84
759.549	6403.66
759.74	5822.03
759.932	5873.23
760.123	6438.47
760.314	6090.32
760.505	5998.16
760.696	5938.77
760.888	6430.28
761.079	5924.43
761.27	5733.97
761.461	5690.96
761.652	6520.39
761.843	5957.2
762.034	6014.54
762.225	6168.14
762.416	6137.42
762.607	6092.37
762.798	5895.76
762.989	5858.9
763.18	6860.35
763.371	5969.49
763.562	5750.35
763.753	5951.06
763.944	6440.52
764.135	6383.18
764.326	6102.61
764.517	5789.27
764.708	6098.51
764.899	6180.43
765.089	5819.99
765.28	5862.99
765.471	6235.72
765.662	6374.99
765.853	5983.82
766.043	5635.67
766.234	6471.24
766.425	6250.06
766.615	6090.32
766.806	5705.3
766.997	6262.35
767.187	6127.18
767.378	5830.23
767.569	5717.59
767.759	6385.23
767.95	6256.2
768.141	6014.54
768.331	5736.02
768.522	5965.39
768.712	6288.97
768.903	5750.35
769.093	5654.1
769.284	6479.43
769.474	6088.27
769.665	5594.71
769.855	5533.27
770.046	6188.62
770.236	5975.63
770.426	5819.99
770.617	5707.35
770.807	6202.96
770.998	6145.61
771.188	5946.96
771.378	5946.96
771.569	6176.33
771.759	6157.9
771.949	5561.94
772.139	5635.67
772.33	6041.17
772.52	6268.49
772.71	5783.12
772.9	5498.45
773.09	6528.58
773.281	6508.1
773.471	5832.27
773.661	5723.73
773.851	6415.94
774.041	5910.1
774.231	5645.91
774.421	6028.88
774.611	6434.38
774.802	6004.3
774.992	5844.56
775.182	5717.59
775.372	6069.84
775.562	6235.72
775.752	5910.1
775.942	5574.23
776.131	6286.92
776.321	6157.9
776.511	5715.54
776.701	5727.83
776.891	6159.95
777.081	5865.04
777.271	5869.14
777.461	5711.44
777.651	6215.24
777.84	6311.5
778.03	5873.23
778.22	5664.34
778.41	6374.99
778.599	5779.03
778.789	5709.4
778.979	5604.95
779.169	6135.37
779.358	6135.37
779.548	5936.72
779.738	5547.61
779.927	5971.54
780.117	5858.9
780.307	5742.16
780.496	5580.37
780.686	5994.06
780.875	6200.91
781.065	5639.76
781.254	5762.64
781.444	6174.28
781.633	6137.42
781.823	5588.57
782.012	5666.39
782.202	5693.01
782.391	6014.54
782.581	5707.35
782.77	5940.82
782.96	6098.51
783.149	5772.88
783.338	5561.94
783.528	5500.5
783.717	6168.14
783.906	6465.1
784.096	5815.89
784.285	5586.52
784.474	5715.54
784.663	5867.09
784.853	5461.59
785.042	5686.87
785.231	5848.66
785.42	6237.77
785.61	5621.33
785.799	5711.44
785.988	5791.31
786.177	5723.73
786.366	5828.18
786.555	5809.75
786.744	6125.13
786.933	5822.03
787.122	5486.17
787.312	5473.88
787.501	5783.12
787.69	5979.73
787.879	5660.24
788.068	5518.93
788.257	5611.09
788.445	5824.08
788.634	5803.6
788.823	5570.13
789.012	6676.04
789.201	6135.37
789.39	5717.59
789.579	5574.23
789.768	5856.85
789.957	5938.77
790.145	5488.21
790.334	5320.28
790.523	5736.02
790.712	5914.19
790.9	5750.35
791.089	5516.89
791.278	6219.34
791.467	5930.58
791.655	5844.56
791.844	6039.12
792.033	5740.12
792.221	5785.17
792.41	5590.61
792.599	5426.78
792.787	5983.82
792.976	6114.89
793.164	5434.97
793.353	5615.19
793.541	6002.26
793.73	6114.89
793.918	5860.95
794.107	5557.85
794.295	5901.9
794.484	5781.07
794.672	5754.45
794.861	5514.84
795.049	6024.78
795.238	6106.7
795.426	5406.3
795.614	5525.08
795.803	5858.9
795.991	6176.33
796.179	5539.41
796.368	5586.52
796.556	6137.42
796.744	5570.13
796.932	5510.74
797.121	5533.27
797.309	5860.95
797.497	6237.77
797.685	5699.16
797.874	5484.12
798.062	5791.31
798.25	6164.04
798.438	5582.42
798.626	5619.28
798.814	5983.82
799.002	6512.2
799.19	5875.28
799.378	5611.09
799.566	6055.5
799.755	6260.3
799.943	5590.61
800.131	5598.81
800.318	5811.79
800.506	6088.27
800.694	5518.93
800.882	5742.16
801.07	6176.33
801.258	5832.27
801.446	5656.15
801.634	5492.31
801.822	6022.73
802.01	5977.68
802.197	5764.69
802.385	5834.32
802.573	6178.38
802.761	5815.89
802.949	5752.4
803.136	5551.7
803.324	6176.33
803.512	5975.63
803.699	5842.51
803.887	5525.08
804.075	6174.28
804.262	5822.03
804.45	5623.38
804.638	5791.31
804.825	5969.49
805.013	5824.08
805.201	5830.23
805.388	5754.45
805.576	6174.28
805.763	6493.77
805.951	5776.98
806.138	5903.95
806.326	6594.12
806.513	6180.43
806.701	5906
806.888	5770.83
807.075	6069.84
807.263	6651.46
807.45	5676.63
807.638	5940.82
807.825	6766.15
808.012	6510.15
808.2	5836.37
808.387	6114.89
808.574	6297.16
808.761	6663.75
808.949	5809.75
809.136	6061.65
809.323	6086.22
809.51	6004.3
809.698	6317.64
809.885	6184.52
810.072	6295.11
810.259	6549.06
810.446	6043.21
810.633	5930.58
810.82	6399.56
811.008	6475.34
811.195	6311.5
811.382	6129.23
811.569	6284.87
811.756	5971.54
811.943	6143.56
812.13	6045.26
812.317	6168.14
812.504	6114.89
812.691	6108.75
812.878	6176.33
813.064	6725.19
813.251	6471.24
813.438	5953.1
813.625	6188.62
813.812	6348.36
813.999	6241.87
814.186	6225.48
814.372	6209.1
814.559	6422.09
814.746	6684.23
814.933	6211.15
815.12	6520.39
815.306	6350.41
815.493	6184.52
815.68	6155.85
815.866	6170.19
816.053	6608.45
816.24	6764.1
816.426	6295.11
816.613	6080.08
816.799	6610.5
816.986	6725.19
817.173	6248.01
817.359	6069.84
817.546	6409.8
817.732	5975.63
817.919	5856.85
818.105	6280.78
818.292	6368.84
818.478	6635.08
818.665	6391.37
818.851	6153.8
819.037	7026.24
819.224	6428.23
819.41	6096.46
819.597	6145.61
819.783	6710.85
819.969	6590.02
820.156	6198.86
820.342	5942.86
820.528	7298.62
820.714	6288.97
820.901	6411.85
821.087	6151.76
821.273	6846.02
821.459	6174.28
821.646	6090.32
821.832	5873.23
822.018	6463.05
822.204	6516.3
822.39	6041.17
822.576	6006.35
822.762	6448.71
822.948	6518.34
823.134	6424.14
823.32	6061.65
823.507	6268.49
823.693	6417.99
823.879	6514.25
824.065	6291.02
824.25	6501.96
824.436	6090.32
824.622	6139.47
824.808	5989.97
824.994	6491.72
825.18	6088.27
825.366	5834.32
825.552	5992.02
825.738	6225.48
825.923	6469.19
826.109	6250.06
826.295	6008.4
826.481	6213.2
826.667	6381.13
826.852	6426.18
827.038	6172.24
827.224	6729.28
827.409	6796.87
827.595	5791.31
827.781	6340.17
827.966	6626.89
828.152	6413.9
828.338	6053.45
828.523	5930.58
828.709	6184.52
828.894	6669.89
829.08	6241.87
829.266	6266.44
829.451	6327.88
829.637	6608.45
829.822	6071.89
830.008	5906
830.193	6544.97
830.378	6694.47
830.564	6202.96
830.749	5957.2
830.935	6413.9
831.12	6319.69
831.305	6057.55
831.491	6086.22
831.676	5957.2
831.861	6319.69
832.047	6078.03
832.232	6006.35
832.417	6393.42
832.602	6323.79
832.788	5805.65
832.973	6043.21
833.158	6092.37
833.343	6217.29
833.528	5955.15
833.714	6168.14
833.899	6614.6
834.084	6514.25
834.269	6192.72
834.454	5908.05
834.639	6368.84
834.824	6217.29
835.009	6067.79
835.194	6213.2
835.379	6448.71
835.564	6495.82
835.749	6108.75
835.934	5969.49
836.119	6450.76
836.304	6104.65
836.489	5817.94
836.674	6141.52
836.859	5987.92
837.044	6520.39
837.228	6045.26
837.413	5906
837.598	6297.16
837.783	6309.45
837.968	5932.62
838.152	5744.21
838.337	5826.13
838.522	6534.73
838.707	6164.04
838.891	6219.34
839.076	6147.66
839.261	6266.44
839.445	5791.31
839.63	5813.84
839.815	6690.37
839.999	6118.99
840.184	5850.71
840.368	6032.97
840.553	6303.31
840.737	6383.18
840.922	5944.91
841.106	5899.86
841.291	5920.34
841.475	6020.69
841.66	5725.78
841.844	5824.08
842.029	6712.9
842.213	5815.89
842.397	5676.63
842.582	5647.96
842.766	6499.91
842.951	6282.83
843.135	5918.29
843.319	5856.85
843.504	6112.85
843.688	6293.07
843.872	5635.67
844.056	5693.01
844.241	6233.68
844.425	6112.85
844.609	6069.84
844.793	5410.39
844.977	6329.93
845.161	6088.27
845.346	5668.44
845.53	5674.58
845.714	6053.45
845.898	6481.48
846.082	5860.95
846.266	5768.79
846.45	5908.05
846.634	6274.63
846.818	5664.34
847.002	6000.21
847.186	6170.19
847.37	5686.87
847.554	5770.83
847.738	5889.62
847.922	6069.84
848.106	6018.64
848.29	5674.58
848.473	5643.86
848.657	6194.76
848.841	5883.47
849.025	5588.57
849.209	5475.93
849.392	6229.58
849.576	5977.68
849.76	5385.82
849.944	5873.23
850.127	6393.42
850.311	5586.52
850.495	5543.51
850.678	5373.53
850.862	6254.16
851.046	6315.59
851.229	6049.36
851.413	5602.9
851.596	6012.49
851.78	5918.29
851.964	5791.31
852.147	5566.04
852.331	6567.49
852.514	6172.24
852.698	5711.44
852.881	5406.3
853.065	5977.68
853.248	6012.49
853.431	5875.28
853.615	5529.17
853.798	6229.58
853.982	6102.61
854.165	5727.83
854.348	5574.23
854.532	5643.86
854.715	5768.79
854.898	5512.79
855.081	5434.97
855.265	6174.28
855.448	6327.88
855.631	5461.59
855.814	5336.67
855.997	6012.49
856.181	5828.18
856.364	5602.9
856.547	5357.14
856.73	5887.57
856.913	5830.23
857.096	5359.19
857.279	5697.11
857.462	5523.03
857.645	6104.65
857.828	5654.1
858.011	5686.87
858.194	5711.44
858.377	6006.35
858.56	5432.92
858.743	5500.5
858.926	5520.98
859.109	5942.86
859.292	5365.34
859.475	5334.62
859.658	6024.78
859.841	5832.27
860.023	5367.38
860.206	5480.02
860.389	5758.55
860.572	6112.85
860.755	5500.5
860.937	5443.16
861.12	5682.77
861.303	5660.24
861.486	5377.62
861.668	5109.34
861.851	5834.32
862.034	5629.52
862.216	5512.79
862.399	5078.62
862.581	5686.87
862.764	5969.49
862.947	5299.8
863.129	5400.15
863.312	5295.71
863.494	5832.27
863.677	5695.06
863.859	4994.65
864.042	5566.04
864.224	5787.22
864.406	5402.2
864.589	5164.64
864.771	5684.82
864.954	5332.57
865.136	5256.79
865.318	4957.79
865.501	5615.19
865.683	5340.76
865.865	5258.84
866.048	5346.91
866.23	5764.69
866.412	5578.33
866.594	5092.96
866.777	5301.85
866.959	5709.4
867.141	5375.58
867.323	5502.55
867.505	5342.81
867.687	5480.02
867.869	5426.78
868.052	5277.27
868.234	5181.02
868.416	5443.16
868.598	5580.37
868.78	5287.51
868.962	5049.95
869.144	5758.55
869.326	5662.29
869.508	5199.45
869.69	5135.96
869.872	5217.88
870.054	5848.66
870.236	4931.17
870.417	5277.27
870.599	5324.38
870.781	5918.29
870.963	5381.72
871.145	5119.58
871.327	5254.75
871.508	5647.96
871.69	5252.7
871.872	5232.22
872.054	5408.34
872.235	5635.67
872.417	5330.52
872.599	5049.95
872.78	5983.82
872.962	5369.43
873.144	5144.16
873.325	5262.94
873.507	5787.22
873.689	5496.41
873.87	5002.85
874.052	5363.29
874.233	5584.47
874.415	5850.71
874.596	5267.03
874.778	5097.05
874.959	5586.52
875.141	5680.72
875.322	5170.78
875.503	5326.43
875.685	5693.01
875.866	5187.16
876.048	5047.9
876.229	4988.51
876.41	5545.56
876.592	5666.39
876.773	5373.53
876.954	5088.86
877.136	5826.13
877.317	5457.5
877.498	5008.99
877.679	5191.26
877.86	5545.56
878.042	5520.98
878.223	5340.76
878.404	5596.76
878.585	5813.84
878.766	6030.93
878.947	5723.73
879.128	5611.09
879.309	5607
879.49	6118.99
879.672	5293.66
879.853	5361.24
880.034	5465.69
880.215	5582.42
880.396	5471.83
880.576	5295.71
880.757	5416.54
880.938	6037.07
881.119	5416.54
881.3	5394.01
881.481	5596.76
881.662	6565.45
881.843	5447.26
882.023	5342.81
882.204	5918.29
882.385	6051.41
882.566	5566.04
882.747	5471.83
882.927	5867.09
883.108	5815.89
883.289	5406.3
883.469	5817.94
883.65	5776.98
883.831	5623.38
884.011	5785.17
884.192	5586.52
884.373	6424.14
884.553	5887.57
884.734	5852.75
884.914	5807.7
885.095	6719.04
885.275	6374.99
885.456	5961.3
885.636	5596.76
885.817	5774.93
885.997	6057.55
886.178	5693.01
886.358	5738.07
886.538	5922.38
886.719	6917.7
886.899	5791.31
887.08	5838.42
887.26	6299.21
887.44	5615.19
887.621	5684.82
887.801	5813.84
887.981	6807.11
888.161	6192.72
888.342	5705.3
888.522	5819.99
888.702	6274.63
888.882	6241.87
889.062	6039.12
889.242	5539.41
889.423	6458.95
889.603	6241.87
889.783	5912.14
889.963	5721.68
890.143	6276.68
890.323	6350.41
890.503	5803.6
890.683	5791.31
890.863	6256.2
891.043	6268.49
891.223	5903.95
891.403	6174.28
891.583	6114.89
891.763	6372.94
891.943	5914.19
892.122	5934.67
892.302	6143.56
892.482	6096.46
892.662	6243.92
892.842	5936.72
893.022	6522.44
893.201	6106.7
893.381	5992.02
893.561	6035.02
893.741	6270.54
893.92	6282.83
894.1	6045.26
894.28	5992.02
894.459	6422.09
894.639	6327.88
894.819	5885.52
894.998	6041.17
895.178	6409.8
895.357	6278.73
895.537	5879.38
895.716	5908.05
895.896	6125.13
896.075	6739.52
896.255	6147.66
896.434	5736.02
896.614	6485.58
896.793	6630.98
896.973	6057.55
897.152	5989.97
897.331	6288.97
897.511	6528.58
897.69	5822.03
897.87	5932.62
898.049	6430.28
898.228	6211.15
898.407	6053.45
898.587	6067.79
898.766	6059.6
898.945	6256.2
899.124	6170.19
899.304	5934.67
899.483	6284.87
899.662	6786.63
899.841	5918.29
900.02	6012.49
900.199	6481.48
900.378	6463.05
900.557	6024.78
900.737	5729.88
900.916	6454.86
901.095	6481.48
901.274	6141.52
901.453	5858.9
901.632	6102.61
901.811	5979.73
901.989	5922.38
902.168	5817.94
902.347	6288.97
902.526	5975.63
902.705	5975.63
902.884	6215.24
903.063	6608.45
903.242	6258.25
903.42	5582.42
903.599	6039.12
903.778	6291.02
903.957	6649.41
904.135	6028.88
904.314	5801.55
904.493	6284.87
904.672	6178.38
904.85	5901.9
905.029	5918.29
905.207	6293.07
905.386	6841.92
905.565	5797.46
905.743	5865.04
905.922	6061.65
906.1	6348.36
906.279	5725.78
906.457	5684.82
906.636	5908.05
906.814	5936.72
906.993	5998.16
907.171	5652.05
907.35	6123.09
907.528	6389.32
907.707	6026.83
907.885	5607
908.063	6315.59
908.242	5631.57
908.42	5619.28
908.598	5533.27
908.777	6008.4
908.955	5652.05
909.133	5811.79
909.311	5414.49
909.49	5930.58
909.668	5774.93
909.846	5742.16
910.024	5447.26
910.202	5906
910.38	5895.76
910.559	5430.87
910.737	5506.65
910.915	5770.83
911.093	5891.66
911.271	5572.18
911.449	5736.02
911.627	6016.59
911.805	6323.79
911.983	5619.28
912.161	5533.27
912.339	5817.94
912.517	6041.17
912.695	5615.19
912.872	5363.29
913.05	5443.16
913.228	5744.21
913.406	5246.55
913.584	5219.93
913.762	5813.84
913.939	5410.39
914.117	5303.9
914.295	5246.55
914.473	5817.94
914.65	5637.72
914.828	5287.51
915.006	5310.04
915.184	5240.41
915.361	5684.82
915.539	5391.96
915.716	5443.16
915.894	5721.68
916.072	5867.09
916.249	5643.86
916.427	5482.07
916.604	5373.53
916.782	5623.38
916.959	5264.99
917.137	5293.66
917.314	5467.74
917.492	5639.76
917.669	5254.75
917.847	5273.18
918.024	5635.67
918.201	5189.21
918.379	5295.71
918.556	5123.68
918.733	5719.64
918.911	5318.23
919.088	5482.07
919.265	5058.14
919.442	5525.08
919.62	5277.27
919.797	5140.06
919.974	4937.31
920.151	5389.91
920.328	5297.75
920.506	5103.2
920.683	5414.49
920.86	4959.84
921.037	5172.83
921.214	4986.46
921.391	4949.6
921.568	5391.96
921.745	5058.14
921.922	4779.62
922.099	4882.02
922.276	5344.86
922.453	5221.98
922.63	4918.88
922.807	5111.39
922.984	5119.58
923.161	4896.35
923.338	4884.06
923.514	4628.07
923.691	5025.37
923.868	5142.11
924.045	4757.09
924.222	4587.11
924.399	5135.96
924.575	5119.58
924.752	4798.05
924.929	4763.23
925.105	4922.98
925.282	4816.48
925.459	4669.03
925.635	4855.39
925.812	4820.58
925.989	4693.6
926.165	4802.15
926.342	4470.37
926.518	4574.82
926.695	4851.3
926.871	4474.47
927.048	4177.51
927.224	4990.56
927.401	4796
927.577	4533.86
927.754	4335.21
927.93	4959.84
928.107	4777.57
928.283	4310.63
928.459	4533.86
928.636	4679.27
928.812	4597.35
928.988	4279.91
929.165	4138.6
929.341	4408.94
929.517	4529.77
929.693	4566.63
929.87	4036.21
930.046	4501.09
930.222	4363.88
930.398	4159.08
930.574	4290.15
930.751	4241
930.927	4267.63
931.103	4247.15
931.279	4232.81
931.455	4214.38
931.631	4484.71
931.807	4028.01
931.983	3886.7
932.159	3886.7
932.335	4267.63
932.511	4019.82
932.687	3993.2
932.863	4245.1
933.039	4021.87
933.215	3747.44
933.391	3741.3
933.566	4023.92
933.742	4181.61
933.918	3896.94
934.094	3653.23
934.27	4126.32
934.445	3917.42
934.621	3686
934.797	3497.59
934.973	4089.45
935.148	3841.65
935.324	3528.31
935.5	3126.91
935.675	4021.87
935.851	3802.74
936.027	3509.88
936.202	3294.84
936.378	3667.57
936.553	3481.21
936.729	3577.46
936.904	3161.72
937.08	3196.54
937.255	3104.38
937.431	3006.08
937.606	2823.81
937.782	3096.19
937.957	3284.6
938.133	3022.46
938.308	2684.55
938.483	2903.68
938.659	2813.57
938.834	2719.36
939.009	2569.86
939.185	2834.05
939.36	2641.54
939.535	2203.27
939.71	2584.2
939.886	2905.73
940.061	2883.2
940.236	2596.48
940.411	2559.62
940.586	2772.61
940.761	2662.02
940.937	2446.98
941.112	2371.21
941.287	2555.52
941.462	2530.95
941.637	2182.79
941.812	2166.41
941.987	2586.24
942.162	2483.84
942.337	2305.67
942.512	2059.92
942.687	2735.74
942.862	2629.25
943.037	1891.98
943.212	1812.11
943.386	2154.12
943.561	2305.67
943.736	2397.83
943.911	2408.07
944.086	2477.7
944.26	2305.67
944.435	2092.68
944.61	2240.14
944.785	2481.8
944.959	2680.45
945.134	2068.11
945.309	1953.42
945.483	1975.95
945.658	2510.47
945.833	1828.49
946.007	1879.69
946.182	2512.52
946.357	2088.59
946.531	1930.89
946.706	1900.17
946.88	1758.86
947.055	2293.38
947.229	2090.63
947.404	1838.73
947.578	2408.07
947.752	1994.38
947.927	1717.9
948.101	1818.25
948.276	2145.93
948.45	2174.6
948.624	2223.75
948.799	1871.5
948.973	2256.52
949.147	1832.59
949.321	2080.39
949.496	1957.52
949.67	2379.4
949.844	2131.59
950.018	2129.55
950.193	1928.85
950.367	2721.41
950.541	2076.3
950.715	2182.79
950.889	2131.59
951.063	2125.45
951.237	2408.07
951.411	1787.54
951.585	1937.04
951.759	2295.43
951.933	2229.9
952.107	1887.89
952.281	2156.17
952.455	2604.67
952.629	2479.75
952.803	1855.12
952.977	2002.57
953.151	2432.65
953.325	2320.01
953.499	2178.7
953.672	1891.98
953.846	1855.12
954.02	2154.12
954.194	1851.02
954.368	1916.56
954.541	2451.08
954.715	2113.16
954.889	2100.87
955.062	1863.31
955.236	2064.01
955.41	2068.11
955.583	2174.6
955.757	1765.01
955.93	1961.61
956.104	1898.13
956.278	1879.69
956.451	2035.34
956.625	2399.88
956.798	2727.55
956.972	2188.94
957.145	1943.18
957.319	2260.62
957.492	2260.62
957.665	2240.14
957.839	1973.9
958.012	2277
958.185	2049.68
958.359	1943.18
958.532	2074.25
958.705	2252.42
958.879	2217.61
959.052	2041.48
959.225	1674.9
959.398	2248.33
959.572	2201.23
959.745	1957.52
959.918	1939.09
960.091	2082.44
960.264	2295.43
960.438	1765.01
960.611	1801.87
960.784	2322.06
960.957	1986.19
961.13	2299.53
961.303	1889.93
961.476	2147.98
961.649	2313.86
961.822	1787.54
961.995	1930.89
962.168	2307.72
962.341	2211.46
962.514	1853.07
962.686	1826.45
962.859	2156.17
963.032	2203.27
963.205	1887.89
963.378	1713.81
963.551	2260.62
963.723	2080.39
963.896	1943.18
964.069	1996.43
964.242	2104.97
964.414	2277
964.587	1881.74
964.76	1840.78
964.932	2221.7
965.105	2139.79
965.278	1812.11
965.45	1818.25
965.623	2061.96
965.795	2227.85
965.968	1891.98
966.14	1863.31
966.313	2076.3
966.485	2008.72
966.658	1869.45
966.83	1681.04
967.003	2338.44
967.175	2363.01
967.348	1742.48
967.52	1820.3
967.692	2408.07
967.865	2182.79
968.037	1781.39
968.209	2096.78
968.382	2082.44
968.554	2313.86
968.726	1871.5
968.898	1803.92
969.071	2102.92
969.243	2197.13
969.415	1744.53
969.587	1949.32
969.759	2371.21
969.932	2150.03
970.104	1877.65
970.276	1523.35
970.448	1875.6
970.62	1877.65
970.792	1932.94
970.964	1838.73
971.136	2414.21
971.308	2145.93
971.48	1797.78
971.652	1828.49
971.824	2387.59
971.996	1803.92
972.168	1785.49
972.339	1754.77
972.511	2203.27
972.683	1965.71
972.855	2014.86
973.027	1683.09
973.199	1918.61
973.37	2158.22
973.542	1908.37
973.714	1812.11
973.886	1924.75
974.057	2158.22
974.229	1597.07
974.401	1699.47
974.572	1699.47
974.744	1482.39
974.915	1609.36
975.087	1705.62
975.259	2215.56
975.43	1871.5
975.602	1732.24
975.773	1566.35
975.945	1754.77
976.116	2033.29
976.288	1711.76
976.459	1894.03
976.63	1822.35
976.802	2145.93
976.973	1691.28
977.145	1801.87
977.316	2432.65
977.487	2219.66
977.659	1773.2
977.83	1752.72
978.001	2367.11
978.172	1885.84
978.344	1552.02
978.515	1713.81
978.686	1857.17
978.857	2195.08
979.028	1599.12
979.2	1500.82
979.371	2233.99
979.542	1906.32
979.713	1715.86
979.884	1244.82
980.055	1722
980.226	1859.21
980.397	1623.7
980.568	1490.58
980.739	2109.07
980.91	1881.74
981.081	1820.3
981.252	1486.48
981.423	1971.85
981.594	2029.2
981.765	1441.43
981.936	1523.35
982.106	1855.12
982.277	2072.2
982.448	1601.17
982.619	1691.28
982.79	1724.05
982.96	1941.13
983.131	1638.03
983.302	1349.27
983.472	1613.46
983.643	1728.14
983.814	1715.86
983.984	1572.5
984.155	1644.18
984.326	1869.45
984.496	1420.95
984.667	1509.01
984.837	1523.35
985.008	1998.48
985.178	1642.13
985.349	1609.36
985.519	1605.27
985.69	1605.27
985.86	1521.3
986.031	1490.58
986.201	1834.64
986.371	1930.89
986.542	1400.47
986.712	1287.83
986.882	1810.06
987.053	1826.45
987.223	1445.52
987.393	1601.17
987.563	1552.02
987.734	1904.27
987.904	1836.69
988.074	1377.94
988.244	1705.62
988.414	1490.58
988.585	1476.24
988.755	1498.77
988.925	1674.9
989.095	1986.19
989.265	1371.8
989.435	1490.58
989.605	1767.06
989.775	1959.56
989.945	1648.27
990.115	1314.45
990.285	1619.6
990.455	1722
990.625	1623.7
990.795	1257.11
990.965	2039.44
991.134	1531.54
991.304	1351.32
991.474	1351.32
991.644	1601.17
991.814	2018.96
991.984	1164.95
992.153	1269.4
992.323	1588.88
992.493	1572.5
992.662	1101.47
992.832	1531.54
993.002	1699.47
993.171	1722
993.341	1111.71
993.511	1509.01
993.68	1457.81
993.85	1728.14
994.019	1185.43
994.189	1326.74
994.358	1592.98
994.528	1466
994.697	1123.99
994.867	1279.64
995.036	1662.61
995.206	1394.33
995.375	1248.92
995.544	1259.16
995.714	1562.26
995.883	1447.57
996.052	1308.31
996.222	1027.74
996.391	1957.52
996.56	1564.31
996.73	1089.18
996.899	960.16
997.068	1865.36
997.237	1445.52
997.406	1146.52
997.576	1080.99
997.745	1513.11
997.914	1523.35
998.083	1048.22
998.252	1119.9
998.421	1453.72
998.59	1275.54
998.759	1130.14
998.928	1066.65
999.097	1760.91
999.266	1588.88
999.435	1341.08
999.604	1005.21
999.773	1891.98
999.942	1400.47
1000.111	1011.36
1000.28	917.15
1000.448	1031.83
1000.617	1224.34
1000.786	1336.98
1000.955	999.07
1001.124	1482.39
1001.292	1994.38
1001.461	1017.5
1001.63	994.97
1001.798	1711.76
1001.967	1689.23
1002.136	839.33
1002.304	1017.5
1002.473	1484.44
1002.642	1402.52
1002.81	1023.64
1002.979	966.3
1003.147	1416.85
1003.316	1836.69
1003.484	1011.36
1003.653	931.48
1003.821	1554.07
1003.99	1351.32
1004.158	1191.58
1004.327	1064.6
1004.495	1461.91
1004.663	1068.7
1004.832	1156.76
1005	810.65
1005.168	1341.08
1005.337	1408.66
1005.505	853.66
1005.673	1103.51
1005.842	1463.96
1006.01	1445.52
1006.178	884.38
1006.346	958.11
1006.514	1291.93
1006.683	1525.4
1006.851	960.16
1007.019	720.54
1007.187	1023.64
1007.355	839.33
1007.523	689.82
1007.691	753.31
1007.859	935.58
1008.027	1586.83
1008.195	978.59
1008.363	714.4
1008.531	1486.48
1008.699	1025.69
1008.867	657.06
1009.035	892.57
1009.203	1509.01
1009.37	1056.41
1009.538	954.01
1009.706	1388.18
1009.874	1222.3
1010.042	1126.04
1010.209	835.23
1010.377	868
1010.545	1416.85
1010.713	1240.73
1010.88	732.83
1011.048	837.28
1011.216	1074.84
1011.383	1521.3
1011.551	724.64
1011.718	753.31
1011.886	1418.9
1012.054	1148.57
1012.221	749.22
1012.389	730.78
1012.556	1031.83
1012.724	1552.02
1012.891	929.44
1013.058	546.47
1013.226	1226.39
1013.393	1248.92
1013.561	659.1
1013.728	591.52
1013.895	1310.36
1014.063	1236.63
1014.23	628.39
1014.397	726.69
1014.565	1228.44
1014.732	1080.99
1014.899	652.96
1015.066	628.39
1015.233	1142.43
1015.401	1115.8
1015.568	753.31
1015.735	794.27
1015.902	990.88
1016.069	1128.09
1016.236	634.53
1016.403	753.31
1016.57	818.85
1016.737	1269.4
1016.904	755.36
1017.071	650.91
1017.238	868
1017.405	1212.06
1017.572	591.52
1017.739	868
1017.906	1232.54
1018.073	1240.73
1018.24	548.51
1018.407	753.31
1018.573	1285.78
1018.74	1003.16
1018.907	747.17
1019.074	566.95
1019.241	1283.74
1019.407	896.67
1019.574	595.62
1019.741	548.51
1019.907	1052.31
1020.074	1031.83
1020.241	454.31
1020.407	528.03
1020.574	1126.04
1020.74	1060.51
1020.907	657.06
1021.073	503.46
1021.24	1519.25
1021.406	1298.07
1021.573	566.95
1021.739	587.43
1021.906	1064.6
1022.072	896.67
1022.239	546.47
1022.405	597.67
1022.571	888.48
1022.738	710.3
1022.904	628.39
1023.07	558.75
1023.237	962.2
1023.403	1193.62
1023.569	542.37
1023.735	634.53
1023.902	956.06
1024.068	949.92
1024.234	396.96
1024.4	536.23
1024.566	900.76
1024.732	1113.75
1024.898	554.66
1025.065	448.16
1025.231	1097.37
1025.397	880.29
1025.563	591.52
1025.729	356.01
1025.895	360.1
1026.061	655.01
1026.227	315.05
1026.392	548.51
1026.558	1171.1
1026.724	990.88
1026.89	399.01
1027.056	499.36
1027.222	972.44
1027.388	722.59
1027.553	313
1027.719	442.02
1027.885	1212.06
1028.051	982.68
1028.216	294.57
1028.382	544.42
1028.548	976.54
1028.713	687.78
1028.879	433.83
1029.045	628.39
1029.21	1158.81
1029.376	1052.31
1029.541	521.89
1029.707	392.87
1029.873	917.15
1030.038	1007.26
1030.204	384.68
1030.369	429.73
1030.534	990.88
1030.7	659.1
1030.865	446.12
1031.031	335.53
1031.196	812.7
1031.361	900.76
1031.527	319.14
1031.692	282.28
1031.857	409.25
1032.023	949.92
1032.188	288.42
1032.353	435.88
1032.518	1107.61
1032.684	853.66
1032.849	245.41
1033.014	384.68
1033.179	933.53
1033.344	872.09
1033.509	466.6
1033.674	337.57
1033.839	890.53
1034.004	902.81
1034.17	339.62
1034.335	274.09
1034.5	663.2
1034.664	515.75
1034.829	304.81
1034.994	341.67
1035.159	710.3
1035.324	761.5
1035.489	255.65
1035.654	278.18
1035.819	1064.6
1035.984	792.22
1036.148	433.83
1036.313	370.34
1036.478	892.57
1036.643	704.16
1036.807	243.37
1036.972	315.05
1037.137	1189.53
1037.301	700.06
1037.466	196.26
1037.631	325.29
1037.795	962.2
1037.96	724.64
1038.124	468.64
1038.289	212.65
1038.454	861.85
1038.618	773.79
1038.783	366.25
1038.947	399.01
1039.111	792.22
1039.276	568.99
1039.44	226.98
1039.605	786.08
1039.769	671.39
1039.933	609.95
1040.098	356.01
1040.262	458.4
1040.426	919.2
1040.591	763.55
1040.755	241.32
1040.919	337.57
1041.083	661.15
1041.248	593.57
1041.412	104.11
1041.576	245.41
1041.74	616.1
1041.904	822.94
1042.068	147.11
1042.232	325.29
1042.397	775.84
1042.561	734.88
1042.725	13.99
1042.889	413.35
1043.053	810.65
1043.217	665.25
1043.381	427.68
1043.544	34.47
1043.708	880.29
1043.872	374.44
1044.036	-2.39
1044.2	97.96
1044.364	851.61
1044.528	978.59
1044.691	3202.68
1044.855	73.39
1045.019	876.19
1045.183	751.26
1045.346	210.6
1045.51	81.58
1045.674	749.22
1045.837	683.68
1046.001	171.69
1046.165	157.35
1046.328	1046.17
1046.492	732.83
1046.655	302.76
1046.819	298.66
1046.983	446.12
1047.146	730.78
1047.31	204.46
1047.473	-14.68
1047.636	724.64
1047.8	392.87
1047.963	396.96
1048.127	188.07
1048.29	501.41
