Data from Ink_Intensity_USB4F045381__6__00006.txt Node

Date: Mon Jul 17 09:30:13 EDT 2023
User: mmckonesweet
Spectrometer: USB4F04538
Trigger mode: 4
Integration Time (sec): 9.000000E-1
Scans to average: 1
Electric dark correction enabled: true
Nonlinearity correction enabled: false
Boxcar width: 0
XAxis mode: Wavelengths
Number of Pixels in Spectrum: 3648
>>>>>Begin Spectral Data<<<<<
345.52	-877.21
345.736	-877.21
345.952	-877.21
346.168	-942.75
346.384	-918.17
346.6	-113.32
346.816	-271.01
347.032	-162.47
347.248	240.98
347.464	-170.66
347.68	-131.75
347.896	159.06
348.112	359.76
348.328	-25.26
348.544	-88.75
348.76	-33.45
348.975	236.88
349.191	-215.72
349.407	-76.46
349.623	77.14
349.839	-68.27
350.055	-0.68
350.27	95.57
350.486	251.22
350.702	382.29
350.918	267.6
351.133	-141.99
351.349	195.92
351.565	398.67
351.781	-74.41
351.996	120.15
352.212	400.72
352.428	-43.69
352.644	-45.74
352.859	-121.51
353.075	351.57
353.291	85.33
353.506	73.04
353.722	-90.79
353.938	-17.07
354.153	548.17
354.369	259.41
354.584	-78.51
354.8	273.75
355.016	-279.21
355.231	-70.31
355.447	34.13
355.662	71
355.878	976.2
356.093	-205.48
356.309	105.81
356.524	-135.85
356.74	267.6
356.955	-84.65
357.171	71
357.386	107.86
357.602	-90.79
357.817	34.13
358.033	-10.92
358.248	421.2
358.464	177.49
358.679	-39.59
358.895	-131.75
359.11	68.95
359.325	365.9
359.541	310.61
359.756	167.25
359.972	-199.34
360.187	224.59
360.402	-35.5
360.618	-41.64
360.833	935.24
361.048	253.27
361.264	-53.93
361.479	73.04
361.694	138.58
361.909	243.03
362.125	62.8
362.34	5.46
362.555	263.51
362.77	154.96
362.986	-25.26
363.201	54.61
363.416	238.93
363.631	95.57
363.847	-53.93
364.062	-115.37
364.277	232.79
364.492	228.69
364.707	50.52
364.922	-275.11
365.138	431.44
365.353	363.86
365.568	-27.31
365.783	30.04
365.998	138.58
366.213	644.43
366.428	-88.75
366.643	210.26
366.858	357.71
367.073	222.55
367.288	89.43
367.503	-98.99
367.718	238.93
367.933	310.61
368.148	-90.79
368.363	54.61
368.578	77.14
368.793	554.32
369.008	-41.64
369.223	-37.55
369.438	322.9
369.653	615.76
369.868	-12.97
370.083	-12.97
370.298	269.65
370.513	427.34
370.728	173.39
370.943	122.2
371.157	-76.46
371.372	591.18
371.587	-119.46
371.802	-92.84
372.017	222.55
372.232	558.41
372.446	89.43
372.661	-152.23
372.876	318.8
373.091	263.51
373.306	183.63
373.52	58.71
373.735	-60.07
373.95	544.08
374.165	79.19
374.379	56.66
374.594	-74.41
374.809	257.36
375.023	238.93
375.238	-70.31
375.453	456.01
375.667	-103.08
375.882	128.34
376.097	5.46
376.311	191.83
376.526	128.34
376.741	23.89
376.955	343.38
377.17	767.31
377.384	605.52
377.599	167.25
377.813	1.37
378.028	750.92
378.242	437.58
378.457	154.96
378.672	-94.89
378.886	351.57
379.101	177.49
379.315	-80.55
379.53	107.86
379.744	384.34
379.958	396.62
380.173	124.24
380.387	21.84
380.602	361.81
380.816	7.51
381.031	95.57
381.245	154.96
381.459	343.38
381.674	2495.79
381.888	109.91
382.103	365.9
382.317	-19.11
382.531	787.79
382.746	271.7
382.96	79.19
383.174	130.39
383.388	632.14
383.603	357.71
383.817	60.76
384.031	423.25
384.246	611.66
384.46	349.52
384.674	527.69
384.888	363.86
385.103	292.18
385.317	77.14
385.531	335.18
385.745	578.89
385.959	582.99
386.174	161.11
386.388	120.15
386.602	288.08
386.816	167.25
387.03	292.18
387.244	265.55
387.458	245.07
387.672	656.72
387.887	142.68
388.101	30.04
388.315	683.34
388.529	392.53
388.743	355.66
388.957	122.2
389.171	587.08
389.385	148.82
389.599	277.84
389.813	445.77
390.027	544.08
390.241	965.96
390.455	314.7
390.669	267.6
390.883	187.73
391.097	685.39
391.311	396.62
391.525	290.13
391.738	423.25
391.952	529.74
392.166	398.67
392.38	245.07
392.594	560.46
392.808	707.91
393.022	390.48
393.236	343.38
393.449	560.46
393.663	566.6
393.877	208.21
394.091	296.27
394.305	433.49
394.518	234.83
394.732	296.27
394.946	363.86
395.16	857.42
395.373	505.17
395.587	312.66
395.801	226.64
396.015	687.43
396.228	587.08
396.442	185.68
396.656	261.46
396.869	757.07
397.083	892.23
397.297	429.39
397.51	392.53
397.724	824.65
397.938	556.36
398.151	320.85
398.365	288.08
398.578	697.67
398.792	884.04
399.005	542.03
399.219	513.36
399.433	685.39
399.646	699.72
399.86	542.03
400.073	646.48
400.287	703.82
400.5	429.39
400.714	556.36
400.927	558.41
401.141	718.15
401.354	1480
401.567	789.83
401.781	306.51
401.994	927.05
402.208	1023.3
402.421	480.59
402.635	619.85
402.848	574.8
403.061	875.85
403.275	628.04
403.488	318.8
403.701	1105.22
403.915	785.74
404.128	679.24
404.341	537.93
404.555	765.26
404.768	648.52
404.981	619.85
405.195	515.41
405.408	1117.51
405.621	828.74
405.834	816.46
406.048	462.16
406.261	1019.21
406.474	1271.11
406.687	580.94
406.9	738.63
407.114	734.54
407.327	773.45
407.54	484.69
407.753	496.97
407.966	595.28
408.179	865.61
408.392	595.28
408.605	445.77
408.819	851.27
409.032	925
409.245	646.48
409.458	824.65
409.671	1043.78
409.884	1058.12
410.097	496.97
410.31	945.48
410.523	949.57
410.736	734.54
410.949	812.36
411.162	660.81
411.375	1224
411.588	1027.4
411.801	896.33
412.014	654.67
412.227	916.81
412.44	750.92
412.653	716.11
412.865	1025.35
413.078	1187.14
413.291	912.71
413.504	836.94
413.717	789.83
413.93	1086.79
414.143	699.72
414.356	806.22
414.568	683.34
414.781	1156.42
414.994	972.1
415.207	900.42
415.42	912.71
415.632	1121.6
415.845	1398.08
416.058	726.35
416.271	738.63
416.483	990.53
416.696	1273.15
416.909	892.23
417.121	822.6
417.334	1142.08
417.547	1568.06
417.759	949.57
417.972	861.51
418.185	898.38
418.397	1275.2
418.61	965.96
418.823	810.31
419.035	1480
419.248	1123.65
419.46	935.24
419.673	1088.84
419.885	1361.22
420.098	998.73
420.311	904.52
420.523	752.97
420.736	1320.26
420.948	1113.41
421.161	986.44
421.373	941.38
421.586	1125.7
421.798	1041.73
422.01	908.62
422.223	1174.85
422.435	1000.77
422.648	1289.54
422.86	1047.88
423.073	1105.22
423.285	1631.55
423.497	1023.3
423.71	1000.77
423.922	1084.74
424.134	1436.99
424.347	1500.48
424.559	1246.53
424.771	1400.13
424.984	1232.19
425.196	1402.18
425.408	1015.11
425.621	1013.06
425.833	1602.88
426.045	1686.84
426.257	1099.08
426.47	1217.86
426.682	1467.71
426.894	1465.66
427.106	1226.05
427.318	1393.98
427.531	1197.38
427.743	1623.36
427.955	1283.39
428.167	1744.19
428.379	1572.16
428.591	1346.88
428.804	1580.35
429.016	1238.34
429.228	1312.07
429.44	1574.21
429.652	1475.9
429.864	1281.35
430.076	1379.65
430.288	1475.9
430.5	1391.94
430.712	1477.95
430.924	1830.2
431.136	1529.15
431.348	1287.49
431.56	1531.2
431.772	1619.26
431.984	1617.21
432.196	1482.05
432.408	1590.59
432.62	1529.15
432.832	1705.28
433.044	1946.94
433.256	1705.28
433.468	1766.71
433.679	1449.28
433.891	1449.28
434.103	1840.44
434.315	2102.58
434.527	1875.26
434.739	1789.24
434.95	1783.1
435.162	2051.38
435.374	1727.8
435.586	1766.71
435.798	1774.91
436.009	1699.13
436.221	1854.78
436.433	1756.47
436.645	1688.89
436.856	1946.94
437.068	2086.2
437.28	1785.15
437.491	2057.53
437.703	2098.49
437.915	2102.58
438.126	1903.93
438.338	2086.2
438.55	2012.47
438.761	2215.22
438.973	1969.46
439.184	1873.21
439.396	2078.01
439.608	2331.95
439.819	1836.35
440.031	1991.99
440.242	2309.43
440.454	2264.37
440.665	1959.22
440.877	2194.74
441.088	2235.7
441.3	2145.59
441.511	1885.5
441.723	1944.89
441.934	2282.8
442.146	2176.31
442.357	2272.56
442.569	2286.9
442.78	2262.32
442.991	2643.24
443.203	2508.08
443.414	2200.88
443.626	2616.62
443.837	2282.8
444.048	2110.77
444.26	2084.15
444.471	2340.15
444.682	2667.82
444.894	1969.46
445.105	2045.24
445.316	2592.05
445.528	2503.98
445.739	2295.09
445.95	2338.1
446.161	2311.47
446.373	2714.92
446.584	2356.53
446.795	2397.49
447.006	2659.63
447.217	2975.02
447.429	2256.18
447.64	2280.75
447.851	2667.82
448.062	2663.72
448.273	2135.35
448.484	2348.34
448.695	2712.88
448.907	2458.93
449.118	2487.6
449.329	2606.38
449.54	2460.98
449.751	2540.85
449.962	2440.5
450.173	2362.67
450.384	2850.09
450.595	3077.41
450.806	2573.61
451.017	2723.12
451.228	2991.4
451.439	3024.17
451.65	2706.73
451.861	2366.77
452.072	2663.72
452.283	2850.09
452.494	2766.12
452.705	2678.06
452.915	3101.99
453.126	3052.84
453.337	2628.91
453.548	2696.49
453.759	3253.54
453.97	3611.93
454.181	3126.57
454.391	2862.38
454.602	3046.69
454.813	3132.71
455.024	3116.33
455.235	2975.02
455.445	3159.33
455.656	3155.24
455.867	3331.36
456.078	3032.36
456.288	3136.81
456.499	3294.5
456.71	2962.73
456.921	3419.43
457.131	3552.54
457.342	3396.9
457.553	3122.47
457.763	3073.32
457.974	3489.06
458.184	3456.29
458.395	3224.87
458.606	3124.52
458.816	3829.02
459.027	4054.3
459.237	3534.11
459.448	3239.2
459.659	3937.56
459.869	4218.13
460.08	3300.64
460.29	3697.95
460.501	4291.86
460.711	3710.24
460.922	3263.78
461.132	3712.28
461.343	4490.51
461.553	3665.18
461.764	3681.57
461.974	3616.03
462.184	4074.78
462.395	4076.82
462.605	3994.9
462.816	3708.19
463.026	4003.1
463.236	4427.03
463.447	3880.22
463.657	3910.94
463.867	4429.07
464.078	4238.61
464.288	4164.89
464.498	4142.36
464.709	4429.07
464.919	4371.73
465.129	4273.43
465.339	4248.85
465.55	4662.54
465.76	4795.66
465.97	4332.82
466.18	4324.63
466.391	5035.27
466.601	4812.04
466.811	4715.79
467.021	4705.55
467.231	4922.63
467.441	5111.05
467.651	4951.31
467.862	4740.36
468.072	5283.08
468.282	5487.87
468.492	4936.97
468.702	5135.62
468.912	5274.88
469.122	6012.15
469.332	5563.65
469.542	5356.8
469.752	5881.08
469.962	5602.56
470.172	5338.37
470.382	5553.41
470.592	5764.35
470.802	6184.18
471.012	5584.13
471.222	5745.92
471.432	6262.01
471.642	6085.88
471.852	6157.56
472.062	5901.56
472.272	6249.72
472.482	5940.47
472.691	6192.37
472.901	5979.39
473.111	6468.85
473.321	7036.14
473.531	6487.28
473.741	6542.58
473.95	7058.67
474.16	6814.96
474.37	6724.85
474.58	6733.04
474.79	7472.36
474.999	7261.41
475.209	6862.06
475.419	7068.91
475.628	7167.21
475.838	7570.66
476.048	7320.81
476.258	7138.54
476.467	7972.06
476.677	7570.66
476.886	7869.66
477.096	7914.72
477.306	7714.02
477.515	8139.99
477.725	7838.94
477.935	7965.92
478.144	8531.16
478.354	8099.03
478.563	8326.36
478.773	8176.86
478.982	8854.73
479.192	8889.55
479.401	8494.29
479.611	8608.98
479.82	8713.42
480.03	9088.2
480.239	8785.1
480.449	8830.16
480.658	9667.78
480.868	9352.39
481.077	9254.09
481.287	9215.18
481.496	9551.04
481.705	9893.05
481.915	9600.19
482.124	9698.5
482.333	9841.86
482.543	10269.88
482.752	9862.33
482.961	9917.63
483.171	10380.47
483.38	10108.09
483.589	10132.67
483.799	10407.09
484.008	10478.77
484.217	10812.59
484.426	10458.29
484.636	10364.09
484.845	10904.75
485.054	10630.32
485.263	11046.06
485.472	10722.48
485.682	11437.22
485.891	11044.01
486.1	10886.32
486.309	11285.67
486.518	11353.26
486.727	11963.55
486.936	11336.87
487.146	11615.4
487.355	12147.87
487.564	11580.58
487.773	11789.47
487.982	11725.99
488.191	11994.27
488.4	12199.07
488.609	11994.27
488.818	12270.75
489.027	12776.59
489.236	13022.35
489.445	12440.73
489.654	12303.51
489.863	12967.06
490.072	12549.27
490.281	12922
490.49	12803.22
490.698	13474.95
490.907	13505.67
491.116	12911.76
491.325	12919.95
491.534	13743.24
491.743	13548.68
491.952	13249.68
492.16	13444.23
492.369	13708.42
492.578	13735.04
492.787	13587.59
492.996	13661.32
493.204	13587.59
493.413	14613.62
493.622	13497.48
493.831	13816.96
494.039	14556.28
494.248	13978.75
494.457	14294.14
494.665	14140.54
494.874	14587
495.083	15043.7
495.291	14634.1
495.5	14478.46
495.709	14853.23
495.917	14951.54
496.126	14941.3
496.335	14853.23
496.543	14859.38
496.752	15123.57
496.96	14916.72
497.169	14740.6
497.377	15383.66
497.586	15707.24
497.794	15397.99
498.003	15072.37
498.211	15570.02
498.42	15967.33
498.628	15660.13
498.837	15330.41
499.045	15819.88
499.254	15764.58
499.462	15629.41
499.671	15893.6
499.879	16299.1
500.087	16374.88
500.296	15912.03
500.504	16088.16
500.713	16348.25
500.921	17071.18
501.129	15866.98
501.338	15959.14
501.546	16538.71
501.754	16763.99
501.962	16405.6
502.171	16520.28
502.379	16784.47
502.587	17026.13
502.795	16563.29
503.004	16442.46
503.212	16909.4
503.42	17407.05
503.628	16944.21
503.837	16876.63
504.045	17343.56
504.253	17501.26
504.461	17067.09
504.669	16936.02
504.877	17425.48
505.085	17564.75
505.294	17169.49
505.502	17415.24
505.71	17669.19
505.918	17648.71
506.126	17687.62
506.334	17550.41
506.542	17720.39
506.75	17759.3
506.958	17790.02
507.166	17783.88
507.374	17943.62
507.582	18500.67
507.79	17828.93
507.998	17841.22
508.206	18521.15
508.414	18615.35
508.622	18154.56
508.83	18365.5
509.037	19072.05
509.245	18179.14
509.453	18408.51
509.661	18322.49
509.869	18928.69
510.077	18523.19
510.285	18768.95
510.492	18308.16
510.7	19307.57
510.908	18854.97
511.116	18832.44
511.324	18627.64
511.531	18994.23
511.739	19215.41
511.947	19022.9
512.155	19252.27
512.362	19260.46
512.57	18900.02
512.778	19141.68
512.985	18885.69
513.193	19315.76
513.401	19637.29
513.608	18893.88
513.816	19326
514.024	19723.3
514.231	19829.8
514.439	19459.12
514.646	19379.25
514.854	20124.71
515.061	20098.08
515.269	19616.81
515.477	20010.02
515.684	19538.99
515.892	20126.75
516.099	19711.02
516.307	19876.9
516.514	20263.97
516.722	20579.36
516.929	20112.42
517.136	19891.24
517.344	20417.57
517.551	20266.02
517.759	20290.59
517.966	20454.43
518.173	20319.26
518.381	20751.38
518.588	20198.43
518.796	20530.2
519.003	20947.99
519.21	20599.83
519.418	20679.71
519.625	20597.79
519.832	20929.56
520.039	21027.86
520.247	20898.84
520.454	21115.92
520.661	21457.93
520.868	21238.8
521.076	21390.35
521.283	21206.03
521.49	22010.89
521.697	21660.68
521.904	21277.71
522.112	21306.38
522.319	21947.4
522.526	21404.69
522.733	21652.49
522.94	21589
523.147	21842.95
523.354	22242.31
523.561	21857.29
523.768	21423.12
523.975	22727.67
524.183	22111.24
524.39	22125.57
524.597	21998.6
524.804	22221.83
525.011	22164.48
525.218	22150.15
525.425	22420.48
525.632	22703.1
525.838	22436.86
526.045	22334.46
526.252	22424.58
526.459	23858.15
526.666	23542.77
526.873	22596.6
527.08	22621.18
527.287	23407.6
527.494	23211
527.701	22873.08
527.907	22983.67
528.114	23417.84
528.321	23016.44
528.528	22977.53
528.735	23217.14
528.941	23260.15
529.148	23182.32
529.355	23106.55
529.562	22848.5
529.768	23997.42
529.975	23104.5
530.182	23792.62
530.388	23278.58
530.595	23868.39
530.802	23292.91
531.008	24069.09
531.215	23856.11
531.422	24658.91
531.628	24695.77
531.835	24028.13
532.042	23915.5
532.248	24155.11
532.455	24275.94
532.661	24214.5
532.868	24099.81
533.074	24548.32
533.281	24822.75
533.487	24419.3
533.694	24320.99
533.9	24482.78
534.107	24822.75
534.313	24333.28
534.52	24689.63
534.726	24974.3
534.933	25066.45
535.139	24366.05
535.345	24710.11
535.552	24753.12
535.758	25308.12
535.965	24896.47
536.171	25170.9
536.377	25643.98
536.584	25396.18
536.79	25181.14
536.996	25359.31
537.203	25852.87
537.409	25443.28
537.615	25166.81
537.821	25537.49
538.028	26098.63
538.234	25582.54
538.44	25592.78
538.646	25439.19
538.853	26409.92
539.059	25912.27
539.265	26196.93
539.471	25787.34
539.677	26366.91
539.883	26463.17
540.09	26379.2
540.296	26749.89
540.502	26311.62
540.708	26385.35
540.914	26727.36
541.12	26391.49
541.326	26782.65
541.532	26969.02
541.738	26657.73
541.944	26639.29
542.15	27483.06
542.356	26874.81
542.562	26684.35
542.768	26905.53
542.974	27595.7
543.18	27534.26
543.386	27061.18
543.592	27026.36
543.798	27687.85
544.004	27622.32
544.21	27702.19
544.415	27298.74
544.621	27941.8
544.827	27843.5
545.033	27663.28
545.239	27745.2
545.445	27790.25
545.651	27747.25
545.856	27659.18
546.062	27820.97
546.268	27933.61
546.474	27878.32
546.679	27311.03
546.885	27990.95
547.091	27902.89
547.297	28414.88
547.502	28040.11
547.708	27614.13
547.914	27917.23
548.119	28259.24
548.325	27902.89
548.531	27601.84
548.736	28496.8
548.942	28576.67
549.147	28474.27
549.353	28636.06
549.559	28871.58
549.764	28709.79
549.97	28431.27
550.175	28545.95
550.381	28939.16
550.586	28230.57
550.792	28580.77
550.997	28769.18
551.203	28955.55
551.408	29219.74
551.614	28769.18
551.819	29262.74
552.025	29866.89
552.23	29778.83
552.435	29094.81
552.641	29983.63
552.846	29686.67
553.052	29655.95
553.257	29399.96
553.462	29840.27
553.668	29375.38
553.873	29889.42
554.078	29592.47
554.283	29567.89
554.489	29821.84
554.694	30174.09
554.899	30038.92
555.105	30055.31
555.31	30401.41
555.515	30485.38
555.72	30280.58
555.925	29535.12
556.131	30591.87
556.336	30100.36
556.541	30538.63
556.746	30106.51
556.951	30714.75
557.156	30647.17
557.361	30520.2
557.567	30743.42
557.772	31181.69
557.977	30602.11
558.182	30577.54
558.387	30581.63
558.592	30598.02
558.797	30825.34
559.002	30851.97
559.207	30600.07
559.412	30876.54
559.617	31284.09
559.822	30546.82
560.027	30706.56
560.232	31159.16
560.437	31386.49
560.642	30581.63
560.847	31142.78
561.051	31183.74
561.256	30935.93
561.461	30917.5
561.666	30768
561.871	31411.06
562.076	31490.93
562.281	31452.02
562.485	30950.27
562.69	31753.07
562.895	31392.63
563.1	31050.62
563.305	30940.03
563.509	31669.11
563.714	31810.42
563.919	31398.77
564.123	31222.65
564.328	31605.62
564.533	31916.91
564.737	31214.46
564.942	31470.45
565.147	32201.58
565.351	32449.38
565.556	31656.82
565.761	31855.47
565.965	31937.39
566.17	32115.56
566.374	31851.38
566.579	31644.53
566.784	32007.02
566.988	31527.8
567.193	31851.38
567.397	31933.29
567.602	31902.57
567.806	32164.71
568.011	32326.5
568.215	32277.35
568.42	32443.24
568.624	32174.95
568.828	32498.53
569.033	32195.43
569.237	32928.61
569.442	32895.84
569.646	32129.9
569.85	32717.67
570.055	33153.88
570.259	32887.65
570.463	32596.84
570.668	32465.77
570.872	32516.97
571.076	33117.02
571.281	32795.49
571.485	32961.37
571.689	33358.68
571.893	33405.78
572.098	33182.55
572.302	32877.41
572.506	33684.31
572.71	33002.33
572.914	33071.96
573.119	33440.6
573.323	33659.73
573.527	33688.4
573.731	33168.22
573.935	33704.79
574.139	34147.15
574.343	33274.71
574.547	33608.53
574.751	33905.49
574.955	34403.14
575.159	34073.42
575.364	33725.27
575.568	33635.16
575.772	33901.39
575.976	34300.75
576.18	33854.29
576.383	33887.06
576.587	34399.05
576.791	34280.27
576.995	33760.08
577.199	33780.56
577.403	34337.61
577.607	34552.65
577.811	34110.28
578.015	34386.76
578.219	34495.3
578.422	34607.94
578.626	34687.81
578.83	34624.32
579.034	34843.46
579.238	34521.93
579.442	34440.01
579.645	34757.44
579.849	34562.89
580.053	34767.68
580.257	34267.98
580.46	35101.5
580.664	34976.58
580.868	35070.78
581.071	35009.34
581.275	35124.03
581.479	34622.28
581.682	35134.27
581.886	34882.37
582.09	35222.33
582.293	35545.91
582.497	35298.11
582.7	35392.31
582.904	35062.59
583.107	35257.15
583.311	35275.58
583.515	35023.68
583.718	35138.37
583.922	35986.22
584.125	35912.5
584.329	35574.58
584.532	35797.81
584.735	36236.08
584.939	35633.97
585.142	35189.56
585.346	35287.87
585.549	36213.55
585.753	35785.52
585.956	36170.54
586.159	36070.19
586.363	36533.03
586.566	36309.8
586.769	35840.82
586.973	35887.92
587.176	36371.24
587.379	36461.35
587.582	36516.65
587.786	36193.07
587.989	36682.53
588.192	36932.39
588.395	36336.43
588.599	36483.88
588.802	37059.36
589.005	36379.43
589.208	36295.47
589.411	36842.28
589.615	36832.04
589.818	37368.6
590.021	36913.95
590.224	36795.17
590.427	36920.1
590.63	37530.39
590.833	36883.23
591.036	36408.11
591.239	37215.01
591.442	37104.42
591.645	37278.49
591.848	37497.63
592.051	37683.99
592.254	37737.24
592.457	37442.33
592.66	37268.25
592.863	37681.94
593.066	37538.58
593.269	37743.38
593.472	37495.58
593.675	37985.04
593.878	37679.89
594.081	37589.78
594.284	37208.86
594.486	38087.44
594.689	37974.8
594.892	37794.58
595.095	38171.41
595.298	38312.72
595.5	38261.52
595.703	38488.84
595.906	38085.39
596.109	38392.59
596.311	38603.53
596.514	37913.36
596.717	38517.51
596.92	38968.07
597.122	39076.61
597.325	38329.1
597.528	38544.14
597.73	39252.73
597.933	38607.62
598.136	38443.79
598.338	38396.68
598.541	38544.14
598.743	39076.61
598.946	38724.36
599.148	39047.94
599.351	39228.16
599.554	39125.76
599.756	38875.91
599.959	38916.87
600.161	38880
600.363	40254.19
600.566	39267.07
600.768	38785.8
600.971	39273.21
601.173	39312.13
601.376	39484.15
601.578	38822.66
601.78	39441.15
601.983	39627.51
602.185	39176.96
602.388	39416.57
602.59	39254.78
602.792	39090.94
602.995	39426.81
603.197	39013.12
603.399	39793.4
603.601	39500.54
603.804	38681.35
604.006	39502.59
604.208	39011.07
604.41	39240.45
604.613	39756.53
604.815	39437.05
605.017	40196.85
605.219	39838.45
605.421	39416.57
605.623	39568.12
605.826	40327.92
606.028	39826.17
606.23	39650.04
606.432	40090.35
606.634	40854.25
606.836	40336.11
607.038	39832.31
607.24	39969.52
607.442	40493.8
607.644	40540.91
607.846	39879.41
608.048	40096.5
608.25	40405.74
608.452	39877.36
608.654	40278.77
608.856	39672.57
609.058	40176.37
609.26	40327.92
609.462	40422.12
609.664	40190.7
609.866	40686.31
610.067	40739.56
610.269	40026.87
610.471	39826.17
610.673	40086.26
610.875	41239.26
611.077	39729.91
611.278	40106.74
611.48	40076.02
611.682	40510.19
611.884	40262.38
612.085	40020.72
612.287	39869.17
612.489	40422.12
612.69	39965.43
612.892	40614.63
613.094	40413.93
613.295	40452.84
613.497	40377.07
613.699	40315.63
613.9	40927.97
614.102	40829.67
614.304	39987.96
614.505	39691
614.707	40596.2
614.908	40045.3
615.11	39594.75
615.311	40094.45
615.513	40565.48
615.714	40868.58
615.916	40350.45
616.117	40452.84
616.319	40385.26
616.52	40626.92
616.722	40436.46
616.923	40487.66
617.124	41140.96
617.326	40755.94
617.527	40723.18
617.729	40749.8
617.93	40684.26
618.131	41024.23
618.333	40653.54
618.534	40307.44
618.735	40485.61
618.937	41042.66
619.138	39936.76
619.339	40807.14
619.54	40659.69
619.742	41151.2
619.943	41249.5
620.144	40620.78
620.345	41267.94
620.546	41155.3
620.748	40545
620.949	40772.33
621.15	40876.77
621.351	40936.16
621.552	40319.73
621.753	40717.03
621.954	41007.84
622.155	40858.34
622.356	40592.11
622.558	40889.06
622.759	40985.32
622.96	41263.84
623.161	40887.01
623.362	40772.33
623.563	40889.06
623.764	40805.09
623.965	40844.01
624.166	41214.69
624.366	40948.45
624.567	41288.42
624.768	40960.74
624.969	40596.2
625.17	41288.42
625.371	41040.61
625.572	40934.12
625.773	40780.52
625.973	41349.85
626.174	41601.75
626.375	41292.51
626.576	41077.47
626.777	41433.82
626.977	41614.04
627.178	41319.13
627.379	40837.86
627.58	41087.71
627.78	41317.09
627.981	40944.36
628.182	41011.94
628.382	41636.57
628.583	41224.93
628.784	41108.19
628.984	40811.24
629.185	41642.71
629.386	40985.32
629.586	41747.16
629.787	41634.52
629.987	41906.9
630.188	41730.78
630.388	41851.61
630.589	41136.87
630.79	41931.48
630.99	42287.82
631.191	41837.27
631.391	41921.24
631.591	41657.05
631.792	41878.23
631.992	42650.31
632.193	42263.25
632.393	42078.93
632.594	41655
632.794	41513.69
632.994	41863.89
633.195	41788.12
633.395	41933.53
633.595	41376.48
633.796	42388.17
633.996	42140.37
634.196	42189.52
634.397	41716.44
634.597	41886.42
634.797	41908.95
634.997	42527.44
635.198	42011.35
635.398	41749.21
635.598	42394.32
635.798	42414.8
635.998	42402.51
636.199	41962.2
636.399	42132.18
636.599	42044.12
636.799	41833.17
636.999	41972.44
637.199	42072.79
637.399	42476.24
637.599	41779.93
637.799	41726.68
637.999	41935.57
638.199	42377.93
638.399	41937.62
638.599	41970.39
638.799	42191.57
638.999	42480.33
639.199	42345.17
639.399	42683.08
639.599	43147.97
639.799	41669.34
639.999	41781.98
640.199	42046.16
640.399	42410.7
640.599	41747.16
640.799	42525.39
640.998	42724.04
641.198	42226.38
641.398	42547.92
641.598	42279.63
641.798	42898.12
641.997	43666.11
642.197	42547.92
642.397	42535.63
642.597	42691.27
642.796	43150.02
642.996	43104.96
643.196	42953.41
643.395	42730.19
643.595	43072.2
643.795	42765
643.994	43061.96
644.194	43039.43
644.394	43502.27
644.593	42859.21
644.793	42769.1
644.992	42955.46
645.192	43213.51
645.392	42457.81
645.591	43514.56
645.791	43281.09
645.99	43356.86
646.19	43184.83
646.389	42599.12
646.589	43125.44
646.788	43264.71
646.987	43240.13
647.187	43123.4
647.386	43121.35
647.586	43133.64
647.785	43350.72
647.984	42867.4
648.184	43125.44
648.383	42918.6
648.582	43295.42
648.782	43793.08
648.981	43215.55
649.18	42851.02
649.38	43639.48
649.579	43135.68
649.778	43317.95
649.977	43733.69
650.177	43614.91
650.376	43074.24
650.575	43227.84
650.774	43788.99
650.973	43307.71
651.173	43094.72
651.372	43246.27
651.571	43862.71
651.77	43459.26
651.969	43125.44
652.168	43547.32
652.367	43436.73
652.566	43539.13
652.765	43422.4
652.964	43549.37
653.163	43838.14
653.362	43778.75
653.561	43117.25
653.76	43750.07
653.959	43877.05
654.158	44671.66
654.357	43524.8
654.556	44006.07
654.755	44245.68
654.954	44106.42
655.153	43422.4
655.352	43975.35
655.551	44161.72
655.749	43770.55
655.948	43641.53
656.147	43791.03
656.346	43985.59
656.545	43836.09
656.743	43987.64
656.942	43754.17
657.141	44120.76
657.34	43641.53
657.538	43893.43
657.737	43655.87
657.936	44274.35
658.135	43782.84
658.333	43733.69
658.532	44040.89
658.731	44006.07
658.929	44073.65
659.128	43782.84
659.326	44198.58
659.525	44229.3
659.724	43928.25
659.922	43821.75
660.121	43723.45
660.319	43858.62
660.518	43944.63
660.716	43473.6
660.915	43840.18
661.113	44511.92
661.312	43571.9
661.51	43459.26
661.709	44171.96
661.907	44235.44
662.105	44165.81
662.304	43676.35
662.502	44159.67
662.701	45032.1
662.899	43449.02
663.097	43956.92
663.296	43764.41
663.494	44470.96
663.692	44483.25
663.891	43561.66
664.089	43823.8
664.287	44325.55
664.485	44509.87
664.684	44450.48
664.882	44321.46
665.08	44073.65
665.278	44530.35
665.476	43983.54
665.675	44198.58
665.873	44237.49
666.071	44460.72
666.269	44292.79
666.467	43881.14
666.665	44061.36
666.863	43588.28
667.061	44264.11
667.259	43920.06
667.457	44184.24
667.655	44204.72
667.853	43877.05
668.051	43584.19
668.249	43823.8
668.447	44436.14
668.645	43664.06
668.843	44139.19
669.041	44049.08
669.239	43967.16
669.437	43748.03
669.635	44556.97
669.833	43827.9
670.031	44536.49
670.229	43604.67
670.426	43877.05
670.624	43821.75
670.822	43430.59
671.02	43887.29
671.218	43967.16
671.415	43670.2
671.613	43813.56
671.811	43606.72
672.009	43653.82
672.206	44120.76
672.404	44020.41
672.602	43242.18
672.799	43854.52
672.997	43983.54
673.195	44004.02
673.392	44055.22
673.59	43512.51
673.788	43856.57
673.985	43340.48
674.183	44036.79
674.38	43788.99
674.578	43958.97
674.775	44051.13
674.973	43389.63
675.17	43565.76
675.368	43897.53
675.565	43727.55
675.763	43023.04
675.96	43522.75
676.158	44360.37
676.355	43332.29
676.553	43743.93
676.75	43338.43
676.947	43549.37
677.145	43193.03
677.342	43846.33
677.539	43424.45
677.737	43793.08
677.934	44051.13
678.131	43446.97
678.329	43133.64
678.526	43758.27
678.723	44139.19
678.92	43893.43
679.118	43549.37
679.315	43289.28
679.512	43827.9
679.709	43305.66
679.906	43477.69
680.104	43741.88
680.301	43635.39
680.498	43096.77
680.695	42836.68
680.892	43227.84
681.089	43205.31
681.286	43451.07
681.483	42633.93
681.68	43381.44
681.877	43420.35
682.075	43256.51
682.272	42736.33
682.469	43184.83
682.665	42736.33
682.862	42799.82
683.059	42394.32
683.256	43188.93
683.453	42910.41
683.65	42779.34
683.847	43051.72
684.044	43059.91
684.241	42410.7
684.438	43281.09
684.635	42140.37
684.831	43616.96
685.028	43084.48
685.225	42779.34
685.422	42812.1
685.619	42846.92
685.815	42711.75
686.012	42822.34
686.209	42513.1
686.405	43082.44
686.602	42869.45
686.799	41997.01
686.996	42506.96
687.192	42363.6
687.389	43174.59
687.586	42214.1
687.782	42513.1
687.979	42963.65
688.175	42416.85
688.372	41769.69
688.568	42427.09
688.765	41980.63
688.962	42359.5
689.158	42289.87
689.355	42035.92
689.551	42406.61
689.748	41650.91
689.944	41976.53
690.14	42003.16
690.337	42164.95
690.533	42076.88
690.73	41628.38
690.926	42046.16
691.123	41990.87
691.319	41747.16
691.515	41911
691.712	41380.57
691.908	41601.75
692.104	41839.32
692.301	41820.89
692.497	41698.01
692.693	42300.11
692.889	42138.32
693.086	41681.63
693.282	41255.65
693.478	41702.1
693.674	42154.71
693.87	41605.85
694.067	41646.81
694.263	42003.16
694.459	41814.74
694.655	41652.95
694.851	41593.56
695.047	41386.72
695.243	41980.63
695.439	41257.7
695.635	41478.88
695.831	41958.1
696.027	41667.29
696.224	41374.43
696.42	42009.3
696.615	42046.16
696.811	41769.69
697.007	41386.72
697.203	41341.66
697.399	41603.8
697.595	41722.58
697.791	41056.99
697.987	41022.18
698.183	40964.84
698.379	40913.64
698.575	41140.96
698.77	41083.62
698.966	41505.5
699.162	41493.21
699.358	41079.52
699.554	41177.82
699.749	41186.02
699.945	41243.36
700.141	40909.54
700.337	41020.13
700.532	41079.52
700.728	40663.78
700.924	40934.12
701.119	40729.32
701.315	40645.35
701.511	40397.55
701.706	41075.43
701.902	40432.36
702.097	40676.07
702.293	41050.85
702.489	40491.76
702.684	40979.17
702.88	40682.22
703.075	40305.39
703.271	40248.05
703.466	40481.52
703.662	40710.89
703.857	40997.6
704.053	40712.94
704.248	40893.16
704.443	40577.77
704.639	40856.29
704.834	40336.11
705.03	40315.63
705.225	40768.23
705.42	40323.82
705.616	40381.17
705.811	39670.52
706.006	40598.25
706.202	40641.26
706.397	39944.95
706.592	39953.14
706.787	40239.86
706.983	40385.26
707.178	40923.88
707.373	40436.46
707.568	40366.83
707.763	40493.8
707.959	40545
708.154	40139.5
708.349	40342.25
708.544	40659.69
708.739	40399.6
708.934	39893.75
709.129	40133.36
709.324	40250.1
709.519	40063.73
709.714	39838.45
709.909	40469.23
710.104	39514.87
710.299	39748.34
710.494	39598.84
710.689	40037.11
710.884	40076.02
711.079	40342.25
711.274	39867.12
711.469	40114.93
711.664	40057.59
711.859	39543.55
712.054	39965.43
712.249	39531.26
712.443	40088.31
712.638	39791.35
712.833	39551.74
713.028	39533.31
713.223	39256.83
713.417	39467.77
713.612	39518.97
713.807	39711.48
714.002	40168.18
714.196	39707.38
714.391	39203.58
714.586	39457.53
714.78	39406.33
714.975	39127.81
715.17	39451.39
715.364	39156.48
715.559	39488.25
715.754	38609.67
715.948	38910.72
716.143	39187.2
716.337	39453.44
716.532	39594.75
716.726	38908.68
716.921	39488.25
717.115	40092.4
717.31	38847.24
717.504	39699.19
717.699	39121.66
717.893	39138.05
718.088	39125.76
718.282	38634.25
718.476	39154.43
718.671	38757.13
718.865	38290.19
719.059	38675.21
719.254	38830.85
719.448	38996.74
719.642	39809.78
719.837	37845.78
720.031	38834.95
720.225	38208.27
720.419	38337.29
720.614	38103.82
720.808	38650.63
721.002	38490.89
721.196	38458.12
721.39	38087.44
721.585	38337.29
721.779	38044.43
721.973	37856.02
722.167	37853.97
722.361	38560.52
722.555	38621.96
722.749	37829.4
722.943	37935.89
723.137	37425.95
723.331	38146.83
723.525	37704.47
723.719	37550.87
723.913	37995.28
724.107	38347.53
724.301	38087.44
724.495	37958.42
724.689	38511.37
724.883	38183.69
725.077	37970.71
725.271	37864.21
725.465	37845.78
725.659	38150.93
725.853	37845.78
726.046	37567.26
726.24	37471
726.434	37677.85
726.628	37544.73
726.822	37088.03
727.015	38296.33
727.209	37794.58
727.403	37991.19
727.596	37118.75
727.79	37538.58
727.984	37692.18
728.177	37626.65
728.371	37356.32
728.565	37810.96
728.758	37309.21
728.952	36993.82
729.146	37180.19
729.339	37708.57
729.533	37305.12
729.726	37253.92
729.92	37309.21
730.113	37661.46
730.307	37626.65
730.5	36885.28
730.694	37301.02
730.887	37229.34
731.081	37749.53
731.274	36983.58
731.468	37159.71
731.661	37139.23
731.854	37245.72
732.048	37339.93
732.241	37698.33
732.435	37090.08
732.628	37628.7
732.821	37389.08
733.014	37243.68
733.208	37335.84
733.401	37600.02
733.594	37018.4
733.788	36899.62
733.981	37483.29
734.174	37624.6
734.367	37251.87
734.56	37298.97
734.754	37243.68
734.947	37341.98
735.14	37344.03
735.333	37356.32
735.526	37262.11
735.719	36782.88
735.912	37081.89
736.105	37143.33
736.298	36930.34
736.491	37024.54
736.684	36844.32
736.877	37139.23
737.07	37339.93
737.263	37260.06
737.456	36786.98
737.649	36686.63
737.842	37161.76
738.035	37344.03
738.228	36621.09
738.421	37194.53
738.614	37241.63
738.807	37427.99
739	36707.11
739.192	36721.44
739.385	36799.27
739.578	36887.33
739.771	37063.46
739.964	36477.74
740.156	36875.04
740.349	36512.55
740.542	37122.85
740.735	36107.05
740.927	36821.8
741.12	36694.82
741.313	36520.74
741.505	37151.52
741.698	36969.25
741.891	36827.94
742.083	36709.16
742.276	36633.38
742.468	36928.29
742.661	36397.87
742.854	36262.7
743.046	36223.79
743.239	36782.88
743.431	36774.69
743.624	36201.26
743.816	36197.16
744.009	36645.67
744.201	36318
744.393	36459.3
744.586	36184.88
744.778	36703.01
744.971	36416.3
745.163	36901.67
745.355	35949.36
745.548	36234.03
745.74	36311.85
745.932	36719.4
746.125	36293.42
746.317	36817.7
746.509	36240.17
746.702	36096.81
746.894	36391.72
747.086	36236.08
747.278	36500.26
747.471	36469.54
747.663	36193.07
747.855	35992.37
748.047	36184.88
748.239	35828.53
748.431	35605.3
748.623	36457.26
748.815	36072.24
749.008	35928.88
749.2	35709.75
749.392	36135.73
749.584	35502.9
749.776	35965.74
749.968	36043.57
750.16	36391.72
750.352	35865.39
750.544	35701.56
750.736	35697.46
750.928	36350.76
751.12	35904.31
751.311	36031.28
751.503	35836.72
751.695	35783.48
751.887	35793.72
752.079	35308.35
752.271	35328.83
752.463	36053.81
752.654	35599.16
752.846	35451.7
753.038	34941.76
753.23	35287.87
753.421	35537.72
753.613	34863.94
753.805	35717.94
753.997	35003.2
754.188	35234.62
754.38	35031.87
754.572	34890.56
754.763	34906.94
754.955	35105.6
755.146	35201.85
755.338	35130.17
755.53	35015.49
755.721	35220.28
755.913	34859.84
756.104	34794.31
756.296	35255.1
756.487	34921.28
756.679	34775.87
756.87	34800.45
757.062	34534.21
757.253	35304.25
757.445	34800.45
757.636	34800.45
757.827	34657.09
758.019	35418.94
758.21	34132.81
758.401	34460.49
758.593	35175.23
758.784	34837.31
758.975	33745.75
759.167	33901.39
759.358	33989.45
759.549	34235.21
759.74	33878.86
759.932	33745.75
760.123	34161.48
760.314	33923.92
760.505	34138.96
760.696	34038.61
760.888	34730.82
761.079	33981.26
761.27	33823.57
761.461	33375.06
761.652	34081.61
761.843	33416.02
762.034	33723.22
762.225	33842
762.416	33821.52
762.607	33194.84
762.798	33293.15
762.989	33129.31
763.18	34382.66
763.371	33508.18
763.562	33661.78
763.753	32965.47
763.944	33776.47
764.135	33385.3
764.326	33180.51
764.517	33237.85
764.708	33170.27
764.899	33495.89
765.089	32967.52
765.28	32983.9
765.471	33483.61
765.662	33190.75
765.853	32992.09
766.043	32688.99
766.234	33112.92
766.425	32664.42
766.615	33043.29
766.806	32766.82
766.997	33190.75
767.187	32666.47
767.378	32617.32
767.569	32605.03
767.759	32459.62
767.95	32783.2
768.141	32355.18
768.331	32047.98
768.522	32406.37
768.712	32342.89
768.903	32439.14
769.093	32189.29
769.284	32664.42
769.474	32400.23
769.665	31564.66
769.855	31957.87
770.046	32574.31
770.236	31781.74
770.426	31947.63
770.617	31325.05
770.807	32244.59
770.998	31763.31
771.188	31961.97
771.378	31521.65
771.569	32316.26
771.759	31900.53
771.949	31241.08
772.139	31781.74
772.33	31335.29
772.52	32062.32
772.71	31558.52
772.9	31099.77
773.09	31693.68
773.281	31869.81
773.471	31001.47
773.661	31101.82
773.851	31716.21
774.041	30950.27
774.231	31208.31
774.421	31132.54
774.611	31439.73
774.802	31306.62
774.992	30724.99
775.182	30884.73
775.372	31394.68
775.562	30987.13
775.752	30968.7
775.942	30573.44
776.131	31279.99
776.321	30585.73
776.511	30532.48
776.701	30385.03
776.891	30985.08
777.081	30200.71
777.271	30372.74
777.461	30567.3
777.651	30628.74
777.84	30806.91
778.03	29807.5
778.22	29424.53
778.41	30598.02
778.599	30184.33
778.789	30055.31
778.979	30139.27
779.169	30450.56
779.358	30534.53
779.548	30645.12
779.738	29772.69
779.927	30573.44
780.117	30557.06
780.307	30100.36
780.496	29948.81
780.686	30532.48
780.875	30462.85
781.065	29705.1
781.254	29682.58
781.444	29834.13
781.633	30061.45
781.823	29492.12
782.012	29385.62
782.202	29608.85
782.391	29338.52
782.581	29490.07
782.77	29862.8
782.96	29870.99
783.149	29119.38
783.338	28781.47
783.528	28920.73
783.717	29412.24
783.906	29737.87
784.096	28961.69
784.285	29320.09
784.474	29303.7
784.663	29213.59
784.853	28976.03
785.042	29156.25
785.231	28754.85
785.42	29549.46
785.61	28900.25
785.799	28806.05
785.988	29295.51
786.177	28967.84
786.366	29193.11
786.555	29127.58
786.744	29166.49
786.933	29146.01
787.122	28955.55
787.312	28701.6
787.501	28689.31
787.69	29008.79
787.879	28429.22
788.068	28400.55
788.257	28201.9
788.445	28466.08
788.634	28709.79
788.823	28603.3
789.012	29156.25
789.201	28629.92
789.39	28119.98
789.579	28027.82
789.768	28619.68
789.957	28662.69
790.145	28433.32
790.334	27870.12
790.523	28197.8
790.712	28275.62
790.9	28205.99
791.089	27724.72
791.278	28611.49
791.467	28036.01
791.655	28050.35
791.844	28781.47
792.033	28119.98
792.221	27839.4
792.41	27880.36
792.599	27550.64
792.787	28146.6
792.976	28335.01
793.164	27720.62
793.353	27798.45
793.541	27898.8
793.73	27599.79
793.918	27657.14
794.107	27102.14
794.295	27698.09
794.484	27573.17
794.672	27145.14
794.861	27249.59
795.049	27771.82
795.238	27802.54
795.426	27155.38
795.614	27579.31
795.803	27456.43
795.991	27409.33
796.179	27395
796.368	27243.45
796.556	27386.8
796.744	27315.12
796.932	27208.63
797.121	27161.53
797.309	27470.77
797.497	27702.19
797.685	27323.32
797.874	27726.77
798.062	27298.74
798.25	27386.8
798.438	27134.9
798.626	27059.13
798.814	27497.39
799.002	27823.02
799.19	27093.94
799.378	27112.38
799.566	27335.6
799.755	27401.14
799.943	27063.22
800.131	27325.36
800.318	27169.72
800.506	27386.8
800.694	26780.6
800.882	26756.03
801.07	27251.64
801.258	27188.15
801.446	27087.8
801.634	26907.58
801.822	27222.97
802.01	27298.74
802.197	27188.15
802.385	27261.88
802.573	27626.42
802.761	27141.05
802.949	27542.45
803.136	27214.77
803.324	27438
803.512	27255.73
803.699	27341.75
803.887	26780.6
804.075	27782.06
804.262	26938.3
804.45	26999.74
804.638	26751.93
804.825	26919.87
805.013	27108.28
805.201	26846.14
805.388	27106.23
805.576	27009.98
805.763	28029.87
805.951	27317.17
806.138	27222.97
806.326	28046.25
806.513	27356.08
806.701	27395
806.888	27157.43
807.075	27263.93
807.263	27792.3
807.45	27067.32
807.638	27276.21
807.825	27956.14
808.012	27493.3
808.2	27061.18
808.387	27644.85
808.574	27509.68
808.761	27548.59
808.949	27157.43
809.136	27204.53
809.323	27335.6
809.51	27536.31
809.698	27610.03
809.885	27210.68
810.072	27737.01
810.259	27845.55
810.446	26958.78
810.633	27425.71
810.82	27870.12
811.008	27671.47
811.195	28007.34
811.382	27423.67
811.569	27947.95
811.756	27503.54
811.943	27702.19
812.13	27716.53
812.317	27915.18
812.504	27671.47
812.691	27894.7
812.878	27825.07
813.064	27962.28
813.251	27722.67
813.438	27712.43
813.625	27421.62
813.812	27368.37
813.999	27616.18
814.186	27640.75
814.372	27466.67
814.559	27732.91
814.746	28011.43
814.933	27169.72
815.12	27360.18
815.306	27351.99
815.493	27395
815.68	27464.63
815.866	27319.22
816.053	27939.75
816.24	27761.58
816.426	27347.89
816.613	27188.15
816.799	28003.24
816.986	27661.23
817.173	27014.07
817.359	26985.4
817.546	27485.11
817.732	27077.56
817.919	27372.47
818.105	27423.67
818.292	27354.04
818.478	27814.83
818.665	27620.27
818.851	27265.97
819.037	27800.49
819.224	27669.42
819.41	27104.18
819.597	26893.24
819.783	27790.25
819.969	27904.94
820.156	27194.29
820.342	27132.86
820.528	28165.03
820.714	26919.87
820.901	27216.82
821.087	27026.36
821.273	27530.16
821.459	26543.04
821.646	27018.17
821.832	26905.53
822.018	26622.91
822.204	26627.01
822.39	26592.19
822.576	26391.49
822.762	27063.22
822.948	26962.87
823.134	26973.11
823.32	26391.49
823.507	26323.91
823.693	27108.28
823.879	26661.82
824.065	26569.66
824.25	26700.73
824.436	26762.17
824.622	26289.09
824.808	26409.92
824.994	26532.8
825.18	25920.46
825.366	26203.08
825.552	26137.54
825.738	26557.38
825.923	26665.92
826.109	26584
826.295	26119.11
826.481	26067.91
826.667	26373.06
826.852	26004.42
827.038	26137.54
827.224	26670.01
827.409	26512.32
827.595	26100.68
827.781	26172.36
827.966	26731.45
828.152	26553.28
828.338	26006.47
828.523	25560.02
828.709	26012.62
828.894	26461.12
829.08	26104.77
829.266	25830.35
829.451	26145.73
829.637	26463.17
829.822	26002.38
830.008	25439.19
830.193	26311.62
830.378	25881.55
830.564	25584.59
830.749	25310.16
830.935	25611.21
831.12	25488.34
831.305	25719.76
831.491	25463.76
831.676	25390.03
831.861	25476.05
832.047	25242.58
832.232	24945.62
832.417	25603.02
832.602	25533.39
832.788	25060.31
832.973	24814.55
833.158	25097.17
833.343	25023.45
833.528	25261.01
833.714	25125.85
833.899	25500.62
834.084	25211.86
834.269	24988.63
834.454	24757.21
834.639	25172.95
834.824	25115.61
835.009	24878.04
835.194	24955.86
835.379	25037.78
835.564	24822.75
835.749	24761.31
835.934	24759.26
836.119	24783.84
836.304	24798.17
836.489	24663
836.674	24980.44
836.859	24488.93
837.044	25150.42
837.228	24658.91
837.413	24361.95
837.598	24941.53
837.783	24724.44
837.968	24812.51
838.152	24609.76
838.337	24124.39
838.522	24724.44
838.707	24703.96
838.891	24919
839.076	24806.36
839.261	25093.08
839.445	24564.7
839.63	24257.51
839.815	24325.09
839.999	24374.24
840.184	24198.12
840.368	24120.29
840.553	24462.3
840.737	24292.32
840.922	24183.78
841.106	23417.84
841.291	23776.23
841.475	24292.32
841.66	23972.84
841.844	23720.94
842.029	25019.35
842.213	23737.32
842.397	23499.76
842.582	23348.21
842.766	24230.88
842.951	23573.49
843.135	23352.31
843.319	23299.06
843.504	23741.42
843.688	23688.17
843.872	23221.24
844.056	23561.2
844.241	23804.91
844.425	23497.71
844.609	23434.22
844.793	23350.26
844.977	23546.86
845.161	23286.77
845.346	23266.29
845.53	23200.76
845.714	23403.5
845.898	23696.36
846.082	22897.66
846.266	23518.19
846.45	23579.63
846.634	23114.74
846.818	22922.23
847.002	23036.92
847.186	23559.15
847.37	23034.87
847.554	23135.22
847.738	22989.81
847.922	23196.66
848.106	23317.49
848.29	22670.33
848.473	22680.57
848.657	22885.37
848.841	22662.14
849.025	22737.91
849.209	22258.69
849.392	23186.42
849.576	22862.84
849.76	22070.28
849.944	22707.19
850.127	22875.13
850.311	22475.77
850.495	22062.08
850.678	22285.31
850.862	22735.87
851.046	22897.66
851.229	22397.95
851.413	22160.39
851.596	22311.94
851.78	22660.09
851.964	22658.04
852.147	22090.76
852.331	22897.66
852.514	22338.56
852.698	22072.32
852.881	21740.55
853.065	22354.94
853.248	22328.32
853.431	22307.84
853.615	22254.59
853.798	22844.41
853.982	22049.8
854.165	21832.71
854.348	21677.07
854.532	21881.86
854.715	21646.35
854.898	21419.02
855.081	21589
855.265	22144
855.448	21990.41
855.631	21353.49
855.814	21658.63
855.997	21812.23
856.181	21500.94
856.364	21476.37
856.547	21218.32
856.73	21246.99
856.913	21472.27
857.096	21128.21
857.279	21566.48
857.462	21318.67
857.645	21885.96
857.828	21457.93
858.011	21265.42
858.194	21416.97
858.377	21435.41
858.56	20773.91
858.743	21216.27
858.926	21005.33
859.109	21279.76
859.292	20960.28
859.475	20763.67
859.658	21537.8
859.841	21095.44
860.023	20958.23
860.206	20603.93
860.389	21056.53
860.572	21077.01
860.755	20431.9
860.937	20571.16
861.12	20673.56
861.303	20722.71
861.486	20241.44
861.668	20474.91
861.851	20878.36
862.034	20694.04
862.216	20530.2
862.399	19747.88
862.581	20282.4
862.764	20554.78
862.947	20335.65
863.129	19977.25
863.312	19874.85
863.494	20548.64
863.677	20100.13
863.859	20153.38
864.042	20468.76
864.224	21058.58
864.406	19837.99
864.589	19629.1
864.771	20257.82
864.954	19633.19
865.136	19981.35
865.318	19629.1
865.501	19917.86
865.683	19622.95
865.865	19424.3
866.048	19581.99
866.23	19571.75
866.412	19573.8
866.594	19119.15
866.777	19315.76
866.959	19502.12
867.141	19074.1
867.323	19518.51
867.505	19643.43
867.687	19258.42
867.869	19340.33
868.052	19489.84
868.234	19067.95
868.416	19467.31
868.598	19457.07
868.78	19256.37
868.962	19352.62
869.144	19930.15
869.326	19479.6
869.508	19074.1
869.69	19256.37
869.872	19242.03
870.054	19452.97
870.236	18971.7
870.417	19121.2
870.599	19252.27
870.781	19835.94
870.963	19354.67
871.145	19031.09
871.327	18975.8
871.508	19235.89
871.69	18852.92
871.872	19137.59
872.054	19297.33
872.235	19272.75
872.417	19000.37
872.599	18664.5
872.78	19414.06
872.962	19072.05
873.144	18781.24
873.325	18910.26
873.507	19745.83
873.689	19156.02
873.87	18592.83
874.052	19203.12
874.233	19031.09
874.415	19246.13
874.596	18879.54
874.778	18684.98
874.959	19377.2
875.141	19125.3
875.322	19012.66
875.503	18977.84
875.685	19446.83
875.866	18920.5
876.048	18914.36
876.229	18472
876.41	18969.65
876.592	19246.13
876.773	18844.73
876.954	18975.8
877.136	19620.91
877.317	18998.32
877.498	18764.85
877.679	19004.47
877.86	19352.62
878.042	19174.45
878.223	18902.07
878.404	19119.15
878.585	19328.05
878.766	19514.41
878.947	19436.59
879.128	19260.46
879.309	19262.51
879.49	19485.74
879.672	19070
879.853	19305.52
880.034	19438.64
880.215	19590.19
880.396	19352.62
880.576	19262.51
880.757	19391.53
880.938	19741.74
881.119	19776.55
881.3	19082.29
881.481	19383.34
881.662	20411.42
881.843	19125.3
882.023	19317.81
882.204	19856.42
882.385	19762.22
882.566	19473.45
882.747	19741.74
882.927	20145.19
883.108	20098.08
883.289	19616.81
883.469	19756.07
883.65	19899.43
883.831	19936.29
884.011	19717.16
884.192	19702.82
884.373	20311.07
884.553	20087.84
884.734	19964.96
884.914	20149.28
885.095	20552.73
885.275	20485.15
885.456	20333.6
885.636	19678.25
885.817	19948.58
885.997	20030.5
886.178	20089.89
886.358	20063.27
886.538	20610.07
886.719	21165.07
886.899	20044.84
887.08	20614.17
887.26	20562.97
887.44	20202.53
887.621	20243.49
887.801	20167.71
887.981	20904.98
888.161	20716.57
888.342	20231.2
888.522	20093.99
888.702	20788.25
888.882	20395.04
889.062	20151.33
889.242	19985.44
889.423	20464.67
889.603	20448.29
889.783	20288.54
889.963	19942.44
890.143	20255.78
890.323	20538.4
890.503	20093.99
890.683	20298.78
890.863	20454.43
891.043	20491.29
891.223	20220.96
891.403	20313.12
891.583	20548.64
891.763	20192.29
891.943	20130.85
892.122	20186.15
892.302	20608.03
892.482	20231.2
892.662	20071.46
892.842	20229.15
893.022	20581.4
893.201	20263.97
893.381	20505.63
893.561	20388.89
893.741	20483.1
893.92	20534.3
894.1	20421.66
894.28	20548.64
894.459	20489.24
894.639	20735
894.819	20360.22
894.998	20763.67
895.178	20673.56
895.357	20395.04
895.537	20272.16
895.716	20188.19
895.896	20474.91
896.075	20708.38
896.255	20468.76
896.434	20010.02
896.614	20796.44
896.793	20487.2
896.973	20329.5
897.152	20155.43
897.331	20364.32
897.511	20358.17
897.69	19821.61
897.87	20335.65
898.049	20646.94
898.228	20382.75
898.407	20364.32
898.587	20364.32
898.766	20288.54
898.945	20411.42
899.124	20096.03
899.304	19924.01
899.483	20286.5
899.662	20296.74
899.841	19594.28
900.02	19835.94
900.199	20057.12
900.378	20044.84
900.557	19754.02
900.737	19319.85
900.916	19969.06
901.095	20042.79
901.274	19889.19
901.453	19891.24
901.632	19799.08
901.811	19823.65
901.989	19414.06
902.168	19455.02
902.347	19815.46
902.526	19430.44
902.705	19489.84
902.884	19479.6
903.063	19819.56
903.242	19797.03
903.42	19371.05
903.599	19434.54
903.778	19690.54
903.957	19688.49
904.135	19493.93
904.314	19323.95
904.493	19471.4
904.672	19678.25
904.85	19147.83
905.029	19239.98
905.207	19217.46
905.386	20206.62
905.565	18754.62
905.743	19364.91
905.922	19299.37
906.1	19567.66
906.279	19340.33
906.457	19248.18
906.636	19276.85
906.814	19332.14
906.993	19029.04
907.171	19373.1
907.35	19110.96
907.528	19252.27
907.707	19135.54
907.885	18732.09
908.063	19125.3
908.242	18619.45
908.42	18402.36
908.598	18424.89
908.777	18906.16
908.955	18328.64
909.133	18476.09
909.311	18482.24
909.49	18758.71
909.668	18562.11
909.846	18717.75
910.024	18203.71
910.202	18388.03
910.38	18435.13
910.559	17898.56
910.737	17851.46
910.915	18349.12
911.093	18295.87
911.271	17953.86
911.449	18240.58
911.627	18179.14
911.805	18517.05
911.983	17665.1
912.161	17775.69
912.339	18056.26
912.517	17919.04
912.695	17685.58
912.872	17271.89
913.05	17876.04
913.228	17900.61
913.406	17665.1
913.584	17466.44
913.762	18033.73
913.939	17486.92
914.117	17439.82
914.295	17392.72
914.473	17550.41
914.65	17394.76
914.828	16763.99
915.006	17271.89
915.184	17214.54
915.361	17515.59
915.539	17204.3
915.716	17359.95
915.894	17163.34
916.072	17685.58
916.249	17216.59
916.427	17189.97
916.604	17167.44
916.782	16948.31
916.959	16487.51
917.137	16727.13
917.314	16938.07
917.492	17089.62
917.669	16591.96
917.847	16252
918.024	16655.45
918.201	16331.87
918.379	16563.29
918.556	16262.24
918.733	16645.21
918.911	16409.69
919.088	16168.03
919.265	16178.27
919.442	16407.64
919.62	16350.3
919.797	15750.24
919.974	15834.21
920.151	16190.56
920.328	16127.07
920.506	15457.39
920.683	15957.09
920.86	15494.25
921.037	15723.62
921.214	15740.01
921.391	15551.59
921.568	16118.88
921.745	15715.43
921.922	15846.5
922.099	15653.99
922.276	16000.1
922.453	15733.86
922.63	15311.98
922.807	15316.08
922.984	15506.54
923.161	15035.5
923.338	15035.5
923.514	14840.95
923.691	15103.09
923.868	15158.38
924.045	14820.47
924.222	14756.98
924.399	14804.08
924.575	15041.65
924.752	14781.56
924.929	14681.21
925.105	14748.79
925.282	14388.35
925.459	14558.33
925.635	14630.01
925.812	14595.19
925.989	14509.18
926.165	14353.53
926.342	14109.82
926.518	14226.56
926.695	14376.06
926.871	13972.61
927.048	13884.55
927.224	14386.3
927.401	13962.37
927.577	13923.46
927.754	13681.8
927.93	14107.77
928.107	13923.46
928.283	13683.84
928.459	13702.28
928.636	13702.28
928.812	13345.93
928.988	13157.52
929.165	13134.99
929.341	13495.43
929.517	13421.7
929.693	13444.23
929.87	12977.3
930.046	13569.16
930.222	13106.32
930.398	12924.05
930.574	13114.51
930.751	13354.12
930.927	13075.6
931.103	13114.51
931.279	12623
931.455	12577.94
931.631	12706.96
931.807	12381.34
931.983	12375.19
932.159	12448.92
932.335	12838.03
932.511	12446.87
932.687	12039.33
932.863	12567.7
933.039	12053.66
933.215	11887.78
933.391	11607.2
933.566	11957.41
933.742	11809.95
933.918	11601.06
934.094	11433.13
934.27	11662.5
934.445	11316.39
934.621	11437.22
934.797	10933.42
934.973	11410.6
935.148	11371.69
935.324	10695.86
935.5	10609.84
935.675	11238.57
935.851	10726.58
936.027	10486.97
936.202	10276.02
936.378	10286.26
936.553	10157.24
936.729	10144.95
936.904	9698.5
937.08	9399.49
937.255	9399.49
937.431	9118.92
937.606	8998.09
937.782	8852.69
937.957	8862.93
938.133	8885.45
938.308	8582.35
938.483	8451.28
938.659	8226.01
938.834	8318.17
939.009	8049.88
939.185	7986.4
939.36	7834.85
939.535	7345.38
939.71	7728.35
939.886	7683.3
940.061	7752.93
940.236	7337.19
940.411	7197.93
940.586	7249.13
940.761	7566.56
940.937	7083.24
941.112	7019.75
941.287	7015.66
941.462	7054.57
941.637	6761.71
941.812	6798.57
941.987	6794.48
942.162	6685.94
942.337	6567.15
942.512	6599.92
942.687	6837.49
942.862	6802.67
943.037	6282.49
943.212	6165.75
943.386	6325.49
943.561	6405.36
943.736	6460.66
943.911	6569.2
944.086	6458.61
944.26	6223.09
944.435	6135.03
944.61	6329.59
944.785	6659.31
944.959	6567.15
945.134	5960.95
945.309	5991.67
945.483	6085.88
945.658	6423.8
945.833	5618.94
946.007	5850.36
946.182	6466.8
946.357	5831.93
946.531	5688.57
946.706	5860.6
946.88	5633.28
947.055	6147.32
947.229	6077.69
947.404	5852.41
947.578	6329.59
947.752	6096.12
947.927	5731.58
948.101	5772.54
948.276	6223.09
948.45	5999.87
948.624	6120.7
948.799	5842.17
948.973	6206.71
949.147	5737.73
949.321	5934.33
949.496	5960.95
949.67	6352.12
949.844	6069.5
950.018	5874.94
950.193	5944.57
950.367	6640.88
950.541	6112.5
950.715	6163.7
950.889	6182.14
951.063	6202.61
951.237	6333.68
951.411	5885.18
951.585	5833.98
951.759	6327.54
951.933	6149.37
952.107	5954.81
952.281	6001.91
952.455	6429.94
952.629	6485.23
952.803	5948.67
952.977	5852.41
953.151	6229.24
953.325	6235.38
953.499	6292.73
953.672	5694.72
953.846	6022.39
954.02	6098.17
954.194	5999.87
954.368	5999.87
954.541	6182.14
954.715	5942.52
954.889	5963
955.062	5829.88
955.236	6055.16
955.41	5680.38
955.583	6108.41
955.757	5709.05
955.93	5944.57
956.104	5833.98
956.278	5864.7
956.451	5733.63
956.625	6112.5
956.798	6690.03
956.972	6141.18
957.145	5973.24
957.319	6139.13
957.492	5876.99
957.665	5942.52
957.839	5719.29
958.012	6051.06
958.185	5893.37
958.359	5911.8
958.532	6010.11
958.705	6141.18
958.879	5917.95
959.052	5876.99
959.225	5481.73
959.398	5717.25
959.572	5946.62
959.745	5852.41
959.918	5754.11
960.091	5733.63
960.264	5864.7
960.438	5453.06
960.611	5518.59
960.784	5991.67
960.957	5491.97
961.13	5991.67
961.303	5559.55
961.476	5649.66
961.649	5879.04
961.822	5461.25
961.995	5727.49
962.168	6067.45
962.341	5711.1
962.514	5455.11
962.686	5457.15
962.859	5823.74
963.032	5870.84
963.205	5422.34
963.378	5180.68
963.551	5840.12
963.723	5743.87
963.896	5688.57
964.069	5553.41
964.242	5541.12
964.414	5790.97
964.587	5414.15
964.76	5471.49
964.932	5625.09
965.105	5455.11
965.278	5446.91
965.45	5295.36
965.623	5414.15
965.795	5575.94
965.968	5248.26
966.14	5317.89
966.313	5485.83
966.485	5575.94
966.658	5483.78
966.83	5315.84
967.003	5653.76
967.175	5715.2
967.348	5356.8
967.52	5309.7
967.692	5879.04
967.865	5612.8
968.037	5270.79
968.209	5537.02
968.382	5344.52
968.554	5469.44
968.726	5358.85
968.898	5387.52
969.071	5448.96
969.243	5487.87
969.415	5330.18
969.587	5356.8
969.759	5897.47
969.932	5543.17
970.104	5240.07
970.276	4994.31
970.448	5430.53
970.62	5184.77
970.792	5268.74
970.964	5278.98
971.136	5717.25
971.308	5295.36
971.48	5141.77
971.652	5029.13
971.824	5741.82
971.996	5043.46
972.168	5100.81
972.339	5283.08
972.511	5506.31
972.683	5176.58
972.855	5399.81
973.027	5080.33
973.199	5137.67
973.37	5352.71
973.542	5033.22
973.714	5031.18
973.886	5227.78
974.057	5334.28
974.229	4826.38
974.401	4848.91
974.572	4807.95
974.744	4680.97
974.915	4885.77
975.087	4875.53
975.259	5289.22
975.43	4832.52
975.602	4957.45
975.773	4726.03
975.945	4850.96
976.116	5209.35
976.288	4775.18
976.459	4936.97
976.63	4791.56
976.802	5076.23
976.973	4875.53
977.145	4857.1
977.316	5350.66
977.487	4941.07
977.659	4961.55
977.83	4775.18
978.001	5367.04
978.172	4951.31
978.344	4715.79
978.515	4783.37
978.686	4711.69
978.857	5154.05
979.028	4691.21
979.2	4564.24
979.371	5078.28
979.542	4916.49
979.713	4803.85
979.884	4357.39
980.055	4564.24
980.226	4703.5
980.397	4453.65
980.568	4455.7
980.739	5037.32
980.91	4576.53
981.081	4582.67
981.252	4291.86
981.423	4883.72
981.594	5037.32
981.765	4422.93
981.936	4439.31
982.106	4459.79
982.277	4740.36
982.448	4324.63
982.619	4539.66
982.79	4453.65
982.96	4728.08
983.131	4500.75
983.302	4107.54
983.472	4427.03
983.643	4504.85
983.814	4525.33
983.984	4289.81
984.155	4347.15
984.326	4699.41
984.496	4453.65
984.667	4271.38
984.837	4306.2
985.008	4674.83
985.178	4394.26
985.349	4314.39
985.519	4281.62
985.69	4107.54
985.86	4199.7
986.031	4156.69
986.201	4328.72
986.371	4357.39
986.542	4164.89
986.712	4060.44
986.882	4422.93
987.053	4529.42
987.223	3994.9
987.393	4082.97
987.563	4269.33
987.734	4248.85
987.904	4277.52
988.074	3951.9
988.244	4259.09
988.414	4203.8
988.585	4009.24
988.755	4166.93
988.925	4191.51
989.095	4670.73
989.265	3906.84
989.435	4156.69
989.605	4312.34
989.775	4197.65
989.945	3955.99
990.115	3788.06
990.285	3976.47
990.455	4209.94
990.625	3980.57
990.795	3628.32
990.965	4377.87
991.134	3794.2
991.304	3730.72
991.474	3777.82
991.644	4199.7
991.814	4308.24
991.984	3599.65
992.153	3837.21
992.323	4011.29
992.493	4021.53
992.662	3593.5
992.832	3951.9
993.002	3994.9
993.171	3974.42
993.341	3702.04
993.511	3892.51
993.68	3738.91
993.85	3980.57
994.019	3538.21
994.189	3675.42
994.358	3896.6
994.528	3601.69
994.697	3435.81
994.867	3423.52
995.036	3831.07
995.206	3738.91
995.375	3454.24
995.544	3642.65
995.714	3763.48
995.883	3620.13
996.052	3761.44
996.222	3519.78
996.391	4214.04
996.56	3806.49
996.73	3530.02
996.899	3347.75
997.068	4099.35
997.237	3648.8
997.406	3261.73
997.576	3503.39
997.745	3566.88
997.914	3570.97
998.083	3251.49
998.252	3435.81
998.421	3444
998.59	3464.48
998.759	3192.1
998.928	3183.91
999.097	3747.1
999.266	3450.14
999.435	3314.98
999.604	3269.92
999.773	3968.28
999.942	3464.48
1000.111	3073.32
1000.28	3194.15
1000.448	3214.63
1000.617	3122.47
1000.786	3278.12
1000.955	2977.06
1001.124	3470.62
1001.292	3933.47
1001.461	3171.62
1001.63	3089.7
1001.798	3786.01
1001.967	3708.19
1002.136	2989.35
1002.304	2956.58
1002.473	3312.93
1002.642	3341.6
1002.81	3124.52
1002.979	3009.83
1003.147	3411.23
1003.316	3722.52
1003.484	2989.35
1003.653	3003.69
1003.821	3474.72
1003.99	3159.33
1004.158	3091.75
1004.327	2909.48
1004.495	3374.37
1004.663	2946.34
1004.832	3198.24
1005	2817.32
1005.168	3224.87
1005.337	3138.85
1005.505	2954.54
1005.673	3101.99
1005.842	3198.24
1006.01	3304.74
1006.178	2676.01
1006.346	2710.83
1006.514	3079.46
1006.683	3357.99
1006.851	2747.69
1007.019	2790.7
1007.187	2985.26
1007.355	2671.92
1007.523	2626.86
1007.691	2565.42
1007.859	2710.83
1008.027	3188
1008.195	2688.3
1008.363	2655.53
1008.531	3233.06
1008.699	2874.67
1008.867	2495.79
1009.035	2551.09
1009.203	3089.7
1009.37	2854.19
1009.538	2575.66
1009.706	2923.82
1009.874	2845.99
1010.042	2637.1
1010.209	2481.46
1010.377	2553.13
1010.545	2915.62
1010.713	2942.25
1010.88	2497.84
1011.048	2532.65
1011.216	2719.02
1011.383	3120.42
1011.551	2389.3
1011.718	2436.4
1011.886	2843.95
1012.054	2676.01
1012.221	2452.78
1012.389	2430.26
1012.556	2622.77
1012.724	3040.55
1012.891	2479.41
1013.058	2194.74
1013.226	2657.58
1013.393	2725.16
1013.561	2372.91
1013.728	2112.82
1013.895	2716.97
1014.063	2530.61
1014.23	2207.03
1014.397	2143.54
1014.565	2633.01
1014.732	2313.52
1014.899	2211.12
1015.066	2110.77
1015.233	2553.13
1015.401	2657.58
1015.568	2274.61
1015.735	2264.37
1015.902	2528.56
1016.069	2559.28
1016.236	2166.07
1016.403	2059.57
1016.57	2299.19
1016.737	2624.81
1016.904	2295.09
1017.071	2006.33
1017.238	2295.09
1017.405	2495.79
1017.572	2135.35
1017.739	2403.63
1017.906	2434.35
1018.073	2520.37
1018.24	1918.26
1018.407	2178.36
1018.573	2653.48
1018.74	2247.99
1018.907	2037.05
1019.074	1908.02
1019.241	2581.81
1019.407	2198.84
1019.574	2030.9
1019.741	1832.25
1019.907	2274.61
1020.074	2424.11
1020.241	1740.09
1020.407	1934.65
1020.574	2422.06
1020.74	2268.47
1020.907	1981.75
1021.073	1842.49
1021.24	2626.86
1021.406	2544.94
1021.573	1830.2
1021.739	1844.54
1021.906	2284.85
1022.072	1994.04
1022.239	1819.96
1022.405	1854.78
1022.571	2096.44
1022.738	1785.15
1022.904	1768.76
1023.07	1795.39
1023.237	2080.05
1023.403	2247.99
1023.569	1742.14
1023.735	1832.25
1023.902	1924.41
1024.068	2045.24
1024.234	1725.75
1024.4	1815.87
1024.566	2121.01
1024.732	2110.77
1024.898	1787.19
1025.065	1625.4
1025.231	2286.9
1025.397	1961.27
1025.563	1860.92
1025.729	1643.84
1025.895	1664.32
1026.061	1815.87
1026.227	1549.63
1026.392	1688.89
1026.558	2172.21
1026.724	2012.47
1026.89	1633.6
1027.056	1660.22
1027.222	1981.75
1027.388	1795.39
1027.553	1695.04
1027.719	1594.68
1027.885	2325.81
1028.051	1991.99
1028.216	1328.45
1028.382	1623.36
1028.548	2184.5
1028.713	1748.28
1028.879	1436.99
1029.045	1676.6
1029.21	2184.5
1029.376	2112.82
1029.541	1609.02
1029.707	1703.23
1029.873	1955.13
1030.038	1971.51
1030.204	1490.24
1030.369	1578.3
1030.534	1938.74
1030.7	1557.82
1030.865	1508.67
1031.031	1441.09
1031.196	1713.47
1031.361	1852.73
1031.527	1332.54
1031.692	1303.87
1031.857	1293.63
1032.023	1817.91
1032.188	1301.83
1032.353	1496.38
1032.518	2014.52
1032.684	1713.47
1032.849	1336.64
1033.014	1439.04
1033.179	1914.17
1033.344	1768.76
1033.509	1441.09
1033.674	1363.26
1033.839	1848.63
1034.004	1819.96
1034.17	1482.05
1034.335	1224
1034.5	1531.2
1034.664	1484.09
1034.829	1217.86
1034.994	1256.77
1035.159	1688.89
1035.324	1662.27
1035.489	1316.16
1035.654	1215.81
1035.819	1854.78
1035.984	1516.86
1036.148	1305.92
1036.313	1283.39
1036.478	1678.65
1036.643	1465.66
1036.807	1144.13
1036.972	1121.6
1037.137	1836.35
1037.301	1441.09
1037.466	978.25
1037.631	1181
1037.795	1822.01
1037.96	1600.83
1038.124	1361.22
1038.289	1015.11
1038.454	1551.68
1038.618	1449.28
1038.783	1019.21
1038.947	1262.91
1039.111	1531.2
1039.276	1312.07
1039.44	1078.6
1039.605	1561.92
1039.769	1307.97
1039.933	1369.41
1040.098	1125.7
1040.262	1262.91
1040.426	1537.34
1040.591	1486.14
1040.755	1041.73
1040.919	1041.73
1041.083	1381.7
1041.248	1334.59
1041.412	890.18
1041.576	900.42
1041.74	1258.82
1041.904	1525.05
1042.068	902.47
1042.232	1058.12
1042.397	1443.14
1042.561	1418.56
1042.725	869.7
1042.889	1209.67
1043.053	1385.79
1043.217	1482.05
1043.381	1203.52
1043.544	824.65
1043.708	1594.68
1043.872	949.57
1044.036	693.58
1044.2	773.45
1044.364	1420.61
1044.528	1623.36
1044.691	5149.96
1044.855	841.03
1045.019	1428.8
1045.183	1252.67
1045.346	925
1045.51	879.94
1045.674	1381.7
1045.837	1318.21
1046.001	951.62
1046.165	861.51
1046.328	1598.78
1046.492	1248.58
1046.655	1129.8
1046.819	937.29
1046.983	957.77
1047.146	1398.08
1047.31	830.79
1047.473	709.96
1047.636	1094.98
1047.8	906.57
1047.963	851.27
1048.127	814.41
1048.29	869.7
