Data from Ink_Intensity_USB4F045381__82__00082.txt Node

Date: Mon Jul 17 10:56:01 EDT 2023
User: mmckonesweet
Spectrometer: USB4F04538
Trigger mode: 4
Integration Time (sec): 9.000000E-1
Scans to average: 1
Electric dark correction enabled: true
Nonlinearity correction enabled: false
Boxcar width: 0
XAxis mode: Wavelengths
Number of Pixels in Spectrum: 3648
>>>>>Begin Spectral Data<<<<<
345.52	-928.24
345.736	-928.24
345.952	-928.24
346.168	-1028.59
346.384	-1077.74
346.6	-78.33
346.816	-227.84
347.032	-113.15
347.248	265.72
347.464	-211.45
347.68	-123.39
347.896	87.55
348.112	417.27
348.328	-102.91
348.544	-96.77
348.76	5.63
348.975	177.66
349.191	-256.51
349.407	-207.36
349.623	79.36
349.839	69.12
350.055	-2.56
350.27	69.12
350.486	218.62
350.702	386.55
350.918	267.77
351.133	-172.54
351.349	208.38
351.565	564.73
351.781	-145.92
351.996	65.02
352.212	374.27
352.428	-121.34
352.644	-168.45
352.859	-96.77
353.075	220.67
353.291	144.89
353.506	-119.29
353.722	-141.82
353.938	-49.66
354.153	452.09
354.369	144.89
354.584	-180.73
354.8	323.07
355.016	-221.69
355.231	-178.69
355.447	-35.33
355.662	138.75
355.878	841.2
356.093	-248.32
356.309	7.68
356.524	-121.34
356.74	310.78
356.955	-107.01
357.171	-18.94
357.386	194.05
357.602	-252.41
357.817	-72.19
358.033	-170.49
358.248	382.46
358.464	204.28
358.679	-92.67
358.895	-352.76
359.11	56.83
359.325	370.17
359.541	87.55
359.756	54.78
359.972	-184.83
360.187	192
360.402	-145.92
360.618	-127.49
360.833	1123.82
361.048	114.17
361.264	-90.62
361.479	9.73
361.694	26.11
361.909	257.53
362.125	-123.39
362.34	-51.71
362.555	335.35
362.77	120.32
362.986	-164.35
363.201	-137.73
363.416	278.01
363.631	146.94
363.847	-123.39
364.062	-172.54
364.277	245.24
364.492	196.09
364.707	-88.57
364.922	-342.52
365.138	402.94
365.353	450.04
365.568	-94.72
365.783	-86.53
365.998	146.94
366.213	605.69
366.428	-156.16
366.643	110.08
366.858	382.46
367.073	269.82
367.288	-14.85
367.503	-141.82
367.718	163.33
367.933	450.04
368.148	-227.84
368.363	-57.86
368.578	50.69
368.793	531.96
369.008	-64
369.223	-86.53
369.438	228.86
369.653	505.34
369.868	-215.55
370.083	-190.97
370.298	153.09
370.513	497.14
370.728	185.85
370.943	-129.53
371.157	-135.68
371.372	558.58
371.587	-166.4
371.802	-117.25
372.017	136.7
372.232	587.26
372.446	42.5
372.661	-150.01
372.876	302.59
373.091	245.24
373.306	-68.09
373.52	-162.3
373.735	-64
373.95	452.09
374.165	-18.94
374.379	-33.28
374.594	-51.71
374.809	237.05
375.023	128.51
375.238	-76.29
375.453	398.84
375.667	-150.01
375.882	-37.38
376.097	-188.93
376.311	167.42
376.526	103.93
376.741	-125.44
376.955	294.4
377.17	564.73
377.384	624.12
377.599	5.63
377.813	-113.15
378.028	673.27
378.242	357.88
378.457	-2.56
378.672	-274.94
378.886	163.33
379.101	71.17
379.315	-252.41
379.53	-141.82
379.744	298.49
379.958	308.73
380.173	-31.23
380.387	-61.95
380.602	263.68
380.816	-16.9
381.031	42.5
381.245	-23.04
381.459	265.72
381.674	1023.47
381.888	-139.77
382.103	239.1
382.317	-92.67
382.531	671.22
382.746	112.13
382.96	-27.14
383.174	40.45
383.388	636.41
383.603	169.47
383.817	-47.62
384.031	359.93
384.246	660.98
384.46	99.84
384.674	468.47
384.888	134.65
385.103	247.29
385.317	-154.11
385.531	5.63
385.745	472.57
385.959	525.82
386.174	-41.47
386.388	-100.86
386.602	243.2
386.816	-33.28
387.03	116.22
387.244	38.4
387.458	255.48
387.672	417.27
387.887	-104.96
388.101	-74.24
388.315	445.95
388.529	271.87
388.743	38.4
388.957	-49.66
389.171	486.9
389.385	-8.7
389.599	24.06
389.813	198.14
390.027	396.79
390.241	861.68
390.455	24.06
390.669	122.37
390.883	87.55
391.097	734.71
391.311	288.25
391.525	5.63
391.738	378.36
391.952	431.61
392.166	165.37
392.38	-29.18
392.594	497.14
392.808	509.43
393.022	132.61
393.236	48.64
393.449	447.99
393.663	411.13
393.877	-27.14
394.091	112.13
394.305	95.74
394.518	122.37
394.732	28.16
394.946	101.89
395.16	613.88
395.373	341.5
395.587	-6.66
395.801	22.02
396.015	622.07
396.228	466.42
396.442	-2.56
396.656	-98.81
396.869	564.73
397.083	615.93
397.297	241.15
397.51	110.08
397.724	607.73
397.938	329.21
398.151	-49.66
398.365	-12.8
398.578	423.42
398.792	564.73
399.005	292.35
399.219	122.37
399.433	370.17
399.646	493.05
399.86	271.87
400.073	331.26
400.287	447.99
400.5	226.81
400.714	284.16
400.927	294.4
401.141	497.14
401.354	1465.83
401.567	540.15
401.781	11.78
401.994	603.64
402.208	957.94
402.421	116.22
402.635	228.86
402.848	316.92
403.061	646.65
403.275	280.06
403.488	60.93
403.701	771.57
403.915	521.72
404.128	353.79
404.341	167.42
404.555	521.72
404.768	359.93
404.981	361.98
405.195	206.33
405.408	808.44
405.621	572.92
405.834	374.27
406.048	161.28
406.261	787.96
406.474	845.3
406.687	194.05
406.9	314.88
407.114	429.56
407.327	392.7
407.54	69.12
407.753	136.7
407.966	253.44
408.179	593.4
408.392	204.28
408.605	52.74
408.819	632.31
409.032	456.19
409.245	269.82
409.458	431.61
409.671	656.89
409.884	736.76
410.097	142.85
410.31	466.42
410.523	587.26
410.736	345.59
410.949	370.17
411.162	423.42
411.375	865.78
411.588	695.8
411.801	542.2
412.014	138.75
412.227	552.44
412.44	437.75
412.653	308.73
412.865	472.57
413.078	747
413.291	667.13
413.504	396.79
413.717	298.49
413.93	663.03
414.143	407.03
414.356	390.65
414.568	171.52
414.781	730.61
414.994	660.98
415.207	353.79
415.42	294.4
415.632	714.23
415.845	992.75
416.058	204.28
416.271	261.63
416.483	554.49
416.696	1031.66
416.909	331.26
417.121	310.78
417.334	728.56
417.547	1029.62
417.759	316.92
417.972	349.69
418.185	501.24
418.397	849.4
418.61	355.83
418.823	417.27
419.035	1050.1
419.248	663.03
419.46	540.15
419.673	531.96
419.885	884.21
420.098	601.59
420.311	486.9
420.523	208.38
420.736	826.87
420.948	744.95
421.161	390.65
421.373	267.77
421.586	898.55
421.798	505.34
422.01	325.12
422.223	656.89
422.435	476.66
422.648	937.46
422.86	441.85
423.073	423.42
423.285	935.41
423.497	404.99
423.71	447.99
423.922	536.06
424.134	800.24
424.347	1099.25
424.559	718.33
424.771	771.57
424.984	724.47
425.196	910.83
425.408	450.04
425.621	398.84
425.833	974.32
426.045	1105.39
426.257	427.51
426.47	531.96
426.682	849.4
426.894	966.13
427.106	505.34
427.318	761.33
427.531	677.37
427.743	1002.99
427.955	601.59
428.167	986.61
428.379	996.85
428.591	792.05
428.804	716.28
429.016	607.73
429.228	824.82
429.44	1009.14
429.652	849.4
429.864	534.01
430.076	812.53
430.288	835.06
430.5	693.75
430.712	730.61
430.924	1269.23
431.136	1000.94
431.348	468.47
431.56	605.69
431.772	943.6
431.984	914.93
432.196	660.98
432.408	781.81
432.62	886.26
432.832	1119.73
433.044	1103.34
433.256	894.45
433.468	1269.23
433.679	683.51
433.891	720.37
434.103	1046
434.315	1316.33
434.527	1236.46
434.739	1017.33
434.95	822.77
435.162	1316.33
435.374	945.65
435.586	921.07
435.798	888.31
436.009	871.92
436.221	1097.2
436.433	1027.57
436.645	853.49
436.856	1066.48
437.068	1328.62
437.28	849.4
437.491	1164.78
437.703	1310.19
437.915	1291.76
438.126	994.8
438.338	1218.03
438.55	1144.3
438.761	1318.38
438.973	1060.34
439.184	916.98
439.396	1347.05
439.608	1445.35
439.819	990.7
440.031	1142.25
440.242	1467.88
440.454	1392.11
440.665	1140.21
440.877	1250.8
441.088	1390.06
441.3	1201.65
441.511	906.74
441.723	1009.14
441.934	1443.31
442.146	1418.73
442.357	1250.8
442.569	1467.88
442.78	1433.07
442.991	1844.71
443.203	1488.36
443.414	1070.58
443.626	1590.76
443.837	1273.32
444.048	959.99
444.26	892.4
444.471	1363.44
444.682	1621.48
444.894	984.56
445.105	968.18
445.316	1676.77
445.528	1617.38
445.739	1218.03
445.95	1244.65
446.161	1416.68
446.373	1807.84
446.584	1234.41
446.795	1265.13
447.006	1709.54
447.217	1840.61
447.429	1105.39
447.64	1230.32
447.851	1775.08
448.062	1590.76
448.273	1091.06
448.484	1261.04
448.695	1793.51
448.907	1390.06
449.118	1461.74
449.329	1539.56
449.54	1316.33
449.751	1371.63
449.962	1379.82
450.173	1361.39
450.384	1844.71
450.595	1996.26
450.806	1500.65
451.017	1455.59
451.228	2026.98
451.439	1920.48
451.65	1437.16
451.861	1162.73
452.072	1398.25
452.283	1768.93
452.494	1676.77
452.705	1342.96
452.915	2115.04
453.126	1766.89
453.337	1500.65
453.548	1551.85
453.759	2131.42
453.97	2276.83
454.181	1897.96
454.391	1603.05
454.602	1873.38
454.813	2143.71
455.024	1758.69
455.235	1623.53
455.445	1961.44
455.656	2106.85
455.867	1920.48
456.078	1715.69
456.288	1846.76
456.499	1947.11
456.71	1795.56
456.921	1938.91
457.131	2119.14
457.342	2047.46
457.553	1811.94
457.763	1805.8
457.974	2258.4
458.184	2156
458.395	1820.13
458.606	1770.98
458.816	2373.08
459.027	2473.43
459.237	2252.25
459.448	1711.59
459.659	2522.59
459.869	2870.74
460.08	1830.37
460.29	2252.25
460.501	2837.97
460.711	2190.81
460.922	1922.53
461.132	2004.45
461.343	3120.59
461.553	2123.23
461.764	2104.8
461.974	2248.16
462.184	2616.79
462.395	2483.67
462.605	2192.86
462.816	2209.25
463.026	2522.59
463.236	2774.49
463.447	2323.93
463.657	2250.21
463.867	2805.21
464.078	2692.57
464.288	2526.68
464.498	2422.24
464.709	2745.81
464.919	2790.87
465.129	2471.39
465.339	2481.63
465.55	3003.86
465.76	2876.88
465.97	2708.95
466.18	2495.96
466.391	3182.03
466.601	3024.34
466.811	2883.03
467.021	2672.09
467.231	3255.76
467.441	3286.48
467.651	2821.59
467.862	2678.23
468.072	3286.48
468.282	3491.27
468.492	2819.54
468.702	3108.3
468.912	3229.13
469.122	3904.96
469.332	3390.92
469.542	3155.41
469.752	3655.11
469.962	3528.14
470.172	3130.83
470.382	3145.17
470.592	3816.9
470.802	3763.65
471.012	3401.16
471.222	3464.65
471.432	3851.72
471.642	3947.97
471.852	3663.3
472.062	3423.69
472.272	3794.37
472.482	3653.06
472.691	3581.39
472.901	3655.11
473.111	3812.81
473.321	4672.95
473.531	3872.2
473.741	3974.6
473.95	4419
474.16	4384.19
474.37	4203.97
474.58	3913.16
474.79	4816.31
474.999	4836.79
475.209	4109.76
475.419	4117.95
475.628	4525.5
475.838	4892.09
476.048	4523.45
476.258	4386.24
476.467	5152.18
476.677	4773.3
476.886	4701.62
477.096	4636.09
477.306	4830.65
477.515	5119.41
477.725	4902.33
477.935	4883.89
478.144	5506.48
478.354	4992.44
478.563	5084.59
478.773	5084.59
478.982	5567.92
479.192	5645.74
479.401	5268.91
479.611	5152.18
479.82	5346.73
480.03	5842.34
480.239	5498.28
480.449	5328.3
480.658	6286.75
480.868	6024.61
481.077	5625.26
481.287	5600.68
481.496	6104.48
481.705	6456.73
481.915	6270.37
482.124	6092.2
482.333	6421.92
482.543	6616.48
482.752	6172.07
482.961	6104.48
483.171	6657.43
483.38	6469.02
483.589	6518.17
483.799	6403.49
484.008	6682.01
484.217	6933.91
484.426	6618.52
484.636	6346.14
484.845	7064.98
485.054	6729.11
485.263	6919.57
485.472	6729.11
485.682	7581.07
485.891	7228.82
486.1	6700.44
486.309	7120.28
486.518	7384.46
486.727	7681.42
486.936	6993.3
487.146	7110.04
487.355	7851.4
487.564	7204.24
487.773	7327.12
487.982	7552.4
488.191	7667.08
488.4	7792.01
488.609	7693.71
488.818	7695.75
489.027	8398.21
489.236	8465.79
489.445	7882.12
489.654	7736.71
489.863	8492.41
490.072	8283.52
490.281	8220.03
490.49	8066.44
490.698	8840.57
490.907	8834.43
491.116	8377.73
491.325	8179.08
491.534	8779.13
491.743	8807.8
491.952	8422.78
492.16	8527.23
492.369	8922.49
492.578	9055.61
492.787	8684.92
492.996	8617.34
493.204	8609.15
493.413	9379.18
493.622	8699.26
493.831	8656.25
494.039	9602.41
494.248	9192.82
494.457	8832.38
494.665	8768.89
494.874	9444.72
495.083	9979.24
495.291	9174.39
495.5	9278.83
495.709	9891.18
495.917	9426.29
496.126	9622.89
496.335	9246.07
496.543	9674.09
496.752	9889.13
496.96	9913.7
497.169	9422.19
497.377	10071.4
497.586	10364.26
497.794	9819.5
498.003	9622.89
498.211	10347.87
498.42	10569.05
498.628	10153.32
498.837	10077.54
499.045	10499.42
499.254	10505.57
499.462	10192.23
499.671	10095.97
499.879	10968.41
500.087	10573.15
500.296	10259.81
500.504	10265.96
500.713	10859.87
500.921	11187.54
501.129	10347.87
501.338	10507.62
501.546	10923.35
501.754	10906.97
501.962	10593.63
502.171	10638.69
502.379	11289.94
502.587	11380.05
502.795	10845.53
503.004	10575.2
503.212	11144.53
503.42	11353.43
503.628	10882.39
503.837	11064.66
504.045	11566.42
504.253	11793.74
504.461	11074.9
504.669	10995.03
504.877	11517.26
505.085	11924.81
505.294	11056.47
505.502	11378
505.71	11590.99
505.918	11691.34
506.126	11423.06
506.334	11533.65
506.542	11914.57
506.75	11738.44
506.958	11771.21
507.166	11466.07
507.374	11822.41
507.582	12442.95
507.79	11988.3
507.998	11769.16
508.206	12293.44
508.414	12164.42
508.622	11685.2
508.83	12016.97
509.037	12682.56
509.245	11937.1
509.453	11857.23
509.661	12070.22
509.869	12559.68
510.077	12301.64
510.285	12428.61
510.492	11922.76
510.7	13182.26
510.908	12279.11
511.116	12258.63
511.324	12496.19
511.531	12578.11
511.739	12725.57
511.947	12580.16
512.155	12905.79
512.362	12922.17
512.57	12414.27
512.778	12602.69
512.985	12633.41
513.193	13047.1
513.401	13337.91
513.608	12623.17
513.816	12733.76
514.024	13157.69
514.231	13514.03
514.439	12817.72
514.646	13235.51
514.854	13382.96
515.061	13446.45
515.269	13057.34
515.477	12995.9
515.684	13092.15
515.892	13538.61
516.099	12891.45
516.307	12891.45
516.514	13729.07
516.722	14019.88
516.929	13520.18
517.136	13155.64
517.344	13933.87
517.551	13641.01
517.759	13571.38
517.966	13821.23
518.173	13591.86
518.381	13933.87
518.588	13643.06
518.796	13833.52
519.003	14294.31
519.21	14040.36
519.418	13581.62
519.625	14302.5
519.832	14044.46
520.039	14419.24
520.247	13714.73
520.454	14288.17
520.661	14742.82
520.868	14392.61
521.076	14378.28
521.283	13964.59
521.49	15062.3
521.697	14538.02
521.904	14189.86
522.112	14447.91
522.319	14681.38
522.526	14605.6
522.733	14415.14
522.94	14376.23
523.147	14759.2
523.354	14902.56
523.561	14421.28
523.768	14560.55
523.975	15435.03
524.183	15197.46
524.39	14976.28
524.597	15017.24
524.804	15078.68
525.011	15066.39
525.218	14785.82
525.425	14847.26
525.632	15551.76
525.838	15193.37
526.045	15078.68
526.252	15269.14
526.459	16803.07
526.666	16567.56
526.873	15185.18
527.08	15281.43
527.287	16188.68
527.494	15901.97
527.701	15174.94
527.907	15203.61
528.114	16076.04
528.321	15758.61
528.528	15639.83
528.735	15826.19
528.941	15883.53
529.148	15699.22
529.355	15889.68
529.562	15531.28
529.768	16401.67
529.975	15992.08
530.182	15842.57
530.388	16018.7
530.595	16635.14
530.802	16155.91
531.008	16383.24
531.215	16250.12
531.422	17040.64
531.628	17421.56
531.835	16463.11
532.042	16260.36
532.248	16739.58
532.455	16753.92
532.661	16518.4
532.868	16483.59
533.074	16776.45
533.281	16997.63
533.487	16805.12
533.694	16512.26
533.9	16966.91
534.107	17325.3
534.313	16762.11
534.52	16923.9
534.726	17636.59
534.933	17816.82
535.139	16934.14
535.345	16876.8
535.552	17558.77
535.758	17239.29
535.965	17335.54
536.171	17304.82
536.377	17642.74
536.584	18083.05
536.79	17106.17
536.996	17476.85
537.203	18031.85
537.409	17775.86
537.615	17652.98
537.821	17667.31
538.028	18183.4
538.234	18181.35
538.44	17872.11
538.646	17726.71
538.853	18320.62
539.059	17894.64
539.265	18291.94
539.471	17546.48
539.677	18257.13
539.883	18310.38
540.09	17714.42
540.296	18570.47
540.502	18623.72
540.708	18291.94
540.914	18515.17
541.12	18367.72
541.326	18717.92
541.532	18527.46
541.738	18812.13
541.944	18398.44
542.15	19234.01
542.356	18920.67
542.562	18629.86
542.768	18810.08
542.974	19317.98
543.18	19866.83
543.386	18967.77
543.592	18840.8
543.798	19393.75
544.004	19705.04
544.21	19098.84
544.415	19191
544.621	19533.01
544.827	19733.71
545.033	19014.88
545.239	19500.25
545.445	19434.71
545.651	19772.63
545.856	19367.13
546.062	19307.74
546.268	19688.66
546.474	19815.63
546.679	19354.84
546.885	19285.21
547.091	19580.12
547.297	19905.74
547.502	19621.08
547.708	19125.47
547.914	19813.59
548.119	20225.23
548.325	19485.91
548.531	19342.55
548.736	20522.18
548.942	19915.98
549.147	19770.58
549.353	19999.95
549.559	20382.92
549.764	20337.87
549.97	19971.28
550.175	19928.27
550.381	20516.04
550.586	19879.12
550.792	20135.12
550.997	20151.5
551.203	20354.25
551.408	20475.08
551.614	20061.39
551.819	20253.9
552.025	20866.24
552.23	21327.03
552.435	20583.62
552.641	21060.8
552.846	20913.34
553.052	21068.99
553.257	21011.65
553.462	20755.65
553.668	20694.21
553.873	21449.91
554.078	20794.56
554.283	20954.3
554.489	21447.86
554.694	21349.56
554.899	20919.49
555.105	21376.19
555.31	21591.22
555.515	21597.37
555.72	21359.8
555.925	21120.19
556.131	21828.79
556.336	21585.08
556.541	21568.69
556.746	21427.39
556.951	22103.21
557.156	22002.86
557.361	21499.06
557.567	22070.45
557.772	22488.23
557.977	22072.5
558.182	21658.81
558.387	21499.06
558.592	21871.79
558.797	22471.85
559.002	21925.04
559.207	21734.58
559.412	21933.23
559.617	22389.93
559.822	21933.23
560.027	21853.36
560.232	22152.37
560.437	22430.89
560.642	21613.75
560.847	21933.23
561.051	22348.97
561.256	22410.41
561.461	22248.62
561.666	22095.02
561.871	22598.82
562.076	23051.42
562.281	22101.17
562.485	21853.36
562.69	22922.4
562.895	22527.14
563.1	22342.83
563.305	22564.01
563.509	23004.32
563.714	23157.92
563.919	22451.37
564.123	22367.4
564.328	22842.53
564.533	23389.34
564.737	22209.71
564.942	22752.42
565.147	23379.1
565.351	23592.09
565.556	22682.79
565.761	22686.89
565.965	23155.87
566.17	22959.27
566.374	22791.33
566.579	22926.5
566.784	23207.07
566.988	23211.17
567.193	22922.4
567.397	23121.06
567.602	23229.6
567.806	23391.39
568.011	23131.3
568.215	23235.74
568.42	23442.59
568.624	23469.21
568.828	23250.08
569.033	23211.17
569.237	24040.59
569.442	24067.22
569.646	23245.98
569.85	23692.44
570.055	24093.84
570.259	23868.56
570.463	23854.23
570.668	23442.59
570.872	23839.89
571.076	23870.61
571.281	23616.66
571.485	24171.66
571.689	24155.28
571.893	24282.25
572.098	24020.11
572.302	23776.41
572.506	24534.15
572.71	23825.56
572.914	23938.19
573.119	24061.07
573.323	24693.9
573.527	25062.53
573.731	24220.81
573.935	24300.69
574.139	24540.3
574.343	24204.43
574.547	24413.32
574.751	24609.93
574.955	24808.58
575.159	25263.23
575.364	24587.4
575.568	24538.25
575.772	24761.48
575.976	25003.14
576.18	24282.25
576.383	24636.55
576.587	25404.54
576.791	24898.69
576.995	24685.7
577.199	24317.07
577.403	25369.72
577.607	25535.61
577.811	24806.53
578.015	24999.04
578.219	25324.67
578.422	25164.93
578.626	25148.54
578.83	24949.89
579.034	25445.5
579.238	25312.38
579.442	25144.45
579.645	25599.1
579.849	25187.46
580.053	25439.36
580.257	24792.2
580.46	25525.37
580.664	25709.69
580.868	25590.91
581.071	25699.45
581.275	25427.07
581.479	25613.43
581.682	26145.91
581.886	25568.38
582.09	25615.48
582.293	26535.02
582.497	25947.25
582.7	25844.85
582.904	25468.03
583.107	25982.07
583.311	26051.7
583.515	25926.77
583.718	26145.91
583.922	26432.62
584.125	26555.5
584.329	25640.06
584.532	26080.37
584.735	26887.27
584.939	26412.14
585.142	26238.06
585.346	26244.21
585.549	26287.21
585.753	26133.62
585.956	26362.99
586.159	26416.24
586.363	27266.14
586.566	27036.77
586.769	26567.79
586.973	26063.99
587.176	27087.97
587.379	27323.49
587.582	27010.15
587.786	26936.42
587.989	26682.47
588.192	27513.95
588.395	26952.8
588.599	27145.31
588.802	27532.38
589.005	27239.52
589.208	26889.32
589.411	27042.92
589.615	27679.83
589.818	27855.96
590.021	27481.18
590.224	27567.2
590.427	27491.42
590.63	27765.85
590.833	27384.93
591.036	27180.13
591.239	27462.75
591.442	27579.48
591.645	27653.21
591.848	27759.7
592.051	28202.07
592.254	28132.43
592.457	27651.16
592.66	27696.22
592.863	28103.76
593.066	28052.56
593.269	28193.87
593.472	28177.49
593.675	28030.04
593.878	28623.95
594.081	28206.16
594.284	28034.13
594.486	28478.54
594.689	28683.34
594.892	28044.37
595.095	28496.97
595.298	28714.06
595.5	28576.84
595.703	28699.72
595.906	28400.72
596.109	29076.55
596.311	28925
596.514	27839.58
596.717	28341.33
596.92	29176.9
597.122	29129.8
597.325	28243.03
597.528	28288.08
597.73	29359.17
597.933	28914.76
598.136	28793.93
598.338	28197.97
598.541	28908.61
598.743	29500.48
598.946	28841.03
599.148	28894.28
599.351	29533.25
599.554	29578.3
599.756	29017.16
599.959	29625.4
600.161	29674.56
600.363	29967.41
600.566	29473.85
600.768	29146.18
600.971	29893.69
601.173	29991.99
601.376	29574.2
601.578	29131.84
601.78	29785.15
601.983	30270.51
602.185	28951.62
602.388	29500.48
602.59	29668.41
602.792	29578.3
602.995	29692.99
603.197	29416.51
603.399	30168.12
603.601	29910.07
603.804	29447.23
604.006	29553.73
604.208	29723.71
604.41	29652.03
604.613	29977.65
604.815	29733.95
605.017	30637.1
605.219	29811.77
605.421	30204.98
605.623	29819.96
605.826	30635.05
606.028	30651.44
606.23	30075.96
606.432	29649.98
606.634	31048.74
606.836	30649.39
607.038	29875.26
607.24	30299.19
607.442	30368.82
607.644	30569.52
607.846	30194.74
608.048	29822.01
608.25	30624.81
608.452	30272.56
608.654	30221.36
608.856	29400.13
609.058	30188.6
609.26	30755.88
609.462	29768.76
609.664	30094.39
609.866	30751.79
610.067	30917.67
610.269	30370.86
610.471	30286.9
610.673	30549.04
610.875	30784.55
611.077	29824.06
611.278	30477.36
611.48	30514.22
611.682	30768.17
611.884	30829.61
612.085	30184.5
612.287	30891.05
612.489	31044.65
612.69	30280.75
612.892	30524.46
613.094	31116.33
613.295	30417.97
613.497	30145.59
613.699	30692.4
613.9	31278.11
614.102	31157.28
614.304	30495.79
614.505	30401.58
614.707	30983.21
614.908	30829.61
615.11	30372.91
615.311	30682.16
615.513	30848.04
615.714	31302.69
615.916	30520.37
616.117	31235.11
616.319	30952.49
616.52	31269.92
616.722	30569.52
616.923	30948.39
617.124	31310.88
617.326	30960.68
617.527	30886.95
617.729	31200.29
617.93	31009.83
618.131	31224.87
618.333	31163.43
618.534	31046.69
618.735	30942.25
618.937	31689.76
619.138	30764.07
619.339	30678.06
619.54	31292.45
619.742	31595.55
619.943	31253.54
620.144	30833.71
620.345	31601.69
620.546	31321.12
620.748	31210.53
620.949	31110.18
621.15	31366.18
621.351	31474.72
621.552	31151.14
621.753	30710.83
621.954	31331.36
622.155	31765.53
622.356	31013.93
622.558	31403.04
622.759	31517.73
622.96	31945.75
623.161	31302.69
623.362	30934.06
623.563	31910.94
623.764	31521.82
623.965	31183.91
624.166	31566.88
624.366	31374.37
624.567	31867.93
624.768	31296.55
624.969	30983.21
625.17	31560.73
625.371	32019.48
625.572	31589.41
625.773	31476.77
625.973	31636.51
626.174	32173.08
626.375	31620.13
626.576	31648.8
626.777	32187.41
626.977	32388.11
627.178	31955.99
627.379	31693.85
627.58	31697.95
627.78	32240.66
627.981	31566.88
628.182	31769.63
628.382	32420.88
628.583	31622.17
628.784	31519.78
628.984	31732.76
629.185	32144.41
629.386	32130.07
629.586	32232.47
629.787	32035.86
629.987	32582.67
630.188	32551.95
630.388	32054.29
630.589	31757.34
630.79	32822.28
630.99	32597.01
631.191	32476.18
631.391	32408.59
631.591	32109.59
631.792	32816.14
631.992	32836.62
632.193	32373.78
632.393	33072.14
632.594	32609.29
632.794	32273.43
632.994	32478.22
633.195	32836.62
633.395	32488.46
633.595	32283.67
633.796	32443.41
633.996	32621.58
634.196	33180.68
634.397	32457.74
634.597	32273.43
634.797	32613.39
634.997	32853
635.198	32386.07
635.398	32429.07
635.598	32680.97
635.798	32914.44
635.998	32697.36
636.199	32373.78
636.399	32793.61
636.599	32754.7
636.799	32795.66
636.999	32515.09
637.199	33278.98
637.399	33182.73
637.599	32676.88
637.799	32574.48
637.999	32906.25
638.199	33412.1
638.399	32687.12
638.599	33100.81
638.799	33395.71
638.999	33551.36
639.199	33190.92
639.399	32998.41
639.599	33833.98
639.799	32801.8
639.999	32357.39
640.199	32683.02
640.399	33344.52
640.599	32601.1
640.799	33659.9
640.998	33395.71
641.198	33399.81
641.398	33289.22
641.598	33090.57
641.798	33143.81
641.997	33913.85
642.197	33283.08
642.397	33608.7
642.597	33086.47
642.796	33524.74
642.996	33756.16
643.196	33297.41
643.395	32990.22
643.595	33737.73
643.795	33199.11
643.994	33561.6
644.194	33569.79
644.394	34046.97
644.593	33893.37
644.793	33240.07
644.992	33453.06
645.192	33569.79
645.392	33080.33
645.591	33979.39
645.791	33612.8
645.99	34145.27
646.19	34083.83
646.389	33594.37
646.589	33629.18
646.788	34161.65
646.987	33973.24
647.187	34018.3
647.386	34087.93
647.586	34270.2
647.785	34296.82
647.984	33960.95
648.184	33813.5
648.383	33764.35
648.582	33631.23
648.782	33973.24
648.981	33786.88
649.18	33528.83
649.38	34454.51
649.579	33983.48
649.778	33756.16
649.977	34499.57
650.177	34391.03
650.376	33768.44
650.575	34012.15
650.774	34421.75
650.973	34124.79
651.173	33788.92
651.372	34401.27
651.571	34550.77
651.77	34507.76
651.969	33772.54
652.168	34212.85
652.367	34108.41
652.566	34743.28
652.765	34223.09
652.964	34716.65
653.163	34561.01
653.362	34415.6
653.561	34145.27
653.76	34532.34
653.959	34368.5
654.158	35068.9
654.357	34380.79
654.556	34096.12
654.755	35118.06
654.954	34673.65
655.153	34405.36
655.352	34896.88
655.551	35335.14
655.749	34759.66
655.948	34395.12
656.147	34509.81
656.346	34962.41
656.545	34878.44
656.743	34329.59
656.942	34724.85
657.141	34898.92
657.34	34468.85
657.538	34634.74
657.737	34802.67
657.936	34796.53
658.135	34700.27
658.333	34753.52
658.532	34462.71
658.731	35634.14
658.929	34900.97
659.128	35349.48
659.326	34454.51
659.525	35308.52
659.724	35122.15
659.922	34515.95
660.121	34411.51
660.319	34991.08
660.518	34817
660.716	34792.43
660.915	34655.22
661.113	35787.74
661.312	34864.11
661.51	34974.7
661.709	34898.92
661.907	35136.49
662.105	35394.53
662.304	34900.97
662.502	35109.86
662.701	35478.5
662.899	35042.28
663.097	35386.34
663.296	34880.49
663.494	35468.26
663.692	35492.83
663.891	34798.57
664.089	35038.19
664.287	35111.91
664.485	35664.86
664.684	35091.43
664.882	35062.76
665.08	35482.59
665.278	35509.22
665.476	34982.89
665.675	35515.36
665.873	36002.78
666.071	35382.24
666.269	34843.63
666.467	35066.86
666.665	35490.79
666.863	34962.41
667.061	34972.65
667.259	35093.48
667.457	35720.16
667.655	35400.68
667.853	34941.93
668.051	35015.66
668.249	34855.92
668.447	35511.27
668.645	34704.37
668.843	35427.3
669.041	35417.06
669.239	35419.11
669.437	34841.58
669.635	35431.4
669.833	35372
670.031	35425.25
670.229	35038.19
670.426	35281.89
670.624	35068.9
670.822	35185.64
671.02	35118.06
671.218	35431.4
671.415	35173.35
671.613	35304.42
671.811	35163.11
672.009	34954.22
672.206	35679.2
672.404	35255.27
672.602	35392.48
672.799	35165.16
672.997	35544.03
673.195	35621.86
673.392	35607.52
673.59	34653.17
673.788	35648.48
673.985	34751.47
674.183	34769.9
674.38	34724.85
674.578	35296.23
674.775	35019.75
674.973	34812.91
675.17	35036.14
675.368	35265.51
675.565	35673.06
675.763	35589.09
675.96	34798.57
676.158	35550.18
676.355	34763.76
676.553	34991.08
676.75	34972.65
676.947	35466.21
677.145	35236.84
677.342	34911.21
677.539	35009.51
677.737	35210.21
677.934	35390.44
678.131	34880.49
678.329	34997.23
678.526	35431.4
678.723	35492.83
678.92	35181.54
679.118	34708.46
679.315	34665.46
679.512	35541.99
679.709	34964.46
679.906	34790.38
680.104	35529.7
680.301	35574.75
680.498	34579.44
680.695	34546.67
680.892	35011.56
681.089	34808.81
681.286	34892.78
681.483	34272.25
681.68	35011.56
681.877	35285.99
682.075	34436.08
682.272	35021.8
682.469	34698.22
682.665	34677.74
682.862	34499.57
683.059	34393.08
683.256	34675.69
683.453	34513.91
683.65	34481.14
683.847	34669.55
684.044	34378.74
684.241	34591.73
684.438	34747.37
684.635	34255.86
684.831	35214.31
685.028	35488.74
685.225	34616.3
685.422	34403.32
685.619	35138.54
685.815	34601.97
686.012	34669.55
686.209	34380.79
686.405	34505.71
686.602	34864.11
686.799	34206.71
686.996	34348.02
687.192	33928.19
687.389	34759.66
687.586	33979.39
687.782	34282.48
687.979	34835.44
688.175	34937.83
688.372	34122.74
688.568	34274.29
688.765	34161.65
688.962	34546.67
689.158	34116.6
689.355	34067.45
689.551	34532.34
689.748	33954.81
689.944	34075.64
690.14	33829.88
690.337	34456.56
690.533	34274.29
690.73	33848.32
690.926	34231.29
691.123	34132.98
691.319	34175.99
691.515	33973.24
691.712	33655.81
691.908	34104.31
692.104	34087.93
692.301	34180.09
692.497	33633.28
692.693	34122.74
692.889	34370.55
693.086	33926.14
693.282	33678.33
693.478	34044.92
693.674	34423.79
693.87	33731.58
694.067	33958.91
694.263	34208.76
694.459	34003.96
694.655	34175.99
694.851	34149.37
695.047	34165.75
695.243	33973.24
695.439	33866.75
695.635	33620.99
695.831	33799.16
696.027	33856.51
696.224	33268.74
696.42	33883.13
696.615	34352.12
696.811	34040.82
697.007	33240.07
697.203	33442.82
697.399	33719.29
697.595	33907.71
697.791	33088.52
697.987	33330.18
698.183	33154.05
698.379	33246.21
698.575	33481.73
698.77	33100.81
698.966	33985.53
699.162	33731.58
699.358	33510.4
699.554	33188.87
699.749	34044.92
699.945	33598.46
700.141	33109
700.337	33240.07
700.532	33463.3
700.728	33100.81
700.924	32955.4
701.119	33291.27
701.315	33561.6
701.511	33217.54
701.706	33561.6
701.902	32920.59
702.097	33430.53
702.293	33731.58
702.489	33315.84
702.684	33031.18
702.88	33319.94
703.075	33344.52
703.271	32922.63
703.466	32963.59
703.662	33014.79
703.857	33829.88
704.053	33313.8
704.248	32965.64
704.443	33412.1
704.639	33356.8
704.834	33180.68
705.03	33172.49
705.225	33381.38
705.42	33346.56
705.616	33139.72
705.811	32717.84
706.006	33162.25
706.202	32945.16
706.397	33121.29
706.592	32986.12
706.787	33305.6
706.983	33100.81
707.178	33342.47
707.373	33106.95
707.568	33055.75
707.763	33309.7
707.959	32932.87
708.154	32955.4
708.349	33010.7
708.544	33225.73
708.739	32797.71
708.934	32402.45
709.129	33063.94
709.324	32807.95
709.519	32644.11
709.714	32732.17
709.909	33301.51
710.104	32752.65
710.299	32928.78
710.494	32451.6
710.689	33311.75
710.884	32736.27
711.079	32932.87
711.274	32967.69
711.469	33170.44
711.664	32793.61
711.859	32597.01
712.054	32621.58
712.249	33018.89
712.443	32924.68
712.638	32476.18
712.833	31978.52
713.028	32723.98
713.223	32396.31
713.417	32529.42
713.612	32433.17
713.807	32922.63
714.002	33242.12
714.196	32601.1
714.391	32273.43
714.586	32797.71
714.78	32615.44
714.975	32044.06
715.17	32338.96
715.364	32322.58
715.559	32977.93
715.754	31540.25
715.948	32334.87
716.143	32556.05
716.337	32228.37
716.532	32830.48
716.726	32267.28
716.921	32148.5
717.115	33074.18
717.31	31976.47
717.504	32764.94
717.699	32427.03
717.893	32453.65
718.088	31855.64
718.282	31851.55
718.476	32191.51
718.671	31982.62
718.865	31765.53
719.059	31771.68
719.254	31972.38
719.448	32285.72
719.642	31968.28
719.837	31378.47
720.031	32566.29
720.225	32019.48
720.419	31665.18
720.614	31513.63
720.808	32138.26
721.002	31493.15
721.196	31632.41
721.39	31640.61
721.585	32246.8
721.779	31454.24
721.973	31110.18
722.167	30823.47
722.361	31681.56
722.555	32042.01
722.749	31142.95
722.943	31568.93
723.137	31327.27
723.331	31427.62
723.525	31126.57
723.719	31409.18
723.913	31984.66
724.107	31589.41
724.301	31298.59
724.495	31552.54
724.689	31892.51
724.883	31532.06
725.077	31298.59
725.271	31796.25
725.465	31589.41
725.659	31667.23
725.853	31077.41
726.046	30968.87
726.24	30796.84
726.434	31585.31
726.628	31026.21
726.822	31079.46
727.015	31847.45
727.209	31351.84
727.403	31163.43
727.596	30616.62
727.79	31083.56
727.984	31763.48
728.177	31097.89
728.371	31413.28
728.565	31433.76
728.758	30995.5
728.952	31151.14
729.146	31177.76
729.339	31656.99
729.533	30979.11
729.726	31005.73
729.92	30921.77
730.113	31736.86
730.307	31607.84
730.5	31110.18
730.694	30964.78
730.887	30733.36
731.081	31560.73
731.274	30866.47
731.468	30587.95
731.661	31101.99
731.854	31165.48
732.048	30923.82
732.241	30805.03
732.435	31108.13
732.628	31495.2
732.821	30592.05
733.014	30970.92
733.208	30827.56
733.401	30966.82
733.594	30770.22
733.788	30805.03
733.981	31499.3
734.174	31220.77
734.367	30837.8
734.56	31482.91
734.754	31370.27
734.947	31302.69
735.14	31020.07
735.333	30782.51
735.526	31427.62
735.719	30958.63
735.912	30620.72
736.105	30753.83
736.298	31108.13
736.491	31042.6
736.684	30438.45
736.877	30514.22
737.07	30870.57
737.263	31153.19
737.456	30899.24
737.649	30800.94
737.842	30968.87
738.035	30882.86
738.228	30616.62
738.421	30874.66
738.614	31482.91
738.807	31196.2
739	30381.1
739.192	30557.23
739.385	31034.41
739.578	31042.6
739.771	30788.65
739.964	30518.32
740.156	30960.68
740.349	30872.62
740.542	31200.29
740.735	30065.72
740.927	30540.85
741.12	30753.83
741.313	30446.64
741.505	30901.29
741.698	30518.32
741.891	31267.87
742.083	30583.85
742.276	30651.44
742.468	30774.31
742.661	30622.76
742.854	30606.38
743.046	30555.18
743.239	30864.43
743.431	30639.15
743.624	30422.06
743.816	30002.23
744.009	30606.38
744.201	30805.03
744.393	30628.91
744.586	30065.72
744.778	30856.23
744.971	30516.27
745.163	30147.64
745.355	30286.9
745.548	30448.69
745.74	30207.03
745.932	30440.5
746.125	30299.19
746.317	31013.93
746.509	30493.74
746.702	30186.55
746.894	30264.37
747.086	30510.13
747.278	30628.91
747.471	30336.05
747.663	29797.43
747.855	29971.51
748.047	30880.81
748.239	29840.44
748.431	30032.95
748.623	30827.56
748.815	30315.57
749.008	29604.92
749.2	29666.36
749.392	30508.08
749.584	30192.69
749.776	30288.95
749.968	30266.42
750.16	30438.45
750.352	29826.1
750.544	29910.07
750.736	29504.57
750.928	30088.24
751.12	29639.74
751.311	29606.97
751.503	30129.2
751.695	30028.85
751.887	29848.63
752.079	28929.09
752.271	29850.68
752.463	30538.8
752.654	30245.94
752.846	29242.43
753.038	29600.83
753.23	29441.09
753.421	29645.88
753.613	29340.74
753.805	29912.12
753.997	30305.33
754.188	29813.82
754.38	29236.29
754.572	29361.22
754.763	29535.29
754.955	29791.29
755.146	29398.08
755.338	29170.75
755.53	29623.36
755.721	29348.93
755.913	28845.13
756.104	29013.06
756.296	29641.79
756.487	29406.27
756.679	29011.01
756.87	28906.57
757.062	29051.97
757.253	29385.79
757.445	29017.16
757.636	29273.15
757.827	29017.16
758.019	29940.79
758.21	28869.7
758.401	28845.13
758.593	29482.05
758.784	29647.93
758.975	28677.19
759.167	28544.08
759.358	29137.99
759.549	29533.25
759.74	28261.46
759.932	28535.88
760.123	28859.46
760.314	28855.37
760.505	28402.77
760.696	28374.1
760.888	29250.63
761.079	28738.63
761.27	28501.07
761.461	28181.59
761.652	29043.78
761.843	28384.33
762.034	28591.18
762.225	28435.53
762.416	28257.36
762.607	28257.36
762.798	27907.16
762.989	28054.61
763.18	29045.83
763.371	28417.1
763.562	28064.85
763.753	27841.62
763.944	28578.89
764.135	28415.05
764.326	28189.78
764.517	27995.22
764.708	28304.46
764.899	28019.8
765.089	27724.89
765.28	27948.12
765.471	28189.78
765.662	28169.3
765.853	28157.01
766.043	27483.23
766.234	28261.46
766.425	27978.84
766.615	27688.03
766.806	27491.42
766.997	28304.46
767.187	27778.14
767.378	27475.04
767.569	27047.01
767.759	27690.07
767.95	27708.51
768.141	27663.45
768.331	27018.34
768.522	27321.44
768.712	27950.17
768.903	27401.31
769.093	27331.68
769.284	27950.17
769.474	27458.65
769.665	26545.26
769.855	26530.92
770.046	27759.7
770.236	27272.29
770.426	27171.94
770.617	27184.23
770.807	27063.4
770.998	27257.95
771.188	27018.34
771.378	26799.21
771.569	27247.71
771.759	27221.09
771.949	26369.13
772.139	26563.69
772.33	26727.53
772.52	27165.79
772.71	26604.65
772.9	26635.37
773.09	27075.68
773.281	27276.38
773.471	26217.58
773.661	26483.82
773.851	26782.82
774.041	26563.69
774.231	26522.73
774.421	26494.06
774.611	26846.31
774.802	26475.63
774.992	26348.65
775.182	26178.67
775.372	26719.34
775.562	26651.75
775.752	26381.42
775.942	26094.71
776.131	26561.64
776.321	26485.87
776.511	25728.12
776.701	25699.45
776.891	26651.75
777.081	25853.05
777.271	26322.03
777.461	25891.96
777.651	26043.51
777.84	26471.53
778.03	25660.54
778.22	25551.99
778.41	26041.46
778.599	25621.63
778.789	25801.85
778.979	25693.3
779.169	26074.23
779.358	25891.96
779.548	25924.72
779.738	25298.05
779.927	26025.07
780.117	25605.24
780.307	25431.16
780.496	25154.69
780.686	26023.03
780.875	26088.56
781.065	25287.81
781.254	25173.12
781.444	25648.25
781.633	25640.06
781.823	24886.4
782.012	24919.17
782.202	25160.83
782.391	25459.84
782.581	25035.91
782.77	25021.57
782.96	25308.29
783.149	25029.76
783.338	24771.72
783.528	25031.81
783.717	25693.3
783.906	25322.62
784.096	25035.91
784.285	25048.19
784.474	24974.47
784.663	25027.71
784.853	24755.33
785.042	24654.98
785.231	24919.17
785.42	25207.94
785.61	25019.52
785.799	24618.12
785.988	24657.03
786.177	24706.18
786.366	24878.21
786.555	24587.4
786.744	25005.19
786.933	24675.46
787.122	24523.91
787.312	24661.13
787.501	24730.76
787.69	24689.8
787.879	24157.33
788.068	24237.2
788.257	24388.75
788.445	24390.8
788.634	24214.67
788.823	24294.54
789.012	25240.7
789.201	25005.19
789.39	24198.29
789.579	23927.95
789.768	24466.57
789.957	24362.12
790.145	24093.84
790.334	23721.11
790.523	24042.64
790.712	24212.62
790.9	24183.95
791.089	23788.69
791.278	24568.97
791.467	24544.39
791.655	24065.17
791.844	24333.45
792.033	23915.67
792.221	24331.4
792.41	23733.4
792.599	23569.56
792.787	24296.59
792.976	24247.44
793.164	23690.39
793.353	23839.89
793.541	23866.52
793.73	24091.79
793.918	23903.38
794.107	23323.8
794.295	23751.83
794.484	23702.68
794.672	23549.08
794.861	23647.38
795.049	23780.5
795.238	23999.63
795.426	23321.76
795.614	23444.63
795.803	23549.08
795.991	23932.05
796.179	23391.39
796.368	23159.97
796.556	23817.36
796.744	23032.99
796.932	23356.57
797.121	23022.75
797.309	23524.51
797.497	23676.05
797.685	23299.23
797.874	23239.84
798.062	23665.81
798.25	23669.91
798.438	23012.51
798.626	23248.03
798.814	23372.96
799.002	23790.74
799.19	23448.73
799.378	23231.65
799.566	23479.45
799.755	23504.03
799.943	23196.83
800.131	23407.77
800.318	23649.43
800.506	23614.62
800.694	23162.01
800.882	22908.07
801.07	23702.68
801.258	23442.59
801.446	23200.93
801.634	23018.66
801.822	23342.24
802.01	23565.46
802.197	23393.44
802.385	23196.83
802.573	23676.05
802.761	23188.64
802.949	23368.86
803.136	23002.27
803.324	24059.02
803.512	23301.28
803.699	23424.15
803.887	23547.03
804.075	23887
804.262	23434.39
804.45	23399.58
804.638	23518.36
804.825	23823.51
805.013	23432.35
805.201	23428.25
805.388	23321.76
805.576	23755.93
805.763	24339.6
805.951	23334.04
806.138	23663.77
806.326	24427.66
806.513	23678.1
806.701	23381.15
806.888	23174.3
807.075	23973.01
807.263	24175.76
807.45	23526.55
807.638	23610.52
807.825	24409.23
808.012	23887
808.2	23600.28
808.387	23811.22
808.574	23735.45
808.761	24194.19
808.949	23655.58
809.136	23737.49
809.323	24069.26
809.51	24132.75
809.698	24091.79
809.885	23811.22
810.072	23751.83
810.259	24190.09
810.446	23612.57
810.633	23600.28
810.82	24257.68
811.008	24382.6
811.195	24013.97
811.382	23887
811.569	24405.13
811.756	23563.42
811.943	23878.8
812.13	23901.33
812.317	23987.35
812.504	23692.44
812.691	23712.92
812.878	24075.41
813.064	24378.51
813.251	23932.05
813.438	23987.35
813.625	23899.28
813.812	23735.45
813.999	23807.12
814.186	23905.43
814.372	24050.83
814.559	24177.81
814.746	24200.33
814.933	23770.26
815.12	24171.66
815.306	23921.81
815.493	23854.23
815.68	24089.74
815.866	23819.41
816.053	24544.39
816.24	24503.43
816.426	23973.01
816.613	23768.21
816.799	24392.84
816.986	24470.67
817.173	23704.73
817.359	23887
817.546	23874.71
817.732	23671.96
817.919	23252.13
818.105	23633.05
818.292	23438.49
818.478	23905.43
818.665	24071.31
818.851	23768.21
819.037	24245.39
819.224	24013.97
819.41	23489.69
819.597	23278.75
819.783	24278.16
819.969	23887
820.156	23293.08
820.342	23493.79
820.528	24345.74
820.714	23600.28
820.901	23823.51
821.087	23516.31
821.273	24278.16
821.459	23569.56
821.646	23227.55
821.832	23563.42
822.018	23520.41
822.204	23481.5
822.39	23352.48
822.576	22983.84
822.762	23514.27
822.948	23635.1
823.134	23309.47
823.32	22938.79
823.507	23205.02
823.693	23436.44
823.879	23641.24
824.065	23012.51
824.25	23737.49
824.436	23174.3
824.622	22975.65
824.808	22975.65
824.994	23190.69
825.18	22922.4
825.366	22797.48
825.552	22621.35
825.738	23172.25
825.923	23332
826.109	23317.66
826.295	22695.08
826.481	22709.41
826.667	23286.94
826.852	23114.91
827.038	22527.14
827.224	23397.53
827.409	23295.13
827.595	22394.03
827.781	22660.26
827.966	22961.31
828.152	22779.04
828.338	22248.62
828.523	22068.4
828.709	22490.28
828.894	22910.11
829.08	22361.26
829.266	21986.48
829.451	22420.65
829.637	22396.07
829.822	22615.21
830.008	22191.28
830.193	22574.25
830.378	22564.01
830.564	22371.5
830.749	21894.32
830.935	22342.83
831.12	22166.7
831.305	22033.58
831.491	21947.57
831.676	22189.23
831.861	22385.83
832.047	22203.57
832.232	21961.9
832.417	22414.51
832.602	22398.12
832.788	21628.09
832.973	21875.89
833.158	22135.98
833.343	22244.52
833.528	21693.62
833.714	21845.17
833.899	22043.82
834.084	22426.79
834.269	21789.88
834.454	21503.16
834.639	22060.21
834.824	21789.88
835.009	21882.03
835.194	21429.43
835.379	22080.69
835.564	22189.23
835.749	21879.99
835.934	21105.85
836.119	21857.46
836.304	21845.17
836.489	21140.67
836.674	21574.84
836.859	21126.33
837.044	22160.56
837.228	21458.1
837.413	21019.84
837.598	21843.12
837.783	21542.07
837.968	21605.56
838.152	20980.93
838.337	21025.98
838.522	21656.76
838.707	21390.52
838.891	21234.88
839.076	21144.77
839.261	21460.15
839.445	21296.32
839.63	21290.17
839.815	21443.77
839.999	21163.2
840.184	20626.63
840.368	20899.01
840.553	21238.97
840.737	21398.71
840.922	20677.83
841.106	20677.83
841.291	20704.45
841.475	21179.58
841.66	20804.8
841.844	20546.76
842.029	21544.12
842.213	20739.27
842.397	20372.68
842.582	20137.16
842.766	21267.64
842.951	21032.13
843.135	20331.72
843.319	20395.21
843.504	20856
843.688	21200.06
843.872	20266.19
844.056	20309.19
844.241	20817.09
844.425	20440.26
844.609	20122.83
844.793	20137.16
844.977	20565.19
845.161	20866.24
845.346	20124.88
845.53	20092.11
845.714	20180.17
845.898	20645.06
846.082	19944.66
846.266	20280.52
846.45	20313.29
846.634	20344.01
846.818	20022.48
847.002	20098.25
847.186	20444.36
847.37	19649.75
847.554	19600.6
847.738	20022.48
847.922	20030.67
848.106	20491.46
848.29	19397.85
848.473	19829.97
848.657	19983.57
848.841	20006.09
849.025	19950.8
849.209	19477.72
849.392	20149.45
849.576	19946.7
849.76	19207.39
849.944	19328.22
850.127	20407.5
850.311	19586.26
850.495	19248.35
850.678	19473.62
850.862	20180.17
851.046	20182.22
851.229	19823.83
851.413	19526.87
851.596	19653.84
851.78	19725.52
851.964	19637.46
852.147	19490.01
852.331	20085.97
852.514	19838.16
852.698	19213.53
852.881	19072.22
853.065	19772.63
853.248	19270.87
853.431	19535.06
853.615	19352.79
853.798	19842.26
853.982	19551.45
854.165	19422.42
854.348	18892
854.532	19186.91
854.715	19199.2
854.898	19059.93
855.081	18552.04
855.265	19440.86
855.448	19590.36
855.631	18959.58
855.814	18928.86
855.997	19283.16
856.181	18930.91
856.364	19143.9
856.547	18861.28
856.73	18861.28
856.913	18916.58
857.096	18359.53
857.279	18638.05
857.462	18824.42
857.645	19260.63
857.828	18881.76
858.011	18797.79
858.194	18722.02
858.377	19180.76
858.56	18547.94
858.743	18437.35
858.926	18380.01
859.109	18660.58
859.292	18418.92
859.475	18343.14
859.658	18767.07
859.841	18472.17
860.023	18167.02
860.206	17954.03
860.389	18588.9
860.572	18932.96
860.755	18150.64
860.937	18027.76
861.12	18101.48
861.303	18384.1
861.486	18193.64
861.668	17829.1
861.851	18115.82
862.034	18111.72
862.216	17847.54
862.399	17542.39
862.581	17896.69
862.764	18107.63
862.947	17822.96
863.129	17452.28
863.312	17456.37
863.494	18183.4
863.677	17890.54
863.859	17435.89
864.042	17861.87
864.224	17925.36
864.406	17245.43
864.589	17132.79
864.771	18179.31
864.954	17444.09
865.136	17153.27
865.318	17106.17
865.501	17554.68
865.683	17052.92
865.865	17204.47
866.048	17007.87
866.23	17329.4
866.412	17261.82
866.594	17112.31
866.777	17114.36
866.959	17495.29
867.141	16956.67
867.323	17183.99
867.505	16997.63
867.687	17407.22
867.869	17372.41
868.052	17136.89
868.234	16911.61
868.416	17251.58
868.598	17691.89
868.78	17020.16
868.962	16815.36
869.144	17349.88
869.326	17659.12
869.508	16741.63
869.69	16684.29
869.872	16928
870.054	17351.93
870.236	16665.86
870.417	16768.26
870.599	16887.04
870.781	17405.17
870.963	16729.34
871.145	16803.07
871.327	16694.53
871.508	17302.78
871.69	16753.92
871.872	16747.78
872.054	16829.7
872.235	17128.7
872.417	16862.46
872.599	16299.27
872.78	16968.96
872.962	17085.69
873.144	16393.48
873.325	16825.6
873.507	17190.14
873.689	17030.4
873.87	16708.87
874.052	16788.74
874.233	16766.21
874.415	17319.16
874.596	16925.95
874.778	16440.58
874.959	16917.76
875.141	17169.66
875.322	16452.87
875.503	16655.62
875.685	17343.74
875.866	16557.32
876.048	16432.39
876.229	16516.36
876.41	16899.33
876.592	17239.29
876.773	16696.58
876.954	16481.54
877.136	17239.29
877.317	16934.14
877.498	16628.99
877.679	16971.01
877.86	17028.35
878.042	16919.81
878.223	16778.5
878.404	17206.52
878.585	17089.79
878.766	17655.03
878.947	17083.64
879.128	17069.31
879.309	17136.89
879.49	17200.38
879.672	17030.4
879.853	17161.47
880.034	17032.44
880.215	17360.12
880.396	17220.86
880.576	17194.23
880.757	17186.04
880.938	17380.6
881.119	16811.26
881.3	17198.33
881.481	17304.82
881.662	18064.62
881.843	16936.19
882.023	16913.66
882.204	17558.77
882.385	17290.49
882.566	16905.47
882.747	16821.5
882.927	17730.8
883.108	17534.2
883.289	16991.48
883.469	17517.81
883.65	17538.29
883.831	17485.05
884.011	17706.23
884.192	17470.71
884.373	17712.37
884.553	17681.65
884.734	17417.46
884.914	17534.2
885.095	18371.82
885.275	18091.24
885.456	17882.35
885.636	17323.26
885.817	18222.31
885.997	17612.02
886.178	17579.25
886.358	17716.47
886.538	17796.34
886.719	18953.44
886.899	17575.16
887.08	17622.26
887.26	18291.94
887.44	17587.44
887.621	17491.19
887.801	17900.78
887.981	18476.26
888.161	18287.85
888.342	17992.94
888.522	17900.78
888.702	18365.67
888.882	18549.99
889.062	17872.11
889.242	17704.18
889.423	18629.86
889.603	18232.55
889.783	17898.73
889.963	17683.7
890.143	18433.25
890.323	18283.75
890.503	18126.06
890.683	18011.37
890.863	18203.88
891.043	18244.84
891.223	18447.59
891.403	18212.07
891.583	18154.73
891.763	18259.18
891.943	18154.73
892.122	18099.44
892.302	18441.45
892.482	18402.54
892.662	17870.06
892.842	18134.25
893.022	18470.12
893.201	18210.03
893.381	18169.07
893.561	18052.33
893.741	18437.35
893.92	18572.52
894.1	18257.13
894.28	18023.66
894.459	18101.48
894.639	18306.28
894.819	18031.85
894.998	18246.89
895.178	18343.14
895.357	18130.16
895.537	17960.17
895.716	17861.87
895.896	18113.77
896.075	18506.98
896.255	18044.14
896.434	17736.95
896.614	18636
896.793	18492.65
896.973	17976.56
897.152	17542.39
897.331	18236.65
897.511	18480.36
897.69	17743.09
897.87	18015.47
898.049	18359.53
898.228	18259.18
898.407	18171.11
898.587	17663.22
898.766	17978.61
898.945	18154.73
899.124	17816.82
899.304	17859.82
899.483	18351.34
899.662	18287.85
899.841	17814.77
900.02	17784.05
900.199	17978.61
900.378	17784.05
900.557	17532.15
900.737	17673.46
900.916	17786.1
901.095	17941.74
901.274	17769.71
901.453	17466.61
901.632	17607.92
901.811	17333.5
901.989	17480.95
902.168	17216.76
902.347	17798.38
902.526	17452.28
902.705	17331.45
902.884	17057.02
903.063	17962.22
903.242	17839.34
903.42	17102.08
903.599	17513.72
903.778	17677.55
903.957	17685.75
904.135	17298.68
904.314	17511.67
904.493	17472.76
904.672	17802.48
904.85	16819.46
905.029	17009.92
905.207	17466.61
905.386	17997.04
905.565	16774.4
905.743	16841.98
905.922	16811.26
906.1	17198.33
906.279	16614.66
906.457	16637.19
906.636	17480.95
906.814	16946.43
906.993	16559.36
907.171	16592.13
907.35	17145.08
907.528	17134.84
907.707	17087.74
907.885	16456.96
908.063	17405.17
908.242	16669.95
908.42	16291.08
908.598	16256.26
908.777	16571.65
908.955	16710.91
909.133	16444.68
909.311	16139.53
909.49	16495.88
909.668	16606.47
909.846	16155.91
910.024	16151.82
910.202	16610.56
910.38	16489.73
910.559	15654.16
910.737	15969.55
910.915	16274.7
911.093	16428.29
911.271	16286.98
911.449	16446.73
911.627	16450.82
911.805	16647.43
911.983	15947.02
912.161	15424.79
912.339	15826.19
912.517	16426.25
912.695	15824.14
912.872	15820.05
913.05	15430.93
913.228	15922.45
913.406	15639.83
913.584	15539.47
913.762	15627.54
913.939	15631.63
914.117	15607.06
914.295	15269.14
914.473	15531.28
914.65	15629.59
914.828	15050.01
915.006	15152.41
915.184	15263
915.361	15090.97
915.539	15242.52
915.716	15234.33
915.894	15318.29
916.072	15578.39
916.249	14910.75
916.427	14998.81
916.604	15054.11
916.782	15217.94
916.959	14904.6
917.137	14578.98
917.314	15160.6
917.492	14955.8
917.669	14630.18
917.847	14726.43
918.024	14974.24
918.201	14744.86
918.379	14791.97
918.556	14869.79
918.733	14994.72
918.911	14521.63
919.088	14683.42
919.265	14523.68
919.442	14605.6
919.62	14368.04
919.797	14122.28
919.974	13960.49
920.151	14374.18
920.328	14499.11
920.506	14077.23
920.683	14374.18
920.86	14105.9
921.037	14001.45
921.214	14177.58
921.391	13804.85
921.568	14355.75
921.745	13810.99
921.922	13589.81
922.099	13573.42
922.276	13989.16
922.453	13837.61
922.63	13516.08
922.807	13704.49
922.984	13860.14
923.161	13761.84
923.338	13489.46
923.514	13051.19
923.691	13962.54
923.868	13485.36
924.045	13225.27
924.222	13251.89
924.399	13552.95
924.575	13542.71
924.752	13258.04
924.929	13204.79
925.105	13321.52
925.282	13122.87
925.459	12629.31
925.635	12889.4
925.812	13036.86
925.989	12760.38
926.165	12940.6
926.342	12598.59
926.518	12617.02
926.695	12858.68
926.871	12397.89
927.048	12246.34
927.224	12662.08
927.401	12451.14
927.577	12336.45
927.754	11930.95
927.93	12811.58
928.107	12488
928.283	11873.61
928.459	12371.27
928.636	12350.79
928.812	12330.31
928.988	11812.17
929.165	11801.93
929.341	12076.36
929.517	12012.87
929.693	12250.44
929.87	11400.53
930.046	12068.17
930.222	11930.95
930.398	11382.1
930.574	11642.19
930.751	11720.01
930.927	11500.88
931.103	11494.74
931.279	11416.91
931.455	11345.23
931.631	11332.95
931.807	10970.46
931.983	10857.82
932.159	10790.24
932.335	11007.32
932.511	10825.05
932.687	10823
932.863	11162.97
933.039	10820.95
933.215	10624.35
933.391	10417.51
933.566	10702.17
933.742	10810.72
933.918	10259.81
934.094	9973.1
934.27	10339.68
934.445	10384.74
934.621	10153.32
934.797	9678.19
934.973	10235.24
935.148	10044.77
935.324	9678.19
935.5	9135.48
935.675	9915.75
935.851	9631.09
936.027	9164.15
936.202	9102.71
936.378	9108.85
936.553	8998.26
936.729	9022.84
936.904	8377.73
937.08	8394.11
937.255	8414.59
937.431	8136.07
937.606	7802.25
937.782	8039.81
937.957	8189.32
938.133	7927.18
938.308	7441.81
938.483	7814.54
938.659	7292.3
938.834	7189.91
939.009	7183.76
939.185	7150.99
939.36	6942.1
939.535	6333.86
939.71	6792.6
939.886	7189.91
940.061	7093.65
940.236	6686.11
940.411	6550.94
940.586	6614.43
940.761	6858.14
940.937	6313.38
941.112	6038.95
941.287	6419.87
941.462	6182.31
941.637	5834.15
941.812	5922.21
941.987	6342.05
942.162	6067.62
942.337	6096.29
942.512	5887.4
942.687	6079.91
942.862	6108.58
943.037	5490.09
943.212	5301.68
943.386	5895.59
943.561	5733.8
943.736	5719.46
943.911	5846.44
944.086	5914.02
944.26	5805.48
944.435	5547.44
944.61	5498.28
944.785	5946.79
944.959	6053.28
945.134	5381.55
945.309	5414.32
945.483	5514.67
945.658	5860.77
945.833	5133.75
946.007	5287.34
946.182	5936.55
946.357	5430.7
946.531	5420.46
946.706	5289.39
946.88	5223.86
947.055	5543.34
947.229	5389.74
947.404	5203.38
947.578	5682.6
947.752	5535.15
947.927	5096.88
948.101	4939.19
948.276	5541.29
948.45	5578.15
948.624	5346.73
948.799	5385.65
948.973	5645.74
949.147	5318.06
949.321	5293.49
949.496	5539.24
949.67	5780.9
949.844	5580.2
950.018	5361.07
950.193	5383.6
950.367	5977.51
950.541	5602.73
950.715	5492.14
950.889	5432.75
951.063	5590.44
951.237	5752.23
951.411	5166.51
951.585	5191.09
951.759	5707.18
951.933	5531.05
952.107	5352.88
952.281	5490.09
952.455	5666.22
952.629	5772.71
952.803	5217.71
952.977	5225.9
953.151	5703.08
953.325	5559.72
953.499	5395.89
953.672	5227.95
953.846	5264.82
954.02	5395.89
954.194	5203.38
954.368	5270.96
954.541	5795.24
954.715	5399.98
954.889	5311.92
955.062	5146.03
955.236	5449.13
955.41	5402.03
955.583	5424.56
955.757	5119.41
955.93	5223.86
956.104	5189.04
956.278	5248.43
956.451	5176.75
956.625	5475.76
956.798	5911.97
956.972	5469.61
957.145	4994.48
957.319	5371.31
957.492	5459.37
957.665	5316.01
957.839	5115.31
958.012	5561.77
958.185	5297.58
958.359	5074.35
958.532	5279.15
958.705	5580.2
958.879	5377.45
959.052	5250.48
959.225	4797.88
959.398	5199.28
959.572	5416.37
959.745	4978.1
959.918	5277.1
960.091	5270.96
960.264	5299.63
960.438	4887.99
960.611	4922.8
960.784	5547.44
960.957	5043.64
961.13	5287.34
961.303	4928.95
961.476	5150.13
961.649	5469.61
961.822	4935.09
961.995	5178.8
962.168	5391.79
962.341	5275.06
962.514	5062.07
962.686	4935.09
962.859	5176.75
963.032	5289.39
963.205	4900.28
963.378	4699.58
963.551	5141.94
963.723	5076.4
963.896	5021.11
964.069	4992.44
964.242	5182.9
964.414	5289.39
964.587	4890.04
964.76	5027.25
964.932	5060.02
965.105	5008.82
965.278	4783.54
965.45	4789.69
965.623	5094.83
965.795	5182.9
965.968	4875.7
966.14	4931
966.313	5076.4
966.485	5207.47
966.658	4826.55
966.83	4750.78
967.003	5256.62
967.175	5379.5
967.348	4810.17
967.52	4879.8
967.692	5262.77
967.865	5100.98
968.037	4709.82
968.209	5070.26
968.382	4920.76
968.554	5215.66
968.726	4771.26
968.898	4814.26
969.071	4967.86
969.243	4951.48
969.415	4789.69
969.587	4675
969.759	5330.35
969.932	5051.83
970.104	4625.85
970.276	4330.94
970.448	4642.23
970.62	4818.36
970.792	4658.62
970.964	4517.31
971.136	5260.72
971.308	4908.47
971.48	4533.69
971.652	4502.97
971.824	5098.93
971.996	4572.6
972.168	4560.31
972.339	4476.35
972.511	4974
972.683	4668.86
972.855	4808.12
973.027	4453.82
973.199	4812.21
973.37	4814.26
973.542	4482.49
973.714	4601.27
973.886	4607.42
974.057	4865.46
974.229	4367.81
974.401	4314.56
974.572	4568.51
974.744	4316.61
974.915	4543.93
975.087	4343.23
975.259	4904.37
975.43	4285.89
975.602	4300.22
975.773	4199.87
975.945	4232.64
976.116	4662.71
976.288	4249.02
976.459	4472.25
976.63	4423.1
976.802	4642.23
976.973	4201.92
977.145	4371.9
977.316	4976.05
977.487	4974
977.659	4300.22
977.83	4216.26
978.001	5037.49
978.172	4449.72
978.344	4185.54
978.515	4015.55
978.686	4382.14
978.857	4797.88
979.028	4281.79
979.2	4079.04
979.371	4638.14
979.542	4347.33
979.713	4267.45
979.884	3714.5
980.055	4244.93
980.226	4281.79
980.397	3837.38
980.568	3900.87
980.739	4631.99
980.91	4273.6
981.081	4171.2
981.252	3878.34
981.423	4382.14
981.594	4246.98
981.765	3945.92
981.936	3909.06
982.106	4324.8
982.277	4396.48
982.448	3872.2
982.619	4140.48
982.79	4111.81
982.96	4351.42
983.131	4023.75
983.302	3511.75
983.472	3964.36
983.643	4203.97
983.814	4007.36
983.984	3765.7
984.155	4056.51
984.326	4412.86
984.496	3892.68
984.667	3782.09
984.837	3700.17
985.008	4310.46
985.178	3913.16
985.349	3990.98
985.519	3794.37
985.69	3724.74
985.86	3722.7
986.031	3470.8
986.201	3990.98
986.371	4064.71
986.542	3716.55
986.712	3585.48
986.882	4068.8
987.053	4056.51
987.223	3429.84
987.393	3812.81
987.563	3810.76
987.734	3950.02
987.904	4023.75
988.074	3726.79
988.244	3849.67
988.414	3804.61
988.585	3575.24
988.755	3710.41
988.925	3792.33
989.095	4052.42
989.265	3558.86
989.435	3542.47
989.605	3954.12
989.775	3913.16
989.945	3812.81
990.115	3470.8
990.285	3818.95
990.455	3773.89
990.625	3585.48
990.795	3329.49
990.965	4027.84
991.134	3429.84
991.304	3483.08
991.474	3372.49
991.644	3691.98
991.814	4003.27
991.984	3188.18
992.153	3315.15
992.323	3767.75
992.493	3612.1
992.662	3253.71
992.832	3411.4
993.002	3595.72
993.171	3745.22
993.341	3102.16
993.511	3440.08
993.68	3464.65
993.85	3753.41
994.019	3083.73
994.189	3055.06
994.358	3474.89
994.528	3388.88
994.697	2895.32
994.867	3057.11
995.036	3558.86
995.206	3290.57
995.375	3167.7
995.544	3354.06
995.714	3341.77
995.883	3390.92
996.052	3440.08
996.222	2864.6
996.391	3868.1
996.56	3290.57
996.73	2985.43
996.899	2880.98
997.068	3786.18
997.237	3296.72
997.406	2903.51
997.576	2825.68
997.745	3317.2
997.914	3423.69
998.083	2829.78
998.252	2999.76
998.421	3298.77
998.59	2999.76
998.759	2921.94
998.928	2725.33
999.097	3380.68
999.266	3358.16
999.435	3083.73
999.604	2786.77
999.773	3636.68
999.942	3089.87
1000.111	2741.72
1000.28	2655.7
1000.448	2932.18
1000.617	2981.33
1000.786	3048.91
1000.955	2743.77
1001.124	3251.66
1001.292	3796.42
1001.461	2946.52
1001.63	2684.38
1001.798	3347.92
1001.967	3528.14
1002.136	2641.37
1002.304	2647.51
1002.473	3077.59
1002.642	3020.24
1002.81	2700.76
1002.979	2700.76
1003.147	3268.05
1003.316	3589.58
1003.484	2792.92
1003.653	2602.46
1003.821	3270.09
1003.99	3055.06
1004.158	2850.26
1004.327	2725.33
1004.495	3098.06
1004.663	2813.4
1004.832	2831.83
1005	2508.25
1005.168	3071.44
1005.337	3077.59
1005.505	2368.99
1005.673	2930.13
1005.842	3087.82
1006.01	2936.28
1006.178	2473.43
1006.346	2455
1006.514	2952.66
1006.683	3222.99
1006.851	2356.7
1007.019	2350.56
1007.187	2624.98
1007.355	2416.09
1007.523	2297.31
1007.691	2227.68
1007.859	2412
1008.027	3046.87
1008.195	2422.24
1008.363	2258.4
1008.531	3003.86
1008.699	2661.85
1008.867	2272.73
1009.035	2307.55
1009.203	2936.28
1009.37	2725.33
1009.538	2401.76
1009.706	2840.02
1009.874	2807.25
1010.042	2635.22
1010.209	2219.49
1010.377	2172.38
1010.545	2850.26
1010.713	2553.31
1010.88	2219.49
1011.048	2242.01
1011.216	2532.83
1011.383	2952.66
1011.551	2102.75
1011.718	2078.18
1011.886	2817.49
1012.054	2643.42
1012.221	2106.85
1012.389	2063.84
1012.556	2561.5
1012.724	2880.98
1012.891	2209.25
1013.058	1955.3
1013.226	2661.85
1013.393	2608.6
1013.561	1900
1013.728	2006.5
1013.895	2577.88
1014.063	2670.04
1014.23	1857
1014.397	2065.89
1014.565	2581.98
1014.732	2330.08
1014.899	2102.75
1015.066	1885.67
1015.233	2514.39
1015.401	2416.09
1015.568	2119.14
1015.735	2143.71
1015.902	2354.65
1016.069	2403.8
1016.236	2063.84
1016.403	1959.39
1016.57	2143.71
1016.737	2565.59
1016.904	2069.98
1017.071	1914.34
1017.238	2016.74
1017.405	2442.71
1017.572	1791.46
1017.739	2080.22
1017.906	2344.41
1018.073	2414.04
1018.24	1748.45
1018.407	1955.3
1018.573	2504.15
1018.74	2084.32
1018.907	1863.14
1019.074	1730.02
1019.241	2332.12
1019.407	2137.57
1019.574	1650.15
1019.741	1527.27
1019.907	2221.53
1020.074	2256.35
1020.241	1482.22
1020.407	1629.67
1020.574	2209.25
1020.74	2239.97
1020.907	1764.84
1021.073	1629.67
1021.24	2590.17
1021.406	2512.35
1021.573	1625.58
1021.739	1693.16
1021.906	2094.56
1022.072	2041.31
1022.239	1598.95
1022.405	1539.56
1022.571	1881.57
1022.738	1818.08
1022.904	1656.29
1023.07	1525.22
1023.237	1975.78
1023.403	2192.86
1023.569	1621.48
1023.735	1551.85
1023.902	1967.59
1024.068	2049.5
1024.234	1463.79
1024.4	1496.55
1024.566	1922.53
1024.732	2000.35
1024.898	1578.47
1025.065	1302
1025.231	2008.55
1025.397	1715.69
1025.563	1590.76
1025.729	1459.69
1025.895	1439.21
1026.061	1652.2
1026.227	1246.7
1026.392	1527.27
1026.558	2000.35
1026.724	1889.76
1026.89	1312.24
1027.056	1521.13
1027.222	1803.75
1027.388	1662.44
1027.553	1377.77
1027.719	1271.28
1027.885	2117.09
1028.051	1809.89
1028.216	1193.45
1028.382	1322.48
1028.548	1930.72
1028.713	1664.49
1028.879	1211.89
1029.045	1424.87
1029.21	1971.68
1029.376	1951.2
1029.541	1281.52
1029.707	1375.72
1029.873	1797.6
1030.038	1926.63
1030.204	1279.47
1030.369	1304.04
1030.534	1857
1030.7	1521.13
1030.865	1279.47
1031.031	1277.42
1031.196	1695.21
1031.361	1660.39
1031.527	1230.32
1031.692	1029.62
1031.857	1269.23
1032.023	1684.97
1032.188	1125.87
1032.353	1193.45
1032.518	1953.25
1032.684	1514.98
1032.849	1052.14
1033.014	1289.71
1033.179	1863.14
1033.344	1650.15
1033.509	1230.32
1033.674	1179.12
1033.839	1725.93
1034.004	1619.43
1034.17	1127.92
1034.335	992.75
1034.5	1445.35
1034.664	1398.25
1034.829	1074.67
1034.994	1154.54
1035.159	1539.56
1035.324	1537.51
1035.489	945.65
1035.654	1025.52
1035.819	1730.02
1035.984	1500.65
1036.148	1039.86
1036.313	1095.15
1036.478	1603.05
1036.643	1525.22
1036.807	1039.86
1036.972	976.37
1037.137	1762.79
1037.301	1455.59
1037.466	902.64
1037.631	1068.53
1037.795	1660.39
1037.96	1394.15
1038.124	1181.17
1038.289	833.01
1038.454	1564.14
1038.618	1590.76
1038.783	882.16
1038.947	1082.86
1039.111	1396.2
1039.276	1185.26
1039.44	923.12
1039.605	1250.8
1039.769	1320.43
1039.933	1267.18
1040.098	988.66
1040.262	1119.73
1040.426	1435.11
1040.591	1471.98
1040.755	857.59
1040.919	941.55
1041.083	1422.83
1041.248	1314.28
1041.412	753.14
1041.576	820.72
1041.74	1132.01
1041.904	1359.34
1042.068	843.25
1042.232	851.44
1042.397	1525.22
1042.561	1326.57
1042.725	554.49
1042.889	1068.53
1043.053	1367.53
1043.217	1246.7
1043.381	931.31
1043.544	677.37
1043.708	1365.48
1043.872	910.83
1044.036	534.01
1044.2	650.74
1044.364	1467.88
1044.528	1512.94
1044.691	2182.62
1044.855	695.8
1045.019	1414.63
1045.183	1347.05
1045.346	769.52
1045.51	611.83
1045.674	1230.32
1045.837	1269.23
1046.001	861.68
1046.165	675.32
1046.328	1746.41
1046.492	1218.03
1046.655	929.27
1046.819	781.81
1046.983	1023.47
1047.146	1228.27
1047.31	906.74
1047.473	628.21
1047.636	1058.29
1047.8	923.12
1047.963	695.8
1048.127	677.37
1048.29	925.17
