Data from Ink_Intensity_USB4F045381__106__00106.txt Node

Date: Mon Jul 17 11:06:55 EDT 2023
User: mmckonesweet
Spectrometer: USB4F04538
Trigger mode: 4
Integration Time (sec): 9.000000E-1
Scans to average: 1
Electric dark correction enabled: true
Nonlinearity correction enabled: false
Boxcar width: 0
XAxis mode: Wavelengths
Number of Pixels in Spectrum: 3648
>>>>>Begin Spectral Data<<<<<
345.52	-988.32
345.736	-988.32
345.952	-988.32
346.168	-1039.51
346.384	-1074.33
346.6	-203.94
346.816	-226.47
347.032	-189.61
347.248	279.38
347.464	-142.5
347.68	-76.97
347.896	127.83
348.112	392.02
348.328	-199.85
348.544	-7.34
348.76	-56.49
348.975	303.95
349.191	-251.05
349.407	-212.14
349.623	-38.06
349.839	-72.87
350.055	-167.08
350.27	-89.26
350.486	125.78
350.702	232.27
350.918	224.08
351.133	-177.32
351.349	74.58
351.565	385.87
351.781	-234.66
351.996	-50.35
352.212	326.48
352.428	-156.84
352.644	-124.07
352.859	-216.23
353.075	236.37
353.291	35.67
353.506	-105.64
353.722	-257.19
353.938	7
354.153	445.26
354.369	127.83
354.584	-195.75
354.8	267.09
355.016	-347.3
355.231	-283.81
355.447	-138.41
355.662	39.76
355.878	783.18
356.093	-281.77
356.309	-101.55
356.524	-277.67
356.74	244.56
356.955	-263.33
357.171	-79.02
357.386	189.27
357.602	-236.71
357.817	-97.45
358.033	-216.23
358.248	303.95
358.464	148.31
358.679	-167.08
358.895	-320.68
359.11	23.38
359.325	254.8
359.541	17.24
359.756	-21.67
359.972	-275.62
360.187	166.74
360.402	-208.04
360.618	-240.81
360.833	971.59
361.048	115.54
361.264	-138.41
361.479	29.52
361.694	82.77
361.909	131.92
362.125	-122.02
362.34	-183.46
362.555	248.66
362.77	154.45
362.986	-310.44
363.201	-191.66
363.416	158.55
363.631	37.72
363.847	-191.66
364.062	-222.38
364.277	189.27
364.492	78.68
364.707	-126.12
364.922	-398.5
365.138	287.57
365.353	340.82
365.568	-312.49
365.783	-124.07
365.998	74.58
366.213	518.99
366.428	-234.66
366.643	99.16
366.858	213.84
367.073	136.02
367.288	-146.6
367.503	-220.33
367.718	74.58
367.933	295.76
368.148	-361.64
368.363	-70.83
368.578	-42.15
368.793	373.58
369.008	-119.98
369.223	-296.1
369.438	205.65
369.653	385.87
369.868	-285.86
370.083	-251.05
370.298	76.63
370.513	371.54
370.728	-9.39
370.943	-187.56
371.157	-173.22
371.372	582.48
371.587	-289.96
371.802	-201.9
372.017	138.07
372.232	439.12
372.446	-1.19
372.661	-244.9
372.876	207.7
373.091	115.54
373.306	-87.21
373.52	-277.67
373.735	-150.7
373.95	344.91
374.165	-79.02
374.379	-187.56
374.594	-117.93
374.809	90.96
375.023	-38.06
375.238	-318.63
375.453	271.19
375.667	-320.68
375.882	-212.14
376.097	-267.43
376.311	-23.72
376.526	-36.01
376.741	-244.9
376.955	27.48
377.17	582.48
377.384	572.24
377.599	-31.91
377.813	-314.53
378.028	617.29
378.242	111.44
378.457	-38.06
378.672	-347.3
378.886	111.44
379.101	-52.39
379.315	-318.63
379.53	-175.27
379.744	211.79
379.958	172.88
380.173	-117.93
380.387	-232.62
380.602	78.68
380.816	-171.18
381.031	-249
381.245	-136.36
381.459	172.88
381.674	1798.97
381.888	-212.14
382.103	80.72
382.317	-220.33
382.531	527.18
382.746	-25.77
382.96	-126.12
383.174	-169.13
383.388	492.37
383.603	-5.29
383.817	-302.25
384.031	158.55
384.246	435.02
384.46	45.91
384.674	402.26
384.888	-21.67
385.103	64.34
385.317	-363.69
385.531	-101.55
385.745	336.72
385.959	330.58
386.174	-249
386.388	-275.62
386.602	-38.06
386.816	-95.4
387.03	-113.83
387.244	-187.56
387.458	146.26
387.672	326.48
387.887	-312.49
388.101	-265.38
388.315	373.58
388.529	103.25
388.743	-210.09
388.957	-285.86
389.171	355.15
389.385	-191.66
389.599	-169.13
389.813	37.72
390.027	187.22
390.241	582.48
390.455	-113.83
390.669	-124.07
390.883	-48.3
391.097	369.49
391.311	9.05
391.525	-212.14
391.738	138.07
391.952	148.31
392.166	-138.41
392.38	-279.72
392.594	209.75
392.808	273.23
393.022	-95.4
393.236	-97.45
393.449	193.36
393.663	109.4
393.877	-355.49
394.091	-119.98
394.305	9.05
394.518	-126.12
394.732	-214.18
394.946	-158.89
395.16	367.44
395.373	68.44
395.587	-298.15
395.801	-136.36
396.015	334.67
396.228	181.07
396.442	-375.97
396.656	-431.27
396.869	260.95
397.083	506.7
397.297	-38.06
397.51	-122.02
397.724	375.63
397.938	33.62
398.151	-324.77
398.365	-326.82
398.578	236.37
398.792	291.66
399.005	-76.97
399.219	-79.02
399.433	115.54
399.646	164.69
399.86	9.05
400.073	15.19
400.287	228.18
400.5	-52.39
400.714	23.38
400.927	-40.11
401.141	275.28
401.354	1096.52
401.567	201.55
401.781	-255.14
401.994	277.33
402.208	598.86
402.421	-134.31
402.635	-130.22
402.848	39.76
403.061	287.57
403.275	-85.16
403.488	-236.71
403.701	498.51
403.915	303.95
404.128	2.9
404.341	-203.94
404.555	267.09
404.768	-40.11
404.981	-33.96
405.195	-226.47
405.408	426.83
405.621	295.76
405.834	66.39
406.048	-285.86
406.261	385.87
406.474	498.51
406.687	-246.95
406.9	-3.24
407.114	72.53
407.327	230.23
407.54	-296.1
407.753	-304.29
407.966	-124.07
408.179	195.41
408.392	-175.27
408.605	-382.12
408.819	197.46
409.032	213.84
409.245	-150.7
409.458	-17.58
409.671	191.31
409.884	252.75
410.097	-302.25
410.31	25.43
410.523	226.13
410.736	-1.19
410.949	-128.17
411.162	-105.64
411.375	461.65
411.588	338.77
411.801	35.67
412.014	-285.86
412.227	-33.96
412.44	-19.63
412.653	-154.79
412.865	58.2
413.078	238.42
413.291	160.59
413.504	-134.31
413.717	-199.85
413.93	293.71
414.143	-150.7
414.356	-146.6
414.568	-287.91
414.781	289.62
414.994	191.31
415.207	-111.78
415.42	-119.98
415.632	267.09
415.845	516.94
416.058	-255.14
416.271	-220.33
416.483	-38.06
416.696	533.33
416.909	-140.46
417.121	-199.85
417.334	197.46
417.547	435.02
417.759	-160.94
417.972	-150.7
418.185	19.29
418.397	176.98
418.61	-255.14
418.823	-150.7
419.035	500.56
419.248	15.19
419.46	-103.59
419.673	-124.07
419.885	230.23
420.098	17.24
420.311	-167.08
420.523	-359.59
420.736	287.57
420.948	97.11
421.161	-199.85
421.373	-289.96
421.586	181.07
421.798	-99.5
422.01	-285.86
422.223	-21.67
422.435	-122.02
422.648	328.53
422.86	-146.6
423.073	-226.47
423.285	314.19
423.497	-224.42
423.71	-244.9
423.922	-158.89
424.134	152.4
424.347	441.17
424.559	78.68
424.771	43.86
424.984	-46.25
425.196	197.46
425.408	-281.77
425.621	-230.57
425.833	291.66
426.045	336.72
426.257	-195.75
426.47	-142.5
426.682	193.36
426.894	205.65
427.106	-179.37
427.318	-160.94
427.531	-171.18
427.743	271.19
427.955	-158.89
428.167	191.31
428.379	170.83
428.591	-5.29
428.804	-29.87
429.016	-228.52
429.228	25.43
429.44	246.61
429.652	2.9
429.864	-298.15
430.076	-38.06
430.288	43.86
430.5	-105.64
430.712	-111.78
430.924	314.19
431.136	224.08
431.348	-269.48
431.56	-132.26
431.772	74.58
431.984	-5.29
432.196	-126.12
432.408	-132.26
432.62	-1.19
432.832	144.21
433.044	103.25
433.256	-62.63
433.468	310.1
433.679	-279.72
433.891	-289.96
434.103	-7.34
434.315	428.88
434.527	176.98
434.739	-105.64
434.95	-64.68
435.162	285.52
435.374	-72.87
435.586	-19.63
435.798	-132.26
436.009	-195.75
436.221	66.39
436.433	-179.37
436.645	-154.79
436.856	-52.39
437.068	293.71
437.28	-251.05
437.491	88.92
437.703	179.03
437.915	172.88
438.126	-138.41
438.338	158.55
438.55	93.01
438.761	222.03
438.973	-126.12
439.184	-115.88
439.396	164.69
439.608	277.33
439.819	-265.38
440.031	-72.87
440.242	224.08
440.454	238.42
440.665	-38.06
440.877	-81.07
441.088	254.8
441.3	-19.63
441.511	-316.58
441.723	-46.25
441.934	226.13
442.146	117.59
442.357	15.19
442.569	162.64
442.78	66.39
442.991	502.61
443.203	172.88
443.414	-165.03
443.626	447.31
443.837	-31.91
444.048	-187.56
444.26	-324.77
444.471	133.97
444.682	262.99
444.894	-269.48
445.105	-218.28
445.316	324.43
445.528	183.12
445.739	-7.34
445.95	-40.11
446.161	185.17
446.373	359.25
446.584	-126.12
446.795	-99.5
447.006	275.28
447.217	420.69
447.429	-261.29
447.64	-249
447.851	406.35
448.062	258.9
448.273	-306.34
448.484	-171.18
448.695	215.89
448.907	-38.06
449.118	21.33
449.329	133.97
449.54	-15.53
449.751	-138.41
449.962	-95.4
450.173	-162.98
450.384	308.05
450.595	426.83
450.806	-240.81
451.017	-101.55
451.228	451.41
451.439	369.49
451.65	-158.89
451.861	-277.67
452.072	-124.07
452.283	88.92
452.494	123.73
452.705	-165.03
452.915	545.61
453.126	260.95
453.337	21.33
453.548	-203.94
453.759	426.83
453.97	697.16
454.181	136.02
454.391	-31.91
454.602	99.16
454.813	299.86
455.024	-79.02
455.235	-119.98
455.445	219.99
455.656	236.37
455.867	95.06
456.078	-130.22
456.288	43.86
456.499	230.23
456.71	-103.59
456.921	209.75
457.131	252.75
457.342	203.6
457.553	-3.24
457.763	-9.39
457.974	342.86
458.184	459.6
458.395	-128.17
458.606	-208.04
458.816	349.01
459.027	660.3
459.237	54.1
459.448	-251.05
459.659	473.93
459.869	820.04
460.08	-261.29
460.29	95.06
460.501	623.44
460.711	99.16
460.922	-146.6
461.132	-74.92
461.343	809.8
461.553	-187.56
461.764	-122.02
461.974	-27.82
462.184	412.5
462.395	254.8
462.605	-40.11
462.816	-146.6
463.026	262.99
463.236	527.18
463.447	-138.41
463.657	-1.19
463.867	449.36
464.078	136.02
464.288	7
464.498	37.72
464.709	224.08
464.919	203.6
465.129	25.43
465.339	-56.49
465.55	303.95
465.76	492.37
465.97	-5.29
466.18	0.85
466.391	500.56
466.601	349.01
466.811	66.39
467.021	-138.41
467.231	410.45
467.441	613.2
467.651	15.19
467.862	-232.62
468.072	277.33
468.282	525.13
468.492	7
468.702	193.36
468.912	217.94
469.122	799.56
469.332	289.62
469.542	-7.34
469.752	539.47
469.962	330.58
470.172	-36.01
470.382	-42.15
470.592	623.44
470.802	631.63
471.012	213.84
471.222	29.52
471.432	553.8
471.642	488.27
471.852	219.99
472.062	39.76
472.272	265.04
472.482	86.87
472.691	70.48
472.901	-29.87
473.111	379.73
473.321	977.73
473.531	2.9
473.741	224.08
473.95	535.37
474.16	590.67
474.37	209.75
474.58	99.16
474.79	801.61
474.999	533.33
475.209	80.72
475.419	164.69
475.628	289.62
475.838	723.79
476.048	273.23
476.258	62.29
476.467	764.75
476.677	340.82
476.886	334.67
477.096	283.47
477.306	283.47
477.515	828.23
477.725	308.05
477.935	213.84
478.144	813.9
478.354	226.13
478.563	228.18
478.773	246.61
478.982	707.4
479.192	750.41
479.401	346.96
479.611	162.64
479.82	385.87
480.03	582.48
480.239	265.04
480.449	181.07
480.658	830.28
480.868	447.31
481.077	453.45
481.287	361.3
481.496	660.3
481.705	961.35
481.915	566.09
482.124	582.48
482.333	615.24
482.543	979.78
482.752	453.45
482.961	437.07
483.171	774.99
483.38	668.49
483.589	504.65
483.799	342.86
484.008	559.95
484.217	922.44
484.426	480.08
484.636	289.62
484.845	688.97
485.054	414.54
485.263	731.98
485.472	498.51
485.682	1080.13
485.891	762.7
486.1	289.62
486.309	518.99
486.518	891.72
486.727	1164.1
486.936	435.02
487.146	658.25
487.355	1147.72
487.564	592.72
487.773	541.52
487.982	570.19
488.191	701.26
488.4	820.04
488.609	512.85
488.818	639.82
489.027	1274.69
489.236	1160
489.445	621.39
489.654	506.7
489.863	1069.89
490.072	908.1
490.281	914.25
490.49	697.16
490.698	1270.59
490.907	1211.2
491.116	574.28
491.325	463.69
491.534	1256.26
491.743	1002.31
491.952	811.85
492.16	738.12
492.369	1055.56
492.578	1020.74
492.787	914.25
492.996	564.04
493.204	861
493.413	1461.06
493.622	480.08
493.831	592.72
494.039	1418.05
494.248	723.79
494.457	660.3
494.665	549.71
494.874	1239.87
495.083	1538.88
495.291	811.85
495.5	785.23
495.709	1260.35
495.917	1082.18
496.126	887.62
496.335	705.35
496.543	1028.93
496.752	1155.91
496.96	1037.13
497.169	625.48
497.377	1088.32
497.586	1385.28
497.794	1004.36
498.003	707.4
498.211	992.07
498.42	1532.73
498.628	977.73
498.837	885.58
499.045	1239.87
499.254	1198.92
499.462	949.06
499.671	850.76
499.879	1553.21
500.087	1459.01
500.296	1020.74
500.504	918.34
500.713	1268.55
500.921	1839.93
501.129	926.54
501.338	998.21
501.546	1246.02
501.754	1364.8
501.962	1020.74
502.171	916.3
502.379	1471.29
502.587	1766.2
502.795	1139.52
503.004	1073.99
503.212	1368.9
503.42	1549.12
503.628	1061.7
503.837	1241.92
504.045	1499.97
504.253	1817.4
504.461	1123.14
504.669	914.25
504.877	1475.39
505.085	1669.95
505.294	1024.84
505.502	1276.74
505.71	1569.6
505.918	1614.65
506.126	1149.76
506.334	1018.69
506.542	1426.24
506.75	1508.16
506.958	1286.98
507.166	1205.06
507.374	1377.09
507.582	1917.75
507.79	1336.13
507.998	1155.91
508.206	1575.74
508.414	1598.27
508.622	1110.85
508.83	1149.76
509.037	1960.76
509.245	1540.93
509.453	1160
509.661	1133.38
509.869	1782.59
510.077	1491.77
510.285	1352.51
510.492	1041.22
510.7	2112.31
510.908	1438.53
511.116	1321.79
511.324	1313.6
511.531	1518.4
511.739	1768.25
511.947	1542.97
512.155	1563.45
512.362	1704.76
512.57	1405.76
512.778	1282.88
512.985	1246.02
513.193	1944.38
513.401	1971
513.608	1344.32
513.816	1334.08
514.024	1825.59
514.231	1975.1
514.439	1407.81
514.646	1411.9
514.854	1968.95
515.061	2036.53
515.269	1499.97
515.477	1399.62
515.684	1436.48
515.892	2073.4
516.099	1397.57
516.307	1401.66
516.514	1958.71
516.722	2110.26
516.929	1504.06
517.136	1370.94
517.344	2065.21
517.551	1936.18
517.759	1542.97
517.966	1504.06
518.173	1852.22
518.381	1815.35
518.588	1620.8
518.796	1524.54
519.003	2106.17
519.21	1899.32
519.418	1684.28
519.625	1954.62
519.832	1758.01
520.039	2100.02
520.247	1502.01
520.454	1622.84
520.661	2157.36
520.868	1993.53
521.076	1692.48
521.283	1708.86
521.49	2564.91
521.697	2294.58
521.904	1774.39
522.112	1807.16
522.319	2167.6
522.526	2120.5
522.733	1733.43
522.94	1764.15
523.147	2071.35
523.354	2294.58
523.561	1577.79
523.768	1995.57
523.975	2276.15
524.183	1997.62
524.39	1907.51
524.597	1655.61
524.804	2161.46
525.011	1819.45
525.218	1794.87
525.425	1786.68
525.632	2515.76
525.838	1938.23
526.045	1966.9
526.252	1833.79
526.459	3304.23
526.666	2935.59
526.873	1821.5
527.08	1952.57
527.287	2544.43
527.494	2460.46
527.701	1884.98
527.907	1927.99
528.114	2343.73
528.321	2284.34
528.528	2005.81
528.735	1989.43
528.941	2206.52
529.148	2302.77
529.355	2163.51
529.562	1958.71
529.768	2695.98
529.975	2239.28
530.182	2143.03
530.388	2153.27
530.595	2695.98
530.802	2114.36
531.008	2304.82
531.215	2093.88
531.422	2849.58
531.628	3185.44
531.835	2216.76
532.042	2304.82
532.248	2347.83
532.455	2431.79
532.661	2255.67
532.868	2243.38
533.074	2523.95
533.281	2771.76
533.487	2304.82
533.694	2130.74
533.9	2417.46
534.107	2657.07
534.313	2237.24
534.52	2259.76
534.726	2769.71
534.933	3083.05
535.139	2241.33
535.345	2394.93
535.552	2747.18
535.758	2738.99
535.965	2442.03
536.171	2487.09
536.377	2884.39
536.584	3011.37
536.79	2394.93
536.996	2427.7
537.203	2800.43
537.409	2902.83
537.615	2413.36
537.821	2763.56
538.028	2929.45
538.234	2855.72
538.44	2425.65
538.646	2589.49
538.853	2814.76
539.059	2759.47
539.265	2892.59
539.471	2394.93
539.677	3111.72
539.883	2786.09
540.09	2532.14
540.296	3011.37
540.502	2724.65
540.708	2816.81
540.914	2747.18
541.12	2575.15
541.326	3212.07
541.532	3003.18
541.738	2839.34
541.944	2605.87
542.15	3324.71
542.356	3068.71
542.562	2695.98
542.768	2847.53
542.974	3758.88
543.18	3519.26
543.386	2716.46
543.592	2614.06
543.798	3484.45
544.004	3410.72
544.21	2796.33
544.415	2954.02
544.621	3232.55
544.827	3246.88
545.033	2837.29
545.239	3050.28
545.445	3144.49
545.651	3330.85
545.856	2964.26
546.062	2765.61
546.268	2921.26
546.474	3242.79
546.679	2947.88
546.885	2994.98
547.091	3177.25
547.297	3726.11
547.502	3177.25
547.708	2847.53
547.914	3107.62
548.119	3427.11
548.325	2921.26
548.531	3003.18
548.736	3699.48
548.942	3246.88
549.147	2951.98
549.353	3304.23
549.559	3740.44
549.764	3576.61
549.97	3107.62
550.175	3062.57
550.381	3576.61
550.586	3304.23
550.792	3185.44
550.997	3148.58
551.203	3629.85
551.408	3609.37
551.614	3142.44
551.819	3091.24
552.025	3865.37
552.23	3941.15
552.435	3148.58
552.641	3502.88
552.846	3281.7
553.052	3996.44
553.257	3468.06
553.462	3285.8
553.668	3320.61
553.873	3924.76
554.078	3300.13
554.283	3308.32
554.489	3597.09
554.694	3617.57
554.899	3392.29
555.105	3652.38
555.31	3828.51
555.515	3912.47
555.72	3568.41
555.925	3394.34
556.131	3978.01
556.336	3734.3
556.541	3578.65
556.746	3400.48
556.951	4277.01
557.156	4262.68
557.361	3566.37
557.567	3748.64
557.772	4408.08
557.977	4006.68
558.182	3523.36
558.387	3504.93
558.592	3793.69
558.797	4338.45
559.002	3717.92
559.207	3881.75
559.412	4023.06
559.617	4432.66
559.822	3666.72
560.027	3654.43
560.232	4008.73
560.437	4172.57
560.642	3539.74
560.847	3728.16
561.051	4135.7
561.256	4223.76
561.461	3730.2
561.666	3726.11
561.871	4025.11
562.076	4199.19
562.281	3994.39
562.485	3697.44
562.69	4293.4
562.895	4324.12
563.1	4025.11
563.305	3666.72
563.509	4549.39
563.714	4688.65
563.919	3926.81
564.123	3785.5
564.328	4137.75
564.533	4490
564.737	3963.67
564.942	3932.95
565.147	4672.27
565.351	4944.65
565.556	4170.52
565.761	4104.98
565.965	4526.86
566.17	4258.58
566.374	4135.7
566.579	3965.72
566.784	4211.48
566.988	4242.2
567.193	3986.2
567.397	4102.93
567.602	4096.79
567.806	4399.89
568.011	4207.38
568.215	4252.44
568.42	4436.75
568.624	4408.08
568.828	4234
569.033	4389.65
569.237	4653.84
569.442	4760.33
569.646	4127.51
569.85	4395.79
570.055	4600.59
570.259	4567.82
570.463	4569.87
570.668	4326.16
570.872	4641.55
571.076	4567.82
571.281	4436.75
571.485	4444.95
571.689	4764.43
571.893	4875.02
572.098	4494.1
572.302	4459.28
572.506	4821.77
572.71	4596.5
572.914	4494.1
573.119	4475.67
573.323	4975.37
573.527	5075.72
573.731	4377.36
573.935	4461.33
574.139	4801.29
574.343	4750.09
574.547	4502.29
574.751	4645.65
574.955	5266.18
575.159	5022.47
575.364	4551.44
575.568	4375.31
575.772	4731.66
575.976	5321.48
576.18	4625.17
576.383	4408.08
576.587	5419.78
576.791	5139.21
576.995	4504.34
577.199	4455.19
577.403	5368.58
577.607	5335.81
577.811	4731.66
578.015	4838.16
578.219	5079.82
578.422	5341.96
578.626	4735.76
578.83	5106.44
579.034	5384.96
579.238	5311.24
579.442	4754.19
579.645	5159.69
579.849	5182.21
580.053	5296.9
580.257	4915.98
580.46	5036.81
580.664	5415.68
580.868	5374.72
581.071	5395.2
581.275	5124.87
581.479	5077.77
581.682	5458.69
581.886	5141.25
582.09	5038.86
582.293	5624.58
582.497	5446.4
582.7	5454.59
582.904	5247.75
583.107	5516.03
583.311	5329.67
583.515	5286.66
583.718	5094.15
583.922	5575.42
584.125	5835.52
584.329	5200.65
584.532	5403.39
584.735	5794.56
584.939	5683.97
585.142	5022.47
585.346	5169.93
585.549	5366.53
585.753	5647.1
585.956	5376.77
586.159	5346.05
586.363	6032.12
586.566	5980.92
586.769	5391.11
586.973	5292.8
587.176	5782.27
587.379	6062.84
587.582	5786.37
587.786	5591.81
587.989	5845.76
588.192	6492.91
588.395	5516.03
588.599	5688.06
588.802	5757.69
589.005	6075.13
589.208	5733.12
589.411	5745.41
589.615	6079.22
589.818	6222.58
590.021	5913.34
590.224	5724.93
590.427	6208.25
590.63	6226.68
590.833	5581.57
591.036	5864.19
591.239	6025.98
591.442	5880.57
591.645	5917.44
591.848	5884.67
592.051	6200.05
592.254	6427.38
592.457	5835.52
592.66	5858.04
592.863	6038.27
593.066	6130.42
593.269	5909.24
593.472	6206.2
593.675	6009.59
593.878	6421.24
594.081	6066.94
594.284	5800.7
594.486	6390.52
594.689	6257.4
594.892	5896.96
595.095	6075.13
595.298	6470.39
595.5	6269.69
595.703	6255.35
595.906	6327.03
596.109	6748.91
596.311	6523.63
596.514	5845.76
596.717	6245.11
596.92	6910.7
597.122	6507.25
597.325	5987.07
597.528	6001.4
597.73	6922.99
597.933	6486.77
598.136	6181.62
598.338	6005.5
598.541	6765.29
598.743	6746.86
598.946	6230.77
599.148	6214.39
599.351	6865.64
599.554	6939.37
599.756	6408.95
599.959	6382.32
600.161	6804.21
600.363	7219.94
600.566	6548.21
600.768	6449.91
600.971	7203.56
601.173	6920.94
601.376	6617.84
601.578	6490.87
601.78	7072.49
601.983	7355.11
602.185	6462.19
602.388	6763.25
602.59	6853.36
602.792	6879.98
602.995	6763.25
603.197	6574.83
603.399	7209.7
603.601	7039.72
603.804	6619.89
604.006	6546.16
604.208	6773.49
604.41	6791.92
604.613	6947.56
604.815	6785.77
605.017	7584.48
605.219	6816.49
605.421	7123.69
605.623	6685.42
605.826	7416.55
606.028	7260.9
606.23	6820.59
606.432	6861.55
606.634	7654.11
606.836	7465.7
607.038	6687.47
607.24	7156.46
607.442	7193.32
607.644	7357.16
607.846	7129.83
608.048	6712.05
608.25	7494.37
608.452	6980.33
608.654	7152.36
608.856	6839.02
609.058	7183.08
609.26	7361.25
609.462	6992.62
609.664	7291.62
609.866	7672.54
610.067	7445.22
610.269	7140.07
610.471	7269.09
610.673	7195.37
610.875	7602.91
611.077	6732.53
611.278	7301.86
611.48	7455.46
611.682	7916.25
611.884	7254.76
612.085	7213.8
612.287	7299.81
612.489	7594.72
612.69	7074.54
612.892	7299.81
613.094	8039.13
613.295	7533.28
613.497	6963.95
613.699	7359.21
613.9	7912.16
614.102	7840.48
614.304	7244.52
614.505	7174.89
614.707	7557.86
614.908	7647.97
615.11	7131.88
615.311	7594.72
615.513	7684.83
615.714	7893.72
615.916	7213.8
616.117	7533.28
616.319	7500.51
616.52	7817.95
616.722	7336.68
616.923	7394.02
617.124	8110.81
617.326	7807.71
617.527	7641.82
617.729	7717.6
617.93	8010.46
618.131	8141.53
618.333	7430.88
618.534	7561.95
618.735	7693.02
618.937	8254.17
619.138	7457.51
619.339	7271.14
619.54	8102.62
619.742	7688.93
619.943	7811.81
620.144	7797.47
620.345	8209.11
620.546	8252.12
620.748	7736.03
620.949	7674.59
621.15	7989.98
621.351	7963.36
621.552	7627.49
621.753	7617.25
621.954	7789.28
622.155	8686.29
622.356	7705.31
622.558	7924.44
622.759	8125.15
622.96	8458.96
623.161	7783.13
623.362	7815.9
623.563	7834.33
623.764	8284.89
623.965	7901.92
624.166	8028.89
624.366	7906.01
624.567	8145.63
624.768	7656.16
624.969	7863.01
625.17	7912.16
625.371	8358.61
625.572	8051.42
625.773	7883.49
625.973	8555.22
626.174	8549.07
626.375	7994.08
626.576	8137.43
626.777	8544.98
626.977	8757.97
627.178	8127.19
627.379	8114.91
627.58	8209.11
627.78	8477.4
627.981	8114.91
628.182	8090.33
628.382	8637.14
628.583	8297.17
628.784	8080.09
628.984	8291.03
629.185	8774.35
629.386	8477.4
629.586	8207.06
629.787	8258.26
629.987	8442.58
630.188	8657.62
630.388	8358.61
630.589	8286.93
630.79	9085.64
630.99	8706.77
631.191	8399.57
631.391	8506.07
631.591	8762.06
631.792	9016.01
631.992	8575.7
632.193	8489.68
632.393	9364.17
632.594	8774.35
632.794	8436.44
632.994	8544.98
633.195	8463.06
633.395	8639.19
633.595	8442.58
633.796	8678.1
633.996	8776.4
634.196	9036.49
634.397	8555.22
634.597	8655.57
634.797	8704.72
634.997	9241.29
635.198	8798.93
635.398	8399.57
635.598	9054.92
635.798	9110.22
635.998	9122.51
636.199	8581.84
636.399	8856.27
636.599	8745.68
636.799	8737.49
636.999	8964.81
637.199	9106.12
637.399	9210.57
637.599	8803.02
637.799	9013.96
637.999	8915.66
638.199	9196.23
638.399	8641.23
638.599	8702.67
638.799	9308.87
638.999	9595.59
639.199	8977.1
639.399	8843.98
639.599	9765.57
639.799	8878.8
639.999	8983.24
640.199	8733.39
640.399	9282.25
640.599	9255.62
640.799	9175.75
640.998	9401.03
641.198	9495.24
641.398	9431.75
641.598	9085.64
641.798	9013.96
641.997	10191.55
642.197	9147.08
642.397	9511.62
642.597	9138.89
642.796	9220.81
642.996	9753.28
643.196	9212.62
643.395	9018.06
643.595	9503.43
643.795	9005.77
643.994	9233.1
644.194	9296.58
644.394	9614.02
644.593	9587.4
644.793	9231.05
644.992	9349.83
645.192	9667.27
645.392	9177.8
645.591	9269.96
645.791	9315.02
645.99	9761.47
646.19	9515.72
646.389	9456.33
646.589	9355.97
646.788	9960.13
646.987	9736.9
647.187	9638.59
647.386	9669.31
647.586	9665.22
647.785	9958.08
647.984	9419.46
648.184	9718.47
648.383	9784
648.582	9640.64
648.782	9493.19
648.981	9769.66
649.18	9505.48
649.38	9947.84
649.579	9642.69
649.778	9333.45
649.977	10093.24
650.177	10040
650.376	9306.82
650.575	9587.4
650.774	10392.25
650.973	9730.75
651.173	9515.72
651.372	9972.41
651.571	10117.82
651.77	10207.93
651.969	9591.49
652.168	9904.83
652.367	9603.78
652.566	10148.54
652.765	9652.93
652.964	10027.71
653.163	10437.3
653.362	10078.91
653.561	9632.45
653.76	9913.02
653.959	10050.24
654.158	10369.72
654.357	10324.66
654.556	9847.49
654.755	10316.47
654.954	10468.02
655.153	10013.37
655.352	10029.76
655.551	10562.23
655.749	10175.16
655.948	9990.84
656.147	10171.07
656.346	10388.15
656.545	10412.73
656.743	10044.09
656.942	10255.03
657.141	10390.2
657.34	10076.86
657.538	10283.7
657.737	10058.43
657.936	10361.53
658.135	10492.6
658.333	10306.23
658.532	10281.66
658.731	10887.86
658.929	10861.23
659.128	10549.94
659.326	10187.45
659.525	11004.59
659.724	10547.89
659.922	10091.2
660.121	10166.97
660.319	10582.71
660.518	10371.77
660.716	10181.31
660.915	10226.36
661.113	10969.77
661.312	10248.89
661.51	10382.01
661.709	10494.65
661.907	10797.74
662.105	11240.11
662.304	10537.65
662.502	10611.38
662.701	10937.01
662.899	10687.15
663.097	10668.72
663.296	10394.29
663.494	11207.34
663.692	11055.79
663.891	10330.81
664.089	10330.81
664.287	10889.9
664.485	11098.8
664.684	10613.43
664.882	10513.08
665.08	10949.29
665.278	10732.21
665.476	10275.51
665.675	10758.83
665.873	11305.64
666.071	11127.47
666.269	10748.59
666.467	10840.75
666.665	10998.45
666.863	10734.26
667.061	10857.14
667.259	10668.72
667.457	10949.29
667.655	10953.39
667.853	10566.32
668.051	10803.89
668.249	10945.2
668.447	11154.09
668.645	10353.34
668.843	10969.77
669.041	11287.21
669.239	10822.32
669.437	10977.97
669.635	10816.18
669.833	10889.9
670.031	11240.11
670.229	11039.4
670.426	10961.58
670.624	10793.65
670.822	10947.25
671.02	10781.36
671.218	10910.38
671.415	10879.66
671.613	11268.78
671.811	11018.93
672.009	10924.72
672.206	11405.99
672.404	11293.35
672.602	11049.64
672.799	10969.77
672.997	11195.05
673.195	11494.05
673.392	10980.01
673.59	10930.86
673.788	11276.97
673.985	10570.42
674.183	11096.75
674.38	11127.47
674.578	11469.48
674.775	11125.42
674.973	10924.72
675.17	10928.81
675.368	11633.32
675.565	11399.85
675.763	10953.39
675.96	10947.25
676.158	11520.68
676.355	11012.78
676.553	10945.2
676.75	11082.41
676.947	11342.5
677.145	11166.38
677.342	11203.24
677.539	11229.87
677.737	11178.67
677.934	11799.2
678.131	11141.8
678.329	11158.19
678.526	11348.65
678.723	11389.61
678.92	11199.15
679.118	11076.27
679.315	11094.7
679.512	11758.24
679.709	11195.05
679.906	11281.07
680.104	11672.23
680.301	11502.25
680.498	10873.52
680.695	10977.97
680.892	11221.67
681.089	11184.81
681.286	11313.83
681.483	10828.46
681.68	11479.72
681.877	11723.43
682.075	11137.71
682.272	11424.42
682.469	11309.74
682.665	11315.88
682.862	10885.81
683.059	11100.84
683.256	11696.8
683.453	11543.21
683.65	11119.28
683.847	11371.18
684.044	11537.06
684.241	11156.14
684.438	11322.02
684.635	11053.74
684.831	11852.45
685.028	11868.83
685.225	11080.36
685.422	11449
685.619	11213.48
685.815	11475.62
686.012	11410.09
686.209	11127.47
686.405	11383.46
686.602	11526.82
686.799	11156.14
686.996	11063.98
687.192	11221.67
687.389	11909.79
687.586	11205.29
687.782	11209.39
687.979	11856.54
688.175	11862.69
688.372	11184.81
688.568	11371.18
688.765	11172.52
688.962	11674.28
689.158	11301.54
689.355	11018.93
689.551	11559.59
689.748	11762.34
689.944	11268.78
690.14	11197.1
690.337	11647.65
690.533	11229.87
690.73	11227.82
690.926	11508.39
691.123	11723.43
691.319	11522.73
691.515	11047.6
691.712	11438.76
691.908	11915.94
692.104	11489.96
692.301	11500.2
692.497	11221.67
692.693	11508.39
692.889	11981.47
693.086	11340.46
693.282	11193
693.478	11553.45
693.674	11838.11
693.87	11350.7
694.067	11147.95
694.263	11672.23
694.459	11598.5
694.655	11690.66
694.851	11459.24
695.047	11725.47
695.243	11940.51
695.439	11510.44
695.635	11338.41
695.831	11756.19
696.027	11563.68
696.224	11141.8
696.42	11852.45
696.615	12083.87
696.811	11870.88
697.007	11367.08
697.203	11227.82
697.399	11641.51
697.595	12102.3
697.791	11381.42
697.987	11588.26
698.183	11395.75
698.379	11414.18
698.575	11465.38
698.77	11309.74
698.966	11809.44
699.162	11686.56
699.358	11623.08
699.554	11371.18
699.749	11887.26
699.945	12081.82
700.141	11436.71
700.337	11418.28
700.532	11414.18
700.728	11653.8
700.924	11387.56
701.119	11393.7
701.315	11434.66
701.511	11506.34
701.706	11647.65
701.902	11100.84
702.097	11805.35
702.293	11836.06
702.489	11526.82
702.684	11793.06
702.88	11707.04
703.075	11723.43
703.271	11240.11
703.466	11365.03
703.662	11661.99
703.857	12016.29
704.053	11702.95
704.248	11586.21
704.443	12130.97
704.639	11704.99
704.834	11567.78
705.03	11264.68
705.225	11895.46
705.42	11926.18
705.616	11408.04
705.811	11371.18
706.006	11561.64
706.202	11762.34
706.397	11516.58
706.592	11516.58
706.787	11641.51
706.983	11633.32
707.178	11700.9
707.373	11561.64
707.568	12034.72
707.763	12159.64
707.959	11549.35
708.154	11494.05
708.349	11788.96
708.544	11922.08
708.739	11862.69
708.934	11461.29
709.129	11948.7
709.324	12055.2
709.519	11719.33
709.714	11547.3
709.909	12180.12
710.104	12004
710.299	11584.16
710.494	11719.33
710.689	11954.85
710.884	11768.48
711.079	11655.84
711.274	11737.76
711.469	11960.99
711.664	11950.75
711.859	11514.53
712.054	11725.47
712.249	11872.93
712.443	11909.79
712.638	11276.97
712.833	11461.29
713.028	11909.79
713.223	11657.89
713.417	11657.89
713.612	11850.4
713.807	12219.03
714.002	12364.44
714.196	11903.65
714.391	11870.88
714.586	12030.62
714.78	11834.02
714.975	11760.29
715.17	11387.56
715.364	11891.36
715.559	12118.68
715.754	11125.42
715.948	11752.1
716.143	12282.52
716.337	11834.02
716.532	11727.52
716.726	11651.75
716.921	11909.79
717.115	12255.9
717.31	11549.35
717.504	12077.73
717.699	11944.61
717.893	12235.42
718.088	11375.27
718.282	11623.08
718.476	12053.15
718.671	11733.67
718.865	11465.38
719.059	11547.3
719.254	11834.02
719.448	12018.33
719.642	13077.13
719.837	11299.5
720.031	11922.08
720.225	12219.03
720.419	11485.86
720.614	11408.04
720.808	12034.72
721.002	11604.64
721.196	11518.63
721.39	11408.04
721.585	11924.13
721.779	11795.11
721.973	11633.32
722.167	11289.26
722.361	11762.34
722.555	12051.1
722.749	11397.8
722.943	11645.6
723.137	11414.18
723.331	11877.02
723.525	11446.95
723.719	11348.65
723.913	11963.04
724.107	12198.56
724.301	11436.71
724.495	11516.58
724.689	12382.87
724.883	12104.35
725.077	11561.64
725.271	11426.47
725.465	12077.73
725.659	11453.09
725.853	11545.25
726.046	11412.14
726.24	11672.23
726.434	11928.22
726.628	11721.38
726.822	11516.58
727.015	12309.15
727.209	11881.12
727.403	11504.29
727.596	11487.91
727.79	11977.37
727.984	12208.8
728.177	11739.81
728.371	11786.91
728.565	12102.3
728.758	11602.6
728.952	11266.73
729.146	11782.82
729.339	12323.48
729.533	11651.75
729.726	11719.33
729.92	11645.6
730.113	12245.66
730.307	12018.33
730.5	11702.95
730.694	11549.35
730.887	11862.69
731.081	11983.52
731.274	11602.6
731.468	11653.8
731.661	11772.58
731.854	11948.7
732.048	11651.75
732.241	11606.69
732.435	11854.5
732.628	11944.61
732.821	11661.99
733.014	11768.48
733.208	11610.79
733.401	12198.56
733.594	11713.19
733.788	11750.05
733.981	12352.15
734.174	11924.13
734.367	11524.77
734.56	11975.33
734.754	12358.3
734.947	12071.58
735.14	11713.19
735.333	11872.93
735.526	12190.36
735.719	11879.07
735.912	11813.54
736.105	11633.32
736.298	12063.39
736.491	11825.82
736.684	11678.37
736.877	11692.71
737.07	12362.39
737.263	12303
737.456	11791.01
737.649	11539.11
737.842	11926.18
738.035	12083.87
738.228	11588.26
738.421	11829.92
738.614	12360.34
738.807	12419.74
739	11627.17
739.192	11723.43
739.385	12032.67
739.578	12040.86
739.771	12047.01
739.964	11612.84
740.156	12225.18
740.349	11977.37
740.542	12047.01
740.735	11569.83
740.927	11702.95
741.12	11651.75
741.313	11698.85
741.505	11965.09
741.698	12057.25
741.891	12190.36
742.083	11807.39
742.276	12006.05
742.468	12155.55
742.661	12135.07
742.854	11874.98
743.046	11913.89
743.239	12421.78
743.431	12128.92
743.624	12038.81
743.816	11704.99
744.009	12034.72
744.201	12145.31
744.393	12151.45
744.586	11887.26
744.778	12450.46
744.971	11956.89
745.163	11811.49
745.355	11883.17
745.548	12137.12
745.74	12090.01
745.932	11893.41
746.125	11770.53
746.317	12532.37
746.509	12161.69
746.702	11917.98
746.894	11838.11
747.086	12157.6
747.278	12468.89
747.471	12020.38
747.663	11971.23
747.855	12253.85
748.047	12462.74
748.239	11702.95
748.431	11926.18
748.623	12696.21
748.815	12249.75
749.008	11778.72
749.2	11702.95
749.392	12122.78
749.584	12104.35
749.776	11860.64
749.968	11967.13
750.16	12485.27
750.352	11907.74
750.544	11889.31
750.736	11666.08
750.928	12214.94
751.12	12059.29
751.311	11635.36
751.503	11879.07
751.695	12272.28
751.887	12118.68
752.079	11735.71
752.271	11887.26
752.463	12896.91
752.654	12296.86
752.846	11799.2
753.038	11954.85
753.23	11805.35
753.421	12206.75
753.613	11633.32
753.805	11993.76
753.997	12090.01
754.188	12436.12
754.38	11739.81
754.572	11750.05
754.763	12141.21
754.955	12202.65
755.146	11854.5
755.338	11907.74
755.53	12133.02
755.721	11903.65
755.913	11526.82
756.104	11715.23
756.296	12055.2
756.487	12128.92
756.679	11602.6
756.87	11469.48
757.062	11698.85
757.253	12151.45
757.445	11725.47
757.636	11432.61
757.827	12098.2
758.019	12620.44
758.21	11354.79
758.401	11682.47
758.593	12243.61
758.784	12159.64
758.975	11559.59
759.167	11313.83
759.358	12038.81
759.549	12178.08
759.74	11526.82
759.932	11596.45
760.123	12104.35
760.314	11627.17
760.505	11653.8
760.696	11629.22
760.888	12139.16
761.079	11657.89
761.27	11635.36
761.461	11371.18
761.652	12167.84
761.843	11748
762.034	11741.86
762.225	12038.81
762.416	11641.51
762.607	11807.39
762.798	11510.44
762.989	11481.77
763.18	12653.2
763.371	11553.45
763.562	11631.27
763.753	11707.04
763.944	12075.68
764.135	11891.36
764.326	11748
764.517	11580.07
764.708	11874.98
764.899	11901.6
765.089	11287.21
765.28	11584.16
765.471	11666.08
765.662	11743.91
765.853	11453.09
766.043	10955.44
766.234	11817.63
766.425	11840.16
766.615	11371.18
766.806	11256.49
766.997	11879.07
767.187	11655.84
767.378	11256.49
767.569	11260.59
767.759	11758.24
767.95	11827.87
768.141	11524.77
768.331	11377.32
768.522	11483.81
768.712	11846.3
768.903	11266.73
769.093	11309.74
769.284	11891.36
769.474	11524.77
769.665	11086.51
769.855	11211.43
770.046	11891.36
770.236	11256.49
770.426	11305.64
770.617	11111.08
770.807	11692.71
770.998	11475.62
771.188	11297.45
771.378	11295.4
771.569	11741.86
771.759	11608.74
771.949	10891.95
772.139	11035.31
772.33	11233.96
772.52	11862.69
772.71	11004.59
772.9	10916.53
773.09	12055.2
773.281	11799.2
773.471	10998.45
773.661	11158.19
773.851	11592.36
774.041	11133.61
774.231	11090.6
774.421	11281.07
774.611	11817.63
774.802	11418.28
774.992	10994.35
775.182	10980.01
775.372	11242.15
775.562	11635.36
775.752	11025.07
775.942	10975.92
776.131	11727.52
776.321	11418.28
776.511	11047.6
776.701	10910.38
776.891	11426.47
777.081	11301.54
777.271	11027.12
777.461	10848.94
777.651	11446.95
777.84	11477.67
778.03	11035.31
778.22	10832.56
778.41	11641.51
778.599	10916.53
778.789	10949.29
778.979	10973.87
779.169	11371.18
779.358	11446.95
779.548	11190.95
779.738	10754.74
779.927	11139.76
780.117	11088.56
780.307	10758.83
780.496	10554.04
780.686	11293.35
780.875	11426.47
781.065	10945.2
781.254	10703.54
781.444	10914.48
781.633	11053.74
781.823	10709.68
782.012	10994.35
782.202	10877.62
782.391	10937.01
782.581	10902.19
782.77	10748.59
782.96	11305.64
783.149	10953.39
783.338	10609.33
783.528	10443.45
783.717	11223.72
783.906	11528.87
784.096	10805.94
784.285	10541.75
784.474	10840.75
784.663	10715.83
784.853	10691.25
785.042	10783.41
785.231	10703.54
785.42	11410.09
785.61	10887.86
785.799	10429.11
785.988	11014.83
786.177	10760.88
786.366	10783.41
786.555	10781.36
786.744	11002.54
786.933	10742.45
787.122	10633.91
787.312	10824.37
787.501	10492.6
787.69	11029.17
787.879	10642.1
788.068	10560.18
788.257	10560.18
788.445	10574.52
788.634	10660.53
788.823	10631.86
789.012	11565.73
789.201	11238.06
789.39	10408.63
789.579	10306.23
789.768	10730.16
789.957	10891.95
790.145	10586.8
790.334	10257.08
790.523	10638
790.712	10767.03
790.9	10566.32
791.089	10298.04
791.278	11059.88
791.467	10984.11
791.655	10740.4
791.844	10943.15
792.033	10486.45
792.221	10570.42
792.41	10664.63
792.599	10212.03
792.787	10805.94
792.976	11023.02
793.164	10285.75
793.353	10226.36
793.541	11018.93
793.73	10867.38
793.918	10367.67
794.107	10390.2
794.295	10625.72
794.484	10574.52
794.672	10371.77
794.861	10388.15
795.049	10900.14
795.238	10793.65
795.426	10117.82
795.614	10369.72
795.803	10609.33
795.991	10748.59
796.179	10425.01
796.368	10269.37
796.556	10951.34
796.744	10250.94
796.932	10177.21
797.121	10386.1
797.309	10470.07
797.497	10916.53
797.685	10281.66
797.874	10166.97
798.062	10568.37
798.25	11088.56
798.438	10277.56
798.626	10330.81
798.814	10910.38
799.002	11004.59
799.19	10564.28
799.378	10384.05
799.566	11059.88
799.755	10879.66
799.943	10486.45
800.131	10527.41
800.318	10672.82
800.506	10877.62
800.694	10355.38
800.882	10418.87
801.07	10699.44
801.258	10488.5
801.446	10523.32
801.634	10271.42
801.822	10664.63
802.01	10752.69
802.197	10332.86
802.385	10629.81
802.573	10683.06
802.761	10558.13
802.949	10541.75
803.136	10298.04
803.324	10855.09
803.512	10558.13
803.699	10478.26
803.887	10158.78
804.075	11301.54
804.262	10472.12
804.45	10474.17
804.638	10463.93
804.825	10433.21
805.013	10584.76
805.201	10566.32
805.388	10392.25
805.576	10863.28
805.763	11264.68
805.951	10549.94
806.138	10779.31
806.326	11348.65
806.513	10904.24
806.701	10756.79
806.888	10664.63
807.075	11123.37
807.263	11397.8
807.45	10689.2
807.638	10877.62
807.825	11559.59
808.012	11186.86
808.2	10586.8
808.387	11223.72
808.574	11141.8
808.761	11401.9
808.949	10674.87
809.136	10832.56
809.323	10828.46
809.51	10838.7
809.698	11008.69
809.885	11004.59
810.072	10963.63
810.259	11317.93
810.446	11002.54
810.633	10896.05
810.82	11317.93
811.008	11244.2
811.195	11057.84
811.382	10834.61
811.569	10881.71
811.756	10977.97
811.943	11113.13
812.13	10842.8
812.317	10992.3
812.504	11197.1
812.691	11055.79
812.878	11156.14
813.064	11555.49
813.251	11276.97
813.438	10863.28
813.625	11152.04
813.812	11299.5
813.999	11156.14
814.186	11035.31
814.372	10969.77
814.559	11520.68
814.746	11332.26
814.933	10834.61
815.12	11160.24
815.306	10871.47
815.493	10928.81
815.68	11113.13
815.866	10916.53
816.053	11651.75
816.24	11778.72
816.426	11063.98
816.613	10834.61
816.799	11381.42
816.986	11567.78
817.173	10945.2
817.359	10941.1
817.546	11141.8
817.732	10676.91
817.919	10646.19
818.105	11080.36
818.292	11016.88
818.478	11432.61
818.665	11231.91
818.851	10900.14
819.037	11793.06
819.224	11164.33
819.41	10740.4
819.597	10660.53
819.783	11694.75
819.969	11285.16
820.156	10980.01
820.342	10644.15
820.528	11834.02
820.714	11035.31
820.901	10908.33
821.087	11023.02
821.273	11565.73
821.459	11160.24
821.646	10885.81
821.832	10805.94
822.018	11139.76
822.204	11117.23
822.39	11096.75
822.576	10566.32
822.762	11186.86
822.948	11109.04
823.134	11123.37
823.32	10754.74
823.507	10875.57
823.693	10824.37
823.879	11117.23
824.065	10719.92
824.25	11086.51
824.436	10807.98
824.622	10717.87
824.808	10904.24
824.994	10812.08
825.18	10900.14
825.366	10676.91
825.552	10695.35
825.738	11002.54
825.923	11238.06
826.109	10902.19
826.295	10773.17
826.481	10842.8
826.667	10853.04
826.852	10588.85
827.038	10736.31
827.224	11559.59
827.409	11182.76
827.595	10562.23
827.781	10881.71
827.966	11113.13
828.152	11051.69
828.338	10670.77
828.523	10537.65
828.709	10592.95
828.894	10912.43
829.08	10554.04
829.266	10521.27
829.451	10764.98
829.637	10953.39
829.822	10691.25
830.008	10658.48
830.193	11068.08
830.378	11014.83
830.564	10318.52
830.749	10396.34
830.935	10807.98
831.12	10760.88
831.305	10611.38
831.491	10721.97
831.676	10541.75
831.861	10744.5
832.047	10418.87
832.232	10435.25
832.417	10914.48
832.602	10721.97
832.788	10353.34
832.973	10357.43
833.158	10674.87
833.343	10580.66
833.528	10574.52
833.714	10478.26
833.899	10627.76
834.084	11109.04
834.269	10668.72
834.454	10361.53
834.639	10652.34
834.824	10836.66
835.009	10490.55
835.194	10472.12
835.379	10742.45
835.564	11104.94
835.749	10570.42
835.934	10279.61
836.119	10920.62
836.304	10543.8
836.489	10396.34
836.674	10535.6
836.859	10179.26
837.044	10807.98
837.228	10271.42
837.413	10142.39
837.598	10654.39
837.783	10691.25
837.968	10332.86
838.152	10078.91
838.337	10255.03
838.522	10797.74
838.707	10619.57
838.891	10406.58
839.076	10674.87
839.261	10756.79
839.445	9996.99
839.63	10212.03
839.815	10777.26
839.999	10193.59
840.184	9941.69
840.368	9880.25
840.553	10455.73
840.737	10390.2
840.922	9929.41
841.106	9968.32
841.291	10199.74
841.475	10429.11
841.66	10183.35
841.844	9859.77
842.029	11014.83
842.213	10060.48
842.397	9867.97
842.582	9734.85
842.766	10355.38
842.951	10408.63
843.135	9994.94
843.319	9970.37
843.504	10267.32
843.688	10521.27
843.872	9710.27
844.056	9857.73
844.241	10314.42
844.425	10152.63
844.609	9990.84
844.793	9755.33
844.977	10351.29
845.161	10166.97
845.346	9599.68
845.53	9839.3
845.714	10023.61
845.898	10484.41
846.082	9499.33
846.266	9921.21
846.45	10181.31
846.634	10142.39
846.818	9777.86
847.002	9894.59
847.186	10379.96
847.37	9896.64
847.554	9507.52
847.738	9857.73
847.922	9958.08
848.106	9982.65
848.29	9720.51
848.473	9630.4
848.657	10060.48
848.841	9900.73
849.025	9757.38
849.209	9366.21
849.392	9917.12
849.576	10105.53
849.76	9222.86
849.944	9663.17
850.127	10209.98
850.311	9464.52
850.495	9437.89
850.678	9323.21
850.862	10232.51
851.046	10228.41
851.229	9616.07
851.413	9474.76
851.596	9634.5
851.78	9888.45
851.964	9765.57
852.147	9499.33
852.331	10570.42
852.514	9982.65
852.698	9566.92
852.881	9136.84
853.065	9962.17
853.248	9577.16
853.431	9519.81
853.615	9415.37
853.798	10402.49
853.982	9927.36
854.165	9599.68
854.348	9337.54
854.532	9425.61
854.715	9462.47
854.898	9405.13
855.081	9310.92
855.265	9861.82
855.448	10136.25
855.631	9274.06
855.814	9360.07
855.997	10040
856.181	9343.69
856.364	9499.33
856.547	9208.52
856.73	9616.07
856.913	9663.17
857.096	9368.26
857.279	9237.19
857.462	9499.33
857.645	9988.8
857.828	9407.17
858.011	9300.68
858.194	9263.82
858.377	9640.64
858.56	8993.48
858.743	9161.42
858.926	8981.2
859.109	9646.79
859.292	8962.76
859.475	8913.61
859.658	9673.41
859.841	9370.31
860.023	9071.31
860.206	8684.24
860.389	9302.73
860.572	9659.07
860.755	8876.75
860.937	9255.62
861.12	9292.49
861.303	9439.94
861.486	9167.56
861.668	8893.13
861.851	9374.41
862.034	9091.79
862.216	9097.93
862.399	8630.99
862.581	9104.07
862.764	9439.94
862.947	9034.44
863.129	8798.93
863.312	9020.11
863.494	9405.13
863.677	9153.23
863.859	8514.26
864.042	9286.34
864.224	9548.48
864.406	8817.36
864.589	8565.46
864.771	9138.89
864.954	8725.2
865.136	8526.55
865.318	8602.32
865.501	8968.91
865.683	8491.73
865.865	8581.84
866.048	8508.12
866.23	9052.88
866.412	8858.32
866.594	8385.24
866.777	8893.13
866.959	8979.15
867.141	8684.24
867.323	8839.89
867.505	8782.54
867.687	8858.32
867.869	8897.23
868.052	8501.97
868.234	8516.31
868.416	8831.69
868.598	9071.31
868.78	8538.84
868.962	8366.81
869.144	9044.68
869.326	8987.34
869.508	8598.23
869.69	8340.18
869.872	8823.5
870.054	9056.97
870.236	8489.68
870.417	8434.39
870.599	8708.82
870.781	9003.72
870.963	8641.23
871.145	8542.93
871.327	8567.51
871.508	8901.33
871.69	8504.02
871.872	8626.9
872.054	8911.57
872.235	8876.75
872.417	8682.19
872.599	8166.1
872.78	9278.15
872.962	8979.15
873.144	8334.04
873.325	8522.45
873.507	9134.79
873.689	9005.77
873.87	8489.68
874.052	8684.24
874.233	8927.95
874.415	9083.59
874.596	8729.3
874.778	8241.88
874.959	8823.5
875.141	8946.38
875.322	8594.13
875.503	8489.68
875.685	9046.73
875.866	8311.51
876.048	8315.61
876.229	8567.51
876.41	8915.66
876.592	8833.74
876.773	8536.79
876.954	8471.25
877.136	9147.08
877.317	8811.21
877.498	8585.94
877.679	8762.06
877.86	8999.63
878.042	9020.11
878.223	8463.06
878.404	8860.37
878.585	9112.27
878.766	9417.41
878.947	8872.65
879.128	8755.92
879.309	9132.75
879.49	9071.31
879.672	8737.49
879.853	8729.3
880.034	8893.13
880.215	8930
880.396	8940.24
880.576	8739.54
880.757	8970.96
880.938	9456.33
881.119	8915.66
881.3	8889.04
881.481	9042.64
881.662	10076.86
881.843	8684.24
882.023	8825.55
882.204	9140.94
882.385	9253.58
882.566	8786.64
882.747	8712.91
882.927	9171.66
883.108	9382.6
883.289	8741.58
883.469	9196.23
883.65	9097.93
883.831	9204.42
884.011	9192.14
884.192	9034.44
884.373	9446.09
884.553	9183.95
884.734	9194.19
884.914	9530.05
885.095	10175.16
885.275	9728.7
885.456	9239.24
885.636	8872.65
885.817	9358.02
885.997	9398.98
886.178	8968.91
886.358	9005.77
886.538	9407.17
886.719	10240.7
886.899	9026.25
887.08	9308.87
887.26	9878.21
887.44	9282.25
887.621	9093.83
887.801	9237.19
887.981	9966.27
888.161	9681.6
888.342	9220.81
888.522	9474.76
888.702	9861.82
888.882	9833.15
889.062	9249.48
889.242	9054.92
889.423	9855.68
889.603	9884.35
889.783	9388.74
889.963	9282.25
890.143	9939.65
890.323	9855.68
890.503	9538.24
890.683	9294.54
890.863	9536.2
891.043	9614.02
891.223	9464.52
891.403	9636.55
891.583	9794.24
891.763	9769.66
891.943	9177.8
892.122	9597.63
892.302	9763.52
892.482	9808.58
892.662	9497.28
892.842	9253.58
893.022	9941.69
893.201	9636.55
893.381	9591.49
893.561	9415.37
893.741	9896.64
893.92	9747.14
894.1	9579.2
894.28	9759.42
894.459	9802.43
894.639	9816.77
894.819	9188.04
894.998	9487.04
895.178	9867.97
895.357	9743.04
895.537	9478.85
895.716	9290.44
895.896	9888.45
896.075	10197.69
896.255	9427.65
896.434	9126.6
896.614	10058.43
896.793	9999.04
896.973	9657.03
897.152	9417.41
897.331	9843.39
897.511	10017.47
897.69	9075.4
897.87	9663.17
898.049	9798.34
898.228	9839.3
898.407	9558.72
898.587	9540.29
898.766	9437.89
898.945	9845.44
899.124	9730.75
899.304	9374.41
899.483	9697.99
899.662	10042.04
899.841	9372.36
900.02	9335.49
900.199	10037.95
900.378	9347.78
900.557	9173.71
900.737	9312.97
900.916	9681.6
901.095	9986.75
901.274	9587.4
901.453	9267.91
901.632	9319.11
901.811	9202.38
901.989	9257.67
902.168	9185.99
902.347	9827.01
902.526	9315.02
902.705	9374.41
902.884	9302.73
903.063	9880.25
903.242	9777.86
903.42	9165.51
903.599	9464.52
903.778	9790.14
903.957	9880.25
904.135	9339.59
904.314	9347.78
904.493	9499.33
904.672	9550.53
904.85	9192.14
905.029	9210.57
905.207	9513.67
905.386	10068.67
905.565	8956.62
905.743	9112.27
905.922	9218.76
906.1	9491.14
906.279	8786.64
906.457	8899.28
906.636	9349.83
906.814	9245.38
906.993	9183.95
907.171	8983.24
907.35	9489.09
907.528	9499.33
907.707	9259.72
907.885	8856.27
908.063	9685.7
908.242	9013.96
908.42	8975.05
908.598	8735.44
908.777	9099.98
908.955	9009.87
909.133	8860.37
909.311	8817.36
909.49	9157.32
909.668	9063.12
909.846	8708.82
910.024	8370.9
910.202	9329.35
910.38	8909.52
910.559	8329.94
910.737	8526.55
910.915	9151.18
911.093	9083.59
911.271	8749.78
911.449	8755.92
911.627	9149.13
911.805	9265.86
911.983	8465.11
912.161	8506.07
912.339	8833.74
912.517	9362.12
912.695	8635.09
912.872	8461.01
913.05	8710.86
913.228	8930
913.406	8489.68
913.584	8307.41
913.762	8823.5
913.939	8434.39
914.117	8471.25
914.295	8184.54
914.473	8741.58
914.65	8800.98
914.828	8309.46
915.006	8379.09
915.184	8432.34
915.361	8565.46
915.539	8522.45
915.716	8370.9
915.894	8665.81
916.072	8749.78
916.249	8479.44
916.427	8276.7
916.604	8215.26
916.782	8651.47
916.959	7910.11
917.137	8008.41
917.314	8356.57
917.492	8456.92
917.669	8028.89
917.847	8084.19
918.024	8346.33
918.201	8092.38
918.379	8157.91
918.556	7987.93
918.733	8372.95
918.911	8020.7
919.088	8055.51
919.265	8055.51
919.442	8336.09
919.62	8061.66
919.797	7772.89
919.974	7639.78
920.151	7776.99
920.328	7946.97
920.506	7695.07
920.683	8075.99
920.86	7815.9
921.037	7680.74
921.214	7695.07
921.391	7719.65
921.568	7965.4
921.745	7611.11
921.922	7656.16
922.099	7482.08
922.276	8073.95
922.453	7848.67
922.63	7334.63
922.807	7922.4
922.984	7736.03
923.161	7537.38
923.338	7400.16
923.514	7252.71
923.691	7762.65
923.868	7740.13
924.045	7287.53
924.222	7215.85
924.399	7502.56
924.575	7774.94
924.752	7387.88
924.929	7473.89
925.105	7774.94
925.282	7226.09
925.459	7082.73
925.635	7056.11
925.812	7265
925.989	7054.06
926.165	7119.59
926.342	6796.01
926.518	7064.3
926.695	7324.39
926.871	6789.87
927.048	6750.96
927.224	7131.88
927.401	7068.39
927.577	6933.23
927.754	6714.09
927.93	7207.66
928.107	7281.38
928.283	6705.9
928.459	6884.08
928.636	6970.09
928.812	6771.44
928.988	6501.11
929.165	6267.64
929.341	6757.1
929.517	6918.89
929.693	6892.27
929.87	6259.45
930.046	6759.15
930.222	6505.2
930.398	6316.79
930.574	6566.64
930.751	6626.03
930.927	6566.64
931.103	6468.34
931.279	6140.66
931.455	6177.53
931.631	6470.39
931.807	6130.42
931.983	5860.09
932.159	6003.45
932.335	6243.06
932.511	6013.69
932.687	6060.79
932.863	6300.41
933.039	6087.42
933.215	5686.01
933.391	5837.56
933.566	6095.61
933.742	6148.86
933.918	5733.12
934.094	5542.66
934.27	5964.54
934.445	5829.37
934.621	5663.49
934.797	5249.8
934.973	5851.9
935.148	5825.28
935.324	5296.9
935.5	4907.79
935.675	5698.3
935.851	5567.23
936.027	5161.73
936.202	5303.04
936.378	5331.72
936.553	5217.03
936.729	5241.61
936.904	4647.69
937.08	4760.33
937.255	4805.39
937.431	4518.67
937.606	4350.74
937.782	4520.72
937.957	4616.97
938.133	4483.86
938.308	4324.12
938.483	4444.95
938.659	4174.61
938.834	4170.52
939.009	3859.23
939.185	4264.72
939.36	3982.1
939.535	3562.27
939.71	3902.23
939.886	4203.29
940.061	4135.7
940.236	3912.47
940.411	3754.78
940.586	3808.03
940.761	3908.38
940.937	3461.92
941.112	3490.59
941.287	3740.44
941.462	3654.43
941.637	3320.61
941.812	3345.19
941.987	3586.85
942.162	3636
942.337	3425.06
942.512	3248.93
942.687	3728.16
942.862	3574.56
943.037	3050.28
943.212	3031.85
943.386	3287.84
943.561	3418.91
943.736	3318.56
943.911	3431.2
944.086	3375.91
944.26	3388.19
944.435	3025.7
944.61	3293.99
944.785	3484.45
944.959	3826.46
945.134	3011.37
945.309	2997.03
945.483	3124.01
945.658	3552.03
945.833	2675.5
946.007	2902.83
946.182	3699.48
946.357	2980.65
946.531	2986.79
946.706	2941.74
946.88	2843.43
947.055	3320.61
947.229	2935.59
947.404	2970.41
947.578	3468.06
947.752	3279.65
947.927	2872.11
948.101	2861.87
948.276	3068.71
948.45	3304.23
948.624	3091.24
948.799	2949.93
948.973	3273.51
949.147	2878.25
949.321	3121.96
949.496	2933.54
949.67	3509.02
949.844	3150.63
950.018	2892.59
950.193	2986.79
950.367	3664.67
950.541	3044.13
950.715	3083.05
950.889	3064.61
951.063	3183.4
951.237	3328.8
951.411	2569.01
951.585	2722.6
951.759	3185.44
951.933	3230.5
952.107	2943.78
952.281	3081
952.455	3621.66
952.629	3605.28
952.803	2921.26
952.977	3056.42
953.151	3435.3
953.325	3361.57
953.499	3181.35
953.672	2835.24
953.846	3085.09
954.02	3015.46
954.194	2898.73
954.368	2845.48
954.541	3330.85
954.715	3031.85
954.889	3011.37
955.062	2947.88
955.236	3124.01
955.41	3009.32
955.583	3142.44
955.757	2769.71
955.93	3050.28
956.104	2853.67
956.278	2900.78
956.451	3042.09
956.625	3230.5
956.798	3654.43
956.972	3398.43
957.145	2890.54
957.319	3156.77
957.492	3048.23
957.665	3117.86
957.839	2884.39
958.012	3222.31
958.185	3029.8
958.359	2999.08
958.532	3081
958.705	3306.27
958.879	3181.35
959.052	2915.11
959.225	2679.6
959.398	2990.89
959.572	3197.73
959.745	2861.87
959.918	2984.74
960.091	3078.95
960.264	3183.4
960.438	2769.71
960.611	2874.15
960.784	3214.12
960.957	3046.18
961.13	3314.47
961.303	2802.47
961.476	3132.2
961.649	3238.69
961.822	2710.32
961.995	2884.39
962.168	3228.45
962.341	3109.67
962.514	2886.44
962.686	2829.1
962.859	3160.87
963.032	3156.77
963.205	2714.41
963.378	2583.34
963.551	3167.01
963.723	2984.74
963.896	2857.77
964.069	2933.54
964.242	2941.74
964.414	3263.27
964.587	2784.04
964.76	2810.67
964.932	3124.01
965.105	3011.37
965.278	2849.58
965.45	2689.84
965.623	3105.57
965.795	3171.11
965.968	2822.95
966.14	2663.21
966.313	2958.12
966.485	3076.9
966.658	2724.65
966.83	2652.97
967.003	3201.83
967.175	3126.05
967.348	2693.93
967.52	2716.46
967.692	3357.47
967.865	2997.03
968.037	2698.03
968.209	2863.91
968.382	2906.92
968.554	3171.11
968.726	2702.12
968.898	2650.92
969.071	2933.54
969.243	3021.61
969.415	2698.03
969.587	2798.38
969.759	3296.04
969.932	2970.41
970.104	2743.08
970.276	2392.88
970.448	2704.17
970.62	2802.47
970.792	2835.24
970.964	2759.47
971.136	3427.11
971.308	2929.45
971.48	2542.38
971.652	2628.4
971.824	3306.27
971.996	2820.91
972.168	2607.92
972.339	2581.29
972.511	3113.77
972.683	2732.84
972.855	2728.75
973.027	2630.45
973.199	2831.15
973.37	2939.69
973.542	2751.28
973.714	2730.8
973.886	2771.76
974.057	3019.56
974.229	2523.95
974.401	2540.33
974.572	2552.62
974.744	2298.67
974.915	2396.98
975.087	2491.18
975.259	3035.94
975.43	2642.73
975.602	2526
975.773	2439.98
975.945	2526
976.116	2917.16
976.288	2485.04
976.459	2646.83
976.63	2708.27
976.802	2761.52
976.973	2409.26
977.145	2577.2
977.316	3121.96
977.487	3101.48
977.659	2593.58
977.83	2433.84
978.001	2974.5
978.172	2749.23
978.344	2310.96
978.515	2407.22
978.686	2409.26
978.857	2974.5
979.028	2333.49
979.2	2237.24
979.371	2872.11
979.542	2593.58
979.713	2540.33
979.884	2089.78
980.055	2390.83
980.226	2663.21
980.397	2313.01
980.568	2186.04
980.739	2851.63
980.91	2315.06
981.081	2503.47
981.252	2417.46
981.423	2661.16
981.594	2861.87
981.765	2198.32
981.936	2384.69
982.106	2528.05
982.277	2798.38
982.448	2218.8
982.619	2429.74
982.79	2435.89
982.96	2802.47
983.131	2470.7
983.302	1981.24
983.472	2368.31
983.643	2519.85
983.814	2433.84
983.984	2333.49
984.155	2435.89
984.326	2714.41
984.496	2423.6
984.667	2155.32
984.837	2390.83
985.008	2833.19
985.178	2335.54
985.349	2270
985.519	2290.48
985.69	2286.39
985.86	2161.46
986.031	2065.21
986.201	2493.23
986.371	2442.03
986.542	2063.16
986.712	1950.52
986.882	2493.23
987.053	2515.76
987.223	2122.55
987.393	2259.76
987.563	2267.95
987.734	2480.94
987.904	2497.33
988.074	2067.25
988.244	2329.39
988.414	2237.24
988.585	1995.57
988.755	2284.34
988.925	2300.72
989.095	2708.27
989.265	2075.45
989.435	2186.04
989.605	2489.14
989.775	2421.55
989.945	2298.67
990.115	1864.5
990.285	2315.06
990.455	2368.31
990.625	2112.31
990.795	1913.66
990.965	2601.77
991.134	2132.79
991.304	1985.34
991.474	2024.25
991.644	2325.3
991.814	2622.25
991.984	1880.89
992.153	1901.37
992.323	2143.03
992.493	2239.28
992.662	1715
992.832	2040.63
993.002	2229.04
993.171	2237.24
993.341	1790.78
993.511	1968.95
993.68	1977.14
993.85	2317.11
994.019	1657.66
994.189	1758.01
994.358	2155.32
994.528	2030.39
994.697	1723.2
994.867	1811.26
995.036	2331.44
995.206	2044.73
995.375	1794.87
995.544	1979.19
995.714	2132.79
995.883	2040.63
996.052	2038.58
996.222	1540.93
996.391	2536.24
996.56	2159.41
996.73	1852.22
996.899	1696.57
997.068	2476.85
997.237	1991.48
997.406	1764.15
997.576	1469.25
997.745	2192.18
997.914	2106.17
998.083	1682.24
998.252	1704.76
998.421	2044.73
998.59	1852.22
998.759	1524.54
998.928	1375.04
999.097	2380.59
999.266	2102.07
999.435	1712.96
999.604	1446.72
999.773	2511.66
999.942	1837.88
1000.111	1487.68
1000.28	1430.34
1000.448	1698.62
1000.617	1721.15
1000.786	1852.22
1000.955	1463.1
1001.124	1893.18
1001.292	2634.54
1001.461	1682.24
1001.63	1508.16
1001.798	2349.87
1001.967	2157.36
1002.136	1520.45
1002.304	1532.73
1002.473	1909.56
1002.642	1932.09
1002.81	1561.41
1002.979	1520.45
1003.147	1934.14
1003.316	2368.31
1003.484	1594.17
1003.653	1377.09
1003.821	2138.93
1003.99	1698.62
1004.158	1585.98
1004.327	1475.39
1004.495	1909.56
1004.663	1655.61
1004.832	1653.56
1005	1393.47
1005.168	2040.63
1005.337	1852.22
1005.505	1270.59
1005.673	1655.61
1005.842	1887.03
1006.01	1841.98
1006.178	1381.18
1006.346	1385.28
1006.514	1872.7
1006.683	2001.72
1006.851	1372.99
1007.019	1405.76
1007.187	1559.36
1007.355	1282.88
1007.523	1119.04
1007.691	1209.15
1007.859	1446.72
1008.027	2102.07
1008.195	1305.41
1008.363	1241.92
1008.531	1864.5
1008.699	1549.12
1008.867	1086.28
1009.035	1196.87
1009.203	2052.92
1009.37	1704.76
1009.538	1215.3
1009.706	1723.2
1009.874	1725.24
1010.042	1649.47
1010.209	1213.25
1010.377	1182.53
1010.545	1731.39
1010.713	1606.46
1010.88	1276.74
1011.048	1192.77
1011.216	1643.32
1011.383	1923.9
1011.551	1219.39
1011.718	1137.48
1011.886	1780.54
1012.054	1542.97
1012.221	1180.48
1012.389	1117
1012.556	1370.94
1012.724	1946.42
1012.891	1311.55
1013.058	1045.32
1013.226	1585.98
1013.393	1633.08
1013.561	1076.04
1013.728	953.16
1013.895	1651.52
1014.063	1633.08
1014.23	1086.28
1014.397	1096.52
1014.565	1631.04
1014.732	1370.94
1014.899	1065.8
1015.066	1123.14
1015.233	1485.63
1015.401	1575.74
1015.568	1164.1
1015.735	1276.74
1015.902	1467.2
1016.069	1567.55
1016.236	1098.56
1016.403	983.88
1016.57	1198.92
1016.737	1610.56
1016.904	1033.03
1017.071	959.3
1017.238	1250.11
1017.405	1602.36
1017.572	1037.13
1017.739	1227.59
1017.906	1422.14
1018.073	1606.46
1018.24	975.69
1018.407	944.97
1018.573	1655.61
1018.74	1356.61
1018.907	973.64
1019.074	795.47
1019.241	1491.77
1019.407	1313.6
1019.574	922.44
1019.741	834.38
1019.907	1370.94
1020.074	1418.05
1020.241	721.74
1020.407	877.38
1020.574	1446.72
1020.74	1452.86
1020.907	959.3
1021.073	774.99
1021.24	1792.83
1021.406	1559.36
1021.573	834.38
1021.739	932.68
1021.906	1467.2
1022.072	1323.84
1022.239	891.72
1022.405	891.72
1022.571	1346.37
1022.738	1092.42
1022.904	858.95
1023.07	940.87
1023.237	1295.17
1023.403	1397.57
1023.569	912.2
1023.735	901.96
1023.902	1319.75
1024.068	1241.92
1024.234	803.66
1024.4	901.96
1024.566	1252.16
1024.732	1409.86
1024.898	760.65
1025.065	658.25
1025.231	1346.37
1025.397	1055.56
1025.563	774.99
1025.729	701.26
1025.895	725.83
1026.061	1006.41
1026.227	684.87
1026.392	844.62
1026.558	1446.72
1026.724	1252.16
1026.89	686.92
1027.056	840.52
1027.222	1282.88
1027.388	959.3
1027.553	648.01
1027.719	623.44
1027.885	1563.45
1028.051	1237.83
1028.216	492.37
1028.382	781.13
1028.548	1276.74
1028.713	987.97
1028.879	598.86
1029.045	969.54
1029.21	1327.94
1029.376	1278.79
1029.541	842.57
1029.707	623.44
1029.873	1256.26
1030.038	1260.35
1030.204	672.59
1030.369	791.37
1030.534	1274.69
1030.7	949.06
1030.865	709.45
1031.031	562
1031.196	1004.36
1031.361	1073.99
1031.527	627.53
1031.692	523.09
1031.857	627.53
1032.023	1174.34
1032.188	578.38
1032.353	705.35
1032.518	1338.18
1032.684	1088.32
1032.849	406.35
1033.014	691.02
1033.179	1186.63
1033.344	1106.76
1033.509	658.25
1033.674	680.78
1033.839	1131.33
1034.004	1180.48
1034.17	611.15
1034.335	492.37
1034.5	877.38
1034.664	711.5
1034.829	541.52
1034.994	629.58
1035.159	955.21
1035.324	1022.79
1035.489	627.53
1035.654	537.42
1035.819	1264.45
1035.984	938.82
1036.148	508.75
1036.313	592.72
1036.478	1176.39
1036.643	805.71
1036.807	459.6
1036.972	420.69
1037.137	1196.87
1037.301	963.4
1037.466	396.11
1037.631	680.78
1037.795	1094.47
1037.96	926.54
1038.124	650.06
1038.289	402.26
1038.454	1020.74
1038.618	1026.89
1038.783	510.8
1038.947	633.68
1039.111	992.07
1039.276	684.87
1039.44	418.64
1039.605	1024.84
1039.769	715.59
1039.933	850.76
1040.098	553.8
1040.262	787.27
1040.426	1098.56
1040.591	957.25
1040.755	412.5
1040.919	512.85
1041.083	1008.45
1041.248	832.33
1041.412	267.09
1041.576	316.24
1041.74	764.75
1041.904	1030.98
1042.068	355.15
1042.232	545.61
1042.397	1012.55
1042.561	885.58
1042.725	217.94
1042.889	582.48
1043.053	961.35
1043.217	873.29
1043.381	426.83
1043.544	238.42
1043.708	1012.55
1043.872	521.04
1044.036	185.17
1044.2	275.28
1044.364	1157.96
1044.528	1192.77
1044.691	3158.82
1044.855	287.57
1045.019	947.01
1045.183	979.78
1045.346	467.79
1045.51	285.52
1045.674	813.9
1045.837	918.34
1046.001	389.97
1046.165	310.1
1046.328	1344.32
1046.492	854.86
1046.655	551.76
1046.819	369.49
1046.983	527.18
1047.146	885.58
1047.31	402.26
1047.473	203.6
1047.636	672.59
1047.8	588.62
1047.963	377.68
1048.127	236.37
1048.29	588.62
