Data from Ink_Intensity_USB4F045381__64__00064.txt Node

Date: Mon Jul 17 10:33:23 EDT 2023
User: mmckonesweet
Spectrometer: USB4F04538
Trigger mode: 4
Integration Time (sec): 9.000000E-1
Scans to average: 1
Electric dark correction enabled: true
Nonlinearity correction enabled: false
Boxcar width: 0
XAxis mode: Wavelengths
Number of Pixels in Spectrum: 3648
>>>>>Begin Spectral Data<<<<<
345.52	-1010.16
345.736	-1010.16
345.952	-1010.16
346.168	-987.63
346.384	-958.96
346.6	-35.33
346.816	-307.71
347.032	-168.45
347.248	316.92
347.464	-252.41
347.68	-109.05
347.896	60.93
348.112	404.99
348.328	-66.05
348.544	-147.97
348.76	38.4
348.975	265.72
349.191	-291.32
349.407	-242.17
349.623	-59.9
349.839	-96.77
350.055	-113.15
350.27	44.54
350.486	122.37
350.702	429.56
350.918	187.9
351.133	-213.5
351.349	146.94
351.565	378.36
351.781	-270.84
351.996	-80.38
352.212	339.45
352.428	-115.2
352.644	-287.23
352.859	-252.41
353.075	280.06
353.291	95.74
353.506	-156.16
353.722	-254.46
353.938	-61.95
354.153	458.23
354.369	67.07
354.584	-303.61
354.8	263.68
355.016	-285.18
355.231	-244.22
355.447	-68.09
355.662	108.03
355.878	824.82
356.093	-397.82
356.309	-49.66
356.524	-197.12
356.74	226.81
356.955	-270.84
357.171	-39.42
357.386	224.76
357.602	-266.75
357.817	-129.53
358.033	-217.6
358.248	343.55
358.464	99.84
358.679	-190.97
358.895	-346.62
359.11	-96.77
359.325	294.4
359.541	159.23
359.756	-51.71
359.972	-393.72
360.187	185.85
360.402	-201.21
360.618	-133.63
360.833	947.7
361.048	77.31
361.264	-170.49
361.479	-129.53
361.694	-23.04
361.909	208.38
362.125	-184.83
362.34	-123.39
362.555	230.91
362.77	56.83
362.986	-281.08
363.201	-168.45
363.416	171.52
363.631	73.21
363.847	-164.35
364.062	-123.39
364.277	202.24
364.492	114.17
364.707	-233.98
364.922	-352.76
365.138	210.43
365.353	323.07
365.568	-268.8
365.783	-164.35
365.998	77.31
366.213	548.34
366.428	-301.56
366.643	36.35
366.858	196.09
367.073	132.61
367.288	-147.97
367.503	-289.28
367.718	93.69
367.933	298.49
368.148	-311.8
368.363	-102.91
368.578	-76.29
368.793	392.7
369.008	-141.82
369.223	-262.65
369.438	142.85
369.653	404.99
369.868	-262.65
370.083	-233.98
370.298	116.22
370.513	335.35
370.728	85.5
370.943	-213.5
371.157	-195.07
371.372	620.02
371.587	-293.37
371.802	-195.07
372.017	30.21
372.232	450.04
372.446	-51.71
372.661	-268.8
372.876	200.19
373.091	62.98
373.306	-100.86
373.52	-291.32
373.735	-225.79
373.95	341.5
374.165	-156.16
374.379	-135.68
374.594	-195.07
374.809	99.84
375.023	-8.7
375.238	-311.8
375.453	220.67
375.667	-274.94
375.882	-156.16
376.097	-164.35
376.311	-51.71
376.526	-109.05
376.741	-262.65
376.955	120.32
377.17	509.43
377.384	507.38
377.599	-98.81
377.813	-254.46
378.028	570.87
378.242	228.86
378.457	-147.97
378.672	-371.19
378.886	81.41
379.101	-68.09
379.315	-352.76
379.53	-135.68
379.744	87.55
379.958	212.48
380.173	-172.54
380.387	-195.07
380.602	144.89
380.816	-96.77
381.031	-127.49
381.245	-125.44
381.459	263.68
381.674	2594.26
381.888	-266.75
382.103	17.92
382.317	-178.69
382.531	396.79
382.746	-162.3
382.96	-156.16
383.174	-152.06
383.388	447.99
383.603	50.69
383.817	-270.84
384.031	230.91
384.246	447.99
384.46	-53.76
384.674	314.88
384.888	-20.99
385.103	-14.85
385.317	-340.47
385.531	-20.99
385.745	359.93
385.959	228.86
386.174	-213.5
386.388	-262.65
386.602	-49.66
386.816	-164.35
387.03	-125.44
387.244	-147.97
387.458	91.65
387.672	392.7
387.887	-270.84
388.101	-246.27
388.315	386.55
388.529	91.65
388.743	-121.34
388.957	-301.56
389.171	329.21
389.385	-158.21
389.599	-152.06
389.813	-6.66
390.027	183.81
390.241	640.5
390.455	-141.82
390.669	-129.53
390.883	-53.76
391.097	374.27
391.311	-61.95
391.525	-168.45
391.738	177.66
391.952	140.8
392.166	-27.14
392.38	-293.37
392.594	200.19
392.808	261.63
393.022	-61.95
393.236	-160.25
393.449	189.95
393.663	114.17
393.877	-289.28
394.091	-74.24
394.305	-96.77
394.518	-107.01
394.732	-287.23
394.946	-156.16
395.16	382.46
395.373	101.89
395.587	-270.84
395.801	-201.21
396.015	224.76
396.228	239.1
396.442	-379.39
396.656	-367.1
396.869	357.88
397.083	433.66
397.297	-119.29
397.51	-238.08
397.724	392.7
397.938	85.5
398.151	-399.87
398.365	-307.71
398.578	187.9
398.792	390.65
399.005	-31.23
399.219	-186.88
399.433	130.56
399.646	251.39
399.86	36.35
400.073	-37.38
400.287	177.66
400.5	40.45
400.714	-12.8
400.927	-82.43
401.141	171.52
401.354	1123.82
401.567	175.61
401.781	-369.15
401.994	204.28
402.208	599.54
402.421	-137.73
402.635	-147.97
402.848	-4.61
403.061	220.67
403.275	-41.47
403.488	-301.56
403.701	454.14
403.915	245.24
404.128	-8.7
404.341	-227.84
404.555	163.33
404.768	-49.66
404.981	-16.9
405.195	-195.07
405.408	443.9
405.621	173.57
405.834	-74.24
406.048	-252.41
406.261	390.65
406.474	447.99
406.687	-244.22
406.9	-33.28
407.114	69.12
407.327	93.69
407.54	-268.8
407.753	-336.38
407.966	-219.64
408.179	259.58
408.392	-248.32
408.605	-387.58
408.819	220.67
409.032	103.93
409.245	-266.75
409.458	30.21
409.671	155.13
409.884	177.66
410.097	-291.32
410.31	-88.57
410.523	163.33
410.736	-90.62
410.949	-172.54
411.162	-197.12
411.375	343.55
411.588	273.92
411.801	-43.52
412.014	-242.17
412.227	-2.56
412.44	-66.05
412.653	-152.06
412.865	-72.19
413.078	261.63
413.291	161.28
413.504	-45.57
413.717	-203.26
413.93	226.81
414.143	-170.49
414.356	-98.81
414.568	-397.82
414.781	251.39
414.994	130.56
415.207	-51.71
415.42	-127.49
415.632	286.2
415.845	507.38
416.058	-262.65
416.271	-258.56
416.483	62.98
416.696	488.95
416.909	-213.5
417.121	-190.97
417.334	116.22
417.547	525.82
417.759	-229.88
417.972	-309.76
418.185	-123.39
418.397	298.49
418.61	-184.83
418.823	-240.12
419.035	376.31
419.248	15.87
419.46	-123.39
419.673	-111.1
419.885	122.37
420.098	46.59
420.311	-238.08
420.523	-367.1
420.736	124.41
420.948	24.06
421.161	-233.98
421.373	-463.35
421.586	11.78
421.798	-174.59
422.01	-299.52
422.223	-33.28
422.435	-121.34
422.648	200.19
422.86	-225.79
423.073	-197.12
423.285	288.25
423.497	-225.79
423.71	-215.55
423.922	-213.5
424.134	52.74
424.347	380.41
424.559	-8.7
424.771	69.12
424.984	-143.87
425.196	163.33
425.408	-330.23
425.621	-315.9
425.833	261.63
426.045	286.2
426.257	-291.32
426.47	-217.6
426.682	67.07
426.894	140.8
427.106	-193.02
427.318	-176.64
427.531	-133.63
427.743	220.67
427.955	-225.79
428.167	228.86
428.379	65.02
428.591	-16.9
428.804	-115.2
429.016	-227.84
429.228	-88.57
429.44	163.33
429.652	3.58
429.864	-317.95
430.076	3.58
430.288	-37.38
430.5	-225.79
430.712	-64
430.924	316.92
431.136	19.97
431.348	-383.48
431.56	-209.4
431.772	77.31
431.984	-74.24
432.196	-180.73
432.408	-160.25
432.62	5.63
432.832	69.12
433.044	144.89
433.256	-123.39
433.468	224.76
433.679	-299.52
433.891	-264.7
434.103	22.02
434.315	310.78
434.527	181.76
434.739	-121.34
434.95	-133.63
435.162	163.33
435.374	-143.87
435.586	-94.72
435.798	-229.88
436.009	-170.49
436.221	-86.53
436.433	-107.01
436.645	-139.77
436.856	-164.35
437.068	278.01
437.28	-274.94
437.491	108.03
437.703	134.65
437.915	54.78
438.126	-135.68
438.338	13.82
438.55	-2.56
438.761	161.28
438.973	-248.32
439.184	-115.2
439.396	-39.42
439.608	220.67
439.819	-184.83
440.031	-76.29
440.242	175.61
440.454	220.67
440.665	-182.78
440.877	-107.01
441.088	194.05
441.3	-66.05
441.511	-313.85
441.723	-207.36
441.934	136.7
442.146	17.92
442.357	-4.61
442.569	85.5
442.78	40.45
442.991	462.33
443.203	22.02
443.414	-354.81
443.626	357.88
443.837	-111.1
444.048	-250.36
444.26	-315.9
444.471	65.02
444.682	255.48
444.894	-410.11
445.105	-406.01
445.316	198.14
445.528	140.8
445.739	-141.82
445.95	-182.78
446.161	28.16
446.373	237.05
446.584	-145.92
446.795	-176.64
447.006	185.85
447.217	394.75
447.429	-397.82
447.64	-293.37
447.851	345.59
448.062	140.8
448.273	-412.15
448.484	-262.65
448.695	140.8
448.907	-16.9
449.118	-102.91
449.329	9.73
449.54	-86.53
449.751	-213.5
449.962	-238.08
450.173	-258.56
450.384	273.92
450.595	261.63
450.806	-262.65
451.017	-176.64
451.228	374.27
451.439	261.63
451.65	-217.6
451.861	-418.3
452.072	-207.36
452.283	-12.8
452.494	-25.09
452.705	-256.51
452.915	364.03
453.126	97.79
453.337	-158.21
453.548	-315.9
453.759	214.52
453.97	517.62
454.181	19.97
454.391	-178.69
454.602	36.35
454.813	181.76
455.024	-80.38
455.235	-186.88
455.445	50.69
455.656	105.98
455.867	-45.57
456.078	-266.75
456.288	-121.34
456.499	110.08
456.71	-256.51
456.921	28.16
457.131	48.64
457.342	114.17
457.553	-129.53
457.763	-193.02
457.974	198.14
458.184	224.76
458.395	-305.66
458.606	-320
458.816	329.21
459.027	415.23
459.237	-123.39
459.448	-418.3
459.659	325.12
459.869	497.14
460.08	-399.87
460.29	-107.01
460.501	476.66
460.711	-74.24
460.922	-477.69
461.132	-315.9
461.343	695.8
461.553	-342.52
461.764	-223.74
461.974	-215.55
462.184	241.15
462.395	142.85
462.605	-127.49
462.816	-254.46
463.026	132.61
463.236	413.18
463.447	-217.6
463.657	-336.38
463.867	183.81
464.078	-113.15
464.288	-180.73
464.498	-303.61
464.709	-12.8
464.919	34.3
465.129	-195.07
465.339	-313.85
465.55	189.95
465.76	247.29
465.97	-217.6
466.18	-215.55
466.391	294.4
466.601	118.27
466.811	-184.83
467.021	-326.14
467.231	83.45
467.441	218.62
467.651	-115.2
467.862	-463.35
468.072	-8.7
468.282	333.31
468.492	-266.75
468.702	-254.46
468.912	56.83
469.122	615.93
469.332	134.65
469.542	-291.32
469.752	134.65
469.962	75.26
470.172	-283.13
470.382	-301.56
470.592	212.48
470.802	337.4
471.012	-74.24
471.222	-299.52
471.432	265.72
471.642	210.43
471.852	-176.64
472.062	-385.53
472.272	24.06
472.482	-240.12
472.691	-354.81
472.901	-438.78
473.111	36.35
473.321	439.8
473.531	-342.52
473.741	-193.02
473.95	83.45
474.16	179.71
474.37	-176.64
474.58	-342.52
474.79	464.38
474.999	112.13
475.209	-356.86
475.419	-283.13
475.628	-64
475.838	230.91
476.048	-133.63
476.258	-322.04
476.467	316.92
476.677	-133.63
476.886	-137.73
477.096	-86.53
477.306	-74.24
477.515	335.35
477.725	-158.21
477.935	-221.69
478.144	343.55
478.354	-117.25
478.563	-193.02
478.773	-254.46
478.982	173.57
479.192	286.2
479.401	-150.01
479.611	-299.52
479.82	-209.4
480.03	54.78
480.239	-252.41
480.449	-330.23
480.658	378.36
480.868	-137.73
481.077	-172.54
481.287	-162.3
481.496	130.56
481.705	378.36
481.915	15.87
482.124	48.64
482.333	77.31
482.543	337.4
482.752	-172.54
482.961	-283.13
483.171	208.38
483.38	-10.75
483.589	-248.32
483.799	-258.56
484.008	-14.85
484.217	247.29
484.426	-303.61
484.636	-295.42
484.845	110.08
485.054	-266.75
485.263	36.35
485.472	-176.64
485.682	425.47
485.891	22.02
486.1	-465.4
486.309	-260.6
486.518	83.45
486.727	384.51
486.936	-293.37
487.146	-156.16
487.355	325.12
487.564	-131.58
487.773	-238.08
487.982	-125.44
488.191	-94.72
488.4	-23.04
488.609	-270.84
488.818	-215.55
489.027	556.54
489.236	323.07
489.445	-195.07
489.654	-291.32
489.863	237.05
490.072	-12.8
490.281	83.45
490.49	-283.13
490.698	407.03
490.907	316.92
491.116	-242.17
491.325	-303.61
491.534	392.7
491.743	56.83
491.952	-98.81
492.16	-102.91
492.369	148.99
492.578	265.72
492.787	-168.45
492.996	-381.43
493.204	-182.78
493.413	445.95
493.622	-510.46
493.831	-381.43
494.039	382.46
494.248	-295.42
494.457	-279.04
494.665	-408.06
494.874	212.48
495.083	544.25
495.291	-211.45
495.5	-320
495.709	167.42
495.917	13.82
496.126	-143.87
496.335	-186.88
496.543	-18.94
496.752	134.65
496.96	-41.47
497.169	-381.43
497.377	-2.56
497.586	316.92
497.794	-170.49
498.003	-444.92
498.211	-27.14
498.42	409.08
498.628	-184.83
498.837	-328.19
499.045	189.95
499.254	50.69
499.462	-291.32
499.671	-225.79
499.879	441.85
500.087	255.48
500.296	-279.04
500.504	-184.83
500.713	75.26
500.921	525.82
501.129	-352.76
501.338	-195.07
501.546	-4.61
501.754	46.59
501.962	-283.13
502.171	-164.35
502.379	118.27
502.587	437.75
502.795	-276.99
503.004	-268.8
503.212	56.83
503.42	228.86
503.628	-270.84
503.837	-156.16
504.045	179.71
504.253	452.09
504.461	-274.94
504.669	-408.06
504.877	161.28
505.085	441.85
505.294	-365.05
505.502	-88.57
505.71	56.83
505.918	189.95
506.126	-299.52
506.334	-297.47
506.542	-33.28
506.75	81.41
506.958	-121.34
507.166	-197.12
507.374	-27.14
507.582	554.49
507.79	-184.83
507.998	-377.34
508.206	110.08
508.414	148.99
508.622	-322.04
508.83	-279.04
509.037	386.55
509.245	9.73
509.453	-320
509.661	-334.33
509.869	159.23
510.077	-43.52
510.285	-147.97
510.492	-565.75
510.7	550.39
510.908	-27.14
511.116	-248.32
511.324	-190.97
511.531	-107.01
511.739	46.59
511.947	-143.87
512.155	89.6
512.362	42.5
512.57	-168.45
512.778	-328.19
512.985	-391.67
513.193	235
513.401	335.35
513.608	-205.31
513.816	-254.46
514.024	192
514.231	343.55
514.439	-293.37
514.646	-244.22
514.854	278.01
515.061	247.29
515.269	-289.28
515.477	-229.88
515.684	-186.88
515.892	247.29
516.099	-385.53
516.307	-395.77
516.514	220.67
516.722	361.98
516.929	-274.94
517.136	-342.52
517.344	343.55
517.551	126.46
517.759	-301.56
517.966	-260.6
518.173	-53.76
518.381	17.92
518.588	-137.73
518.796	-381.43
519.003	267.77
519.21	-12.8
519.418	-276.99
519.625	22.02
519.832	-37.38
520.039	85.5
520.247	-369.15
520.454	-213.5
520.661	247.29
520.868	124.41
521.076	-180.73
521.283	-123.39
521.49	562.68
521.697	89.6
521.904	-109.05
522.112	-236.03
522.319	218.62
522.526	183.81
522.733	-295.42
522.94	-293.37
523.147	46.59
523.354	232.96
523.561	-426.49
523.768	-172.54
523.975	298.49
524.183	7.68
524.39	-217.6
524.597	-401.91
524.804	85.5
525.011	-229.88
525.218	-416.25
525.425	-360.95
525.632	286.2
525.838	-176.64
526.045	-268.8
526.252	-340.47
526.459	1115.63
526.666	757.24
526.873	-283.13
527.08	-303.61
527.287	380.41
527.494	247.29
527.701	-350.71
527.907	-363
528.114	179.71
528.321	9.73
528.528	-283.13
528.735	-307.71
528.941	-90.62
529.148	-147.97
529.355	-254.46
529.562	-274.94
529.768	278.01
529.975	-14.85
530.182	-238.08
530.388	-299.52
530.595	335.35
530.802	-225.79
531.008	-152.06
531.215	-248.32
531.422	679.41
531.628	660.98
531.835	-227.84
532.042	-199.16
532.248	-168.45
532.455	58.88
532.661	-199.16
532.868	-303.61
533.074	105.98
533.281	192
533.487	-180.73
533.694	-328.19
533.9	-115.2
534.107	132.61
534.313	-428.54
534.52	-391.67
534.726	308.73
534.933	531.96
535.139	-377.34
535.345	-328.19
535.552	77.31
535.758	60.93
535.965	-217.6
536.171	-311.8
536.377	206.33
536.584	374.27
536.79	-250.36
536.996	-193.02
537.203	97.79
537.409	208.38
537.615	-252.41
537.821	-80.38
538.028	189.95
538.234	175.61
538.44	-262.65
538.646	-164.35
538.853	175.61
539.059	-53.76
539.265	181.76
539.471	-508.41
539.677	323.07
539.883	-117.25
540.09	-309.76
540.296	171.52
540.502	36.35
540.708	-117.25
540.914	-172.54
541.12	-164.35
541.326	126.46
541.532	-16.9
541.738	-184.83
541.944	-250.36
542.15	290.3
542.356	-20.99
542.562	-293.37
542.768	-252.41
542.974	636.41
543.18	472.57
543.386	-305.66
543.592	-389.63
543.798	339.45
544.004	280.06
544.21	-328.19
544.415	-229.88
544.621	15.87
544.827	298.49
545.033	-324.09
545.239	-31.23
545.445	-25.09
545.651	91.65
545.856	-328.19
546.062	-322.04
546.268	-123.39
546.474	48.64
546.679	-295.42
546.885	-195.07
547.091	-127.49
547.297	433.66
547.502	-213.5
547.708	-360.95
547.914	-61.95
548.119	165.37
548.325	-360.95
548.531	-360.95
548.736	368.12
548.942	-160.25
549.147	-303.61
549.353	-29.18
549.559	329.21
549.764	142.85
549.97	-320
550.175	-258.56
550.381	99.84
550.586	-66.05
550.792	-178.69
550.997	-262.65
551.203	142.85
551.408	202.24
551.614	-360.95
551.819	-258.56
552.025	413.18
552.23	472.57
552.435	-303.61
552.641	-82.43
552.846	-190.97
553.052	314.88
553.257	-61.95
553.462	-250.36
553.668	-82.43
553.873	304.64
554.078	-346.62
554.283	-246.27
554.489	65.02
554.694	36.35
554.899	-336.38
555.105	-131.58
555.31	101.89
555.515	220.67
555.72	-164.35
555.925	-389.63
556.131	222.72
556.336	-59.9
556.541	-330.23
556.746	-340.47
556.951	394.75
557.156	359.93
557.361	-111.1
557.567	-166.4
557.772	581.11
557.977	163.33
558.182	-244.22
558.387	-311.8
558.592	-109.05
558.797	341.5
559.002	-254.46
559.207	-45.57
559.412	38.4
559.617	441.85
559.822	-221.69
560.027	-307.71
560.232	75.26
560.437	200.19
560.642	-373.24
560.847	-258.56
561.051	42.5
561.256	91.65
561.461	-217.6
561.666	-311.8
561.871	52.74
562.076	169.47
562.281	-209.4
562.485	-309.76
562.69	146.94
562.895	298.49
563.1	-186.88
563.305	-301.56
563.509	292.35
563.714	574.97
563.919	-354.81
564.123	-299.52
564.328	-31.23
564.533	361.98
564.737	-117.25
564.942	-264.7
565.147	437.75
565.351	497.14
565.556	-111.1
565.761	-195.07
565.965	40.45
566.17	-111.1
566.374	-209.4
566.579	-330.23
566.784	9.73
566.988	-94.72
567.193	-430.59
567.397	-262.65
567.602	-233.98
567.806	-6.66
568.011	-270.84
568.215	-188.93
568.42	-12.8
568.624	-16.9
568.828	-311.8
569.033	-113.15
569.237	132.61
569.442	181.76
569.646	-377.34
569.85	-195.07
570.055	-4.61
570.259	142.85
570.463	-92.67
570.668	-283.13
570.872	77.31
571.076	11.78
571.281	-82.43
571.485	-88.57
571.689	56.83
571.893	235
572.098	-190.97
572.302	-279.04
572.506	128.51
572.71	19.97
572.914	-229.88
573.119	-244.22
573.323	378.36
573.527	386.55
573.731	-242.17
573.935	-266.75
574.139	87.55
574.343	-164.35
574.547	-131.58
574.751	-225.79
574.955	351.74
575.159	198.14
575.364	-178.69
575.568	-356.86
575.772	34.3
575.976	351.74
576.18	-279.04
576.383	-389.63
576.587	265.72
576.791	153.09
576.995	-459.26
577.199	-322.04
577.403	265.72
577.607	302.59
577.811	-330.23
578.015	-92.67
578.219	38.4
578.422	241.15
578.626	-160.25
578.83	-113.15
579.034	351.74
579.238	54.78
579.442	-260.6
579.645	19.97
579.849	50.69
580.053	124.41
580.257	-197.12
580.46	-225.79
580.664	286.2
580.868	230.91
581.071	-70.14
581.275	-70.14
581.479	-225.79
581.682	269.82
581.886	-258.56
582.09	-178.69
582.293	261.63
582.497	206.33
582.7	-45.57
582.904	-238.08
583.107	44.54
583.311	-25.09
583.515	-188.93
583.718	-172.54
583.922	177.66
584.125	466.42
584.329	-307.71
584.532	-90.62
584.735	400.89
584.939	138.75
585.142	-408.06
585.346	-293.37
585.549	130.56
585.753	-29.18
585.956	-184.83
586.159	-195.07
586.363	384.51
586.566	163.33
586.769	-383.48
586.973	-363
587.176	97.79
587.379	314.88
587.582	132.61
587.786	-4.61
587.989	34.3
588.192	622.07
588.395	-180.73
588.599	110.08
588.802	208.38
589.005	247.29
589.208	-182.78
589.411	-193.02
589.615	138.75
589.818	345.59
590.021	-68.09
590.224	-225.79
590.427	263.68
590.63	126.46
590.833	-334.33
591.036	-313.85
591.239	-72.19
591.442	-145.92
591.645	-45.57
591.848	-238.08
592.051	103.93
592.254	282.11
592.457	-238.08
592.66	-158.21
592.863	60.93
593.066	118.27
593.269	-262.65
593.472	-152.06
593.675	-160.25
593.878	189.95
594.081	-109.05
594.284	-328.19
594.486	204.28
594.689	118.27
594.892	-133.63
595.095	-150.01
595.298	220.67
595.5	-8.7
595.703	-43.52
595.906	-90.62
596.109	417.27
596.311	255.48
596.514	-391.67
596.717	-174.59
596.92	325.12
597.122	136.7
597.325	-412.15
597.528	-299.52
597.73	345.59
597.933	50.69
598.136	-207.36
598.338	-541.18
598.541	128.51
598.743	376.31
598.946	-238.08
599.148	-123.39
599.351	316.92
599.554	271.87
599.756	-82.43
599.959	-250.36
600.161	278.01
600.363	658.93
600.566	-2.56
600.768	-276.99
600.971	450.04
601.173	224.76
601.376	-233.98
601.578	-174.59
601.78	169.47
601.983	597.49
602.185	-233.98
602.388	-76.29
602.59	151.04
602.792	-66.05
602.995	-70.14
603.197	-262.65
603.399	329.21
603.601	95.74
603.804	-160.25
604.006	-211.45
604.208	97.79
604.41	-371.19
604.613	-45.57
604.815	-166.4
605.017	511.48
605.219	-82.43
605.421	183.81
605.623	-170.49
605.826	372.22
606.028	433.66
606.23	-184.83
606.432	-207.36
606.634	433.66
606.836	388.6
607.038	-299.52
607.24	-107.01
607.442	87.55
607.644	36.35
607.846	-53.76
608.048	-299.52
608.25	419.32
608.452	-47.62
608.654	-197.12
608.856	-360.95
609.058	19.97
609.26	161.28
609.462	-84.48
609.664	-143.87
609.866	544.25
610.067	380.41
610.269	-6.66
610.471	-25.09
610.673	-31.23
610.875	171.52
611.077	-352.76
611.278	-88.57
611.48	140.8
611.682	550.39
611.884	13.82
612.085	-143.87
612.287	-193.02
612.489	224.76
612.69	-352.76
612.892	-125.44
613.094	310.78
613.295	224.76
613.497	-268.8
613.699	-201.21
613.9	394.75
614.102	296.44
614.304	-131.58
614.505	-336.38
614.707	38.4
614.908	114.17
615.11	-401.91
615.311	-119.29
615.513	241.15
615.714	306.68
615.916	-254.46
616.117	-96.77
616.319	73.21
616.52	245.24
616.722	-168.45
616.923	-250.36
617.124	298.49
617.326	245.24
617.527	-109.05
617.729	15.87
617.93	318.97
618.131	337.4
618.333	-170.49
618.534	-172.54
618.735	-88.57
618.937	464.38
619.138	-365.05
619.339	-190.97
619.54	198.14
619.742	-59.9
619.943	-55.81
620.144	-45.57
620.345	259.58
620.546	359.93
620.748	-236.03
620.949	-145.92
621.15	56.83
621.351	75.26
621.552	-127.49
621.753	-260.6
621.954	-287.23
622.155	456.19
622.356	-279.04
622.558	26.11
622.759	89.6
622.96	540.15
623.161	-197.12
623.362	-96.77
623.563	122.37
623.764	148.99
623.965	-121.34
624.166	-4.61
624.366	40.45
624.567	208.38
624.768	-377.34
624.969	-238.08
625.17	19.97
625.371	325.12
625.572	-94.72
625.773	-225.79
625.973	364.03
626.174	298.49
626.375	-53.76
626.576	30.21
626.777	228.86
626.977	744.95
627.178	-168.45
627.379	-57.86
627.58	36.35
627.78	126.46
627.981	-37.38
628.182	-90.62
628.382	361.98
628.583	-199.16
628.784	-287.23
628.984	-6.66
629.185	273.92
629.386	302.59
629.586	-135.68
629.787	-201.21
629.987	343.55
630.188	73.21
630.388	-178.69
630.589	-98.81
630.79	654.84
630.99	179.71
631.191	-90.62
631.391	-72.19
631.591	259.58
631.792	542.2
631.992	54.78
632.193	-139.77
632.393	484.86
632.594	71.17
632.794	-190.97
632.994	-2.56
633.195	144.89
633.395	173.57
633.595	-217.6
633.796	97.79
633.996	-33.28
634.196	345.59
634.397	-283.13
634.597	-88.57
634.797	-141.82
634.997	511.48
635.198	69.12
635.398	-209.4
635.598	54.78
635.798	472.57
635.998	296.44
636.199	-154.11
636.399	-76.29
636.599	-127.49
636.799	-121.34
636.999	110.08
637.199	290.3
637.399	398.84
637.599	-160.25
637.799	-49.66
637.999	-25.09
638.199	558.58
638.399	-211.45
638.599	-182.78
638.799	142.85
638.999	605.69
639.199	7.68
639.399	-14.85
639.599	542.2
639.799	-55.81
639.999	-252.41
640.199	-236.03
640.399	177.66
640.599	196.09
640.799	-25.09
640.998	7.68
641.198	417.27
641.398	265.72
641.598	34.3
641.798	-143.87
641.997	1005.04
642.197	114.17
642.397	-98.81
642.597	-141.82
642.796	280.06
642.996	480.76
643.196	105.98
643.395	-240.12
643.595	327.16
643.795	-295.42
643.994	-104.96
644.194	-18.94
644.394	235
644.593	179.71
644.793	-320
644.992	11.78
645.192	185.85
645.392	-262.65
645.591	11.78
645.791	-135.68
645.99	171.52
646.19	108.03
646.389	-94.72
646.589	-37.38
646.788	314.88
646.987	253.44
647.187	140.8
647.386	34.3
647.586	99.84
647.785	353.79
647.984	-49.66
648.184	-127.49
648.383	11.78
648.582	67.07
648.782	-53.76
648.981	60.93
649.18	-2.56
649.38	171.52
649.579	-135.68
649.778	-147.97
649.977	263.68
650.177	222.72
650.376	-184.83
650.575	-135.68
650.774	480.76
650.973	-20.99
651.173	-217.6
651.372	52.74
651.571	220.67
651.77	253.44
651.969	19.97
652.168	26.11
652.367	-98.81
652.566	105.98
652.765	-184.83
652.964	153.09
653.163	597.49
653.362	161.28
653.561	-119.29
653.76	-143.87
653.959	-57.86
654.158	314.88
654.357	126.46
654.556	-90.62
654.755	310.78
654.954	384.51
655.153	-27.14
655.352	-78.33
655.551	423.42
655.749	-41.47
655.948	38.4
656.147	30.21
656.346	271.87
656.545	62.98
656.743	17.92
656.942	-49.66
657.141	116.22
657.34	-88.57
657.538	-64
657.737	-113.15
657.936	-43.52
658.135	171.52
658.333	-86.53
658.532	-45.57
658.731	542.2
658.929	413.18
659.128	210.43
659.326	-109.05
659.525	427.51
659.724	200.19
659.922	-268.8
660.121	-211.45
660.319	204.28
660.518	22.02
660.716	-156.16
660.915	-170.49
661.113	378.36
661.312	-170.49
661.51	69.12
661.709	-152.06
661.907	339.45
662.105	497.14
662.304	-182.78
662.502	-70.14
662.701	425.47
662.899	85.5
663.097	169.47
663.296	-272.89
663.494	351.74
663.692	421.37
663.891	-78.33
664.089	-193.02
664.287	263.68
664.485	486.9
664.684	-236.03
664.882	130.56
665.08	183.81
665.278	114.17
665.476	-227.84
665.675	189.95
665.873	581.11
666.071	388.6
666.269	-92.67
666.467	167.42
666.665	134.65
666.863	144.89
667.061	89.6
667.259	-57.86
667.457	134.65
667.655	339.45
667.853	-238.08
668.051	67.07
668.249	-6.66
668.447	298.49
668.645	-182.78
668.843	73.21
669.041	304.64
669.239	13.82
669.437	-61.95
669.635	120.32
669.833	65.02
670.031	353.79
670.229	3.58
670.426	9.73
670.624	62.98
670.822	32.26
671.02	-123.39
671.218	32.26
671.415	-143.87
671.613	62.98
671.811	114.17
672.009	-12.8
672.206	392.7
672.404	204.28
672.602	118.27
672.799	9.73
672.997	333.31
673.195	519.67
673.392	58.88
673.59	-152.06
673.788	321.02
673.985	-213.5
674.183	67.07
674.38	-43.52
674.578	280.06
674.775	-86.53
674.973	-221.69
675.17	-154.11
675.368	433.66
675.565	294.4
675.763	-55.81
675.96	-147.97
676.158	437.75
676.355	218.62
676.553	-107.01
676.75	-66.05
676.947	136.7
677.145	169.47
677.342	26.11
677.539	58.88
677.737	204.28
677.934	636.41
678.131	171.52
678.329	-86.53
678.526	583.16
678.723	300.54
678.92	24.06
679.118	1.54
679.315	-121.34
679.512	527.86
679.709	-86.53
679.906	46.59
680.104	443.9
680.301	132.61
680.498	-201.21
680.695	-98.81
680.892	5.63
681.089	9.73
681.286	126.46
681.483	-154.11
681.68	263.68
681.877	294.4
682.075	3.58
682.272	142.85
682.469	318.97
682.665	32.26
682.862	-57.86
683.059	-209.4
683.256	286.2
683.453	146.94
683.65	15.87
683.847	60.93
684.044	124.41
684.241	-27.14
684.438	155.13
684.635	-158.21
684.831	624.12
685.028	638.45
685.225	-20.99
685.422	114.17
685.619	206.33
685.815	159.23
686.012	67.07
686.209	3.58
686.405	-102.91
686.602	388.6
686.799	-143.87
686.996	-135.68
687.192	-78.33
687.389	654.84
687.586	-127.49
687.782	-35.33
687.979	542.2
688.175	462.33
688.372	7.68
688.568	-94.72
688.765	24.06
688.962	519.67
689.158	128.51
689.355	-176.64
689.551	366.07
689.748	101.89
689.944	85.5
690.14	-186.88
690.337	404.99
690.533	81.41
690.73	144.89
690.926	36.35
691.123	347.64
691.319	155.13
691.515	-145.92
691.712	192
691.908	269.82
692.104	239.1
692.301	28.16
692.497	-135.68
692.693	337.4
692.889	366.07
693.086	130.56
693.282	-242.17
693.478	245.24
693.674	597.49
693.87	-78.33
694.067	-164.35
694.263	261.63
694.459	93.69
694.655	169.47
694.851	62.98
695.047	296.44
695.243	351.74
695.439	142.85
695.635	-66.05
695.831	458.23
696.027	200.19
696.224	-143.87
696.42	257.53
696.615	499.19
696.811	339.45
697.007	-123.39
697.203	-16.9
697.399	310.78
697.595	437.75
697.791	-86.53
697.987	142.85
698.183	26.11
698.379	24.06
698.575	24.06
698.77	-25.09
698.966	376.31
699.162	556.54
699.358	122.37
699.554	122.37
699.749	394.75
699.945	486.9
700.141	144.89
700.337	97.79
700.532	173.57
700.728	65.02
700.924	-70.14
701.119	-172.54
701.315	257.53
701.511	204.28
701.706	69.12
701.902	-182.78
702.097	163.33
702.293	380.41
702.489	114.17
702.684	-96.77
702.88	75.26
703.075	187.9
703.271	46.59
703.466	-102.91
703.662	282.11
703.857	390.65
704.053	-111.1
704.248	-41.47
704.443	318.97
704.639	353.79
704.834	32.26
705.03	24.06
705.225	409.08
705.42	521.72
705.616	142.85
705.811	-47.62
706.006	87.55
706.202	67.07
706.397	159.23
706.592	-74.24
706.787	280.06
706.983	222.72
707.178	278.01
707.373	65.02
707.568	419.32
707.763	439.8
707.959	-51.71
708.154	-84.48
708.349	329.21
708.544	304.64
708.739	290.3
708.934	-45.57
709.129	335.35
709.324	390.65
709.519	-82.43
709.714	-33.28
709.909	501.24
710.104	280.06
710.299	-33.28
710.494	58.88
710.689	392.7
710.884	321.02
711.079	110.08
711.274	265.72
711.469	282.11
711.664	294.4
711.859	-29.18
712.054	126.46
712.249	359.93
712.443	503.29
712.638	-168.45
712.833	-35.33
713.028	173.57
713.223	159.23
713.417	327.16
713.612	-57.86
713.807	359.93
714.002	843.25
714.196	239.1
714.391	-86.53
714.586	409.08
714.78	171.52
714.975	7.68
715.17	-37.38
715.364	126.46
715.559	433.66
715.754	-276.99
715.948	-23.04
716.143	648.69
716.337	327.16
716.532	243.2
716.726	-53.76
716.921	361.98
717.115	634.36
717.31	-147.97
717.504	536.06
717.699	157.18
717.893	439.8
718.088	-49.66
718.282	-86.53
718.476	329.21
718.671	374.27
718.865	-37.38
719.059	22.02
719.254	239.1
719.448	581.11
719.642	1162.73
719.837	-143.87
720.031	450.04
720.225	564.73
720.419	99.84
720.614	-33.28
720.808	413.18
721.002	259.58
721.196	-121.34
721.39	1.54
721.585	654.84
721.779	361.98
721.973	-2.56
722.167	-137.73
722.361	351.74
722.555	445.95
722.749	11.78
722.943	32.26
723.137	-27.14
723.331	372.22
723.525	-43.52
723.719	-57.86
723.913	388.6
724.107	531.96
724.301	-84.48
724.495	73.21
724.689	697.85
724.883	511.48
725.077	-37.38
725.271	81.41
725.465	583.16
725.659	269.82
725.853	169.47
726.046	-184.83
726.24	110.08
726.434	441.85
726.628	-64
726.822	83.45
727.015	503.29
727.209	531.96
727.403	42.5
727.596	-35.33
727.79	429.56
727.984	396.79
728.177	-27.14
728.371	65.02
728.565	519.67
728.758	-45.57
728.952	-119.29
729.146	-55.81
729.339	534.01
729.533	200.19
729.726	36.35
729.92	-66.05
730.113	507.38
730.307	294.4
730.5	-18.94
730.694	-107.01
730.887	220.67
731.081	400.89
731.274	-133.63
731.468	56.83
731.661	214.52
731.854	132.61
732.048	-6.66
732.241	-139.77
732.435	151.04
732.628	282.11
732.821	99.84
733.014	-51.71
733.208	3.58
733.401	327.16
733.594	34.3
733.788	46.59
733.981	554.49
734.174	222.72
734.367	-10.75
734.56	146.94
734.754	474.62
734.947	183.81
735.14	-31.23
735.333	11.78
735.526	423.42
735.719	103.93
735.912	-47.62
736.105	-41.47
736.298	224.76
736.491	93.69
736.684	-31.23
736.877	-39.42
737.07	355.83
737.263	523.77
737.456	-66.05
737.649	-109.05
737.842	132.61
738.035	216.57
738.228	114.17
738.421	163.33
738.614	491
738.807	366.07
739	-107.01
739.192	-76.29
739.385	370.17
739.578	384.51
739.771	271.87
739.964	-61.95
740.156	321.02
740.349	263.68
740.542	163.33
740.735	-102.91
740.927	-49.66
741.12	36.35
741.313	-88.57
741.505	108.03
741.698	361.98
741.891	286.2
742.083	278.01
742.276	19.97
742.468	280.06
742.661	185.85
742.854	34.3
743.046	-10.75
743.239	675.32
743.431	257.53
743.624	60.93
743.816	-123.39
744.009	169.47
744.201	306.68
744.393	175.61
744.586	-180.73
744.778	566.78
744.971	282.11
745.163	65.02
745.355	175.61
745.548	269.82
745.74	134.65
745.932	103.93
746.125	-61.95
746.317	787.96
746.509	353.79
746.702	40.45
746.894	194.05
747.086	318.97
747.278	529.91
747.471	118.27
747.663	120.32
747.855	228.86
748.047	568.82
748.239	-66.05
748.431	-39.42
748.623	652.79
748.815	609.78
749.008	-125.44
749.2	-86.53
749.392	306.68
749.584	429.56
749.776	-25.09
749.968	124.41
750.16	738.8
750.352	114.17
750.544	36.35
750.736	32.26
750.928	302.59
751.12	241.15
751.311	-16.9
751.503	120.32
751.695	433.66
751.887	265.72
752.079	-168.45
752.271	85.5
752.463	1041.9
752.654	429.56
752.846	65.02
753.038	-0.51
753.23	103.93
753.421	327.16
753.613	46.59
753.805	208.38
753.997	515.58
754.188	505.34
754.38	-78.33
754.572	-8.7
754.763	189.95
754.955	349.69
755.146	175.61
755.338	56.83
755.53	337.4
755.721	228.86
755.913	-78.33
756.104	-57.86
756.296	192
756.487	441.85
756.679	-66.05
756.87	-10.75
757.062	81.41
757.253	374.27
757.445	-47.62
757.636	134.65
757.827	253.44
758.019	869.87
758.21	-98.81
758.401	26.11
758.593	720.37
758.784	601.59
758.975	-64
759.167	3.58
759.358	265.72
759.549	540.15
759.74	81.41
759.932	-0.51
760.123	599.54
760.314	163.33
760.505	132.61
760.696	19.97
760.888	673.27
761.079	177.66
761.27	-57.86
761.461	-168.45
761.652	663.03
761.843	212.48
762.034	50.69
762.225	273.92
762.416	224.76
762.607	331.26
762.798	48.64
762.989	-37.38
763.18	1058.29
763.371	97.79
763.562	-33.28
763.753	75.26
763.944	472.57
764.135	495.1
764.326	167.42
764.517	-6.66
764.708	306.68
764.899	337.4
765.089	-49.66
765.28	-164.35
765.471	232.96
765.662	372.22
765.853	146.94
766.043	-86.53
766.234	523.77
766.425	450.04
766.615	60.93
766.806	-88.57
766.997	601.59
767.187	280.06
767.378	9.73
767.569	-170.49
767.759	411.13
767.95	294.4
768.141	179.71
768.331	-64
768.522	220.67
768.712	382.46
768.903	-64
769.093	-25.09
769.284	716.28
769.474	368.12
769.665	-100.86
769.855	-78.33
770.046	392.7
770.236	189.95
770.426	169.47
770.617	-57.86
770.807	400.89
770.998	230.91
771.188	173.57
771.378	-102.91
771.569	404.99
771.759	368.12
771.949	-37.38
772.139	-207.36
772.33	343.55
772.52	583.16
772.71	7.68
772.9	-92.67
773.09	650.74
773.281	511.48
773.471	-66.05
773.661	-80.38
773.851	579.06
774.041	228.86
774.231	-111.1
774.421	181.76
774.611	613.88
774.802	267.77
774.992	85.5
775.182	-150.01
775.372	269.82
775.562	411.13
775.752	-16.9
775.942	-47.62
776.131	556.54
776.321	470.52
776.511	-45.57
776.701	-72.19
776.891	521.72
777.081	19.97
777.271	222.72
777.461	-29.18
777.651	470.52
777.84	540.15
778.03	148.99
778.22	1.54
778.41	515.58
778.599	110.08
778.789	-35.33
778.979	-2.56
779.169	411.13
779.358	261.63
779.548	255.48
779.738	-143.87
779.927	345.59
780.117	50.69
780.307	101.89
780.496	-266.75
780.686	372.22
780.875	685.56
781.065	28.16
781.254	-23.04
781.444	235
781.633	304.64
781.823	-84.48
782.012	-68.09
782.202	124.41
782.391	200.19
782.581	-94.72
782.77	216.57
782.96	425.47
783.149	163.33
783.338	24.06
783.528	-205.31
783.717	380.41
783.906	527.86
784.096	196.09
784.285	-59.9
784.474	173.57
784.663	93.69
784.853	42.5
785.042	30.21
785.231	151.04
785.42	501.24
785.61	28.16
785.799	-100.86
785.988	171.52
786.177	261.63
786.366	40.45
786.555	157.18
786.744	493.05
786.933	230.91
787.122	-86.53
787.312	-176.64
787.501	48.64
787.69	343.55
787.879	-25.09
788.068	-55.81
788.257	-4.61
788.445	226.81
788.634	-12.8
788.823	-12.8
789.012	906.74
789.201	589.3
789.39	60.93
789.579	-66.05
789.768	312.83
789.957	323.07
790.145	-12.8
790.334	-315.9
790.523	165.37
790.712	187.9
790.9	85.5
791.089	-102.91
791.278	394.75
791.467	343.55
791.655	269.82
791.844	503.29
792.033	192
792.221	228.86
792.41	15.87
792.599	-119.29
792.787	441.85
792.976	409.08
793.164	-98.81
793.353	-20.99
793.541	450.04
793.73	378.36
793.918	58.88
794.107	81.41
794.295	237.05
794.484	339.45
794.672	22.02
794.861	5.63
795.049	404.99
795.238	634.36
795.426	-115.2
795.614	114.17
795.803	333.31
795.991	478.71
796.179	7.68
796.368	-37.38
796.556	493.05
796.744	30.21
796.932	-70.14
797.121	-121.34
797.309	173.57
797.497	400.89
797.685	56.83
797.874	-33.28
798.062	159.23
798.25	630.26
798.438	-33.28
798.626	-18.94
798.814	396.79
799.002	826.87
799.19	128.51
799.378	142.85
799.566	505.34
799.755	552.44
799.943	228.86
800.131	-31.23
800.318	181.76
800.506	384.51
800.694	15.87
800.882	157.18
801.07	536.06
801.258	222.72
801.446	5.63
801.634	-14.85
801.822	239.1
802.01	222.72
802.197	-66.05
802.385	224.76
802.573	310.78
802.761	175.61
802.949	60.93
803.136	-150.01
803.324	538.1
803.512	267.77
803.699	128.51
803.887	-195.07
804.075	640.5
804.262	93.69
804.45	-82.43
804.638	93.69
804.825	65.02
805.013	134.65
805.201	-53.76
805.388	-119.29
805.576	214.52
805.763	622.07
805.951	26.11
806.138	116.22
806.326	753.14
806.513	384.51
806.701	-37.38
806.888	-25.09
807.075	411.13
807.263	763.38
807.45	-123.39
807.638	89.6
807.825	644.6
808.012	404.99
808.2	65.02
808.387	302.59
808.574	361.98
808.761	572.92
808.949	-70.14
809.136	56.83
809.323	77.31
809.51	140.8
809.698	361.98
809.885	171.52
810.072	378.36
810.259	474.62
810.446	1.54
810.633	-55.81
810.82	480.76
811.008	626.17
811.195	214.52
811.382	32.26
811.569	310.78
811.756	-33.28
811.943	67.07
812.13	-57.86
812.317	118.27
812.504	146.94
812.691	26.11
812.878	167.42
813.064	556.54
813.251	337.4
813.438	-90.62
813.625	169.47
813.812	194.05
813.999	169.47
814.186	83.45
814.372	134.65
814.559	241.15
814.746	595.45
814.933	93.69
815.12	210.43
815.306	62.98
815.493	60.93
815.68	-94.72
815.866	36.35
816.053	560.63
816.24	787.96
816.426	153.09
816.613	-147.97
816.799	458.23
816.986	505.34
817.173	42.5
817.359	-51.71
817.546	378.36
817.732	-16.9
817.919	-145.92
818.105	122.37
818.292	161.28
818.478	331.26
818.665	93.69
818.851	-8.7
819.037	830.96
819.224	230.91
819.41	-84.48
819.597	-25.09
819.783	658.93
819.969	353.79
820.156	44.54
820.342	-115.2
820.528	994.8
820.714	230.91
820.901	226.81
821.087	-49.66
821.273	615.93
821.459	116.22
821.646	46.59
821.832	-82.43
822.018	251.39
822.204	282.11
822.39	-59.9
822.576	-80.38
822.762	470.52
822.948	329.21
823.134	255.48
823.32	40.45
823.507	3.58
823.693	376.31
823.879	359.93
824.065	-33.28
824.25	271.87
824.436	52.74
824.622	32.26
824.808	-94.72
824.994	165.37
825.18	105.98
825.366	-160.25
825.552	-25.09
825.738	167.42
825.923	611.83
826.109	290.3
826.295	-104.96
826.481	101.89
826.667	105.98
826.852	114.17
827.038	-131.58
827.224	517.62
827.409	714.23
827.595	-152.06
827.781	192
827.966	536.06
828.152	425.47
828.338	56.83
828.523	-74.24
828.709	91.65
828.894	572.92
829.08	15.87
829.266	28.16
829.451	67.07
829.637	503.29
829.822	110.08
830.008	-39.42
830.193	574.97
830.378	703.99
830.564	-8.7
830.749	-43.52
830.935	409.08
831.12	437.75
831.305	-41.47
831.491	114.17
831.676	-29.18
831.861	515.58
832.047	105.98
832.232	-88.57
832.417	525.82
832.602	310.78
832.788	-23.04
832.973	-100.86
833.158	282.11
833.343	343.55
833.528	177.66
833.714	112.13
833.899	474.62
834.084	812.53
834.269	226.81
834.454	42.5
834.639	556.54
834.824	194.05
835.009	230.91
835.194	171.52
835.379	384.51
835.564	638.45
835.749	163.33
835.934	-70.14
836.119	540.15
836.304	296.44
836.489	5.63
836.674	204.28
836.859	28.16
837.044	568.82
837.228	77.31
837.413	-66.05
837.598	400.89
837.783	480.76
837.968	26.11
838.152	-94.72
838.337	-131.58
838.522	630.26
838.707	361.98
838.891	284.16
839.076	347.64
839.261	536.06
839.445	60.93
839.63	132.61
839.815	767.48
839.999	235
840.184	32.26
840.368	116.22
840.553	501.24
840.737	466.42
840.922	-70.14
841.106	-74.24
841.291	24.06
841.475	349.69
841.66	36.35
841.844	15.87
842.029	925.17
842.213	89.6
842.397	48.64
842.582	-74.24
842.766	562.68
842.951	603.64
843.135	-35.33
843.319	126.46
843.504	359.93
843.688	443.9
843.872	-131.58
844.056	-0.51
844.241	409.08
844.425	183.81
844.609	200.19
844.793	-172.54
844.977	523.77
845.161	337.4
845.346	-129.53
845.53	11.78
845.714	257.53
845.898	640.5
846.082	-127.49
846.266	3.58
846.45	271.87
846.634	396.79
846.818	-10.75
847.002	118.27
847.186	474.62
847.37	101.89
847.554	-29.18
847.738	183.81
847.922	275.96
848.106	388.6
848.29	-59.9
848.473	3.58
848.657	450.04
848.841	253.44
849.025	-16.9
849.209	-188.93
849.392	427.51
849.576	189.95
849.76	-172.54
849.944	169.47
850.127	628.21
850.311	17.92
850.495	-64
850.678	-127.49
850.862	658.93
851.046	687.61
851.229	239.1
851.413	-20.99
851.596	366.07
851.78	325.12
851.964	212.48
852.147	58.88
852.331	1052.14
852.514	603.64
852.698	140.8
852.881	-176.64
853.065	536.06
853.248	208.38
853.431	228.86
853.615	175.61
853.798	923.12
853.982	374.27
854.165	130.56
854.348	-66.05
854.532	177.66
854.715	192
854.898	69.12
855.081	13.82
855.265	779.76
855.448	806.39
855.631	11.78
855.814	93.69
855.997	585.21
856.181	247.29
856.364	77.31
856.547	-55.81
856.73	370.17
856.913	325.12
857.096	-113.15
857.279	97.79
857.462	122.37
857.645	548.34
857.828	175.61
858.011	165.37
858.194	187.9
858.377	433.66
858.56	-82.43
858.743	54.78
858.926	159.23
859.109	450.04
859.292	26.11
859.475	-88.57
859.658	597.49
859.841	501.24
860.023	-43.52
860.206	-66.05
860.389	353.79
860.572	564.73
860.755	36.35
860.937	50.69
861.12	294.4
861.303	318.97
861.486	120.32
861.668	-18.94
861.851	527.86
862.034	388.6
862.216	112.13
862.399	-131.58
862.581	472.57
862.764	644.6
862.947	83.45
863.129	-61.95
863.312	93.69
863.494	734.71
863.677	390.65
863.859	-158.21
864.042	536.06
864.224	652.79
864.406	146.94
864.589	-107.01
864.771	394.75
864.954	89.6
865.136	-8.7
865.318	-180.73
865.501	515.58
865.683	-49.66
865.865	30.21
866.048	42.5
866.23	261.63
866.412	355.83
866.594	-121.34
866.777	138.75
866.959	458.23
867.141	126.46
867.323	286.2
867.505	247.29
867.687	237.05
867.869	249.34
868.052	105.98
868.234	19.97
868.416	228.86
868.598	466.42
868.78	97.79
868.962	-86.53
869.144	517.62
869.326	523.77
869.508	11.78
869.69	-49.66
869.872	79.36
870.054	521.72
870.236	-115.2
870.417	-64
870.599	210.43
870.781	783.86
870.963	220.67
871.145	-107.01
871.327	34.3
871.508	538.1
871.69	99.84
871.872	140.8
872.054	181.76
872.235	505.34
872.417	153.09
872.599	-100.86
872.78	630.26
872.962	384.51
873.144	-10.75
873.325	81.41
873.507	712.18
873.689	355.83
873.87	-57.86
874.052	153.09
874.233	261.63
874.415	534.01
874.596	46.59
874.778	-59.9
874.959	237.05
875.141	542.2
875.322	50.69
875.503	-25.09
875.685	366.07
875.866	-98.81
876.048	-8.7
876.229	-86.53
876.41	275.96
876.592	378.36
876.773	-31.23
876.954	-102.91
877.136	554.49
877.317	142.85
877.498	-82.43
877.679	60.93
877.86	407.03
878.042	192
878.223	-47.62
878.404	253.44
878.585	452.09
878.766	706.04
878.947	267.77
879.128	155.13
879.309	368.12
879.49	636.41
879.672	89.6
879.853	5.63
880.034	99.84
880.215	243.2
880.396	75.26
880.576	22.02
880.757	87.55
880.938	595.45
881.119	-109.05
881.3	-55.81
881.481	144.89
881.662	1048.05
881.843	-49.66
882.023	-131.58
882.204	368.12
882.385	271.87
882.566	15.87
882.747	-109.05
882.927	261.63
883.108	290.3
883.289	-31.23
883.469	157.18
883.65	241.15
883.831	269.82
884.011	232.96
884.192	19.97
884.373	511.48
884.553	343.55
884.734	157.18
884.914	257.53
885.095	904.69
885.275	648.69
885.456	310.78
885.636	-66.05
885.817	194.05
885.997	273.92
886.178	-41.47
886.358	118.27
886.538	335.35
886.719	1361.39
886.899	-86.53
887.08	56.83
887.26	515.58
887.44	24.06
887.621	-98.81
887.801	77.31
887.981	851.44
888.161	456.19
888.342	60.93
888.522	7.68
888.702	509.43
888.882	562.68
889.062	196.09
889.242	-217.6
889.423	599.54
889.603	415.23
889.783	237.05
889.963	77.31
890.143	425.47
890.323	583.16
890.503	-6.66
890.683	28.16
890.863	337.4
891.043	345.59
891.223	134.65
891.403	253.44
891.583	157.18
891.763	361.98
891.943	67.07
892.122	-27.14
892.302	226.81
892.482	261.63
892.662	144.89
892.842	60.93
893.022	413.18
893.201	171.52
893.381	187.9
893.561	-49.66
893.741	429.56
893.92	462.33
894.1	208.38
894.28	157.18
894.459	480.76
894.639	482.81
894.819	81.41
894.998	237.05
895.178	437.75
895.357	409.08
895.537	-45.57
895.716	-98.81
895.896	230.91
896.075	667.13
896.255	120.32
896.434	-139.77
896.614	499.19
896.793	706.04
896.973	196.09
897.152	208.38
897.331	519.67
897.511	574.97
897.69	-82.43
897.87	87.55
898.049	536.06
898.228	325.12
898.407	187.9
898.587	112.13
898.766	208.38
898.945	462.33
899.124	273.92
899.304	155.13
899.483	491
899.662	710.13
899.841	3.58
900.02	7.68
900.199	593.4
900.378	495.1
900.557	9.73
900.737	19.97
900.916	435.71
901.095	554.49
901.274	339.45
901.453	-23.04
901.632	130.56
901.811	169.47
901.989	62.98
902.168	110.08
902.347	443.9
902.526	179.71
902.705	17.92
902.884	204.28
903.063	556.54
903.242	630.26
903.42	-66.05
903.599	175.61
903.778	595.45
903.957	738.8
904.135	245.24
904.314	222.72
904.493	402.94
904.672	413.18
904.85	116.22
905.029	44.54
905.207	411.13
905.386	957.94
905.565	-35.33
905.743	87.55
905.922	222.72
906.1	531.96
906.279	-74.24
906.457	69.12
906.636	181.76
906.814	165.37
906.993	32.26
907.171	40.45
907.35	437.75
907.528	534.01
907.707	300.54
907.885	-35.33
908.063	667.13
908.242	126.46
908.42	114.17
908.598	-133.63
908.777	536.06
908.955	228.86
909.133	208.38
909.311	-35.33
909.49	192
909.668	204.28
909.846	24.06
910.024	-158.21
910.202	294.4
910.38	554.49
910.559	-39.42
910.737	79.36
910.915	384.51
911.093	433.66
911.271	85.5
911.449	247.29
911.627	366.07
911.805	749.04
911.983	85.5
912.161	75.26
912.339	368.12
912.517	658.93
912.695	235
912.872	99.84
913.05	132.61
913.228	474.62
913.406	134.65
913.584	-35.33
913.762	482.81
913.939	99.84
914.117	54.78
914.295	-98.81
914.473	493.05
914.65	488.95
914.828	151.04
915.006	3.58
915.184	132.61
915.361	474.62
915.539	237.05
915.716	253.44
915.894	433.66
916.072	581.11
916.249	302.59
916.427	198.14
916.604	24.06
916.782	378.36
916.959	-41.47
917.137	146.94
917.314	411.13
917.492	392.7
917.669	187.9
917.847	130.56
918.024	392.7
918.201	132.61
918.379	161.28
918.556	118.27
918.733	548.34
918.911	198.14
919.088	294.4
919.265	89.6
919.442	394.75
919.62	323.07
919.797	24.06
919.974	-39.42
920.151	347.64
920.328	357.88
920.506	110.08
920.683	245.24
920.86	120.32
921.037	204.28
921.214	138.75
921.391	-0.51
921.568	529.91
921.745	140.8
921.922	85.5
922.099	30.21
922.276	607.73
922.453	402.94
922.63	11.78
922.807	325.12
922.984	368.12
923.161	204.28
923.338	50.69
923.514	-33.28
923.691	359.93
923.868	429.56
924.045	93.69
924.222	32.26
924.399	368.12
924.575	589.3
924.752	220.67
924.929	175.61
925.105	499.19
925.282	177.66
925.459	93.69
925.635	32.26
925.812	368.12
925.989	108.03
926.165	177.66
926.342	-115.2
926.518	114.17
926.695	308.73
926.871	91.65
927.048	-57.86
927.224	464.38
927.401	228.86
927.577	105.98
927.754	-72.19
927.93	589.3
928.107	531.96
928.283	28.16
928.459	146.94
928.636	482.81
928.812	247.29
928.988	-51.71
929.165	-74.24
929.341	296.44
929.517	255.48
929.693	400.89
929.87	-164.35
930.046	447.99
930.222	200.19
930.398	-16.9
930.574	185.85
930.751	292.35
930.927	206.33
931.103	89.6
931.279	163.33
931.455	97.79
931.631	400.89
931.807	-172.54
931.983	-90.62
932.159	-45.57
932.335	271.87
932.511	167.42
932.687	40.45
932.863	343.55
933.039	392.7
933.215	-80.38
933.391	-29.18
933.566	175.61
933.742	392.7
933.918	79.36
934.094	-119.29
934.27	198.14
934.445	353.79
934.621	171.52
934.797	-88.57
934.973	491
935.148	378.36
935.324	32.26
935.5	-107.01
935.675	517.62
935.851	298.49
936.027	103.93
936.202	-0.51
936.378	421.37
936.553	216.57
936.729	462.33
936.904	-51.71
937.08	67.07
937.255	128.51
937.431	-29.18
937.606	-178.69
937.782	161.28
937.957	261.63
938.133	101.89
938.308	15.87
938.483	255.48
938.659	15.87
938.834	103.93
939.009	28.16
939.185	189.95
939.36	85.5
939.535	-240.12
939.71	85.5
939.886	558.58
940.061	325.12
940.236	161.28
940.411	-23.04
940.586	318.97
940.761	433.66
940.937	44.54
941.112	-72.19
941.287	196.09
941.462	208.38
941.637	-123.39
941.812	-49.66
941.987	310.78
942.162	204.28
942.337	62.98
942.512	36.35
942.687	429.56
942.862	392.7
943.037	-102.91
943.212	-334.33
943.386	189.95
943.561	273.92
943.736	134.65
943.911	232.96
944.086	333.31
944.26	288.25
944.435	-25.09
944.61	-8.7
944.785	460.28
944.959	703.99
945.134	77.31
945.309	-137.73
945.483	32.26
945.658	404.99
945.833	-291.32
946.007	-119.29
946.182	529.91
946.357	-82.43
946.531	-107.01
946.706	-20.99
946.88	-217.6
947.055	294.4
947.229	-170.49
947.404	-156.16
947.578	415.23
947.752	93.69
947.927	-137.73
948.101	-197.12
948.276	226.81
948.45	163.33
948.624	19.97
948.799	-80.38
948.973	294.4
949.147	-82.43
949.321	-20.99
949.496	-94.72
949.67	359.93
949.844	48.64
950.018	-49.66
950.193	-170.49
950.367	656.89
950.541	67.07
950.715	105.98
950.889	165.37
951.063	108.03
951.237	355.83
951.411	-293.37
951.585	-195.07
951.759	275.96
951.933	173.57
952.107	-133.63
952.281	138.75
952.455	495.1
952.629	390.65
952.803	-127.49
952.977	-121.34
953.151	407.03
953.325	310.78
953.499	105.98
953.672	-172.54
953.846	-25.09
954.02	67.07
954.194	-176.64
954.368	-61.95
954.541	302.59
954.715	-37.38
954.889	-47.62
955.062	-113.15
955.236	110.08
955.41	-4.61
955.583	28.16
955.757	-172.54
955.93	-4.61
956.104	-109.05
956.278	-84.48
956.451	-135.68
956.625	302.59
956.798	615.93
956.972	177.66
957.145	-131.58
957.319	153.09
957.492	122.37
957.665	114.17
957.839	-113.15
958.012	290.3
958.185	-23.04
958.359	-49.66
958.532	91.65
958.705	382.46
958.879	251.39
959.052	-8.7
959.225	-219.64
959.398	114.17
959.572	130.56
959.745	-107.01
959.918	-55.81
960.091	138.75
960.264	230.91
960.438	-170.49
960.611	-115.2
960.784	300.54
960.957	-45.57
961.13	359.93
961.303	-45.57
961.476	130.56
961.649	306.68
961.822	-139.77
961.995	-18.94
962.168	327.16
962.341	224.76
962.514	-84.48
962.686	-102.91
962.859	185.85
963.032	245.24
963.205	-203.26
963.378	-223.74
963.551	202.24
963.723	194.05
963.896	-33.28
964.069	179.71
964.242	128.51
964.414	357.88
964.587	-18.94
964.76	26.11
964.932	169.47
965.105	48.64
965.278	-78.33
965.45	-119.29
965.623	222.72
965.795	269.82
965.968	-133.63
966.14	-78.33
966.313	114.17
966.485	183.81
966.658	7.68
966.83	-201.21
967.003	364.03
967.175	321.02
967.348	-16.9
967.52	-33.28
967.692	427.51
967.865	278.01
968.037	-123.39
968.209	243.2
968.382	128.51
968.554	318.97
968.726	-102.91
968.898	-107.01
969.071	237.05
969.243	249.34
969.415	-49.66
969.587	1.54
969.759	605.69
969.932	331.26
970.104	-59.9
970.276	-266.75
970.448	83.45
970.62	-16.9
970.792	52.74
970.964	-78.33
971.136	589.3
971.308	292.35
971.48	-236.03
971.652	-82.43
971.824	468.47
971.996	56.83
972.168	-76.29
972.339	1.54
972.511	378.36
972.683	58.88
972.855	183.81
973.027	-64
973.199	202.24
973.37	355.83
973.542	89.6
973.714	54.78
973.886	163.33
974.057	372.22
974.229	-166.4
974.401	-164.35
974.572	-94.72
974.744	-311.8
974.915	-205.31
975.087	-184.83
975.259	409.08
975.43	22.02
975.602	-4.61
975.773	-133.63
975.945	34.3
976.116	282.11
976.288	-139.77
976.459	52.74
976.63	91.65
976.802	257.53
976.973	-152.06
977.145	161.28
977.316	546.3
977.487	259.58
977.659	1.54
977.83	-45.57
978.001	574.97
978.172	183.81
978.344	-57.86
978.515	3.58
978.686	36.35
978.857	443.9
979.028	-2.56
979.2	-170.49
979.371	384.51
979.542	138.75
979.713	110.08
979.884	-389.63
980.055	-8.7
980.226	69.12
980.397	-86.53
980.568	-256.51
980.739	417.27
980.91	124.41
981.081	15.87
981.252	-199.16
981.423	282.11
981.594	396.79
981.765	-139.77
981.936	-20.99
982.106	136.7
982.277	443.9
982.448	-90.62
982.619	60.93
982.79	81.41
982.96	388.6
983.131	-4.61
983.302	-254.46
983.472	71.17
983.643	185.85
983.814	9.73
983.984	-125.44
984.155	124.41
984.326	347.64
984.496	-33.28
984.667	-72.19
984.837	32.26
985.008	441.85
985.178	159.23
985.349	-53.76
985.519	134.65
985.69	-33.28
985.86	3.58
986.031	-180.73
986.201	247.29
986.371	308.73
986.542	-115.2
986.712	-373.24
986.882	298.49
987.053	351.74
987.223	-121.34
987.393	28.16
987.563	50.69
987.734	327.16
987.904	140.8
988.074	-115.2
988.244	222.72
988.414	15.87
988.585	-98.81
988.755	-0.51
988.925	159.23
989.095	511.48
989.265	-160.25
989.435	9.73
989.605	259.58
989.775	298.49
989.945	253.44
990.115	-180.73
990.285	161.28
990.455	208.38
990.625	-29.18
990.795	-78.33
990.965	458.23
991.134	11.78
991.304	-160.25
991.474	-233.98
991.644	216.57
991.814	486.9
991.984	-184.83
992.153	-184.83
992.323	204.28
992.493	159.23
992.662	-344.57
992.832	50.69
993.002	110.08
993.171	271.87
993.341	-229.88
993.511	15.87
993.68	-27.14
993.85	239.1
994.019	-174.59
994.189	-178.69
994.358	159.23
994.528	54.78
994.697	-387.58
994.867	-205.31
995.036	339.45
995.206	38.4
995.375	-160.25
995.544	-16.9
995.714	175.61
995.883	-6.66
996.052	5.63
996.222	-344.57
996.391	624.12
996.56	171.52
996.73	-176.64
996.899	-301.56
997.068	454.14
997.237	24.06
997.406	-246.27
997.576	-283.13
997.745	122.37
997.914	208.38
998.083	-354.81
998.252	-215.55
998.421	120.32
998.59	17.92
998.759	-211.45
998.928	-287.23
999.097	407.03
999.266	110.08
999.435	-37.38
999.604	-344.57
999.773	622.07
999.942	69.12
1000.111	-360.95
1000.28	-399.87
1000.448	-119.29
1000.617	-86.53
1000.786	15.87
1000.955	-332.28
1001.124	202.24
1001.292	744.95
1001.461	-180.73
1001.63	-233.98
1001.798	378.36
1001.967	376.31
1002.136	-295.42
1002.304	-213.5
1002.473	122.37
1002.642	165.37
1002.81	-170.49
1002.979	-342.52
1003.147	269.82
1003.316	626.17
1003.484	-207.36
1003.653	-324.09
1003.821	400.89
1003.99	110.08
1004.158	-150.01
1004.327	-123.39
1004.495	175.61
1004.663	-66.05
1004.832	-129.53
1005	-385.53
1005.168	282.11
1005.337	243.2
1005.505	-326.14
1005.673	-86.53
1005.842	196.09
1006.01	196.09
1006.178	-287.23
1006.346	-293.37
1006.514	228.86
1006.683	417.27
1006.851	-195.07
1007.019	-365.05
1007.187	-98.81
1007.355	-358.91
1007.523	-508.41
1007.691	-373.24
1007.859	-266.75
1008.027	370.17
1008.195	-176.64
1008.363	-315.9
1008.531	355.83
1008.699	-78.33
1008.867	-385.53
1009.035	-244.22
1009.203	329.21
1009.37	101.89
1009.538	-272.89
1009.706	224.76
1009.874	144.89
1010.042	75.26
1010.209	-418.3
1010.377	-236.03
1010.545	333.31
1010.713	118.27
1010.88	-246.27
1011.048	-190.97
1011.216	-8.7
1011.383	437.75
1011.551	-276.99
1011.718	-328.19
1011.886	271.87
1012.054	101.89
1012.221	-320
1012.389	-213.5
1012.556	95.74
1012.724	441.85
1012.891	-154.11
1013.058	-389.63
1013.226	198.14
1013.393	245.24
1013.561	-352.76
1013.728	-373.24
1013.895	269.82
1014.063	208.38
1014.23	-352.76
1014.397	-236.03
1014.565	306.68
1014.732	-86.53
1014.899	-346.62
1015.066	-342.52
1015.233	200.19
1015.401	271.87
1015.568	-268.8
1015.735	-80.38
1015.902	138.75
1016.069	114.17
1016.236	-158.21
1016.403	-307.71
1016.57	-104.96
1016.737	325.12
1016.904	-184.83
1017.071	-360.95
1017.238	-82.43
1017.405	321.02
1017.572	-188.93
1017.739	7.68
1017.906	124.41
1018.073	259.58
1018.24	-363
1018.407	-164.35
1018.573	382.46
1018.74	42.5
1018.907	-174.59
1019.074	-334.33
1019.241	271.87
1019.407	114.17
1019.574	-287.23
1019.741	-354.81
1019.907	126.46
1020.074	239.1
1020.241	-399.87
1020.407	-254.46
1020.574	302.59
1020.74	261.63
1020.907	-254.46
1021.073	-313.85
1021.24	591.35
1021.406	400.89
1021.573	-315.9
1021.739	-283.13
1021.906	275.96
1022.072	85.5
1022.239	-236.03
1022.405	-227.84
1022.571	81.41
1022.738	-90.62
1022.904	-391.67
1023.07	-219.64
1023.237	153.09
1023.403	347.64
1023.569	-260.6
1023.735	-270.84
1023.902	132.61
1024.068	210.43
1024.234	-303.61
1024.4	-264.7
1024.566	169.47
1024.732	316.92
1024.898	-229.88
1025.065	-371.19
1025.231	366.07
1025.397	-25.09
1025.563	-225.79
1025.729	-285.18
1025.895	-299.52
1026.061	-61.95
1026.227	-426.49
1026.392	-291.32
1026.558	292.35
1026.724	214.52
1026.89	-311.8
1027.056	-205.31
1027.222	206.33
1027.388	85.5
1027.553	-340.47
1027.719	-303.61
1027.885	511.48
1028.051	310.78
1028.216	-444.92
1028.382	-225.79
1028.548	269.82
1028.713	19.97
1028.879	-408.06
1029.045	-156.16
1029.21	441.85
1029.376	329.21
1029.541	-225.79
1029.707	-193.02
1029.873	189.95
1030.038	243.2
1030.204	-281.08
1030.369	-197.12
1030.534	257.53
1030.7	28.16
1030.865	-190.97
1031.031	-363
1031.196	198.14
1031.361	140.8
1031.527	-250.36
1031.692	-299.52
1031.857	-309.76
1032.023	292.35
1032.188	-320
1032.353	-186.88
1032.518	478.71
1032.684	192
1032.849	-371.19
1033.014	-162.3
1033.179	300.54
1033.344	261.63
1033.509	-139.77
1033.674	-305.66
1033.839	200.19
1034.004	321.02
1034.17	-258.56
1034.335	-338.43
1034.5	71.17
1034.664	-111.1
1034.829	-270.84
1034.994	-143.87
1035.159	202.24
1035.324	148.99
1035.489	-162.3
1035.654	-317.95
1035.819	427.51
1035.984	212.48
1036.148	-195.07
1036.313	-205.31
1036.478	290.3
1036.643	181.76
1036.807	-258.56
1036.972	-322.04
1037.137	511.48
1037.301	171.52
1037.466	-377.34
1037.631	-211.45
1037.795	339.45
1037.96	228.86
1038.124	-18.94
1038.289	-330.23
1038.454	323.07
1038.618	198.14
1038.783	-166.4
1038.947	-119.29
1039.111	216.57
1039.276	9.73
1039.44	-289.28
1039.605	208.38
1039.769	73.21
1039.933	134.65
1040.098	-133.63
1040.262	-8.7
1040.426	355.83
1040.591	286.2
1040.755	-291.32
1040.919	-238.08
1041.083	194.05
1041.248	101.89
1041.412	-352.76
1041.576	-283.13
1041.74	126.46
1041.904	376.31
1042.068	-211.45
1042.232	-229.88
1042.397	435.71
1042.561	275.96
1042.725	-479.74
1042.889	-98.81
1043.053	259.58
1043.217	282.11
1043.381	-158.21
1043.544	-295.42
1043.708	396.79
1043.872	-82.43
1044.036	-426.49
1044.2	-328.19
1044.364	433.66
1044.528	511.48
1044.691	2743.77
1044.855	-377.34
1045.019	452.09
1045.183	323.07
1045.346	-225.79
1045.51	-354.81
1045.674	292.35
1045.837	310.78
1046.001	-147.97
1046.165	-246.27
1046.328	728.56
1046.492	273.92
1046.655	-37.38
1046.819	-113.15
1046.983	95.74
1047.146	323.07
1047.31	-156.16
1047.473	-418.3
1047.636	230.91
1047.8	3.58
1047.963	-172.54
1048.127	-266.75
1048.29	-68.09
