Data from Ink_Intensity_USB4F045381__113__00113.txt Node

Date: Mon Jul 17 11:09:03 EDT 2023
User: mmckonesweet
Spectrometer: USB4F04538
Trigger mode: 4
Integration Time (sec): 9.000000E-1
Scans to average: 1
Electric dark correction enabled: true
Nonlinearity correction enabled: false
Boxcar width: 0
XAxis mode: Wavelengths
Number of Pixels in Spectrum: 3648
>>>>>Begin Spectral Data<<<<<
345.52	-1066.82
345.736	-1066.82
345.952	-1066.82
346.168	-1027.91
346.384	-1034.05
346.6	-24.4
346.816	-200.53
347.032	-178
347.248	323.75
347.464	-253.78
347.68	-151.38
347.896	98.47
348.112	362.66
348.328	-102.23
348.544	-110.42
348.76	-34.64
348.975	270.5
349.191	-223.06
349.407	-163.67
349.623	39.08
349.839	-46.93
350.055	-229.2
350.27	102.57
350.486	159.91
350.702	325.8
350.918	293.03
351.133	-210.77
351.349	90.28
351.565	360.61
351.781	-245.59
351.996	-24.4
352.212	301.22
352.428	-139.09
352.644	-173.91
352.859	-204.63
353.075	317.61
353.291	16.55
353.506	-149.33
353.722	-206.67
353.938	-145.24
354.153	407.72
354.369	22.7
354.584	-241.49
354.8	237.74
355.016	-350.03
355.231	-216.91
355.447	-40.79
355.662	121
355.878	802.97
356.093	-384.85
356.309	-118.61
356.524	-212.82
356.74	290.98
356.955	-231.25
357.171	-69.46
357.386	98.47
357.602	-180.05
357.817	-85.84
358.033	-196.43
358.248	352.42
358.464	145.58
358.679	-151.38
358.895	-378.7
359.11	-12.12
359.325	295.08
359.541	24.75
359.756	-36.69
359.972	-309.07
360.187	127.14
360.402	-241.49
360.618	-155.47
360.833	975
361.048	188.58
361.264	-223.06
361.479	-28.5
361.694	53.42
361.909	245.93
362.125	-171.86
362.34	-83.8
362.555	207.02
362.77	47.27
362.986	-282.45
363.201	-87.89
363.416	159.91
363.631	30.89
363.847	-208.72
364.062	-145.24
364.277	151.72
364.492	98.47
364.707	-180.05
364.922	-444.24
365.138	252.07
365.353	325.8
365.568	-282.45
365.783	-155.47
365.998	-30.55
366.213	553.12
366.428	-231.25
366.643	90.28
366.858	204.97
367.073	190.63
367.288	-200.53
367.503	-352.08
367.718	90.28
367.933	303.27
368.148	-259.92
368.363	-132.95
368.578	20.65
368.793	426.15
369.008	-161.62
369.223	-268.11
369.438	217.26
369.653	297.13
369.868	-309.07
370.083	-307.02
370.298	94.38
370.513	377
370.728	4.27
370.943	-225.11
371.157	-200.53
371.372	516.26
371.587	-354.13
371.802	-333.65
372.017	63.66
372.232	401.57
372.446	-130.9
372.661	-294.74
372.876	196.78
373.091	176.3
373.306	-75.6
373.52	-247.63
373.735	-225.11
373.95	381.09
374.165	-106.32
374.379	-208.72
374.594	-139.09
374.809	59.56
375.023	-12.12
375.238	-253.78
375.453	250.02
375.667	-313.17
375.882	-218.96
376.097	-186.19
376.311	0.17
376.526	-130.9
376.741	-300.88
376.955	53.42
377.17	467.11
377.384	643.23
377.599	-106.32
377.813	-317.26
378.028	598.18
378.242	176.3
378.457	-102.23
378.672	-448.33
378.886	37.03
379.101	8.36
379.315	-366.42
379.53	-165.71
379.744	157.86
379.958	227.5
380.173	-208.72
380.387	-233.3
380.602	69.8
380.816	-216.91
381.031	-200.53
381.245	-175.95
381.459	112.81
381.674	2707.59
381.888	-294.74
382.103	182.44
382.317	-190.29
382.531	393.38
382.746	-96.08
382.96	-135
383.174	-75.6
383.388	397.48
383.603	102.57
383.817	-270.16
384.031	153.77
384.246	448.68
384.46	-184.15
384.674	317.61
384.888	55.47
385.103	16.55
385.317	-237.39
385.531	-116.56
385.745	389.28
385.959	237.74
386.174	-307.02
386.388	-294.74
386.602	4.27
386.816	-178
387.03	-98.13
387.244	-196.43
387.458	63.66
387.672	252.07
387.887	-315.22
388.101	-259.92
388.315	417.96
388.529	77.99
388.743	-147.28
388.957	-184.15
389.171	325.8
389.385	-251.73
389.599	-147.28
389.813	4.27
390.027	114.86
390.241	618.66
390.455	-126.8
390.669	-135
390.883	-61.27
391.097	342.18
391.311	-102.23
391.525	-243.54
391.738	209.06
391.952	112.81
392.166	-85.84
392.38	-223.06
392.594	274.6
392.808	323.75
393.022	-184.15
393.236	-216.91
393.449	170.15
393.663	112.81
393.877	-229.2
394.091	-85.84
394.305	-192.34
394.518	-118.61
394.732	-319.31
394.946	-155.47
395.16	432.29
395.373	53.42
395.587	-378.7
395.801	-151.38
396.015	282.79
396.228	131.24
396.442	-315.22
396.656	-315.22
396.869	299.17
397.083	463.01
397.297	-114.52
397.51	-188.24
397.724	360.61
397.938	73.9
398.151	-339.79
398.365	-315.22
398.578	188.58
398.792	362.66
399.005	-44.88
399.219	-206.67
399.433	143.53
399.646	217.26
399.86	0.17
400.073	-22.36
400.287	211.11
400.5	-67.41
400.714	-51.03
400.927	-118.61
401.141	219.3
401.354	1081.5
401.567	194.73
401.781	-286.54
401.994	202.92
402.208	585.89
402.421	-135
402.635	-175.95
402.848	-20.31
403.061	250.02
403.275	-135
403.488	-235.35
403.701	465.06
403.915	231.59
404.128	-67.41
404.341	-130.9
404.555	166.06
404.768	-16.21
404.981	45.23
405.195	-159.57
405.408	555.17
405.621	174.25
405.834	-20.31
406.048	-173.91
406.261	399.52
406.474	487.59
406.687	-249.68
406.9	-20.31
407.114	10.41
407.327	176.3
407.54	-255.83
407.753	-339.79
407.966	-126.8
408.179	133.29
408.392	-257.87
408.605	-300.88
408.819	172.2
409.032	127.14
409.245	-192.34
409.458	28.84
409.671	131.24
409.884	200.87
410.097	-397.14
410.31	-8.02
410.523	245.93
410.736	30.89
410.949	-130.9
411.162	-135
411.375	383.14
411.588	231.59
411.801	10.41
412.014	-237.39
412.227	98.47
412.44	-188.24
412.653	-208.72
412.865	-65.36
413.078	221.35
413.291	168.1
413.504	-122.71
413.717	-270.16
413.93	198.82
414.143	-210.77
414.356	-233.3
414.568	-337.74
414.781	266.41
414.994	69.8
415.207	-83.8
415.42	-75.6
415.632	170.15
415.845	506.02
416.058	-315.22
416.271	-350.03
416.483	110.76
416.696	495.78
416.909	-216.91
417.121	-233.3
417.334	157.86
417.547	487.59
417.759	-233.3
417.972	-214.87
418.185	-85.84
418.397	278.69
418.61	-245.59
418.823	-255.83
419.035	405.67
419.248	-30.55
419.46	-132.95
419.673	-22.36
419.885	202.92
420.098	0.17
420.311	-184.15
420.523	-354.13
420.736	112.81
420.948	-24.4
421.161	-173.91
421.373	-393.04
421.586	217.26
421.798	-120.66
422.01	-374.61
422.223	-32.6
422.435	-30.55
422.648	192.68
422.86	-221.01
423.073	-192.34
423.285	301.22
423.497	-264.02
423.71	-186.19
423.922	-239.44
424.134	159.91
424.347	360.61
424.559	26.79
424.771	161.96
424.984	24.75
425.196	200.87
425.408	-327.5
425.621	-255.83
425.833	293.03
426.045	372.9
426.257	-286.54
426.47	-239.44
426.682	110.76
426.894	139.43
427.106	-204.63
427.318	-98.13
427.531	-173.91
427.743	151.72
427.955	-159.57
428.167	290.98
428.379	166.06
428.591	-28.5
428.804	-69.46
429.016	-270.16
429.228	-122.71
429.44	75.95
429.652	16.55
429.864	-278.35
430.076	59.56
430.288	-184.15
430.5	-32.6
430.712	-96.08
430.924	299.17
431.136	45.23
431.348	-319.31
431.56	-239.44
431.772	55.47
431.984	-75.6
432.196	-261.97
432.408	-216.91
432.62	-75.6
432.832	180.39
433.044	12.46
433.256	-96.08
433.468	215.21
433.679	-221.01
433.891	-270.16
434.103	-46.93
434.315	426.15
434.527	213.16
434.739	-36.69
434.95	-186.19
435.162	245.93
435.374	-89.94
435.586	-98.13
435.798	-257.87
436.009	-282.45
436.221	-61.27
436.433	-239.44
436.645	-96.08
436.856	-98.13
437.068	278.69
437.28	-147.28
437.491	135.34
437.703	172.2
437.915	59.56
438.126	-182.1
438.338	88.23
438.55	-36.69
438.761	121
438.973	-102.23
439.184	-169.81
439.396	-1.88
439.608	247.97
439.819	-235.35
440.031	-51.03
440.242	200.87
440.454	256.17
440.665	-198.48
440.877	-120.66
441.088	217.26
441.3	-46.93
441.511	-323.41
441.723	-204.63
441.934	184.49
442.146	28.84
442.357	-3.93
442.569	178.34
442.78	69.8
442.991	436.39
443.203	174.25
443.414	-319.31
443.626	424.1
443.837	-116.56
444.048	-370.51
444.26	-352.08
444.471	77.99
444.682	219.3
444.894	-393.04
445.105	-368.46
445.316	323.75
445.528	268.45
445.739	-79.7
445.95	-108.37
446.161	102.57
446.373	323.75
446.584	-151.38
446.795	-194.39
447.006	217.26
447.217	405.67
447.429	-294.74
447.64	-276.31
447.851	350.37
448.062	98.47
448.273	-399.18
448.484	-147.28
448.695	325.8
448.907	6.31
449.118	-53.08
449.329	49.32
449.54	-65.36
449.751	-229.2
449.962	-175.95
450.173	-190.29
450.384	329.89
450.595	350.37
450.806	-190.29
451.017	-249.68
451.228	475.3
451.439	307.37
451.65	-198.48
451.861	-343.89
452.072	-192.34
452.283	12.46
452.494	2.22
452.705	-139.09
452.915	413.86
453.126	118.95
453.337	-71.51
453.548	-264.02
453.759	221.35
453.97	575.65
454.181	131.24
454.391	-237.39
454.602	172.2
454.813	151.72
455.024	-94.04
455.235	-237.39
455.445	245.93
455.656	147.62
455.867	-28.5
456.078	-167.76
456.288	-3.93
456.499	88.23
456.71	-266.07
456.921	14.51
457.131	260.26
457.342	37.03
457.553	-48.98
457.763	-59.22
457.974	204.97
458.184	295.08
458.395	-149.33
458.606	-259.92
458.816	372.9
459.027	524.45
459.237	53.42
459.448	-354.13
459.659	282.79
459.869	606.37
460.08	-296.78
460.29	-14.17
460.501	518.31
460.711	49.32
460.922	-321.36
461.132	-130.9
461.343	784.54
461.553	-135
461.764	-184.15
461.974	-237.39
462.184	307.37
462.395	192.68
462.605	-63.32
462.816	-221.01
463.026	219.3
463.236	424.1
463.447	-165.71
463.657	-167.76
463.867	370.85
464.078	77.99
464.288	-46.93
464.498	-218.96
464.709	161.96
464.919	61.61
465.129	-118.61
465.339	-188.24
465.55	260.26
465.76	381.09
465.97	-139.09
466.18	-81.75
466.391	360.61
466.601	225.45
466.811	-67.41
467.021	-276.31
467.231	155.82
467.441	364.71
467.651	-98.13
467.862	-413.52
468.072	106.67
468.282	487.59
468.492	-202.58
468.702	20.65
468.912	110.76
469.122	743.58
469.332	141.48
469.542	-175.95
469.752	305.32
469.962	225.45
470.172	-167.76
470.382	-149.33
470.592	381.09
470.802	434.34
471.012	102.57
471.222	-110.42
471.432	377
471.642	315.56
471.852	18.6
472.062	-196.43
472.272	151.72
472.482	-98.13
472.691	-141.14
472.901	-194.39
473.111	184.49
473.321	702.62
473.531	-48.98
473.741	151.72
473.95	282.79
474.16	317.61
474.37	22.7
474.58	-132.95
474.79	684.19
474.999	440.48
475.209	-42.84
475.419	-1.88
475.628	86.19
475.838	377
476.048	12.46
476.258	-153.43
476.467	600.23
476.677	112.81
476.886	143.53
477.096	28.84
477.306	47.27
477.515	493.73
477.725	88.23
477.935	71.85
478.144	637.09
478.354	184.49
478.563	92.33
478.773	-36.69
478.982	448.68
479.192	524.45
479.401	164.01
479.611	-57.17
479.82	-55.12
480.03	368.81
480.239	32.94
480.449	-69.46
480.658	600.23
480.868	73.9
481.077	104.62
481.287	8.36
481.496	417.96
481.705	647.33
481.915	401.57
482.124	254.12
482.333	397.48
482.543	680.1
482.752	145.58
482.961	84.14
483.171	587.94
483.38	262.31
483.589	161.96
483.799	71.85
484.008	368.81
484.217	565.41
484.426	190.63
484.636	-36.69
484.845	338.09
485.054	43.18
485.263	510.11
485.472	153.77
485.682	721.06
485.891	450.72
486.1	-1.88
486.309	161.96
486.518	497.83
486.727	778.4
486.936	84.14
487.146	323.75
487.355	766.11
487.564	204.97
487.773	202.92
487.982	135.34
488.191	366.76
488.4	460.96
488.609	225.45
488.818	262.31
489.027	972.96
489.236	753.82
489.445	229.54
489.654	170.15
489.863	735.39
490.072	503.97
490.281	606.37
490.49	323.75
490.698	899.23
490.907	841.89
491.116	319.65
491.325	61.61
491.534	874.65
491.743	598.18
491.952	282.79
492.16	221.35
492.369	571.55
492.578	841.89
492.787	315.56
492.996	151.72
493.204	331.94
493.413	987.29
493.622	129.19
493.831	106.67
494.039	819.36
494.248	282.79
494.457	368.81
494.665	166.06
494.874	768.16
495.083	1110.17
495.291	407.72
495.5	290.98
495.709	739.49
495.917	661.66
496.126	479.4
496.335	229.54
496.543	463.01
496.752	686.24
496.96	561.31
497.169	170.15
497.377	596.13
497.586	848.03
497.794	553.12
498.003	184.49
498.211	589.99
498.42	997.53
498.628	501.92
498.837	422.05
499.045	735.39
499.254	731.3
499.462	397.48
499.671	268.45
499.879	1081.5
500.087	975
500.296	407.72
500.504	448.68
500.713	780.45
500.921	1210.52
501.129	432.29
501.338	393.38
501.546	755.87
501.754	759.97
501.962	387.24
502.171	313.51
502.379	837.79
502.587	1085.59
502.795	434.34
503.004	493.73
503.212	778.4
503.42	993.44
503.628	604.32
503.837	544.93
504.045	860.32
504.253	1110.17
504.461	444.58
504.669	448.68
504.877	972.96
505.085	1130.65
505.294	393.38
505.502	764.06
505.71	882.85
505.918	1038.49
506.126	440.48
506.334	553.12
506.542	919.71
506.75	839.84
506.958	676
507.166	659.62
507.374	800.93
507.582	1321.11
507.79	755.87
507.998	587.94
508.206	905.37
508.414	987.29
508.622	620.71
508.83	635.04
509.037	1218.71
509.245	766.11
509.453	610.47
509.661	489.64
509.869	1036.44
510.077	854.17
510.285	815.26
510.492	401.57
510.7	1523.86
510.908	757.92
511.116	714.91
511.324	569.51
511.531	868.51
511.739	999.58
511.947	831.65
512.155	923.8
512.362	1050.78
512.57	710.82
512.778	630.95
512.985	422.05
513.193	1196.18
513.401	1345.69
513.608	792.73
513.816	669.86
514.024	1183.9
514.231	1351.83
514.439	702.62
514.646	774.3
514.854	1274.01
515.061	1312.92
515.269	686.24
515.477	692.38
515.684	868.51
515.892	1259.67
516.099	659.62
516.307	610.47
516.514	1183.9
516.722	1470.61
516.929	751.78
517.136	723.1
517.344	1392.79
517.551	1126.55
517.759	757.92
517.966	737.44
518.173	1034.39
518.381	1204.38
518.588	841.89
518.796	794.78
519.003	1417.37
519.21	1081.5
519.418	807.07
519.625	1163.42
519.832	1032.35
520.039	1187.99
520.247	741.54
520.454	843.93
520.661	1450.13
520.868	1405.08
521.076	954.52
521.283	917.66
521.49	1806.48
521.697	1300.63
521.904	897.18
522.112	905.37
522.319	1413.27
522.526	1226.9
522.733	952.48
522.94	917.66
523.147	1290.39
523.354	1364.12
523.561	850.08
523.768	1056.92
523.975	1448.08
524.183	1200.28
524.39	1085.59
524.597	864.41
524.804	1255.58
525.011	1134.75
525.218	995.48
525.425	950.43
525.632	1622.16
525.838	1077.4
526.045	999.58
526.252	1005.72
526.459	2474.12
526.666	2162.83
526.873	1028.25
527.08	1036.44
527.287	1699.98
527.494	1611.92
527.701	958.62
527.907	1087.64
528.114	1581.2
528.321	1317.01
528.528	1163.42
528.735	1126.55
528.941	1247.38
529.148	1290.39
529.355	1257.62
529.562	1122.46
529.768	1831.05
529.975	1325.21
530.182	1104.03
530.388	1196.18
530.595	1693.84
530.802	1224.86
531.008	1294.49
531.215	1239.19
531.422	1851.53
531.628	2283.66
531.835	1259.67
532.042	1321.11
532.248	1294.49
532.455	1536.15
532.661	1263.77
532.868	1243.29
533.074	1679.51
533.281	1753.23
533.487	1343.64
533.694	1271.96
533.9	1364.12
534.107	1740.94
534.313	1218.71
534.52	1114.27
534.726	1808.53
534.933	2054.28
535.139	1286.3
535.345	1220.76
535.552	1716.37
535.758	1530
535.965	1431.7
536.171	1339.54
536.377	1786
536.584	2035.85
536.79	1421.46
536.996	1429.65
537.203	1863.82
537.409	1904.78
537.615	1413.27
537.821	1675.41
538.028	1898.64
538.234	1847.44
538.44	1503.38
538.646	1429.65
538.853	1898.64
539.059	1568.91
539.265	1880.21
539.471	1257.62
539.677	1904.78
539.883	1753.23
540.09	1491.09
540.296	1931.41
540.502	1765.52
540.708	1560.72
540.914	1755.28
541.12	1497.24
541.326	1851.53
541.532	1790.1
541.738	1640.59
541.944	1556.63
542.15	2095.24
542.356	1732.75
542.562	1603.73
542.768	1718.42
542.974	2379.91
543.18	2402.44
543.386	1482.9
543.592	1403.03
543.798	2199.69
544.004	2070.67
544.21	1697.94
544.415	1695.89
544.621	2060.43
544.827	2259.08
545.033	1503.38
545.239	1859.73
545.445	1779.86
545.651	1982.6
545.856	1761.42
546.062	1695.89
546.268	1953.93
546.474	2111.63
546.679	1800.34
546.885	1849.49
547.091	2015.37
547.297	2584.71
547.502	1874.06
547.708	1601.68
547.914	1980.56
548.119	2281.61
548.325	1630.35
548.531	1620.11
548.736	2480.26
548.942	1929.36
549.147	1689.74
549.353	2021.52
549.559	2322.57
549.764	2177.16
549.97	1867.92
550.175	1863.82
550.381	2400.39
550.586	2128.01
550.792	1910.93
550.997	1822.86
551.203	2275.46
551.408	2267.27
551.614	1888.4
551.819	1884.3
552.025	2711.68
552.23	2846.85
552.435	1878.16
552.641	2187.4
552.846	2097.29
553.052	2621.57
553.257	2224.26
553.462	2023.56
553.668	2203.79
553.873	2666.63
554.078	1949.84
554.283	1859.73
554.489	2457.73
554.694	2310.28
554.899	2054.28
555.105	2193.55
555.31	2545.8
555.515	2482.31
555.72	2146.44
555.925	2044.04
556.131	2560.13
556.336	2328.71
556.541	2201.74
556.746	2107.53
556.951	2758.78
557.156	2687.11
557.361	2312.33
557.567	2314.38
557.772	2969.73
557.977	2537.6
558.182	2171.02
558.387	2269.32
558.592	2447.49
558.797	2859.14
559.002	2254.98
559.207	2359.43
559.412	2599.04
559.617	3014.78
559.822	2228.36
560.027	2191.5
560.232	2619.52
560.437	2666.63
560.642	2201.74
560.847	2173.07
561.051	2588.8
561.256	2648.19
561.461	2453.64
561.666	2168.97
561.871	2683.01
562.076	2828.42
562.281	2484.36
562.485	2179.21
562.69	2883.71
562.895	2832.51
563.1	2379.91
563.305	2349.19
563.509	3061.88
563.714	3303.54
563.919	2398.34
564.123	2558.08
564.328	2629.76
564.533	3051.64
564.737	2396.29
564.942	2545.8
565.147	3174.52
565.351	3321.98
565.556	2646.15
565.761	2642.05
565.965	2846.85
566.17	2689.15
566.374	2482.31
566.579	2517.12
566.784	2852.99
566.988	2717.83
567.193	2392.2
567.397	2635.91
567.602	2674.82
567.806	2936.96
568.011	2494.6
568.215	2668.67
568.42	2781.31
568.624	2883.71
568.828	2732.16
569.033	2773.12
569.237	3197.05
569.442	3051.64
569.646	2687.11
569.85	2728.07
570.055	2971.77
570.259	2945.15
570.463	2881.66
570.668	2697.35
570.872	3053.69
571.076	3070.08
571.281	2834.56
571.485	2896
571.689	2982.01
571.893	3184.76
572.098	2953.34
572.302	2869.37
572.506	3246.2
572.71	3092.6
572.914	2861.18
573.119	2795.65
573.323	3514.49
573.527	3446.9
573.731	2885.76
573.935	2896
574.139	3266.68
574.343	3051.64
574.547	2965.63
574.751	3065.98
574.955	3588.21
575.159	3487.86
575.364	2867.33
575.568	2777.22
575.772	3240.06
575.976	3424.37
576.18	2830.46
576.383	2754.69
576.587	3547.25
576.791	3375.22
576.995	2744.45
577.199	2785.41
577.403	3524.72
577.607	3526.77
577.811	3043.45
578.015	2990.21
578.219	3424.37
578.422	3461.24
578.626	3207.29
578.83	3281.02
579.034	3580.02
579.238	3446.9
579.442	2973.82
579.645	3543.16
579.849	3491.96
580.053	3575.92
580.257	3227.77
580.46	3266.68
580.664	3713.14
580.868	3502.2
581.071	3467.38
581.275	3442.81
581.479	3195
581.682	3666.03
581.886	3166.33
582.09	3281.02
582.293	3821.68
582.497	3696.75
582.7	3459.19
582.904	3455.09
583.107	3502.2
583.311	3545.2
583.515	3422.33
583.718	3356.79
583.922	3756.15
584.125	4192.36
584.329	3332.22
584.532	3444.85
584.735	4010.09
584.939	3756.15
585.142	3164.28
585.346	3494.01
585.549	3846.26
585.753	3731.57
585.956	3539.06
586.159	3702.9
586.363	4194.41
586.566	3934.32
586.769	3559.54
586.973	3393.65
587.176	3799.15
587.379	4186.22
587.582	3899.5
587.786	3827.82
587.989	3754.1
588.192	4595.81
588.395	3610.74
588.599	3897.46
588.802	4034.67
589.005	4006
589.208	3692.66
589.411	3608.69
589.615	4096.11
589.818	4479.08
590.021	4145.26
590.224	3768.43
590.427	4200.55
590.63	4264.04
590.833	3631.22
591.036	3817.58
591.239	4006
591.442	3833.97
591.645	3936.37
591.848	3887.22
592.051	4184.17
592.254	4270.19
592.457	3879.02
592.66	4010.09
592.863	3991.66
593.066	4333.67
593.269	3907.7
593.472	3938.41
593.675	3985.52
593.878	4477.03
594.081	3985.52
594.284	3838.06
594.486	4354.15
594.689	4247.66
594.892	4075.63
595.095	4083.82
595.298	4370.54
595.5	4151.4
595.703	3969.13
595.906	4255.85
596.109	4657.25
596.311	4604
596.514	3772.53
596.717	4233.32
596.92	4614.24
597.122	4479.08
597.325	3934.32
597.528	4100.2
597.73	4841.57
597.933	4341.86
598.136	4137.07
598.338	3993.71
598.541	4780.13
598.743	4665.44
598.946	4130.92
599.148	4075.63
599.351	4882.53
599.554	4702.31
599.756	4485.22
599.959	4286.57
600.161	4829.28
600.363	5265.5
600.566	4767.84
600.768	4448.36
600.971	5068.89
601.173	4722.79
601.376	4337.77
601.578	4370.54
601.78	4853.86
601.983	5298.27
602.185	4178.03
602.388	4683.88
602.59	4833.38
602.792	4708.45
602.995	4659.3
603.197	4411.5
603.399	4972.64
603.601	4804.71
603.804	4485.22
604.006	4565.09
604.208	4821.09
604.41	4513.89
604.613	4862.05
604.815	4501.61
605.017	5316.7
605.219	4659.3
605.421	5038.17
605.623	4544.61
605.826	5177.44
606.028	5261.4
606.23	4692.07
606.432	4587.62
606.634	5339.23
606.836	5255.26
607.038	4532.33
607.24	4847.71
607.442	5032.03
607.644	4937.82
607.846	4696.16
608.048	4577.38
608.25	5263.45
608.452	4913.25
608.654	4941.92
608.856	4489.32
609.058	5011.55
609.26	5122.14
609.462	4917.34
609.664	4857.95
609.866	5646.42
610.067	5277.79
610.269	4958.3
610.471	4718.69
610.673	5058.65
610.875	5351.51
611.077	4671.59
611.278	4894.82
611.48	5255.26
611.682	5445.72
611.884	5013.6
612.085	5003.36
612.287	4958.3
612.489	5388.38
612.69	4786.27
612.892	5058.65
613.094	5574.74
613.295	5390.42
613.497	4874.34
613.699	5034.08
613.9	5509.21
614.102	5546.07
614.304	4989.02
614.505	4900.96
614.707	5324.89
614.908	5447.77
615.11	4993.12
615.311	5029.98
615.513	5474.39
615.714	5505.11
615.916	5105.76
616.117	5290.07
616.319	5476.44
616.52	5455.96
616.722	5134.43
616.923	5099.61
617.124	5742.68
617.326	5396.57
617.527	5247.07
617.729	5353.56
617.93	5777.49
618.131	5734.48
618.333	5197.92
618.534	5216.35
618.735	5355.61
618.937	5896.27
619.138	5238.87
619.339	5169.24
619.54	5494.87
619.742	5544.02
619.943	5425.24
620.144	5441.62
620.345	5769.3
620.546	5787.73
620.748	5206.11
620.949	5269.59
621.15	5689.43
621.351	5589.08
621.552	5236.83
621.753	5109.85
621.954	5281.88
622.155	6256.72
622.356	5392.47
622.558	5632.08
622.759	5658.71
622.96	5959.76
623.161	5386.33
623.362	5470.3
623.563	5861.46
623.764	5810.26
623.965	5421.14
624.166	5623.89
624.366	5730.39
624.567	5781.59
624.768	5337.18
624.969	5394.52
625.17	5640.28
625.371	5859.41
625.572	5591.13
625.773	5431.38
625.973	6017.1
626.174	5920.85
626.375	5611.61
626.576	5705.81
626.777	6043.73
626.977	6344.78
627.178	5621.84
627.379	5781.59
627.58	5697.62
627.78	5906.51
627.981	5537.88
628.182	5652.56
628.382	6312.01
628.583	5734.48
628.784	5535.83
628.984	5861.46
629.185	6015.05
629.386	6275.15
629.586	5806.16
629.787	5763.15
629.987	6414.41
630.188	5953.62
630.388	5984.34
630.589	5703.76
630.79	6492.23
630.99	6160.46
631.191	6017.1
631.391	5961.81
631.591	6379.59
631.792	6631.49
631.992	6131.79
632.193	6164.56
632.393	6500.42
632.594	6197.32
632.794	5787.73
632.994	6193.23
633.195	6332.49
633.395	6414.41
633.595	5894.22
633.796	6154.32
633.996	6180.94
634.196	6697.03
634.397	6025.29
634.597	6168.65
634.797	5988.43
634.997	6651.97
635.198	6309.96
635.398	6045.77
635.598	6410.31
635.798	6694.98
635.998	6535.24
636.199	5974.1
636.399	6348.87
636.599	6000.72
636.799	6201.42
636.999	6479.94
637.199	6557.77
637.399	6862.91
637.599	6201.42
637.799	6256.72
637.999	6428.74
638.199	6934.59
638.399	6053.97
638.599	6139.98
638.799	6697.03
638.999	7118.91
639.199	6563.91
639.399	6379.59
639.599	6893.63
639.799	6346.83
639.999	6283.34
640.199	6363.21
640.399	6754.37
640.599	6527.05
640.799	6471.75
640.998	6594.63
641.198	6948.93
641.398	6783.04
641.598	6584.39
641.798	6572.1
641.997	7591.99
642.197	6654.02
642.397	6455.37
642.597	6510.66
642.796	6893.63
642.996	7182.4
643.196	6559.81
643.395	6387.79
643.595	6877.25
643.795	6416.46
643.994	6584.39
644.194	6586.44
644.394	7088.19
644.593	6948.93
644.793	6623.3
644.992	6742.08
645.192	7006.27
645.392	6527.05
645.591	6936.64
645.791	6713.41
645.99	7114.81
646.19	7188.54
646.389	6656.07
646.589	6789.19
646.788	7217.21
646.987	7061.57
647.187	7100.48
647.386	7032.9
647.586	7002.18
647.785	7170.11
647.984	6785.09
648.184	6721.6
648.383	6897.73
648.582	7067.71
648.782	6987.84
648.981	6926.4
649.18	6840.39
649.38	7098.43
649.579	6910.02
649.778	6869.06
649.977	7290.94
650.177	7522.36
650.376	6959.17
650.575	6907.97
650.774	7553.08
650.973	7233.6
651.173	6617.16
651.372	7133.25
651.571	7311.42
651.77	7581.75
651.969	6953.02
652.168	7125.05
652.367	6979.65
652.566	7335.99
652.765	7026.75
652.964	7413.82
653.163	7778.36
653.362	7252.03
653.561	7157.82
653.76	7172.16
653.959	7442.49
654.158	7542.84
654.357	7393.34
654.556	7321.66
654.755	7553.08
654.954	7702.58
655.153	7264.32
655.352	7508.02
655.551	7788.6
655.749	7358.52
655.948	7403.58
656.147	7305.28
656.346	7714.87
656.545	7342.14
656.743	7237.69
656.942	7483.45
657.141	7594.04
657.34	7383.1
657.538	7340.09
657.737	7239.74
657.936	7557.18
658.135	7686.2
658.333	7528.5
658.532	7639.09
658.731	8071.22
658.929	7938.1
659.128	7706.68
659.326	7321.66
659.525	7950.39
659.724	7788.6
659.922	7344.19
660.121	7360.57
660.319	7878.71
660.518	7538.74
660.716	7434.3
660.915	7469.11
661.113	8138.8
661.312	7422.01
661.51	7753.78
661.709	7557.18
661.907	8132.65
662.105	8208.43
662.304	7680.05
662.502	7600.18
662.701	8089.65
662.899	7553.08
663.097	8003.63
663.296	7548.98
663.494	8153.13
663.692	8230.96
663.891	7379
664.089	7673.91
664.287	7964.72
664.485	8355.88
664.684	7772.21
664.882	7657.53
665.08	8005.68
665.278	8032.3
665.476	7735.35
665.675	8083.5
665.873	8503.34
666.071	8253.48
666.269	7690.29
666.467	8003.63
666.665	8106.03
666.863	8106.03
667.061	8022.06
667.259	7921.71
667.457	8185.9
667.655	8220.72
667.853	7761.97
668.051	7854.13
668.249	7800.88
668.447	8282.16
668.645	7825.46
668.843	8220.72
669.041	8400.94
669.239	7993.39
669.437	8093.74
669.635	8046.64
669.833	7905.33
670.031	8364.08
670.229	8165.42
670.426	8093.74
670.624	8181.81
670.822	8079.41
671.02	7856.18
671.218	7925.81
671.415	8017.97
671.613	8368.17
671.811	8239.15
672.009	7954.48
672.206	8521.77
672.404	8452.14
672.602	8288.3
672.799	8245.29
672.997	8417.32
673.195	8519.72
673.392	8165.42
673.59	8126.51
673.788	8601.64
673.985	7778.36
674.183	8314.92
674.38	8093.74
674.578	8521.77
674.775	8036.4
674.973	7921.71
675.17	8087.6
675.368	8732.71
675.565	8579.11
675.763	8020.02
675.96	7987.25
676.158	8577.06
676.355	8353.84
676.553	8155.18
676.75	8087.6
676.947	8554.54
677.145	8208.43
677.342	8462.38
677.539	8058.93
677.737	8501.29
677.934	8722.47
678.131	8378.41
678.329	8146.99
678.526	8861.73
678.723	8558.63
678.92	8282.16
679.118	8241.2
679.315	8372.27
679.512	8851.49
679.709	8548.39
679.906	8294.44
680.104	8857.64
680.301	8536.1
680.498	8101.94
680.695	8149.04
680.892	8329.26
681.089	8448.04
681.286	8257.58
681.483	7999.54
681.68	8781.86
681.877	8921.12
682.075	8331.31
682.272	8482.86
682.469	8638.5
682.665	8347.69
682.862	8134.7
683.059	8118.32
683.256	8683.56
683.453	8642.6
683.65	8486.95
683.847	8386.6
684.044	8599.59
684.241	8579.11
684.438	8503.34
684.635	8271.92
684.831	9111.58
685.028	9179.17
685.225	8314.92
685.422	8542.25
685.619	8558.63
685.815	8458.28
686.012	8540.2
686.209	8417.32
686.405	8581.16
686.602	8966.18
686.799	8304.68
686.996	8216.62
687.192	8333.36
687.389	9183.26
687.586	8380.46
687.782	8472.62
687.979	9062.43
688.175	8937.51
688.372	8603.69
688.568	8509.48
688.765	8532.01
688.962	9021.47
689.158	8753.19
689.355	8310.83
689.551	9009.19
689.748	8675.37
689.944	8542.25
690.14	8278.06
690.337	8939.55
690.533	8626.22
690.73	8589.35
690.926	8826.92
691.123	8867.88
691.319	8572.97
691.515	8165.42
691.712	8800.29
691.908	8810.53
692.104	8882.21
692.301	8712.23
692.497	8388.65
692.693	8908.83
692.889	8892.45
693.086	8433.71
693.282	8546.34
693.478	8564.78
693.674	9197.6
693.87	8564.78
694.067	8630.31
694.263	8953.89
694.459	8730.66
694.655	8814.63
694.851	8767.52
695.047	8998.95
695.243	9054.24
695.439	8861.73
695.635	8609.83
695.831	8912.93
696.027	8798.24
696.224	8636.45
696.42	8712.23
696.615	9146.4
696.811	8982.56
697.007	8310.83
697.203	8405.03
697.399	8957.99
697.595	9009.19
697.791	8644.65
697.987	8749.09
698.183	8663.08
698.379	8718.37
698.575	8808.48
698.77	8685.61
698.966	9017.38
699.162	9072.67
699.358	8765.48
699.554	8691.75
699.749	9168.93
699.945	9039.9
700.141	8845.35
700.337	8828.96
700.532	9007.14
700.728	8812.58
700.924	8632.36
701.119	8577.06
701.315	8984.61
701.511	8849.44
701.706	8937.51
701.902	8685.61
702.097	8882.21
702.293	9117.73
702.489	8783.91
702.684	8609.83
702.88	8957.99
703.075	8808.48
703.271	8720.42
703.466	8831.01
703.662	9041.95
703.857	9218.08
704.053	8577.06
704.248	8775.72
704.443	9109.54
704.639	9302.04
704.834	8876.07
705.03	8804.39
705.225	9308.19
705.42	9244.7
705.616	9005.09
705.811	8548.39
706.006	8929.31
706.202	8892.45
706.397	8923.17
706.592	8542.25
706.787	9195.55
706.983	8921.12
707.178	9248.8
707.373	8892.45
707.568	9099.3
707.763	9265.18
707.959	8919.07
708.154	8812.58
708.349	9140.26
708.544	9101.34
708.739	9121.82
708.934	8822.82
709.129	9078.82
709.324	9394.2
709.519	8757.29
709.714	8804.39
709.909	9404.44
710.104	9279.52
710.299	8802.34
710.494	9082.91
710.689	9127.97
710.884	9074.72
711.079	8951.84
711.274	9160.73
711.469	9277.47
711.664	9179.17
711.859	8890.4
712.054	9173.02
712.249	9365.53
712.443	9273.37
712.638	8853.54
712.833	8747.05
713.028	9285.66
713.223	9023.52
713.417	9455.64
713.612	8919.07
713.807	9302.04
714.002	9885.72
714.196	9209.89
714.391	8802.34
714.586	9369.63
714.78	9148.45
714.975	8843.3
715.17	8771.62
715.364	9173.02
715.559	9287.71
715.754	8745
715.948	8904.74
716.143	9666.58
716.337	8994.85
716.532	9293.85
716.726	8943.65
716.921	9445.4
717.115	9592.86
717.31	9076.77
717.504	9482.27
717.699	9119.78
717.893	9302.04
718.088	8812.58
718.282	8943.65
718.476	9418.78
718.671	9435.16
718.865	8914.98
719.059	8929.31
719.254	9236.51
719.448	9226.27
719.642	10184.72
719.837	8609.83
720.031	9429.02
720.225	9584.66
720.419	8988.71
720.614	8884.26
720.808	9248.8
721.002	8925.22
721.196	8802.34
721.39	8921.12
721.585	9238.56
721.779	9437.21
721.973	8990.75
722.167	8777.76
722.361	9238.56
722.555	9506.84
722.749	8781.86
722.943	9031.71
723.137	8878.12
723.331	9390.11
723.525	8763.43
723.719	8839.2
723.913	9166.88
724.107	9629.72
724.301	8777.76
724.495	9015.33
724.689	9687.06
724.883	9312.28
725.077	8861.73
725.271	9187.36
725.465	9457.69
725.659	9189.41
725.853	9142.3
726.046	8949.79
726.24	8890.4
726.434	9336.86
726.628	9144.35
726.822	9035.81
727.015	9568.28
727.209	9682.97
727.403	9046.05
727.596	8884.26
727.79	9437.21
727.984	9453.59
728.177	8919.07
728.371	8996.9
728.565	9474.07
728.758	8898.59
728.952	8988.71
729.146	9168.93
729.339	9672.73
729.533	9476.12
729.726	9089.06
729.92	8849.44
730.113	9695.25
730.307	9584.66
730.5	8933.41
730.694	8839.2
730.887	9175.07
731.081	9599
731.274	9021.47
731.468	9115.68
731.661	9336.86
731.854	9496.6
732.048	9072.67
732.241	8962.08
732.435	9295.9
732.628	9599
732.821	9345.05
733.014	9121.82
733.208	9183.26
733.401	9629.72
733.594	9308.19
733.788	9162.78
733.981	9678.87
734.174	9539.61
734.367	9033.76
734.56	9220.13
734.754	9529.37
734.947	9457.69
735.14	8996.9
735.333	9093.15
735.526	9857.04
735.719	9265.18
735.912	9158.69
736.105	9162.78
736.298	9416.73
736.491	9363.48
736.684	9209.89
736.877	9228.32
737.07	9588.76
737.263	9818.13
737.456	9164.83
737.649	9281.57
737.842	9523.23
738.035	9461.79
738.228	9332.76
738.421	9508.89
738.614	10016.79
738.807	9519.13
739	9052.19
739.192	9353.24
739.385	9596.95
739.578	9674.78
739.771	9314.33
739.964	9234.46
740.156	9682.97
740.349	9357.34
740.542	9521.18
740.735	9304.09
740.927	9375.77
741.12	9502.75
741.313	9150.5
741.505	9431.07
741.698	9582.62
741.891	9420.83
742.083	9461.79
742.276	9312.28
742.468	9558.04
742.661	9680.92
742.854	9412.64
743.046	9242.65
743.239	9990.16
743.431	9785.37
743.624	9242.65
743.816	9224.22
744.009	9474.07
744.201	9826.32
744.393	9535.51
744.586	9300
744.778	9730.07
744.971	9590.81
745.163	9535.51
745.355	9345.05
745.548	9709.59
745.74	9408.54
745.932	9388.06
746.125	9261.09
746.317	10100.75
746.509	9586.71
746.702	9345.05
746.894	9203.74
747.086	9644.06
747.278	9746.45
747.471	9574.42
747.663	9336.86
747.855	9566.23
748.047	10090.51
748.239	9308.19
748.431	9318.43
748.623	10186.77
748.815	9984.02
749.008	9162.78
749.2	9111.58
749.392	9713.69
749.584	9912.34
749.776	9519.13
749.968	9619.48
750.16	10098.7
750.352	9312.28
750.544	9443.35
750.736	9263.13
750.928	9711.64
751.12	9295.9
751.311	9349.15
751.503	9334.81
751.695	9744.41
751.887	9521.18
752.079	9052.19
752.271	9488.41
752.463	10459.15
752.654	9848.85
752.846	9492.51
753.038	9324.57
753.23	9515.03
753.421	9926.68
753.613	9330.72
753.805	9582.62
753.997	9830.42
754.188	9846.8
754.38	9386.01
754.572	9254.94
754.763	9449.5
754.955	9592.86
755.146	9232.41
755.338	9302.04
755.53	9744.41
755.721	9521.18
755.913	9193.5
756.104	9134.11
756.296	9564.18
756.487	9768.98
756.679	9234.46
756.87	9277.47
757.062	9555.99
757.253	9842.71
757.445	9457.69
757.636	9570.33
757.827	9455.64
758.019	10227.73
758.21	9158.69
758.401	9097.25
758.593	9951.25
758.784	9840.66
758.975	9066.53
759.167	9179.17
759.358	9818.13
759.549	9644.06
759.74	9187.36
759.932	9252.89
760.123	9674.78
760.314	9461.79
760.505	9320.48
760.696	9244.7
760.888	10096.66
761.079	9414.68
761.27	9205.79
761.461	9138.21
761.652	9746.45
761.843	9150.5
762.034	9066.53
762.225	9562.14
762.416	9603.1
762.607	9510.94
762.798	9132.06
762.989	9175.07
763.18	10270.73
763.371	9314.33
763.562	9242.65
763.753	9263.13
763.944	9605.14
764.135	9666.58
764.326	9545.75
764.517	9136.16
764.708	9596.95
764.899	9650.2
765.089	9140.26
765.28	9105.44
765.471	9443.35
765.662	9531.42
765.853	9199.65
766.043	8828.96
766.234	9619.48
766.425	9660.44
766.615	9302.04
766.806	8892.45
766.997	9625.62
767.187	9230.37
767.378	9021.47
767.569	8923.17
767.759	9445.4
767.95	9539.61
768.141	9304.09
768.331	9138.21
768.522	9431.07
768.712	9506.84
768.903	9173.02
769.093	9074.72
769.284	9695.25
769.474	9431.07
769.665	8917.03
769.855	8777.76
770.046	9609.24
770.236	9345.05
770.426	9318.43
770.617	9068.58
770.807	9392.16
770.998	9226.27
771.188	9197.6
771.378	9062.43
771.569	9584.66
771.759	9414.68
771.949	8601.64
772.139	8923.17
772.33	9216.03
772.52	9893.91
772.71	8996.9
772.9	8867.88
773.09	9775.13
773.281	9422.87
773.471	8837.16
773.661	8904.74
773.851	9586.71
774.041	9207.84
774.231	8982.56
774.421	8941.6
774.611	9500.7
774.802	9293.85
774.992	9056.29
775.182	8679.46
775.372	9105.44
775.562	9418.78
775.752	8863.78
775.942	8867.88
776.131	9510.94
776.321	9154.59
776.511	8925.22
776.701	8837.16
776.891	9287.71
777.081	8814.63
777.271	8749.09
777.461	8742.95
777.651	9207.84
777.84	9484.31
778.03	8945.7
778.22	8892.45
778.41	9441.31
778.599	8880.16
778.789	8820.77
778.979	8607.78
779.169	9089.06
779.358	9068.58
779.548	9197.6
779.738	8597.54
779.927	9158.69
780.117	8902.69
780.307	8734.76
780.496	8503.34
780.686	9201.69
780.875	9375.77
781.065	8728.61
781.254	8812.58
781.444	8884.26
781.633	9013.28
781.823	8624.17
782.012	8540.2
782.202	8708.13
782.391	8728.61
782.581	8708.13
782.77	8804.39
782.96	9084.96
783.149	8839.2
783.338	8632.36
783.528	8626.22
783.717	9130.02
783.906	9265.18
784.096	8849.44
784.285	8665.13
784.474	8970.27
784.663	8661.03
784.853	8685.61
785.042	8652.84
785.231	8777.76
785.42	9179.17
785.61	8568.87
785.799	8583.21
785.988	8955.94
786.177	8577.06
786.366	8540.2
786.555	8933.41
786.744	9005.09
786.933	8736.81
787.122	8583.21
787.312	8331.31
787.501	8849.44
787.69	9113.63
787.879	8505.38
788.068	8261.68
788.257	8718.37
788.445	8609.83
788.634	8460.33
788.823	8366.12
789.012	9285.66
789.201	9142.3
789.39	8579.11
789.579	8400.94
789.768	8650.79
789.957	8788
790.145	8552.49
790.334	8243.24
790.523	8673.32
790.712	8630.31
790.9	8607.78
791.089	8335.4
791.278	8980.51
791.467	8599.59
791.655	8904.74
791.844	9082.91
792.033	8556.58
792.221	8816.68
792.41	8540.2
792.599	8151.09
792.787	9021.47
792.976	9070.62
793.164	8263.72
793.353	8605.74
793.541	8763.43
793.73	8749.09
793.918	8486.95
794.107	8407.08
794.295	8656.93
794.484	8646.69
794.672	8433.71
794.861	8351.79
795.049	8867.88
795.238	9048.1
795.426	8118.32
795.614	8593.45
795.803	8851.49
795.991	9076.77
796.179	8472.62
796.368	8423.47
796.556	8781.86
796.744	8355.88
796.932	8269.87
797.121	8077.36
797.309	8646.69
797.497	8671.27
797.685	8527.91
797.874	8411.18
798.062	8585.26
798.25	9003.04
798.438	8427.56
798.626	8456.23
798.814	8859.68
799.002	9424.92
799.19	8595.5
799.378	8298.54
799.566	8843.3
799.755	8941.6
799.943	8693.8
800.131	8243.24
800.318	8648.74
800.506	8880.16
800.694	8177.71
800.882	8597.54
801.07	8998.95
801.258	8654.89
801.446	8493.1
801.634	8366.12
801.822	8736.81
802.01	8579.11
802.197	8566.82
802.385	8765.48
802.573	8957.99
802.761	8747.05
802.949	8544.3
803.136	8343.6
803.324	9056.29
803.512	8886.31
803.699	8532.01
803.887	8298.54
804.075	9109.54
804.262	8536.1
804.45	8310.83
804.638	8575.02
804.825	8820.77
805.013	8835.11
805.201	8765.48
805.388	8568.87
805.576	8888.36
805.763	9343
805.951	8558.63
806.138	8720.42
806.326	9457.69
806.513	9105.44
806.701	8929.31
806.888	8513.58
807.075	9142.3
807.263	9392.16
807.45	8517.67
807.638	8661.03
807.825	9498.65
808.012	9359.39
808.2	8835.11
808.387	8826.92
808.574	9134.11
808.761	9318.43
808.949	8947.75
809.136	8691.75
809.323	8966.18
809.51	9091.1
809.698	9187.36
809.885	8753.19
810.072	9000.99
810.259	9476.12
810.446	8849.44
810.633	8857.64
810.82	9234.46
811.008	9578.52
811.195	9244.7
811.382	8878.12
811.569	9179.17
811.756	9056.29
811.943	8978.47
812.13	8841.25
812.317	9193.5
812.504	9179.17
812.691	9115.68
812.878	9228.32
813.064	9562.14
813.251	9302.04
813.438	9000.99
813.625	9023.52
813.812	9148.45
813.999	9177.12
814.186	9107.49
814.372	8921.12
814.559	9195.55
814.746	9615.38
814.933	8908.83
815.12	9035.81
815.306	8992.8
815.493	8929.31
815.68	8919.07
815.866	8998.95
816.053	9635.86
816.24	9701.4
816.426	9101.34
816.613	8953.89
816.799	9592.86
816.986	9555.99
817.173	8869.92
817.359	8886.31
817.546	9443.35
817.732	8978.47
817.919	8888.36
818.105	9031.71
818.292	9166.88
818.478	9250.85
818.665	9246.75
818.851	8851.49
819.037	9699.35
819.224	9205.79
819.41	8929.31
819.597	8939.55
819.783	9537.56
819.969	9400.35
820.156	9037.86
820.342	8712.23
820.528	9938.96
820.714	9211.93
820.901	9113.63
821.087	9003.04
821.273	9740.31
821.459	9078.82
821.646	9009.19
821.832	8978.47
822.018	9132.06
822.204	9089.06
822.39	8812.58
822.576	8615.98
822.762	9256.99
822.948	9199.65
823.134	9154.59
823.32	9039.9
823.507	8974.37
823.693	9078.82
823.879	9445.4
824.065	8771.62
824.25	9426.97
824.436	9021.47
824.622	9093.15
824.808	8785.96
824.994	9089.06
825.18	8937.51
825.366	8835.11
825.552	8964.13
825.738	9037.86
825.923	9312.28
826.109	9267.23
826.295	8816.68
826.481	8779.81
826.667	8982.56
826.852	8943.65
827.038	8685.61
827.224	9355.29
827.409	9343
827.595	8675.37
827.781	8908.83
827.966	9213.98
828.152	9142.3
828.338	8777.76
828.523	8800.29
828.709	8939.55
828.894	9197.6
829.08	8712.23
829.266	8765.48
829.451	9025.57
829.637	9297.95
829.822	8876.07
830.008	8536.1
830.193	9140.26
830.378	9398.3
830.564	9017.38
830.749	8771.62
830.935	9265.18
831.12	8851.49
831.305	8796.2
831.491	8720.42
831.676	8622.12
831.861	9068.58
832.047	8900.64
832.232	8695.85
832.417	9238.56
832.602	8994.85
832.788	8661.03
832.973	8523.82
833.158	8902.69
833.343	8970.27
833.528	8810.53
833.714	8542.25
833.899	8851.49
834.084	9213.98
834.269	8775.72
834.454	8343.6
834.639	9132.06
834.824	8710.18
835.009	8804.39
835.194	8708.13
835.379	9177.12
835.564	9095.2
835.749	8839.2
835.934	8470.57
836.119	9170.97
836.304	8794.15
836.489	8503.34
836.674	8812.58
836.859	8476.71
837.044	9138.21
837.228	8480.81
837.413	8480.81
837.598	9000.99
837.783	9060.38
837.968	8562.73
838.152	8495.15
838.337	8509.48
838.522	9138.21
838.707	8876.07
838.891	8570.92
839.076	8775.72
839.261	8990.75
839.445	8282.16
839.63	8546.34
839.815	9185.31
839.999	8515.62
840.184	8347.69
840.368	8380.46
840.553	9007.14
840.737	8781.86
840.922	8454.19
841.106	8478.76
841.291	8409.13
841.475	8466.47
841.66	8353.84
841.844	8235.05
842.029	9410.59
842.213	8265.77
842.397	8245.29
842.582	8138.8
842.766	8880.16
842.951	8765.48
843.135	8196.14
843.319	8276.01
843.504	8607.78
843.688	8978.47
843.872	8091.7
844.056	8183.85
844.241	8679.46
844.425	8480.81
844.609	8378.41
844.793	7981.1
844.977	8572.97
845.161	8728.61
845.346	7985.2
845.53	8149.04
845.714	8476.71
845.898	8745
846.082	8073.26
846.266	8267.82
846.45	8532.01
846.634	8634.41
846.818	8233.01
847.002	8316.97
847.186	8474.67
847.37	8146.99
847.554	7962.67
847.738	8286.25
847.922	8607.78
848.106	8566.82
848.29	8001.58
848.473	8196.14
848.657	8536.1
848.841	8306.73
849.025	7993.39
849.209	7970.87
849.392	8507.43
849.576	8278.06
849.76	7755.83
849.944	8202.29
850.127	8650.79
850.311	7895.09
850.495	7888.95
850.678	7907.38
850.862	8560.68
851.046	8738.85
851.229	8368.17
851.413	7987.25
851.596	8206.38
851.78	8181.81
851.964	8351.79
852.147	7977.01
852.331	8894.5
852.514	8362.03
852.698	8085.55
852.881	7649.33
853.065	8427.56
853.248	8058.93
853.431	8022.06
853.615	7878.71
853.798	8740.9
853.982	8196.14
854.165	8146.99
854.348	7786.55
854.532	7864.37
854.715	7958.58
854.898	7931.95
855.081	7909.43
855.265	8486.95
855.448	8441.9
855.631	7979.06
855.814	7827.51
855.997	8472.62
856.181	8124.46
856.364	8052.78
856.547	7702.58
856.73	8071.22
856.913	8183.85
857.096	7589.94
857.279	7684.15
857.462	7880.75
857.645	8273.96
857.828	7862.32
858.011	7800.88
858.194	7981.1
858.377	8063.02
858.56	7591.99
858.743	7737.4
858.926	7807.03
859.109	8005.68
859.292	7575.61
859.475	7567.42
859.658	8337.45
859.841	7985.2
860.023	7657.53
860.206	7487.54
860.389	8114.22
860.572	8331.31
860.755	7598.13
860.937	7600.18
861.12	7850.03
861.303	7813.17
861.486	7512.12
861.668	7307.32
861.851	8052.78
862.034	7843.89
862.216	7573.56
862.399	7202.88
862.581	7862.32
862.764	8087.6
862.947	7379
863.129	7565.37
863.312	7534.65
863.494	7995.44
863.677	7706.68
863.859	7448.63
864.042	7798.84
864.224	8136.75
864.406	7499.83
864.589	7131.2
864.771	7716.92
864.954	7340.09
865.136	7241.79
865.318	6934.59
865.501	7843.89
865.683	7098.43
865.865	7149.63
866.048	7213.12
866.23	7690.29
866.412	7817.27
866.594	7204.92
866.777	7342.14
866.959	7923.76
867.141	7348.28
867.323	7516.22
867.505	7333.95
867.687	7546.94
867.869	7673.91
868.052	7413.82
868.234	6983.74
868.416	7335.99
868.598	7604.28
868.78	7286.84
868.962	6955.07
869.144	7909.43
869.326	7827.51
869.508	7200.83
869.69	7211.07
869.872	7329.85
870.054	7759.92
870.236	7184.45
870.417	7254.08
870.599	7422.01
870.781	8001.58
870.963	7350.33
871.145	7161.92
871.327	7270.46
871.508	7737.4
871.69	7229.5
871.872	7188.54
872.054	7454.78
872.235	7587.89
872.417	7080
872.599	7051.33
872.78	7841.84
872.962	7397.43
873.144	7102.53
873.325	7206.97
873.507	7804.98
873.689	7270.46
873.87	7000.13
874.052	7120.96
874.233	7460.92
874.415	7751.73
874.596	7231.55
874.778	7098.43
874.959	7348.28
875.141	7671.86
875.322	7331.9
875.503	7045.18
875.685	7663.67
875.866	7022.66
876.048	7018.56
876.229	7258.17
876.41	7567.42
876.592	7458.87
876.773	7321.66
876.954	7112.77
877.136	7944.24
877.317	7323.71
877.498	7268.41
877.679	7321.66
877.86	7608.37
878.042	7616.57
878.223	7209.02
878.404	7768.12
878.585	7604.28
878.766	7847.99
878.947	7499.83
879.128	7585.85
879.309	7743.54
879.49	7882.8
879.672	7561.27
879.853	7376.95
880.034	7493.69
880.215	7692.34
880.396	7573.56
880.576	7319.61
880.757	7462.97
880.938	8044.59
881.119	7446.59
881.3	7319.61
881.481	7643.19
881.662	8478.76
881.843	7286.84
882.023	7272.51
882.204	7884.85
882.385	7675.96
882.566	7479.35
882.747	7354.43
882.927	7931.95
883.108	7921.71
883.289	7372.86
883.469	7798.84
883.65	7708.73
883.831	8007.73
884.011	7684.15
884.192	7647.29
884.373	8165.42
884.553	8095.79
884.734	7647.29
884.914	7942.19
885.095	8425.51
885.275	8405.03
885.456	8034.35
885.636	7493.69
885.817	8065.07
885.997	8220.72
886.178	7682.1
886.358	7831.6
886.538	8204.33
886.719	9154.59
886.899	7618.61
887.08	8243.24
887.26	8493.1
887.44	7970.87
887.621	7655.48
887.801	8040.5
887.981	8790.05
888.161	8417.32
888.342	7788.6
888.522	7909.43
888.702	8355.88
888.882	8417.32
889.062	7950.39
889.242	7903.28
889.423	8716.33
889.603	8499.24
889.783	8114.22
889.963	7786.55
890.143	8413.23
890.323	8667.17
890.503	8079.41
890.683	8017.97
890.863	8271.92
891.043	8306.73
891.223	8292.4
891.403	8206.38
891.583	8478.76
891.763	8368.17
891.943	8093.74
892.122	7993.39
892.302	8359.98
892.482	8384.55
892.662	8081.46
892.842	7876.66
893.022	8325.16
893.201	8306.73
893.381	8048.69
893.561	7835.7
893.741	8525.86
893.92	8310.83
894.1	8171.57
894.28	8060.98
894.459	8466.47
894.639	8482.86
894.819	8071.22
894.998	8247.34
895.178	8368.17
895.357	8560.68
895.537	8253.48
895.716	7964.72
895.896	8419.37
896.075	8769.57
896.255	8247.34
896.434	8044.59
896.614	8566.82
896.793	8685.61
896.973	8265.77
897.152	8040.5
897.331	8454.19
897.511	8527.91
897.69	7923.76
897.87	8407.08
898.049	8511.53
898.228	8278.06
898.407	8093.74
898.587	8251.44
898.766	8048.69
898.945	8405.03
899.124	8300.59
899.304	8081.46
899.483	8290.35
899.662	8798.24
899.841	7880.75
900.02	7821.36
900.199	8638.5
900.378	8273.96
900.557	7884.85
900.737	7827.51
900.916	8316.97
901.095	8480.81
901.274	8155.18
901.453	7772.21
901.632	7974.96
901.811	8464.43
901.989	7749.68
902.168	7807.03
902.347	8405.03
902.526	8101.94
902.705	7774.26
902.884	7927.86
903.063	8605.74
903.242	8615.98
903.42	7786.55
903.599	7684.15
903.778	8349.74
903.957	8607.78
904.135	7970.87
904.314	7882.8
904.493	8337.45
904.672	8386.6
904.85	8005.68
905.029	7827.51
905.207	8364.08
905.386	8841.25
905.565	7702.58
905.743	7768.12
905.922	7868.47
906.1	8173.61
906.279	7553.08
906.457	7444.54
906.636	7962.67
906.814	7917.62
906.993	7772.21
907.171	7614.52
907.35	8110.13
907.528	7977.01
907.707	8099.89
907.885	7589.94
908.063	8306.73
908.242	7747.64
908.42	7829.56
908.598	7419.96
908.777	7950.39
908.955	7823.41
909.133	7608.37
909.311	7381.05
909.49	7704.63
909.668	7723.06
909.846	7491.64
910.024	7256.12
910.202	7847.99
910.38	7686.2
910.559	7247.93
910.737	7536.7
910.915	7819.32
911.093	7784.5
911.271	7389.24
911.449	7821.36
911.627	7706.68
911.805	8130.61
911.983	7383.1
912.161	7274.56
912.339	7665.72
912.517	7950.39
912.695	7352.38
912.872	7348.28
913.05	7473.21
913.228	7622.71
913.406	7348.28
913.584	7204.92
913.762	7757.88
913.939	7295.04
914.117	7166.01
914.295	7166.01
914.473	7680.05
914.65	7557.18
914.828	7370.81
915.006	7084.09
915.184	7096.38
915.361	7602.23
915.539	7475.26
915.716	7307.32
915.894	7405.63
916.072	7661.62
916.249	7182.4
916.427	6991.94
916.604	6985.79
916.782	7379
916.959	6799.43
917.137	6989.89
917.314	7397.43
917.492	7280.7
917.669	7157.82
917.847	7020.61
918.024	7223.36
918.201	7016.51
918.379	7084.09
918.556	6754.37
918.733	7319.61
918.911	6781
919.088	7123.01
919.265	6907.97
919.442	7215.16
919.62	7051.33
919.797	6705.22
919.974	6551.62
920.151	6963.26
920.328	6856.77
920.506	6762.56
920.683	6912.07
920.86	6776.9
921.037	6541.38
921.214	6688.84
921.391	6545.48
921.568	7041.09
921.745	6789.19
921.922	6756.42
922.099	6443.08
922.276	7047.23
922.453	6774.85
922.63	6479.94
922.807	6707.27
922.984	6631.49
923.161	6543.43
923.338	6408.26
923.514	6074.45
923.691	6557.77
923.868	6645.83
924.045	6092.88
924.222	6017.1
924.399	6393.93
924.575	6713.41
924.752	6287.43
924.929	6160.46
925.105	6414.41
925.282	6223.95
925.459	6119.5
925.635	6078.54
925.812	6348.87
925.989	6045.77
926.165	6013.01
926.342	5949.52
926.518	6090.83
926.695	6264.91
926.871	6107.21
927.048	5783.63
927.224	6500.42
927.401	5990.48
927.577	5976.14
927.754	5666.9
927.93	6326.35
928.107	6172.75
928.283	5679.19
928.459	5967.95
928.636	6025.29
928.812	5967.95
928.988	5738.58
929.165	5603.41
929.341	5763.15
929.517	6086.73
929.693	6000.72
929.87	5251.16
930.046	5916.75
930.222	5603.41
930.398	5505.11
930.574	5627.99
930.751	5861.46
930.927	5632.08
931.103	5507.16
931.279	5337.18
931.455	5328.99
931.631	5840.98
931.807	5161.05
931.983	5072.99
932.159	5216.35
932.335	5558.36
932.511	5392.47
932.687	5124.19
932.863	5300.31
933.039	5347.42
933.215	4905.06
933.391	4892.77
933.566	5206.11
933.742	5202.01
933.918	4986.97
934.094	4696.16
934.27	5052.51
934.445	5099.61
934.621	4855.9
934.797	4771.94
934.973	5228.63
935.148	4984.93
935.324	4413.54
935.5	4415.59
935.675	4851.81
935.851	4733.03
936.027	4460.65
936.202	4548.71
936.378	4614.24
936.553	4393.06
936.729	4583.52
936.904	4026.48
937.08	4096.11
937.255	4077.68
937.431	3932.27
937.606	3778.67
937.782	3928.17
937.957	3930.22
938.133	3625.08
938.308	3526.77
938.483	3827.82
938.659	3700.85
938.834	3475.57
939.009	3512.44
939.185	3494.01
939.36	3407.99
939.535	3027.07
939.71	3403.89
939.886	3700.85
940.061	3526.77
940.236	3397.75
940.411	3129.47
940.586	3461.24
940.761	3414.13
940.937	3156.09
941.112	3065.98
941.287	3248.25
941.462	3182.71
941.637	2850.94
941.812	3055.74
941.987	3145.85
942.162	3162.23
942.337	2879.61
942.512	2865.28
942.687	3309.69
942.862	3201.15
943.037	2615.43
943.212	2390.15
943.386	2969.73
943.561	2984.06
943.736	2840.7
943.911	2979.97
944.086	3063.93
944.26	2975.87
944.435	2711.68
944.61	2717.83
944.785	3186.81
944.959	3301.5
945.134	2689.15
945.309	2482.31
945.483	2654.34
945.658	3129.47
945.833	2390.15
946.007	2416.77
946.182	3137.66
946.357	2572.42
946.531	2599.04
946.706	2576.52
946.88	2451.59
947.055	2930.81
947.229	2541.7
947.404	2396.29
947.578	3057.79
947.752	2781.31
947.927	2447.49
948.101	2416.77
948.276	2873.47
948.45	2836.61
948.624	2707.59
948.799	2551.94
948.973	2883.71
949.147	2527.36
949.321	2570.37
949.496	2545.8
949.67	3037.31
949.844	2726.02
950.018	2562.18
950.193	2576.52
950.367	3379.32
950.541	2707.59
950.715	2777.22
950.889	2902.14
951.063	2781.31
951.237	3055.74
951.411	2386.05
951.585	2412.68
951.759	2949.25
951.933	2676.87
952.107	2539.65
952.281	2797.7
952.455	3102.84
952.629	2955.39
952.803	2582.66
952.977	2422.92
953.151	2982.01
953.325	2859.14
953.499	2844.8
953.672	2392.2
953.846	2551.94
954.02	2865.28
954.194	2394.25
954.368	2545.8
954.541	2932.86
954.715	2701.44
954.889	2678.91
955.062	2517.12
955.236	2717.83
955.41	2678.91
955.583	2613.38
955.757	2351.24
955.93	2685.06
956.104	2601.09
956.278	2529.41
956.451	2599.04
956.625	2955.39
956.798	3268.73
956.972	2957.44
957.145	2457.73
957.319	2803.84
957.492	2789.5
957.665	2654.34
957.839	2402.44
958.012	2814.08
958.185	2738.3
958.359	2474.12
958.532	2715.78
958.705	2781.31
958.879	2842.75
959.052	2666.63
959.225	2341
959.398	2764.93
959.572	2723.97
959.745	2478.21
959.918	2463.88
960.091	2619.52
960.264	2723.97
960.438	2453.64
960.611	2494.6
960.784	2822.27
960.957	2529.41
961.13	2805.89
961.303	2527.36
961.476	2705.54
961.649	2842.75
961.822	2416.77
961.995	2515.08
962.168	2818.18
962.341	2674.82
962.514	2470.02
962.686	2572.42
962.859	2650.24
963.032	2728.07
963.205	2386.05
963.378	2187.4
963.551	2711.68
963.723	2683.01
963.896	2537.6
964.069	2519.17
964.242	2492.55
964.414	2820.22
964.587	2359.43
964.76	2472.07
964.932	2609.28
965.105	2510.98
965.278	2406.53
965.45	2312.33
965.623	2609.28
965.795	2891.9
965.968	2424.97
966.14	2345.09
966.313	2498.69
966.485	2502.79
966.658	2332.81
966.83	2261.13
967.003	2852.99
967.175	2795.65
967.348	2375.81
967.52	2265.22
967.692	2984.06
967.865	2723.97
968.037	2392.2
968.209	2646.15
968.382	2754.69
968.554	2865.28
968.726	2478.21
968.898	2220.17
969.071	2662.53
969.243	2556.04
969.415	2314.38
969.587	2437.25
969.759	2961.53
969.932	2711.68
970.104	2324.62
970.276	2035.85
970.448	2480.26
970.62	2453.64
970.792	2506.88
970.964	2232.46
971.136	2961.53
971.308	2644.1
971.48	2113.67
971.652	2308.23
971.824	2752.64
971.996	2302.09
972.168	2277.51
972.339	2334.86
972.511	2717.83
972.683	2392.2
972.855	2394.25
973.027	2332.81
973.199	2484.36
973.37	2654.34
973.542	2343.05
973.714	2433.16
973.886	2377.86
974.057	2680.96
974.229	2095.24
974.401	2207.88
974.572	2134.15
974.744	1939.6
974.915	2123.91
975.087	2138.25
975.259	2818.18
975.43	2269.32
975.602	2209.93
975.773	2046.09
975.945	2189.45
976.116	2644.1
976.288	2035.85
976.459	2478.21
976.63	2404.49
976.802	2549.89
976.973	2093.19
977.145	2379.91
977.316	2736.26
977.487	2371.72
977.659	2177.16
977.83	2150.54
978.001	2709.63
978.172	2367.62
978.344	2048.14
978.515	2072.72
978.686	2281.61
978.857	2525.32
979.028	2105.48
979.2	2050.19
979.371	2674.82
979.542	2402.44
979.713	2152.59
979.884	1816.72
980.055	2070.67
980.226	2230.41
980.397	2015.37
980.568	1947.79
980.739	2590.85
980.91	2164.87
981.081	2197.64
981.252	2039.95
981.423	2341
981.594	2488.45
981.765	1874.06
981.936	2082.95
982.106	2273.42
982.277	2541.7
982.448	1998.99
982.619	2175.11
982.79	2220.17
982.96	2330.76
983.131	1996.94
983.302	1661.07
983.472	2044.04
983.643	2332.81
983.814	2037.9
983.984	1945.74
984.155	1992.84
984.326	2400.39
984.496	2074.76
984.667	2033.8
984.837	1970.32
985.008	2402.44
985.178	2058.38
985.349	2021.52
985.519	2085
985.69	2005.13
985.86	1878.16
986.031	1656.98
986.201	2130.06
986.371	2191.5
986.542	1781.9
986.712	1603.73
986.882	2142.35
987.053	2273.42
987.223	1841.29
987.393	1980.56
987.563	1880.21
987.734	2234.5
987.904	2216.07
988.074	1800.34
988.244	2214.02
988.414	1945.74
988.585	1837.2
988.755	1958.03
988.925	2064.52
989.095	2429.06
989.265	1792.14
989.435	1876.11
989.605	2254.98
989.775	2183.31
989.945	2064.52
990.115	1560.72
990.285	2050.19
990.455	1968.27
990.625	1847.44
990.795	1726.61
990.965	2244.74
991.134	1740.94
991.304	1648.79
991.474	1720.46
991.644	2003.08
991.814	2300.04
991.984	1679.51
992.153	1728.66
992.323	1884.3
992.493	1970.32
992.662	1530
992.832	1839.25
993.002	1900.69
993.171	1978.51
993.341	1396.89
993.511	1892.49
993.68	1708.18
993.85	2109.58
994.019	1411.22
994.189	1552.53
994.358	1955.98
994.528	1847.44
994.697	1355.93
994.867	1527.96
995.036	2179.21
995.206	1769.62
995.375	1454.23
995.544	1757.33
995.714	1978.51
995.883	1824.91
996.052	1831.05
996.222	1429.65
996.391	2302.09
996.56	1955.98
996.73	1513.62
996.899	1392.79
997.068	2156.68
997.237	1843.34
997.406	1437.84
997.576	1347.73
997.745	1945.74
997.914	1872.01
998.083	1292.44
998.252	1554.58
998.421	1824.91
998.59	1466.52
998.759	1372.31
998.928	1210.52
999.097	2011.28
999.266	1788.05
999.435	1591.44
999.604	1269.91
999.773	2185.35
999.942	1482.9
1000.111	1192.09
1000.28	1159.32
1000.448	1519.76
1000.617	1433.75
1000.786	1595.54
1000.955	1314.97
1001.124	1712.27
1001.292	2494.6
1001.461	1337.49
1001.63	1325.21
1001.798	1974.41
1001.967	1990.8
1002.136	1204.38
1002.304	1294.49
1002.473	1618.07
1002.642	1675.41
1002.81	1331.35
1002.979	1169.56
1003.147	1788.05
1003.316	2142.35
1003.484	1353.88
1003.653	1247.38
1003.821	1921.17
1003.99	1489.04
1004.158	1441.94
1004.327	1327.25
1004.495	1624.21
1004.663	1421.46
1004.832	1355.93
1005	1032.35
1005.168	1781.9
1005.337	1679.51
1005.505	1216.66
1005.673	1423.51
1005.842	1806.48
1006.01	1689.74
1006.178	1126.55
1006.346	1364.12
1006.514	1624.21
1006.683	1798.29
1006.851	1237.14
1007.019	997.53
1007.187	1278.1
1007.355	1226.9
1007.523	958.62
1007.691	1110.17
1007.859	1151.13
1008.027	1867.92
1008.195	1218.71
1008.363	1095.83
1008.531	1677.46
1008.699	1351.83
1008.867	1022.11
1009.035	1097.88
1009.203	1654.93
1009.37	1509.52
1009.538	1212.57
1009.706	1620.11
1009.874	1527.96
1010.042	1478.8
1010.209	909.47
1010.377	997.53
1010.545	1745.04
1010.713	1556.63
1010.88	1020.06
1011.048	1071.26
1011.216	1294.49
1011.383	1708.18
1011.551	1120.41
1011.718	956.57
1011.886	1630.35
1012.054	1331.35
1012.221	915.61
1012.389	942.24
1012.556	1290.39
1012.724	1806.48
1012.891	1075.35
1013.058	811.17
1013.226	1597.59
1013.393	1462.42
1013.561	833.69
1013.728	835.74
1013.895	1605.78
1014.063	1489.04
1014.23	880.8
1014.397	888.99
1014.565	1568.91
1014.732	1190.04
1014.899	854.17
1015.066	895.13
1015.233	1261.72
1015.401	1478.8
1015.568	981.15
1015.735	1110.17
1015.902	1286.3
1016.069	1345.69
1016.236	962.72
1016.403	825.5
1016.57	1040.54
1016.737	1501.33
1016.904	880.8
1017.071	807.07
1017.238	1147.03
1017.405	1435.8
1017.572	929.95
1017.739	979.1
1017.906	1380.5
1018.073	1456.28
1018.24	811.17
1018.407	897.18
1018.573	1450.13
1018.74	1063.07
1018.907	831.65
1019.074	635.04
1019.241	1466.52
1019.407	1228.95
1019.574	751.78
1019.741	663.71
1019.907	1312.92
1020.074	1267.86
1020.241	639.14
1020.407	757.92
1020.574	1300.63
1020.74	1278.1
1020.907	774.3
1021.073	719.01
1021.24	1728.66
1021.406	1472.66
1021.573	680.1
1021.739	706.72
1021.906	1339.54
1022.072	1142.94
1022.239	692.38
1022.405	786.59
1022.571	1179.8
1022.738	923.8
1022.904	817.31
1023.07	872.61
1023.237	1056.92
1023.403	1355.93
1023.569	759.97
1023.735	721.06
1023.902	1132.7
1024.068	1095.83
1024.234	565.41
1024.4	624.8
1024.566	1159.32
1024.732	1308.82
1024.898	635.04
1025.065	561.31
1025.231	1192.09
1025.397	944.28
1025.563	659.62
1025.729	645.28
1025.895	643.23
1026.061	901.28
1026.227	436.39
1026.392	632.99
1026.558	1294.49
1026.724	1112.22
1026.89	624.8
1027.056	815.26
1027.222	1095.83
1027.388	858.27
1027.553	661.66
1027.719	516.26
1027.885	1304.73
1028.051	1040.54
1028.216	368.81
1028.382	684.19
1028.548	1165.46
1028.713	831.65
1028.879	479.4
1029.045	757.92
1029.21	1366.17
1029.376	1190.04
1029.541	643.23
1029.707	694.43
1029.873	1032.35
1030.038	1126.55
1030.204	524.45
1030.369	620.71
1030.534	1089.69
1030.7	897.18
1030.865	612.51
1031.031	536.74
1031.196	929.95
1031.361	958.62
1031.527	569.51
1031.692	491.68
1031.857	460.96
1032.023	1104.03
1032.188	522.4
1032.353	536.74
1032.518	1249.43
1032.684	905.37
1032.849	389.28
1033.014	520.35
1033.179	1067.16
1033.344	1034.39
1033.509	569.51
1033.674	516.26
1033.839	1040.54
1034.004	993.44
1034.17	475.3
1034.335	381.09
1034.5	702.62
1034.664	764.06
1034.829	368.81
1034.994	399.52
1035.159	940.19
1035.324	880.8
1035.489	501.92
1035.654	415.91
1035.819	1212.57
1035.984	829.6
1036.148	557.22
1036.313	440.48
1036.478	1071.26
1036.643	690.34
1036.807	393.38
1036.972	358.57
1037.137	1101.98
1037.301	858.27
1037.466	307.37
1037.631	503.97
1037.795	1138.84
1037.96	825.5
1038.124	594.08
1038.289	331.94
1038.454	958.62
1038.618	1003.68
1038.783	444.58
1038.947	391.33
1039.111	778.4
1039.276	620.71
1039.44	352.42
1039.605	868.51
1039.769	688.29
1039.933	831.65
1040.098	456.87
1040.262	628.9
1040.426	987.29
1040.591	932
1040.755	319.65
1040.919	323.75
1041.083	823.45
1041.248	618.66
1041.412	221.35
1041.576	278.69
1041.74	686.24
1041.904	884.89
1042.068	323.75
1042.232	417.96
1042.397	970.91
1042.561	845.98
1042.725	102.57
1042.889	512.16
1043.053	942.24
1043.217	831.65
1043.381	528.55
1043.544	243.88
1043.708	968.86
1043.872	483.49
1044.036	0.17
1044.2	223.4
1044.364	934.04
1044.528	1015.96
1044.691	3385.46
1044.855	170.15
1045.019	960.67
1045.183	876.7
1045.346	530.59
1045.51	245.93
1045.674	725.15
1045.837	807.07
1046.001	307.37
1046.165	235.69
1046.328	1214.62
1046.492	751.78
1046.655	495.78
1046.819	333.99
1046.983	512.16
1047.146	766.11
1047.31	301.22
1047.473	110.76
1047.636	589.99
1047.8	348.33
1047.963	290.98
1048.127	184.49
1048.29	458.92
