Data from Ink_Intensity_USB4F045381__88__00088.txt Node

Date: Mon Jul 17 10:58:16 EDT 2023
User: mmckonesweet
Spectrometer: USB4F04538
Trigger mode: 4
Integration Time (sec): 9.000000E-1
Scans to average: 1
Electric dark correction enabled: true
Nonlinearity correction enabled: false
Boxcar width: 0
XAxis mode: Wavelengths
Number of Pixels in Spectrum: 3648
>>>>>Begin Spectral Data<<<<<
345.52	-1027.23
345.736	-1027.23
345.952	-1027.23
346.168	-1037.47
346.384	-996.51
346.6	-107.69
346.816	-251.05
347.032	-169.13
347.248	246.61
347.464	-154.79
347.68	-101.55
347.896	41.81
348.112	422.73
348.328	-66.73
348.544	-119.98
348.76	41.81
348.975	217.94
349.191	-269.48
349.407	-169.13
349.623	43.86
349.839	-23.72
350.055	-130.22
350.27	66.39
350.486	142.16
350.702	379.73
350.918	228.18
351.133	-201.9
351.349	164.69
351.565	367.44
351.781	-156.84
351.996	35.67
352.212	400.21
352.428	-222.38
352.644	-134.31
352.859	-144.55
353.075	271.19
353.291	144.21
353.506	-70.83
353.722	-261.29
353.938	-11.43
354.153	437.07
354.369	74.58
354.584	-70.83
354.8	297.81
355.016	-201.9
355.231	-189.61
355.447	-62.63
355.662	113.49
355.878	832.33
356.093	-341.16
356.309	-58.54
356.524	-189.61
356.74	285.52
356.955	-130.22
357.171	-54.44
357.386	160.59
357.602	-218.28
357.817	-115.88
358.033	-58.54
358.248	322.38
358.464	160.59
358.679	-87.21
358.895	-279.72
359.11	76.63
359.325	363.34
359.541	66.39
359.756	47.96
359.972	-246.95
360.187	230.23
360.402	-167.08
360.618	-103.59
360.833	955.21
361.048	187.22
361.264	-87.21
361.479	21.33
361.694	43.86
361.909	215.89
362.125	-195.75
362.34	-95.4
362.555	320.34
362.77	127.83
362.986	-210.09
363.201	-124.07
363.416	281.43
363.631	95.06
363.847	-134.31
364.062	-138.41
364.277	199.51
364.492	111.44
364.707	-117.93
364.922	-382.12
365.138	318.29
365.353	402.26
365.568	-238.76
365.783	-64.68
365.998	52.05
366.213	514.89
366.428	-263.33
366.643	181.07
366.858	340.82
367.073	287.57
367.288	-95.4
367.503	-251.05
367.718	129.88
367.933	295.76
368.148	-240.81
368.363	-23.72
368.578	-23.72
368.793	555.85
369.008	-68.78
369.223	-257.19
369.438	244.56
369.653	469.84
369.868	-326.82
370.083	-156.84
370.298	66.39
370.513	392.02
370.728	-3.24
370.943	-128.17
371.157	-97.45
371.372	490.32
371.587	-312.49
371.802	-169.13
372.017	58.2
372.232	441.17
372.446	-3.24
372.661	-177.32
372.876	219.99
373.091	232.27
373.306	-38.06
373.52	-165.03
373.735	-136.36
373.95	506.7
374.165	-36.01
374.379	-158.89
374.594	-144.55
374.809	176.98
375.023	68.44
375.238	-228.52
375.453	332.62
375.667	-171.18
375.882	-107.69
376.097	-171.18
376.311	82.77
376.526	72.53
376.741	-91.31
376.955	269.14
377.17	650.06
377.384	578.38
377.599	19.29
377.813	-240.81
378.028	654.16
378.242	179.03
378.457	52.05
378.672	-205.99
378.886	150.36
379.101	64.34
379.315	-341.16
379.53	-56.49
379.744	287.57
379.958	234.32
380.173	-109.74
380.387	-224.42
380.602	269.14
380.816	-117.93
381.031	-140.46
381.245	-3.24
381.459	248.66
381.674	2730.8
381.888	-158.89
382.103	33.62
382.317	-93.35
382.531	521.04
382.746	-25.77
382.96	-83.11
383.174	27.48
383.388	582.48
383.603	54.1
383.817	-232.62
384.031	236.37
384.246	584.52
384.46	45.91
384.674	480.08
384.888	50
385.103	56.15
385.317	-205.99
385.531	52.05
385.745	484.17
385.959	336.72
386.174	-89.26
386.388	-132.26
386.602	39.76
386.816	-46.25
387.03	-13.48
387.244	-33.96
387.458	285.52
387.672	404.3
387.887	-222.38
388.101	-144.55
388.315	518.99
388.529	207.7
388.743	-74.92
388.957	-136.36
389.171	363.34
389.385	-83.11
389.599	15.19
389.813	127.83
390.027	269.14
390.241	748.36
390.455	-58.54
390.669	-62.63
390.883	66.39
391.097	447.31
391.311	162.64
391.525	-72.87
391.738	322.38
391.952	240.47
392.166	62.29
392.38	-152.74
392.594	430.93
392.808	404.3
393.022	2.9
393.236	-38.06
393.449	351.06
393.663	201.55
393.877	-189.61
394.091	23.38
394.305	13.14
394.518	31.57
394.732	-144.55
394.946	31.57
395.16	510.8
395.373	226.13
395.587	-79.02
395.801	-70.83
396.015	488.27
396.228	338.77
396.442	-95.4
396.656	-160.94
396.869	402.26
397.083	639.82
397.297	-5.29
397.51	4.95
397.724	521.04
397.938	310.1
398.151	-136.36
398.365	-165.03
398.578	377.68
398.792	553.8
399.005	136.02
399.219	66.39
399.433	269.14
399.646	375.63
399.86	250.71
400.073	224.08
400.287	400.21
400.5	80.72
400.714	95.06
400.927	113.49
401.141	355.15
401.354	1248.07
401.567	334.67
401.781	-165.03
401.994	494.41
402.208	711.5
402.421	111.44
402.635	39.76
402.848	228.18
403.061	478.03
403.275	64.34
403.488	-66.73
403.701	660.3
403.915	447.31
404.128	273.23
404.341	47.96
404.555	295.76
404.768	234.32
404.981	203.6
405.195	70.48
405.408	643.92
405.621	475.98
405.834	262.99
406.048	-58.54
406.261	547.66
406.474	537.42
406.687	-23.72
406.9	234.32
407.114	234.32
407.327	416.59
407.54	-93.35
407.753	-85.16
407.966	97.11
408.179	555.85
408.392	62.29
408.605	-93.35
408.819	455.5
409.032	400.21
409.245	-23.72
409.458	234.32
409.671	475.98
409.884	478.03
410.097	35.67
410.31	262.99
410.523	439.12
410.736	281.43
410.949	140.12
411.162	113.49
411.375	717.64
411.588	512.85
411.801	303.95
412.014	2.9
412.227	310.1
412.44	209.75
412.653	-9.39
412.865	373.58
413.078	602.96
413.291	435.02
413.504	256.85
413.717	52.05
413.93	523.09
414.143	121.68
414.356	129.88
414.568	-5.29
414.781	645.96
414.994	539.47
415.207	133.97
415.42	154.45
415.632	578.38
415.845	815.94
416.058	4.95
416.271	23.38
416.483	492.37
416.696	734.03
416.909	93.01
417.121	136.02
417.334	473.93
417.547	842.57
417.759	125.78
417.972	140.12
418.185	236.37
418.397	504.65
418.61	160.59
418.823	127.83
419.035	869.19
419.248	514.89
419.46	279.38
419.673	158.55
419.885	518.99
420.098	398.16
420.311	142.16
420.523	-21.67
420.736	617.29
420.948	441.17
421.161	131.92
421.373	-13.48
421.586	432.97
421.798	256.85
422.01	68.44
422.223	324.43
422.435	281.43
422.648	551.76
422.86	287.57
423.073	185.17
423.285	709.45
423.497	217.94
423.71	238.42
423.922	183.12
424.134	545.61
424.347	885.58
424.559	469.84
424.771	437.07
424.984	392.02
425.196	633.68
425.408	23.38
425.621	168.79
425.833	611.15
426.045	824.14
426.257	138.07
426.47	256.85
426.682	568.14
426.894	629.58
427.106	340.82
427.318	377.68
427.531	381.78
427.743	711.5
427.955	293.71
428.167	676.68
428.379	605
428.591	416.59
428.804	392.02
429.016	258.9
429.228	412.5
429.44	705.35
429.652	553.8
429.864	273.23
430.076	557.9
430.288	555.85
430.5	400.21
430.712	441.17
430.924	748.36
431.136	633.68
431.348	217.94
431.56	326.48
431.772	596.81
431.984	555.85
432.196	430.93
432.408	396.11
432.62	541.52
432.832	770.89
433.044	697.16
433.256	562
433.468	830.28
433.679	314.19
433.891	330.58
434.103	613.2
434.315	1018.69
434.527	795.47
434.739	549.71
434.95	449.36
435.162	944.97
435.374	527.18
435.586	510.8
435.798	529.23
436.009	361.3
436.221	607.05
436.433	551.76
436.645	510.8
436.856	617.29
437.068	1067.85
437.28	586.57
437.491	889.67
437.703	908.1
437.915	770.89
438.126	592.72
438.338	803.66
438.55	674.64
438.761	904.01
438.973	664.4
439.184	629.58
439.396	740.17
439.608	871.24
439.819	510.8
440.031	668.49
440.242	1051.46
440.454	910.15
440.665	576.33
440.877	676.68
441.088	979.78
441.3	678.73
441.511	430.93
441.723	605
441.934	922.44
442.146	838.47
442.357	738.12
442.569	918.34
442.78	920.39
442.991	1329.99
443.203	985.93
443.414	625.48
443.626	1233.73
443.837	856.9
444.048	592.72
444.26	543.57
444.471	893.77
444.682	1129.28
444.894	473.93
445.105	637.77
445.316	1190.72
445.528	1080.13
445.739	893.77
445.95	881.48
446.161	971.59
446.373	1248.07
446.584	842.57
446.795	701.26
447.006	1248.07
447.217	1375.04
447.429	619.34
447.64	641.87
447.851	1260.35
448.062	1041.22
448.273	471.89
448.484	809.8
448.695	1123.14
448.907	969.54
449.118	889.67
449.329	1006.41
449.54	955.21
449.751	781.13
449.962	836.42
450.173	746.31
450.384	1280.83
450.595	1479.49
450.806	912.2
451.017	998.21
451.228	1434.43
451.439	1252.16
451.65	924.49
451.861	707.4
452.072	891.72
452.283	1194.82
452.494	1143.62
452.705	826.18
452.915	1596.22
453.126	1348.42
453.337	867.14
453.548	920.39
453.759	1491.77
453.97	1727.29
454.181	1192.77
454.391	1090.37
454.602	1141.57
454.813	1289.03
455.024	1086.28
455.235	1047.37
455.445	1366.85
455.656	1483.58
455.867	1166.15
456.078	1121.09
456.288	1160
456.499	1463.1
456.71	1061.7
456.921	1362.75
457.131	1448.77
457.342	1379.14
457.553	1207.11
457.763	1168.2
457.974	1573.69
458.184	1510.21
458.395	965.45
458.606	1176.39
458.816	1739.58
459.027	1944.38
459.237	1395.52
459.448	1041.22
459.659	1782.59
459.869	2204.47
460.08	1073.99
460.29	1342.27
460.501	2050.87
460.711	1520.45
460.922	1155.91
461.132	1280.83
461.343	2325.3
461.553	1241.92
461.764	1397.57
461.974	1364.8
462.184	1846.07
462.395	1727.29
462.605	1542.97
462.816	1395.52
463.026	1676.09
463.236	1964.86
463.447	1413.95
463.657	1485.63
463.867	2108.21
464.078	1809.21
464.288	1674.04
464.498	1596.22
464.709	1831.74
464.919	1719.1
465.129	1690.43
465.339	1604.41
465.55	1983.29
465.76	2052.92
465.97	1645.37
466.18	1766.2
466.391	2286.39
466.601	2087.73
466.811	1823.55
467.021	1729.34
467.231	2155.32
467.441	2265.91
467.651	1841.98
467.862	1712.96
468.072	2120.5
468.282	2429.74
468.492	1911.61
468.702	1989.43
468.912	2274.1
469.122	2829.1
469.332	2347.83
469.542	1870.65
469.752	2460.46
469.962	2224.95
470.172	2116.41
470.382	2034.49
470.592	2612.01
470.802	2730.8
471.012	2284.34
471.222	2216.76
471.432	2816.81
471.642	2837.29
471.852	2528.05
472.062	2362.16
472.272	2581.29
472.482	2292.53
472.691	2382.64
472.901	2388.78
473.111	2837.29
473.321	3347.23
473.531	2644.78
473.741	2685.74
473.95	3029.8
474.16	3074.85
474.37	2663.21
474.58	2569.01
474.79	3308.32
474.999	3205.92
475.209	2677.55
475.419	2980.65
475.628	3167.01
475.838	3410.72
476.048	3181.35
476.258	2790.19
476.467	3525.41
476.677	3287.84
476.886	3363.62
477.096	3230.5
477.306	3238.69
477.515	3609.37
477.725	3171.11
477.935	3494.69
478.144	3998.49
478.354	3339.04
478.563	3281.7
478.773	3377.95
478.982	3787.55
479.192	4078.36
479.401	3564.32
479.611	3470.11
479.82	3654.43
480.03	3838.75
480.239	3746.59
480.449	3619.61
480.658	4483.86
480.868	3883.8
481.077	3926.81
481.287	3834.65
481.496	4381.46
481.705	4670.22
481.915	4358.93
482.124	4254.48
482.333	4485.9
482.543	4614.93
482.752	4305.68
482.961	4193.05
483.171	4647.69
483.38	4516.62
483.589	4317.97
483.799	4303.64
484.008	4619.02
484.217	4780.81
484.426	4377.36
484.636	4248.34
484.845	4713.23
485.054	4403.99
485.263	4971.27
485.472	4713.23
485.682	5464.83
485.891	4872.97
486.1	4610.83
486.309	4879.11
486.518	5108.49
486.727	5495.55
486.936	4797.2
487.146	5128.97
487.355	5628.67
487.564	5016.33
487.773	5042.95
487.982	5198.6
488.191	5333.76
488.4	5626.62
488.609	5296.9
488.818	5239.56
489.027	6175.48
489.236	5991.16
489.445	5374.72
489.654	5387.01
489.863	5796.6
490.072	5737.21
490.281	5882.62
490.49	5579.52
490.698	6300.41
490.907	6419.19
491.116	5630.72
491.325	5600
491.534	6275.83
491.743	6087.42
491.952	5761.79
492.16	5995.26
492.369	6271.73
492.578	6398.71
492.787	6195.96
492.996	5991.16
493.204	6177.53
493.413	6859.5
493.622	5993.21
493.831	5974.78
494.039	6939.37
494.248	6298.36
494.457	6335.22
494.665	6298.36
494.874	6662.9
495.083	7107.3
495.291	6630.13
495.5	6247.16
495.709	7041.77
495.917	6666.99
496.126	6718.19
496.335	6658.8
496.543	6693.62
496.752	6861.55
496.96	7129.83
497.169	6736.62
497.377	7039.72
497.586	7377.64
497.794	7060.2
498.003	6693.62
498.211	7199.46
498.42	7545.57
498.628	7082.73
498.837	6988.52
499.045	7383.78
499.254	7406.31
499.462	7113.45
499.671	7056.11
499.879	7781.09
500.087	7690.98
500.296	7236.33
500.504	7224.04
500.713	7740.13
500.921	8104.67
501.129	7221.99
501.338	7484.13
501.546	7848.67
501.754	7869.15
501.962	7650.02
502.171	7424.74
502.379	7920.35
502.587	8254.17
502.795	7656.16
503.004	7772.89
503.212	7944.92
503.42	8440.53
503.628	7924.44
503.837	7893.72
504.045	8358.61
504.253	8626.9
504.461	7965.4
504.669	7901.92
504.877	8252.12
505.085	8680.14
505.294	8045.27
505.502	8313.56
505.71	8467.16
505.918	8516.31
506.126	8028.89
506.334	8127.19
506.542	8667.86
506.75	8522.45
506.958	8239.83
507.166	8305.37
507.374	8600.27
507.582	9102.03
507.79	8655.57
507.998	8436.44
508.206	8989.39
508.414	8725.2
508.622	8387.29
508.83	8516.31
509.037	9188.04
509.245	8557.27
509.453	8684.24
509.661	8651.47
509.869	9327.3
510.077	8901.33
510.285	8893.13
510.492	8360.66
510.7	9726.66
510.908	9042.64
511.116	8762.06
511.324	8848.08
511.531	9059.02
511.739	9349.83
511.947	9249.48
512.155	9204.42
512.362	9538.24
512.57	8936.14
512.778	9054.92
512.985	8932.05
513.193	9628.35
513.401	9718.47
513.608	9353.93
513.816	9147.08
514.024	9446.09
514.231	9675.46
514.439	9188.04
514.646	9278.15
514.854	9867.97
515.061	9812.67
515.269	9419.46
515.477	9398.98
515.684	9472.71
515.892	9933.5
516.099	9446.09
516.307	9286.34
516.514	10042.04
516.722	10279.61
516.929	9687.75
517.136	9695.94
517.344	10222.27
517.551	10148.54
517.759	9810.62
517.966	9966.27
518.173	10056.38
518.381	10197.69
518.588	10046.14
518.796	9689.79
519.003	10169.02
519.21	10154.68
519.418	10117.82
519.625	10316.47
519.832	10402.49
520.039	10597.04
520.247	9835.2
520.454	10037.95
520.661	10996.4
520.868	10840.75
521.076	10388.15
521.283	10302.14
521.49	11311.78
521.697	10783.41
521.904	10537.65
522.112	10492.6
522.319	10850.99
522.526	10887.86
522.733	10521.27
522.94	10390.2
523.147	10916.53
523.354	11356.84
523.561	10455.73
523.768	10816.18
523.975	11430.57
524.183	11096.75
524.39	10762.93
524.597	10883.76
524.804	11053.74
525.011	10977.97
525.218	11018.93
525.425	11127.47
525.632	11678.37
525.838	11324.07
526.045	11125.42
526.252	11123.37
526.459	12671.64
526.666	12098.2
526.873	11078.32
527.08	11330.22
527.287	11946.66
527.494	11500.2
527.701	11399.85
527.907	11397.8
528.114	11899.55
528.321	11838.11
528.528	11565.73
528.735	11584.16
528.941	11864.74
529.148	11606.69
529.355	11885.22
529.562	11582.12
529.768	12466.84
529.975	11610.79
530.182	11850.4
530.388	11678.37
530.595	12333.72
530.802	12006.05
531.008	11948.7
531.215	11678.37
531.422	13132.43
531.628	13146.76
531.835	12122.78
532.042	12259.99
532.248	12503.7
532.455	12530.33
532.661	12286.62
532.868	11995.81
533.074	12421.78
533.281	12823.19
533.487	12337.82
533.694	12333.72
533.9	12636.82
534.107	12765.84
534.313	12536.47
534.52	12522.13
534.726	13238.92
534.933	13535.88
535.139	12303
535.345	12663.44
535.552	13017.74
535.758	13232.78
535.965	12743.31
536.171	12825.23
536.377	13611.65
536.584	13169.29
536.79	12804.75
536.996	13253.26
537.203	13554.31
537.409	13527.69
537.615	13077.13
537.821	13054.61
538.028	13591.17
538.234	13826.69
538.44	12987.02
538.646	13277.83
538.853	13769.35
539.059	13505.16
539.265	13755.01
539.471	13103.76
539.677	13660.8
539.883	13664.9
540.09	13271.69
540.296	13924.99
540.502	14029.44
540.708	13789.83
540.914	14074.49
541.12	13718.15
541.326	14140.03
541.532	13922.94
541.738	13890.18
541.944	14115.45
542.15	14594.68
542.356	14228.09
542.562	13896.32
542.768	13947.52
542.974	14813.81
543.18	14912.11
543.386	14238.33
543.592	14011.01
543.798	15043.18
544.004	14963.31
544.21	14428.79
544.415	14150.27
544.621	14893.68
544.827	14946.93
545.033	14312.06
545.239	14819.96
545.445	14600.82
545.651	14871.15
545.856	14555.77
546.062	14654.07
546.268	14885.49
546.474	14955.12
546.679	14584.44
546.885	14641.78
547.091	14901.87
547.297	15344.24
547.502	14717.56
547.708	14631.54
547.914	14822
548.119	15346.28
548.325	14711.41
548.531	14682.74
548.736	15456.87
548.942	15153.77
549.147	15016.56
549.353	15592.04
549.559	15489.64
549.764	15508.07
549.97	15112.81
550.175	15112.81
550.381	15661.67
550.586	15194.73
550.792	15280.75
550.997	15174.25
551.203	15620.71
551.408	15874.66
551.614	15157.87
551.819	15342.19
552.025	16210.53
552.23	16374.36
552.435	15546.98
552.641	16153.18
552.846	15772.26
553.052	16228.96
553.257	15845.99
553.462	16128.61
553.668	16167.52
553.873	16366.17
554.078	15874.66
554.283	15723.11
554.489	16341.6
554.694	16427.61
554.899	15848.04
555.105	16360.03
555.31	16575.06
555.515	16337.5
555.72	16128.61
555.925	16192.09
556.131	16712.28
556.336	16308.83
556.541	16452.19
556.746	16265.82
556.951	16955.99
557.156	16851.54
557.361	16468.57
557.567	16616.02
557.772	17408.59
557.977	16843.35
558.182	16517.72
558.387	16525.91
558.592	16847.44
558.797	17242.7
559.002	16835.16
559.207	16689.75
559.412	16859.73
559.617	17236.56
559.822	16777.81
560.027	16642.65
560.232	17132.11
560.437	17195.6
560.642	16804.44
560.847	16917.08
561.051	17269.33
561.256	17164.88
561.461	17064.53
561.666	17113.68
561.871	17361.48
562.076	17660.49
562.281	17123.92
562.485	16669.27
562.69	17652.3
562.895	17916.48
563.1	17125.97
563.305	17013.33
563.509	17945.16
563.714	18184.77
563.919	17113.68
564.123	17406.54
564.328	17463.88
564.533	18141.76
564.737	17238.61
564.942	17328.72
565.147	18256.45
565.351	18170.43
565.556	17717.83
565.761	17566.28
565.965	17807.94
566.17	17674.82
566.374	17619.53
566.579	17685.06
566.784	18104.9
566.988	17926.72
567.193	17685.06
567.397	17717.83
567.602	18096.71
567.806	18008.64
568.011	17971.78
568.215	18102.85
568.42	18289.21
568.624	18289.21
568.828	18016.83
569.033	18119.23
569.237	18684.47
569.442	18573.88
569.646	17797.7
569.85	18233.92
570.055	18661.94
570.259	18381.37
570.463	18336.32
570.668	18209.34
570.872	18233.92
571.076	18616.89
571.281	18682.42
571.485	18606.65
571.689	18686.52
571.893	18682.42
572.098	18563.64
572.302	18442.81
572.506	18827.83
572.71	18641.46
572.914	18647.61
573.119	18645.56
573.323	19178.03
573.527	19178.03
573.731	18737.72
573.935	19096.11
574.139	19470.89
574.343	19128.88
574.547	18797.11
574.751	18790.97
574.955	19413.55
575.159	19563.05
575.364	18983.48
575.568	19061.3
575.772	19386.93
575.976	19841.57
576.18	19063.35
576.383	19020.34
576.587	19624.49
576.791	19610.15
576.995	19061.3
577.199	18995.76
577.403	19649.07
577.607	19894.82
577.811	19458.6
578.015	19440.17
578.219	19823.14
578.422	19999.27
578.626	19780.14
578.83	19548.72
579.034	20126.24
579.238	20138.53
579.442	19503.66
579.645	20171.3
579.849	20113.95
580.053	20331.04
580.257	19886.63
580.46	19950.12
580.664	20462.11
580.868	20541.98
581.071	19972.64
581.275	20073
581.479	20068.9
581.682	20537.88
581.886	20079.14
582.09	19905.06
582.293	20515.36
582.497	20890.13
582.7	20664.86
582.904	20150.82
583.107	20451.87
583.311	20290.08
583.515	20132.39
583.718	20275.74
583.922	20730.39
584.125	21053.97
584.329	20195.87
584.532	20730.39
584.735	21199.38
584.939	20931.09
585.142	20482.59
585.346	20785.69
585.549	20834.84
585.753	20845.08
585.956	20539.93
586.159	20777.5
586.363	21494.29
586.566	21264.91
586.769	20511.26
586.973	20607.51
587.176	21228.05
587.379	21518.86
587.582	21180.95
587.786	21099.03
587.989	21438.99
588.192	21973.51
588.395	21043.73
588.599	21455.37
588.802	21455.37
589.005	21445.13
589.208	21535.24
589.411	21228.05
589.615	21789.19
589.818	22118.92
590.021	21723.66
590.224	21613.07
590.427	22186.5
590.63	21815.82
590.833	21254.67
591.036	21559.82
591.239	21957.13
591.442	21842.44
591.645	21916.17
591.848	21905.93
592.051	22229.51
592.254	22243.84
592.457	22020.61
592.66	21844.49
592.863	22233.6
593.066	22254.08
593.269	21977.61
593.472	21977.61
593.675	22530.56
593.878	22424.06
594.081	22061.57
594.284	21932.55
594.486	23022.07
594.689	22442.49
594.892	22364.67
595.095	22454.78
595.298	22510.08
595.5	22680.06
595.703	22788.6
595.906	22792.7
596.109	23149.04
596.311	23239.15
596.514	22163.97
596.717	22780.41
596.92	23400.94
597.122	23198.2
597.325	22440.45
597.528	22460.93
597.73	23259.63
597.933	22983.16
598.136	22753.79
598.338	22452.73
598.541	23579.12
598.743	23579.12
598.946	23173.62
599.148	23165.43
599.351	23704.04
599.554	23630.32
599.756	23224.82
599.959	23263.73
600.161	23806.44
600.363	23968.23
600.566	23386.61
600.768	23366.13
600.971	24177.12
601.173	23839.21
601.376	23306.74
601.578	23228.91
601.78	23767.53
601.983	24293.86
602.185	23448.05
602.388	23654.89
602.59	24080.87
602.792	23663.08
602.995	23861.74
603.197	23265.78
603.399	24230.37
603.601	23796.2
603.804	23327.22
604.006	23824.87
604.208	23869.93
604.41	23892.46
604.613	24084.97
604.815	23841.26
605.017	24500.7
605.219	23841.26
605.421	23835.11
605.623	23632.36
605.826	24476.13
606.028	24416.74
606.23	23802.35
606.432	23818.73
606.634	24762.84
606.836	24592.86
607.038	24015.33
607.24	23908.84
607.442	24461.79
607.644	24273.38
607.846	24273.38
608.048	23585.26
608.25	24635.87
608.452	24158.69
608.654	24367.59
608.856	23575.02
609.058	24271.33
609.26	24721.88
609.462	24340.96
609.664	24365.54
609.866	24955.35
610.067	24881.63
610.269	24818.14
610.471	24359.39
610.673	24267.24
610.875	24707.55
611.077	24318.43
611.278	24269.28
611.48	24975.83
611.682	25231.83
611.884	24777.18
612.085	24465.89
612.287	24793.56
612.489	25051.61
612.69	24435.17
612.892	24676.83
613.094	25182.68
613.295	24547.81
613.497	24476.13
613.699	24781.28
613.9	25336.27
614.102	24932.82
614.304	24402.4
614.505	24316.39
614.707	25164.25
614.908	24869.34
615.11	24326.63
615.311	24936.92
615.513	24975.83
615.714	25455.06
615.916	24582.62
616.117	24871.39
616.319	25012.7
616.52	25176.53
616.722	24799.71
616.923	24898.01
617.124	25106.9
617.326	24959.45
617.527	25024.98
617.729	25031.13
617.93	25268.69
618.131	25561.55
618.333	24811.99
618.534	25076.18
618.735	25178.58
618.937	25709.01
619.138	24855
619.339	24775.13
619.54	25340.37
619.742	25199.06
619.943	25266.64
620.144	25342.42
620.345	25692.62
620.546	25651.66
620.748	25108.95
620.949	25397.71
621.15	25426.39
621.351	25434.58
621.552	25135.57
621.753	24938.97
621.954	25041.37
622.155	25627.09
622.356	25192.92
622.558	25594.32
622.759	25506.26
622.96	25897.42
623.161	25139.67
623.362	25465.3
623.563	25768.4
623.764	25620.94
623.965	25395.67
624.166	25827.79
624.366	25758.16
624.567	25696.72
624.768	25407.95
624.969	25375.19
625.17	25702.86
625.371	26134.98
625.572	25612.75
625.773	25612.75
625.973	26259.91
626.174	26044.87
626.375	25911.75
626.576	26091.98
626.777	26384.83
626.977	26497.47
627.178	25498.06
627.379	25577.94
627.58	25895.37
627.78	25805.26
627.981	25768.4
628.182	26200.52
628.382	25942.47
628.583	25733.58
628.784	25805.26
628.984	25948.62
629.185	26644.93
629.386	26210.76
629.586	26395.07
629.787	25856.46
629.987	26276.29
630.188	26528.19
630.388	26249.67
630.589	26157.51
630.79	27265.46
630.99	26694.08
631.191	26544.58
631.391	26122.69
631.591	26804.67
631.792	26739.13
631.992	26487.23
632.193	26323.4
632.393	26790.33
632.594	26458.56
632.794	26487.23
632.994	26304.96
633.195	26827.2
633.395	26757.57
633.595	26307.01
633.796	26657.21
633.996	26499.52
634.196	26964.41
634.397	26546.62
634.597	26462.66
634.797	26614.21
634.997	27247.03
635.198	27083.19
635.398	26407.36
635.598	27154.87
635.798	27333.04
635.998	26896.83
636.199	26282.44
636.399	27085.24
636.599	26454.47
636.799	26567.1
636.999	27015.61
637.199	26980.79
637.399	27398.58
637.599	26759.61
637.799	26526.14
637.999	26966.46
638.199	27507.12
638.399	26606.02
638.599	26773.95
638.799	27392.44
638.999	27677.1
639.199	27165.11
639.399	27216.31
639.599	27568.56
639.799	27093.43
639.999	27128.25
640.199	26962.36
640.399	27228.6
640.599	26563.01
640.799	27255.22
640.998	27636.14
641.198	27904.43
641.398	27503.03
641.598	27517.36
641.798	27257.27
641.997	28832.16
642.197	27707.82
642.397	27357.62
642.597	27355.57
642.796	27888.04
642.996	27902.38
643.196	27410.87
643.395	27011.51
643.595	27791.79
643.795	27419.06
643.994	27333.04
644.194	27638.19
644.394	28203.43
644.593	27957.67
644.793	27675.06
644.992	27689.39
645.192	27423.15
645.392	27658.67
645.591	27726.25
645.791	27562.42
645.99	28260.77
646.19	28008.87
646.389	27804.08
646.589	27818.41
646.788	28445.09
646.987	27959.72
647.187	27961.77
647.386	27918.76
647.586	28516.77
647.785	28248.49
647.984	27861.42
648.184	28191.14
648.383	27890.09
648.582	28033.45
648.782	28213.67
648.981	28352.93
649.18	27777.45
649.38	28318.12
649.579	28135.85
649.778	28160.42
649.977	28578.21
650.177	28500.39
650.376	27689.39
650.575	28129.7
650.774	28631.46
650.973	28434.85
651.173	27845.04
651.372	28416.42
651.571	28408.23
651.77	28686.75
651.969	28451.24
652.168	28463.52
652.367	28322.21
652.566	28551.59
652.765	28471.71
652.964	28582.31
653.163	28682.66
653.362	28295.59
653.561	28176.81
653.76	28295.59
653.959	28461.48
654.158	29268.37
654.357	28912.03
654.556	28379.56
654.755	29208.98
654.954	29010.33
655.153	28461.48
655.352	28651.94
655.551	28586.4
655.749	28952.99
655.948	28594.59
656.147	28826.01
656.346	28877.21
656.545	29024.67
656.743	28791.2
656.942	28938.65
657.141	28799.39
657.34	28703.14
657.538	28696.99
657.737	28881.31
657.936	29299.09
658.135	29079.96
658.333	28740
658.532	29008.28
658.731	29692.3
658.929	29532.56
659.128	28998.04
659.326	28799.39
659.525	29698.45
659.724	29221.27
659.922	28731.81
660.121	28715.42
660.319	29219.22
660.518	28842.4
660.716	28748.19
660.915	28973.47
661.113	29438.36
661.312	28821.92
661.51	29204.89
661.709	28909.98
661.907	29675.92
662.105	29655.44
662.304	29170.07
662.502	29129.11
662.701	29811.09
662.899	29370.77
663.097	29342.1
663.296	29116.83
663.494	29665.68
663.692	29743.5
663.891	28893.6
664.089	29266.33
664.287	29497.75
664.485	29643.15
664.684	29094.3
664.882	29321.62
665.08	29299.09
665.278	29698.45
665.476	29118.87
665.675	29516.18
665.873	29958.54
666.071	29608.34
666.269	29096.35
666.467	29362.58
666.665	29483.41
666.863	29241.75
667.061	29622.67
667.259	29649.3
667.457	29821.33
667.655	29514.13
667.853	29278.61
668.051	29528.47
668.249	29493.65
668.447	29956.49
668.645	29327.77
668.843	29288.85
669.041	29600.15
669.239	29397.4
669.437	29077.91
669.635	29759.89
669.833	29237.66
670.031	29847.95
670.229	29505.94
670.426	29759.89
670.624	29374.87
670.822	29305.24
671.02	29145.5
671.218	29299.09
671.415	29370.77
671.613	29331.86
671.811	29317.53
672.009	29313.43
672.206	30075.27
672.404	29794.7
672.602	29368.73
672.799	29770.13
672.997	30005.64
673.195	29690.26
673.392	29501.84
673.59	29161.88
673.788	29622.67
673.985	28928.41
674.183	29516.18
674.38	29385.11
674.578	29753.74
674.775	29313.43
674.973	29051.29
675.17	29456.79
675.368	29858.19
675.565	29620.63
675.763	29342.1
675.96	29391.25
676.158	29962.64
676.355	29082.01
676.553	29251.99
676.75	29006.23
676.947	29923.72
677.145	29198.74
677.342	29190.55
677.539	29507.99
677.737	29774.22
677.934	30062.99
678.131	29514.13
678.329	29088.15
678.526	29864.33
678.723	29657.49
678.92	29594
679.118	28922.27
679.315	29211.03
679.512	30173.58
679.709	29241.75
679.906	29432.21
680.104	29698.45
680.301	29550.99
680.498	28735.9
680.695	29106.59
680.892	29346.2
681.089	29374.87
681.286	29274.52
681.483	28688.8
681.68	29432.21
681.877	29622.67
682.075	29290.9
682.272	29297.05
682.469	29479.32
682.665	29256.09
682.862	29157.78
683.059	28875.16
683.256	29319.57
683.453	29161.88
683.65	29542.8
683.847	29276.57
684.044	29153.69
684.241	28803.49
684.438	29737.36
684.635	28836.25
684.831	29669.78
685.028	29460.88
685.225	29139.35
685.422	28985.76
685.619	29272.47
685.815	29268.37
686.012	29262.23
686.209	28752.29
686.405	28932.51
686.602	29256.09
686.799	28848.54
686.996	29057.43
687.192	28918.17
687.389	29338.01
687.586	28889.5
687.782	29122.97
687.979	29505.94
688.175	29311.38
688.372	28916.12
688.568	28842.4
688.765	28842.4
688.962	29643.15
689.158	29012.38
689.355	28750.24
689.551	29184.41
689.748	28869.02
689.944	29039
690.14	28651.94
690.337	29168.02
690.533	28826.01
690.73	28395.94
690.926	29098.39
691.123	28936.6
691.319	28629.41
691.515	29014.43
691.712	28649.89
691.908	29436.31
692.104	29233.56
692.301	28981.66
692.497	28504.48
692.693	29168.02
692.889	29155.74
693.086	28635.55
693.282	28490.15
693.478	28635.55
693.674	29417.88
693.87	28889.5
694.067	28666.27
694.263	29104.54
694.459	28899.74
694.655	28699.04
694.851	29045.15
695.047	28928.41
695.243	29032.86
695.439	28920.22
695.635	28375.46
695.831	28844.45
696.027	28686.75
696.224	28555.68
696.42	28549.54
696.615	28957.08
696.811	29254.04
697.007	28545.44
697.203	28795.29
697.399	28606.88
697.595	28934.56
697.791	28021.16
697.987	28778.91
698.183	28897.69
698.379	27994.54
698.575	28733.85
698.77	28543.39
698.966	28701.09
699.162	28778.91
699.358	28520.87
699.554	28486.05
699.749	28817.82
699.945	28893.6
700.141	28283.3
700.337	28299.69
700.532	28721.57
700.728	28156.33
700.924	28303.78
701.119	28250.53
701.315	28281.25
701.511	27851.18
701.706	28672.42
701.902	28195.24
702.097	28408.23
702.293	28946.84
702.489	28514.72
702.684	28225.96
702.88	28209.57
703.075	28438.95
703.271	28299.69
703.466	28305.83
703.662	27865.52
703.857	28998.04
704.053	28223.91
704.248	28281.25
704.443	28185
704.639	28422.56
704.834	28064.17
705.03	28031.4
705.225	28565.92
705.42	28557.73
705.616	28047.79
705.811	28008.87
706.006	28240.29
706.202	28457.38
706.397	27986.35
706.592	27888.04
706.787	28219.81
706.983	27945.39
707.178	28447.14
707.373	28322.21
707.568	28441
707.763	28271.01
707.959	27986.35
708.154	27924.91
708.349	27996.59
708.544	28617.12
708.739	27980.2
708.934	28152.23
709.129	28049.83
709.324	28527.01
709.519	27961.77
709.714	28105.13
709.909	28641.7
710.104	28119.46
710.299	27744.69
710.494	27955.63
710.689	28357.03
710.884	27949.48
711.079	28012.97
711.274	28029.35
711.469	28320.17
711.664	27804.08
711.859	27810.22
712.054	27937.2
712.249	28389.8
712.443	28176.81
712.638	27695.53
712.833	27720.11
713.028	28004.78
713.223	27869.61
713.417	27890.09
713.612	27799.98
713.807	28434.85
714.002	28641.7
714.196	28006.83
714.391	27599.28
714.586	27974.06
714.78	27716.01
714.975	27826.6
715.17	27615.66
715.364	27777.45
715.559	28412.32
715.754	27087.29
715.948	27589.04
716.143	28195.24
716.337	27730.35
716.532	28162.47
716.726	27531.7
716.921	27912.62
717.115	28328.36
717.31	27840.94
717.504	28041.64
717.699	27687.34
717.893	28068.27
718.088	27292.08
718.282	27425.2
718.476	27519.41
718.671	27548.08
718.865	27406.77
719.059	27042.23
719.254	27318.71
719.448	27972.01
719.642	27406.77
719.837	27070.9
720.031	27705.77
720.225	27865.52
720.419	27316.66
720.614	27232.69
720.808	27584.94
721.002	27148.73
721.196	26960.31
721.39	27216.31
721.585	27447.73
721.779	27199.93
721.973	26978.75
722.167	26646.97
722.361	27040.18
722.555	27326.9
722.749	26655.17
722.943	27175.35
723.137	26698.17
723.331	27101.62
723.525	26986.94
723.719	26640.83
723.913	27374
724.107	27158.97
724.301	26728.89
724.495	26995.13
724.689	27036.09
724.883	27359.67
725.077	26794.43
725.271	26939.83
725.465	27447.73
725.659	27064.76
725.853	27081.14
726.046	26606.02
726.24	26603.97
726.434	26943.93
726.628	26741.18
726.822	26786.24
727.015	27212.21
727.209	27013.56
727.403	26862.01
727.596	26448.32
727.79	27312.56
727.984	27414.96
728.177	26845.63
728.371	26929.59
728.565	27310.52
728.758	26634.69
728.952	26704.32
729.146	26745.28
729.339	27511.22
729.533	26808.76
729.726	26544.58
729.92	26663.36
730.113	27234.74
730.307	26970.55
730.5	26663.36
730.694	26620.35
730.887	26939.83
731.081	27199.93
731.274	26673.6
731.468	26446.27
731.661	26907.07
731.854	26714.56
732.048	26464.71
732.241	26552.77
732.435	27077.05
732.628	27017.66
732.821	26585.54
733.014	26653.12
733.208	26411.46
733.401	26978.75
733.594	26429.89
733.788	26868.16
733.981	27322.8
734.174	27070.9
734.367	27089.34
734.56	26782.14
734.754	27333.04
734.947	27052.47
735.14	26794.43
735.333	26917.31
735.526	27099.58
735.719	26849.72
735.912	26503.62
736.105	26595.78
736.298	26851.77
736.491	26732.99
736.684	26737.09
736.877	26603.97
737.07	26698.17
737.263	27298.23
737.456	26378.69
737.649	26626.5
737.842	26624.45
738.035	26618.3
738.228	26333.64
738.421	26603.97
738.614	27142.58
738.807	26958.27
739	26298.82
739.192	26290.63
739.385	26808.76
739.578	26651.07
739.771	26905.02
739.964	26405.31
740.156	27097.53
740.349	26653.12
740.542	26882.49
740.735	26419.65
740.927	26333.64
741.12	26452.42
741.313	26644.93
741.505	26843.58
741.698	26796.48
741.891	26845.63
742.083	26798.52
742.276	26497.47
742.468	26700.22
742.661	26716.61
742.854	26579.39
743.046	26190.28
743.239	26919.35
743.431	26921.4
743.624	26399.17
743.816	26450.37
744.009	26659.26
744.201	26907.07
744.393	26702.27
744.586	26077.64
744.778	26612.16
744.971	26577.34
745.163	26366.4
745.355	26151.37
745.548	26550.72
745.74	26126.79
745.932	26601.92
746.125	26134.98
746.317	27050.42
746.509	26390.98
746.702	26155.46
746.894	26366.4
747.086	25942.47
747.278	26667.45
747.471	26458.56
747.663	26128.84
747.855	26335.68
748.047	26634.69
748.239	26302.92
748.431	25897.42
748.623	26737.09
748.815	26649.02
749.008	26008.01
749.2	25862.6
749.392	26091.98
749.584	26259.91
749.776	25915.85
749.968	26032.58
750.16	26560.96
750.352	26118.6
750.544	25762.25
750.736	26177.99
750.928	26427.84
751.12	25878.99
751.311	25577.94
751.503	26012.1
751.695	26137.03
751.887	25833.93
752.079	25551.31
752.271	25647.57
752.463	26743.23
752.654	26282.44
752.846	25694.67
753.038	25434.58
753.23	25596.37
753.421	26143.17
753.613	25438.67
753.805	26151.37
753.997	25950.67
754.188	26075.59
754.38	25262.55
754.572	25442.77
754.763	25774.54
754.955	25629.13
755.146	25369.04
755.338	25233.88
755.53	25788.88
755.721	25635.28
755.913	25070.04
756.104	25104.85
756.296	25690.57
756.487	25893.32
756.679	25141.72
756.87	24873.43
757.062	25211.35
757.253	25600.46
757.445	25197.01
757.636	25567.7
757.827	25151.96
758.019	25881.03
758.21	24926.68
758.401	24996.31
758.593	25965
758.784	25770.44
758.975	24736.22
759.167	25104.85
759.358	25291.22
759.549	25440.72
759.74	25051.61
759.932	24811.99
760.123	25121.24
760.314	25321.94
760.505	24965.59
760.696	24617.44
760.888	25428.43
761.079	24965.59
761.27	24711.64
761.461	24447.46
761.652	25317.84
761.843	24898.01
762.034	24824.28
762.225	24754.65
762.416	24914.39
762.607	24906.2
762.798	24668.64
762.989	24361.44
763.18	25627.09
763.371	24447.46
763.562	24400.35
763.753	24519.14
763.944	24961.5
764.135	24828.38
764.326	24715.74
764.517	24177.12
764.708	24707.55
764.899	24891.87
765.089	24261.09
765.28	24035.81
765.471	24467.94
765.662	24730.08
765.853	24472.03
766.043	23800.3
766.234	24601.05
766.425	24416.74
766.615	23923.18
766.806	24113.64
766.997	24570.33
767.187	24216.04
767.378	24242.66
767.569	23818.73
767.759	24185.32
767.95	24424.93
768.141	24345.06
768.331	23845.35
768.522	24277.47
768.712	24429.02
768.903	23837.16
769.093	23861.74
769.284	24584.67
769.474	23699.95
769.665	23466.48
769.855	23347.7
770.046	23894.5
770.236	23849.45
770.426	23714.28
770.617	23546.35
770.807	23831.02
770.998	24015.33
771.188	23779.82
771.378	23314.93
771.569	23921.13
771.759	23626.22
771.949	23306.74
772.139	23278.07
772.33	23648.75
772.52	24003.05
772.71	23144.95
772.9	22864.38
773.09	24015.33
773.281	24062.44
773.471	23552.49
773.661	23396.85
773.851	23542.25
774.041	23245.3
774.231	23163.38
774.421	22997.49
774.611	23712.24
774.802	23015.93
774.992	22954.49
775.182	22974.97
775.372	23065.08
775.562	23497.2
775.752	23087.61
775.942	23144.95
776.131	23605.74
776.321	23054.84
776.511	23073.27
776.701	22954.49
776.891	23366.13
777.081	22761.98
777.271	22913.53
777.461	22886.9
777.651	23013.88
777.84	23237.11
778.03	23009.78
778.22	22532.61
778.41	23316.98
778.599	22612.48
778.789	22725.11
778.979	22532.61
779.169	23136.76
779.358	22661.63
779.548	22938.1
779.738	22409.73
779.927	22766.07
780.117	22356.48
780.307	22471.17
780.496	22069.76
780.686	22675.96
780.875	23169.52
781.065	22299.14
781.254	22415.87
781.444	22481.41
781.633	22483.45
781.823	22118.92
782.012	22094.34
782.202	22352.38
782.391	22254.08
782.581	21912.07
782.77	22249.99
782.96	22444.54
783.149	21948.93
783.338	22004.23
783.528	21608.97
783.717	22258.18
783.906	22850.04
784.096	21881.35
784.285	21758.47
784.474	22120.96
784.663	21830.15
784.853	21639.69
785.042	21889.54
785.231	22176.26
785.42	22080
785.61	21907.98
785.799	21715.47
785.988	21756.43
786.177	21781
786.366	21633.55
786.555	22219.27
786.744	21959.17
786.933	21873.16
787.122	21506.57
787.312	21664.27
787.501	21475.85
787.69	21944.84
787.879	21666.31
788.068	21244.43
788.257	21459.47
788.445	21453.33
788.634	21762.57
788.823	21645.84
789.012	22143.49
789.201	22049.28
789.39	21500.43
789.579	20988.44
789.768	21053.97
789.957	21381.65
790.145	21453.33
790.334	20978.2
790.523	21307.92
790.712	21713.42
790.9	21426.7
791.089	20888.09
791.278	21629.45
791.467	21674.51
791.655	20992.53
791.844	21672.46
792.033	21146.13
792.221	21166.61
792.41	21023.25
792.599	20806.17
792.787	21445.13
792.976	21422.61
793.164	20912.66
793.353	20941.33
793.541	21654.03
793.73	21404.17
793.918	20986.39
794.107	20689.43
794.295	20945.43
794.484	21015.06
794.672	20591.13
794.861	20816.41
795.049	21010.96
795.238	21455.37
795.426	20580.89
795.614	20982.29
795.803	21088.79
795.991	21312.02
796.179	20726.3
796.368	20304.42
796.556	21193.23
796.744	20857.37
796.932	20646.43
797.121	20447.77
797.309	20824.6
797.497	21172.75
797.685	20877.85
797.874	20513.31
798.062	20705.82
798.25	21170.71
798.438	20515.36
798.626	20677.15
798.814	20992.53
799.002	20896.28
799.19	20515.36
799.378	20498.97
799.566	21074.45
799.755	20929.05
799.943	20714.01
800.131	20374.05
800.318	21088.79
800.506	20879.89
800.694	20341.28
800.882	20521.5
801.07	21148.18
801.258	20587.04
801.446	20400.67
801.634	20169.25
801.822	20953.62
802.01	20507.16
802.197	20359.71
802.385	20519.45
802.573	20869.65
802.761	20611.61
802.949	20836.89
803.136	20441.63
803.324	21105.17
803.512	20701.72
803.699	20857.37
803.887	20689.43
804.075	21365.26
804.262	20761.11
804.45	20525.6
804.638	20683.29
804.825	20836.89
805.013	21021.2
805.201	20679.19
805.388	20525.6
805.576	20994.58
805.763	21402.13
805.951	20683.29
806.138	21199.38
806.326	21905.93
806.513	21154.32
806.701	20759.06
806.888	20994.58
807.075	21021.2
807.263	21469.71
807.45	20722.2
807.638	20845.08
807.825	21547.53
808.012	21166.61
808.2	21123.6
808.387	21025.3
808.574	21264.91
808.761	21355.02
808.949	21185.04
809.136	21228.05
809.323	21094.93
809.51	21326.35
809.698	21279.25
809.885	21117.46
810.072	21412.37
810.259	21527.05
810.446	21033.49
810.633	20984.34
810.82	21649.93
811.008	21907.98
811.195	21467.66
811.382	20859.42
811.569	21418.51
811.756	20933.14
811.943	21479.95
812.13	21088.79
812.317	21418.51
812.504	21375.5
812.691	21154.32
812.878	21162.51
813.064	21473.81
813.251	21324.3
813.438	21269.01
813.625	21137.94
813.812	21377.55
813.999	21541.39
814.186	21266.96
814.372	20986.39
814.559	21256.72
814.746	21414.41
814.933	21269.01
815.12	21463.57
815.306	21135.89
815.493	21293.58
815.68	21488.14
815.866	21086.74
816.053	21633.55
816.24	21619.21
816.426	21246.48
816.613	20924.95
816.799	21512.72
816.986	21604.88
817.173	21123.6
817.359	21074.45
817.546	21512.72
817.732	20890.13
817.919	20894.23
818.105	21037.59
818.292	21176.85
818.478	21258.77
818.665	21326.35
818.851	20781.59
819.037	21813.77
819.224	21496.33
819.41	21090.84
819.597	20851.22
819.783	21627.4
819.969	21576.2
820.156	20974.1
820.342	21076.5
820.528	21561.87
820.714	21088.79
820.901	21293.58
821.087	20818.46
821.273	21694.99
821.459	21051.92
821.646	20691.48
821.832	20615.71
822.018	21129.75
822.204	21254.67
822.39	20597.28
822.576	20527.64
822.762	21068.31
822.948	20822.55
823.134	20963.86
823.32	20668.95
823.507	20638.23
823.693	20910.61
823.879	21160.47
824.065	20894.23
824.25	20783.64
824.436	20302.37
824.622	20410.91
824.808	20337.18
824.994	20933.14
825.18	20441.63
825.366	20199.97
825.552	20216.35
825.738	20861.46
825.923	20988.44
826.109	20429.34
826.295	20251.17
826.481	20273.7
826.667	20355.61
826.852	20316.7
827.038	20294.18
827.224	20623.9
827.409	21191.19
827.595	19847.72
827.781	20253.22
827.966	20736.54
828.152	20671
828.338	20179.49
828.523	19817
828.709	19933.73
828.894	20218.4
829.08	20118.05
829.266	19968.55
829.451	19933.73
829.637	20384.29
829.822	20154.91
830.008	19700.26
830.193	20111.91
830.378	20343.33
830.564	19835.43
830.749	19540.52
830.935	20105.76
831.12	20263.46
831.305	19683.88
831.491	19696.17
831.676	19468.84
831.861	20173.35
832.047	19610.15
832.232	19479.08
832.417	19784.23
832.602	19991.08
832.788	19378.73
832.973	19503.66
833.158	19591.72
833.343	19540.52
833.528	19589.67
833.714	19528.24
833.899	20042.28
834.084	19823.14
834.269	19130.93
834.454	19503.66
834.639	19935.78
834.824	19567.15
835.009	19329.58
835.194	19397.17
835.379	19771.94
835.564	19583.53
835.749	19425.84
835.934	19266.1
836.119	19608.11
836.304	19098.16
836.489	18967.09
836.674	19020.34
836.859	19380.78
837.044	19585.58
837.228	18815.54
837.413	19270.19
837.598	19315.25
837.783	19313.2
837.968	18881.08
838.152	18842.17
838.337	18534.97
838.522	19532.33
838.707	19460.65
838.891	18985.52
839.076	19345.97
839.261	19288.62
839.445	18758.2
839.63	18577.98
839.815	19264.05
839.999	18868.79
840.184	18778.68
840.368	18860.6
840.553	18926.13
840.737	19079.73
840.922	18504.25
841.106	18508.35
841.291	18393.66
841.475	18926.13
841.66	18414.14
841.844	18270.78
842.029	19307.05
842.213	18612.79
842.397	18336.32
842.582	18246.21
842.766	18969.14
842.951	18919.99
843.135	18420.28
843.319	18506.3
843.504	18651.7
843.688	18930.23
843.872	18068.03
844.056	18455.1
844.241	18704.95
844.425	18461.24
844.609	18395.71
844.793	18061.89
844.977	18528.83
845.161	18231.87
845.346	18117.18
845.53	18266.69
845.714	18330.17
845.898	18887.22
846.082	17867.33
846.266	18164.29
846.45	18182.72
846.634	18137.66
846.818	18115.14
847.002	18356.8
847.186	18395.71
847.37	17840.71
847.554	17758.79
847.738	18004.55
847.922	18143.81
848.106	18381.37
848.29	17820.23
848.473	17703.5
848.657	18188.86
848.841	18033.22
849.025	17631.82
849.209	17420.88
849.392	18051.65
849.576	18043.46
849.76	17191.5
849.944	17777.22
850.127	18352.7
850.311	17287.76
850.495	17332.81
850.678	17304.14
850.862	18039.36
851.046	18262.59
851.229	17599.05
851.413	17365.58
851.596	17744.45
851.78	17732.17
851.964	17381.96
852.147	17117.78
852.331	18342.46
852.514	17779.27
852.698	17490.51
852.881	17193.55
853.065	17605.19
853.248	17410.64
853.431	17320.53
853.615	17181.26
853.798	17949.25
853.982	17590.86
854.165	17318.48
854.348	17152.59
854.532	17269.33
854.715	17326.67
854.898	17308.24
855.081	17312.33
855.265	17687.11
855.448	17631.82
855.631	17080.91
855.814	17158.74
855.997	17570.38
856.181	17123.92
856.364	16876.12
856.547	16659.03
856.73	17097.3
856.913	16882.26
857.096	16712.28
857.279	17320.53
857.462	17054.29
857.645	17248.85
857.828	16734.81
858.011	16831.06
858.194	17091.15
858.377	17025.62
858.56	16523.87
858.743	16636.5
858.926	16573.02
859.109	17007.19
859.292	16433.75
859.475	16540.25
859.658	17132.11
859.841	16820.82
860.023	16194.14
860.206	16306.78
860.389	16872.02
860.572	16755.29
860.755	16054.88
860.937	16196.19
861.12	16417.37
861.303	16417.37
861.486	16061.02
861.668	16030.3
861.851	16263.77
862.034	16462.43
862.216	16378.46
862.399	15596.14
862.581	16484.95
862.764	16546.39
862.947	16007.78
863.129	15802.98
863.312	15872.61
863.494	16274.01
863.677	16091.74
863.859	15663.72
864.042	16118.37
864.224	16517.72
864.406	15946.34
864.589	15415.91
864.771	16280.16
864.954	15377
865.136	15485.55
865.318	15164.01
865.501	16085.6
865.683	15180.4
865.865	15526.5
866.048	15510.12
866.23	15610.47
866.412	15698.53
866.594	15348.33
866.777	15436.39
866.959	15606.38
867.141	15422.06
867.323	15413.87
867.505	15592.04
867.687	15465.07
867.869	15649.38
868.052	15383.15
868.234	14998.13
868.416	15495.78
868.598	15874.66
868.78	15411.82
868.962	15166.06
869.144	15919.71
869.326	15635.05
869.508	15131.25
869.69	15194.73
869.872	15235.69
870.054	15944.29
870.236	14682.74
870.417	15194.73
870.599	15555.18
870.781	15788.64
870.963	15430.25
871.145	15057.52
871.327	15350.38
871.508	15440.49
871.69	15073.9
871.872	15153.77
872.054	15342.19
872.235	15604.33
872.417	15118.96
872.599	14983.79
872.78	15837.8
872.962	15172.21
873.144	14940.79
873.325	15127.15
873.507	15465.07
873.689	15295.08
873.87	15020.66
874.052	15272.56
874.233	15215.21
874.415	15344.24
874.596	15250.03
874.778	14895.73
874.959	15286.89
875.141	15395.43
875.322	15116.91
875.503	14709.36
875.685	15551.08
875.866	14822
876.048	14887.54
876.229	14934.64
876.41	15168.11
876.592	15661.67
876.773	14862.96
876.954	14645.88
877.136	15770.21
877.317	15354.48
877.498	14985.84
877.679	15274.6
877.86	15473.26
878.042	15108.72
878.223	15039.09
878.404	15583.85
878.585	15571.56
878.766	15753.83
878.947	15506.02
879.128	15399.53
879.309	15706.73
879.49	15479.4
879.672	15227.5
879.853	15241.84
880.034	15411.82
880.215	15815.27
880.396	15362.67
880.576	15405.67
880.757	15280.75
880.938	15639.14
881.119	15319.66
881.3	15321.71
881.481	15307.37
881.662	16671.32
881.843	15284.84
882.023	15331.95
882.204	15676.01
882.385	15850.08
882.566	15456.87
882.747	15415.91
882.927	15782.5
883.108	16214.62
883.289	15600.23
883.469	15921.76
883.65	15948.39
883.831	15911.52
884.011	15569.51
884.192	15807.08
884.373	16114.27
884.553	16007.78
884.734	15913.57
884.914	15880.8
885.095	16683.61
885.275	16548.44
885.456	16083.55
885.636	15772.26
885.817	16390.75
885.997	16190.05
886.178	16042.59
886.358	15915.62
886.538	16069.22
886.719	17183.31
886.899	15768.16
887.08	15923.81
887.26	16714.33
887.44	15850.08
887.621	15772.26
887.801	16069.22
887.981	17023.57
888.161	16530.01
888.342	16239.2
888.522	16095.84
888.702	16642.65
888.882	16902.74
889.062	16382.56
889.242	16095.84
889.423	16738.9
889.603	16634.46
889.783	16501.34
889.963	16048.74
890.143	16910.93
890.323	16482.91
890.503	16028.26
890.683	16298.59
890.863	16431.71
891.043	16511.58
891.223	16300.64
891.403	16497.24
891.583	16640.6
891.763	16679.51
891.943	16263.77
892.122	16190.05
892.302	16829.01
892.482	16530.01
892.662	16403.04
892.842	16235.1
893.022	16652.89
893.201	16411.23
893.381	16411.23
893.561	16308.83
893.741	16929.36
893.92	16855.64
894.1	16423.51
894.28	16564.82
894.459	16710.23
894.639	16468.57
894.819	16118.37
894.998	16550.49
895.178	16753.24
895.357	16603.74
895.537	16069.22
895.716	16069.22
895.896	16456.28
896.075	16947.79
896.255	16448.09
896.434	16001.63
896.614	16687.7
896.793	16812.63
896.973	16357.98
897.152	16222.81
897.331	16624.22
897.511	16861.78
897.69	16048.74
897.87	16454.23
898.049	16233.05
898.228	16403.04
898.407	16120.42
898.587	16450.14
898.766	16190.05
898.945	16380.51
899.124	16407.13
899.304	16136.8
899.483	16394.84
899.662	16906.84
899.841	15809.12
900.02	16058.98
900.199	16687.7
900.378	16261.73
900.557	15985.25
900.737	15712.87
900.916	16239.2
901.095	16198.24
901.274	16321.12
901.453	15952.48
901.632	16118.37
901.811	15708.77
901.989	15919.71
902.168	15669.86
902.347	16321.12
902.526	16022.11
902.705	15417.96
902.884	15700.58
903.063	16249.44
903.242	16220.77
903.42	15401.58
903.599	16040.54
903.778	16276.06
903.957	16046.69
904.135	15888.99
904.314	15510.12
904.493	15893.09
904.672	15923.81
904.85	15465.07
905.029	15676.01
905.207	15964.77
905.386	16415.32
905.565	15319.66
905.743	15321.71
905.922	15354.48
906.1	15716.97
906.279	15153.77
906.457	15241.84
906.636	15641.19
906.814	15239.79
906.993	14936.69
907.171	15266.41
907.35	15792.74
907.528	15686.25
907.707	15391.34
907.885	14981.74
908.063	15630.95
908.242	15065.71
908.42	14973.55
908.598	14615.16
908.777	15034.99
908.955	15190.64
909.133	15161.97
909.311	14668.41
909.49	15047.28
909.668	15051.38
909.846	14842.48
910.024	14406.27
910.202	14994.03
910.38	15123.05
910.559	14365.31
910.737	14490.23
910.915	14844.53
911.093	14969.46
911.271	14559.86
911.449	14846.58
911.627	14742.13
911.805	15315.56
911.983	14398.07
912.161	14217.85
912.339	14684.79
912.517	14869.11
912.695	14365.31
912.872	14187.13
913.05	14391.93
913.228	14563.96
913.406	14183.04
913.584	14144.13
913.762	14619.25
913.939	13849.22
914.117	14082.69
914.295	13888.13
914.473	14183.04
914.65	14461.56
914.828	13953.66
915.006	13496.97
915.184	13974.14
915.361	14051.97
915.539	13902.47
915.716	13687.43
915.894	13941.38
916.072	14094.97
916.249	13693.57
916.427	13619.85
916.604	13650.57
916.782	13961.86
916.959	13415.05
917.137	13326.99
917.314	13939.33
917.492	13826.69
917.669	13257.36
917.847	13347.47
918.024	13748.87
918.201	13257.36
918.379	13302.41
918.556	13333.13
918.733	13638.28
918.911	13322.89
919.088	13286.03
919.265	13009.55
919.442	13623.94
919.62	13267.59
919.797	13077.13
919.974	12956.3
920.151	13230.73
920.328	13111.95
920.506	12788.37
920.683	12898.96
920.86	12804.75
921.037	12933.78
921.214	12819.09
921.391	12841.62
921.568	13073.04
921.745	12618.39
921.922	12429.98
922.099	12305.05
922.276	12917.39
922.453	12755.6
922.63	12323.48
922.807	12434.07
922.984	12638.87
923.161	12548.76
923.338	12221.08
923.514	12133.02
923.691	12372.63
923.868	12688.02
924.045	11864.74
924.222	11985.57
924.399	12395.16
924.575	12405.4
924.752	12063.39
924.929	11821.73
925.105	11958.94
925.282	11954.85
925.459	11649.7
925.635	11647.65
925.812	11901.6
925.989	11557.54
926.165	11635.36
926.342	11317.93
926.518	11514.53
926.695	11535.01
926.871	11221.67
927.048	11227.82
927.224	11825.82
927.401	11283.11
927.577	11031.21
927.754	11096.75
927.93	11651.75
928.107	11463.33
928.283	11080.36
928.459	11260.59
928.636	11186.86
928.812	11143.85
928.988	10820.27
929.165	10881.71
929.341	11041.45
929.517	11272.87
929.693	11215.53
929.87	10513.08
930.046	10957.49
930.222	10584.76
930.398	10726.07
930.574	10820.27
930.751	10826.42
930.927	10484.41
931.103	10334.9
931.279	10175.16
931.455	10355.38
931.631	10517.17
931.807	9956.03
931.983	9874.11
932.159	10150.59
932.335	10140.35
932.511	9908.93
932.687	9988.8
932.863	9966.27
933.039	9751.23
933.215	9734.85
933.391	9398.98
933.566	9706.18
933.742	9888.45
933.918	9315.02
934.094	9153.23
934.27	9669.31
934.445	9464.52
934.621	9306.82
934.797	8825.55
934.973	9290.44
935.148	9190.09
935.324	8710.86
935.5	8495.83
935.675	9030.35
935.851	8760.02
936.027	8385.24
936.202	8368.85
936.378	8506.07
936.553	8336.09
936.729	8436.44
936.904	7705.31
937.08	7568.1
937.255	7490.28
937.431	7564
937.606	7375.59
937.782	7547.62
937.957	7385.83
938.133	7166.7
938.308	6677.23
938.483	7111.4
938.659	6810.35
938.834	6798.06
939.009	6384.37
939.185	6568.69
939.36	6367.99
939.535	5927.67
939.71	6171.38
939.886	6568.69
940.061	6384.37
940.236	6030.07
940.411	5872.38
940.586	6218.49
940.761	6114.04
940.937	5769.98
941.112	5511.94
941.287	5853.95
941.462	5821.18
941.637	5417.73
941.812	5335.81
941.987	5716.73
942.162	5636.86
942.337	5446.4
942.512	5204.74
942.687	5733.12
942.862	5673.73
943.037	5034.76
943.212	4725.52
943.386	5202.69
943.561	5399.3
943.736	5182.21
943.911	5341.96
944.086	5309.19
944.26	5237.51
944.435	4942.6
944.61	5049.1
944.785	5530.37
944.959	5583.62
945.134	4944.65
945.309	4920.07
945.483	4940.55
945.658	5327.62
945.833	4567.82
946.007	4696.85
946.182	5432.07
946.357	4811.53
946.531	4647.69
946.706	4829.96
946.88	4782.86
947.055	5083.91
947.229	4823.82
947.404	4823.82
947.578	5305.09
947.752	4881.16
947.927	4600.59
948.101	4688.65
948.276	5188.36
948.45	5145.35
948.624	5104.39
948.799	4692.75
948.973	5092.1
949.147	4856.59
949.321	4872.97
949.496	4838.16
949.67	5309.19
949.844	4938.51
950.018	4875.02
950.193	4625.17
950.367	5485.31
950.541	4934.41
950.715	4958.99
950.889	4975.37
951.063	4971.27
951.237	5372.68
951.411	4893.45
951.585	4502.29
951.759	5167.88
951.933	5045
952.107	4750.09
952.281	5012.23
952.455	5321.48
952.629	5327.62
952.803	5024.52
952.977	4868.88
953.151	5184.26
953.325	5288.71
953.499	4999.95
953.672	4608.78
953.846	4838.16
954.02	5073.67
954.194	4627.21
954.368	4825.87
954.541	5253.89
954.715	4832.01
954.889	4846.35
955.062	4719.37
955.236	4846.35
955.41	4784.91
955.583	4975.37
955.757	4580.11
955.93	4893.45
956.104	4719.37
956.278	4692.75
956.451	4840.2
956.625	4963.08
956.798	5468.93
956.972	4991.75
957.145	4553.49
957.319	5032.71
957.492	4864.78
957.665	4655.89
957.839	4610.83
958.012	4958.99
958.185	4918.03
958.359	4610.83
958.532	4983.56
958.705	5028.62
958.879	4926.22
959.052	4844.3
959.225	4496.14
959.398	4928.27
959.572	5016.33
959.745	4705.04
959.918	4514.58
960.091	4653.84
960.264	5049.1
960.438	4524.82
960.611	4590.35
960.784	4836.11
960.957	4569.87
961.13	5040.9
961.303	4604.69
961.476	4737.81
961.649	4979.47
961.822	4328.21
961.995	4555.54
962.168	4872.97
962.341	4852.49
962.514	4655.89
962.686	4342.55
962.859	4743.95
963.032	4840.2
963.205	4475.67
963.378	4430.61
963.551	4827.92
963.723	4756.24
963.896	4610.83
964.069	4619.02
964.242	4762.38
964.414	4913.93
964.587	4678.41
964.76	4440.85
964.932	4778.76
965.105	4619.02
965.278	4444.95
965.45	4508.43
965.623	4737.81
965.795	4881.16
965.968	4426.51
966.14	4279.06
966.313	4590.35
966.485	4766.48
966.658	4279.06
966.83	4315.92
967.003	4971.27
967.175	4688.65
967.348	4451.09
967.52	4444.95
967.692	5016.33
967.865	4610.83
968.037	4305.68
968.209	4557.58
968.382	4692.75
968.554	4616.97
968.726	4238.1
968.898	4317.97
969.071	4573.97
969.243	4774.67
969.415	4334.36
969.587	4399.89
969.759	4954.89
969.932	4481.81
970.104	4168.47
970.276	4006.68
970.448	4494.1
970.62	4289.3
970.792	4346.64
970.964	4236.05
971.136	4803.34
971.308	4643.6
971.48	4016.92
971.652	4199.19
971.824	4772.62
971.996	4152.09
972.168	4221.72
972.339	4139.8
972.511	4586.26
972.683	4330.26
972.855	4330.26
973.027	4123.41
973.199	4385.55
973.37	4559.63
973.542	4172.57
973.714	4109.08
973.886	4256.53
974.057	4408.08
974.229	4027.16
974.401	4029.21
974.572	4090.65
974.744	3728.16
974.915	3846.94
975.087	3904.28
975.259	4666.13
975.43	4074.26
975.602	3894.04
975.773	3746.59
975.945	3889.95
976.116	4389.65
976.288	3963.67
976.459	4031.26
976.63	3869.47
976.802	4043.54
976.973	3816.22
977.145	4064.02
977.316	4647.69
977.487	4311.83
977.659	3853.08
977.83	3918.62
978.001	4422.42
978.172	4104.98
978.344	3738.4
978.515	3992.34
978.686	4057.88
978.857	4410.13
979.028	3803.93
979.2	3666.72
979.371	4313.88
979.542	3941.15
979.713	3959.58
979.884	3478.3
980.055	3803.93
980.226	3914.52
980.397	3701.53
980.568	3609.37
980.739	4168.47
980.91	4010.78
981.081	3785.5
981.252	3697.44
981.423	4102.93
981.594	4088.6
981.765	3533.6
981.936	3732.25
982.106	3939.1
982.277	4131.61
982.448	3586.85
982.619	3832.6
982.79	3887.9
982.96	4125.46
983.131	3724.06
983.302	3343.14
983.472	3668.77
983.643	3926.81
983.814	3722.01
983.984	3533.6
984.155	3781.4
984.326	3984.15
984.496	3765.02
984.667	3611.42
984.837	3549.98
985.008	3984.15
985.178	3613.47
985.349	3535.65
985.519	3590.94
985.69	3554.08
985.86	3449.63
986.031	3343.14
986.201	3797.79
986.371	3793.69
986.542	3222.31
986.712	3148.58
986.882	3752.73
987.053	3693.34
987.223	3351.33
987.393	3402.53
987.563	3519.26
987.734	3670.81
987.904	3590.94
988.074	3369.76
988.244	3492.64
988.414	3328.8
988.585	3199.78
988.755	3496.74
988.925	3500.83
989.095	3814.17
989.265	3210.02
989.435	3199.78
989.605	3636
989.775	3711.77
989.945	3584.8
990.115	3058.47
990.285	3556.13
990.455	3543.84
990.625	3357.47
990.795	3181.35
990.965	3724.06
991.134	3302.18
991.304	3132.2
991.474	3117.86
991.644	3631.9
991.814	3740.44
991.984	2960.17
992.153	3093.29
992.323	3140.39
992.493	3398.43
992.662	2845.48
992.832	3050.28
993.002	3291.94
993.171	3437.34
993.341	2919.21
993.511	3169.06
993.68	3207.97
993.85	3392.29
994.019	2878.25
994.189	2888.49
994.358	3449.63
994.528	3222.31
994.697	2804.52
994.867	2964.26
995.036	3314.47
995.206	3164.97
995.375	2880.3
995.544	3046.18
995.714	3246.88
995.883	3040.04
996.052	3142.44
996.222	2673.45
996.391	3771.16
996.56	3218.21
996.73	2847.53
996.899	2820.91
997.068	3449.63
997.237	3058.47
997.406	2743.08
997.576	2642.73
997.745	3066.66
997.914	3207.97
998.083	2583.34
998.252	2781.99
998.421	2966.31
998.59	2845.48
998.759	2661.16
998.928	2403.12
999.097	3328.8
999.266	3013.42
999.435	2827.05
999.604	2427.7
999.773	3513.12
999.942	2876.2
1000.111	2519.85
1000.28	2482.99
1000.448	2800.43
1000.617	2673.45
1000.786	2648.88
1000.955	2591.53
1001.124	2945.83
1001.292	3468.06
1001.461	2523.95
1001.63	2423.6
1001.798	3261.22
1001.967	3056.42
1002.136	2435.89
1002.304	2403.12
1002.473	2798.38
1002.642	2861.87
1002.81	2501.42
1002.979	2505.52
1003.147	3058.47
1003.316	3291.94
1003.484	2454.32
1003.653	2411.31
1003.821	2951.98
1003.99	2798.38
1004.158	2648.88
1004.327	2554.67
1004.495	2892.59
1004.663	2384.69
1004.832	2618.16
1005	2179.89
1005.168	2886.44
1005.337	2591.53
1005.505	2239.28
1005.673	2569.01
1005.842	2689.84
1006.01	2876.2
1006.178	2235.19
1006.346	2390.83
1006.514	2636.59
1006.683	2956.07
1006.851	2204.47
1007.019	2093.88
1007.187	2227
1007.355	2202.42
1007.523	2089.78
1007.691	1997.62
1007.859	2138.93
1008.027	2827.05
1008.195	2214.71
1008.363	2067.25
1008.531	2816.81
1008.699	2429.74
1008.867	2042.68
1009.035	2067.25
1009.203	2689.84
1009.37	2528.05
1009.538	2220.85
1009.706	2452.27
1009.874	2472.75
1010.042	2450.22
1010.209	2018.1
1010.377	2005.81
1010.545	2546.48
1010.713	2452.27
1010.88	2003.77
1011.048	2003.77
1011.216	2286.39
1011.383	2757.42
1011.551	1880.89
1011.718	1835.83
1011.886	2599.73
1012.054	2331.44
1012.221	1930.04
1012.389	1882.94
1012.556	2345.78
1012.724	2706.22
1012.891	2040.63
1013.058	1749.82
1013.226	2356.02
1013.393	2476.85
1013.561	1731.39
1013.728	1719.1
1013.895	2356.02
1014.063	2456.37
1014.23	1776.44
1014.397	1831.74
1014.565	2374.45
1014.732	2161.46
1014.899	1907.51
1015.066	1755.96
1015.233	2239.28
1015.401	2284.34
1015.568	1874.74
1015.735	1825.59
1015.902	2149.17
1016.069	2274.1
1016.236	1807.16
1016.403	1807.16
1016.57	1913.66
1016.737	2286.39
1016.904	1776.44
1017.071	1653.56
1017.238	1895.22
1017.405	2206.52
1017.572	1755.96
1017.739	1938.23
1017.906	2272.05
1018.073	2345.78
1018.24	1618.75
1018.407	1815.35
1018.573	2255.67
1018.74	2114.36
1018.907	1567.55
1019.074	1551.17
1019.241	2227
1019.407	1997.62
1019.574	1573.69
1019.741	1526.59
1019.907	2104.12
1020.074	2138.93
1020.241	1354.56
1020.407	1461.06
1020.574	1987.38
1020.74	1889.08
1020.907	1563.45
1021.073	1565.5
1021.24	2435.89
1021.406	2284.34
1021.573	1438.53
1021.739	1473.34
1021.906	2095.93
1022.072	1829.69
1022.239	1514.3
1022.405	1493.82
1022.571	1925.94
1022.738	1786.68
1022.904	1436.48
1023.07	1471.29
1023.237	1925.94
1023.403	2083.64
1023.569	1471.29
1023.735	1411.9
1023.902	1899.32
1024.068	1778.49
1024.234	1289.03
1024.4	1387.33
1024.566	1923.9
1024.732	1968.95
1024.898	1370.94
1025.065	1184.58
1025.231	1956.66
1025.397	1653.56
1025.563	1368.9
1025.729	1313.6
1025.895	1227.59
1026.061	1506.11
1026.227	1264.45
1026.392	1340.22
1026.558	1925.94
1026.724	1739.58
1026.89	1184.58
1027.056	1454.91
1027.222	1698.62
1027.388	1510.21
1027.553	1264.45
1027.719	1194.82
1027.885	1932.09
1028.051	1805.11
1028.216	1010.5
1028.382	1264.45
1028.548	1844.03
1028.713	1465.15
1028.879	1110.85
1029.045	1397.57
1029.21	1921.85
1029.376	1862.46
1029.541	1284.93
1029.707	1166.15
1029.873	1719.1
1030.038	1690.43
1030.204	1123.14
1030.369	1164.1
1030.534	1667.9
1030.7	1332.03
1030.865	1211.2
1031.031	1100.61
1031.196	1637.18
1031.361	1530.69
1031.527	1157.96
1031.692	1043.27
1031.857	1078.08
1032.023	1594.17
1032.188	1020.74
1032.353	1082.18
1032.518	1747.77
1032.684	1473.34
1032.849	920.39
1033.014	990.02
1033.179	1581.89
1033.344	1518.4
1033.509	1139.52
1033.674	1024.84
1033.839	1624.89
1034.004	1508.16
1034.17	1110.85
1034.335	936.78
1034.5	1182.53
1034.664	1123.14
1034.829	889.67
1034.994	998.21
1035.159	1499.97
1035.324	1461.06
1035.489	959.3
1035.654	879.43
1035.819	1704.76
1035.984	1420.1
1036.148	981.83
1036.313	910.15
1036.478	1600.32
1036.643	1346.37
1036.807	951.11
1036.972	928.58
1037.137	1585.98
1037.301	1258.31
1037.466	809.8
1037.631	928.58
1037.795	1504.06
1037.96	1278.79
1038.124	969.54
1038.289	846.66
1038.454	1411.9
1038.618	1440.58
1038.783	994.12
1038.947	889.67
1039.111	1252.16
1039.276	1078.08
1039.44	779.08
1039.605	1370.94
1039.769	1047.37
1039.933	1205.06
1040.098	926.54
1040.262	922.44
1040.426	1377.09
1040.591	1362.75
1040.755	840.52
1040.919	809.8
1041.083	1233.73
1041.248	1141.57
1041.412	629.58
1041.576	678.73
1041.74	1147.72
1041.904	1360.7
1042.068	662.35
1042.232	895.82
1042.397	1327.94
1042.561	1297.22
1042.725	457.55
1042.889	924.49
1043.053	1315.65
1043.217	1252.16
1043.381	811.85
1043.544	576.33
1043.708	1350.46
1043.872	846.66
1044.036	500.56
1044.2	693.07
1044.364	1272.64
1044.528	1393.47
1044.691	3642.14
1044.855	562
1045.019	1321.79
1045.183	1182.53
1045.346	713.55
1045.51	527.18
1045.674	1205.06
1045.837	1176.39
1046.001	588.62
1046.165	666.44
1046.328	1530.69
1046.492	1141.57
1046.655	842.57
1046.819	697.16
1046.983	957.25
1047.146	973.64
1047.31	682.83
1047.473	482.13
1047.636	1065.8
1047.8	846.66
1047.963	721.74
1048.127	471.89
1048.29	834.38
