Data from Ink_Intensity_USB4F045381__76__00076.txt Node

Date: Mon Jul 17 10:53:27 EDT 2023
User: mmckonesweet
Spectrometer: USB4F04538
Trigger mode: 4
Integration Time (sec): 9.000000E-1
Scans to average: 1
Electric dark correction enabled: true
Nonlinearity correction enabled: false
Boxcar width: 0
XAxis mode: Wavelengths
Number of Pixels in Spectrum: 3648
>>>>>Begin Spectral Data<<<<<
345.52	-929.27
345.736	-929.27
345.952	-929.27
346.168	-970.23
346.384	-1023.47
346.6	-187.9
346.816	-208.38
347.032	-200.19
347.248	266.75
347.464	-284.16
347.68	-146.94
347.896	201.21
348.112	379.39
348.328	-99.84
348.544	-97.79
348.76	117.25
348.975	260.6
349.191	-189.95
349.407	-257.53
349.623	119.29
349.839	6.66
350.055	-11.78
350.27	119.29
350.486	184.83
350.702	483.83
350.918	381.43
351.133	-148.99
351.349	188.93
351.565	584.18
351.781	-126.46
351.996	102.91
352.212	440.83
352.428	-101.89
352.644	-50.69
352.859	-101.89
353.075	344.57
353.291	143.87
353.506	-30.21
353.722	-237.05
353.938	-1.54
354.153	508.41
354.369	221.69
354.584	-134.65
354.8	305.66
355.016	-179.71
355.231	-122.37
355.447	33.28
355.662	229.88
355.878	881.14
356.093	-220.67
356.309	-17.92
356.524	-134.65
356.74	352.76
356.955	-112.13
357.171	82.43
357.386	336.38
357.602	-134.65
357.817	78.33
358.033	-77.31
358.248	496.12
358.464	229.88
358.679	-73.21
358.895	-183.81
359.11	145.92
359.325	492.02
359.541	184.83
359.756	94.72
359.972	-187.9
360.187	326.14
360.402	-105.98
360.618	-151.04
360.833	1165.81
361.048	252.41
361.264	-52.74
361.479	8.7
361.694	184.83
361.909	287.23
362.125	-93.69
362.34	33.28
362.555	377.34
362.77	180.73
362.986	-167.42
363.201	-110.08
363.416	324.09
363.631	92.67
363.847	-93.69
364.062	-108.03
364.277	266.75
364.492	193.02
364.707	-32.26
364.922	-212.48
365.138	373.24
365.353	508.41
365.568	-148.99
365.783	31.23
365.998	215.55
366.213	680.44
366.428	-105.98
366.643	203.26
366.858	322.04
367.073	307.71
367.288	10.75
367.503	-15.87
367.718	197.12
367.933	502.26
368.148	-110.08
368.363	104.96
368.578	121.34
368.793	530.94
369.008	41.47
369.223	-112.13
369.438	305.66
369.653	590.33
369.868	-177.66
370.083	-93.69
370.298	162.3
370.513	496.12
370.728	186.88
370.943	-155.13
371.157	-19.97
371.372	684.53
371.587	-216.57
371.802	-214.52
372.017	221.69
372.232	672.25
372.446	88.57
372.661	-83.45
372.876	326.14
373.091	270.84
373.306	145.92
373.52	-130.56
373.735	20.99
373.95	631.29
374.165	55.81
374.379	8.7
374.594	-5.63
374.809	276.99
375.023	229.88
375.238	-62.98
375.453	387.58
375.667	-83.45
375.882	39.42
376.097	-9.73
376.311	147.97
376.526	168.45
376.741	-116.22
376.955	274.94
377.17	799.22
377.384	725.49
377.599	49.66
377.813	-124.41
378.028	866.8
378.242	346.62
378.457	76.29
378.672	-163.33
378.886	217.6
379.101	184.83
379.315	-196.09
379.53	-11.78
379.744	371.19
379.958	315.9
380.173	66.05
380.387	-15.87
380.602	373.24
380.816	180.73
381.031	10.75
381.245	88.57
381.459	434.68
381.674	2814.42
381.888	-22.02
382.103	330.23
382.317	0.51
382.531	666.1
382.746	184.83
382.96	33.28
383.174	107.01
383.388	625.14
383.603	221.69
383.817	-52.74
384.031	352.76
384.246	717.3
384.46	299.52
384.674	586.23
384.888	301.56
385.103	315.9
385.317	-40.45
385.531	211.45
385.745	627.19
385.959	614.9
386.174	59.9
386.388	6.66
386.602	250.36
386.816	225.79
387.03	193.02
387.244	225.79
387.458	446.97
387.672	561.66
387.887	-44.54
388.101	-11.78
388.315	619
388.529	348.67
388.743	121.34
388.957	78.33
389.171	647.67
389.385	45.57
389.599	66.05
389.813	326.14
390.027	532.98
390.241	922.1
390.455	162.3
390.669	154.11
390.883	188.93
391.097	729.59
391.311	365.05
391.525	119.29
391.738	602.61
391.952	463.35
392.166	268.8
392.38	98.81
392.594	549.37
392.808	649.72
393.022	283.13
393.236	291.32
393.449	547.32
393.663	565.75
393.877	27.14
394.091	248.32
394.305	311.8
394.518	311.8
394.732	158.21
394.946	311.8
395.16	782.84
395.373	539.13
395.587	156.16
395.801	201.21
396.015	549.37
396.228	549.37
396.442	74.24
396.656	74.24
396.869	705.01
397.083	864.75
397.297	422.39
397.51	236.03
397.724	729.59
397.938	520.7
398.151	160.25
398.365	131.58
398.578	631.29
398.792	750.07
399.005	367.1
399.219	334.33
399.433	563.7
399.646	766.45
399.86	446.97
400.073	434.68
400.287	668.15
400.5	422.39
400.714	377.34
400.927	381.43
401.141	709.11
401.354	1569.26
401.567	643.57
401.781	238.08
401.994	817.65
402.208	1182.19
402.421	406.01
402.635	377.34
402.848	516.6
403.061	846.32
403.275	537.08
403.488	258.56
403.701	1042.93
403.915	799.22
404.128	549.37
404.341	373.24
404.555	745.97
404.768	537.08
404.981	520.7
405.195	498.17
405.408	999.92
405.621	713.21
405.834	596.47
406.048	281.08
406.261	913.91
406.474	952.82
406.687	430.59
406.9	520.7
407.114	664.05
407.327	625.14
407.54	231.93
407.753	274.94
407.966	479.74
408.179	782.84
408.392	426.49
408.605	287.23
408.819	807.41
409.032	856.56
409.245	504.31
409.458	741.88
409.671	825.84
409.884	936.43
410.097	385.53
410.31	682.49
410.523	848.37
410.736	666.1
410.949	522.74
411.162	588.28
411.375	1141.23
411.588	1079.79
411.801	705.01
412.014	500.22
412.227	668.15
412.44	684.53
412.653	524.79
412.865	741.88
413.078	989.68
413.291	795.12
413.504	670.2
413.717	553.46
413.93	1040.88
414.143	694.77
414.356	686.58
414.568	457.21
414.781	1004.02
414.994	971.25
415.207	664.05
415.42	680.44
415.632	1081.84
415.845	1399.27
416.058	473.59
416.271	514.55
416.483	924.15
416.696	1317.36
416.909	637.43
417.121	606.71
417.334	1028.59
417.547	1401.32
417.759	631.29
417.972	559.61
418.185	717.3
418.397	1102.32
418.61	610.81
418.823	596.47
419.035	1356.27
419.248	958.96
419.46	774.64
419.673	811.51
419.885	1001.97
420.098	999.92
420.311	696.82
420.523	494.07
420.736	1096.18
420.948	1028.59
421.161	803.32
421.373	596.47
421.586	1159.66
421.798	866.8
422.01	586.23
422.223	854.51
422.435	922.1
422.648	1212.91
422.86	786.93
423.073	778.74
423.285	1313.26
423.497	842.23
423.71	770.55
423.922	877.04
424.134	1178.09
424.347	1389.03
424.559	1102.32
424.771	1135.09
424.984	1028.59
425.196	1245.68
425.408	729.59
425.621	811.51
425.833	1458.67
426.045	1438.19
426.257	887.28
426.47	901.62
426.682	1311.21
426.894	1386.99
427.106	1036.78
427.318	1126.89
427.531	1044.98
427.743	1391.08
427.955	958.96
428.167	1405.42
428.379	1384.94
428.591	1245.68
428.804	1171.95
429.016	938.48
429.228	1104.37
429.44	1413.61
429.652	1210.86
429.864	942.58
430.076	1343.98
430.288	1366.51
430.5	1130.99
430.712	1151.47
430.924	1534.44
431.136	1493.48
431.348	1032.69
431.56	1069.55
431.772	1393.13
431.984	1280.49
432.196	1161.71
432.408	1214.96
432.62	1374.7
432.832	1513.96
433.044	1475.05
433.256	1405.42
433.468	1587.69
433.679	1149.42
433.891	1143.28
434.103	1516.01
434.315	1950.18
434.527	1716.71
434.739	1460.71
434.95	1415.66
435.162	1817.06
435.374	1380.84
435.586	1434.09
435.798	1368.56
436.009	1311.21
436.221	1550.82
436.433	1552.87
436.645	1370.6
436.856	1583.59
437.068	1987.04
437.28	1386.99
437.491	1790.44
437.703	1851.88
437.915	1847.78
438.126	1470.95
438.338	1712.61
438.55	1651.17
438.761	1847.78
438.973	1708.52
439.184	1651.17
439.396	1849.83
439.608	1978.85
439.819	1524.2
440.031	1745.38
440.242	2066.91
440.454	1999.33
440.665	1708.52
440.877	1769.96
441.088	1989.09
441.3	1765.86
441.511	1475.05
441.723	1706.47
441.934	2097.63
442.146	2028
442.357	1810.92
442.569	2109.92
442.78	2019.81
442.991	2374.11
443.203	1958.37
443.414	1675.75
443.626	2365.92
443.837	1944.03
444.048	1587.69
444.26	1647.08
444.471	2105.82
444.682	2269.66
444.894	1577.45
445.105	1829.35
445.316	2236.89
445.528	2236.89
445.739	2036.19
445.95	2136.54
446.161	2224.61
446.373	2333.15
446.584	1892.84
446.795	1929.7
447.006	2275.81
447.217	2570.71
447.429	1860.07
447.64	1858.02
447.851	2517.47
448.062	2173.41
448.273	1862.12
448.484	1954.27
448.695	2398.68
448.907	2236.89
449.118	2109.92
449.329	2236.89
449.54	2118.11
449.751	2052.58
449.962	2025.95
450.173	2013.67
450.384	2521.56
450.595	2724.31
450.806	2206.17
451.017	2030.05
451.228	2707.93
451.439	2556.38
451.65	2189.79
451.861	1894.88
452.072	2144.74
452.283	2437.59
452.494	2353.63
452.705	2206.17
452.915	2816.47
453.126	2601.43
453.337	2396.64
453.548	2308.57
453.759	2916.82
453.97	3023.31
454.181	2572.76
454.391	2464.22
454.602	2687.45
454.813	2890.2
455.024	2597.34
455.235	2413.02
455.445	2767.32
455.656	2855.38
455.867	2740.69
456.078	2593.24
456.288	2542.04
456.499	2871.76
456.71	2513.37
456.921	2812.37
457.131	3025.36
457.342	2929.11
457.553	2695.64
457.763	2630.1
457.974	3178.96
458.184	3074.51
458.395	2748.89
458.606	2658.78
458.816	3330.51
459.027	3576.27
459.237	2961.87
459.448	2648.54
459.659	3269.07
459.869	3525.07
460.08	2804.18
460.29	3109.33
460.501	3697.1
460.711	3129.81
460.922	2904.53
461.132	3269.07
461.343	4170.18
461.553	3111.38
461.764	3195.34
461.974	3191.25
462.184	3629.51
462.395	3508.68
462.605	3400.14
462.816	3164.62
463.026	3686.86
463.236	3754.44
463.447	3221.97
463.657	3465.68
463.867	3901.89
464.078	3723.72
464.288	3527.11
464.498	3490.25
464.709	3748.29
464.919	3678.66
465.129	3670.47
465.339	3654.09
465.55	4116.93
465.76	4137.41
465.97	3670.47
466.18	3615.18
466.391	4448.7
466.601	4030.91
466.811	4043.2
467.021	3779.01
467.231	4336.06
467.441	4483.52
467.651	4243.9
467.862	3838.41
468.072	4553.15
468.282	4780.47
468.492	4084.16
468.702	4460.99
468.912	4633.02
469.122	5099.95
469.332	4774.33
469.542	4420.03
469.752	5224.88
469.962	4927.92
470.172	4413.88
470.382	4714.94
470.592	5255.6
470.802	5292.46
471.012	5005.75
471.222	4870.58
471.432	5575.08
471.642	5331.37
471.852	5118.39
472.062	5110.19
472.272	5300.66
472.482	5341.61
472.691	5214.64
472.901	5288.37
473.111	5513.64
473.321	6279.58
473.531	5534.12
473.741	5603.75
473.95	6005.16
474.16	5980.58
474.37	5841.32
474.58	5566.89
474.79	6617.5
474.999	6269.34
475.209	5755.3
475.419	6076.84
475.628	6365.6
475.838	6631.83
476.048	6222.24
476.258	6162.85
476.467	6928.79
476.677	6713.75
476.886	6961.56
477.096	6719.9
477.306	6617.5
477.515	7090.58
477.725	6738.33
477.935	6877.59
478.144	7571.85
478.354	7023
478.563	7043.48
478.773	7080.34
478.982	7696.78
479.192	7819.66
479.401	7438.73
479.611	7248.27
479.82	7412.11
480.03	7913.86
480.239	7635.34
480.449	7463.31
480.658	8239.49
480.868	7903.62
481.077	7887.24
481.287	7999.88
481.496	8167.81
481.705	8880.5
481.915	8321.41
482.124	8616.32
482.333	8798.59
482.543	8933.75
482.752	8573.31
482.961	8384.9
483.171	8896.89
483.38	8518.01
483.589	8712.57
483.799	8860.02
484.008	9171.32
484.217	9503.09
484.426	9070.97
484.636	8927.61
484.845	9455.98
485.054	9148.79
485.263	9455.98
485.472	9249.14
485.682	10074.47
485.891	9613.68
486.1	9216.37
486.309	9752.94
486.518	10105.19
486.727	10357.09
486.936	9998.7
487.146	9945.45
487.355	10631.52
487.564	10291.55
487.773	10076.52
487.982	10404.19
488.191	10383.71
488.4	10789.21
488.609	10520.93
488.818	10482.02
489.027	11194.71
489.236	11229.52
489.445	10860.89
489.654	10690.91
489.863	11280.72
490.072	11153.75
490.281	11200.85
490.49	10987.86
490.698	11628.88
490.907	11665.74
491.116	11362.64
491.325	11344.21
491.534	12063.05
491.743	11747.66
491.952	11479.38
492.16	11688.27
492.369	11731.28
492.578	12114.25
492.787	11716.94
492.996	11602.25
493.204	11997.51
493.413	12814.65
493.622	11843.92
493.831	11702.61
494.039	12691.77
494.248	12157.25
494.457	12439.87
494.665	12372.29
494.874	12902.72
495.083	13138.23
495.291	12509.51
495.5	12462.4
495.709	13177.14
495.917	12892.48
496.126	12894.52
496.335	12779.84
496.543	12976.44
496.752	13336.88
496.96	13209.91
497.169	12900.67
497.377	13381.94
497.586	13527.35
497.794	13228.34
498.003	13013.31
498.211	13615.41
498.42	13934.89
498.628	13541.68
498.837	13412.66
499.045	13895.98
499.254	14033.19
499.462	13492.53
499.671	13689.14
499.879	14467.36
500.087	14618.91
500.296	13797.68
500.504	14010.67
500.713	14434.6
500.921	14938.4
501.129	14061.87
501.338	13877.55
501.546	14645.54
501.754	14528.8
501.962	14309.67
502.171	14354.72
502.379	14977.31
502.587	15286.55
502.795	14715.17
503.004	14446.88
503.212	15151.38
503.42	15218.97
503.628	14864.67
503.837	14991.64
504.045	15173.91
504.253	15753.49
504.461	15130.91
504.669	14688.54
504.877	15487.25
505.085	16111.88
505.294	15159.58
505.502	15202.58
505.71	15651.09
505.918	15606.03
506.126	15264.02
506.334	15364.37
506.542	15823.12
506.75	15644.95
506.958	15507.73
507.166	15788.3
507.374	15833.36
507.582	16382.21
507.79	15773.97
507.998	15716.62
508.206	16417.03
508.414	15876.37
508.622	16005.39
508.83	15755.54
509.037	16509.19
509.245	16253.19
509.453	15927.56
509.661	16120.07
509.869	16460.04
510.077	16175.37
510.285	16062.73
510.492	16099.59
510.7	17314.04
510.908	16554.24
511.116	16261.38
511.324	16482.56
511.531	16525.57
511.739	16800
511.947	16632.07
512.155	17064.19
512.362	16806.14
512.57	16582.91
512.778	16584.96
512.985	16656.64
513.193	17207.55
513.401	17334.52
513.608	16812.29
513.816	17053.95
514.024	17688.82
514.231	17922.29
514.439	17115.39
514.646	16972.03
514.854	17592.56
515.061	17699.06
515.269	17311.99
515.477	17486.07
515.684	17322.23
515.892	17772.78
516.099	17309.94
516.307	17453.3
516.514	17897.71
516.722	18219.24
516.929	17498.36
517.136	17344.76
517.344	18077.93
517.551	18346.22
517.759	17729.78
517.966	17819.89
518.173	18043.12
518.381	18305.26
518.588	17959.15
518.796	17735.92
519.003	18741.47
519.21	18542.82
519.418	18165.99
519.625	18630.88
519.832	18919.65
520.039	18743.52
520.247	18161.9
520.454	18522.34
520.661	19206.36
520.868	18968.8
521.076	18858.21
521.283	18485.48
521.49	19386.58
521.697	19292.38
521.904	18618.6
522.112	18702.56
522.319	19534.04
522.526	19333.34
522.733	19032.29
522.94	18987.23
523.147	19294.43
523.354	19308.76
523.561	19214.55
523.768	19394.78
523.975	20046.03
524.183	19448.02
524.39	19466.45
524.597	19357.91
524.804	19665.11
525.011	19636.44
525.218	19542.23
525.425	19749.07
525.632	20205.77
525.838	19775.7
526.045	19656.92
526.252	20050.13
526.459	21280.96
526.666	21080.25
526.873	20091.09
527.08	20316.36
527.287	20654.28
527.494	20762.82
527.701	20424.9
527.907	20076.75
528.114	20904.13
528.321	20338.89
528.528	20535.49
528.735	20572.36
528.941	20693.19
529.148	20621.51
529.355	20795.59
529.562	20371.66
529.768	21610.68
529.975	20588.74
530.182	20629.7
530.388	20902.08
530.595	21539
530.802	20697.28
531.008	21147.84
531.215	21192.89
531.422	22012.08
531.628	22343.85
531.835	20994.24
532.042	21528.76
532.248	21452.98
532.455	21684.41
532.661	21270.72
532.868	21278.91
533.074	21754.04
533.281	21809.33
533.487	21563.57
533.694	21590.2
533.9	22010.03
534.107	21903.54
534.313	21766.32
534.52	21797.04
534.726	22149.29
534.933	22603.94
535.139	21870.77
535.345	21958.83
535.552	22321.32
535.758	22198.45
535.965	22139.05
536.171	22208.69
536.377	22605.99
536.584	23040.16
536.79	22352.04
536.996	22433.96
537.203	22565.03
537.409	22884.51
537.615	22878.37
537.821	22929.57
538.028	23400.6
538.234	23206.05
538.44	22757.54
538.646	23050.4
538.853	23380.12
539.059	22997.15
539.265	23425.18
539.471	22499.5
539.677	23750.81
539.883	23560.34
540.09	23378.08
540.296	23660.69
540.502	23949.46
540.708	23548.06
540.914	23695.51
541.12	23357.6
541.326	24166.54
541.532	23908.5
541.738	23431.32
541.944	23613.59
542.15	24668.3
542.356	24219.79
542.562	23969.94
542.768	23998.61
542.974	24797.32
543.18	24922.24
543.386	24164.5
543.592	23890.07
543.798	24801.41
544.004	24828.04
544.21	24428.68
544.415	24451.21
544.621	24869
544.827	25059.46
545.033	24498.31
545.239	24893.57
545.445	24936.58
545.651	25084.03
545.856	24985.73
546.062	24862.85
546.268	24742.02
546.474	25319.55
546.679	24983.68
546.885	24715.4
547.091	24973.44
547.297	25733.24
547.502	25284.73
547.708	25008.26
547.914	25043.07
548.119	25864.31
548.325	24975.49
548.531	24932.48
548.736	25884.79
548.942	25112.7
549.147	24991.87
549.353	25538.68
549.559	26026.1
549.764	25571.45
549.97	25145.47
550.175	25278.59
550.381	25862.26
550.586	25503.87
550.792	25528.44
550.997	26036.34
551.203	26204.27
551.408	26476.65
551.614	25532.54
551.819	25884.79
552.025	26488.94
552.23	26869.86
552.435	25960.56
552.641	26710.12
552.846	26445.93
553.052	26603.63
553.257	26419.31
553.462	26308.72
553.668	26495.08
553.873	27119.71
554.078	26280.05
554.283	26902.63
554.489	27150.43
554.694	27215.97
554.899	26402.93
555.105	27113.57
555.31	27242.59
555.515	27334.75
555.72	27150.43
555.925	26597.48
556.131	27431.01
556.336	27091.04
556.541	26912.87
556.746	27093.09
556.951	27318.37
557.156	27740.25
557.361	27170.91
557.567	27682.91
557.772	27953.24
557.977	27725.91
558.182	27318.37
558.387	26984.55
558.592	27543.64
558.797	28248.14
559.002	27742.3
559.207	27629.66
559.412	27914.33
559.617	28190.8
559.822	27545.69
560.027	27736.15
560.232	27865.17
560.437	28254.29
560.642	27643.99
560.847	27691.1
561.051	28080.21
561.256	27981.91
561.461	28203.09
561.666	27740.25
561.871	28344.4
562.076	28747.85
562.281	27951.19
562.485	27490.4
562.69	28346.45
562.895	28491.85
563.1	28225.62
563.305	28215.38
563.509	28622.92
563.714	29190.21
563.919	28229.71
564.123	28401.74
564.328	28688.46
564.533	29220.93
564.737	28102.74
564.942	28313.68
565.147	29352
565.351	29245.51
565.556	28516.43
565.761	28805.19
565.965	29239.36
566.17	28569.68
566.374	28598.35
566.579	28909.64
566.784	28989.51
566.988	28835.91
567.193	28661.83
567.397	29100.1
567.602	29214.79
567.806	28969.03
568.011	28909.64
568.215	29026.37
568.42	29233.22
568.624	29247.55
568.828	29040.71
569.033	29136.96
569.237	29857.85
569.442	30134.32
569.646	28919.88
569.85	29632.57
570.055	30023.73
570.259	29753.4
570.463	29591.61
570.668	29648.96
570.872	29691.96
571.076	29669.44
571.281	29792.31
571.485	30027.83
571.689	30418.99
571.893	30457.9
572.098	29534.27
572.302	29935.67
572.506	30163
572.71	30318.64
572.914	29786.17
573.119	29874.23
573.323	30814.25
573.527	30548.01
573.731	29845.56
573.935	30308.4
574.139	30570.54
574.343	30283.83
574.547	30019.64
574.751	30396.46
574.955	31234.08
575.159	30951.46
575.364	29704.25
575.568	30541.87
575.772	31060.01
575.976	31275.04
576.18	30566.45
576.383	30509.1
576.587	31178.79
576.791	31174.69
576.995	30148.66
577.199	30488.62
577.403	31178.79
577.607	31406.11
577.811	30754.86
578.015	30959.66
578.219	31406.11
578.422	31522.85
578.626	31248.42
578.83	31260.71
579.034	31539.23
579.238	31293.47
579.442	31238.18
579.645	31524.89
579.849	31645.73
580.053	32133.14
580.257	31096.87
580.46	31549.47
580.664	31983.64
580.868	31807.51
581.071	31537.18
581.275	31475.74
581.479	31412.26
581.682	32092.18
581.886	31361.06
582.09	31768.6
582.293	32184.34
582.497	32509.97
582.7	31301.67
582.904	32141.33
583.107	32243.73
583.311	32002.07
583.515	31649.82
583.718	31844.38
583.922	32606.22
584.125	32942.09
584.329	32108.57
584.532	32423.95
584.735	33019.91
584.939	32692.24
585.142	31989.78
585.346	32229.4
585.549	32950.28
585.753	32417.81
585.956	32618.51
586.159	32499.73
586.363	33024.01
586.566	33130.5
586.769	32350.23
586.973	32612.37
587.176	32911.37
587.379	33239.04
587.582	33052.68
587.786	32911.37
587.989	33439.75
588.192	33744.89
588.395	32851.98
588.599	33060.87
588.802	33503.23
589.005	33228.8
589.208	33267.72
589.411	33576.96
589.615	33282.05
589.818	33718.27
590.021	33720.32
590.224	33548.29
590.427	33867.77
590.63	34007.03
590.833	33501.18
591.036	33691.65
591.239	33968.12
591.442	33460.23
591.645	33906.68
591.848	33820.67
592.051	34607.09
592.254	34211.83
592.457	33570.82
592.66	34105.34
592.863	34361.33
593.066	34277.36
593.269	33961.98
593.472	34215.93
593.675	34408.43
593.878	34521.07
594.081	34283.51
594.284	34392.05
594.486	34734.06
594.689	34885.61
594.892	34097.14
595.095	34680.81
595.298	34732.01
595.5	34406.39
595.703	34897.9
595.906	34902
596.109	35454.95
596.311	35381.22
596.514	34428.91
596.717	35180.52
596.92	35973.08
597.122	35504.1
597.325	34682.86
597.528	34904.04
597.73	35876.83
597.933	35274.73
598.136	35100.65
598.338	34881.52
598.541	35690.46
598.743	35758.05
598.946	35237.86
599.148	35454.95
599.351	35409.89
599.554	36224.98
599.756	35301.35
599.959	35459.04
600.161	36038.62
600.363	36534.23
600.566	35782.62
600.768	35475.43
600.971	36206.55
601.173	35893.21
601.376	35774.43
601.578	36046.81
601.78	36354.01
601.983	36253.65
602.185	35616.74
602.388	35868.64
602.59	36327.38
602.792	35923.93
602.995	35690.46
603.197	35932.12
603.399	36485.08
603.601	36280.28
603.804	35557.35
604.006	36009.95
604.208	35997.66
604.41	35868.64
604.613	36255.7
604.815	36147.16
605.017	36982.73
605.219	36390.87
605.421	36267.99
605.623	36216.79
605.826	36743.12
606.028	37023.69
606.23	36614.1
606.432	36513.75
606.634	37334.98
606.836	36769.74
607.038	36583.38
607.24	36222.94
607.442	36566.99
607.644	36777.93
607.846	37078.99
608.048	36370.39
608.25	36614.1
608.452	36704.21
608.654	36343.77
608.856	36126.68
609.058	36866
609.26	36757.46
609.462	36691.92
609.664	36548.56
609.866	36947.92
610.067	37189.58
610.269	36929.48
610.471	36345.81
610.673	36904.91
610.875	37132.23
611.077	36673.49
611.278	36777.93
611.48	36759.5
611.682	37398.47
611.884	37265.35
612.085	36757.46
612.287	36904.91
612.489	37273.54
612.69	36773.84
612.892	36837.33
613.094	37390.28
613.295	36874.19
613.497	36462.55
613.699	36820.94
613.9	37633.99
614.102	37210.06
614.304	36841.42
614.505	36650.96
614.707	37566.4
614.908	37171.14
615.11	36773.84
615.311	36759.5
615.513	37275.59
615.714	37545.92
615.916	36902.86
616.117	36931.53
616.319	37062.6
616.52	37525.44
616.722	37093.32
616.923	36945.87
617.124	37476.29
617.326	37322.69
617.527	37240.78
617.729	37515.2
617.93	37736.38
618.131	37629.89
618.333	36679.63
618.534	37183.43
618.735	37390.28
618.937	38236.09
619.138	37224.39
619.339	37230.54
619.54	37990.33
619.742	37375.94
619.943	37418.95
620.144	37208.01
620.345	37914.56
620.546	38043.58
620.748	37394.37
620.949	37623.75
621.15	37631.94
621.351	37648.32
621.552	37275.59
621.753	37167.05
621.954	37748.67
622.155	38422.45
622.356	37222.34
622.558	37738.43
622.759	37541.83
622.96	38315.96
623.161	37441.48
623.362	37562.31
623.563	37939.13
623.764	37734.34
623.965	37658.56
624.166	37889.98
624.366	37973.95
624.567	38174.65
624.768	37728.19
624.969	37377.99
625.17	37789.63
625.371	38213.56
625.572	37787.58
625.773	37603.27
625.973	38205.37
626.174	38524.85
626.375	38119.35
626.576	37967.8
626.777	38369.21
626.977	38602.67
627.178	38191.03
627.379	37658.56
627.58	37980.09
627.78	38416.31
627.981	37877.69
628.182	38000.57
628.382	38373.3
628.583	37943.23
628.784	37414.85
628.984	37633.99
629.185	38553.52
629.386	38223.8
629.586	37988.28
629.787	37865.41
629.987	38651.83
630.188	38293.43
630.388	37953.47
630.589	37943.23
630.79	38885.29
630.99	38608.82
631.191	38318.01
631.391	38518.71
631.591	38293.43
631.792	38807.47
631.992	38518.71
632.193	38338.49
632.393	38821.81
632.594	38485.94
632.794	38275
632.994	38805.42
633.195	38813.62
633.395	38612.91
633.595	38641.59
633.796	38629.3
633.996	38498.23
634.196	39403.43
634.397	38524.85
634.597	38621.11
634.797	38641.59
634.997	39090.09
635.198	38756.27
635.398	38496.18
635.598	39153.58
635.798	39364.52
635.998	38553.52
636.199	38533.04
636.399	38549.43
636.599	38913.97
636.799	38563.76
636.999	39049.13
637.199	39059.37
637.399	39303.08
637.599	38823.86
637.799	38963.12
637.999	38885.29
638.199	39530.4
638.399	38913.97
638.599	38885.29
638.799	39518.12
638.999	39499.69
639.199	39399.33
639.399	38877.1
639.599	40030.11
639.799	38571.96
639.999	38862.77
640.199	39016.36
640.399	39475.11
640.599	38868.91
640.799	39808.93
640.998	39151.53
641.198	39841.7
641.398	39206.83
641.598	39684
641.798	39438.25
641.997	40703.89
642.197	39569.32
642.397	39067.56
642.597	39370.66
642.796	39729.06
642.996	39872.42
643.196	39583.65
643.395	38993.84
643.595	39575.46
643.795	39157.67
643.994	39393.19
644.194	39544.74
644.394	40085.4
644.593	39985.05
644.793	39661.47
644.992	40023.97
645.192	39696.29
645.392	39417.77
645.591	39843.74
645.791	39808.93
645.99	39925.66
646.19	40050.59
646.389	39886.75
646.589	39972.77
646.788	40294.3
646.987	39980.96
647.187	39880.61
647.386	39727.01
647.586	40218.52
647.785	40259.48
647.984	40079.26
648.184	39970.72
648.383	40220.57
648.582	40077.21
648.782	40320.92
648.981	40292.25
649.18	39753.63
649.38	40624.02
649.579	40345.5
649.778	40286.11
649.977	40740.75
650.177	40421.27
650.376	40015.77
650.575	39657.38
650.774	40593.3
650.973	40339.35
651.173	40116.12
651.372	40003.49
651.571	40486.81
651.77	40525.72
651.969	39815.07
652.168	40150.94
652.367	40472.47
652.566	40927.12
652.765	40437.65
652.964	40560.53
653.163	40937.36
653.362	40482.71
653.561	40331.16
653.76	40488.85
653.959	40519.57
654.158	41084.81
654.357	40621.97
654.556	40361.88
654.755	40947.6
654.954	40521.62
655.153	40179.61
655.352	40308.63
655.551	40857.49
655.749	41097.1
655.948	40193.95
656.147	40658.84
656.346	41197.45
656.545	40619.92
656.743	40818.58
656.942	40800.15
657.141	40865.68
657.34	40411.03
657.538	40734.61
657.737	40595.35
657.936	40953.74
658.135	40804.24
658.333	41002.89
658.532	40791.95
658.731	41232.27
658.929	41078.67
659.128	41076.62
659.326	41328.52
659.525	41461.64
659.724	40998.8
659.922	40626.07
660.121	40503.19
660.319	41107.34
660.518	40556.44
660.716	40331.16
660.915	40808.34
661.113	41668.48
661.312	40451.99
661.51	41011.09
661.709	40732.56
661.907	41103.24
662.105	41482.12
662.304	41006.99
662.502	40763.28
662.701	41469.83
662.899	41068.43
663.097	41193.36
663.296	40699.79
663.494	41615.24
663.692	41400.2
663.891	40599.44
664.089	40902.54
664.287	41183.12
664.485	41475.98
664.684	41090.96
664.882	41215.88
665.08	41052.05
665.278	41676.68
665.476	40951.7
665.675	41009.04
665.873	41248.65
666.071	41531.27
666.269	40464.28
666.467	40822.67
666.665	41250.7
666.863	40753.04
667.061	40677.27
667.259	40935.31
667.457	41258.89
667.655	41062.29
667.853	40769.43
668.051	41009.04
668.249	41119.63
668.447	41283.47
668.645	41185.16
668.843	41609.09
669.041	41480.07
669.239	41002.89
669.437	40941.46
669.635	40916.88
669.833	40849.3
670.031	41463.69
670.229	40953.74
670.426	41080.72
670.624	40843.15
670.822	40726.42
671.02	40945.55
671.218	40837.01
671.415	40552.34
671.613	40939.41
671.811	40642.45
672.009	41195.4
672.206	41273.23
672.404	40613.78
672.602	40828.82
672.799	41013.13
672.997	41279.37
673.195	41369.48
673.392	41162.64
673.59	40349.59
673.788	41039.76
673.985	39970.72
674.183	40275.87
674.38	40638.36
674.578	41242.51
674.775	40550.29
674.973	40658.84
675.17	40837.01
675.368	40591.25
675.565	40808.34
675.763	40775.57
675.96	40724.37
676.158	40482.71
676.355	40224.67
676.553	40570.77
676.75	40085.4
676.947	40626.07
677.145	40644.5
677.342	40621.97
677.539	40239
677.737	40923.02
677.934	41009.04
678.131	40277.91
678.329	40249.24
678.526	40955.79
678.723	40910.74
678.92	41035.66
679.118	40390.55
679.315	40273.82
679.512	40929.17
679.709	40523.67
679.906	40460.18
680.104	40714.13
680.301	40456.09
680.498	40007.58
680.695	40200.09
680.892	40314.78
681.089	40185.75
681.286	40189.85
681.483	39851.94
681.68	40503.19
681.877	40980.37
682.075	39999.39
682.272	40419.22
682.469	40599.44
682.665	40236.95
682.862	39743.39
683.059	39628.71
683.256	40118.17
683.453	40312.73
683.65	40091.55
683.847	39962.53
684.044	39968.67
684.241	39835.55
684.438	40148.89
684.635	39677.86
684.831	40615.83
685.028	40695.7
685.225	39919.52
685.422	39878.56
685.619	39471.01
685.815	39892.9
686.012	40062.88
686.209	39808.93
686.405	39780.26
686.602	40333.21
686.799	39325.61
686.996	39378.86
687.192	38944.69
687.389	40300.44
687.586	39391.14
687.782	39829.41
687.979	40433.56
688.175	39890.85
688.372	39522.21
688.568	39620.52
688.765	39255.98
688.962	39794.59
689.158	39561.12
689.355	39419.81
689.551	39985.05
689.748	39364.52
689.944	39376.81
690.14	39038.89
690.337	39686.05
690.533	39571.36
690.73	38918.06
690.926	39753.63
691.123	39315.37
691.319	39524.26
691.515	39399.33
691.712	39284.65
691.908	39800.74
692.104	39174.06
692.301	39155.63
692.497	38641.59
692.693	39677.86
692.889	39878.56
693.086	39509.93
693.282	38819.76
693.478	39346.09
693.674	39557.03
693.87	39079.85
694.067	38899.63
694.263	39192.49
694.459	38879.15
694.655	38885.29
694.851	39059.37
695.047	39045.04
695.243	39276.46
695.439	38819.76
695.635	38678.45
695.831	39004.08
696.027	38950.83
696.224	38670.26
696.42	39026.6
696.615	39192.49
696.811	39290.79
697.007	38422.45
697.203	38293.43
697.399	38516.66
697.595	39024.56
697.791	38481.84
697.987	38760.37
698.183	38455.22
698.379	38475.7
698.575	38766.51
698.77	38186.94
698.966	38528.95
699.162	39116.72
699.358	38459.32
699.554	38322.1
699.749	38526.9
699.945	38797.23
700.141	38422.45
700.337	38131.64
700.532	38375.35
700.728	38303.67
700.924	38248.38
701.119	37863.36
701.315	38125.5
701.511	38229.94
701.706	38307.77
701.902	37894.08
702.097	38121.4
702.293	38475.7
702.489	38217.66
702.684	38219.7
702.88	38322.1
703.075	38334.39
703.271	37654.47
703.466	37545.92
703.662	37988.28
703.857	38420.41
704.053	38014.91
704.248	38021.05
704.443	38291.38
704.639	38367.16
704.834	38225.85
705.03	37638.08
705.225	38690.74
705.42	38342.58
705.616	37750.72
705.811	37441.48
706.006	37889.98
706.202	38260.66
706.397	38059.96
706.592	37724.1
706.787	38109.11
706.983	38008.76
707.178	38332.34
707.373	37590.98
707.568	37988.28
707.763	37963.71
707.959	37636.03
708.154	38148.03
708.349	37689.28
708.544	37973.95
708.739	37410.76
708.934	37273.54
709.129	37703.62
709.324	37988.28
709.519	37783.49
709.714	37326.79
709.909	38303.67
710.104	37545.92
710.299	37478.34
710.494	37400.52
710.689	37550.02
710.884	37713.86
711.079	37521.35
711.274	37306.31
711.469	37836.73
711.664	37701.57
711.859	37529.54
712.054	37406.66
712.249	37842.88
712.443	37304.26
712.638	37212.1
712.833	37021.64
713.028	37498.82
713.223	36925.39
713.417	37222.34
713.612	37169.1
713.807	37844.93
714.002	37953.47
714.196	36976.59
714.391	36800.46
714.586	37560.26
714.78	37005.26
714.975	36892.62
715.17	36779.98
715.364	36937.68
715.559	37541.83
715.754	35983.32
715.948	36577.23
716.143	37330.89
716.337	36999.12
716.532	37027.79
716.726	36769.74
716.921	37298.12
717.115	37435.33
717.31	36390.87
717.504	37275.59
717.699	36759.5
717.893	37062.6
718.088	36323.29
718.282	36747.22
718.476	36884.43
718.671	36638.67
718.865	35950.56
719.059	35919.84
719.254	36640.72
719.448	36554.71
719.642	37791.68
719.837	35663.84
720.031	36814.8
720.225	36466.64
720.419	36415.44
720.614	35729.37
720.808	36124.63
721.002	35995.61
721.196	35774.43
721.39	35799.01
721.585	36466.64
721.779	36114.39
721.973	35610.59
722.167	35170.28
722.361	36300.76
722.555	36470.74
722.749	35911.64
722.943	35577.83
723.137	35368.93
723.331	35997.66
723.525	35672.03
723.719	35583.97
723.913	36181.98
724.107	35739.61
724.301	35438.56
724.495	35493.86
724.689	35989.47
724.883	36138.97
725.077	35610.59
725.271	35710.94
725.465	35983.32
725.659	35592.16
725.853	35731.42
726.046	35090.41
726.24	35424.23
726.434	35303.4
726.628	35366.88
726.822	34881.52
727.015	36345.81
727.209	35753.95
727.403	35506.15
727.596	34783.21
727.79	36050.91
727.984	35829.73
728.177	35203.05
728.371	35237.86
728.565	35497.95
728.758	35682.27
728.952	35377.12
729.146	34867.18
729.339	35895.26
729.533	35545.06
729.726	35258.34
729.92	35301.35
730.113	35727.33
730.307	35682.27
730.5	35715.04
730.694	35106.79
730.887	35151.85
731.081	35493.86
731.274	35143.66
731.468	34926.57
731.661	35143.66
731.854	35157.99
732.048	34998.25
732.241	35219.43
732.435	35483.62
732.628	35276.77
732.821	35049.45
733.014	35037.16
733.208	34965.48
733.401	35493.86
733.594	34926.57
733.788	34848.75
733.981	35391.46
734.174	35080.17
734.367	34361.33
734.56	35192.81
734.754	35436.52
734.947	35475.43
735.14	34957.29
735.333	35090.41
735.526	35782.62
735.719	35104.74
735.912	35018.73
736.105	34672.62
736.298	35004.39
736.491	35106.79
736.684	34938.86
736.877	34705.39
737.07	35131.37
737.263	35145.7
737.456	34910.19
737.649	34744.3
737.842	34609.14
738.035	35094.5
738.228	34691.05
738.421	35295.21
738.614	35502.05
738.807	35260.39
739	34256.89
739.192	34553.84
739.385	35067.88
739.578	34942.95
739.771	34693.1
739.964	34138.1
740.156	35010.54
740.349	34768.88
740.542	34858.99
740.735	34248.69
740.927	34865.13
741.12	34516.98
741.313	34353.14
741.505	34994.15
741.698	34711.53
741.891	35229.67
742.083	34670.57
742.276	34398.2
742.468	34754.54
742.661	34478.07
742.854	34578.42
743.046	34402.29
743.239	34627.57
743.431	34695.15
743.624	34334.71
743.816	34228.21
744.009	34551.79
744.201	34697.2
744.393	34193.4
744.586	34142.2
744.778	34582.51
744.971	34181.11
745.163	34469.87
745.355	34207.73
745.548	34091
745.74	34578.42
745.932	34238.45
746.125	34338.8
746.317	35080.17
746.509	34248.69
746.702	34299.89
746.894	33849.34
747.086	34215.93
747.278	34291.7
747.471	34199.54
747.663	33968.12
747.855	34234.36
748.047	34648.05
748.239	33898.49
748.431	33796.09
748.623	34752.49
748.815	34301.94
749.008	33640.45
749.2	33974.27
749.392	34410.48
749.584	33976.31
749.776	33921.02
749.968	33845.24
750.16	34508.79
750.352	33296.39
750.544	33411.07
750.736	33411.07
750.928	34172.92
751.12	33370.11
751.311	33337.35
751.503	33724.41
751.695	33343.49
751.887	33685.5
752.079	33599.49
752.271	32913.42
752.463	34433.01
752.654	33396.74
752.846	33712.13
753.038	33515.52
753.23	33368.07
753.421	33488.9
753.613	33449.99
753.805	33605.63
753.997	33538.05
754.188	33748.99
754.38	32970.76
754.572	32993.29
754.763	33904.63
754.955	33116.17
755.146	33171.46
755.338	32780.3
755.53	32927.75
755.721	33124.36
755.913	32645.13
756.104	32673.81
756.296	32960.52
756.487	33384.45
756.679	32817.16
756.87	32464.91
757.062	32591.89
757.253	33056.78
757.445	32137.24
757.636	32837.64
757.827	32919.56
758.019	33417.22
758.21	32288.79
758.401	32516.11
758.593	33140.74
758.784	33099.78
758.975	32006.17
759.167	32018.46
759.358	33028.1
759.549	33021.96
759.74	31975.45
759.932	32127
760.123	32710.67
760.314	32057.37
760.505	31856.67
760.696	31930.39
760.888	32839.69
761.079	32127
761.27	31914.01
761.461	32006.17
761.652	32641.04
761.843	31901.72
762.034	31891.48
762.225	31645.73
762.416	31911.96
762.607	31914.01
762.798	31631.39
762.989	31684.64
763.18	32520.21
763.371	31295.52
763.562	31916.06
763.753	31313.95
763.944	32339.99
764.135	31954.97
764.326	31434.78
764.517	31287.33
764.708	31705.12
764.899	31680.54
765.089	31275.04
765.28	31510.56
765.471	31297.57
765.662	31498.27
765.853	31125.54
766.043	31041.57
766.234	31453.22
766.425	31445.02
766.615	30795.82
766.806	30904.36
766.997	31631.39
767.187	31045.67
767.378	30810.15
767.569	30509.1
767.759	31068.2
767.95	31236.13
768.141	30679.08
768.331	30502.96
768.522	30455.86
768.712	31115.3
768.903	30779.43
769.093	30275.63
769.284	30933.03
769.474	30687.28
769.665	30287.92
769.855	29909.05
770.046	30863.4
770.236	30347.31
770.426	30369.84
770.617	30089.27
770.807	30844.97
770.998	30439.47
771.188	30349.36
771.378	30316.59
771.569	30507.05
771.759	30441.52
771.949	29767.74
772.139	30029.88
772.33	29915.19
772.52	30496.81
772.71	29775.93
772.9	29788.22
773.09	30324.79
773.281	30900.26
773.471	29452.35
773.661	29548.61
773.851	30203.96
774.041	29659.2
774.231	29485.12
774.421	29265.99
774.611	29935.67
774.802	29499.45
774.992	29450.3
775.182	29526.08
775.372	29560.89
775.562	29704.25
775.752	29032.52
775.942	29206.59
776.131	30015.54
776.321	29296.7
776.511	29335.62
776.701	28940.36
776.891	29517.89
777.081	29061.19
777.271	29009.99
777.461	28995.65
777.651	29067.33
777.84	29079.62
778.03	28739.66
778.22	28772.42
778.41	29388.86
778.599	28680.27
778.789	28713.03
778.979	28545.1
779.169	28979.27
779.358	28686.41
779.548	28981.32
779.738	28268.62
779.927	28733.51
780.117	28567.63
780.307	28276.82
780.496	28153.94
780.686	28766.28
780.875	28989.51
781.065	28295.25
781.254	28289.1
781.444	28766.28
781.633	28350.54
781.823	28321.87
782.012	28285.01
782.202	28252.24
782.391	28403.79
782.581	27680.86
782.77	28414.03
782.96	28629.07
783.149	28000.34
783.338	27738.2
783.528	27680.86
783.717	28686.41
783.906	28559.44
784.096	27764.82
784.285	28090.45
784.474	27879.51
784.663	27711.58
784.853	27523.16
785.042	27619.42
785.231	27887.7
785.42	28295.25
785.61	27420.77
785.799	27490.4
785.988	27674.71
786.177	27643.99
786.366	27431.01
786.555	27562.08
786.744	27727.96
786.933	27908.18
787.122	27344.99
787.312	27213.92
787.501	27388
787.69	27523.16
787.879	27459.68
788.068	27312.22
788.257	26982.5
788.445	27258.98
788.634	27519.07
788.823	27066.47
789.012	28155.99
789.201	27514.97
789.39	27056.23
789.579	26667.11
789.768	27195.49
789.957	27066.47
790.145	26996.84
790.334	26589.29
790.523	26914.92
790.712	27238.5
790.9	26986.6
791.089	26726.5
791.278	27074.66
791.467	26765.42
791.655	27007.08
791.844	27113.57
792.033	26699.88
792.221	26794.09
792.41	26843.24
792.599	26437.74
792.787	27160.67
792.976	26992.74
793.164	26368.11
793.353	26470.51
793.541	26904.68
793.73	26816.61
793.918	26036.34
794.107	26267.76
794.295	26278
794.484	26833
794.672	26316.91
794.861	26116.21
795.049	26579.05
795.238	26820.71
795.426	26112.11
795.614	26189.94
795.803	26562.67
795.991	26689.64
796.179	26120.31
796.368	26067.06
796.556	26450.03
796.744	25741.43
796.932	26093.68
797.121	25753.72
797.309	26034.29
797.497	26286.19
797.685	25892.98
797.874	25747.58
798.062	26038.39
798.25	26048.63
798.438	25835.64
798.626	25868.41
798.814	26384.49
799.002	26445.93
799.19	26017.91
799.378	25731.19
799.566	26218.61
799.755	26267.76
799.943	25868.41
800.131	25852.02
800.318	25852.02
800.506	26136.69
800.694	25315.45
800.882	25755.77
801.07	26683.5
801.258	26136.69
801.446	25964.66
801.634	25499.77
801.822	25909.36
802.01	26118.26
802.197	25866.36
802.385	25909.36
802.573	26249.33
802.761	25921.65
802.949	26062.96
803.136	25800.82
803.324	26503.28
803.512	26146.93
803.699	25720.95
803.887	25571.45
804.075	26437.74
804.262	26058.87
804.45	25903.22
804.638	26185.84
804.825	26404.97
805.013	26060.91
805.201	26181.74
805.388	25720.95
805.576	26353.77
805.763	27086.95
805.951	26134.64
806.138	26234.99
806.326	26812.52
806.513	26292.33
806.701	26251.38
806.888	26169.46
807.075	26693.74
807.263	26992.74
807.45	26263.66
807.638	26413.16
807.825	26767.46
808.012	26316.91
808.2	26038.39
808.387	26241.14
808.574	26538.09
808.761	26949.73
808.949	26413.16
809.136	26505.32
809.323	26480.75
809.51	26677.35
809.698	26384.49
809.885	26241.14
810.072	27099.23
810.259	27007.08
810.446	26191.98
810.633	26372.21
810.82	26761.32
811.008	26857.57
811.195	26587.24
811.382	26390.64
811.569	26876.01
811.756	26269.81
811.943	26742.89
812.13	26460.27
812.317	26708.07
812.504	26994.79
812.691	26159.22
812.878	26638.44
813.064	26689.64
813.251	26730.6
813.438	26308.72
813.625	26431.6
813.812	26587.24
813.999	26562.67
814.186	26237.04
814.372	26368.11
814.559	26697.83
814.746	26484.84
814.933	26300.53
815.12	26744.94
815.306	26409.07
815.493	26620.01
815.68	26382.45
815.866	26177.65
816.053	26771.56
816.24	27160.67
816.426	26294.38
816.613	26007.67
816.799	26890.34
816.986	26855.53
817.173	26288.24
817.359	26263.66
817.546	26527.85
817.732	25950.32
817.919	26067.06
818.105	26185.84
818.292	26267.76
818.478	26568.81
818.665	26386.54
818.851	26075.25
819.037	26816.61
819.224	26507.37
819.41	26161.26
819.597	26077.3
819.783	26910.82
819.969	26423.4
820.156	26157.17
820.342	26212.46
820.528	27043.94
820.714	25774.2
820.901	26206.32
821.087	25839.73
821.273	26693.74
821.459	26327.15
821.646	25872.5
821.832	25956.47
822.018	26300.53
822.204	25747.58
822.39	26108.02
822.576	25704.57
822.762	26030.19
822.948	26062.96
823.134	25927.8
823.32	25452.67
823.507	25432.19
823.693	25991.28
823.879	25647.22
824.065	25499.77
824.25	25821.3
824.436	25866.36
824.622	25434.24
824.808	25626.74
824.994	25440.38
825.18	25096.32
825.366	25198.72
825.552	25448.57
825.738	25407.61
825.923	25567.35
826.109	25536.63
826.295	25137.28
826.481	25337.98
826.667	25307.26
826.852	25071.75
827.038	24834.18
827.224	25686.14
827.409	25522.3
827.595	24836.23
827.781	25290.88
827.966	25340.03
828.152	25610.36
828.338	25092.23
828.523	24524.94
828.709	24817.8
828.894	25475.2
829.08	24621.19
829.266	24492.17
829.451	24885.38
829.637	24846.47
829.822	24647.82
830.008	24688.78
830.193	24957.06
830.378	25049.22
830.564	24514.7
830.749	24320.14
830.935	24924.29
831.12	24719.49
831.305	24346.76
831.491	24197.26
831.676	24174.74
831.861	24760.45
832.047	24522.89
832.232	24166.54
832.417	24789.13
832.602	24588.42
832.788	24105.1
832.973	24096.91
833.158	24070.29
833.343	24113.3
833.528	24174.74
833.714	24002.71
833.899	24457.35
834.084	24383.63
834.269	24152.21
834.454	23687.32
834.639	24416.4
834.824	23988.37
835.009	24031.38
835.194	23822.48
835.379	24129.68
835.564	24191.12
835.749	24055.95
835.934	23503
836.119	24260.75
836.304	23773.33
836.489	23337.12
836.674	23613.59
836.859	23552.15
837.044	24133.78
837.228	23468.19
837.413	23115.94
837.598	23869.59
837.783	23857.3
837.968	23234.72
838.152	23124.13
838.337	22851.75
838.522	23853.2
838.707	24008.85
838.891	23419.03
839.076	23697.56
839.261	23668.89
839.445	22919.33
839.63	23285.92
839.815	23734.42
839.999	23187.61
840.184	22829.22
840.368	22810.79
840.553	23330.97
840.737	23462.04
840.922	22735.01
841.106	22550.7
841.291	23185.57
841.475	22988.96
841.66	22845.6
841.844	22532.26
842.029	23683.22
842.213	22573.22
842.397	22788.26
842.582	22548.65
842.766	23236.77
842.951	22919.33
843.135	22476.97
843.319	22663.33
843.504	22864.04
843.688	22737.06
843.872	22147.25
844.056	22263.98
844.241	22585.51
844.425	22548.65
844.609	22347.95
844.793	22155.44
844.977	22855.84
845.161	22395.05
845.346	22220.97
845.53	21979.31
845.714	22266.03
845.898	22655.14
846.082	22120.62
846.266	22059.18
846.45	22419.63
846.634	22345.9
846.818	21819.57
847.002	22159.53
847.186	22356.14
847.37	21915.83
847.554	21649.59
847.738	22053.04
847.922	22145.2
848.106	22239.4
848.29	21532.86
848.473	22114.48
848.657	22094
848.841	21633.21
849.025	21606.58
849.209	21457.08
849.392	22124.72
849.576	22044.85
849.76	21293.24
849.944	21573.81
850.127	22311.08
850.311	21264.57
850.495	21289.15
850.678	21301.43
850.862	21981.36
851.046	21795
851.229	21657.78
851.413	21295.29
851.596	21801.14
851.78	21805.24
851.964	21389.5
852.147	20975.81
852.331	22110.38
852.514	21868.72
852.698	21518.52
852.881	21012.67
853.065	21561.53
853.248	21151.93
853.431	21131.45
853.615	20826.31
853.798	21782.71
853.982	21131.45
854.165	21196.99
854.348	21117.12
854.532	20961.47
854.715	20711.62
854.898	20906.18
855.081	20869.31
855.265	21369.02
855.448	21272.76
855.631	20467.91
855.814	20361.42
855.997	21219.52
856.181	20830.4
856.364	20811.97
856.547	20611.27
856.73	20680.9
856.913	20750.53
857.096	20625.61
857.279	20795.59
857.462	20527.3
857.645	20998.34
857.828	20422.86
858.011	20676.8
858.194	20379.85
858.377	20664.52
858.56	20007.12
858.743	20314.31
858.926	20338.89
859.109	20357.32
859.292	20025.55
859.475	20035.79
859.658	20666.56
859.841	20705.48
860.023	20035.79
860.206	19876.05
860.389	20332.75
860.572	20433.1
860.755	19787.99
860.937	19896.53
861.12	20283.59
861.303	19855.57
861.486	19804.37
861.668	19884.24
861.851	20103.37
862.034	20246.73
862.216	19527.89
862.399	19253.47
862.581	19824.85
862.764	20218.06
862.947	19460.31
863.129	19411.16
863.312	19120.35
863.494	20113.61
863.677	19411.16
863.859	19007.71
864.042	19775.7
864.224	19818.71
864.406	19568.85
864.589	18817.25
864.771	19235.03
864.954	19216.6
865.136	18946.27
865.318	18718.95
865.501	19134.68
865.683	18727.14
865.865	18634.98
866.048	18655.46
866.23	19220.7
866.412	18976.99
866.594	18614.5
866.777	18663.65
866.959	19245.27
867.141	19028.19
867.323	19161.31
867.505	19032.29
867.687	18718.95
867.869	19060.96
868.052	18600.16
868.234	18505.96
868.416	18530.53
868.598	18997.47
868.78	18729.19
868.962	18577.64
869.144	19161.31
869.326	19122.4
869.508	18329.83
869.69	18544.87
869.872	18643.17
870.054	19015.9
870.236	18290.92
870.417	18329.83
870.599	18655.46
870.781	18847.97
870.963	18417.89
871.145	18495.72
871.327	18436.33
871.508	18905.31
871.69	18069.74
871.872	18309.35
872.054	18766.05
872.235	18530.53
872.417	18282.73
872.599	18096.36
872.78	18944.22
872.962	18497.77
873.144	18020.59
873.325	18409.7
873.507	18911.46
873.689	18813.15
873.87	18067.69
874.052	18409.7
874.233	18444.52
874.415	18841.82
874.596	18450.66
874.778	18196.71
874.959	18690.27
875.141	18677.99
875.322	17981.68
875.503	18168.04
875.685	18575.59
875.866	18204.91
876.048	18159.85
876.229	17920.24
876.41	18518.25
876.592	18575.59
876.773	18258.15
876.954	18284.78
877.136	19017.95
877.317	18245.87
877.498	18206.95
877.679	18481.38
877.86	18559.2
878.042	18774.24
878.223	18301.16
878.404	18591.97
878.585	18796.77
878.766	19054.81
878.947	18843.87
879.128	18516.2
879.309	18665.7
879.49	18968.8
879.672	18401.51
879.853	18260.2
880.034	18491.62
880.215	18837.73
880.396	18708.71
880.576	18321.64
880.757	18739.43
880.938	19155.16
881.119	18604.26
881.3	18725.09
881.481	18835.68
881.662	19738.83
881.843	18735.33
882.023	18522.34
882.204	18815.2
882.385	19126.49
882.566	18768.1
882.747	18804.96
882.927	18911.46
883.108	19146.97
883.289	18850.02
883.469	19267.8
883.65	19101.92
883.831	19079.39
884.011	19091.68
884.192	18852.06
884.373	19347.67
884.553	19409.11
884.734	19271.9
884.914	19296.47
885.095	19855.57
885.275	19830.99
885.456	19435.74
885.636	19108.06
885.817	19448.02
885.997	19687.64
886.178	19034.33
886.358	19407.06
886.538	19400.92
886.719	20582.6
886.899	19167.45
887.08	19417.3
887.26	19763.41
887.44	19476.69
887.621	19306.71
887.801	19484.89
887.981	20318.41
888.161	19536.09
888.342	19189.98
888.522	19316.95
888.702	19894.48
888.882	19830.99
889.062	19470.55
889.242	19124.44
889.423	20017.36
889.603	19804.37
889.783	19886.29
889.963	19615.96
890.143	20021.45
890.323	19734.74
890.503	19661.01
890.683	19312.86
890.863	20132.04
891.043	20099.28
891.223	19599.57
891.403	19790.03
891.583	19927.25
891.763	20082.89
891.943	19386.58
892.122	19509.46
892.302	19998.93
892.482	19880.14
892.662	19681.49
892.842	19751.12
893.022	19785.94
893.201	19966.16
893.381	19572.95
893.561	19589.33
893.741	20211.92
893.92	20017.36
894.1	19898.58
894.28	19542.23
894.459	19994.83
894.639	19843.28
894.819	19347.67
894.998	19878.1
895.178	20056.27
895.357	19806.42
895.537	19599.57
895.716	19689.68
895.896	19874
896.075	20160.72
896.255	19302.62
896.434	19405.02
896.614	20025.55
896.793	20299.98
896.973	19839.19
897.152	19534.04
897.331	19460.31
897.511	20142.28
897.69	19503.32
897.87	19462.36
898.049	19755.22
898.228	19888.34
898.407	19636.44
898.587	19595.48
898.766	19599.57
898.945	19661.01
899.124	19437.78
899.304	19331.29
899.483	19718.36
899.662	19460.31
899.841	19247.32
900.02	19241.18
900.199	19740.88
900.378	19720.4
900.557	19269.85
900.737	19005.66
900.916	19464.41
901.095	19300.57
901.274	19470.55
901.453	18964.7
901.632	19003.61
901.811	19177.69
901.989	18876.64
902.168	18831.58
902.347	19347.67
902.526	18897.12
902.705	18831.58
902.884	19030.24
903.063	19321.05
903.242	19349.72
903.42	18647.27
903.599	18813.15
903.778	19265.75
903.957	19235.03
904.135	19087.58
904.314	18485.48
904.493	19316.95
904.672	18999.52
904.85	18620.64
905.029	18745.57
905.207	19067.1
905.386	19792.08
905.565	18340.07
905.743	18206.95
905.922	18645.22
906.1	18747.62
906.279	18143.47
906.457	18104.56
906.636	18553.06
906.814	18553.06
906.993	18055.4
907.171	18426.09
907.35	18514.15
907.528	18421.99
907.707	18262.25
907.885	17836.27
908.063	18598.12
908.242	18110.7
908.42	17950.96
908.598	17709.3
908.777	18168.04
908.955	17973.49
909.133	17715.44
909.311	17793.26
909.49	17707.25
909.668	17850.61
909.846	17611
910.024	17647.86
910.202	17752.31
910.38	17889.52
910.559	17461.49
910.737	17516.79
910.915	18112.75
911.093	17654
911.271	17344.76
911.449	17776.88
911.627	17733.87
911.805	17864.94
911.983	17318.14
912.161	16990.46
912.339	17574.13
912.517	17963.25
912.695	17142.01
912.872	17049.85
913.05	17230.07
913.228	17314.04
913.406	16826.62
913.584	16836.86
913.762	17379.57
913.939	16869.63
914.117	16945.41
914.295	16707.84
914.473	17363.19
914.65	16926.97
914.828	16421.13
915.006	16365.83
915.184	16488.71
915.361	16607.49
915.539	16765.18
915.716	16544
915.894	16613.63
916.072	16650.5
916.249	16519.43
916.427	16574.72
916.604	16191.75
916.782	16597.25
916.959	16005.39
917.137	15962.38
917.314	16773.38
917.492	16519.43
917.669	15892.75
917.847	16171.27
918.024	16204.04
918.201	15855.89
918.379	15821.07
918.556	15952.14
918.733	16228.62
918.911	15825.17
919.088	15970.57
919.265	15601.94
919.442	15952.14
919.62	15628.56
919.797	15511.83
919.974	15534.35
920.151	15724.82
920.328	15450.39
920.506	15255.83
920.683	15659.28
920.86	15192.34
921.037	15165.72
921.214	14979.36
921.391	15151.38
921.568	15163.67
921.745	14979.36
921.922	14926.11
922.099	14866.72
922.276	15378.71
922.453	15341.85
922.63	15108.38
922.807	14942.49
922.984	14942.49
923.161	14747.93
923.338	14682.4
923.514	14362.92
923.691	14967.07
923.868	14768.41
924.045	14455.08
924.222	14450.98
924.399	14592.29
924.575	14891.29
924.752	14330.15
924.929	14285.09
925.105	14520.61
925.282	14219.56
925.459	14084.39
925.635	14049.58
925.812	14250.28
925.989	14029.1
926.165	13734.19
926.342	13646.13
926.518	13775.15
926.695	14100.78
926.871	13629.74
927.048	13529.39
927.224	13947.18
927.401	13519.15
927.577	13347.12
927.754	13277.49
927.93	13732.14
928.107	13869.36
928.283	13115.7
928.459	13646.13
928.636	13398.32
928.812	13236.53
928.988	12949.82
929.165	12773.69
929.341	13150.52
929.517	13041.98
929.693	13064.5
929.87	12689.73
930.046	13076.79
930.222	12839.23
930.398	12663.1
930.574	12392.77
930.751	12593.47
930.927	12466.5
931.103	12511.55
931.279	12276.04
931.455	12360
931.631	12556.61
931.807	12112.2
931.983	12163.4
932.159	12013.9
932.335	12157.25
932.511	12187.97
932.687	11805
932.863	12042.57
933.039	11850.06
933.215	11405.65
933.391	11274.58
933.566	11639.12
933.742	11743.56
933.918	11290.96
934.094	11032.92
934.27	11176.28
934.445	11362.64
934.621	11004.25
934.797	10727.77
934.973	11213.14
935.148	10869.08
935.324	10363.23
935.5	10369.38
935.675	10768.73
935.851	10482.02
936.027	10166.63
936.202	9992.55
936.378	10152.29
936.553	9935.21
936.729	10056.04
936.904	9202.04
937.08	9081.21
937.255	9220.47
937.431	8849.78
937.606	8466.81
937.782	8692.09
937.957	9118.07
938.133	8507.77
938.308	8307.07
938.483	8341.89
938.659	8206.72
938.834	8008.07
939.009	7862.66
939.185	7881.1
939.36	7483.79
939.535	6971.8
939.71	7520.65
939.886	7776.65
940.061	7596.43
940.236	7227.79
940.411	7127.44
940.586	7463.31
940.761	7410.06
940.937	6803.86
941.112	6693.27
941.287	7235.99
941.462	6865.3
941.637	6427.04
941.812	6619.55
941.987	6721.95
942.162	6672.79
942.337	6431.13
942.512	6398.37
942.687	6814.1
942.862	6517.15
943.037	5960.1
943.212	5841.32
943.386	6353.31
943.561	6459.81
943.736	6199.71
943.911	6283.68
944.086	6242.72
944.26	6398.37
944.435	6001.06
944.61	6066.6
944.785	6453.66
944.959	6611.36
945.134	5994.92
945.309	5906.85
945.483	5902.76
945.658	6369.69
945.833	5675.43
946.007	5654.95
946.182	6486.43
946.357	5740.97
946.531	5710.25
946.706	5882.28
946.88	5697.96
947.055	6111.65
947.229	5808.55
947.404	5544.36
947.578	6166.95
947.752	5966.24
947.927	5626.28
948.101	5611.95
948.276	6093.22
948.45	6085.03
948.624	5925.29
948.799	5755.3
948.973	5896.61
949.147	5865.89
949.321	5786.02
949.496	5890.47
949.67	6361.5
949.844	5931.43
950.018	5896.61
950.193	5843.37
950.367	6515.1
950.541	5855.65
950.715	5824.94
950.889	5964.2
951.063	6046.12
951.237	6197.67
951.411	5681.58
951.585	5636.52
951.759	6125.99
951.933	5984.68
952.107	5732.78
952.281	5865.89
952.455	6488.48
952.629	6150.56
952.803	5790.12
952.977	5773.74
953.151	6171.04
953.325	6189.47
953.499	6019.49
953.672	5521.84
953.846	5777.83
954.02	5956.01
954.194	5657
954.368	5740.97
954.541	6128.03
954.715	5718.44
954.889	5839.27
955.062	5697.96
955.236	6050.21
955.41	5888.42
955.583	5818.79
955.757	5450.16
955.93	5878.18
956.104	5478.83
956.278	5501.36
956.451	5601.71
956.625	6097.31
956.798	6437.28
956.972	5974.44
957.145	5497.26
957.319	5814.7
957.492	5843.37
957.665	5693.87
957.839	5509.55
958.012	5968.29
958.185	5667.24
958.359	5573.03
958.532	5638.57
958.705	5915.05
958.879	5947.81
959.052	5757.35
959.225	5206.45
959.398	5790.12
959.572	5788.07
959.745	5312.94
959.918	5562.8
960.091	5700.01
960.264	5872.04
960.438	5403.05
960.611	5437.87
960.784	5849.51
960.957	5491.12
961.13	5675.43
961.303	5478.83
961.476	5743.02
961.649	5695.91
961.822	5362.09
961.995	5366.19
962.168	5751.21
962.341	5736.87
962.514	5384.62
962.686	5317.04
962.859	5663.15
963.032	5726.63
963.205	5470.64
963.378	5237.17
963.551	5589.42
963.723	5468.59
963.896	5454.25
964.069	5673.39
964.242	5618.09
964.414	5722.54
964.587	5417.39
964.76	5407.15
964.932	5646.76
965.105	5468.59
965.278	5212.59
965.45	5239.22
965.623	5398.96
965.795	5517.74
965.968	5251.5
966.14	5321.13
966.313	5501.36
966.485	5331.37
966.658	5185.97
966.83	5253.55
967.003	5820.84
967.175	5480.88
967.348	5159.35
967.52	5140.91
967.692	5704.1
967.865	5577.13
968.037	5065.14
968.209	5304.75
968.382	5401.01
968.554	5536.17
968.726	5054.9
968.898	5032.37
969.071	5525.93
969.243	5437.87
969.415	5067.19
969.587	5173.68
969.759	5716.39
969.932	5360.05
970.104	4958.64
970.276	4764.09
970.448	5198.26
970.62	5036.47
970.792	5173.68
970.964	5032.37
971.136	5714.34
971.308	5331.37
971.48	4848.05
971.652	4862.39
971.824	5523.88
971.996	5081.52
972.168	5009.84
972.339	4964.79
972.511	5321.13
972.683	4940.21
972.855	5177.78
973.027	4962.74
973.199	5116.34
973.37	5181.87
973.542	4946.36
973.714	5044.66
973.886	5112.24
974.057	5118.39
974.229	4684.22
974.401	4854.2
974.572	4874.68
974.744	4600.25
974.915	4528.57
975.087	4710.84
975.259	5312.94
975.43	4862.39
975.602	4663.74
975.773	4569.53
975.945	4831.67
976.116	5067.19
976.288	4600.25
976.459	4872.63
976.63	4753.85
976.802	5056.95
976.973	4561.34
977.145	4780.47
977.316	5364.14
977.487	5181.87
977.659	4571.58
977.83	4680.12
978.001	5237.17
978.172	4794.81
978.344	4573.63
978.515	4575.67
978.686	4547
978.857	5124.53
979.028	4424.12
979.2	4493.76
979.371	4895.16
979.542	4815.29
979.713	4620.73
979.884	4069.83
980.055	4497.85
980.226	4624.83
980.397	4327.87
980.568	4381.12
980.739	4956.6
980.91	4452.8
981.081	4587.96
981.252	4366.78
981.423	4694.46
981.594	4772.28
981.765	4180.42
981.936	4270.53
982.106	4624.83
982.277	4821.43
982.448	4198.85
982.619	4520.38
982.79	4432.32
982.96	4811.19
983.131	4323.77
983.302	4075.97
983.472	4272.57
983.643	4499.9
983.814	4338.11
983.984	4182.46
984.155	4297.15
984.326	4551.1
984.496	4256.19
984.667	4069.83
984.837	4153.79
985.008	4534.71
985.178	4278.72
985.349	4186.56
985.519	4207.04
985.69	4102.59
985.86	4096.45
986.031	4104.64
986.201	4413.88
986.371	4338.11
986.542	3942.85
986.712	3838.41
986.882	4301.25
987.053	4303.29
987.223	3916.23
987.393	4161.98
987.563	4086.21
987.734	4467.13
987.904	4315.58
988.074	3932.61
988.244	4231.62
988.414	4112.83
988.585	3826.12
988.755	4035.01
988.925	4073.92
989.095	4506.04
989.265	3809.73
989.435	4039.11
989.605	4313.53
989.775	4288.96
989.945	4010.43
990.115	3629.51
990.285	4151.74
990.455	3989.96
990.625	3885.51
990.795	3733.96
990.965	4424.12
991.134	3832.26
991.304	3742.15
991.474	3807.69
991.644	3905.99
991.814	4297.15
991.984	3516.87
992.153	3635.66
992.323	3942.85
992.493	3977.67
992.662	3379.66
992.832	3826.12
993.002	3910.08
993.171	3969.48
993.341	3625.42
993.511	3787.21
993.68	3645.9
993.85	3852.74
994.019	3361.23
994.189	3494.35
994.358	3910.08
994.528	3666.38
994.697	3209.68
994.867	3224.01
995.036	4057.54
995.206	3762.63
995.375	3334.61
995.544	3484.11
995.714	3826.12
995.883	3731.91
996.052	3545.55
996.222	3111.38
996.391	4145.6
996.56	3690.95
996.73	3297.74
996.899	3203.54
997.068	3992
997.237	3748.29
997.406	3369.42
997.576	3228.11
997.745	3625.42
997.914	3699.14
998.083	3084.75
998.252	3187.15
998.421	3582.41
998.59	3273.17
998.759	3113.42
998.928	3080.66
999.097	3709.38
999.266	3572.17
999.435	3342.8
999.604	2906.58
999.773	4067.78
999.942	3486.15
1000.111	2996.69
1000.28	2959.83
1000.448	3074.51
1000.617	3230.16
1000.786	3324.37
1000.955	3086.8
1001.124	3353.04
1001.292	4014.53
1001.461	3072.47
1001.63	2929.11
1001.798	3711.43
1001.967	3563.98
1002.136	2957.78
1002.304	2861.52
1002.473	3346.89
1002.642	3359.18
1002.81	3127.76
1002.979	2931.16
1003.147	3535.31
1003.316	3807.69
1003.484	2996.69
1003.653	2779.61
1003.821	3555.79
1003.99	3166.67
1004.158	2957.78
1004.327	2994.64
1004.495	3205.58
1004.663	2736.6
1004.832	2982.35
1005	2480.6
1005.168	3148.24
1005.337	3131.86
1005.505	2677.21
1005.673	3011.03
1005.842	3236.3
1006.01	3207.63
1006.178	2650.58
1006.346	2687.45
1006.514	3117.52
1006.683	3428.81
1006.851	2597.34
1007.019	2638.3
1007.187	2902.48
1007.355	2607.58
1007.523	2372.06
1007.691	2529.75
1007.859	2558.42
1008.027	3326.41
1008.195	2773.46
1008.363	2591.19
1008.531	3101.14
1008.699	2795.99
1008.867	2474.46
1009.035	2585.05
1009.203	3240.4
1009.37	3033.55
1009.538	2484.7
1009.706	3082.7
1009.874	2953.68
1010.042	2869.72
1010.209	2404.83
1010.377	2400.73
1010.545	3068.37
1010.713	2859.48
1010.88	2447.83
1011.048	2511.32
1011.216	2746.84
1011.383	3107.28
1011.551	2404.83
1011.718	2335.2
1011.886	2879.96
1012.054	2752.98
1012.221	2273.76
1012.389	2267.61
1012.556	2699.73
1012.724	3150.29
1012.891	2453.98
1013.058	2130.4
1013.226	2724.31
1013.393	2777.56
1013.561	2191.84
1013.728	2060.77
1013.895	2773.46
1014.063	2744.79
1014.23	2068.96
1014.397	2292.19
1014.565	2843.09
1014.732	2519.51
1014.899	2134.5
1015.066	2165.21
1015.233	2585.05
1015.401	2746.84
1015.568	2236.89
1015.735	2331.1
1015.902	2499.03
1016.069	2562.52
1016.236	2152.93
1016.403	2052.58
1016.57	2292.19
1016.737	2560.47
1016.904	2142.69
1017.071	1978.85
1017.238	2228.7
1017.405	2658.78
1017.572	2200.03
1017.739	2259.42
1017.906	2492.89
1018.073	2568.66
1018.24	1878.5
1018.407	2120.16
1018.573	2638.3
1018.74	2212.32
1018.907	2083.3
1019.074	1831.4
1019.241	2537.95
1019.407	2363.87
1019.574	1843.68
1019.741	1892.84
1019.907	2253.28
1020.074	2451.93
1020.241	1690.09
1020.407	1808.87
1020.574	2386.4
1020.74	2382.3
1020.907	1950.18
1021.073	1759.72
1021.24	2669.02
1021.406	2587.1
1021.573	1735.14
1021.739	1819.11
1021.906	2408.92
1022.072	2146.78
1022.239	1815.01
1022.405	1886.69
1022.571	2193.89
1022.738	1989.09
1022.904	1710.57
1023.07	1915.36
1023.237	2191.84
1023.403	2351.58
1023.569	1784.29
1023.735	1772
1023.902	2249.18
1024.068	2071.01
1024.234	1671.65
1024.4	1782.24
1024.566	2085.34
1024.732	2281.95
1024.898	1647.08
1025.065	1419.75
1025.231	2267.61
1025.397	2044.38
1025.563	1737.19
1025.729	1575.4
1025.895	1614.31
1026.061	1665.51
1026.227	1479.15
1026.392	1591.78
1026.558	2197.98
1026.724	2023.91
1026.89	1685.99
1027.056	1677.8
1027.222	1960.42
1027.388	1935.84
1027.553	1477.1
1027.719	1571.3
1027.885	2204.13
1028.051	1946.08
1028.216	1294.83
1028.382	1509.86
1028.548	2025.95
1028.713	1737.19
1028.879	1305.07
1029.045	1587.69
1029.21	2208.22
1029.376	2052.58
1029.541	1544.68
1029.707	1429.99
1029.873	1944.03
1030.038	1954.27
1030.204	1466.86
1030.369	1407.47
1030.534	2056.67
1030.7	1655.27
1030.865	1397.23
1031.031	1341.93
1031.196	1798.63
1031.361	1743.33
1031.527	1335.79
1031.692	1298.92
1031.857	1268.2
1032.023	1831.4
1032.188	1260.01
1032.353	1331.69
1032.518	2181.6
1032.684	1743.33
1032.849	1061.36
1033.014	1380.84
1033.179	1827.3
1033.344	1782.24
1033.509	1274.35
1033.674	1257.96
1033.839	1849.83
1034.004	1790.44
1034.17	1212.91
1034.335	1202.67
1034.5	1602.02
1034.664	1415.66
1034.829	1266.16
1034.994	1176.05
1035.159	1714.66
1035.324	1710.57
1035.489	1321.45
1035.654	1155.57
1035.819	1898.98
1035.984	1528.3
1036.148	1257.96
1036.313	1188.33
1036.478	1769.96
1036.643	1483.24
1036.807	1122.8
1036.972	1128.94
1037.137	1810.92
1037.301	1460.71
1037.466	1079.79
1037.631	1270.25
1037.795	1946.08
1037.96	1487.34
1038.124	1255.92
1038.289	985.58
1038.454	1614.31
1038.618	1630.7
1038.783	1130.99
1038.947	1139.18
1039.111	1473
1039.276	1378.79
1039.44	1044.98
1039.605	1487.34
1039.769	1315.31
1039.933	1319.4
1040.098	1094.13
1040.262	1268.2
1040.426	1456.62
1040.591	1513.96
1040.755	924.15
1040.919	1004.02
1041.083	1429.99
1041.248	1319.4
1041.412	854.51
1041.576	836.08
1041.74	1348.08
1041.904	1604.07
1042.068	840.18
1042.232	987.63
1042.397	1481.19
1042.561	1491.43
1042.725	811.51
1042.889	1098.22
1043.053	1423.85
1043.217	1468.91
1043.381	1053.17
1043.544	807.41
1043.708	1454.57
1043.872	1014.26
1044.036	795.12
1044.2	827.89
1044.364	1552.87
1044.528	1632.74
1044.691	4315.58
1044.855	743.92
1045.019	1448.43
1045.183	1337.84
1045.346	1030.64
1045.51	655.86
1045.674	1262.06
1045.837	1352.17
1046.001	821.75
1046.165	809.46
1046.328	1731.05
1046.492	1245.68
1046.655	1032.69
1046.819	897.52
1046.983	1135.09
1047.146	1317.36
1047.31	827.89
1047.473	621.05
1047.636	1151.47
1047.8	969.2
1047.963	874.99
1048.127	672.25
1048.29	1030.64
