Data from Ink_Intensity_USB4F045381__156__00156.txt Node

Date: Mon Jul 17 11:32:05 EDT 2023
User: mmckonesweet
Spectrometer: USB4F04538
Trigger mode: 4
Integration Time (sec): 9.000000E-1
Scans to average: 1
Electric dark correction enabled: true
Nonlinearity correction enabled: false
Boxcar width: 0
XAxis mode: Wavelengths
Number of Pixels in Spectrum: 3648
>>>>>Begin Spectral Data<<<<<
345.52	-989.68
345.736	-989.68
345.952	-989.68
346.168	-1040.88
346.384	-1051.12
346.6	-178.69
346.816	-193.02
347.032	-207.36
347.248	296.44
347.464	-211.45
347.68	-6.66
347.896	60.93
348.112	382.46
348.328	-129.53
348.544	-66.05
348.76	26.11
348.975	226.81
349.191	-199.16
349.407	-246.27
349.623	-55.81
349.839	-35.33
350.055	-141.82
350.27	7.68
350.486	142.85
350.702	278.01
350.918	232.96
351.133	-301.56
351.349	126.46
351.565	273.92
351.781	-186.88
351.996	1.54
352.212	323.07
352.428	-127.49
352.644	-199.16
352.859	-287.23
353.075	314.88
353.291	24.06
353.506	-152.06
353.722	-186.88
353.938	-39.42
354.153	396.79
354.369	134.65
354.584	-164.35
354.8	253.44
355.016	-385.53
355.231	-287.23
355.447	-113.15
355.662	46.59
355.878	738.8
356.093	-375.29
356.309	38.4
356.524	-274.94
356.74	132.61
356.955	-264.7
357.171	-115.2
357.386	58.88
357.602	-342.52
357.817	-135.68
358.033	-178.69
358.248	343.55
358.464	81.41
358.679	-227.84
358.895	-369.15
359.11	-80.38
359.325	294.4
359.541	-33.28
359.756	-53.76
359.972	-272.89
360.187	136.7
360.402	-309.76
360.618	-170.49
360.833	1070.58
361.048	120.32
361.264	-195.07
361.479	-154.11
361.694	5.63
361.909	157.18
362.125	-233.98
362.34	-147.97
362.555	208.38
362.77	65.02
362.986	-346.62
363.201	-150.01
363.416	155.13
363.631	-8.7
363.847	-221.69
364.062	-203.26
364.277	138.75
364.492	28.16
364.707	-156.16
364.922	-391.67
365.138	251.39
365.353	337.4
365.568	-315.9
365.783	-127.49
365.998	89.6
366.213	529.91
366.428	-211.45
366.643	-39.42
366.858	214.52
367.073	163.33
367.288	-193.02
367.503	-324.09
367.718	-43.52
367.933	286.2
368.148	-287.23
368.363	-68.09
368.578	-113.15
368.793	357.88
369.008	-201.21
369.223	-348.67
369.438	142.85
369.653	357.88
369.868	-264.7
370.083	-258.56
370.298	-4.61
370.513	331.26
370.728	22.02
370.943	-260.6
371.157	-246.27
371.372	501.24
371.587	-348.67
371.802	-289.28
372.017	34.3
372.232	419.32
372.446	-57.86
372.661	-317.95
372.876	181.76
373.091	124.41
373.306	-143.87
373.52	-309.76
373.735	-188.93
373.95	486.9
374.165	-88.57
374.379	-158.21
374.594	-168.45
374.809	54.78
375.023	-43.52
375.238	-287.23
375.453	167.42
375.667	-256.51
375.882	-233.98
376.097	-256.51
376.311	50.69
376.526	-49.66
376.741	-358.91
376.955	99.84
377.17	585.21
377.384	581.11
377.599	-160.25
377.813	-252.41
378.028	517.62
378.242	161.28
378.457	-203.26
378.672	-367.1
378.886	50.69
379.101	-90.62
379.315	-354.81
379.53	-258.56
379.744	124.41
379.958	163.33
380.173	-86.53
380.387	-225.79
380.602	108.03
380.816	-199.16
381.031	-248.32
381.245	-188.93
381.459	126.46
381.674	2676.18
381.888	-252.41
382.103	15.87
382.317	-256.51
382.531	382.46
382.746	-168.45
382.96	-236.03
383.174	-113.15
383.388	402.94
383.603	-2.56
383.817	-356.86
384.031	105.98
384.246	394.75
384.46	-31.23
384.674	294.4
384.888	-31.23
385.103	54.78
385.317	-354.81
385.531	-133.63
385.745	300.54
385.959	269.82
386.174	-209.4
386.388	-354.81
386.602	-64
386.816	-115.2
387.03	-143.87
387.244	-147.97
387.458	38.4
387.672	298.49
387.887	-309.76
388.101	-311.8
388.315	329.21
388.529	151.04
388.743	-211.45
388.957	-281.08
389.171	278.01
389.385	-168.45
389.599	-188.93
389.813	-37.38
390.027	136.7
390.241	570.87
390.455	-170.49
390.669	-109.05
390.883	-35.33
391.097	292.35
391.311	-4.61
391.525	-252.41
391.738	204.28
391.952	202.24
392.166	-35.33
392.38	-373.24
392.594	196.09
392.808	351.74
393.022	-158.21
393.236	-176.64
393.449	157.18
393.663	165.37
393.877	-309.76
394.091	-125.44
394.305	-113.15
394.518	-147.97
394.732	-356.86
394.946	-57.86
395.16	427.51
395.373	69.12
395.587	-279.04
395.801	-195.07
396.015	144.89
396.228	124.41
396.442	-330.23
396.656	-436.73
396.869	263.68
397.083	484.86
397.297	-178.69
397.51	-264.7
397.724	247.29
397.938	75.26
398.151	-326.14
398.365	-328.19
398.578	181.76
398.792	312.83
399.005	-100.86
399.219	-184.83
399.433	-18.94
399.646	134.65
399.86	-25.09
400.073	54.78
400.287	140.8
400.5	28.16
400.714	-47.62
400.927	-107.01
401.141	214.52
401.354	1031.66
401.567	165.37
401.781	-322.04
401.994	292.35
402.208	529.91
402.421	-227.84
402.635	-186.88
402.848	-8.7
403.061	235
403.275	-78.33
403.488	-307.71
403.701	398.84
403.915	169.47
404.128	-47.62
404.341	-199.16
404.555	202.24
404.768	-137.73
404.981	-96.77
405.195	-242.17
405.408	445.95
405.621	210.43
405.834	-23.04
406.048	-281.08
406.261	333.31
406.474	388.6
406.687	-199.16
406.9	-127.49
407.114	34.3
407.327	165.37
407.54	-426.49
407.753	-387.58
407.966	-227.84
408.179	192
408.392	-260.6
408.605	-383.48
408.819	192
409.032	42.5
409.245	-291.32
409.458	-43.52
409.671	155.13
409.884	226.81
410.097	-332.28
410.31	-31.23
410.523	108.03
410.736	-88.57
410.949	-72.19
411.162	-164.35
411.375	380.41
411.588	230.91
411.801	-10.75
412.014	-358.91
412.227	-25.09
412.44	-61.95
412.653	-236.03
412.865	-72.19
413.078	247.29
413.291	140.8
413.504	-135.68
413.717	-291.32
413.93	210.43
414.143	-129.53
414.356	-176.64
414.568	-391.67
414.781	214.52
414.994	142.85
415.207	-33.28
415.42	-139.77
415.632	245.24
415.845	374.27
416.058	-360.95
416.271	-365.05
416.483	-31.23
416.696	402.94
416.909	-236.03
417.121	-227.84
417.334	71.17
417.547	476.66
417.759	-225.79
417.972	-291.32
418.185	-2.56
418.397	204.28
418.61	-121.34
418.823	-252.41
419.035	450.04
419.248	58.88
419.46	-158.21
419.673	-74.24
419.885	91.65
420.098	-27.14
420.311	-217.6
420.523	-395.77
420.736	157.18
420.948	42.5
421.161	-219.64
421.373	-387.58
421.586	192
421.798	-131.58
422.01	-428.54
422.223	-133.63
422.435	-150.01
422.648	218.62
422.86	-186.88
423.073	-182.78
423.285	302.59
423.497	-238.08
423.71	-322.04
423.922	-195.07
424.134	124.41
424.347	355.83
424.559	-14.85
424.771	58.88
424.984	-109.05
425.196	52.74
425.408	-457.21
425.621	-420.35
425.833	157.18
426.045	321.02
426.257	-393.72
426.47	-205.31
426.682	73.21
426.894	132.61
427.106	-346.62
427.318	-195.07
427.531	-96.77
427.743	271.87
427.955	-223.74
428.167	198.14
428.379	36.35
428.591	-0.51
428.804	-141.82
429.016	-274.94
429.228	-47.62
429.44	134.65
429.652	13.82
429.864	-358.91
430.076	-61.95
430.288	-92.67
430.5	-139.77
430.712	-102.91
430.924	173.57
431.136	87.55
431.348	-369.15
431.56	-268.8
431.772	28.16
431.984	-86.53
432.196	-250.36
432.408	-244.22
432.62	-35.33
432.832	99.84
433.044	9.73
433.256	-107.01
433.468	179.71
433.679	-303.61
433.891	-408.06
434.103	-45.57
434.315	345.59
434.527	179.71
434.739	-125.44
434.95	-322.04
435.162	204.28
435.374	-190.97
435.586	-233.98
435.798	-301.56
436.009	-219.64
436.221	-170.49
436.433	-231.93
436.645	-203.26
436.856	-174.59
437.068	179.71
437.28	-309.76
437.491	22.02
437.703	173.57
437.915	79.36
438.126	-197.12
438.338	110.08
438.55	-35.33
438.761	110.08
438.973	-240.12
439.184	-190.97
439.396	-121.34
439.608	239.1
439.819	-256.51
440.031	-111.1
440.242	208.38
440.454	132.61
440.665	-238.08
440.877	-55.81
441.088	138.75
441.3	-49.66
441.511	-395.77
441.723	-244.22
441.934	99.84
442.146	-59.9
442.357	-80.38
442.569	-20.99
442.78	32.26
442.991	466.42
443.203	54.78
443.414	-371.19
443.626	259.58
443.837	-180.73
444.048	-283.13
444.26	-397.82
444.471	85.5
444.682	210.43
444.894	-385.53
445.105	-442.87
445.316	130.56
445.528	128.51
445.739	-100.86
445.95	-166.4
446.161	62.98
446.373	210.43
446.584	-186.88
446.795	-246.27
447.006	185.85
447.217	439.8
447.429	-391.67
447.64	-320
447.851	253.44
448.062	-53.76
448.273	-453.11
448.484	-145.92
448.695	183.81
448.907	-66.05
449.118	-170.49
449.329	-14.85
449.54	-80.38
449.751	-317.95
449.962	-285.18
450.173	-211.45
450.384	194.05
450.595	343.55
450.806	-238.08
451.017	-129.53
451.228	384.51
451.439	202.24
451.65	-225.79
451.861	-430.59
452.072	-141.82
452.283	-86.53
452.494	-6.66
452.705	-260.6
452.915	335.35
453.126	177.66
453.337	-227.84
453.548	-244.22
453.759	239.1
453.97	507.38
454.181	-16.9
454.391	-147.97
454.602	79.36
454.813	177.66
455.024	-231.93
455.235	-283.13
455.445	54.78
455.656	77.31
455.867	-10.75
456.078	-297.47
456.288	-125.44
456.499	46.59
456.71	-256.51
456.921	-10.75
457.131	122.37
457.342	40.45
457.553	-160.25
457.763	-236.03
457.974	99.84
458.184	189.95
458.395	-301.56
458.606	-365.05
458.816	316.92
459.027	415.23
459.237	-76.29
459.448	-387.58
459.659	239.1
459.869	523.77
460.08	-416.25
460.29	-168.45
460.501	415.23
460.711	-109.05
460.922	-346.62
461.132	-219.64
461.343	738.8
461.553	-260.6
461.764	-350.71
461.974	-281.08
462.184	173.57
462.395	38.4
462.605	-303.61
462.816	-350.71
463.026	-29.18
463.236	271.87
463.447	-305.66
463.657	-350.71
463.867	142.85
464.078	-113.15
464.288	-233.98
464.498	-211.45
464.709	-82.43
464.919	-31.23
465.129	-182.78
465.339	-285.18
465.55	60.93
465.76	159.23
465.97	-272.89
466.18	-287.23
466.391	220.67
466.601	38.4
466.811	-260.6
467.021	-424.44
467.231	77.31
467.441	318.97
467.651	-313.85
467.862	-537.08
468.072	30.21
468.282	280.06
468.492	-301.56
468.702	-231.93
468.912	-55.81
469.122	597.49
469.332	-10.75
469.542	-360.95
469.752	185.85
469.962	-35.33
470.172	-375.29
470.382	-365.05
470.592	169.47
470.802	306.68
471.012	-168.45
471.222	-293.37
471.432	157.18
471.642	226.81
471.852	-98.81
472.062	-428.54
472.272	-49.66
472.482	-252.41
472.691	-268.8
472.901	-338.43
473.111	124.41
473.321	523.77
473.531	-354.81
473.741	-205.31
473.95	210.43
474.16	171.52
474.37	-186.88
474.58	-391.67
474.79	452.09
474.999	206.33
475.209	-266.75
475.419	-199.16
475.628	-186.88
475.838	275.96
476.048	-240.12
476.258	-375.29
476.467	271.87
476.677	-158.21
476.886	-4.61
477.096	-248.32
477.306	-145.92
477.515	275.96
477.725	-203.26
477.935	-219.64
478.144	280.06
478.354	-143.87
478.563	-223.74
478.773	-369.15
478.982	142.85
479.192	220.67
479.401	-125.44
479.611	-344.57
479.82	-207.36
480.03	-0.51
480.239	-391.67
480.449	-414.2
480.658	394.75
480.868	-156.16
481.077	-127.49
481.287	-375.29
481.496	44.54
481.705	337.4
481.915	-35.33
482.124	-18.94
482.333	58.88
482.543	333.31
482.752	-211.45
482.961	-348.67
483.171	218.62
483.38	-51.71
483.589	-145.92
483.799	-326.14
484.008	-64
484.217	118.27
484.426	-244.22
484.636	-322.04
484.845	71.17
485.054	-268.8
485.263	-14.85
485.472	-250.36
485.682	382.46
485.891	-45.57
486.1	-440.83
486.309	-203.26
486.518	130.56
486.727	308.73
486.936	-260.6
487.146	-178.69
487.355	361.98
487.564	-285.18
487.773	-272.89
487.982	-240.12
488.191	-66.05
488.4	30.21
488.609	-266.75
488.818	-166.4
489.027	519.67
489.236	331.26
489.445	-244.22
489.654	-295.42
489.863	353.79
490.072	5.63
490.281	151.04
490.49	-299.52
490.698	345.59
490.907	388.6
491.116	-174.59
491.325	-371.19
491.534	353.79
491.743	73.21
491.952	-104.96
492.16	-178.69
492.369	122.37
492.578	302.59
492.787	-123.39
492.996	-375.29
493.204	-145.92
493.413	427.51
493.622	-469.5
493.831	-457.21
494.039	349.69
494.248	-211.45
494.457	-346.62
494.665	-444.92
494.874	124.41
495.083	458.23
495.291	-203.26
495.5	-410.11
495.709	216.57
495.917	101.89
496.126	-119.29
496.335	-270.84
496.543	-72.19
496.752	79.36
496.96	46.59
497.169	-358.91
497.377	30.21
497.586	212.48
497.794	-168.45
498.003	-473.59
498.211	38.4
498.42	427.51
498.628	-211.45
498.837	-354.81
499.045	146.94
499.254	30.21
499.462	-264.7
499.671	-317.95
499.879	468.47
500.087	298.49
500.296	-307.71
500.504	-207.36
500.713	67.07
500.921	546.3
501.129	-250.36
501.338	-291.32
501.546	126.46
501.754	38.4
501.962	-317.95
502.171	-383.48
502.379	128.51
502.587	394.75
502.795	-201.21
503.004	-272.89
503.212	32.26
503.42	284.16
503.628	-268.8
503.837	-203.26
504.045	179.71
504.253	323.07
504.461	-315.9
504.669	-453.11
504.877	198.14
505.085	388.6
505.294	-334.33
505.502	-100.86
505.71	56.83
505.918	263.68
506.126	-332.28
506.334	-324.09
506.542	-49.66
506.75	153.09
506.958	-186.88
507.166	-293.37
507.374	-137.73
507.582	540.15
507.79	-182.78
507.998	-326.14
508.206	202.24
508.414	122.37
508.622	-346.62
508.83	-334.33
509.037	392.7
509.245	-94.72
509.453	-317.95
509.661	-399.87
509.869	144.89
510.077	-61.95
510.285	-147.97
510.492	-557.56
510.7	570.87
510.908	-72.19
511.116	-233.98
511.324	-268.8
511.531	-74.24
511.739	194.05
511.947	-139.77
512.155	-49.66
512.362	124.41
512.57	-301.56
512.778	-367.1
512.985	-446.97
513.193	212.48
513.401	282.11
513.608	-238.08
513.816	-289.28
514.024	112.13
514.231	298.49
514.439	-254.46
514.646	-326.14
514.854	278.01
515.061	316.92
515.269	-262.65
515.477	-281.08
515.684	-217.6
515.892	257.53
516.099	-416.25
516.307	-537.08
516.514	208.38
516.722	437.75
516.929	-264.7
517.136	-320
517.344	413.18
517.551	202.24
517.759	-297.47
517.966	-252.41
518.173	-76.29
518.381	34.3
518.588	-203.26
518.796	-346.62
519.003	204.28
519.21	38.4
519.418	-295.42
519.625	-12.8
519.832	-113.15
520.039	77.31
520.247	-465.4
520.454	-350.71
520.661	181.76
520.868	146.94
521.076	-264.7
521.283	-227.84
521.49	585.21
521.697	46.59
521.904	-250.36
522.112	-213.5
522.319	249.34
522.526	189.95
522.733	-348.67
522.94	-266.75
523.147	81.41
523.354	169.47
523.561	-469.5
523.768	-182.78
523.975	284.16
524.183	50.69
524.39	-223.74
524.597	-414.2
524.804	-18.94
525.011	-117.25
525.218	-268.8
525.425	-332.28
525.632	327.16
525.838	-109.05
526.045	-313.85
526.252	-266.75
526.459	1064.43
526.666	894.45
526.873	-322.04
527.08	-262.65
527.287	366.07
527.494	200.19
527.701	-383.48
527.907	-279.04
528.114	185.85
528.321	54.78
528.528	-289.28
528.735	-426.49
528.941	-31.23
529.148	-119.29
529.355	-182.78
529.562	-268.8
529.768	511.48
529.975	-55.81
530.182	-207.36
530.388	-330.23
530.595	218.62
530.802	-182.78
531.008	-61.95
531.215	-289.28
531.422	460.28
531.628	679.41
531.835	-170.49
532.042	-264.7
532.248	-104.96
532.455	99.84
532.661	-248.32
532.868	-350.71
533.074	77.31
533.281	282.11
533.487	-248.32
533.694	-295.42
533.9	-252.41
534.107	110.08
534.313	-377.34
534.52	-317.95
534.726	192
534.933	486.9
535.139	-356.86
535.345	-410.11
535.552	99.84
535.758	54.78
535.965	-205.31
536.171	-322.04
536.377	198.14
536.584	437.75
536.79	-252.41
536.996	-215.55
537.203	140.8
537.409	200.19
537.615	-227.84
537.821	-39.42
538.028	251.39
538.234	230.91
538.44	-244.22
538.646	-125.44
538.853	148.99
539.059	-23.04
539.265	177.66
539.471	-494.07
539.677	235
539.883	-37.38
540.09	-285.18
540.296	167.42
540.502	-2.56
540.708	-121.34
540.914	-166.4
541.12	-221.69
541.326	284.16
541.532	13.82
541.738	-168.45
541.944	-162.3
542.15	294.4
542.356	1.54
542.562	-320
542.768	-229.88
542.974	622.07
543.18	587.26
543.386	-244.22
543.592	-469.5
543.798	447.99
544.004	296.44
544.21	-233.98
544.415	-129.53
544.621	95.74
544.827	314.88
545.033	-266.75
545.239	34.3
545.445	-186.88
545.651	54.78
545.856	-248.32
546.062	-209.4
546.268	-31.23
546.474	36.35
546.679	-256.51
546.885	-203.26
547.091	-100.86
547.297	572.92
547.502	-197.12
547.708	-383.48
547.914	-231.93
548.119	224.76
548.325	-326.14
548.531	-399.87
548.736	456.19
548.942	-137.73
549.147	-317.95
549.353	-47.62
549.559	312.83
549.764	185.85
549.97	-231.93
550.175	-252.41
550.381	235
550.586	-68.09
550.792	-217.6
550.997	-285.18
551.203	202.24
551.408	179.71
551.614	-410.11
551.819	-256.51
552.025	386.55
552.23	439.8
552.435	-285.18
552.641	-6.66
552.846	-119.29
553.052	271.87
553.257	-100.86
553.462	-211.45
553.668	-170.49
553.873	288.25
554.078	-293.37
554.283	-281.08
554.489	30.21
554.694	-4.61
554.899	-309.76
555.105	-102.91
555.31	212.48
555.515	189.95
555.72	-180.73
555.925	-348.67
556.131	140.8
556.336	-94.72
556.541	-240.12
556.746	-291.32
556.951	404.99
557.156	402.94
557.361	-104.96
557.567	-145.92
557.772	548.34
557.977	257.53
558.182	-219.64
558.387	-262.65
558.592	-61.95
558.797	282.11
559.002	-104.96
559.207	-107.01
559.412	65.02
559.617	542.2
559.822	-336.38
560.027	-342.52
560.232	165.37
560.437	230.91
560.642	-365.05
560.847	-274.94
561.051	110.08
561.256	95.74
561.461	-178.69
561.666	-322.04
561.871	97.79
562.076	265.72
562.281	-211.45
562.485	-301.56
562.69	167.42
562.895	296.44
563.1	-258.56
563.305	-293.37
563.509	413.18
563.714	632.31
563.919	-244.22
564.123	-231.93
564.328	73.21
564.533	366.07
564.737	-156.16
564.942	-211.45
565.147	374.27
565.351	501.24
565.556	-143.87
565.761	-182.78
565.965	157.18
566.17	-139.77
566.374	-131.58
566.579	-219.64
566.784	116.22
566.988	-84.48
567.193	-334.33
567.397	-264.7
567.602	-215.55
567.806	77.31
568.011	-291.32
568.215	-145.92
568.42	11.78
568.624	-53.76
568.828	-236.03
569.033	-14.85
569.237	269.82
569.442	271.87
569.646	-346.62
569.85	-205.31
570.055	22.02
570.259	120.32
570.463	-14.85
570.668	-236.03
570.872	69.12
571.076	5.63
571.281	-61.95
571.485	-143.87
571.689	112.13
571.893	241.15
572.098	17.92
572.302	-217.6
572.506	271.87
572.71	83.45
572.914	-188.93
573.119	-180.73
573.323	472.57
573.527	435.71
573.731	-158.21
573.935	-248.32
574.139	204.28
574.343	-74.24
574.547	-119.29
574.751	-176.64
574.955	386.55
575.159	421.37
575.364	-190.97
575.568	-268.8
575.772	105.98
575.976	361.98
576.18	-223.74
576.383	-369.15
576.587	310.78
576.791	298.49
576.995	-358.91
577.199	-352.76
577.403	267.77
577.607	499.19
577.811	-289.28
578.015	-45.57
578.219	67.07
578.422	327.16
578.626	-129.53
578.83	42.5
579.034	417.27
579.238	204.28
579.442	-203.26
579.645	224.76
579.849	181.76
580.053	226.81
580.257	-172.54
580.46	-102.91
580.664	314.88
580.868	259.58
581.071	-25.09
581.275	-55.81
581.479	-143.87
581.682	333.31
581.886	-225.79
582.09	-47.62
582.293	312.83
582.497	341.5
582.7	38.4
582.904	-233.98
583.107	198.14
583.311	7.68
583.515	-55.81
583.718	-104.96
583.922	275.96
584.125	505.34
584.329	-215.55
584.532	11.78
584.735	513.53
584.939	288.25
585.142	-332.28
585.346	-186.88
585.549	210.43
585.753	-64
585.956	-119.29
586.159	22.02
586.363	534.01
586.566	304.64
586.769	-225.79
586.973	-240.12
587.176	280.06
587.379	337.4
587.582	148.99
587.786	132.61
587.989	181.76
588.192	720.37
588.395	-45.57
588.599	146.94
588.802	230.91
589.005	275.96
589.208	-55.81
589.411	-129.53
589.615	388.6
589.818	593.4
590.021	185.85
590.224	-61.95
590.427	407.03
590.63	267.77
590.833	-320
591.036	-125.44
591.239	148.99
591.442	11.78
591.645	42.5
591.848	-121.34
592.051	198.14
592.254	386.55
592.457	-119.29
592.66	-12.8
592.863	148.99
593.066	218.62
593.269	-59.9
593.472	32.26
593.675	-72.19
593.878	404.99
594.081	44.54
594.284	-199.16
594.486	357.88
594.689	222.72
594.892	46.59
595.095	-57.86
595.298	316.92
595.5	79.36
595.703	13.82
595.906	120.32
596.109	550.39
596.311	425.47
596.514	-338.43
596.717	-0.51
596.92	435.71
597.122	302.59
597.325	-303.61
597.528	-82.43
597.73	550.39
597.933	169.47
598.136	-20.99
598.338	-301.56
598.541	376.31
598.743	497.14
598.946	-94.72
599.148	-66.05
599.351	462.33
599.554	400.89
599.756	22.02
599.959	-64
600.161	421.37
600.363	775.67
600.566	136.7
600.768	-61.95
600.971	607.73
601.173	454.14
601.376	-41.47
601.578	-47.62
601.78	310.78
601.983	837.11
602.185	-145.92
602.388	159.23
602.59	323.07
602.792	91.65
602.995	181.76
603.197	-39.42
603.399	386.55
603.601	325.12
603.804	-27.14
604.006	1.54
604.208	103.93
604.41	-184.83
604.613	157.18
604.815	-92.67
605.017	837.11
605.219	93.69
605.421	366.07
605.623	-92.67
605.826	564.73
606.028	613.88
606.23	-16.9
606.432	-80.38
606.634	628.21
606.836	564.73
607.038	-113.15
607.24	105.98
607.442	263.68
607.644	282.11
607.846	99.84
608.048	-135.68
608.25	568.82
608.452	54.78
608.654	56.83
608.856	-252.41
609.058	194.05
609.26	300.54
609.462	128.51
609.664	11.78
609.866	749.04
610.067	486.9
610.269	142.85
610.471	77.31
610.673	200.19
610.875	359.93
611.077	-109.05
611.278	194.05
611.48	267.77
611.682	603.64
611.884	175.61
612.085	58.88
612.287	54.78
612.489	447.99
612.69	-152.06
612.892	22.02
613.094	570.87
613.295	331.26
613.497	26.11
613.699	28.16
613.9	689.65
614.102	509.43
614.304	93.69
614.505	-127.49
614.707	296.44
614.908	312.83
615.11	-145.92
615.311	112.13
615.513	402.94
615.714	493.05
615.916	-37.38
616.117	116.22
616.319	237.05
616.52	427.51
616.722	9.73
616.923	1.54
617.124	521.72
617.326	425.47
617.527	148.99
617.729	347.64
617.93	468.47
618.131	468.47
618.333	99.84
618.534	116.22
618.735	161.28
618.937	730.61
619.138	-47.62
619.339	-47.62
619.54	433.66
619.742	366.07
619.943	173.57
620.144	54.78
620.345	632.31
620.546	579.06
620.748	13.82
620.949	103.93
621.15	386.55
621.351	464.38
621.552	67.07
621.753	-111.1
621.954	9.73
622.155	865.78
622.356	13.82
622.558	228.86
622.759	421.37
622.96	841.2
623.161	130.56
623.362	34.3
623.563	300.54
623.764	443.9
623.965	120.32
624.166	280.06
624.366	312.83
624.567	431.61
624.768	-223.74
624.969	-14.85
625.17	327.16
625.371	525.82
625.572	269.82
625.773	-49.66
625.973	583.16
626.174	550.39
626.375	212.48
626.576	192
626.777	450.04
626.977	861.68
627.178	118.27
627.379	253.44
627.58	218.62
627.78	431.61
627.981	159.23
628.182	286.2
628.382	617.97
628.583	79.36
628.784	1.54
628.984	300.54
629.185	632.31
629.386	601.59
629.586	208.38
629.787	116.22
629.987	620.02
630.188	394.75
630.388	93.69
630.589	163.33
630.79	984.56
630.99	452.09
631.191	214.52
631.391	331.26
631.591	601.59
631.792	830.96
631.992	353.79
632.193	175.61
632.393	873.97
632.594	325.12
632.794	206.33
632.994	298.49
633.195	347.64
633.395	534.01
633.595	255.48
633.796	486.9
633.996	202.24
634.196	691.7
634.397	65.02
634.597	243.2
634.797	316.92
634.997	822.77
635.198	423.42
635.398	167.42
635.598	474.62
635.798	763.38
635.998	503.29
636.199	157.18
636.399	339.45
636.599	235
636.799	200.19
636.999	529.91
637.199	597.49
637.399	706.04
637.599	159.23
637.799	347.64
637.999	300.54
638.199	796.15
638.399	91.65
638.599	177.66
638.799	566.78
638.999	912.88
639.199	402.94
639.399	370.17
639.599	826.87
639.799	179.71
639.999	144.89
640.199	108.03
640.399	591.35
640.599	542.2
640.799	296.44
640.998	355.83
641.198	830.96
641.398	683.51
641.598	302.59
641.798	257.53
641.997	1510.89
642.197	476.66
642.397	368.12
642.597	212.48
642.796	658.93
642.996	841.2
643.196	374.27
643.395	202.24
643.595	574.97
643.795	161.28
643.994	257.53
644.194	292.35
644.394	730.61
644.593	503.29
644.793	136.7
644.992	398.84
645.192	677.37
645.392	169.47
645.591	435.71
645.791	275.96
645.99	632.31
646.19	441.85
646.389	366.07
646.589	267.77
646.788	648.69
646.987	579.06
647.187	632.31
647.386	431.61
647.586	486.9
647.785	708.09
647.984	329.21
648.184	343.55
648.383	570.87
648.582	445.95
648.782	273.92
648.981	433.66
649.18	421.37
649.38	628.21
649.579	361.98
649.778	222.72
649.977	667.13
650.177	648.69
650.376	239.1
650.575	265.72
650.774	927.22
650.973	423.42
651.173	153.09
651.372	329.21
651.571	658.93
651.77	837.11
651.969	409.08
652.168	345.59
652.367	310.78
652.566	695.8
652.765	224.76
652.964	677.37
653.163	1017.33
653.362	634.36
653.561	357.88
653.76	304.64
653.959	558.58
654.158	718.33
654.357	488.95
654.556	345.59
654.755	703.99
654.954	722.42
655.153	402.94
655.352	480.76
655.551	886.26
655.749	462.33
655.948	435.71
656.147	394.75
656.346	689.65
656.545	556.54
656.743	441.85
656.942	429.56
657.141	685.56
657.34	427.51
657.538	507.38
657.737	466.42
657.936	402.94
658.135	740.85
658.333	353.79
658.532	564.73
658.731	1017.33
658.929	796.15
659.128	697.85
659.326	321.02
659.525	968.18
659.724	624.12
659.922	142.85
660.121	280.06
660.319	751.09
660.518	390.65
660.716	228.86
660.915	298.49
661.113	968.18
661.312	437.75
661.51	667.13
661.709	441.85
661.907	769.52
662.105	1046
662.304	402.94
662.502	521.72
662.701	945.65
662.899	613.88
663.097	886.26
663.296	361.98
663.494	896.5
663.692	1068.53
663.891	394.75
664.089	361.98
664.287	804.34
664.485	1011.18
664.684	355.83
664.882	648.69
665.08	697.85
665.278	722.42
665.476	288.25
665.675	773.62
665.873	1185.26
666.071	996.85
666.269	507.38
666.467	677.37
666.665	677.37
666.863	632.31
667.061	685.56
667.259	566.78
667.457	732.66
667.655	859.63
667.853	284.16
668.051	542.2
668.249	542.2
668.447	937.46
668.645	314.88
668.843	570.87
669.041	964.08
669.239	634.36
669.437	615.93
669.635	681.46
669.833	652.79
670.031	865.78
670.229	603.64
670.426	525.82
670.624	697.85
670.822	497.14
671.02	503.29
671.218	644.6
671.415	642.55
671.613	779.76
671.811	693.75
672.009	552.44
672.206	886.26
672.404	771.57
672.602	759.28
672.799	798.2
672.997	900.59
673.195	1033.71
673.392	681.46
673.59	450.04
673.788	1009.14
673.985	218.62
674.183	695.8
674.38	542.2
674.578	923.12
674.775	603.64
674.973	437.75
675.17	497.14
675.368	1140.21
675.565	896.5
675.763	544.25
675.96	488.95
676.158	1119.73
676.355	710.13
676.553	480.76
676.75	558.58
676.947	869.87
677.145	730.61
677.342	648.69
677.539	753.14
677.737	833.01
677.934	1314.28
678.131	779.76
678.329	560.63
678.526	1269.23
678.723	941.55
678.92	648.69
679.118	589.3
679.315	574.97
679.512	1230.32
679.709	603.64
679.906	738.8
680.104	1168.88
680.301	744.95
680.498	505.34
680.695	564.73
680.892	615.93
681.089	806.39
681.286	810.48
681.483	452.09
681.68	1080.82
681.877	1070.58
682.075	703.99
682.272	787.96
682.469	837.11
682.665	742.9
682.862	568.82
683.059	501.24
683.256	884.21
683.453	906.74
683.65	703.99
683.847	626.17
684.044	828.92
684.241	708.09
684.438	763.38
684.635	531.96
684.831	1336.81
685.028	1422.83
685.225	589.3
685.422	849.4
685.619	751.09
685.815	912.88
686.012	775.67
686.209	560.63
686.405	683.51
686.602	1031.66
686.799	550.39
686.996	611.83
687.192	617.97
687.389	1443.31
687.586	605.69
687.782	652.79
687.979	1220.08
688.175	1066.48
688.372	706.04
688.568	675.32
688.765	945.65
688.962	1254.89
689.158	787.96
689.355	482.81
689.551	1086.96
689.748	957.94
689.944	808.44
690.14	529.91
690.337	1017.33
690.533	798.2
690.73	923.12
690.926	738.8
691.123	1013.23
691.319	896.5
691.515	591.35
691.712	904.69
691.908	1134.06
692.104	1048.05
692.301	828.92
692.497	620.02
692.693	1064.43
692.889	1076.72
693.086	857.59
693.282	507.38
693.478	972.27
693.674	1369.58
693.87	798.2
694.067	577.02
694.263	986.61
694.459	931.31
694.655	865.78
694.851	806.39
695.047	1181.17
695.243	1201.65
695.439	882.16
695.635	812.53
695.831	1041.9
696.027	1101.3
696.224	822.77
696.42	992.75
696.615	1261.04
696.811	984.56
697.007	560.63
697.203	822.77
697.399	1052.14
697.595	1189.36
697.791	701.94
697.987	929.27
698.183	794.1
698.379	814.58
698.575	728.56
698.77	835.06
698.966	1322.48
699.162	1267.18
699.358	947.7
699.554	781.81
699.749	1230.32
699.945	1224.17
700.141	861.68
700.337	904.69
700.532	1052.14
700.728	806.39
700.924	769.52
701.119	724.47
701.315	1166.83
701.511	1005.04
701.706	871.92
701.902	644.6
702.097	1041.9
702.293	1093.1
702.489	841.2
702.684	867.83
702.88	1013.23
703.075	894.45
703.271	869.87
703.466	787.96
703.662	1080.82
703.857	1191.41
704.053	751.09
704.248	869.87
704.443	1193.45
704.639	1185.26
704.834	884.21
705.03	787.96
705.225	1191.41
705.42	1320.43
705.616	939.51
705.811	804.34
706.006	1013.23
706.202	988.66
706.397	1027.57
706.592	687.61
706.787	1127.92
706.983	1125.87
707.178	1099.25
707.373	921.07
707.568	1195.5
707.763	1238.51
707.959	736.76
708.154	816.63
708.349	1152.49
708.544	1220.08
708.739	1140.21
708.934	740.85
709.129	1242.61
709.324	1261.04
709.519	861.68
709.714	777.72
709.909	1369.58
710.104	1267.18
710.299	869.87
710.494	910.83
710.689	1283.56
710.884	1115.63
711.079	1052.14
711.274	1195.5
711.469	1199.6
711.664	1134.06
711.859	914.93
712.054	1064.43
712.249	1234.41
712.443	1373.68
712.638	785.91
712.833	878.07
713.028	1084.91
713.223	1039.86
713.417	1107.44
713.612	988.66
713.807	1318.38
714.002	1762.79
714.196	1041.9
714.391	957.94
714.586	1467.88
714.78	1175.02
714.975	945.65
715.17	964.08
715.364	1089.01
715.559	1353.2
715.754	611.83
715.948	896.5
716.143	1580.52
716.337	1170.93
716.532	1263.08
716.726	953.84
716.921	1299.95
717.115	1658.34
717.31	824.82
717.504	1510.89
717.699	1011.18
717.893	1338.86
718.088	857.59
718.282	861.68
718.476	1254.89
718.671	1246.7
718.865	914.93
719.059	959.99
719.254	1287.66
719.448	1547.75
719.642	2229.73
719.837	814.58
720.031	1390.06
720.225	1439.21
720.419	1142.25
720.614	966.13
720.808	1345
721.002	1148.4
721.196	851.44
721.39	949.75
721.585	1488.36
721.779	1410.54
721.973	890.35
722.167	828.92
722.361	1197.55
722.555	1478.12
722.749	962.03
722.943	849.4
723.137	949.75
723.331	1279.47
723.525	1035.76
723.719	908.79
723.913	1256.94
724.107	1529.32
724.301	714.23
724.495	1082.86
724.689	1668.58
724.883	1504.75
725.077	1021.42
725.271	921.07
725.465	1527.27
725.659	1334.76
725.853	1062.38
726.046	888.31
726.24	1058.29
726.434	1519.08
726.628	945.65
726.822	1142.25
727.015	1635.82
727.209	1508.84
727.403	1058.29
727.596	912.88
727.79	1486.31
727.984	1467.88
728.177	1007.09
728.371	1002.99
728.565	1480.17
728.758	959.99
728.952	1019.38
729.146	921.07
729.339	1555.94
729.533	1283.56
729.726	1095.15
729.92	951.79
730.113	1713.64
730.307	1508.84
730.5	1107.44
730.694	1002.99
730.887	1172.97
731.081	1435.11
731.274	953.84
731.468	1009.14
731.661	1222.13
731.854	1213.93
732.048	1197.55
732.241	1005.04
732.435	1111.54
732.628	1342.96
732.821	1011.18
733.014	1033.71
733.208	1091.06
733.401	1469.93
733.594	1041.9
733.788	1041.9
733.981	1697.25
734.174	1289.71
734.367	1095.15
734.56	1207.79
734.754	1578.47
734.947	1254.89
735.14	1007.09
735.333	1177.07
735.526	1506.79
735.719	1256.94
735.912	1103.34
736.105	1080.82
736.298	1377.77
736.491	1308.14
736.684	1019.38
736.877	1093.1
737.07	1541.61
737.263	1623.53
737.456	1115.63
737.649	1129.97
737.842	1263.08
738.035	1416.68
738.228	1261.04
738.421	1306.09
738.614	1582.57
738.807	1529.32
739	921.07
739.192	1058.29
739.385	1451.5
739.578	1502.7
739.771	1426.92
739.964	1179.12
740.156	1537.51
740.349	1279.47
740.542	1361.39
740.735	1023.47
740.927	1066.48
741.12	1213.93
741.313	1072.62
741.505	1269.23
741.698	1480.17
741.891	1506.79
742.083	1201.65
742.276	1050.1
742.468	1431.02
742.661	1342.96
742.854	1127.92
743.046	1027.57
743.239	1670.63
743.431	1402.35
743.624	1226.22
743.816	919.03
744.009	1302
744.201	1492.46
744.393	1353.2
744.586	1086.96
744.778	1758.69
744.971	1435.11
745.163	1142.25
745.355	1320.43
745.548	1416.68
745.74	1383.91
745.932	1218.03
746.125	1228.27
746.317	1994.21
746.509	1490.41
746.702	1289.71
746.894	1336.81
747.086	1578.47
747.278	1785.32
747.471	1351.15
747.663	1330.67
747.855	1420.78
748.047	1820.13
748.239	1203.69
748.431	1232.37
748.623	1961.44
748.815	1844.71
749.008	1066.48
749.2	1132.01
749.392	1727.97
749.584	1590.76
749.776	1377.77
749.968	1261.04
750.16	1838.56
750.352	1433.07
750.544	1302
750.736	1142.25
750.928	1523.18
751.12	1308.14
751.311	1285.61
751.503	1156.59
751.695	1654.25
751.887	1484.27
752.079	1046
752.271	1203.69
752.463	2389.47
752.654	1775.08
752.846	1263.08
753.038	1134.06
753.23	1353.2
753.421	1666.53
753.613	1205.74
753.805	1500.65
753.997	1748.45
754.188	1588.71
754.38	1140.21
754.572	1205.74
754.763	1484.27
754.955	1533.42
755.146	1428.97
755.338	1302
755.53	1609.19
755.721	1476.07
755.913	1074.67
756.104	1193.45
756.296	1480.17
756.487	1705.45
756.679	1144.3
756.87	1193.45
757.062	1445.35
757.253	1678.82
757.445	1234.41
757.636	1316.33
757.827	1517.03
758.019	2069.98
758.21	1134.06
758.401	1342.96
758.593	2139.62
758.784	1879.52
758.975	1086.96
759.167	1140.21
759.358	1506.79
759.549	1762.79
759.74	1258.99
759.932	1279.47
760.123	1836.52
760.314	1459.69
760.505	1412.59
760.696	1236.46
760.888	1977.83
761.079	1443.31
761.27	1205.74
761.461	1107.44
761.652	1975.78
761.843	1504.75
762.034	1375.72
762.225	1637.86
762.416	1557.99
762.607	1494.51
762.798	1316.33
762.989	1295.85
763.18	2254.3
763.371	1566.18
763.562	1353.2
763.753	1279.47
763.944	1791.46
764.135	1777.12
764.326	1394.15
764.517	1410.54
764.708	1631.72
764.899	1811.94
765.089	1267.18
765.28	1052.14
765.471	1529.32
765.662	1740.26
765.853	1488.36
766.043	1213.93
766.234	1697.25
766.425	1750.5
766.615	1322.48
766.806	1185.26
766.997	1799.65
767.187	1656.29
767.378	1328.62
767.569	1166.83
767.759	1705.45
767.95	1578.47
768.141	1422.83
768.331	1285.61
768.522	1523.18
768.712	1881.57
768.903	1279.47
769.093	1265.13
769.284	2014.69
769.474	1557.99
769.665	1082.86
769.855	1185.26
770.046	1885.67
770.236	1420.78
770.426	1514.98
770.617	1312.24
770.807	1664.49
770.998	1574.38
771.188	1467.88
771.378	1258.99
771.569	1633.77
771.759	1740.26
771.949	1187.31
772.139	1123.82
772.33	1586.66
772.52	1996.26
772.71	1273.32
772.9	1136.11
773.09	2008.55
773.281	1918.43
773.471	1236.46
773.661	1410.54
773.851	1707.49
774.041	1551.85
774.231	1295.85
774.421	1484.27
774.611	2004.45
774.802	1615.34
774.992	1385.96
775.182	1185.26
775.372	1633.77
775.562	1775.08
775.752	1312.24
775.942	1281.52
776.131	1969.63
776.321	1644.01
776.511	1345
776.701	1379.82
776.891	1850.85
777.081	1320.43
777.271	1506.79
777.461	1306.09
777.651	1789.41
777.84	1861.09
778.03	1435.11
778.22	1345
778.41	1947.11
778.599	1414.63
778.789	1459.69
778.979	1291.76
779.169	1680.87
779.358	1553.9
779.548	1590.76
779.738	1238.51
779.927	1699.3
780.117	1494.51
780.307	1514.98
780.496	1207.79
780.686	1633.77
780.875	2078.18
781.065	1355.24
781.254	1144.3
781.444	1525.22
781.633	1648.1
781.823	1283.56
782.012	1218.03
782.202	1517.03
782.391	1574.38
782.581	1179.12
782.77	1590.76
782.96	1760.74
783.149	1525.22
783.338	1283.56
783.528	1121.77
783.717	1838.56
783.906	1770.98
784.096	1525.22
784.285	1224.17
784.474	1490.41
784.663	1398.25
784.853	1461.74
785.042	1410.54
785.231	1478.12
785.42	1844.71
785.61	1365.48
785.799	1238.51
785.988	1496.55
786.177	1598.95
786.366	1369.58
786.555	1451.5
786.744	1775.08
786.933	1629.67
787.122	1328.62
787.312	1144.3
787.501	1465.83
787.69	1797.6
787.879	1271.28
788.068	1308.14
788.257	1418.73
788.445	1584.62
788.634	1388.01
788.823	1308.14
789.012	2196.96
789.201	1867.24
789.39	1404.39
789.579	1279.47
789.768	1547.75
789.957	1738.21
790.145	1332.72
790.334	1160.69
790.523	1660.39
790.712	1484.27
790.9	1469.93
791.089	1205.74
791.278	1861.09
791.467	1734.12
791.655	1691.11
791.844	1920.48
792.033	1557.99
792.221	1574.38
792.41	1326.57
792.599	1218.03
792.787	1820.13
792.976	1828.32
793.164	1361.39
793.353	1220.08
793.541	1725.93
793.73	1717.73
793.918	1463.79
794.107	1402.35
794.295	1562.09
794.484	1732.07
794.672	1424.87
794.861	1357.29
795.049	1879.52
795.238	1904.1
795.426	1328.62
795.614	1467.88
795.803	1631.72
795.991	2004.45
796.179	1353.2
796.368	1365.48
796.556	1902.05
796.744	1404.39
796.932	1406.44
797.121	1291.76
797.309	1594.86
797.497	1994.21
797.685	1398.25
797.874	1408.49
798.062	1646.05
798.25	1953.25
798.438	1365.48
798.626	1347.05
798.814	1859.04
799.002	2192.86
799.19	1453.55
799.378	1514.98
799.566	1912.29
799.755	2182.62
799.943	1598.95
800.131	1295.85
800.318	1752.55
800.506	1893.86
800.694	1455.59
800.882	1588.71
801.07	2088.42
801.258	1662.44
801.446	1361.39
801.634	1336.81
801.822	1664.49
802.01	1707.49
802.197	1394.15
802.385	1619.43
802.573	1754.6
802.761	1611.24
802.949	1594.86
803.136	1271.28
803.324	1988.07
803.512	1734.12
803.699	1578.47
803.887	1408.49
804.075	2147.81
804.262	1674.73
804.45	1326.57
804.638	1568.23
804.825	1488.36
805.013	1621.48
805.201	1553.9
805.388	1418.73
805.576	1813.99
805.763	2057.7
805.951	1474.03
806.138	1682.92
806.326	2151.9
806.513	1818.08
806.701	1525.22
806.888	1504.75
807.075	1920.48
807.263	2264.54
807.45	1449.45
807.638	1635.82
807.825	2239.97
808.012	2069.98
808.2	1465.83
808.387	1758.69
808.574	1926.63
808.761	2225.63
808.949	1469.93
809.136	1672.68
809.323	1777.12
809.51	1865.19
809.698	1930.72
809.885	1580.52
810.072	1885.67
810.259	2106.85
810.446	1660.39
810.633	1601
810.82	2127.33
811.008	2313.69
811.195	1824.23
811.382	1629.67
811.569	2008.55
811.756	1656.29
811.943	1662.44
812.13	1707.49
812.317	1799.65
812.504	1713.64
812.691	1748.45
812.878	1672.68
813.064	2301.4
813.251	1848.8
813.438	1418.73
813.625	1703.4
813.812	1893.86
813.999	1801.7
814.186	1684.97
814.372	1660.39
814.559	1820.13
814.746	2258.4
814.933	1611.24
815.12	1826.28
815.306	1689.06
815.493	1811.94
815.68	1541.61
815.866	1730.02
816.053	2332.12
816.24	2418.14
816.426	1601
816.613	1582.57
816.799	2168.29
816.986	2266.59
817.173	1709.54
817.359	1570.28
817.546	1992.16
817.732	1543.66
817.919	1340.91
818.105	1797.6
818.292	1861.09
818.478	2129.38
818.665	1797.6
818.851	1527.27
819.037	2444.76
819.224	2029.03
819.41	1543.66
819.597	1611.24
819.783	2401.76
819.969	2067.94
820.156	1754.6
820.342	1496.55
820.528	2723.29
820.714	1910.24
820.901	1887.72
821.087	1660.39
821.273	2323.93
821.459	1799.65
821.646	1598.95
821.832	1568.23
822.018	1994.21
822.204	1996.26
822.39	1781.22
822.576	1631.72
822.762	1975.78
822.948	2086.37
823.134	1910.24
823.32	1828.32
823.507	1644.01
823.693	1943.01
823.879	2065.89
824.065	1607.14
824.25	2012.64
824.436	1691.11
824.622	1678.82
824.808	1656.29
824.994	1852.9
825.18	1717.73
825.366	1529.32
825.552	1687.01
825.738	1910.24
825.923	2145.76
826.109	2074.08
826.295	1672.68
826.481	1797.6
826.667	1900
826.852	2008.55
827.038	1603.05
827.224	2170.33
827.409	2387.42
827.595	1572.33
827.781	1900
827.966	2135.52
828.152	2233.82
828.338	1723.88
828.523	1613.29
828.709	1846.76
828.894	2289.12
829.08	1730.02
829.266	1623.53
829.451	1863.14
829.637	2112.99
829.822	1750.5
830.008	1676.77
830.193	2190.81
830.378	2301.4
830.564	1820.13
830.749	1551.85
830.935	2022.88
831.12	2172.38
831.305	1586.66
831.491	1789.41
831.676	1754.6
831.861	2092.51
832.047	1736.17
832.232	1562.09
832.417	2143.71
832.602	2065.89
832.788	1627.62
832.973	1666.53
833.158	1779.17
833.343	2074.08
833.528	1881.57
833.714	1746.41
833.899	2127.33
834.084	2407.9
834.269	1842.66
834.454	1656.29
834.639	2098.66
834.824	2004.45
835.009	1787.36
835.194	1854.95
835.379	2196.96
835.564	2383.32
835.749	1713.64
835.934	1586.66
836.119	2094.56
836.304	2072.03
836.489	1742.31
836.674	2045.41
836.859	1801.7
837.044	2323.93
837.228	1734.12
837.413	1529.32
837.598	2010.59
837.783	2264.54
837.968	1746.41
838.152	1584.62
838.337	1582.57
838.522	2278.88
838.707	2203.1
838.891	1799.65
839.076	1994.21
839.261	2199.01
839.445	1658.34
839.63	1746.41
839.815	2428.38
839.999	2022.88
840.184	1727.97
840.368	1811.94
840.553	2323.93
840.737	2194.91
840.922	1560.04
841.106	1504.75
841.291	1748.45
841.475	1983.97
841.66	1664.49
841.844	1779.17
842.029	2735.57
842.213	1656.29
842.397	1719.78
842.582	1557.99
842.766	2311.64
842.951	2196.96
843.135	1822.18
843.319	1779.17
843.504	2137.57
843.688	2158.05
843.872	1566.18
844.056	1596.9
844.241	2088.42
844.425	1895.91
844.609	1861.09
844.793	1512.94
844.977	2299.36
845.161	2072.03
845.346	1639.91
845.53	1725.93
845.714	1893.86
845.898	2446.81
846.082	1480.17
846.266	1725.93
846.45	1934.82
846.634	2051.55
846.818	1654.25
847.002	1902.05
847.186	2108.9
847.37	1754.6
847.554	1582.57
847.738	1863.14
847.922	2004.45
848.106	2026.98
848.29	1631.72
848.473	1539.56
848.657	2123.23
848.841	1893.86
849.025	1650.15
849.209	1609.19
849.392	2117.09
849.576	1914.34
849.76	1431.02
849.944	1736.17
850.127	2272.73
850.311	1711.59
850.495	1494.51
850.678	1607.14
850.862	2330.08
851.046	2282.97
851.229	1945.06
851.413	1670.63
851.596	2037.22
851.78	1897.96
851.964	1842.66
852.147	1736.17
852.331	2774.49
852.514	2360.8
852.698	1910.24
852.881	1644.01
853.065	2266.59
853.248	2012.64
853.431	1861.09
853.615	1713.64
853.798	2457.05
853.982	2000.35
854.165	1863.14
854.348	1691.11
854.532	1791.46
854.715	1848.8
854.898	1801.7
855.081	1715.69
855.265	2229.73
855.448	2430.43
855.631	1639.91
855.814	1709.54
855.997	2315.74
856.181	1875.43
856.364	1850.85
856.547	1535.46
856.73	2129.38
856.913	1979.87
857.096	1650.15
857.279	1811.94
857.462	1824.23
857.645	2127.33
857.828	1816.04
858.011	1836.52
858.194	1801.7
858.377	2233.82
858.56	1566.18
858.743	1717.73
858.926	1705.45
859.109	2010.59
859.292	1619.43
859.475	1639.91
859.658	2278.88
859.841	2108.9
860.023	1500.65
860.206	1635.82
860.389	2053.6
860.572	2381.28
860.755	1684.97
860.937	1689.06
861.12	1803.75
861.303	1934.82
861.486	1738.21
861.668	1437.16
861.851	2123.23
862.034	2178.53
862.216	1867.24
862.399	1586.66
862.581	2203.1
862.764	2139.62
862.947	1723.88
863.129	1586.66
863.312	1697.25
863.494	2295.26
863.677	2110.94
863.859	1537.51
864.042	2041.31
864.224	2207.2
864.406	1717.73
864.589	1543.66
864.771	2065.89
864.954	1742.31
865.136	1674.73
865.318	1471.98
865.501	2092.51
865.683	1504.75
865.865	1631.72
866.048	1656.29
866.23	2057.7
866.412	1857
866.594	1447.4
866.777	1754.6
866.959	2057.7
867.141	1799.65
867.323	1846.76
867.505	1789.41
867.687	1859.04
867.869	1918.43
868.052	1689.06
868.234	1562.09
868.416	1828.32
868.598	2112.99
868.78	1596.9
868.962	1660.39
869.144	2264.54
869.326	2119.14
869.508	1555.94
869.69	1555.94
869.872	1820.13
870.054	2199.01
870.236	1488.36
870.417	1504.75
870.599	1863.14
870.781	2338.27
870.963	1861.09
871.145	1560.04
871.327	1674.73
871.508	2094.56
871.69	1607.14
871.872	1687.01
872.054	1955.3
872.235	2043.36
872.417	1732.07
872.599	1545.7
872.78	2479.58
872.962	1932.77
873.144	1390.06
873.325	1609.19
873.507	2237.92
873.689	2057.7
873.87	1601
874.052	1721.83
874.233	1902.05
874.415	2307.55
874.596	1773.03
874.778	1584.62
874.959	1965.54
875.141	2168.29
875.322	1719.78
875.503	1537.51
875.685	1977.83
875.866	1746.41
876.048	1594.86
876.229	1547.75
876.41	1943.01
876.592	2104.8
876.773	1666.53
876.954	1445.35
877.136	2229.73
877.317	1938.91
877.498	1613.29
877.679	1644.01
877.86	2074.08
878.042	1881.57
878.223	1537.51
878.404	2057.7
878.585	2043.36
878.766	2422.24
878.947	1971.68
879.128	1887.72
879.309	2047.46
879.49	2266.59
879.672	1863.14
879.853	1742.31
880.034	1857
880.215	1983.97
880.396	1762.79
880.576	1744.36
880.757	1791.46
880.938	2426.33
881.119	1666.53
881.3	1713.64
881.481	1992.16
881.662	2803.16
881.843	1666.53
882.023	1746.41
882.204	2239.97
882.385	2151.9
882.566	1689.06
882.747	1758.69
882.927	1906.15
883.108	2149.86
883.289	1730.02
883.469	2024.93
883.65	1895.91
883.831	2168.29
884.011	1998.31
884.192	1746.41
884.373	2303.45
884.553	2135.52
884.734	1873.38
884.914	2096.61
885.095	2819.54
885.275	2428.38
885.456	2110.94
885.636	1709.54
885.817	2110.94
885.997	2127.33
886.178	1746.41
886.358	1959.39
886.538	2196.96
886.719	3141.07
886.899	1912.29
887.08	1908.19
887.26	2362.84
887.44	1877.48
887.621	1830.37
887.801	2121.18
887.981	2729.43
888.161	2420.19
888.342	2008.55
888.522	1889.76
888.702	2362.84
888.882	2442.71
889.062	2057.7
889.242	1668.58
889.423	2604.5
889.603	2368.99
889.783	1983.97
889.963	1957.35
890.143	2395.61
890.323	2319.84
890.503	2006.5
890.683	2008.55
890.863	2110.94
891.043	2303.45
891.223	2110.94
891.403	2268.64
891.583	2233.82
891.763	2502.11
891.943	2086.37
892.122	1967.59
892.302	2248.16
892.482	2139.62
892.662	2076.13
892.842	2096.61
893.022	2397.66
893.201	2106.85
893.381	2108.9
893.561	1922.53
893.741	2565.59
893.92	2379.23
894.1	2141.66
894.28	2115.04
894.459	2395.61
894.639	2397.66
894.819	1998.31
894.998	2092.51
895.178	2422.24
895.357	2559.45
895.537	2024.93
895.716	1895.91
895.896	2348.51
896.075	2624.98
896.255	2174.43
896.434	1918.43
896.614	2622.94
896.793	2543.07
896.973	2125.28
897.152	2137.57
897.331	2463.19
897.511	2553.31
897.69	1961.44
897.87	2041.31
898.049	2571.74
898.228	2315.74
898.407	2325.98
898.587	2227.68
898.766	2211.29
898.945	2526.68
899.124	2344.41
899.304	2289.12
899.483	2553.31
899.662	2883.03
899.841	1979.87
900.02	1969.63
900.199	2579.93
900.378	2377.18
900.557	1900
900.737	2041.31
900.916	2393.56
901.095	2573.78
901.274	2344.41
901.453	1920.48
901.632	2254.3
901.811	2149.86
901.989	1983.97
902.168	2024.93
902.347	2520.54
902.526	2233.82
902.705	2045.41
902.884	2323.93
903.063	2594.26
903.242	2715.09
903.42	2010.59
903.599	2242.01
903.778	2682.33
903.957	2813.4
904.135	2162.14
904.314	2176.48
904.493	2459.1
904.672	2622.94
904.85	2063.84
905.029	2184.67
905.207	2500.06
905.386	3050.96
905.565	1832.42
905.743	2067.94
905.922	2244.06
906.1	2618.84
906.279	1885.67
906.457	2014.69
906.636	2168.29
906.814	2303.45
906.993	1949.15
907.171	2092.51
907.35	2481.63
907.528	2487.77
907.707	2225.63
907.885	2037.22
908.063	2805.21
908.242	2127.33
908.42	2059.74
908.598	1777.12
908.777	2483.67
908.955	2160.1
909.133	2242.01
909.311	1932.77
909.49	2121.18
909.668	2215.39
909.846	2012.64
910.024	1809.89
910.202	2256.35
910.38	2450.91
910.559	1797.6
910.737	1986.02
910.915	2231.77
911.093	2371.04
911.271	2090.46
911.449	2180.57
911.627	2299.36
911.805	2788.82
911.983	2014.69
912.161	1940.96
912.339	2340.32
912.517	2555.35
912.695	2102.75
912.872	1936.87
913.05	1994.21
913.228	2301.4
913.406	1955.3
913.584	1897.96
913.762	2467.29
913.939	2092.51
914.117	1861.09
914.295	1822.18
914.473	2366.94
914.65	2213.34
914.828	1699.3
915.006	1791.46
915.184	1924.58
915.361	2375.13
915.539	1990.11
915.716	2158.05
915.894	2393.56
916.072	2280.93
916.249	2172.38
916.427	2016.74
916.604	1881.57
916.782	2360.8
916.959	1793.51
917.137	1877.48
917.314	2143.71
917.492	2295.26
917.669	2029.03
917.847	1910.24
918.024	2143.71
918.201	2129.38
918.379	1988.07
918.556	1934.82
918.733	2289.12
918.911	2057.7
919.088	2022.88
919.265	1893.86
919.442	2153.95
919.62	2033.12
919.797	1857
919.974	1754.6
920.151	2178.53
920.328	2041.31
920.506	1848.8
920.683	2106.85
920.86	1990.11
921.037	1770.98
921.214	2033.12
921.391	1813.99
921.568	2250.21
921.745	1822.18
921.922	1852.9
922.099	1766.89
922.276	2223.58
922.453	2096.61
922.63	1742.31
922.807	2057.7
922.984	2190.81
923.161	1893.86
923.338	1873.38
923.514	1740.26
923.691	1979.87
923.868	2039.26
924.045	1871.33
924.222	1758.69
924.399	2065.89
924.575	2287.07
924.752	1891.81
924.929	1908.19
925.105	2219.49
925.282	1758.69
925.459	1639.91
925.635	1703.4
925.812	1932.77
925.989	1785.32
926.165	1897.96
926.342	1701.35
926.518	1801.7
926.695	1900
926.871	1730.02
927.048	1447.4
927.224	2239.97
927.401	1922.53
927.577	1738.21
927.754	1551.85
927.93	2172.38
928.107	2061.79
928.283	1576.42
928.459	1799.65
928.636	1951.2
928.812	1730.02
928.988	1580.52
929.165	1375.72
929.341	1816.04
929.517	1902.05
929.693	1889.76
929.87	1428.97
930.046	1877.48
930.222	1730.02
930.398	1482.22
930.574	1691.11
930.751	1820.13
930.927	1697.25
931.103	1621.48
931.279	1650.15
931.455	1512.94
931.631	1852.9
931.807	1410.54
931.983	1420.78
932.159	1490.41
932.335	1697.25
932.511	1494.51
932.687	1451.5
932.863	1732.07
933.039	1799.65
933.215	1449.45
933.391	1332.72
933.566	1644.01
933.742	1625.58
933.918	1439.21
934.094	1263.08
934.27	1676.77
934.445	1854.95
934.621	1476.07
934.797	1340.91
934.973	1762.79
935.148	1676.77
935.324	1287.66
935.5	1021.42
935.675	1742.31
935.851	1652.2
936.027	1326.57
936.202	1226.22
936.378	1627.62
936.553	1304.04
936.729	1617.38
936.904	1111.54
937.08	1189.36
937.255	1293.8
937.431	988.66
937.606	959.99
937.782	1166.83
937.957	1404.39
938.133	1095.15
938.308	1000.94
938.483	1254.89
938.659	1148.4
938.834	1002.99
939.009	914.93
939.185	1267.18
939.36	1002.99
939.535	640.5
939.71	1146.35
939.886	1455.59
940.061	1308.14
940.236	1097.2
940.411	884.21
940.586	1205.74
940.761	1213.93
940.937	863.73
941.112	849.4
941.287	1129.97
941.462	1021.42
941.637	759.28
941.812	853.49
941.987	1123.82
942.162	937.46
942.337	935.41
942.512	806.39
942.687	1281.52
942.862	1105.39
943.037	591.35
943.212	439.8
943.386	914.93
943.561	1002.99
943.736	982.51
943.911	1037.81
944.086	1068.53
944.26	1025.52
944.435	779.76
944.61	775.67
944.785	1269.23
944.959	1441.26
945.134	763.38
945.309	667.13
945.483	783.86
945.658	1218.03
945.833	445.95
946.007	654.84
946.182	1289.71
946.357	785.91
946.531	597.49
946.706	681.46
946.88	552.44
947.055	951.79
947.229	693.75
947.404	525.82
947.578	1246.7
947.752	888.31
947.927	599.54
948.101	441.85
948.276	964.08
948.45	955.89
948.624	763.38
948.799	652.79
948.973	1005.04
949.147	632.31
949.321	790
949.496	699.89
949.67	1121.77
949.844	970.23
950.018	716.28
950.193	763.38
950.367	1451.5
950.541	794.1
950.715	869.87
950.889	767.48
951.063	820.72
951.237	1025.52
951.411	499.19
951.585	540.15
951.759	1002.99
951.933	906.74
952.107	648.69
952.281	843.25
952.455	1324.52
952.629	1086.96
952.803	660.98
952.977	660.98
953.151	1127.92
953.325	1043.95
953.499	751.09
953.672	521.72
953.846	753.14
954.02	818.68
954.194	607.73
954.368	763.38
954.541	1021.42
954.715	890.35
954.889	855.54
955.062	611.83
955.236	898.55
955.41	869.87
955.583	718.33
955.757	501.24
955.93	904.69
956.104	663.03
956.278	726.52
956.451	677.37
956.625	1025.52
956.798	1383.91
956.972	939.51
957.145	669.17
957.319	970.23
957.492	890.35
957.665	802.29
957.839	640.5
958.012	1050.1
958.185	765.43
958.359	701.94
958.532	853.49
958.705	1129.97
958.879	988.66
959.052	722.42
959.225	439.8
959.398	841.2
959.572	959.99
959.745	613.88
959.918	720.37
960.091	853.49
960.264	972.27
960.438	568.82
960.611	620.02
960.784	968.18
960.957	708.09
961.13	935.41
961.303	611.83
961.476	904.69
961.649	1099.25
961.822	566.78
961.995	759.28
962.168	1031.66
962.341	953.84
962.514	620.02
962.686	632.31
962.859	994.8
963.032	945.65
963.205	634.36
963.378	450.04
963.551	1091.06
963.723	886.26
963.896	773.62
964.069	869.87
964.242	886.26
964.414	1058.29
964.587	712.18
964.76	624.12
964.932	992.75
965.105	882.16
965.278	697.85
965.45	603.64
965.623	861.68
965.795	1002.99
965.968	679.41
966.14	560.63
966.313	781.81
966.485	927.22
966.658	683.51
966.83	511.48
967.003	1181.17
967.175	1095.15
967.348	630.26
967.52	673.27
967.692	1226.22
967.865	988.66
968.037	714.23
968.209	910.83
968.382	902.64
968.554	988.66
968.726	742.9
968.898	601.59
969.071	992.75
969.243	1031.66
969.415	695.8
969.587	701.94
969.759	1365.48
969.932	1119.73
970.104	626.17
970.276	374.27
970.448	771.57
970.62	767.48
970.792	724.47
970.964	681.46
971.136	1332.72
971.308	1048.05
971.48	626.17
971.652	699.89
971.824	1244.65
971.996	747
972.168	697.85
972.339	615.93
972.511	1109.49
972.683	763.38
972.855	841.2
973.027	736.76
973.199	779.76
973.37	1002.99
973.542	767.48
973.714	753.14
973.886	962.03
974.057	974.32
974.229	462.33
974.401	564.73
974.572	652.79
974.744	568.82
974.915	529.91
975.087	536.06
975.259	1250.8
975.43	650.74
975.602	669.17
975.773	531.96
975.945	648.69
976.116	992.75
976.288	548.34
976.459	798.2
976.63	767.48
976.802	1021.42
976.973	495.1
977.145	890.35
977.316	1365.48
977.487	1271.28
977.659	812.53
977.83	632.31
978.001	1246.7
978.172	902.64
978.344	491
978.515	701.94
978.686	777.72
978.857	1086.96
979.028	646.65
979.2	605.69
979.371	1072.62
979.542	804.34
979.713	730.61
979.884	165.37
980.055	654.84
980.226	847.35
980.397	601.59
980.568	390.65
980.739	1027.57
980.91	822.77
981.081	738.8
981.252	585.21
981.423	896.5
981.594	992.75
981.765	482.81
981.936	607.73
982.106	744.95
982.277	994.8
982.448	574.97
982.619	693.75
982.79	701.94
982.96	1031.66
983.131	673.27
983.302	333.31
983.472	716.28
983.643	882.16
983.814	726.52
983.984	503.29
984.155	685.56
984.326	1058.29
984.496	628.21
984.667	601.59
984.837	669.17
985.008	1019.38
985.178	820.72
985.349	493.05
985.519	714.23
985.69	521.72
985.86	577.02
986.031	605.69
986.201	781.81
986.371	1005.04
986.542	499.19
986.712	429.56
986.882	810.48
987.053	896.5
987.223	554.49
987.393	693.75
987.563	577.02
987.734	982.51
987.904	869.87
988.074	546.3
988.244	863.73
988.414	554.49
988.585	382.46
988.755	626.17
988.925	716.28
989.095	1181.17
989.265	552.44
989.435	652.79
989.605	847.35
989.775	906.74
989.945	843.25
990.115	450.04
990.285	689.65
990.455	761.33
990.625	554.49
990.795	427.51
990.965	1101.3
991.134	626.17
991.304	394.75
991.474	443.9
991.644	808.44
991.814	1132.01
991.984	316.92
992.153	462.33
992.323	548.34
992.493	685.56
992.662	175.61
992.832	636.41
993.002	712.18
993.171	923.12
993.341	280.06
993.511	513.53
993.68	603.64
993.85	927.22
994.019	372.22
994.189	380.41
994.358	706.04
994.528	599.54
994.697	151.04
994.867	370.17
995.036	810.48
995.206	531.96
995.375	390.65
995.544	587.26
995.714	703.99
995.883	648.69
996.052	476.66
996.222	140.8
996.391	1201.65
996.56	740.85
996.73	300.54
996.899	230.91
997.068	1025.52
997.237	673.27
997.406	323.07
997.576	255.48
997.745	753.14
997.914	663.03
998.083	167.42
998.252	308.73
998.421	660.98
998.59	544.25
998.759	271.87
998.928	124.41
999.097	970.23
999.266	728.56
999.435	488.95
999.604	189.95
999.773	1168.88
999.942	591.35
1000.111	95.74
1000.28	169.47
1000.448	445.95
1000.617	378.36
1000.786	503.29
1000.955	269.82
1001.124	732.66
1001.292	1230.32
1001.461	247.29
1001.63	271.87
1001.798	986.61
1001.967	937.46
1002.136	132.61
1002.304	245.24
1002.473	685.56
1002.642	658.93
1002.81	437.75
1002.979	259.58
1003.147	800.24
1003.316	1070.58
1003.484	232.96
1003.653	222.72
1003.821	869.87
1003.99	669.17
1004.158	370.17
1004.327	294.4
1004.495	701.94
1004.663	456.19
1004.832	423.42
1005	67.07
1005.168	667.13
1005.337	607.73
1005.505	118.27
1005.673	302.59
1005.842	687.61
1006.01	710.13
1006.178	142.85
1006.346	212.48
1006.514	716.28
1006.683	824.82
1006.851	226.81
1007.019	93.69
1007.187	308.73
1007.355	148.99
1007.523	15.87
1007.691	192
1007.859	177.66
1008.027	869.87
1008.195	257.53
1008.363	120.32
1008.531	759.28
1008.699	374.27
1008.867	56.83
1009.035	124.41
1009.203	923.12
1009.37	611.83
1009.538	255.48
1009.706	605.69
1009.874	589.3
1010.042	458.23
1010.209	112.13
1010.377	163.33
1010.545	812.53
1010.713	529.91
1010.88	218.62
1011.048	189.95
1011.216	529.91
1011.383	896.5
1011.551	179.71
1011.718	163.33
1011.886	857.59
1012.054	550.39
1012.221	126.46
1012.389	67.07
1012.556	501.24
1012.724	945.65
1012.891	271.87
1013.058	1.54
1013.226	667.13
1013.393	816.63
1013.561	7.68
1013.728	50.69
1013.895	732.66
1014.063	599.54
1014.23	17.92
1014.397	48.64
1014.565	753.14
1014.732	548.34
1014.899	128.51
1015.066	26.11
1015.233	566.78
1015.401	671.22
1015.568	214.52
1015.735	187.9
1015.902	497.14
1016.069	570.87
1016.236	7.68
1016.403	126.46
1016.57	265.72
1016.737	738.8
1016.904	112.13
1017.071	79.36
1017.238	304.64
1017.405	673.27
1017.572	161.28
1017.739	280.06
1017.906	646.65
1018.073	714.23
1018.24	46.59
1018.407	232.96
1018.573	759.28
1018.74	497.14
1018.907	110.08
1019.074	-10.75
1019.241	726.52
1019.407	450.04
1019.574	-14.85
1019.741	-16.9
1019.907	538.1
1020.074	716.28
1020.241	-96.77
1020.407	-53.76
1020.574	572.92
1020.74	636.41
1020.907	122.37
1021.073	9.73
1021.24	990.7
1021.406	794.1
1021.573	87.55
1021.739	91.65
1021.906	611.83
1022.072	497.14
1022.239	52.74
1022.405	87.55
1022.571	423.42
1022.738	265.72
1022.904	26.11
1023.07	198.14
1023.237	534.01
1023.403	574.97
1023.569	81.41
1023.735	71.17
1023.902	505.34
1024.068	566.78
1024.234	11.78
1024.4	30.21
1024.566	450.04
1024.732	574.97
1024.898	46.59
1025.065	-150.01
1025.231	634.36
1025.397	349.69
1025.563	83.45
1025.729	-18.94
1025.895	56.83
1026.061	239.1
1026.227	-86.53
1026.392	44.54
1026.558	675.32
1026.724	542.2
1026.89	67.07
1027.056	62.98
1027.222	529.91
1027.388	304.64
1027.553	-47.62
1027.719	-68.09
1027.885	744.95
1028.051	550.39
1028.216	-129.53
1028.382	-35.33
1028.548	675.32
1028.713	310.78
1028.879	-49.66
1029.045	253.44
1029.21	765.43
1029.376	722.42
1029.541	77.31
1029.707	17.92
1029.873	509.43
1030.038	577.02
1030.204	9.73
1030.369	95.74
1030.534	609.78
1030.7	286.2
1030.865	83.45
1031.031	-18.94
1031.196	484.86
1031.361	427.51
1031.527	9.73
1031.692	-23.04
1031.857	-33.28
1032.023	503.29
1032.188	-49.66
1032.353	95.74
1032.518	785.91
1032.684	491
1032.849	-147.97
1033.014	28.16
1033.179	560.63
1033.344	556.54
1033.509	77.31
1033.674	5.63
1033.839	531.96
1034.004	470.52
1034.17	1.54
1034.335	-31.23
1034.5	304.64
1034.664	220.67
1034.829	-29.18
1034.994	62.98
1035.159	460.28
1035.324	536.06
1035.489	50.69
1035.654	-33.28
1035.819	656.89
1035.984	454.14
1036.148	42.5
1036.313	24.06
1036.478	568.82
1036.643	378.36
1036.807	-86.53
1036.972	-92.67
1037.137	714.23
1037.301	347.64
1037.466	-145.92
1037.631	44.54
1037.795	632.31
1037.96	476.66
1038.124	189.95
1038.289	-59.9
1038.454	560.63
1038.618	431.61
1038.783	1.54
1038.947	75.26
1039.111	390.65
1039.276	249.34
1039.44	9.73
1039.605	372.22
1039.769	235
1039.933	341.5
1040.098	42.5
1040.262	214.52
1040.426	648.69
1040.591	507.38
1040.755	-90.62
1040.919	34.3
1041.083	411.13
1041.248	353.79
1041.412	-225.79
1041.576	-121.34
1041.74	304.64
1041.904	560.63
1042.068	-96.77
1042.232	65.02
1042.397	507.38
1042.561	329.21
1042.725	-311.8
1042.889	142.85
1043.053	452.09
1043.217	411.13
1043.381	40.45
1043.544	-178.69
1043.708	703.99
1043.872	36.35
1044.036	-190.97
1044.2	-168.45
1044.364	663.03
1044.528	585.21
1044.691	4783.54
1044.855	-209.4
1045.019	560.63
1045.183	505.34
1045.346	-25.09
1045.51	-39.42
1045.674	544.25
1045.837	509.43
1046.001	-8.7
1046.165	-113.15
1046.328	837.11
1046.492	521.72
1046.655	60.93
1046.819	1.54
1046.983	208.38
1047.146	394.75
1047.31	19.97
1047.473	-305.66
1047.636	232.96
1047.8	85.5
1047.963	-35.33
1048.127	-119.29
1048.29	110.08
