Data from Ink_Intensity_USB4F045381__134__00134.txt Node

Date: Mon Jul 17 11:20:57 EDT 2023
User: mmckonesweet
Spectrometer: USB4F04538
Trigger mode: 4
Integration Time (sec): 9.000000E-1
Scans to average: 1
Electric dark correction enabled: true
Nonlinearity correction enabled: false
Boxcar width: 0
XAxis mode: Wavelengths
Number of Pixels in Spectrum: 3648
>>>>>Begin Spectral Data<<<<<
345.52	-1047.02
345.736	-1047.02
345.952	-1047.02
346.168	-983.54
346.384	-1034.74
346.6	-100.86
346.816	-289.28
347.032	-231.93
347.248	257.53
347.464	-209.4
347.68	-92.67
347.896	130.56
348.112	368.12
348.328	-92.67
348.544	-80.38
348.76	79.36
348.975	261.63
349.191	-248.32
349.407	-186.88
349.623	36.35
349.839	-104.96
350.055	-111.1
350.27	75.26
350.486	194.05
350.702	316.92
350.918	275.96
351.133	-188.93
351.349	189.95
351.565	366.07
351.781	-236.03
351.996	38.4
352.212	341.5
352.428	-166.4
352.644	-170.49
352.859	-268.8
353.075	316.92
353.291	77.31
353.506	-141.82
353.722	-219.64
353.938	-39.42
354.153	460.28
354.369	163.33
354.584	-207.36
354.8	364.03
355.016	-322.04
355.231	-213.5
355.447	-74.24
355.662	140.8
355.878	742.9
356.093	-375.29
356.309	-27.14
356.524	-231.93
356.74	302.59
356.955	-154.11
357.171	-14.85
357.386	124.41
357.602	-64
357.817	-123.39
358.033	-250.36
358.248	382.46
358.464	210.43
358.679	-90.62
358.895	-332.28
359.11	26.11
359.325	253.44
359.541	132.61
359.756	-70.14
359.972	-311.8
360.187	140.8
360.402	-176.64
360.618	-162.3
360.833	945.65
361.048	136.7
361.264	-209.4
361.479	-6.66
361.694	13.82
361.909	216.57
362.125	-215.55
362.34	-150.01
362.555	243.2
362.77	40.45
362.986	-291.32
363.201	-96.77
363.416	159.23
363.631	26.11
363.847	-184.83
364.062	-125.44
364.277	202.24
364.492	128.51
364.707	-190.97
364.922	-371.19
365.138	255.48
365.353	337.4
365.568	-295.42
365.783	-178.69
365.998	15.87
366.213	566.78
366.428	-199.16
366.643	93.69
366.858	251.39
367.073	189.95
367.288	-162.3
367.503	-227.84
367.718	22.02
367.933	355.83
368.148	-315.9
368.363	-66.05
368.578	-64
368.793	386.55
369.008	-117.25
369.223	-324.09
369.438	132.61
369.653	378.36
369.868	-244.22
370.083	-258.56
370.298	99.84
370.513	384.51
370.728	22.02
370.943	-295.42
371.157	-219.64
371.372	548.34
371.587	-260.6
371.802	-287.23
372.017	58.88
372.232	415.23
372.446	-23.04
372.661	-266.75
372.876	284.16
373.091	103.93
373.306	-154.11
373.52	-262.65
373.735	-162.3
373.95	493.05
374.165	-96.77
374.379	-137.73
374.594	-98.81
374.809	26.11
375.023	15.87
375.238	-242.17
375.453	265.72
375.667	-254.46
375.882	-166.4
376.097	-231.93
376.311	71.17
376.526	50.69
376.741	-229.88
376.955	75.26
377.17	507.38
377.384	577.02
377.599	17.92
377.813	-281.08
378.028	531.96
378.242	134.65
378.457	-39.42
378.672	-330.23
378.886	81.41
379.101	-45.57
379.315	-379.39
379.53	-137.73
379.744	148.99
379.958	140.8
380.173	-197.12
380.387	-158.21
380.602	151.04
380.816	-84.48
381.031	-217.6
381.245	-133.63
381.459	210.43
381.674	2731.48
381.888	-268.8
382.103	46.59
382.317	-164.35
382.531	435.71
382.746	-190.97
382.96	-254.46
383.174	-129.53
383.388	472.57
383.603	-25.09
383.817	-301.56
384.031	114.17
384.246	368.12
384.46	5.63
384.674	245.24
384.888	-4.61
385.103	71.17
385.317	-289.28
385.531	-0.51
385.745	392.7
385.959	323.07
386.174	-207.36
386.388	-289.28
386.602	-18.94
386.816	-145.92
387.03	-76.29
387.244	-119.29
387.458	120.32
387.672	364.03
387.887	-301.56
388.101	-322.04
388.315	394.75
388.529	116.22
388.743	-145.92
388.957	-229.88
389.171	296.44
389.385	-285.18
389.599	-172.54
389.813	30.21
390.027	194.05
390.241	634.36
390.455	-186.88
390.669	-158.21
390.883	-88.57
391.097	316.92
391.311	-27.14
391.525	-190.97
391.738	200.19
391.952	222.72
392.166	-90.62
392.38	-262.65
392.594	282.11
392.808	378.36
393.022	-117.25
393.236	-166.4
393.449	161.28
393.663	220.67
393.877	-279.04
394.091	-133.63
394.305	-23.04
394.518	-195.07
394.732	-233.98
394.946	-143.87
395.16	413.18
395.373	62.98
395.587	-207.36
395.801	-207.36
396.015	327.16
396.228	151.04
396.442	-223.74
396.656	-371.19
396.869	329.21
397.083	423.42
397.297	-55.81
397.51	-190.97
397.724	368.12
397.938	151.04
398.151	-276.99
398.365	-291.32
398.578	230.91
398.792	308.73
399.005	-41.47
399.219	-143.87
399.433	116.22
399.646	218.62
399.86	13.82
400.073	-35.33
400.287	235
400.5	56.83
400.714	50.69
400.927	-141.82
401.141	163.33
401.354	1005.04
401.567	144.89
401.781	-266.75
401.994	218.62
402.208	497.14
402.421	-139.77
402.635	-129.53
402.848	17.92
403.061	361.98
403.275	30.21
403.488	-279.04
403.701	505.34
403.915	296.44
404.128	58.88
404.341	-182.78
404.555	210.43
404.768	-43.52
404.981	-12.8
405.195	-166.4
405.408	431.61
405.621	228.86
405.834	-0.51
406.048	-215.55
406.261	417.27
406.474	456.19
406.687	-123.39
406.9	5.63
407.114	85.5
407.327	192
407.54	-340.47
407.753	-293.37
407.966	-119.29
408.179	226.81
408.392	-227.84
408.605	-330.23
408.819	112.13
409.032	167.42
409.245	-174.59
409.458	62.98
409.671	189.95
409.884	265.72
410.097	-289.28
410.31	28.16
410.523	196.09
410.736	7.68
410.949	-84.48
411.162	-100.86
411.375	390.65
411.588	361.98
411.801	-35.33
412.014	-285.18
412.227	58.88
412.44	24.06
412.653	-276.99
412.865	-2.56
413.078	314.88
413.291	169.47
413.504	-78.33
413.717	-174.59
413.93	259.58
414.143	-223.74
414.356	-242.17
414.568	-369.15
414.781	241.15
414.994	132.61
415.207	-133.63
415.42	-94.72
415.632	280.06
415.845	456.19
416.058	-330.23
416.271	-285.18
416.483	91.65
416.696	482.81
416.909	-219.64
417.121	-174.59
417.334	261.63
417.547	554.49
417.759	-301.56
417.972	-299.52
418.185	-80.38
418.397	259.58
418.61	-285.18
418.823	-193.02
419.035	437.75
419.248	34.3
419.46	-133.63
419.673	-125.44
419.885	148.99
420.098	7.68
420.311	-143.87
420.523	-379.39
420.736	208.38
420.948	58.88
421.161	-178.69
421.373	-334.33
421.586	167.42
421.798	-150.01
422.01	-303.61
422.223	28.16
422.435	-80.38
422.648	210.43
422.86	-131.58
423.073	-238.08
423.285	300.54
423.497	-211.45
423.71	-193.02
423.922	-197.12
424.134	226.81
424.347	323.07
424.559	40.45
424.771	153.09
424.984	-12.8
425.196	261.63
425.408	-334.33
425.621	-342.52
425.833	253.44
426.045	452.09
426.257	-305.66
426.47	-141.82
426.682	146.94
426.894	218.62
427.106	-166.4
427.318	-150.01
427.531	-107.01
427.743	210.43
427.955	-168.45
428.167	275.96
428.379	192
428.591	-45.57
428.804	-127.49
429.016	-236.03
429.228	-55.81
429.44	187.9
429.652	5.63
429.864	-299.52
430.076	-41.47
430.288	87.55
430.5	-76.29
430.712	-100.86
430.924	237.05
431.136	99.84
431.348	-387.58
431.56	-213.5
431.772	30.21
431.984	-76.29
432.196	-297.47
432.408	-199.16
432.62	-53.76
432.832	161.28
433.044	124.41
433.256	-27.14
433.468	196.09
433.679	-350.71
433.891	-320
434.103	7.68
434.315	435.71
434.527	175.61
434.739	-143.87
434.95	-211.45
435.162	306.68
435.374	-125.44
435.586	-150.01
435.798	-209.4
436.009	-186.88
436.221	-16.9
436.433	-246.27
436.645	-170.49
436.856	9.73
437.068	235
437.28	-236.03
437.491	73.21
437.703	185.85
437.915	99.84
438.126	-182.78
438.338	50.69
438.55	-64
438.761	200.19
438.973	-131.58
439.184	-82.43
439.396	5.63
439.608	245.24
439.819	-293.37
440.031	-53.76
440.242	212.48
440.454	202.24
440.665	-133.63
440.877	-100.86
441.088	206.33
441.3	-78.33
441.511	-320
441.723	-252.41
441.934	91.65
442.146	28.16
442.357	11.78
442.569	46.59
442.78	87.55
442.991	464.38
443.203	226.81
443.414	-268.8
443.626	355.83
443.837	-129.53
444.048	-301.56
444.26	-360.95
444.471	50.69
444.682	304.64
444.894	-403.96
445.105	-293.37
445.316	253.44
445.528	187.9
445.739	-12.8
445.95	-166.4
446.161	87.55
446.373	370.17
446.584	-109.05
446.795	-205.31
447.006	206.33
447.217	501.24
447.429	-348.67
447.64	-291.32
447.851	384.51
448.062	79.36
448.273	-408.06
448.484	-223.74
448.695	204.28
448.907	15.87
449.118	-131.58
449.329	-12.8
449.54	-170.49
449.751	-166.4
449.962	-213.5
450.173	-276.99
450.384	325.12
450.595	355.83
450.806	-207.36
451.017	-152.06
451.228	335.35
451.439	341.5
451.65	-156.16
451.861	-418.3
452.072	-172.54
452.283	22.02
452.494	-27.14
452.705	-244.22
452.915	517.62
453.126	128.51
453.337	-156.16
453.548	-246.27
453.759	357.88
453.97	484.86
454.181	36.35
454.391	-96.77
454.602	65.02
454.813	230.91
455.024	-115.2
455.235	-152.06
455.445	120.32
455.656	120.32
455.867	5.63
456.078	-203.26
456.288	-18.94
456.499	112.13
456.71	-283.13
456.921	13.82
457.131	146.94
457.342	60.93
457.553	-115.2
457.763	-254.46
457.974	103.93
458.184	249.34
458.395	-197.12
458.606	-281.08
458.816	300.54
459.027	509.43
459.237	-2.56
459.448	-352.76
459.659	333.31
459.869	531.96
460.08	-385.53
460.29	-39.42
460.501	513.53
460.711	-156.16
460.922	-289.28
461.132	-276.99
461.343	749.04
461.553	-227.84
461.764	-264.7
461.974	-272.89
462.184	181.76
462.395	69.12
462.605	-129.53
462.816	-285.18
463.026	110.08
463.236	271.87
463.447	-221.69
463.657	-256.51
463.867	280.06
464.078	34.3
464.288	-154.11
464.498	-141.82
464.709	26.11
464.919	-47.62
465.129	-135.68
465.339	-281.08
465.55	148.99
465.76	298.49
465.97	-184.83
466.18	-211.45
466.391	269.82
466.601	210.43
466.811	-59.9
467.021	-334.33
467.231	132.61
467.441	370.17
467.651	-217.6
467.862	-506.36
468.072	-14.85
468.282	339.45
468.492	-313.85
468.702	-131.58
468.912	-8.7
469.122	636.41
469.332	75.26
469.542	-281.08
469.752	253.44
469.962	54.78
470.172	-289.28
470.382	-313.85
470.592	208.38
470.802	390.65
471.012	-109.05
471.222	-264.7
471.432	265.72
471.642	196.09
471.852	-129.53
472.062	-307.71
472.272	42.5
472.482	-256.51
472.691	-309.76
472.901	-342.52
473.111	165.37
473.321	554.49
473.531	-268.8
473.741	-184.83
473.95	218.62
474.16	275.96
474.37	-129.53
474.58	-252.41
474.79	447.99
474.999	267.77
475.209	-309.76
475.419	-215.55
475.628	34.3
475.838	368.12
476.048	-107.01
476.258	-344.57
476.467	372.22
476.677	-86.53
476.886	-27.14
477.096	-158.21
477.306	-88.57
477.515	327.16
477.725	-152.06
477.935	-150.01
478.144	382.46
478.354	-68.09
478.563	-104.96
478.773	-166.4
478.982	237.05
479.192	376.31
479.401	-86.53
479.611	-244.22
479.82	-55.81
480.03	153.09
480.239	-246.27
480.449	-264.7
480.658	491
480.868	-193.02
481.077	-88.57
481.287	-139.77
481.496	194.05
481.705	450.04
481.915	101.89
482.124	30.21
482.333	165.37
482.543	474.62
482.752	-102.91
482.961	-217.6
483.171	192
483.38	62.98
483.589	-119.29
483.799	-283.13
484.008	44.54
484.217	243.2
484.426	-121.34
484.636	-268.8
484.845	185.85
485.054	-272.89
485.263	87.55
485.472	-145.92
485.682	529.91
485.891	87.55
486.1	-293.37
486.309	-285.18
486.518	282.11
486.727	460.28
486.936	-205.31
487.146	-25.09
487.355	515.58
487.564	-133.63
487.773	-256.51
487.982	-121.34
488.191	71.17
488.4	114.17
488.609	-117.25
488.818	-139.77
489.027	558.58
489.236	474.62
489.445	-131.58
489.654	-236.03
489.863	374.27
490.072	173.57
490.281	185.85
490.49	-154.11
490.698	415.23
490.907	402.94
491.116	-125.44
491.325	-260.6
491.534	407.03
491.743	128.51
491.952	-104.96
492.16	-135.68
492.369	239.1
492.578	415.23
492.787	-109.05
492.996	-221.69
493.204	-6.66
493.413	507.38
493.622	-365.05
493.831	-363
494.039	454.14
494.248	-84.48
494.457	-215.55
494.665	-281.08
494.874	255.48
495.083	665.08
495.291	-156.16
495.5	-59.9
495.709	318.97
495.917	220.67
496.126	62.98
496.335	-158.21
496.543	73.21
496.752	220.67
496.96	79.36
497.169	-248.32
497.377	79.36
497.586	423.42
497.794	7.68
498.003	-317.95
498.211	103.93
498.42	497.14
498.628	-92.67
498.837	-154.11
499.045	290.3
499.254	167.42
499.462	-133.63
499.671	-254.46
499.879	611.83
500.087	280.06
500.296	-176.64
500.504	-166.4
500.713	163.33
500.921	583.16
501.129	-180.73
501.338	-76.29
501.546	206.33
501.754	189.95
501.962	-70.14
502.171	-219.64
502.379	226.81
502.587	591.35
502.795	-51.71
503.004	-107.01
503.212	161.28
503.42	421.37
503.628	-137.73
503.837	22.02
504.045	349.69
504.253	546.3
504.461	-100.86
504.669	-338.43
504.877	296.44
505.085	499.19
505.294	-289.28
505.502	122.37
505.71	165.37
505.918	357.88
506.126	-227.84
506.334	-180.73
506.542	124.41
506.75	237.05
506.958	-8.7
507.166	-131.58
507.374	130.56
507.582	581.11
507.79	5.63
507.998	-107.01
508.206	321.02
508.414	286.2
508.622	-125.44
508.83	-27.14
509.037	632.31
509.245	185.85
509.453	-252.41
509.661	-195.07
509.869	359.93
510.077	5.63
510.285	-6.66
510.492	-252.41
510.7	722.42
510.908	87.55
511.116	-23.04
511.324	-121.34
511.531	97.79
511.739	228.86
511.947	91.65
512.155	237.05
512.362	255.48
512.57	-119.29
512.778	-127.49
512.985	-225.79
513.193	404.99
513.401	554.49
513.608	-39.42
513.816	-113.15
514.024	261.63
514.231	509.43
514.439	-156.16
514.646	-51.71
514.854	398.84
515.061	464.38
515.269	-127.49
515.477	-53.76
515.684	81.41
515.892	407.03
516.099	-199.16
516.307	-297.47
516.514	382.46
516.722	599.54
516.929	-137.73
517.136	-166.4
517.344	628.21
517.551	269.82
517.759	-88.57
517.966	-102.91
518.173	177.66
518.381	222.72
518.588	-121.34
518.796	-145.92
519.003	378.36
519.21	241.15
519.418	-18.94
519.625	214.52
519.832	128.51
520.039	282.11
520.247	-252.41
520.454	-25.09
520.661	534.01
520.868	364.03
521.076	-12.8
521.283	48.64
521.49	959.99
521.697	433.66
521.904	11.78
522.112	-51.71
522.319	499.19
522.526	384.51
522.733	-84.48
522.94	-68.09
523.147	269.82
523.354	417.27
523.561	-266.75
523.768	95.74
523.975	521.72
524.183	323.07
524.39	34.3
524.597	-147.97
524.804	187.9
525.011	95.74
525.218	-59.9
525.425	-47.62
525.632	609.78
525.838	50.69
526.045	-27.14
526.252	-57.86
526.459	1416.68
526.666	1203.69
526.873	-55.81
527.08	-33.28
527.287	697.85
527.494	452.09
527.701	-168.45
527.907	-64
528.114	349.69
528.321	220.67
528.528	36.35
528.735	-84.48
528.941	116.22
529.148	128.51
529.355	120.32
529.562	-10.75
529.768	880.11
529.975	124.41
530.182	73.21
530.388	-35.33
530.595	499.19
530.802	52.74
531.008	185.85
531.215	22.02
531.422	697.85
531.628	976.37
531.835	93.69
532.042	122.37
532.248	91.65
532.455	359.93
532.661	161.28
532.868	67.07
533.074	480.76
533.281	603.64
533.487	146.94
533.694	-37.38
533.9	30.21
534.107	466.42
534.313	-8.7
534.52	-98.81
534.726	583.16
534.933	814.58
535.139	-2.56
535.345	-125.44
535.552	419.32
535.758	318.97
535.965	52.74
536.171	69.12
536.377	505.34
536.584	632.31
536.79	67.07
536.996	126.46
537.203	437.75
537.409	570.87
537.615	140.8
537.821	278.01
538.028	609.78
538.234	599.54
538.44	67.07
538.646	110.08
538.853	546.3
539.059	368.12
539.265	505.34
539.471	-113.15
539.677	517.62
539.883	290.3
540.09	93.69
540.296	517.62
540.502	417.27
540.708	200.19
540.914	282.11
541.12	99.84
541.326	562.68
541.532	386.55
541.738	249.34
541.944	202.24
542.15	665.08
542.356	450.04
542.562	17.92
542.768	218.62
542.974	1017.33
543.18	953.84
543.386	130.56
543.592	-18.94
543.798	675.32
544.004	630.26
544.21	30.21
544.415	257.53
544.621	566.78
544.827	640.5
545.033	124.41
545.239	472.57
545.445	87.55
545.651	558.58
545.856	122.37
546.062	60.93
546.268	335.35
546.474	431.61
546.679	235
546.885	148.99
547.091	316.92
547.297	966.13
547.502	226.81
547.708	108.03
547.914	267.77
548.119	617.97
548.325	75.26
548.531	116.22
548.736	808.44
548.942	306.68
549.147	210.43
549.353	357.88
549.559	763.38
549.764	511.48
549.97	114.17
550.175	132.61
550.381	693.75
550.586	347.64
550.792	218.62
550.997	181.76
551.203	556.54
551.408	685.56
551.614	155.13
551.819	226.81
552.025	869.87
552.23	892.4
552.435	95.74
552.641	376.31
552.846	372.22
553.052	931.31
553.257	333.31
553.462	235
553.668	366.07
553.873	845.3
554.078	169.47
554.283	161.28
554.489	577.02
554.694	497.14
554.899	120.32
555.105	359.93
555.31	572.92
555.515	755.19
555.72	378.36
555.925	169.47
556.131	714.23
556.336	472.57
556.541	261.63
556.746	163.33
556.951	986.61
557.156	996.85
557.361	374.27
557.567	345.59
557.772	1054.19
557.977	734.71
558.182	339.45
558.387	271.87
558.592	398.84
558.797	951.79
559.002	366.07
559.207	443.9
559.412	495.1
559.617	1080.82
559.822	323.07
560.027	194.05
560.232	640.5
560.437	894.45
560.642	206.33
560.847	271.87
561.051	611.83
561.256	716.28
561.461	357.88
561.666	259.58
561.871	677.37
562.076	808.44
562.281	411.13
562.485	257.53
562.69	790
562.895	919.03
563.1	335.35
563.305	265.72
563.509	941.55
563.714	1246.7
563.919	392.7
564.123	333.31
564.328	548.34
564.533	976.37
564.737	443.9
564.942	384.51
565.147	1029.62
565.351	1185.26
565.556	558.58
565.761	499.19
565.965	742.9
566.17	488.95
566.374	392.7
566.579	267.77
566.784	775.67
566.988	622.07
567.193	257.53
567.397	376.31
567.602	425.47
567.806	681.46
568.011	413.18
568.215	488.95
568.42	693.75
568.624	644.6
568.828	466.42
569.033	517.62
569.237	787.96
569.442	810.48
569.646	310.78
569.85	456.19
570.055	833.01
570.259	794.1
570.463	644.6
570.668	493.05
570.872	804.34
571.076	669.17
571.281	652.79
571.485	558.58
571.689	697.85
571.893	1000.94
572.098	574.97
572.302	519.67
572.506	882.16
572.71	779.76
572.914	519.67
573.119	447.99
573.323	1168.88
573.527	1105.39
573.731	443.9
573.935	433.66
574.139	787.96
574.343	552.44
574.547	566.78
574.751	568.82
574.955	1101.3
575.159	1111.54
575.364	447.99
575.568	443.9
575.772	749.04
575.976	1115.63
576.18	620.02
576.383	388.6
576.587	1068.53
576.791	966.13
576.995	382.46
577.199	384.51
577.403	1054.19
577.607	1076.72
577.811	488.95
578.015	681.46
578.219	908.79
578.422	1138.16
578.626	679.41
578.83	703.99
579.034	1144.3
579.238	914.93
579.442	587.26
579.645	966.13
579.849	828.92
580.053	990.7
580.257	732.66
580.46	605.69
580.664	1211.89
580.868	1029.62
581.071	783.86
581.275	673.27
581.479	603.64
581.682	1062.38
581.886	669.17
582.09	681.46
582.293	1123.82
582.497	1156.59
582.7	804.34
582.904	519.67
583.107	906.74
583.311	890.35
583.515	718.33
583.718	800.24
583.922	1119.73
584.125	1357.29
584.329	538.1
584.532	787.96
584.735	1400.3
584.939	1115.63
585.142	546.3
585.346	615.93
585.549	1046
585.753	888.31
585.956	660.98
586.159	839.16
586.363	1373.68
586.566	1127.92
586.769	609.78
586.973	599.54
587.176	1177.07
587.379	1244.65
587.582	1095.15
587.786	910.83
587.989	1002.99
588.192	1717.73
588.395	744.95
588.599	1062.38
588.802	1201.65
589.005	1152.49
589.208	771.57
589.411	837.11
589.615	1213.93
589.818	1445.35
590.021	1009.14
590.224	902.64
590.427	1443.31
590.63	1279.47
590.833	546.3
591.036	841.2
591.239	1056.24
591.442	923.12
591.645	1068.53
591.848	736.76
592.051	1164.78
592.254	1320.43
592.457	849.4
592.66	912.88
592.863	1127.92
593.066	1275.37
593.269	794.1
593.472	968.18
593.675	976.37
593.878	1283.56
594.081	902.64
594.284	816.63
594.486	1433.07
594.689	1021.42
594.892	972.27
595.095	912.88
595.298	1340.91
595.5	1062.38
595.703	1023.47
595.906	1000.94
596.109	1471.98
596.311	1490.41
596.514	634.36
596.717	1046
596.92	1521.13
597.122	1275.37
597.325	673.27
597.528	859.63
597.73	1457.64
597.933	1254.89
598.136	912.88
598.338	663.03
598.541	1361.39
598.743	1482.22
598.946	1062.38
599.148	1050.1
599.351	1539.56
599.554	1484.27
599.756	1080.82
599.959	1033.71
600.161	1469.93
600.363	1893.86
600.566	1267.18
600.768	968.18
600.971	1838.56
601.173	1490.41
601.376	1066.48
601.578	1136.11
601.78	1480.17
601.983	1910.24
602.185	947.7
602.388	1256.94
602.59	1449.45
602.792	1316.33
602.995	1199.6
603.197	1060.34
603.399	1646.05
603.601	1488.36
603.804	1095.15
604.006	1089.01
604.208	1320.43
604.41	1015.28
604.613	1342.96
604.815	951.79
605.017	2037.22
605.219	1291.76
605.421	1531.37
605.623	1185.26
605.826	1734.12
606.028	1715.69
606.23	1160.69
606.432	1138.16
606.634	1793.51
606.836	1723.88
607.038	1031.66
607.24	1336.81
607.442	1471.98
607.644	1371.63
607.846	1299.95
608.048	1082.86
608.25	1902.05
608.452	1211.89
608.654	1359.34
608.856	1029.62
609.058	1441.26
609.26	1521.13
609.462	1375.72
609.664	1197.55
609.866	2061.79
610.067	1697.25
610.269	1404.39
610.471	1316.33
610.673	1451.5
610.875	1744.36
611.077	1027.57
611.278	1351.15
611.48	1496.55
611.682	2094.56
611.884	1261.04
612.085	1377.77
612.287	1250.8
612.489	1676.77
612.69	1144.3
612.892	1304.04
613.094	1758.69
613.295	1723.88
613.497	1265.13
613.699	1258.99
613.9	1967.59
614.102	1900
614.304	1424.87
614.505	1158.64
614.707	1588.71
614.908	1553.9
615.11	1179.12
615.311	1271.28
615.513	1781.22
615.714	1762.79
615.916	1258.99
616.117	1404.39
616.319	1562.09
616.52	1740.26
616.722	1394.15
616.923	1328.62
617.124	1998.31
617.326	1746.41
617.527	1443.31
617.729	1635.82
617.93	1840.61
618.131	1902.05
618.333	1254.89
618.534	1490.41
618.735	1467.88
618.937	2000.35
619.138	1271.28
619.339	1320.43
619.54	1727.97
619.742	1596.9
619.943	1488.36
620.144	1474.03
620.345	1996.26
620.546	1951.2
620.748	1484.27
620.949	1447.4
621.15	1742.31
621.351	1799.65
621.552	1398.25
621.753	1357.29
621.954	1371.63
622.155	2340.32
622.356	1527.27
622.558	1607.14
622.759	1803.75
622.96	2176.48
623.161	1537.51
623.362	1498.6
623.563	1725.93
623.764	1916.39
623.965	1549.8
624.166	1652.2
624.366	1746.41
624.567	2053.6
624.768	1332.72
624.969	1474.03
625.17	1852.9
625.371	2127.33
625.572	1592.81
625.773	1531.37
625.973	2047.46
626.174	1969.63
626.375	1568.23
626.576	1621.48
626.777	2049.5
626.977	2416.09
627.178	1570.28
627.379	1766.89
627.58	1844.71
627.78	1928.67
627.981	1758.69
628.182	1742.31
628.382	2221.53
628.583	1476.07
628.784	1660.39
628.984	1836.52
629.185	2112.99
629.386	2069.98
629.586	1820.13
629.787	1570.28
629.987	2196.96
630.188	2006.5
630.388	1576.42
630.589	1801.7
630.79	2606.55
630.99	1992.16
631.191	1773.03
631.391	1764.84
631.591	2153.95
631.792	2328.03
631.992	1834.47
632.193	1902.05
632.393	2479.58
632.594	1920.48
632.794	1646.05
632.994	1721.83
633.195	2035.17
633.395	2084.32
633.595	1625.58
633.796	2022.88
633.996	1932.77
634.196	2344.41
634.397	1668.58
634.597	1887.72
634.797	1977.83
634.997	2493.91
635.198	2086.37
635.398	1715.69
635.598	2184.67
635.798	2426.33
635.998	2207.2
636.199	1754.6
636.399	1971.68
636.599	1959.39
636.799	1830.37
636.999	2049.5
637.199	2194.91
637.399	2305.5
637.599	1813.99
637.799	1906.15
637.999	2041.31
638.199	2362.84
638.399	1918.43
638.599	1875.43
638.799	2268.64
638.999	2698.71
639.199	1992.16
639.399	2160.1
639.599	2528.73
639.799	1859.04
639.999	1928.67
640.199	1795.56
640.399	2209.25
640.599	2229.73
640.799	1975.78
640.998	2186.72
641.198	2520.54
641.398	2368.99
641.598	2242.01
641.798	2119.14
641.997	3159.5
642.197	2268.64
642.397	2117.09
642.597	2024.93
642.796	2303.45
642.996	2737.62
643.196	2106.85
643.395	1897.96
643.595	2381.28
643.795	1932.77
643.994	2125.28
644.194	2078.18
644.394	2573.78
644.593	2330.08
644.793	1938.91
644.992	2127.33
645.192	2457.05
645.392	1957.35
645.591	2252.25
645.791	2133.47
645.99	2573.78
646.19	2379.23
646.389	2231.77
646.589	2258.4
646.788	2506.2
646.987	2520.54
647.187	2350.56
647.386	2194.91
647.586	2438.62
647.785	2612.7
647.984	2287.07
648.184	2237.92
648.383	2153.95
648.582	2358.75
648.782	2110.94
648.981	2274.78
649.18	2205.15
649.38	2545.11
649.579	2160.1
649.778	2037.22
649.977	2627.03
650.177	2479.58
650.376	2209.25
650.575	2196.96
650.774	2930.13
650.973	2338.27
651.173	1983.97
651.372	2350.56
651.571	2512.35
651.77	2801.11
651.969	2368.99
652.168	2325.98
652.367	2168.29
652.566	2524.63
652.765	2297.31
652.964	2551.26
653.163	3024.34
653.362	2487.77
653.561	2250.21
653.76	2317.79
653.959	2524.63
654.158	2700.76
654.357	2498.01
654.556	2266.59
654.755	2717.14
654.954	2760.15
655.153	2307.55
655.352	2479.58
655.551	2921.94
655.749	2397.66
655.948	2479.58
656.147	2479.58
656.346	2831.83
656.545	2543.07
656.743	2610.65
656.942	2500.06
657.141	2696.66
657.34	2315.74
657.538	2416.09
657.737	2528.73
657.936	2643.42
658.135	2962.9
658.333	2430.43
658.532	2508.25
658.731	3161.55
658.929	2958.8
659.128	2794.97
659.326	2340.32
659.525	3106.26
659.724	2655.7
659.922	2254.3
660.121	2432.47
660.319	2790.87
660.518	2606.55
660.716	2528.73
660.915	2442.71
661.113	3220.94
661.312	2549.21
661.51	2565.59
661.709	2342.36
661.907	2962.9
662.105	3143.12
662.304	2567.64
662.502	2700.76
662.701	3077.59
662.899	2608.6
663.097	2991.57
663.296	2448.86
663.494	3222.99
663.692	3200.46
663.891	2475.48
664.089	2461.15
664.287	2913.75
664.485	3083.73
664.684	2588.12
664.882	2803.16
665.08	2954.71
665.278	2966.99
665.476	2414.04
665.675	3132.88
665.873	3333.58
666.071	3247.57
666.269	2649.56
666.467	2889.17
666.665	2950.61
666.863	2956.75
667.061	2860.5
667.259	2667.99
667.457	2874.84
667.655	3083.73
667.853	2704.85
668.051	2739.67
668.249	3005.91
668.447	2997.71
668.645	2532.83
668.843	2905.56
669.041	3175.89
669.239	2719.19
669.437	2915.8
669.635	2856.4
669.833	2938.32
670.031	3091.92
670.229	2985.43
670.426	2868.69
670.624	2938.32
670.822	2840.02
671.02	2813.4
671.218	2825.68
671.415	2899.41
671.613	2987.47
671.811	2837.97
672.009	2872.79
672.206	3159.5
672.404	3159.5
672.602	3155.41
672.799	2993.62
672.997	3120.59
673.195	3290.57
673.392	3032.53
673.59	2762.2
673.788	3298.77
673.985	2541.02
674.183	2938.32
674.38	2856.4
674.578	3298.77
674.775	2926.04
674.973	2711
675.17	2690.52
675.368	3521.99
675.565	3257.81
675.763	2889.17
675.96	2895.32
676.158	3380.68
676.355	3073.49
676.553	2977.23
676.75	2883.03
676.947	3038.67
677.145	3118.54
677.342	3083.73
677.539	3036.63
677.737	3177.94
677.934	3651.02
678.131	3161.55
678.329	3057.11
678.526	3589.58
678.723	3386.83
678.92	3085.78
679.118	3036.63
679.315	2880.98
679.512	3579.34
679.709	2956.75
679.906	2815.45
680.104	3360.2
680.301	3145.17
680.498	2854.36
680.695	2866.64
680.892	3128.78
681.089	3204.56
681.286	3214.8
681.483	3003.86
681.68	3323.34
681.877	3440.08
682.075	2989.52
682.272	3423.69
682.469	3573.19
682.665	3282.38
682.862	2956.75
683.059	2852.31
683.256	3392.97
683.453	3337.68
683.65	3063.25
683.847	3200.46
684.044	3153.36
684.241	3012.05
684.438	3003.86
684.635	2921.94
684.831	3702.22
685.028	3823.05
685.225	3110.35
685.422	3073.49
685.619	3227.09
685.815	3192.27
686.012	3024.34
686.209	3096.02
686.405	3102.16
686.602	3526.09
686.799	2891.22
686.996	3079.63
687.192	3153.36
687.389	3839.43
687.586	2928.08
687.782	3231.18
687.979	3753.41
688.175	3558.86
688.372	3077.59
688.568	3010
688.765	3298.77
688.962	3655.11
689.158	3196.37
689.355	2897.36
689.551	3511.75
689.748	3259.85
689.944	3259.85
690.14	2899.41
690.337	3618.25
690.533	3409.36
690.73	3462.6
690.926	3202.51
691.123	3630.54
691.319	3470.8
691.515	3057.11
691.712	3241.42
691.908	3378.64
692.104	3585.48
692.301	3349.96
692.497	2948.56
692.693	3624.39
692.889	3642.82
693.086	3395.02
693.282	3063.25
693.478	3397.07
693.674	3958.21
693.87	3429.84
694.067	3102.16
694.263	3544.52
694.459	3413.45
694.655	3268.05
694.851	3292.62
695.047	3689.93
695.243	3556.81
695.439	3397.07
695.635	3241.42
695.831	3493.32
696.027	3519.95
696.224	3231.18
696.42	3595.72
696.615	4023.75
696.811	3708.36
697.007	3216.85
697.203	3296.72
697.399	3626.44
697.595	3794.37
697.791	3210.7
697.987	3401.16
698.183	3126.74
698.379	3259.85
698.575	3315.15
698.77	3620.3
698.966	3741.13
699.162	3849.67
699.358	3507.66
699.554	3296.72
699.749	3839.43
699.945	3876.29
700.141	3515.85
700.337	3380.68
700.532	3642.82
700.728	3397.07
700.924	3382.73
701.119	3315.15
701.315	3741.13
701.511	3532.23
701.706	3464.65
701.902	3278.29
702.097	3548.62
702.293	3777.99
702.489	3382.73
702.684	3392.97
702.88	3569.1
703.075	3560.91
703.271	3487.18
703.466	3335.63
703.662	3651.02
703.857	3685.83
704.053	3438.03
704.248	3380.68
704.443	3823.05
704.639	3816.9
704.834	3505.61
705.03	3282.38
705.225	3876.29
705.42	3937.73
705.616	3573.19
705.811	3245.52
706.006	3593.67
706.202	3528.14
706.397	3546.57
706.592	3380.68
706.787	3792.33
706.983	3739.08
707.178	3757.51
707.373	3579.34
707.568	3757.51
707.763	3831.24
707.959	3343.82
708.154	3413.45
708.349	3792.33
708.544	3716.55
708.739	3876.29
708.934	3374.54
709.129	3958.21
709.324	4048.32
709.519	3319.25
709.714	3499.47
709.909	3970.5
710.104	3978.69
710.299	3511.75
710.494	3603.91
710.689	4054.47
710.884	3753.41
711.079	3593.67
711.274	3745.22
711.469	4003.27
711.664	3732.94
711.859	3392.97
712.054	3634.63
712.249	3941.83
712.443	4195.78
712.638	3427.79
712.833	3503.56
713.028	3818.95
713.223	3827.14
713.417	3757.51
713.612	3542.47
713.807	3937.73
714.002	4451.77
714.196	3855.81
714.391	3483.08
714.586	4033.99
714.78	3798.47
714.975	3544.52
715.17	3714.5
715.364	3685.83
715.559	4140.48
715.754	3335.63
715.948	3675.59
716.143	4308.41
716.337	3907.01
716.532	3872.2
716.726	3565
716.921	4081.09
717.115	4335.04
717.31	3384.78
717.504	4079.04
717.699	3911.11
717.893	4007.36
718.088	3505.61
718.282	3425.74
718.476	3859.91
718.671	3978.69
718.865	3694.02
719.059	3655.11
719.254	3925.44
719.448	4124.1
719.642	5076.4
719.837	3427.79
720.031	4242.88
720.225	4179.39
720.419	3640.78
720.614	3659.21
720.808	4115.91
721.002	3843.53
721.196	3562.95
721.39	3605.96
721.585	4189.63
721.779	4085.19
721.973	3763.65
722.167	3546.57
722.361	4003.27
722.555	4212.16
722.749	3737.03
722.943	3708.36
723.137	3683.78
723.331	4033.99
723.525	3591.63
723.719	3587.53
723.913	4089.28
724.107	4328.89
724.301	3542.47
724.495	3655.11
724.689	4316.61
724.883	4251.07
725.077	3732.94
725.271	3700.17
725.465	4289.98
725.659	3894.72
725.853	3706.31
726.046	3614.15
726.24	3737.03
726.434	4189.63
726.628	3632.58
726.822	3753.41
727.015	4363.71
727.209	4365.76
727.403	3841.48
727.596	3718.6
727.79	4201.92
727.984	4253.12
728.177	3792.33
728.371	3823.05
728.565	4244.93
728.758	3833.29
728.952	3720.65
729.146	3845.57
729.339	4306.37
729.533	4019.65
729.726	3841.48
729.92	3767.75
730.113	4224.45
730.307	4144.58
730.5	3777.99
730.694	3724.74
730.887	3978.69
731.081	4285.89
731.274	3687.88
731.468	3917.25
731.661	4083.14
731.854	4003.27
732.048	3874.24
732.241	3706.31
732.435	3829.19
732.628	4097.47
732.821	3821
733.014	3777.99
733.208	3804.61
733.401	4285.89
733.594	4036.03
733.788	3929.54
733.981	4416.96
734.174	4173.25
734.367	3884.48
734.56	4128.19
734.754	4416.96
734.947	4066.75
735.14	3761.61
735.333	3925.44
735.526	4474.3
735.719	4079.04
735.912	3855.81
736.105	3945.92
736.298	4300.22
736.491	3950.02
736.684	3831.24
736.877	3872.2
737.07	4130.24
737.263	4496.83
737.456	4040.13
737.649	3812.81
737.842	4072.9
738.035	4378.05
738.228	4056.51
738.421	4275.65
738.614	4478.4
738.807	4562.36
739	3698.12
739.192	3890.63
739.385	4175.3
739.578	4328.89
739.771	4396.48
739.964	3884.48
740.156	4314.56
740.349	4126.15
740.542	4099.52
740.735	3843.53
740.927	4085.19
741.12	4064.71
741.313	3954.12
741.505	4201.92
741.698	4406.72
741.891	4386.24
742.083	4156.86
742.276	4005.31
742.468	4371.9
742.661	4265.41
742.854	4085.19
743.046	4038.08
743.239	4539.83
743.431	4130.24
743.624	4163.01
743.816	3925.44
744.009	4371.9
744.201	4376
744.393	4253.12
744.586	3966.4
744.778	4572.6
744.971	4302.27
745.163	4265.41
745.355	4216.26
745.548	4361.66
745.74	4330.94
745.932	4380.09
746.125	4158.91
746.317	4818.36
746.509	4310.46
746.702	4120
746.894	4152.77
747.086	4339.13
747.278	4709.82
747.471	4353.47
747.663	4158.91
747.855	4259.26
748.047	4808.12
748.239	4042.18
748.431	4107.71
748.623	4730.3
748.815	4691.38
749.008	4101.57
749.2	4093.38
749.392	4537.79
749.584	4482.49
749.776	4236.74
749.968	4175.3
750.16	4851.13
750.352	4208.06
750.544	4240.83
750.736	3884.48
750.928	4574.65
751.12	4378.05
751.311	4152.77
751.503	4234.69
751.695	4482.49
751.887	4351.42
752.079	4083.14
752.271	3974.6
752.463	5168.56
752.654	4572.6
752.846	4154.82
753.038	4339.13
753.23	4138.43
753.421	4582.84
753.613	4072.9
753.805	4314.56
753.997	4670.9
754.188	4715.96
754.38	3898.82
754.572	4183.49
754.763	4373.95
754.955	4646.33
755.146	4376
755.338	4365.76
755.53	4541.88
755.721	4388.29
755.913	4023.75
756.104	4060.61
756.296	4357.57
756.487	4584.89
756.679	4005.31
756.87	4240.83
757.062	4246.98
757.253	4611.51
757.445	4156.86
757.636	4388.29
757.827	4416.96
758.019	5090.74
758.21	4097.47
758.401	4195.78
758.593	4924.85
758.784	4711.86
758.975	3966.4
759.167	4040.13
759.358	4490.68
759.549	4722.1
759.74	4140.48
759.932	4193.73
760.123	4634.04
760.314	4269.5
760.505	4249.02
760.696	4281.79
760.888	4916.66
761.079	4484.54
761.27	4146.62
761.461	4054.47
761.652	4818.36
761.843	4363.71
762.034	4308.41
762.225	4355.52
762.416	4494.78
762.607	4453.82
762.798	4146.62
762.989	4255.17
763.18	5207.47
763.371	4365.76
763.562	4179.39
763.753	4216.26
763.944	4701.62
764.135	4740.54
764.326	4402.62
764.517	4187.58
764.708	4502.97
764.899	4398.52
765.089	4228.54
765.28	4117.95
765.471	4574.65
765.662	4429.24
765.853	4195.78
766.043	3943.88
766.234	4820.41
766.425	4474.3
766.615	4302.27
766.806	4044.23
766.997	4842.93
767.187	4605.37
767.378	4144.58
767.569	3964.36
767.759	4548.03
767.95	4578.75
768.141	4363.71
768.331	4097.47
768.522	4464.06
768.712	4601.27
768.903	4216.26
769.093	3999.17
769.284	4779.45
769.474	4736.44
769.665	3859.91
769.855	3888.58
770.046	4642.23
770.236	4380.09
770.426	4341.18
770.617	4079.04
770.807	4631.99
770.998	4441.53
771.188	4242.88
771.378	4052.42
771.569	4564.41
771.759	4445.63
771.949	4126.15
772.139	4025.79
772.33	4408.76
772.52	4797.88
772.71	4115.91
772.9	4038.08
773.09	4842.93
773.281	4791.73
773.471	4183.49
773.661	4152.77
773.851	4707.77
774.041	4445.63
774.231	4265.41
774.421	4281.79
774.611	4773.3
774.802	4355.52
774.992	4285.89
775.182	4031.94
775.372	4326.85
775.562	4758.97
775.752	4332.99
775.942	4208.06
776.131	4865.46
776.321	4609.47
776.511	4085.19
776.701	4081.09
776.891	4873.65
777.081	4083.14
777.271	4208.06
777.461	4169.15
777.651	4529.59
777.84	4736.44
778.03	4294.08
778.22	4185.54
778.41	4754.87
778.599	4218.3
778.789	4220.35
778.979	4113.86
779.169	4330.94
779.358	4296.13
779.548	4640.19
779.738	4101.57
779.927	4443.58
780.117	4249.02
780.307	4150.72
780.496	3950.02
780.686	4480.44
780.875	4820.41
781.065	4068.8
781.254	3999.17
781.444	4203.97
781.633	4509.12
781.823	3921.35
782.012	4140.48
782.202	4195.78
782.391	4404.67
782.581	3874.24
782.77	4322.75
782.96	4480.44
783.149	4306.37
783.338	4132.29
783.528	3816.9
783.717	4619.71
783.906	4515.26
784.096	4199.87
784.285	4060.61
784.474	4058.56
784.663	4109.76
784.853	4130.24
785.042	4109.76
785.231	4136.38
785.42	4660.66
785.61	4294.08
785.799	3964.36
785.988	4365.76
786.177	4365.76
786.366	4070.85
786.555	4234.69
786.744	4625.85
786.933	4341.18
787.122	4011.46
787.312	3868.1
787.501	4199.87
787.69	4494.78
787.879	4183.49
788.068	3990.98
788.257	4083.14
788.445	4316.61
788.634	4085.19
788.823	3855.81
789.012	5100.98
789.201	4879.8
789.39	4187.58
789.579	3859.91
789.768	4371.9
789.957	4332.99
790.145	4036.03
790.334	3796.42
790.523	4380.09
790.712	4306.37
790.9	4220.35
791.089	3864.01
791.278	4533.69
791.467	4369.85
791.655	4253.12
791.844	4502.97
792.033	4163.01
792.221	4289.98
792.41	4076.99
792.599	3990.98
792.787	4466.11
792.976	4556.22
793.164	3925.44
793.353	3929.54
793.541	4517.31
793.73	4445.63
793.918	4230.59
794.107	4148.67
794.295	4527.55
794.484	4222.4
794.672	4074.95
794.861	4132.29
795.049	4457.92
795.238	4842.93
795.426	3968.45
795.614	4230.59
795.803	4486.59
795.991	4765.11
796.179	3917.25
796.368	4040.13
796.556	4650.43
796.744	4093.38
796.932	3988.93
797.121	3978.69
797.309	4390.33
797.497	4548.03
797.685	4132.29
797.874	4009.41
798.062	4257.22
798.25	4685.24
798.438	3976.64
798.626	4019.65
798.814	4470.2
799.002	4961.72
799.19	4214.21
799.378	4070.85
799.566	4801.97
799.755	4660.66
799.943	4423.1
800.131	4103.62
800.318	4376
800.506	4486.59
800.694	4120
800.882	4253.12
801.07	4824.5
801.258	4433.34
801.446	4136.38
801.634	4251.07
801.822	4406.72
802.01	4564.41
802.197	3962.31
802.385	4304.32
802.573	4502.97
802.761	4249.02
802.949	4150.72
803.136	4148.67
803.324	4668.86
803.512	4378.05
803.699	4122.05
803.887	4081.09
804.075	4730.3
804.262	4513.21
804.45	4074.95
804.638	4406.72
804.825	4390.33
805.013	4306.37
805.201	4259.26
805.388	4111.81
805.576	4507.07
805.763	4955.57
805.951	4160.96
806.138	4367.81
806.326	5064.11
806.513	4593.08
806.701	4316.61
806.888	4214.21
807.075	4797.88
807.263	4974
807.45	4300.22
807.638	4634.04
807.825	5150.13
808.012	5029.3
808.2	4410.81
808.387	4662.71
808.574	4707.77
808.761	4906.42
808.949	4396.48
809.136	4404.67
809.323	4584.89
809.51	4638.14
809.698	4691.38
809.885	4855.22
810.072	4781.5
810.259	5002.68
810.446	4595.13
810.633	4343.23
810.82	4961.72
811.008	5178.8
811.195	4711.86
811.382	4578.75
811.569	4933.04
811.756	4431.29
811.943	4599.23
812.13	4300.22
812.317	4584.89
812.504	4693.43
812.691	4642.23
812.878	4644.28
813.064	5139.89
813.251	4828.6
813.438	4502.97
813.625	4744.63
813.812	4605.37
813.999	4658.62
814.186	4664.76
814.372	4595.13
814.559	4754.87
814.746	5146.03
814.933	4672.95
815.12	4703.67
815.306	4613.56
815.493	4605.37
815.68	4494.78
815.866	4539.83
816.053	5182.9
816.24	5410.22
816.426	4709.82
816.613	4496.83
816.799	5029.3
816.986	5131.7
817.173	4529.59
817.359	4478.4
817.546	4941.24
817.732	4586.94
817.919	4351.42
818.105	4834.74
818.292	4976.05
818.478	4849.08
818.665	4765.11
818.851	4435.39
819.037	5340.59
819.224	4943.28
819.41	4490.68
819.597	4447.68
819.783	5275.06
819.969	4842.93
820.156	4615.61
820.342	4453.82
820.528	5621.16
820.714	4857.27
820.901	4806.07
821.087	4431.29
821.273	5322.16
821.459	4795.83
821.646	4584.89
821.832	4478.4
822.018	4877.75
822.204	4613.56
822.39	4591.03
822.576	4545.98
822.762	4984.24
822.948	4668.86
823.134	4994.48
823.32	4447.68
823.507	4449.72
823.693	4949.43
823.879	5027.25
824.065	4552.12
824.25	4847.03
824.436	4726.2
824.622	4718.01
824.808	4455.87
824.994	4718.01
825.18	4646.33
825.366	4488.64
825.552	4507.07
825.738	4806.07
825.923	4887.99
826.109	4804.02
826.295	4511.16
826.481	4611.51
826.667	4662.71
826.852	4662.71
827.038	4492.73
827.224	5088.69
827.409	5256.62
827.595	4431.29
827.781	4660.66
827.966	5027.25
828.152	5064.11
828.338	4552.12
828.523	4322.75
828.709	4679.1
828.894	5170.61
829.08	4783.54
829.266	4462.01
829.451	4552.12
829.637	5076.4
829.822	4572.6
830.008	4613.56
830.193	5039.54
830.378	5211.57
830.564	4756.92
830.749	4310.46
830.935	4836.79
831.12	4801.97
831.305	4433.34
831.491	4623.8
831.676	4572.6
831.861	4910.52
832.047	4586.94
832.232	4269.5
832.417	5000.63
832.602	4638.14
832.788	4451.77
832.973	4468.16
833.158	4793.78
833.343	4892.09
833.528	4662.71
833.714	4625.85
833.899	4949.43
834.084	5330.35
834.269	4685.24
834.454	4431.29
834.639	4914.61
834.824	4855.22
835.009	4560.31
835.194	4687.29
835.379	4941.24
835.564	5139.89
835.749	4531.64
835.934	4380.09
836.119	4881.85
836.304	4720.06
836.489	4488.64
836.674	4842.93
836.859	4449.72
837.044	5088.69
837.228	4498.88
837.413	4408.76
837.598	4871.61
837.783	5092.79
837.968	4537.79
838.152	4273.6
838.337	4404.67
838.522	5137.84
838.707	4875.7
838.891	4715.96
839.076	4924.85
839.261	5019.06
839.445	4529.59
839.63	4566.46
839.815	5010.87
839.999	4666.81
840.184	4445.63
840.368	4443.58
840.553	4769.21
840.737	4752.82
840.922	4472.25
841.106	4343.23
841.291	4343.23
841.475	4666.81
841.66	4472.25
841.844	4462.01
842.029	5490.09
842.213	4404.67
842.397	4580.79
842.582	4253.12
842.766	4761.02
842.951	5025.2
843.135	4404.67
843.319	4474.3
843.504	4691.38
843.688	5027.25
843.872	4312.51
844.056	4429.24
844.241	4875.7
844.425	4644.28
844.609	4691.38
844.793	4335.04
844.977	5014.96
845.161	4765.11
845.346	4232.64
845.53	4214.21
845.714	4695.48
845.898	5076.4
846.082	4160.96
846.266	4369.85
846.45	4656.57
846.634	4623.8
846.818	4201.92
847.002	4697.53
847.186	4683.19
847.37	4359.61
847.554	4318.65
847.738	4439.48
847.922	4769.21
848.106	4701.62
848.29	4220.35
848.473	4308.41
848.657	4775.35
848.841	4404.67
849.025	4410.81
849.209	4195.78
849.392	4881.85
849.576	4662.71
849.76	4095.43
849.944	4468.16
850.127	4916.66
850.311	4382.14
850.495	4165.06
850.678	4085.19
850.862	4939.19
851.046	4920.76
851.229	4541.88
851.413	4101.57
851.596	4574.65
851.78	4548.03
851.964	4396.48
852.147	4341.18
852.331	5254.58
852.514	4863.41
852.698	4361.66
852.881	4236.74
853.065	4978.1
853.248	4449.72
853.431	4283.84
853.615	4335.04
853.798	5109.17
853.982	4724.15
854.165	4376
854.348	4355.52
854.532	4396.48
854.715	4496.83
854.898	4496.83
855.081	4230.59
855.265	4806.07
855.448	4879.8
855.631	4122.05
855.814	4361.66
855.997	4859.32
856.181	4439.48
856.364	4312.51
856.547	4136.38
856.73	4517.31
856.913	4562.36
857.096	4169.15
857.279	4330.94
857.462	4390.33
857.645	4808.12
857.828	4285.89
858.011	4435.39
858.194	4320.7
858.377	4816.31
858.56	4095.43
858.743	4160.96
858.926	4318.65
859.109	4531.64
859.292	4177.34
859.475	4136.38
859.658	4550.07
859.841	4605.37
860.023	4013.51
860.206	4126.15
860.389	4580.79
860.572	4763.06
860.755	4253.12
860.937	4136.38
861.12	4351.42
861.303	4550.07
861.486	4154.82
861.668	4165.06
861.851	4615.61
862.034	4449.72
862.216	4185.54
862.399	3884.48
862.581	4466.11
862.764	4801.97
862.947	4068.8
863.129	4048.32
863.312	4214.21
863.494	4773.3
863.677	4423.1
863.859	3878.34
864.042	4462.01
864.224	4806.07
864.406	4201.92
864.589	3900.87
864.771	4363.71
864.954	4066.75
865.136	4001.22
865.318	3954.12
865.501	4631.99
865.683	3988.93
865.865	4152.77
866.048	4089.28
866.23	4312.51
866.412	4257.22
866.594	3839.43
866.777	4115.91
866.959	4560.31
867.141	4138.43
867.323	4154.82
867.505	4150.72
867.687	4339.13
867.869	4351.42
868.052	4021.7
868.234	3896.77
868.416	4300.22
868.598	4292.03
868.78	3892.68
868.962	4040.13
869.144	4554.17
869.326	4402.62
869.508	4044.23
869.69	3917.25
869.872	4107.71
870.054	4554.17
870.236	3786.18
870.417	3876.29
870.599	4154.82
870.781	4707.77
870.963	4208.06
871.145	4066.75
871.327	4046.27
871.508	4496.83
871.69	3995.08
871.872	3935.68
872.054	4292.03
872.235	4406.72
872.417	4210.11
872.599	3726.79
872.78	4646.33
872.962	4453.82
873.144	3837.38
873.325	4109.76
873.507	4771.26
873.689	4437.44
873.87	3970.5
874.052	4142.53
874.233	4328.89
874.415	4623.8
874.596	4048.32
874.778	4001.22
874.959	4550.07
875.141	4636.09
875.322	4044.23
875.503	4042.18
875.685	4421.05
875.866	4046.27
876.048	3984.84
876.229	4048.32
876.41	4279.74
876.592	4502.97
876.773	4001.22
876.954	3855.81
877.136	4763.06
877.317	4320.7
877.498	3847.62
877.679	4091.33
877.86	4490.68
878.042	4236.74
878.223	4056.51
878.404	4445.63
878.585	4484.54
878.766	4816.31
878.947	4240.83
879.128	4349.37
879.309	4625.85
879.49	4527.55
879.672	4324.8
879.853	4208.06
880.034	4214.21
880.215	4437.44
880.396	4160.96
880.576	4289.98
880.757	4406.72
880.938	4945.33
881.119	4183.49
881.3	4072.9
881.481	4310.46
881.662	5318.06
881.843	4072.9
882.023	4056.51
882.204	4584.89
882.385	4584.89
882.566	4312.51
882.747	4234.69
882.927	4445.63
883.108	4603.32
883.289	4226.5
883.469	4666.81
883.65	4488.64
883.831	4513.21
884.011	4535.74
884.192	4474.3
884.373	4750.78
884.553	4824.5
884.734	4570.55
884.914	4625.85
885.095	5432.75
885.275	4988.34
885.456	4681.14
885.636	4113.86
885.817	4672.95
885.997	4646.33
886.178	4345.28
886.358	4582.84
886.538	4857.27
886.719	5686.7
886.899	4537.79
887.08	4625.85
887.26	4890.04
887.44	4574.65
887.621	4240.83
887.801	4722.1
887.981	5367.21
888.161	5092.79
888.342	4521.4
888.522	4627.9
888.702	5100.98
888.882	5221.81
889.062	4834.74
889.242	4244.93
889.423	5189.04
889.603	4953.52
889.783	4820.41
889.963	4584.89
890.143	5139.89
890.323	5205.42
890.503	4648.38
890.683	4605.37
890.863	4711.86
891.043	4924.85
891.223	4535.74
891.403	4865.46
891.583	4771.26
891.763	4943.28
891.943	4863.41
892.122	4578.75
892.302	4883.89
892.482	4840.89
892.662	4777.4
892.842	4779.45
893.022	4953.52
893.201	4713.91
893.381	4672.95
893.561	4666.81
893.741	4963.76
893.92	5100.98
894.1	4840.89
894.28	4662.71
894.459	5156.27
894.639	5039.54
894.819	4582.84
894.998	4724.15
895.178	5035.44
895.357	5076.4
895.537	4666.81
895.716	4746.68
895.896	5033.4
896.075	5326.25
896.255	4750.78
896.434	4443.58
896.614	4984.24
896.793	5172.66
896.973	4715.96
897.152	4990.39
897.331	5117.36
897.511	5121.46
897.69	4431.29
897.87	4879.8
898.049	5143.99
898.228	5039.54
898.407	4961.72
898.587	4859.32
898.766	4828.6
898.945	5201.33
899.124	4867.51
899.304	4990.39
899.483	5074.35
899.662	5420.46
899.841	4519.36
900.02	4718.01
900.199	5365.17
900.378	5092.79
900.557	4597.18
900.737	4580.79
900.916	4961.72
901.095	5164.47
901.274	4904.37
901.453	4511.16
901.632	4769.21
901.811	4773.3
901.989	4568.51
902.168	4541.88
902.347	5225.9
902.526	4873.65
902.705	4730.3
902.884	4722.1
903.063	5242.29
903.242	5133.75
903.42	4675
903.599	4767.16
903.778	5219.76
903.957	5246.38
904.135	4914.61
904.314	4629.95
904.493	4924.85
904.672	5068.21
904.85	4687.29
905.029	4554.17
905.207	5039.54
905.386	5514.67
905.565	4470.2
905.743	4670.9
905.922	4656.57
906.1	5092.79
906.279	4449.72
906.457	4560.31
906.636	4799.93
906.814	4720.06
906.993	4556.22
907.171	4476.35
907.35	5017.01
907.528	4945.33
907.707	4842.93
907.885	4343.23
908.063	5268.91
908.242	4576.7
908.42	4705.72
908.598	4298.17
908.777	5014.96
908.955	4679.1
909.133	4505.02
909.311	4595.13
909.49	4652.47
909.668	4814.26
909.846	4421.05
910.024	4396.48
910.202	4750.78
910.38	4838.84
910.559	4273.6
910.737	4412.86
910.915	4728.25
911.093	4806.07
911.271	4470.2
911.449	4795.83
911.627	4742.58
911.805	5238.19
911.983	4558.27
912.161	4396.48
912.339	4724.15
912.517	4892.09
912.695	4474.3
912.872	4382.14
913.05	4306.37
913.228	4638.14
913.406	4394.43
913.584	4232.64
913.762	4703.67
913.939	4267.45
914.117	4183.49
914.295	4263.36
914.473	4578.75
914.65	4359.61
914.828	4314.56
915.006	4144.58
915.184	4283.84
915.361	4687.29
915.539	4449.72
915.716	4380.09
915.894	4670.9
916.072	4763.06
916.249	4412.86
916.427	4357.57
916.604	4359.61
916.782	4425.15
916.959	4060.61
917.137	4240.83
917.314	4539.83
917.492	4513.21
917.669	4302.27
917.847	4330.94
918.024	4527.55
918.201	4425.15
918.379	4224.45
918.556	4117.95
918.733	4601.27
918.911	4269.5
919.088	4269.5
919.265	3962.31
919.442	4373.95
919.62	4359.61
919.797	4029.89
919.974	3964.36
920.151	4449.72
920.328	4208.06
920.506	3974.6
920.683	4257.22
920.86	4007.36
921.037	4044.23
921.214	4095.43
921.391	3982.79
921.568	4431.29
921.745	4019.65
921.922	4079.04
922.099	3726.79
922.276	4433.34
922.453	4355.52
922.63	3958.21
922.807	4224.45
922.984	3995.08
923.161	4056.51
923.338	3904.96
923.514	3857.86
923.691	4056.51
923.868	4376
924.045	3714.5
924.222	3653.06
924.399	4203.97
924.575	4158.91
924.752	3743.17
924.929	3804.61
925.105	4048.32
925.282	3894.72
925.459	3745.22
925.635	3747.27
925.812	3929.54
925.989	3870.15
926.165	3708.36
926.342	3694.02
926.518	3800.52
926.695	3870.15
926.871	3667.4
927.048	3390.92
927.224	4019.65
927.401	3732.94
927.577	3605.96
927.754	3435.98
927.93	3999.17
928.107	4019.65
928.283	3456.46
928.459	3491.27
928.636	3812.81
928.812	3794.37
928.988	3429.84
929.165	3356.11
929.341	3632.58
929.517	3800.52
929.693	3794.37
929.87	3196.37
930.046	3818.95
930.222	3524.04
930.398	3370.44
930.574	3409.36
930.751	3622.34
930.927	3399.12
931.103	3337.68
931.279	3415.5
931.455	3347.92
931.631	3661.26
931.807	3157.46
931.983	3169.74
932.159	3263.95
932.335	3515.85
932.511	3296.72
932.687	3212.75
932.863	3540.43
933.039	3347.92
933.215	3163.6
933.391	2903.51
933.566	3177.94
933.742	3268.05
933.918	3134.93
934.094	2848.21
934.27	3227.09
934.445	3358.16
934.621	2999.76
934.797	2958.8
934.973	3362.25
935.148	3069.39
935.324	2647.51
935.5	2676.18
935.675	3425.74
935.851	3104.21
936.027	2809.3
936.202	2731.48
936.378	2956.75
936.553	2807.25
936.729	2960.85
936.904	2432.47
937.08	2448.86
937.255	2612.7
937.431	2391.52
937.606	2233.82
937.782	2487.77
937.957	2618.84
938.133	2364.89
938.308	2119.14
938.483	2364.89
938.659	2360.8
938.834	2299.36
939.009	2065.89
939.185	2270.69
939.36	2092.51
939.535	1719.78
939.71	2147.81
939.886	2473.43
940.061	2409.95
940.236	2098.66
940.411	2053.6
940.586	2260.45
940.761	2285.02
940.937	1902.05
941.112	1770.98
941.287	2096.61
941.462	2102.75
941.637	1742.31
941.812	1764.84
941.987	2104.8
942.162	2004.45
942.337	1924.58
942.512	1738.21
942.687	2137.57
942.862	2069.98
943.037	1476.07
943.212	1439.21
943.386	1811.94
943.561	1963.49
943.736	1945.06
943.911	1936.87
944.086	2049.5
944.26	2051.55
944.435	1738.21
944.61	1807.84
944.785	2139.62
944.959	2381.28
945.134	1676.77
945.309	1574.38
945.483	1619.43
945.658	2262.49
945.833	1390.06
946.007	1496.55
946.182	2274.78
946.357	1562.09
946.531	1625.58
946.706	1517.03
946.88	1414.63
947.055	1822.18
947.229	1568.23
947.404	1646.05
947.578	1992.16
947.752	1795.56
947.927	1412.59
948.101	1367.53
948.276	1873.38
948.45	1930.72
948.624	1734.12
948.799	1474.03
948.973	1852.9
949.147	1621.48
949.321	1605.1
949.496	1512.94
949.67	2086.37
949.844	1777.12
950.018	1689.06
950.193	1537.51
950.367	2422.24
950.541	1791.46
950.715	1740.26
950.889	1721.83
951.063	1689.06
951.237	1904.1
951.411	1424.87
951.585	1476.07
951.759	1947.11
951.933	1852.9
952.107	1596.9
952.281	1754.6
952.455	2153.95
952.629	2127.33
952.803	1492.46
952.977	1568.23
953.151	1934.82
953.325	2016.74
953.499	1775.08
953.672	1467.88
953.846	1619.43
954.02	1680.87
954.194	1535.46
954.368	1439.21
954.541	1891.81
954.715	1682.92
954.889	1557.99
955.062	1508.84
955.236	1703.4
955.41	1732.07
955.583	1701.35
955.757	1388.01
955.93	1785.32
956.104	1465.83
956.278	1551.85
956.451	1521.13
956.625	1961.44
956.798	2205.15
956.972	1693.16
957.145	1480.17
957.319	1766.89
957.492	1809.89
957.665	1697.25
957.839	1457.64
958.012	1934.82
958.185	1684.97
958.359	1533.42
958.532	1770.98
958.705	1930.72
958.879	1920.48
959.052	1601
959.225	1398.25
959.398	1676.77
959.572	1791.46
959.745	1510.89
959.918	1592.81
960.091	1756.65
960.264	1889.76
960.438	1428.97
960.611	1490.41
960.784	1830.37
960.957	1502.7
961.13	1824.23
961.303	1435.11
961.476	1754.6
961.649	1996.26
961.822	1324.52
961.995	1629.67
962.168	1795.56
962.341	1766.89
962.514	1560.04
962.686	1502.7
962.859	1775.08
963.032	2002.4
963.205	1463.79
963.378	1455.59
963.551	1779.17
963.723	1697.25
963.896	1527.27
964.069	1734.12
964.242	1773.03
964.414	1945.06
964.587	1588.71
964.76	1658.34
964.932	1871.33
965.105	1703.4
965.278	1502.7
965.45	1465.83
965.623	1836.52
965.795	1846.76
965.968	1465.83
966.14	1488.36
966.313	1717.73
966.485	1734.12
966.658	1506.79
966.83	1428.97
967.003	1930.72
967.175	1963.49
967.348	1480.17
967.52	1422.83
967.692	2129.38
967.865	1836.52
968.037	1553.9
968.209	1654.25
968.382	1754.6
968.554	1943.01
968.726	1433.07
968.898	1338.86
969.071	1859.04
969.243	1783.27
969.415	1390.06
969.587	1474.03
969.759	2205.15
969.932	1934.82
970.104	1533.42
970.276	1136.11
970.448	1586.66
970.62	1533.42
970.792	1621.48
970.964	1422.83
971.136	2219.49
971.308	1863.14
971.48	1463.79
971.652	1404.39
971.824	2049.5
971.996	1623.53
972.168	1453.55
972.339	1459.69
972.511	1934.82
972.683	1621.48
972.855	1639.91
973.027	1525.22
973.199	1570.28
973.37	1850.85
973.542	1541.61
973.714	1586.66
973.886	1639.91
974.057	1951.2
974.229	1324.52
974.401	1420.78
974.572	1340.91
974.744	1189.36
974.915	1224.17
975.087	1289.71
975.259	1951.2
975.43	1377.77
975.602	1322.48
975.773	1295.85
975.945	1465.83
976.116	1779.17
976.288	1205.74
976.459	1660.39
976.63	1545.7
976.802	1594.86
976.973	1287.66
977.145	1490.41
977.316	1971.68
977.487	1598.95
977.659	1469.93
977.83	1396.2
978.001	1842.66
978.172	1678.82
978.344	1302
978.515	1316.33
978.686	1541.61
978.857	1992.16
979.028	1224.17
979.2	1226.22
979.371	1879.52
979.542	1555.94
979.713	1502.7
979.884	894.45
980.055	1439.21
980.226	1523.18
980.397	1252.84
980.568	1150.45
980.739	1914.34
980.91	1455.59
981.081	1304.04
981.252	1117.68
981.423	1703.4
981.594	1662.44
981.765	1158.64
981.936	1461.74
982.106	1500.65
982.277	1795.56
982.448	1240.56
982.619	1529.32
982.79	1551.85
982.96	1799.65
983.131	1461.74
983.302	1144.3
983.472	1306.09
983.643	1521.13
983.814	1480.17
983.984	1412.59
984.155	1406.44
984.326	1664.49
984.496	1328.62
984.667	1185.26
984.837	1285.61
985.008	1797.6
985.178	1371.63
985.349	1230.32
985.519	1420.78
985.69	1209.84
985.86	1250.8
986.031	1252.84
986.201	1570.28
986.371	1549.8
986.542	1148.4
986.712	959.99
986.882	1553.9
987.053	1574.38
987.223	1150.45
987.393	1267.18
987.563	1349.1
987.734	1474.03
987.904	1469.93
988.074	1224.17
988.244	1494.51
988.414	1119.73
988.585	1119.73
988.755	1310.19
988.925	1349.1
989.095	1805.8
989.265	1162.73
989.435	1142.25
989.605	1586.66
989.775	1467.88
989.945	1455.59
990.115	1058.29
990.285	1377.77
990.455	1455.59
990.625	1168.88
990.795	1125.87
990.965	1660.39
991.134	1103.34
991.304	1037.81
991.474	982.51
991.644	1410.54
991.814	1779.17
991.984	1134.06
992.153	1017.33
992.323	1234.41
992.493	1383.91
992.662	818.68
992.832	1242.61
993.002	1404.39
993.171	1398.25
993.341	947.7
993.511	1224.17
993.68	1181.17
993.85	1455.59
994.019	951.79
994.189	968.18
994.358	1340.91
994.528	1213.93
994.697	691.7
994.867	923.12
995.036	1519.08
995.206	1164.78
995.375	941.55
995.544	1183.21
995.714	1402.35
995.883	1238.51
996.052	1201.65
996.222	869.87
996.391	1764.84
996.56	1308.14
996.73	851.44
996.899	837.11
997.068	1598.95
997.237	1222.13
997.406	851.44
997.576	732.66
997.745	1263.08
997.914	1414.63
998.083	785.91
998.252	896.5
998.421	1234.41
998.59	1031.66
998.759	843.25
998.928	787.96
999.097	1521.13
999.266	1238.51
999.435	1046
999.604	677.37
999.773	1824.23
999.942	1138.16
1000.111	681.46
1000.28	693.75
1000.448	906.74
1000.617	1005.04
1000.786	1009.14
1000.955	771.57
1001.124	1213.93
1001.292	1871.33
1001.461	767.48
1001.63	804.34
1001.798	1506.79
1001.967	1447.4
1002.136	771.57
1002.304	687.61
1002.473	1322.48
1002.642	1166.83
1002.81	806.39
1002.979	753.14
1003.147	1252.84
1003.316	1717.73
1003.484	808.44
1003.653	730.61
1003.821	1394.15
1003.99	1093.1
1004.158	898.55
1004.327	783.86
1004.495	1197.55
1004.663	886.26
1004.832	837.11
1005	605.69
1005.168	1308.14
1005.337	1166.83
1005.505	634.36
1005.673	933.36
1005.842	1191.41
1006.01	1201.65
1006.178	744.95
1006.346	771.57
1006.514	1279.47
1006.683	1291.76
1006.851	747
1007.019	589.3
1007.187	855.54
1007.355	583.16
1007.523	642.55
1007.691	665.08
1007.859	738.8
1008.027	1398.25
1008.195	744.95
1008.363	579.06
1008.531	1252.84
1008.699	1029.62
1008.867	452.09
1009.035	667.13
1009.203	1365.48
1009.37	1029.62
1009.538	695.8
1009.706	1076.72
1009.874	1070.58
1010.042	1017.33
1010.209	638.45
1010.377	622.07
1010.545	1205.74
1010.713	1048.05
1010.88	554.49
1011.048	644.6
1011.216	927.22
1011.383	1263.08
1011.551	544.25
1011.718	599.54
1011.886	1201.65
1012.054	906.74
1012.221	597.49
1012.389	718.33
1012.556	849.4
1012.724	1326.57
1012.891	710.13
1013.058	423.42
1013.226	1031.66
1013.393	1220.08
1013.561	382.46
1013.728	443.9
1013.895	1142.25
1014.063	996.85
1014.23	454.14
1014.397	581.11
1014.565	1091.06
1014.732	873.97
1014.899	447.99
1015.066	425.47
1015.233	972.27
1015.401	1113.58
1015.568	538.1
1015.735	660.98
1015.902	830.96
1016.069	962.03
1016.236	497.14
1016.403	525.82
1016.57	669.17
1016.737	1129.97
1016.904	546.3
1017.071	441.85
1017.238	749.04
1017.405	992.75
1017.572	529.91
1017.739	630.26
1017.906	1070.58
1018.073	1103.34
1018.24	378.36
1018.407	593.4
1018.573	1156.59
1018.74	873.97
1018.907	677.37
1019.074	384.51
1019.241	1070.58
1019.407	968.18
1019.574	425.47
1019.741	386.55
1019.907	939.51
1020.074	1013.23
1020.241	220.67
1020.407	347.64
1020.574	998.9
1020.74	853.49
1020.907	527.86
1021.073	499.19
1021.24	1367.53
1021.406	1144.3
1021.573	386.55
1021.739	564.73
1021.906	927.22
1022.072	892.4
1022.239	507.38
1022.405	402.94
1022.571	988.66
1022.738	611.83
1022.904	419.32
1023.07	482.81
1023.237	841.2
1023.403	1021.42
1023.569	452.09
1023.735	443.9
1023.902	765.43
1024.068	947.7
1024.234	372.22
1024.4	366.07
1024.566	851.44
1024.732	906.74
1024.898	376.31
1025.065	155.13
1025.231	986.61
1025.397	665.08
1025.563	480.76
1025.729	318.97
1025.895	409.08
1026.061	558.58
1026.227	206.33
1026.392	431.61
1026.558	1025.52
1026.724	910.83
1026.89	384.51
1027.056	374.27
1027.222	783.86
1027.388	634.36
1027.553	284.16
1027.719	278.01
1027.885	1009.14
1028.051	800.24
1028.216	173.57
1028.382	308.73
1028.548	906.74
1028.713	521.72
1028.879	214.52
1029.045	388.6
1029.21	1025.52
1029.376	957.94
1029.541	384.51
1029.707	302.59
1029.873	867.83
1030.038	790
1030.204	310.78
1030.369	398.84
1030.534	919.03
1030.7	566.78
1030.865	302.59
1031.031	251.39
1031.196	665.08
1031.361	757.24
1031.527	230.91
1031.692	267.77
1031.857	261.63
1032.023	962.03
1032.188	228.86
1032.353	304.64
1032.518	964.08
1032.684	734.71
1032.849	52.74
1033.014	378.36
1033.179	867.83
1033.344	818.68
1033.509	312.83
1033.674	251.39
1033.839	839.16
1034.004	757.24
1034.17	267.77
1034.335	216.57
1034.5	476.66
1034.664	427.51
1034.829	165.37
1034.994	302.59
1035.159	681.46
1035.324	706.04
1035.489	175.61
1035.654	212.48
1035.819	947.7
1035.984	634.36
1036.148	316.92
1036.313	294.4
1036.478	890.35
1036.643	587.26
1036.807	224.76
1036.972	151.04
1037.137	937.46
1037.301	620.02
1037.466	79.36
1037.631	298.49
1037.795	857.59
1037.96	714.23
1038.124	425.47
1038.289	50.69
1038.454	740.85
1038.618	665.08
1038.783	146.94
1038.947	239.1
1039.111	572.92
1039.276	554.49
1039.44	249.34
1039.605	663.03
1039.769	503.29
1039.933	493.05
1040.098	298.49
1040.262	423.42
1040.426	882.16
1040.591	777.72
1040.755	185.85
1040.919	243.2
1041.083	732.66
1041.248	628.21
1041.412	87.55
1041.576	105.98
1041.74	474.62
1041.904	771.57
1042.068	46.59
1042.232	159.23
1042.397	730.61
1042.561	626.17
1042.725	22.02
1042.889	325.12
1043.053	800.24
1043.217	660.98
1043.381	314.88
1043.544	-37.38
1043.708	775.67
1043.872	329.21
1044.036	-107.01
1044.2	-14.85
1044.364	785.91
1044.528	873.97
1044.691	1508.84
1044.855	36.35
1045.019	753.14
1045.183	626.17
1045.346	259.58
1045.51	99.84
1045.674	677.37
1045.837	689.65
1046.001	171.52
1046.165	112.13
1046.328	1111.54
1046.492	611.83
1046.655	327.16
1046.819	159.23
1046.983	374.27
1047.146	624.12
1047.31	210.43
1047.473	17.92
1047.636	568.82
1047.8	407.03
1047.963	222.72
1048.127	30.21
1048.29	271.87
