Data from Ink_Intensity_USB4F045381__109__00109.txt Node

Date: Mon Jul 17 11:07:46 EDT 2023
User: mmckonesweet
Spectrometer: USB4F04538
Trigger mode: 4
Integration Time (sec): 9.000000E-1
Scans to average: 1
Electric dark correction enabled: true
Nonlinearity correction enabled: false
Boxcar width: 0
XAxis mode: Wavelengths
Number of Pixels in Spectrum: 3648
>>>>>Begin Spectral Data<<<<<
345.52	-1035.25
345.736	-1035.25
345.952	-1035.25
346.168	-1061.87
346.384	-1047.54
346.6	-150.53
346.816	-216.06
347.032	-236.54
347.248	353.27
347.464	-244.73
347.68	-142.33
347.896	152.57
348.112	408.57
348.328	-93.18
348.544	-70.65
348.76	-9.22
348.975	248.83
349.191	-257.02
349.407	-156.67
349.623	-5.12
349.839	-97.28
350.055	-132.09
350.27	121.85
350.486	140.29
350.702	359.42
350.918	189.44
351.133	-154.62
351.349	154.62
351.565	297.98
351.781	-271.36
351.996	-5.12
352.212	275.45
352.428	-168.96
352.644	-183.29
352.859	-197.63
353.075	275.45
353.291	134.14
353.506	-125.95
353.722	-287.74
353.938	-109.57
354.153	381.95
354.369	17.41
354.584	-216.06
354.8	201.72
355.016	-334.84
355.231	-220.16
355.447	-107.52
355.662	105.47
355.878	791.54
356.093	-402.43
356.309	-23.55
356.524	-257.02
356.74	252.92
356.955	-320.51
357.171	-33.79
357.386	209.92
357.602	-248.83
357.817	-87.04
358.033	-166.91
358.248	359.42
358.464	111.61
358.679	-173.05
358.895	-326.65
359.11	29.7
359.325	277.5
359.541	9.22
359.756	5.12
359.972	-250.88
360.187	283.64
360.402	-209.92
360.618	-240.64
360.833	949.23
361.048	84.99
361.264	-195.58
361.479	-181.25
361.694	-33.79
361.909	193.53
362.125	-201.72
362.34	-175.1
362.555	218.11
362.77	58.37
362.986	-377.85
363.201	-205.82
363.416	189.44
363.631	-5.12
363.847	-166.91
364.062	-158.72
364.277	226.3
364.492	82.94
364.707	-218.11
364.922	-447.48
365.138	242.68
365.353	271.36
365.568	-314.36
365.783	-162.81
365.998	72.7
366.213	599.03
366.428	-216.06
366.643	-48.13
366.858	265.21
367.073	181.25
367.288	-203.77
367.503	-259.07
367.718	33.79
367.933	324.6
368.148	-304.12
368.363	-101.37
368.578	-48.13
368.793	443.39
369.008	-275.45
369.223	-248.83
369.438	209.92
369.653	418.81
369.868	-336.89
370.083	-195.58
370.298	64.51
370.513	273.4
370.728	23.55
370.943	-181.25
371.157	-109.57
371.372	476.15
371.587	-257.02
371.802	-257.02
372.017	13.31
372.232	375.8
372.446	-48.13
372.661	-295.93
372.876	267.26
373.091	195.58
373.306	-144.38
373.52	-259.07
373.735	-150.53
373.95	310.27
374.165	-105.47
374.379	-107.52
374.594	-109.57
374.809	68.61
375.023	3.07
375.238	-232.44
375.453	254.97
375.667	-246.78
375.882	-31.74
376.097	-211.96
376.311	82.94
376.526	-9.22
376.741	-230.4
376.955	58.37
377.17	545.78
377.384	541.69
377.599	-64.51
377.813	-283.64
378.028	680.95
378.242	199.68
378.457	-97.28
378.672	-402.43
378.886	119.81
379.101	58.37
379.315	-263.16
379.53	-220.16
379.744	300.03
379.958	244.73
380.173	-214.01
380.387	-230.4
380.602	179.2
380.816	-119.81
381.031	-211.96
381.245	-166.91
381.459	171.01
381.674	1704.93
381.888	-261.12
382.103	91.13
382.317	-203.77
382.531	451.58
382.746	-80.89
382.96	-183.29
383.174	-152.57
383.388	398.33
383.603	-5.12
383.817	-281.6
384.031	179.2
384.246	400.38
384.46	41.98
384.674	322.56
384.888	13.31
385.103	162.81
385.317	-297.98
385.531	-64.51
385.745	310.27
385.959	310.27
386.174	-173.05
386.388	-230.4
386.602	17.41
386.816	-142.33
387.03	-109.57
387.244	-164.86
387.458	115.71
387.672	402.43
387.887	-283.64
388.101	-347.13
388.315	322.56
388.529	119.81
388.743	-125.95
388.957	-179.2
389.171	310.27
389.385	-142.33
389.599	-150.53
389.813	54.27
390.027	160.77
390.241	566.26
390.455	-199.68
390.669	-109.57
390.883	-52.22
391.097	283.64
391.311	5.12
391.525	-164.86
391.738	193.53
391.952	160.77
392.166	-50.18
392.38	-236.54
392.594	318.46
392.808	271.36
393.022	-39.94
393.236	-162.81
393.449	226.3
393.663	95.23
393.877	-334.84
394.091	-132.09
394.305	-109.57
394.518	-115.71
394.732	-353.27
394.946	-187.39
395.16	400.38
395.373	130.05
395.587	-201.72
395.801	-150.53
396.015	259.07
396.228	168.96
396.442	-199.68
396.656	-345.08
396.869	336.89
397.083	412.67
397.297	-134.14
397.51	-97.28
397.724	367.61
397.938	146.43
398.151	-300.03
398.365	-259.07
398.578	205.82
398.792	328.7
399.005	-29.7
399.219	-140.29
399.433	240.64
399.646	140.29
399.86	25.6
400.073	-84.99
400.287	156.67
400.5	-66.56
400.714	60.42
400.927	-99.33
401.141	234.49
401.354	1094.64
401.567	197.63
401.781	-328.7
401.994	224.25
402.208	625.65
402.421	-128
402.635	-113.66
402.848	35.84
403.061	367.61
403.275	-11.26
403.488	-240.64
403.701	431.1
403.915	228.35
404.128	-50.18
404.341	-166.91
404.555	244.73
404.768	50.18
404.981	-76.8
405.195	-164.86
405.408	537.59
405.621	304.12
405.834	-52.22
406.048	-232.44
406.261	406.52
406.474	570.36
406.687	-232.44
406.9	29.7
407.114	21.5
407.327	168.96
407.54	-297.98
407.753	-302.08
407.966	-130.05
408.179	201.72
408.392	-117.76
408.605	-318.46
408.819	158.72
409.032	185.34
409.245	-160.77
409.458	25.6
409.671	236.54
409.884	173.05
410.097	-318.46
410.31	-25.6
410.523	211.96
410.736	23.55
410.949	-68.61
411.162	-115.71
411.375	447.48
411.588	250.88
411.801	1.02
412.014	-265.21
412.227	-3.07
412.44	-7.17
412.653	-263.16
412.865	-13.31
413.078	295.93
413.291	193.53
413.504	-95.23
413.717	-246.78
413.93	271.36
414.143	-107.52
414.356	-107.52
414.568	-283.64
414.781	281.6
414.994	138.24
415.207	-93.18
415.42	-19.46
415.632	263.16
415.845	521.21
416.058	-228.35
416.271	-230.4
416.483	84.99
416.696	513.02
416.909	-175.1
417.121	-138.24
417.334	283.64
417.547	603.13
417.759	-146.43
417.972	-232.44
418.185	9.22
418.397	275.45
418.61	-121.85
418.823	-156.67
419.035	390.14
419.248	44.03
419.46	-56.32
419.673	-60.42
419.885	263.16
420.098	7.17
420.311	-220.16
420.523	-355.32
420.736	195.58
420.948	132.09
421.161	-91.13
421.373	-328.7
421.586	177.15
421.798	-93.18
422.01	-308.22
422.223	-107.52
422.435	-84.99
422.648	232.44
422.86	-156.67
423.073	-183.29
423.285	361.47
423.497	-138.24
423.71	-171.01
423.922	-248.83
424.134	99.33
424.347	379.9
424.559	52.22
424.771	93.18
424.984	54.27
425.196	168.96
425.408	-304.12
425.621	-316.41
425.833	302.08
426.045	373.75
426.257	-248.83
426.47	-134.14
426.682	234.49
426.894	267.26
427.106	-125.95
427.318	-70.65
427.531	-76.8
427.743	340.99
427.955	-226.3
428.167	150.53
428.379	160.77
428.591	-35.84
428.804	-44.03
429.016	-171.01
429.228	5.12
429.44	242.68
429.652	50.18
429.864	-232.44
430.076	17.41
430.288	-5.12
430.5	-97.28
430.712	-115.71
430.924	320.51
431.136	179.2
431.348	-257.02
431.56	-222.2
431.772	111.61
431.984	-11.26
432.196	-87.04
432.408	-179.2
432.62	5.12
432.832	144.38
433.044	128
433.256	-50.18
433.468	162.81
433.679	-146.43
433.891	-252.92
434.103	41.98
434.315	412.67
434.527	242.68
434.739	-62.46
434.95	-130.05
435.162	300.03
435.374	-9.22
435.586	-97.28
435.798	-121.85
436.009	-181.25
436.221	13.31
436.433	-115.71
436.645	-166.91
436.856	-27.65
437.068	392.19
437.28	-164.86
437.491	168.96
437.703	177.15
437.915	187.39
438.126	-44.03
438.338	115.71
438.55	105.47
438.761	218.11
438.973	-101.37
439.184	-121.85
439.396	25.6
439.608	386.04
439.819	-254.97
440.031	17.41
440.242	250.88
440.454	287.74
440.665	-125.95
440.877	-58.37
441.088	250.88
441.3	-23.55
441.511	-355.32
441.723	-156.67
441.934	254.97
442.146	103.42
442.357	-27.65
442.569	197.63
442.78	99.33
442.991	521.21
443.203	152.57
443.414	-177.15
443.626	386.04
443.837	-99.33
444.048	-224.25
444.26	-322.56
444.471	113.66
444.682	297.98
444.894	-359.42
445.105	-314.36
445.316	312.32
445.528	209.92
445.739	-9.22
445.95	-97.28
446.161	199.68
446.373	314.36
446.584	-48.13
446.795	-76.8
447.006	254.97
447.217	478.2
447.429	-199.68
447.64	-234.49
447.851	488.44
448.062	72.7
448.273	-388.09
448.484	-168.96
448.695	250.88
448.907	56.32
449.118	-78.85
449.329	76.8
449.54	-11.26
449.751	-148.48
449.962	-111.61
450.173	-103.42
450.384	308.22
450.595	463.86
450.806	-115.71
451.017	-37.89
451.228	490.49
451.439	328.7
451.65	-109.57
451.861	-379.9
452.072	-138.24
452.283	197.63
452.494	58.37
452.705	-119.81
452.915	406.52
453.126	177.15
453.337	-58.37
453.548	-150.53
453.759	297.98
453.97	664.57
454.181	99.33
454.391	-136.19
454.602	123.9
454.813	287.74
455.024	-74.75
455.235	-82.94
455.445	201.72
455.656	226.3
455.867	109.57
456.078	-103.42
456.288	44.03
456.499	218.11
456.71	-179.2
456.921	91.13
457.131	304.12
457.342	175.1
457.553	41.98
457.763	-125.95
457.974	244.73
458.184	347.13
458.395	-171.01
458.606	-134.14
458.816	394.23
459.027	592.89
459.237	-7.17
459.448	-252.92
459.659	453.63
459.869	578.55
460.08	-279.55
460.29	123.9
460.501	623.61
460.711	58.37
460.922	-214.01
461.132	-82.94
461.343	865.27
461.553	-136.19
461.764	-50.18
461.974	-109.57
462.184	390.14
462.395	269.31
462.605	7.17
462.816	-119.81
463.026	220.16
463.236	439.29
463.447	-117.76
463.657	-93.18
463.867	371.71
464.078	240.64
464.288	33.79
464.498	-48.13
464.709	228.35
464.919	179.2
465.129	-44.03
465.339	-168.96
465.55	357.37
465.76	398.33
465.97	-44.03
466.18	-80.89
466.391	427
466.601	199.68
466.811	-27.65
467.021	-175.1
467.231	209.92
467.441	478.2
467.651	-27.65
467.862	-357.37
468.072	203.77
468.282	506.87
468.492	-41.98
468.702	13.31
468.912	283.64
469.122	844.79
469.332	234.49
469.542	-99.33
469.752	455.67
469.962	240.64
470.172	-74.75
470.382	-158.72
470.592	470.01
470.802	467.96
471.012	109.57
471.222	-76.8
471.432	502.78
471.642	455.67
471.852	87.04
472.062	7.17
472.272	162.81
472.482	-23.55
472.691	-76.8
472.901	-50.18
473.111	304.12
473.321	715.77
473.531	-148.48
473.741	119.81
473.95	377.85
474.16	472.06
474.37	146.43
474.58	-56.32
474.79	723.96
474.999	449.53
475.209	-35.84
475.419	5.12
475.628	207.87
475.838	619.51
476.048	105.47
476.258	-107.52
476.467	603.13
476.677	226.3
476.886	230.4
477.096	68.61
477.306	209.92
477.515	621.56
477.725	111.61
477.935	214.01
478.144	771.06
478.354	201.72
478.563	107.52
478.773	78.85
478.982	627.7
479.192	513.02
479.401	261.12
479.611	128
479.82	168.96
480.03	447.48
480.239	5.12
480.449	25.6
480.658	752.63
480.868	275.45
481.077	310.27
481.287	132.09
481.496	592.89
481.705	840.69
481.915	396.28
482.124	457.72
482.333	525.3
482.543	807.92
482.752	218.11
482.961	152.57
483.171	564.22
483.38	461.82
483.589	392.19
483.799	171.01
484.008	474.1
484.217	740.34
484.426	250.88
484.636	160.77
484.845	558.07
485.054	185.34
485.263	504.82
485.472	338.94
485.682	900.08
485.891	523.26
486.1	158.72
486.309	246.78
486.518	627.7
486.727	906.23
486.936	257.02
487.146	482.3
487.355	875.51
487.564	293.88
487.773	345.08
487.982	365.56
488.191	463.86
488.4	680.95
488.609	285.69
488.818	373.75
489.027	1121.26
489.236	865.27
489.445	439.29
489.654	306.17
489.863	955.38
490.072	646.13
490.281	746.48
490.49	349.18
490.698	1053.68
490.907	1045.49
491.116	353.27
491.325	271.36
491.534	848.88
491.743	742.39
491.952	467.96
492.16	435.19
492.369	791.54
492.578	898.03
492.787	476.15
492.996	340.99
493.204	693.24
493.413	1172.46
493.622	214.01
493.831	259.07
494.039	1108.98
494.248	459.77
494.457	435.19
494.665	408.57
494.874	918.51
495.083	1242.09
495.291	537.59
495.5	482.3
495.709	986.1
495.917	771.06
496.126	701.43
496.335	427
496.543	736.24
496.752	781.3
496.96	762.87
497.169	314.36
497.377	908.27
497.586	1158.13
497.794	734.2
498.003	431.1
498.211	885.75
498.42	1309.68
498.628	652.28
498.837	523.26
499.045	998.38
499.254	975.86
499.462	570.36
499.671	545.78
499.879	1385.45
500.087	1135.6
500.296	541.69
500.504	623.61
500.713	885.75
500.921	1475.56
501.129	685.05
501.338	689.14
501.546	1053.68
501.754	1006.58
501.962	701.43
502.171	570.36
502.379	1006.58
502.587	1387.5
502.795	717.81
503.004	685.05
503.212	1033.2
503.42	1289.2
503.628	728.05
503.837	912.37
504.045	1192.94
504.253	1430.51
504.461	742.39
504.669	596.98
504.877	1092.59
505.085	1317.87
505.294	687.09
505.502	971.76
505.71	1098.74
505.918	1192.94
506.126	746.48
506.334	852.98
506.542	1055.73
506.75	1213.42
506.958	994.29
507.166	863.22
507.374	984.05
507.582	1633.26
507.79	926.71
507.998	771.06
508.206	1274.86
508.414	1231.85
508.622	818.16
508.83	938.99
509.037	1610.73
509.245	1106.93
509.453	697.33
509.661	721.91
509.869	1457.13
510.077	1160.17
510.285	1129.45
510.492	656.37
510.7	1745.89
510.908	1068.02
511.116	957.43
511.324	928.75
511.531	1070.06
511.739	1319.92
511.947	1151.98
512.155	1299.44
512.362	1256.43
512.57	1037.3
512.778	881.65
512.985	773.11
513.193	1453.03
513.401	1766.37
513.608	979.95
513.816	1053.68
514.024	1397.74
514.231	1645.54
514.439	1113.07
514.646	1031.15
514.854	1569.77
515.061	1596.39
515.269	1041.39
515.477	1029.1
515.684	1151.98
515.892	1596.39
516.099	1020.91
516.307	949.23
516.514	1455.08
516.722	1938.4
516.929	1096.69
517.136	1010.67
517.344	1913.83
517.551	1532.9
517.759	1055.73
517.966	1147.89
518.173	1305.58
518.381	1504.23
518.588	1301.48
518.796	1061.87
519.003	1512.42
519.21	1289.2
519.418	1094.64
519.625	1489.9
519.832	1432.55
520.039	1510.38
520.247	893.94
520.454	1233.9
520.661	1754.09
520.868	1612.78
521.076	1373.16
521.283	1227.76
521.49	2126.82
521.697	1723.37
521.904	1440.75
522.112	1424.36
522.319	1786.85
522.526	1745.89
522.733	1203.18
522.94	1233.9
523.147	1653.73
523.354	1795.04
523.561	1233.9
523.768	1358.83
523.975	1854.44
524.183	1698.79
524.39	1426.41
524.597	1209.33
524.804	1635.3
525.011	1485.8
525.218	1281
525.425	1414.12
525.632	2038.75
525.838	1473.51
526.045	1295.34
526.252	1401.83
526.459	2745.3
526.666	2653.14
526.873	1438.7
527.08	1477.61
527.287	2087.9
527.494	1926.11
527.701	1358.83
527.907	1373.16
528.114	1971.17
528.321	1745.89
528.528	1512.42
528.735	1424.36
528.941	1725.41
529.148	1688.55
529.355	1735.65
529.562	1364.97
529.768	2212.83
529.975	1706.98
530.182	1635.3
530.388	1395.69
530.595	2012.13
530.802	1588.2
531.008	1704.93
531.215	1549.29
531.422	2423.77
531.628	2427.87
531.835	1797.09
532.042	1674.21
532.248	1889.25
532.455	1979.36
532.661	1651.69
532.868	1602.54
533.074	2153.44
533.281	2270.17
533.487	1887.2
533.694	1592.3
533.9	1897.44
534.107	2198.49
534.313	1666.02
534.52	1545.19
534.726	2290.65
534.933	2489.31
535.139	1692.65
535.345	1620.97
535.552	2186.21
535.758	2028.51
535.965	1760.23
536.171	1793
536.377	2200.54
536.584	2581.46
536.79	1881.06
536.996	1960.93
537.203	2290.65
537.409	2282.46
537.615	1905.63
537.821	2065.38
538.028	2311.13
538.234	2360.28
538.44	2012.13
538.646	2014.18
538.853	2411.48
539.059	2188.25
539.265	2382.81
539.471	1637.35
539.677	2458.59
539.883	2290.65
540.09	1965.03
540.296	2382.81
540.502	2288.61
540.708	2188.25
540.914	2276.32
541.12	2087.9
541.326	2536.41
541.532	2446.3
541.738	2151.39
541.944	2098.14
542.15	2649.05
542.356	2233.31
542.562	2005.99
542.768	2227.17
542.974	2943.96
543.18	2986.96
543.386	2112.48
543.592	1973.22
543.798	3015.63
544.004	2759.64
544.21	2309.08
544.415	2311.13
544.621	2606.04
544.827	2677.72
545.033	2057.18
545.239	2372.57
545.445	2448.35
545.651	2577.37
545.856	2249.69
546.062	2171.87
546.268	2370.52
546.474	2745.3
546.679	2341.85
546.885	2335.71
547.091	2507.74
547.297	3187.66
547.502	2438.11
547.708	2155.49
547.914	2427.87
548.119	2831.32
548.325	2278.37
548.531	2257.89
548.736	3013.59
548.942	2489.31
549.147	2241.5
549.353	2761.69
549.559	2882.52
549.764	2747.35
549.97	2329.56
550.175	2427.87
550.381	2890.71
550.586	2577.37
550.792	2591.7
550.997	2501.59
551.203	2939.86
551.408	2991.06
551.614	2362.33
551.819	2337.76
552.025	3328.97
552.23	3226.57
552.435	2679.77
552.641	2735.06
552.846	2642.9
553.052	3091.41
553.257	2712.53
553.462	2673.62
553.668	2773.97
553.873	3220.43
554.078	2560.98
554.283	2657.24
554.489	2980.82
554.694	3032.02
554.899	2474.97
555.105	2917.33
555.31	3163.09
555.515	3179.47
555.72	2827.22
555.925	2593.75
556.131	3273.68
556.336	3032.02
556.541	2718.68
556.746	2563.03
556.951	3437.52
557.156	3537.87
557.361	2808.79
557.567	3009.49
557.772	3570.63
557.977	3269.58
558.182	2763.73
558.387	2767.83
558.592	2956.24
558.797	3398.6
559.002	2964.43
559.207	3013.59
559.412	3224.53
559.617	3548.11
559.822	3019.73
560.027	2794.45
560.232	3228.62
560.437	3576.78
560.642	2853.84
560.847	2872.28
561.051	3292.11
561.256	3208.14
561.461	3003.35
561.666	2782.17
561.871	3326.93
562.076	3449.8
562.281	3077.07
562.485	3064.79
562.69	3515.34
562.895	3521.48
563.1	2980.82
563.305	2855.89
563.509	3716.04
563.714	3916.74
563.919	3146.7
564.123	2907.09
564.328	3310.54
564.533	3750.85
564.737	3187.66
564.942	3072.98
565.147	3666.89
565.351	3937.22
565.556	3335.12
565.761	3259.34
565.965	3617.74
566.17	3406.8
566.374	3386.32
566.579	3179.47
566.784	3644.36
566.988	3451.85
567.193	3085.26
567.397	3302.35
567.602	3292.11
567.806	3455.95
568.011	3312.59
568.215	3259.34
568.42	3597.26
568.624	3441.61
568.828	3351.5
569.033	3566.54
569.237	3912.64
569.442	3920.84
569.646	3187.66
569.85	3519.43
570.055	3705.8
570.259	3740.61
570.463	3656.65
570.668	3441.61
570.872	3836.87
571.076	3722.18
571.281	3556.3
571.485	3546.06
571.689	3765.19
571.893	4008.9
572.098	3691.46
572.302	3660.74
572.506	4021.19
572.71	3867.59
572.914	3613.64
573.119	3531.72
573.323	4150.21
573.527	4082.63
573.731	3507.15
573.935	3595.21
574.139	3916.74
574.343	3660.74
574.547	3687.37
574.751	3662.79
574.955	4230.08
575.159	4324.29
575.364	3658.7
575.568	3509.19
575.772	3920.84
575.976	4256.7
576.18	3621.83
576.383	3646.41
576.587	4252.61
576.791	4264.89
576.995	3511.24
577.199	3673.03
577.403	4228.03
577.607	4338.62
577.811	3765.19
578.015	3869.64
578.219	4191.17
578.422	4336.57
578.626	4060.1
578.83	4060.1
579.034	4420.54
579.238	4146.11
579.442	4023.23
579.645	4230.08
579.849	4193.22
580.053	4355.01
580.257	3998.66
580.46	3972.04
580.664	4506.56
580.868	4338.62
581.071	4342.72
581.275	4248.51
581.479	4086.72
581.682	4574.14
581.886	3920.84
582.09	4148.16
582.293	4625.34
582.497	4670.39
582.7	4369.34
582.904	4144.06
583.107	4481.98
583.311	4240.32
583.515	4162.5
583.718	4137.92
583.922	4719.54
584.125	4805.56
584.329	4119.49
584.532	4377.53
584.735	4854.71
584.939	4617.15
585.142	4125.63
585.346	4170.69
585.549	4678.58
585.753	4455.36
585.956	4205.5
586.159	4524.99
586.363	5041.08
586.566	4756.41
586.769	4332.48
586.973	4283.33
587.176	4735.93
587.379	4971.44
587.582	4699.06
587.786	4553.66
587.989	4727.74
588.192	5266.35
588.395	4436.92
588.599	4752.31
588.802	5174.19
589.005	4858.81
589.208	4498.36
589.411	4447.16
589.615	5075.89
589.818	5272.5
590.021	4682.68
590.224	4727.74
590.427	5166
590.63	5079.99
590.833	4395.96
591.036	4651.96
591.239	4977.59
591.442	4846.52
591.645	4940.72
591.848	4600.76
592.051	5071.79
592.254	5157.81
592.457	4838.33
592.66	4862.9
592.863	4993.97
593.066	5149.62
593.269	4826.04
593.472	4797.37
593.675	4936.63
593.878	5280.69
594.081	5051.31
594.284	4867
594.486	5301.17
594.689	5090.23
594.892	4928.44
595.095	4871.09
595.298	5305.26
595.5	5192.62
595.703	5180.34
595.906	5049.27
596.109	5600.17
596.311	5544.88
596.514	4623.29
596.717	5149.62
596.92	5780.39
597.122	5555.12
597.325	4920.24
597.528	5067.7
597.73	5927.85
597.933	5395.37
598.136	5166
598.338	4881.33
598.541	5542.83
598.743	5733.29
598.946	5358.51
599.148	5270.45
599.351	5716.9
599.554	5817.26
599.756	5378.99
599.959	5381.04
600.161	5759.91
600.363	6306.72
600.566	5546.92
600.768	5190.58
600.971	5927.85
601.173	5948.33
601.376	5376.94
601.578	5481.39
601.78	5829.54
601.983	6181.79
602.185	5272.5
602.388	5673.9
602.59	5766.06
602.792	5733.29
602.995	5624.75
603.197	5434.29
603.399	6106.02
603.601	5923.75
603.804	5319.6
604.006	5563.31
604.208	5731.24
604.41	5465
604.613	5677.99
604.815	5419.95
605.017	6417.31
605.219	5708.71
605.421	5878.69
605.623	5766.06
605.826	6243.23
606.028	6427.55
606.23	5637.03
606.432	5667.75
606.634	6425.5
606.836	6321.06
607.038	5520.3
607.24	5977
607.442	5985.19
607.644	6071.2
607.846	5884.84
608.048	5591.98
608.25	6251.42
608.452	5852.07
608.654	5766.06
608.856	5622.7
609.058	6112.16
609.26	6140.83
609.462	5970.85
609.664	6015.91
609.866	6542.24
610.067	6472.61
610.269	5977
610.471	5927.85
610.673	6128.55
610.875	6339.49
611.077	5700.52
611.278	6108.07
611.48	6304.67
611.682	6693.79
611.884	6081.44
612.085	6060.96
612.287	6038.44
612.489	6280.1
612.69	5868.45
612.892	6091.68
613.094	6595.48
613.295	6394.78
613.497	5985.19
613.699	6046.63
613.9	6611.87
614.102	6511.52
614.304	5993.38
614.505	5807.02
614.707	6435.74
614.908	6210.47
615.11	5895.08
615.311	6196.13
615.513	6411.17
615.714	6589.34
615.916	6136.74
616.117	6210.47
616.319	6613.92
616.52	6681.5
616.722	6343.58
616.923	6292.38
617.124	6718.36
617.326	6730.65
617.527	6480.8
617.729	6495.13
617.93	6669.21
618.131	6716.31
618.333	6314.91
618.534	6366.11
618.735	6339.49
618.937	6939.54
619.138	6058.92
619.339	6265.76
619.54	6812.57
619.742	6529.95
619.943	6527.9
620.144	6368.16
620.345	6867.86
620.546	7050.13
620.748	6249.38
620.949	6534.04
621.15	6714.27
621.351	6886.29
621.552	6276
621.753	6374.3
621.954	6468.51
622.155	7105.43
622.356	6366.11
622.558	6671.26
622.759	6699.93
622.96	7099.28
623.161	6546.33
623.362	6431.65
623.563	6798.23
623.764	6939.54
623.965	6738.84
624.166	6951.83
624.366	6822.81
624.567	6910.87
624.768	6106.02
624.969	6644.63
625.17	6744.99
625.371	6996.89
625.572	6759.32
625.773	6445.98
625.973	7164.82
626.174	7316.37
626.375	6732.7
626.576	6785.94
626.777	7033.75
626.977	7533.45
627.178	6800.28
627.379	6800.28
627.58	6986.65
627.78	7037.84
627.981	6900.63
628.182	6953.88
628.382	7330.7
628.583	6792.09
628.784	6718.36
628.984	6978.45
629.185	7494.54
629.386	7357.33
629.586	6947.73
629.787	6876.06
629.987	7363.47
630.188	7138.2
630.388	6980.5
630.589	7173.01
630.79	7687.05
630.99	7256.98
631.191	7125.91
631.391	7183.25
631.591	7545.74
631.792	7705.48
631.992	7252.88
632.193	7074.71
632.393	7949.19
632.594	7472.01
632.794	7101.33
632.994	7443.34
633.195	7238.55
633.395	7453.58
633.595	7162.77
633.796	7277.46
633.996	7334.8
634.196	7699.34
634.397	6917.01
634.597	7355.28
634.797	7259.03
634.997	7844.74
635.198	7555.98
635.398	6988.69
635.598	7619.47
635.798	8000.39
635.998	7654.28
636.199	7158.67
636.399	7504.78
636.599	7418.77
636.799	7361.42
636.999	7469.97
637.199	7883.66
637.399	7957.38
637.599	7189.39
637.799	7646.09
637.999	7492.49
638.199	8037.25
638.399	7355.28
638.599	7500.69
638.799	7912.33
638.999	8328.06
639.199	7590.8
639.399	7687.05
639.599	8121.22
639.799	7725.96
639.999	7533.45
640.199	7492.49
640.399	7766.92
640.599	7699.34
640.799	7836.55
640.998	7873.42
641.198	8295.3
641.398	8037.25
641.598	7820.17
641.798	7969.67
641.997	8928.12
642.197	7961.48
642.397	7748.49
642.597	7787.4
642.796	8283.01
642.996	8323.97
643.196	7893.9
643.395	7685
643.595	8207.23
643.795	7584.65
643.994	7777.16
644.194	7805.83
644.394	8321.92
644.593	8192.9
644.793	7881.61
644.992	7961.48
645.192	8244.1
645.392	7861.13
645.591	8029.06
645.791	7963.53
645.99	8196.99
646.19	8061.83
646.389	8174.47
646.589	8180.61
646.788	8491.9
646.987	8430.46
647.187	8430.46
647.386	8336.26
647.586	8231.81
647.785	8532.86
647.984	8139.65
648.184	8131.46
648.383	8153.99
648.582	8246.15
648.782	8276.87
648.981	8319.87
649.18	8139.65
649.38	8504.19
649.579	8205.19
649.778	8123.27
649.977	8670.08
650.177	8762.23
650.376	8070.02
650.575	8049.54
650.774	9040.76
650.973	8463.23
651.173	8139.65
651.372	8481.66
651.571	8557.44
651.77	8835.96
651.969	8289.15
652.168	8504.19
652.367	8162.18
652.566	8766.33
652.765	8098.69
652.964	8549.25
653.163	9147.25
653.362	8645.5
653.561	8547.2
653.76	8442.75
653.959	8336.26
654.158	8958.84
654.357	8620.92
654.556	8496
654.755	8911.74
654.954	8747.9
655.153	8702.84
655.352	8401.79
655.551	9055.09
655.749	8672.12
655.948	8694.65
656.147	8762.23
656.346	8950.65
656.545	8815.48
656.743	8618.88
656.942	9014.13
657.141	8766.33
657.34	8672.12
657.538	8745.85
657.737	8686.46
657.936	9007.99
658.135	8950.65
658.333	8610.68
658.532	8913.78
658.731	9530.22
658.929	9270.13
659.128	8833.91
659.326	8958.84
659.525	9509.74
659.724	9036.66
659.922	8575.87
660.121	8620.92
660.319	9239.41
660.518	8795
660.716	8790.91
660.915	8739.71
661.113	9632.62
661.312	8553.34
661.51	8928.12
661.709	8983.41
661.907	9274.23
662.105	9528.17
662.304	8952.7
662.502	8928.12
662.701	9495.41
662.899	9278.32
663.097	9479.02
663.296	8829.82
663.494	9542.51
663.692	9745.26
663.891	8997.75
664.089	9057.14
664.287	9519.98
664.485	9511.79
664.684	9126.77
664.882	9069.43
665.08	9161.59
665.278	9311.09
665.476	9155.44
665.675	9380.72
665.873	9921.38
666.071	9606
666.269	9137.01
666.467	9352.05
666.665	9442.16
666.863	9274.23
667.061	9235.32
667.259	9257.84
667.457	9413.49
667.655	9485.17
667.853	9257.84
668.051	9384.82
668.249	9173.88
668.447	9739.12
668.645	9114.48
668.843	9487.22
669.041	9741.16
669.239	9364.34
669.437	9458.54
669.635	9442.16
669.833	9345.91
670.031	9739.12
670.229	9362.29
670.426	9513.84
670.624	9448.3
670.822	9397.1
671.02	9327.47
671.218	9431.92
671.415	9448.3
671.613	9778.03
671.811	9476.98
672.009	9440.11
672.206	9714.54
672.404	9601.9
672.602	9636.72
672.799	9591.66
672.997	9616.24
673.195	9954.15
673.392	9466.74
673.59	9337.71
673.788	9933.67
673.985	9302.9
674.183	9751.4
674.38	9782.12
674.578	9816.94
674.775	9640.81
674.973	9444.21
675.17	9388.91
675.368	9939.82
675.565	9739.12
675.763	9468.78
675.96	9728.88
676.158	10220.39
676.355	9814.89
676.553	9700.2
676.75	9579.37
676.947	9866.09
677.145	9737.07
677.342	9646.96
677.539	9712.49
677.737	9861.99
677.934	10265.44
678.131	9634.67
678.329	9327.47
678.526	10384.23
678.723	10064.74
678.92	9657.2
679.118	9577.33
679.315	9663.34
679.512	10255.2
679.709	9720.68
679.906	9628.53
680.104	10193.76
680.301	9909.1
680.498	9687.92
680.695	9399.15
680.892	9393.01
681.089	9603.95
681.286	9923.43
681.483	9450.35
681.68	9870.19
681.877	10056.55
682.075	9585.52
682.272	9814.89
682.469	10052.45
682.665	9763.69
682.862	9530.22
683.059	9485.17
683.256	10017.64
683.453	9991.02
683.65	9673.58
683.847	9685.87
684.044	9905
684.241	9825.13
684.438	9864.04
684.635	9737.07
684.831	10513.25
685.028	10388.32
685.225	9675.63
685.422	9722.73
685.619	10031.97
685.815	9868.14
686.012	9653.1
686.209	9839.47
686.405	9638.76
686.602	10146.66
686.799	9388.91
686.996	9675.63
687.192	9560.94
687.389	10324.83
687.586	9814.89
687.782	9784.17
687.979	10431.33
688.175	10277.73
688.372	9980.78
688.568	9681.77
688.765	10003.3
688.962	10253.16
689.158	9749.36
689.355	9622.38
689.551	10052.45
689.748	9984.87
689.944	9991.02
690.14	9673.58
690.337	10330.98
690.533	9974.63
690.73	9945.96
690.926	10040.17
691.123	10134.37
691.319	10001.26
691.515	9653.1
691.712	10232.68
691.908	10300.26
692.104	9859.95
692.301	9954.15
692.497	9646.96
692.693	10308.45
692.889	10130.28
693.086	10003.3
693.282	9509.74
693.478	10038.12
693.674	10572.64
693.87	10003.3
694.067	9905
694.263	10240.87
694.459	10232.68
694.655	10064.74
694.851	9831.27
695.047	10244.96
695.243	10285.92
695.439	9995.11
695.635	9823.08
695.831	10216.29
696.027	10199.91
696.224	9821.03
696.42	10158.95
696.615	10572.64
696.811	10195.81
697.007	9724.78
697.203	9814.89
697.399	10025.83
697.595	10490.72
697.791	9757.55
697.987	10228.58
698.183	9925.48
698.379	10101.61
698.575	9911.14
698.77	9896.81
698.966	10431.33
699.162	10427.23
699.358	10050.41
699.554	9952.1
699.749	10378.08
699.945	10318.69
700.141	10066.79
700.337	10206.05
700.532	10251.11
700.728	9972.58
700.924	9802.6
701.119	9675.63
701.315	10416.99
701.511	10081.13
701.706	10142.57
701.902	9759.6
702.097	10240.87
702.293	10394.47
702.489	10296.16
702.684	9868.14
702.88	10161
703.075	10548.06
703.271	9917.29
703.466	9843.56
703.662	10449.76
703.857	10367.84
704.053	10056.55
704.248	10154.85
704.443	10468.19
704.639	10486.62
704.834	10322.79
705.03	10156.9
705.225	10464.1
705.42	10582.88
705.616	10171.24
705.811	9868.14
706.006	10337.12
706.202	10314.59
706.397	10302.31
706.592	9950.06
706.787	10267.49
706.983	10324.83
707.178	10265.44
707.373	10140.52
707.568	10550.11
707.763	10687.32
707.959	10306.4
708.154	10322.79
708.349	10255.2
708.544	10419.04
708.739	10189.67
708.934	10093.41
709.129	10572.64
709.324	10539.87
709.519	10050.41
709.714	9874.28
709.909	10722.14
710.104	10560.35
710.299	10064.74
710.494	10300.26
710.689	10402.66
710.884	10384.23
711.079	10453.86
711.274	10267.49
711.469	10494.82
711.664	10488.67
711.859	10251.11
712.054	10310.5
712.249	10625.89
712.443	10474.34
712.638	10128.23
712.833	9913.19
713.028	10500.96
713.223	10480.48
713.417	10533.73
713.612	10117.99
713.807	10804.06
714.002	11203.41
714.196	10556.25
714.391	10339.17
714.586	10681.18
714.78	10480.48
714.975	10341.22
715.17	10242.92
715.364	10527.58
715.559	10642.27
715.754	9929.58
715.948	10238.82
716.143	10916.7
716.337	10267.49
716.532	10675.04
716.726	10228.58
716.921	10713.95
717.115	10699.61
717.31	10177.38
717.504	10824.54
717.699	10556.25
717.893	10775.39
718.088	10343.27
718.282	10150.76
718.476	10365.79
718.671	10523.49
718.865	10224.48
719.059	10081.13
719.254	10294.11
719.448	10650.46
719.642	11619.15
719.837	9937.77
720.031	10664.8
720.225	10728.28
720.419	10529.63
720.614	10247.01
720.808	10591.07
721.002	10462.05
721.196	10212.2
721.39	10195.81
721.585	10822.49
721.779	10570.59
721.973	10242.92
722.167	9986.92
722.361	10427.23
722.555	10763.1
722.749	10134.37
722.943	10150.76
723.137	10257.25
723.331	10658.65
723.525	10179.43
723.719	10062.69
723.913	10488.67
724.107	10750.81
724.301	10003.3
724.495	10230.63
724.689	10771.29
724.883	10593.12
725.077	10183.52
725.271	10107.75
725.465	10775.39
725.659	10390.37
725.853	10400.61
726.046	9894.76
726.24	10324.83
726.434	10558.3
726.628	9923.43
726.822	10261.35
727.015	10959.7
727.209	10646.37
727.403	10253.16
727.596	9950.06
727.79	10623.84
727.984	10756.96
728.177	10306.4
728.371	10249.06
728.565	10632.03
728.758	10204
728.952	10255.2
729.146	10134.37
729.339	10877.79
729.533	10531.68
729.726	10279.78
729.92	10275.68
730.113	10834.78
730.307	10763.1
730.5	10154.85
730.694	10179.43
730.887	10607.45
731.081	10689.37
731.274	10263.4
731.468	10214.24
731.661	10488.67
731.854	10376.03
732.048	10279.78
732.241	10275.68
732.435	10437.47
732.628	10650.46
732.821	10443.62
733.014	10394.47
733.208	10236.77
733.401	10998.62
733.594	10220.39
733.788	10402.66
733.981	10787.68
734.174	10832.73
734.367	10361.7
734.56	10505.06
734.754	10826.59
734.947	10722.14
735.14	10490.72
735.333	10509.15
735.526	10969.94
735.719	10296.16
735.912	10457.95
736.105	10474.34
736.298	10761.05
736.491	10543.97
736.684	10369.89
736.877	10300.26
737.07	11027.29
737.263	10902.36
737.456	10609.5
737.649	10498.91
737.842	10638.17
738.035	10861.4
738.228	10509.15
738.421	10371.94
738.614	11121.49
738.807	10945.37
739	10156.9
739.192	10365.79
739.385	11010.9
739.578	10773.34
739.771	10795.87
739.964	10595.17
740.156	10873.69
740.349	10486.62
740.542	10586.97
740.735	10429.28
740.927	10546.02
741.12	10658.65
741.313	10341.22
741.505	10654.56
741.698	10683.23
741.891	10953.56
742.083	10646.37
742.276	10640.22
742.468	11023.19
742.661	10675.04
742.854	10718.04
743.046	10490.72
743.239	11273.04
743.431	10634.08
743.624	10627.93
743.816	10568.54
744.009	10808.16
744.201	10840.92
744.393	10670.94
744.586	10339.17
744.778	10996.57
744.971	10791.77
745.163	10773.34
745.355	10716
745.548	10859.35
745.74	10822.49
745.932	10523.49
746.125	10451.81
746.317	11402.07
746.509	10761.05
746.702	10597.21
746.894	10570.59
747.086	10656.61
747.278	10998.62
747.471	10554.21
747.663	10664.8
747.855	10859.35
748.047	11291.48
748.239	10546.02
748.431	10400.61
748.623	11064.15
748.815	11236.18
749.008	10582.88
749.2	10564.45
749.392	10855.26
749.584	10926.94
749.776	10683.23
749.968	10605.41
750.16	11305.81
750.352	10662.75
750.544	10689.37
750.736	10429.28
750.928	11035.48
751.12	10789.72
751.311	10685.28
751.503	10560.35
751.695	10902.36
751.887	10591.07
752.079	10609.5
752.271	10568.54
752.463	11565.9
752.654	11137.88
752.846	10568.54
753.038	10460
753.23	10498.91
753.421	10851.16
753.613	10576.73
753.805	10855.26
753.997	10949.46
754.188	11060.06
754.38	10345.31
754.572	10660.7
754.763	10808.16
754.955	10802.01
755.146	10722.14
755.338	10480.48
755.53	10996.57
755.721	10820.44
755.913	10261.35
756.104	10281.83
756.296	10785.63
756.487	10883.93
756.679	10273.64
756.87	10548.06
757.062	10464.1
757.253	10756.96
757.445	10394.47
757.636	10642.27
757.827	10543.97
758.019	11357.01
758.21	10335.07
758.401	10435.42
758.593	11301.72
758.784	10974.04
758.975	10466.14
759.167	10287.97
759.358	10672.99
759.549	10861.4
759.74	10335.07
759.932	10607.45
760.123	11070.3
760.314	10556.25
760.505	10470.24
760.696	10423.14
760.888	11062.1
761.079	10705.76
761.27	10249.06
761.461	10300.26
761.652	11012.95
761.843	10316.64
762.034	10521.44
762.225	10595.17
762.416	10726.24
762.607	10416.99
762.798	10152.81
762.989	10355.55
763.18	11350.87
763.371	10435.42
763.562	10312.55
763.753	10271.59
763.944	10824.54
764.135	10873.69
764.326	10392.42
764.517	10271.59
764.708	10466.14
764.899	10724.19
765.089	10167.14
765.28	10179.43
765.471	10572.64
765.662	10711.9
765.853	10124.13
766.043	10077.03
766.234	10687.32
766.425	10793.82
766.615	10214.24
766.806	10040.17
766.997	10703.71
767.187	10343.27
767.378	10115.94
767.569	9970.54
767.759	10607.45
767.95	10670.94
768.141	10269.54
768.331	10179.43
768.522	10302.31
768.712	10486.62
768.903	10183.52
769.093	10042.21
769.284	10728.28
769.474	10611.55
769.665	9925.48
769.855	9905
770.046	10703.71
770.236	10195.81
770.426	10298.21
770.617	10097.51
770.807	10580.83
770.998	10189.67
771.188	10199.91
771.378	9841.51
771.569	10572.64
771.759	10574.69
771.949	9915.24
772.139	10054.5
772.33	10261.35
772.52	10705.76
772.71	9984.87
772.9	9782.12
773.09	11037.53
773.281	10525.54
773.471	9986.92
773.661	9925.48
773.851	10429.28
774.041	10052.45
774.231	9718.64
774.421	10201.96
774.611	10660.7
774.802	10357.6
774.992	9909.1
775.182	9845.61
775.372	10072.93
775.562	10257.25
775.752	9894.76
775.942	9790.31
776.131	10527.58
776.321	10310.5
776.511	9907.05
776.701	9855.85
776.891	10314.59
777.081	9929.58
777.271	9761.64
777.461	9829.23
777.651	10287.97
777.84	10572.64
778.03	9816.94
778.22	9755.5
778.41	10414.95
778.599	9950.06
778.789	9888.62
778.979	9845.61
779.169	10249.06
779.358	10083.17
779.548	10199.91
779.738	9649
779.927	10206.05
780.117	9915.24
780.307	9499.5
780.496	9464.69
780.686	10070.89
780.875	10617.69
781.065	9790.31
781.254	9753.45
781.444	10111.85
781.633	10122.09
781.823	9524.08
782.012	9786.22
782.202	9888.62
782.391	9898.86
782.581	9558.89
782.77	9855.85
782.96	10335.07
783.149	9960.3
783.338	9749.36
783.528	9601.9
783.717	10285.92
783.906	10281.83
784.096	9843.56
784.285	9722.73
784.474	9775.98
784.663	9675.63
784.853	9569.13
785.042	9730.92
785.231	9958.25
785.42	10197.86
785.61	9761.64
785.799	9526.13
785.988	9608.05
786.177	9745.26
786.366	9548.65
786.555	9872.23
786.744	9915.24
786.933	9925.48
787.122	9550.7
787.312	9257.84
787.501	9753.45
787.69	10169.19
787.879	9540.46
788.068	9395.06
788.257	9517.93
788.445	9823.08
788.634	9524.08
788.823	9710.44
789.012	10273.64
789.201	10195.81
789.39	9644.91
789.579	9481.07
789.768	9675.63
789.957	9702.25
790.145	9436.02
790.334	9212.79
790.523	9522.03
790.712	9634.67
790.9	9673.58
791.089	9212.79
791.278	10025.83
791.467	9800.55
791.655	9425.78
791.844	9974.63
792.033	9479.02
792.221	9573.23
792.41	9452.4
792.599	9165.68
792.787	9763.69
792.976	9896.81
793.164	9382.77
793.353	9450.35
793.541	9970.54
793.73	9859.95
793.918	9616.24
794.107	9337.71
794.295	9712.49
794.484	9599.85
794.672	9491.31
794.861	9425.78
795.049	9751.4
795.238	10146.66
795.426	9132.92
795.614	9413.49
795.803	9704.3
795.991	9972.58
796.179	9294.71
796.368	9280.37
796.556	9857.9
796.744	9311.09
796.932	9276.27
797.121	9118.58
797.309	9655.15
797.497	9743.21
797.685	9263.99
797.874	9210.74
798.062	9696.11
798.25	9794.41
798.438	9208.69
798.626	9378.67
798.814	9712.49
799.002	10029.93
799.19	9675.63
799.378	9403.25
799.566	9839.47
799.755	9921.38
799.943	9534.32
800.131	9573.23
800.318	9499.5
800.506	9524.08
800.694	9298.8
800.882	9562.99
801.07	10021.74
801.258	9689.96
801.446	9417.58
801.634	9671.53
801.822	9538.41
802.01	9632.62
802.197	9411.44
802.385	9470.83
802.573	9700.2
802.761	9393.01
802.949	9681.77
803.136	9274.23
803.324	9980.78
803.512	9661.29
803.699	9491.31
803.887	9507.69
804.075	10236.77
804.262	9673.58
804.45	9364.34
804.638	9696.11
804.825	9630.57
805.013	9603.95
805.201	9603.95
805.388	9311.09
805.576	9796.46
805.763	10335.07
805.951	9675.63
806.138	9845.61
806.326	10421.09
806.513	9966.44
806.701	9530.22
806.888	9724.78
807.075	10015.59
807.263	10349.41
807.45	9454.45
807.638	9843.56
807.825	10337.12
808.012	10333.03
808.2	9804.65
808.387	9909.1
808.574	10091.37
808.761	10384.23
808.949	9522.03
809.136	9747.31
809.323	10107.75
809.51	9927.53
809.698	10134.37
809.885	9745.26
810.072	10077.03
810.259	10195.81
810.446	9773.93
810.633	9796.46
810.82	10416.99
811.008	10496.86
811.195	10183.52
811.382	9837.42
811.569	10034.02
811.756	9929.58
811.943	10079.08
812.13	9802.6
812.317	9767.79
812.504	10115.94
812.691	10152.81
812.878	9991.02
813.064	10570.59
813.251	10412.9
813.438	9896.81
813.625	10001.26
813.812	10150.76
813.999	10099.56
814.186	10021.74
814.372	9878.38
814.559	10081.13
814.746	10476.38
814.933	9739.12
815.12	10402.66
815.306	10103.65
815.493	10109.8
815.68	9810.79
815.866	9966.44
816.053	10482.53
816.24	10615.65
816.426	10253.16
816.613	9945.96
816.799	10384.23
816.986	10603.36
817.173	9945.96
817.359	9976.68
817.546	10455.9
817.732	9778.03
817.919	9833.32
818.105	10048.36
818.292	10328.93
818.478	10419.04
818.665	10224.48
818.851	10007.4
819.037	10820.44
819.224	10251.11
819.41	9808.75
819.597	9950.06
819.783	10414.95
819.969	10519.39
820.156	9837.42
820.342	9933.67
820.528	11002.71
820.714	10230.63
820.901	10306.4
821.087	9798.51
821.273	10609.5
821.459	10171.24
821.646	9827.18
821.832	9782.12
822.018	10244.96
822.204	10083.17
822.39	10128.23
822.576	9800.55
822.762	10384.23
822.948	10220.39
823.134	10130.28
823.32	9757.55
823.507	9782.12
823.693	10113.89
823.879	10228.58
824.065	9810.79
824.25	9980.78
824.436	9980.78
824.622	9818.99
824.808	9939.82
824.994	10142.57
825.18	9771.88
825.366	9624.43
825.552	9845.61
825.738	10154.85
825.923	10077.03
826.109	10171.24
826.295	9769.83
826.481	9888.62
826.667	9907.05
826.852	9872.23
827.038	9546.61
827.224	10255.2
827.409	10509.15
827.595	9374.58
827.781	10048.36
827.966	10408.8
828.152	10173.28
828.338	9565.04
828.523	9583.47
828.709	9573.23
828.894	10099.56
829.08	9786.22
829.266	9651.05
829.451	9698.16
829.637	10058.6
829.822	9618.29
830.008	9646.96
830.193	10013.54
830.378	10306.4
830.564	9556.85
830.749	9384.82
830.935	10023.78
831.12	10179.43
831.305	9288.56
831.491	9671.53
831.676	9569.13
831.861	9882.47
832.047	9620.33
832.232	9325.43
832.417	10113.89
832.602	9835.37
832.788	9249.65
832.973	9446.26
833.158	9694.06
833.343	9624.43
833.528	9624.43
833.714	9548.65
833.899	9757.55
834.084	10220.39
834.269	9757.55
834.454	9515.89
834.639	9958.25
834.824	9585.52
835.009	9507.69
835.194	9603.95
835.379	9950.06
835.564	10199.91
835.749	9622.38
835.934	9376.62
836.119	9937.77
836.304	9501.55
836.489	9075.57
836.674	9667.44
836.859	9503.6
837.044	9843.56
837.228	9288.56
837.413	9163.64
837.598	9857.9
837.783	9923.43
837.968	9302.9
838.152	9259.89
838.337	8899.45
838.522	9907.05
838.707	9847.66
838.891	9489.26
839.076	9665.39
839.261	9657.2
839.445	9309.04
839.63	9317.23
839.815	9956.2
839.999	9358.19
840.184	9362.29
840.368	9120.63
840.553	9677.68
840.737	9735.02
840.922	9098.1
841.106	9175.92
841.291	9194.36
841.475	9618.29
841.66	9173.88
841.844	9069.43
842.029	10152.81
842.213	9132.92
842.397	8979.32
842.582	8831.87
842.766	9692.01
842.951	9601.9
843.135	9108.34
843.319	9094.01
843.504	9452.4
843.688	9524.08
843.872	8897.4
844.056	8889.21
844.241	9583.47
844.425	9075.57
844.609	9241.46
844.793	8772.47
844.977	9548.65
845.161	9360.24
845.346	8770.43
845.53	8852.34
845.714	9204.6
845.898	9620.33
846.082	8641.4
846.266	9053.05
846.45	9130.87
846.634	9356.15
846.818	8864.63
847.002	9167.73
847.186	9309.04
847.37	9001.85
847.554	8586.11
847.738	8778.62
847.922	9399.15
848.106	9120.63
848.29	8727.42
848.473	8907.64
848.657	9335.67
848.841	9139.06
849.025	8784.76
849.209	8586.11
849.392	9286.51
849.576	9073.53
849.76	8514.43
849.944	8866.68
850.127	9421.68
850.311	8850.3
850.495	8604.54
850.678	8485.76
850.862	9419.63
851.046	9403.25
851.229	9044.85
851.413	8602.49
851.596	9055.09
851.78	9118.58
851.964	8907.64
852.147	8682.36
852.331	9692.01
852.514	9368.43
852.698	8526.72
852.881	8588.16
853.065	9104.25
853.248	9073.53
853.431	8739.71
853.615	8524.67
853.798	9479.02
853.982	9053.05
854.165	9036.66
854.348	8577.92
854.532	8594.3
854.715	8952.7
854.898	8606.59
855.081	8717.18
855.265	9108.34
855.448	9165.68
855.631	8395.65
855.814	8541.05
855.997	8962.94
856.181	8655.74
856.364	8622.97
856.547	8264.58
856.73	8618.88
856.913	8958.84
857.096	8307.59
857.279	8659.84
857.462	8446.85
857.645	9007.99
857.828	8565.63
858.011	8827.77
858.194	8643.45
858.377	8850.3
858.56	8323.97
858.743	8455.04
858.926	8602.49
859.109	8809.34
859.292	8178.56
859.475	8295.3
859.658	9020.28
859.841	8723.32
860.023	8061.83
860.206	8172.42
860.389	8567.68
860.572	8917.88
860.755	8201.09
860.937	8313.73
861.12	8530.81
861.303	8569.73
861.486	8221.57
861.668	8059.78
861.851	8708.99
862.034	8520.57
862.216	8354.69
862.399	7869.32
862.581	8577.92
862.764	8930.17
862.947	8377.22
863.129	8164.23
863.312	8133.51
863.494	8809.34
863.677	8356.74
863.859	7832.46
864.042	8590.2
864.224	8622.97
864.406	8248.19
864.589	7895.94
864.771	8485.76
864.954	7955.33
865.136	7955.33
865.318	7943.05
865.501	8217.47
865.683	7971.72
865.865	7840.65
866.048	7859.08
866.23	8371.07
866.412	8039.3
866.594	7803.78
866.777	8016.77
866.959	8340.35
867.141	8014.73
867.323	8147.84
867.505	7979.91
867.687	8240
867.869	8166.28
868.052	7863.18
868.234	7865.22
868.416	8172.42
868.598	8418.18
868.78	7830.41
868.962	7900.04
869.144	8395.65
869.326	8338.3
869.508	8012.68
869.69	7906.18
869.872	8057.73
870.054	8373.12
870.236	7869.32
870.417	7805.83
870.599	8002.44
870.781	8504.19
870.963	7793.55
871.145	7814.02
871.327	7879.56
871.508	8194.95
871.69	7846.79
871.872	7820.17
872.054	8303.49
872.235	8203.14
872.417	7717.77
872.599	7551.88
872.78	8532.86
872.962	7945.09
873.144	7713.67
873.325	7953.29
873.507	8598.4
873.689	8252.29
873.87	7605.13
874.052	7941
874.233	8027.01
874.415	8309.63
874.596	7807.88
874.778	7685
874.959	8029.06
875.141	8346.5
875.322	7867.27
875.503	7805.83
875.685	8250.24
875.866	7781.26
876.048	7977.86
876.229	7816.07
876.41	8188.8
876.592	8147.84
876.773	8004.49
876.954	7924.62
877.136	8663.93
877.317	8061.83
877.498	7707.53
877.679	7943.05
877.86	8278.91
878.042	8213.38
878.223	7828.36
878.404	8293.25
878.585	8481.66
878.766	8614.78
878.947	8186.76
879.128	8340.35
879.309	8246.15
879.49	8475.52
879.672	8108.93
879.853	8180.61
880.034	7996.29
880.215	8258.43
880.396	8039.3
880.576	8043.4
880.757	8240
880.938	8553.34
881.119	8016.77
881.3	8057.73
881.481	8248.19
881.662	9120.63
881.843	8061.83
882.023	8162.18
882.204	8334.21
882.385	8536.96
882.566	8045.45
882.747	8299.39
882.927	8373.12
883.108	8698.75
883.289	8299.39
883.469	8541.05
883.65	8463.23
883.831	8639.36
884.011	8590.2
884.192	8256.39
884.373	8907.64
884.553	8604.54
884.734	8520.57
884.914	8719.23
885.095	9354.1
885.275	9259.89
885.456	8561.53
885.636	8297.35
885.817	8729.47
885.997	8717.18
886.178	8278.91
886.358	8483.71
886.538	8694.65
886.719	9593.71
886.899	8459.13
887.08	8512.38
887.26	9089.91
887.44	8493.95
887.621	8461.18
887.801	8733.56
887.981	9292.66
888.161	8958.84
888.342	8594.3
888.522	8627.07
888.702	8932.22
888.882	8919.93
889.062	8708.99
889.242	8328.06
889.423	9286.51
889.603	9167.73
889.783	8739.71
889.963	8532.86
890.143	9063.29
890.323	9053.05
890.503	8510.33
890.683	8643.45
890.863	8932.22
891.043	8917.88
891.223	8801.15
891.403	8819.58
891.583	8895.35
891.763	8987.51
891.943	8780.67
892.122	8782.71
892.302	8944.5
892.482	8936.31
892.662	8713.08
892.842	8813.43
893.022	8921.98
893.201	8792.95
893.381	8878.97
893.561	8713.08
893.741	9110.39
893.92	9159.54
894.1	8704.89
894.28	8668.03
894.459	9350
894.639	9106.29
894.819	8801.15
894.998	9003.89
895.178	9048.95
895.357	9067.38
895.537	8590.2
895.716	8862.58
895.896	9053.05
896.075	9470.83
896.255	8971.13
896.434	8516.48
896.614	9253.75
896.793	9323.38
896.973	9010.04
897.152	8895.35
897.331	8944.5
897.511	9321.33
897.69	8629.12
897.87	9083.77
898.049	9196.4
898.228	9100.15
898.407	8649.6
898.587	8878.97
898.766	8854.39
898.945	9175.92
899.124	9042.81
899.304	8827.77
899.483	9137.01
899.662	9501.55
899.841	8584.06
900.02	8690.56
900.199	9286.51
900.378	9073.53
900.557	8680.32
900.737	8598.4
900.916	9132.92
901.095	9040.76
901.274	9016.18
901.453	8512.38
901.632	8717.18
901.811	8758.14
901.989	8676.22
902.168	8407.94
902.347	9038.71
902.526	8657.79
902.705	8459.13
902.884	8807.29
903.063	9177.97
903.242	9180.02
903.42	8346.5
903.599	8635.26
903.778	8999.8
903.957	9040.76
904.135	8565.63
904.314	8602.49
904.493	8989.56
904.672	8803.19
904.85	8358.78
905.029	8551.29
905.207	8792.95
905.386	9298.8
905.565	8199.04
905.743	8434.56
905.922	8432.51
906.1	8887.16
906.279	8168.32
906.457	8192.9
906.636	8600.44
906.814	8498.05
906.993	8272.77
907.171	8219.52
907.35	8655.74
907.528	8856.44
907.707	8625.02
907.885	8371.07
908.063	8905.59
908.242	8268.67
908.42	8242.05
908.598	7992.2
908.777	8498.05
908.955	8416.13
909.133	8311.68
909.311	7877.51
909.49	8530.81
909.668	8352.64
909.846	8217.47
910.024	7824.26
910.202	8504.19
910.38	8340.35
910.559	7967.62
910.737	7697.29
910.915	8481.66
911.093	8438.66
911.271	8047.49
911.449	8100.74
911.627	8330.11
911.805	8657.79
911.983	8088.45
912.161	7773.07
912.339	8033.16
912.517	8573.82
912.695	8221.57
912.872	8024.97
913.05	7906.18
913.228	8143.75
913.406	7715.72
913.584	7897.99
913.762	8186.76
913.939	7926.66
914.117	7545.74
914.295	7504.78
914.473	8315.78
914.65	8133.51
914.828	7768.97
915.006	7547.79
915.184	7705.48
915.361	7881.61
915.539	7857.03
915.716	7656.33
915.894	8004.49
916.072	8278.91
916.249	7728.01
916.427	7750.54
916.604	7660.43
916.782	7736.2
916.959	7414.67
917.137	7582.6
917.314	7848.84
917.492	7930.76
917.669	7670.67
917.847	7537.55
918.024	7709.58
918.201	7531.41
918.379	7390.1
918.556	7377.81
918.733	7746.44
918.911	7525.26
919.088	7457.68
919.265	7226.26
919.442	7472.01
919.62	7406.48
919.797	7117.72
919.974	7285.65
920.151	7582.6
920.328	7510.93
920.506	7023.51
920.683	7472.01
920.86	7099.28
921.037	7259.03
921.214	7246.74
921.391	7015.32
921.568	7562.12
921.745	7050.13
921.922	6919.06
922.099	6871.96
922.276	7353.23
922.453	7345.04
922.63	6976.41
922.807	7119.76
922.984	7195.54
923.161	6837.14
923.338	6728.6
923.514	6640.54
923.691	7007.13
923.868	7119.76
924.045	6744.99
924.222	6665.11
924.399	7138.2
924.575	7230.35
924.752	6890.39
924.929	6874.01
925.105	7003.03
925.282	6560.67
925.459	6650.78
925.635	6644.63
925.812	6816.66
925.989	6761.37
926.165	6468.51
926.342	6232.99
926.518	6603.68
926.695	6753.18
926.871	6378.4
927.048	6175.65
927.224	6878.1
927.401	6577.05
927.577	6423.45
927.754	6194.08
927.93	6769.56
928.107	6710.17
928.283	6251.42
928.459	6421.41
928.636	6618.01
928.812	6345.63
928.988	6099.87
929.165	6052.77
929.341	6288.29
929.517	6177.7
929.693	6476.7
929.87	5800.87
930.046	6468.51
930.222	5974.95
930.398	5811.11
930.574	6050.72
930.751	6126.5
930.927	6110.11
931.103	5886.89
931.279	5882.79
931.455	5776.3
931.631	6073.25
931.807	5651.37
931.983	5530.54
932.159	5479.34
932.335	5936.04
932.511	5761.96
932.687	5487.53
932.863	5792.68
933.039	5542.83
933.215	5426.09
933.391	5094.32
933.566	5649.32
933.742	5706.66
933.918	5381.04
934.094	5131.19
934.27	5585.83
934.445	5346.22
934.621	5213.1
934.797	4969.4
934.973	5540.78
935.148	5352.37
935.324	4828.09
935.5	4731.83
935.675	5448.62
935.851	5202.86
936.027	4721.59
936.202	4723.64
936.378	5137.33
936.553	4637.63
936.729	5051.31
936.904	4484.03
937.08	4408.25
937.255	4465.6
937.431	4285.37
937.606	3972.04
937.782	4355.01
937.957	4260.8
938.133	4008.9
938.308	3804.1
938.483	4219.84
938.659	3881.92
938.834	3967.94
939.009	3773.38
939.185	3773.38
939.36	3642.31
939.535	3216.33
939.71	3589.07
939.886	3994.56
940.061	3832.77
940.236	3619.78
940.411	3449.8
940.586	3636.17
940.761	3617.74
940.937	3261.39
941.112	3027.92
941.287	3492.81
941.462	3431.37
941.637	3023.83
941.812	3077.07
941.987	3376.08
942.162	3324.88
942.337	3171.28
942.512	3042.26
942.687	3531.72
942.862	3435.47
943.037	2806.74
943.212	2741.21
943.386	3036.11
943.561	3292.11
943.736	3109.84
943.911	3177.42
944.086	3232.72
944.26	3009.49
944.435	2802.65
944.61	3001.3
944.785	3238.86
944.959	3451.85
945.134	2878.42
945.309	2634.71
945.483	2726.87
945.658	3396.56
945.833	2515.93
946.007	2671.58
946.182	3318.73
946.357	2776.02
946.531	2630.62
946.706	2603.99
946.88	2702.29
947.055	2997.2
947.229	2780.12
947.404	2776.02
947.578	3245.01
947.752	2819.03
947.927	2726.87
948.101	2700.25
948.276	3136.46
948.45	3134.42
948.624	2929.62
948.799	2882.52
948.973	2972.63
949.147	2565.08
949.321	2864.08
949.496	2798.55
949.67	3390.41
949.844	2837.46
950.018	2651.1
950.193	2675.67
950.367	3562.44
950.541	2923.48
950.715	2935.76
950.889	2882.52
951.063	2896.85
951.237	3371.98
951.411	2661.34
951.585	2579.42
951.759	3318.73
951.933	3038.16
952.107	2816.98
952.281	2997.2
952.455	3396.56
952.629	3101.65
952.803	2726.87
952.977	2706.39
953.151	3275.73
953.325	3105.74
953.499	3097.55
953.672	2479.07
953.846	2833.36
954.02	2868.18
954.194	2747.35
954.368	2765.78
954.541	3064.79
954.715	2964.43
954.889	2872.28
955.062	2634.71
955.236	2970.58
955.41	2933.72
955.583	2886.61
955.757	2585.56
955.93	2778.07
956.104	2741.21
956.278	2708.44
956.451	2829.27
956.625	2986.96
956.798	3361.74
956.972	2798.55
957.145	2548.7
957.319	2937.81
957.492	2950.1
957.665	2872.28
957.839	2487.26
958.012	3093.46
958.185	2829.27
958.359	2702.29
958.532	2806.74
958.705	3079.12
958.879	2913.24
959.052	2776.02
959.225	2552.79
959.398	2892.76
959.572	2978.77
959.745	2655.19
959.918	2739.16
960.091	2708.44
960.264	2900.95
960.438	2528.22
960.611	2558.94
960.784	3230.67
960.957	2765.78
961.13	3077.07
961.303	2642.9
961.476	3013.59
961.649	3023.83
961.822	2503.64
961.995	2800.6
962.168	2958.29
962.341	2882.52
962.514	2651.1
962.686	2640.86
962.859	3015.63
963.032	2952.15
963.205	2657.24
963.378	2552.79
963.551	3013.59
963.723	2995.15
963.896	2712.53
964.069	2823.12
964.242	2814.93
964.414	2999.25
964.587	2757.59
964.76	2724.82
964.932	2880.47
965.105	2798.55
965.278	2474.97
965.45	2483.16
965.623	2743.25
965.795	2913.24
965.968	2585.56
966.14	2468.83
966.313	2681.82
966.485	2847.7
966.658	2548.7
966.83	2446.3
967.003	2956.24
967.175	2876.37
967.348	2491.35
967.52	2421.72
967.692	3060.69
967.865	2847.7
968.037	2493.4
968.209	2782.17
968.382	2683.86
968.554	2905.04
968.726	2446.3
968.898	2485.21
969.071	2786.26
969.243	2819.03
969.415	2511.83
969.587	2577.37
969.759	3138.51
969.932	2878.42
970.104	2474.97
970.276	2218.97
970.448	2571.22
970.62	2556.89
970.792	2499.55
970.964	2538.46
971.136	3208.14
971.308	2868.18
971.48	2511.83
971.652	2438.11
971.824	3083.22
971.996	2569.18
972.168	2397.15
972.339	2499.55
972.511	2806.74
972.683	2569.18
972.855	2565.08
973.027	2325.47
973.199	2587.61
973.37	2855.89
973.542	2493.4
973.714	2499.55
973.886	2681.82
974.057	2798.55
974.229	2348
974.401	2431.96
974.572	2401.24
974.744	2110.43
974.915	2311.13
975.087	2210.78
975.259	2927.57
975.43	2413.53
975.602	2298.84
975.773	2341.85
975.945	2438.11
976.116	2647
976.288	2075.62
976.459	2423.77
976.63	2464.73
976.802	2644.95
976.973	2292.7
977.145	2407.39
977.316	2925.52
977.487	2761.69
977.659	2434.01
977.83	2212.83
978.001	2876.37
978.172	2565.08
978.344	2178.01
978.515	2225.12
978.686	2241.5
978.857	2735.06
979.028	2173.92
979.2	2210.78
979.371	2626.52
979.542	2530.27
979.713	2409.44
979.884	1979.36
980.055	2233.31
980.226	2335.71
980.397	2161.63
980.568	1983.46
980.739	2698.2
980.91	2350.04
981.081	2421.72
981.252	2053.09
981.423	2466.78
981.594	2517.98
981.765	2075.62
981.936	2239.45
982.106	2454.49
982.277	2524.12
982.448	2180.06
982.619	2452.44
982.79	2210.78
982.96	2579.42
983.131	2290.65
983.302	1954.79
983.472	2173.92
983.643	2403.29
983.814	2221.02
983.984	2008.03
984.155	2278.37
984.326	2608.09
984.496	2325.47
984.667	2016.23
984.837	2139.1
985.008	2526.17
985.178	2319.32
985.349	2014.18
985.519	2261.98
985.69	2104.29
985.86	2008.03
986.031	1934.31
986.201	2298.84
986.371	2366.43
986.542	1893.35
986.712	1717.22
986.882	2407.39
987.053	2259.93
987.223	2057.18
987.393	2110.43
987.563	2083.81
987.734	2425.82
987.904	2284.51
988.074	2001.89
988.244	2253.79
988.414	2042.85
988.585	1856.48
988.755	2128.86
988.925	2216.93
989.095	2599.9
989.265	1876.96
989.435	2048.99
989.605	2241.5
989.775	2438.11
989.945	2243.55
990.115	1793
990.285	2085.86
990.455	2126.82
990.625	1956.83
990.795	1776.61
990.965	2448.35
991.134	1940.45
991.304	1817.57
991.474	1713.13
991.644	2339.8
991.814	2364.38
991.984	1760.23
992.153	1893.35
992.323	2044.9
992.493	2024.42
992.662	1586.15
992.832	2026.47
993.002	2151.39
993.171	2163.68
993.341	1614.82
993.511	1840.1
993.68	1770.47
993.85	2210.78
994.019	1676.26
994.189	1731.56
994.358	2048.99
994.528	1868.77
994.697	1311.72
994.867	1694.69
995.036	2028.51
995.206	1881.06
995.375	1704.93
995.544	1842.15
995.714	2075.62
995.883	1723.37
996.052	1745.89
996.222	1348.59
996.391	2423.77
996.56	1985.51
996.73	1610.73
996.899	1477.61
997.068	2294.75
997.237	2042.85
997.406	1596.39
997.576	1506.28
997.745	2057.18
997.914	1948.64
998.083	1438.7
998.252	1532.9
998.421	1965.03
998.59	1696.74
998.759	1545.19
998.928	1405.93
999.097	2186.21
999.266	1887.2
999.435	1666.02
999.604	1391.59
999.773	2401.24
999.942	1883.11
1000.111	1319.92
1000.28	1332.2
1000.448	1573.86
1000.617	1651.69
1000.786	1733.61
1000.955	1330.16
1001.124	1833.96
1001.292	2446.3
1001.461	1455.08
1001.63	1483.75
1001.798	2122.72
1001.967	2053.09
1002.136	1381.35
1002.304	1420.27
1002.473	1831.91
1002.642	1903.59
1002.81	1410.03
1002.979	1442.79
1003.147	1823.72
1003.316	2257.89
1003.484	1473.51
1003.653	1364.97
1003.821	2065.38
1003.99	1692.65
1004.158	1530.86
1004.327	1397.74
1004.495	1885.16
1004.663	1485.8
1004.832	1549.29
1005	1127.41
1005.168	1885.16
1005.337	1672.17
1005.505	1254.38
1005.673	1516.52
1005.842	1723.37
1006.01	1868.77
1006.178	1164.27
1006.346	1250.28
1006.514	1702.89
1006.683	1991.65
1006.851	1190.89
1007.019	1182.7
1007.187	1426.41
1007.355	1092.59
1007.523	1121.26
1007.691	1135.6
1007.859	1199.09
1008.027	1889.25
1008.195	1252.33
1008.363	1188.85
1008.531	1682.41
1008.699	1338.35
1008.867	1018.86
1009.035	1197.04
1009.203	1745.89
1009.37	1561.58
1009.538	1258.48
1009.706	1590.25
1009.874	1702.89
1010.042	1537
1010.209	1096.69
1010.377	1104.88
1010.545	1799.14
1010.713	1532.9
1010.88	1025.01
1011.048	1268.72
1011.216	1450.99
1011.383	1848.29
1011.551	1008.62
1011.718	1108.98
1011.886	1727.46
1012.054	1428.46
1012.221	1078.26
1012.389	1037.3
1012.556	1367.02
1012.724	1995.75
1012.891	1199.09
1013.058	1045.49
1013.226	1698.79
1013.393	1643.49
1013.561	871.41
1013.728	1002.48
1013.895	1635.3
1014.063	1545.19
1014.23	887.79
1014.397	1033.2
1014.565	1686.5
1014.732	1367.02
1014.899	1027.06
1015.066	971.76
1015.233	1344.49
1015.401	1537
1015.568	1127.41
1015.735	1170.41
1015.902	1340.4
1016.069	1436.65
1016.236	1020.91
1016.403	914.42
1016.57	1022.96
1016.737	1553.38
1016.904	1074.16
1017.071	826.36
1017.238	1250.28
1017.405	1567.72
1017.572	951.28
1017.739	1111.02
1017.906	1321.96
1018.073	1569.77
1018.24	758.77
1018.407	973.81
1018.573	1455.08
1018.74	1242.09
1018.907	1025.01
1019.074	795.64
1019.241	1426.41
1019.407	1283.05
1019.574	840.69
1019.741	777.2
1019.907	1246.19
1020.074	1410.03
1020.241	605.17
1020.407	713.72
1020.574	1377.26
1020.74	1299.44
1020.907	922.61
1021.073	816.12
1021.24	1702.89
1021.406	1647.59
1021.573	740.34
1021.739	756.72
1021.906	1358.83
1022.072	1203.18
1022.239	861.17
1022.405	793.59
1022.571	1164.27
1022.738	959.47
1022.904	857.07
1023.07	832.5
1023.237	1180.65
1023.403	1479.66
1023.569	771.06
1023.735	830.45
1023.902	1266.67
1024.068	1293.29
1024.234	713.72
1024.4	668.66
1024.566	1248.24
1024.732	1344.49
1024.898	801.78
1025.065	529.4
1025.231	1244.14
1025.397	988.14
1025.563	674.81
1025.729	764.92
1025.895	650.23
1026.061	863.22
1026.227	533.5
1026.392	807.92
1026.558	1375.21
1026.724	1092.59
1026.89	607.22
1027.056	852.98
1027.222	1127.41
1027.388	852.98
1027.553	695.29
1027.719	683
1027.885	1338.35
1028.051	1090.54
1028.216	537.59
1028.382	676.85
1028.548	1242.09
1028.713	945.14
1028.879	574.46
1029.045	812.02
1029.21	1356.78
1029.376	1248.24
1029.541	652.28
1029.707	750.58
1029.873	1129.45
1030.038	1176.56
1030.204	627.7
1030.369	658.42
1030.534	1170.41
1030.7	930.8
1030.865	562.17
1031.031	611.32
1031.196	1184.75
1031.361	1018.86
1031.527	637.94
1031.692	549.88
1031.857	551.93
1032.023	1194.99
1032.188	486.39
1032.353	629.75
1032.518	1328.11
1032.684	1031.15
1032.849	402.43
1033.014	611.32
1033.179	1145.84
1033.344	1004.53
1033.509	668.66
1033.674	523.26
1033.839	1088.5
1034.004	1102.83
1034.17	496.63
1034.335	474.1
1034.5	728.05
1034.664	668.66
1034.829	502.78
1034.994	666.61
1035.159	961.52
1035.324	969.71
1035.489	539.64
1035.654	474.1
1035.819	1270.76
1035.984	916.47
1036.148	576.5
1036.313	484.34
1036.478	1053.68
1036.643	822.26
1036.807	445.43
1036.972	398.33
1037.137	1190.89
1037.301	898.03
1037.466	265.21
1037.631	541.69
1037.795	1014.77
1037.96	869.36
1038.124	650.23
1038.289	357.37
1038.454	1033.2
1038.618	1029.1
1038.783	500.73
1038.947	521.21
1039.111	809.97
1039.276	713.72
1039.44	484.34
1039.605	850.93
1039.769	736.24
1039.933	869.36
1040.098	508.92
1040.262	605.17
1040.426	1045.49
1040.591	979.95
1040.755	373.75
1040.919	435.19
1041.083	971.76
1041.248	680.95
1041.412	185.34
1041.576	336.89
1041.74	764.92
1041.904	906.23
1042.068	320.51
1042.232	513.02
1042.397	961.52
1042.561	836.6
1042.725	84.99
1042.889	523.26
1043.053	820.21
1043.217	850.93
1043.381	472.06
1043.544	234.49
1043.708	979.95
1043.872	435.19
1044.036	117.76
1044.2	273.4
1044.364	1020.91
1044.528	1037.3
1044.691	3355.6
1044.855	195.58
1045.019	959.47
1045.183	816.12
1045.346	355.32
1045.51	349.18
1045.674	775.16
1045.837	812.02
1046.001	340.99
1046.165	336.89
1046.328	1246.19
1046.492	816.12
1046.655	496.63
1046.819	410.62
1046.983	541.69
1047.146	869.36
1047.31	254.97
1047.473	87.04
1047.636	568.31
1047.8	480.25
1047.963	355.32
1048.127	273.4
1048.29	510.97
