Data from Ink_Intensity_USB4F045381__85__00085.txt Node

Date: Mon Jul 17 10:57:04 EDT 2023
User: mmckonesweet
Spectrometer: USB4F04538
Trigger mode: 4
Integration Time (sec): 9.000000E-1
Scans to average: 1
Electric dark correction enabled: true
Nonlinearity correction enabled: false
Boxcar width: 0
XAxis mode: Wavelengths
Number of Pixels in Spectrum: 3648
>>>>>Begin Spectral Data<<<<<
345.52	-1060.85
345.736	-1060.85
345.952	-1060.85
346.168	-1005.55
346.384	-935.92
346.6	-147.45
346.816	-163.84
347.032	-241.66
347.248	290.81
347.464	-159.74
347.68	-100.35
347.896	53.25
348.112	385.02
348.328	-88.06
348.544	-110.59
348.76	83.97
348.975	198.65
349.191	-245.76
349.407	-157.69
349.623	77.82
349.839	-28.67
350.055	-161.79
350.27	69.63
350.486	165.89
350.702	397.31
350.918	256
351.133	-143.36
351.349	198.65
351.565	489.46
351.781	-167.93
351.996	-10.24
352.212	319.48
352.428	-75.77
352.644	-83.97
352.859	-241.66
353.075	303.1
353.291	141.31
353.506	-6.14
353.722	-243.71
353.938	-8.19
354.153	511.99
354.369	219.13
354.584	-110.59
354.8	225.28
355.016	-198.65
355.231	-124.93
355.447	53.25
355.662	217.08
355.878	870.39
356.093	-272.38
356.309	18.43
356.524	-225.28
356.74	292.86
356.955	-237.56
357.171	-34.82
357.386	124.93
357.602	-268.28
357.817	-40.96
358.033	-116.73
358.248	452.6
358.464	163.84
358.679	-165.89
358.895	-239.61
359.11	71.68
359.325	370.68
359.541	118.78
359.756	30.72
359.972	-260.09
360.187	227.32
360.402	-157.69
360.618	-118.78
360.833	995.31
361.048	225.28
361.264	-102.4
361.479	63.49
361.694	43.01
361.909	180.22
362.125	-157.69
362.34	-94.21
362.555	354.3
362.77	94.21
362.986	-225.28
363.201	-104.45
363.416	251.9
363.631	124.93
363.847	-116.73
364.062	-112.64
364.277	223.23
364.492	122.88
364.707	-71.68
364.922	-346.11
365.138	290.81
365.353	436.22
365.568	-237.56
365.783	-143.36
365.998	90.11
366.213	598.01
366.428	-178.17
366.643	151.55
366.858	249.85
367.073	282.62
367.288	-12.29
367.503	-167.93
367.718	208.89
367.933	319.48
368.148	-163.84
368.363	-10.24
368.578	26.62
368.793	479.22
369.008	-108.54
369.223	-204.8
369.438	305.15
369.653	432.12
369.868	-270.33
370.083	-135.17
370.298	237.56
370.513	405.5
370.728	55.3
370.943	-71.68
371.157	-141.31
371.372	626.68
371.587	-241.66
371.802	-204.8
372.017	178.17
372.232	487.42
372.446	81.92
372.661	-198.65
372.876	272.38
373.091	202.75
373.306	-18.43
373.52	-210.94
373.735	-28.67
373.95	497.66
374.165	-20.48
374.379	-20.48
374.594	-49.15
374.809	249.85
375.023	192.51
375.238	-145.41
375.453	311.29
375.667	-249.85
375.882	-77.82
376.097	-143.36
376.311	57.34
376.526	96.25
376.741	-133.12
376.955	184.32
377.17	704.5
377.384	686.07
377.599	14.34
377.813	-143.36
378.028	741.36
378.242	202.75
378.457	40.96
378.672	-237.56
378.886	188.41
379.101	102.4
379.315	-251.9
379.53	-24.58
379.744	309.24
379.958	296.96
380.173	-32.77
380.387	-116.73
380.602	276.48
380.816	-79.87
381.031	-6.14
381.245	-40.96
381.459	364.54
381.674	2885.59
381.888	-106.49
382.103	233.47
382.317	-8.19
382.531	540.66
382.746	32.77
382.96	-118.78
383.174	-18.43
383.388	636.92
383.603	147.45
383.817	-122.88
384.031	256
384.246	518.14
384.46	110.59
384.674	471.03
384.888	124.93
385.103	208.89
385.317	-114.69
385.531	71.68
385.745	456.7
385.959	458.74
386.174	-86.01
386.388	-155.65
386.602	188.41
386.816	12.29
387.03	43.01
387.244	4.1
387.458	212.99
387.672	434.17
387.887	-110.59
388.101	-155.65
388.315	448.51
388.529	262.14
388.743	0
388.957	-69.63
389.171	552.95
389.385	22.53
389.599	-43.01
389.813	223.23
390.027	333.82
390.241	663.54
390.455	-38.91
390.669	20.48
390.883	104.45
391.097	610.29
391.311	151.55
391.525	-18.43
391.738	315.39
391.952	350.2
392.166	217.08
392.38	-8.19
392.594	487.42
392.808	600.05
393.022	55.3
393.236	90.11
393.449	489.46
393.663	245.76
393.877	-36.86
394.091	110.59
394.305	61.44
394.518	4.1
394.732	-81.92
394.946	20.48
395.16	647.16
395.373	315.39
395.587	-32.77
395.801	28.67
396.015	589.82
396.228	376.83
396.442	-73.73
396.656	-147.45
396.869	499.7
397.083	622.58
397.297	165.89
397.51	-24.58
397.724	511.99
397.938	294.91
398.151	-77.82
398.365	-16.38
398.578	477.18
398.792	595.96
399.005	151.55
399.219	94.21
399.433	292.86
399.646	419.83
399.86	305.15
400.073	241.66
400.287	501.75
400.5	260.09
400.714	249.85
400.927	167.93
401.141	466.94
401.354	1312.75
401.567	518.14
401.781	-43.01
401.994	600.05
402.208	839.67
402.421	188.41
402.635	153.6
402.848	337.91
403.061	634.87
403.275	200.7
403.488	12.29
403.701	829.43
403.915	540.66
404.128	278.52
404.341	180.22
404.555	442.36
404.768	301.05
404.981	335.87
405.195	124.93
405.408	663.54
405.621	536.57
405.834	233.47
406.048	10.24
406.261	690.17
406.474	804.85
406.687	120.83
406.9	284.67
407.114	389.11
407.327	380.92
407.54	-26.62
407.753	-90.11
407.966	186.37
408.179	583.67
408.392	79.87
408.605	55.3
408.819	473.08
409.032	530.42
409.245	102.4
409.458	378.87
409.671	585.72
409.884	602.1
410.097	143.36
410.31	364.54
410.523	555
410.736	409.59
410.949	258.04
411.162	241.66
411.375	770.04
411.588	681.97
411.801	395.26
412.014	114.69
412.227	405.5
412.44	348.15
412.653	200.7
412.865	378.87
413.078	708.6
413.291	620.53
413.504	337.91
413.717	194.56
413.93	618.49
414.143	311.29
414.356	256
414.568	96.25
414.781	647.16
414.994	593.91
415.207	348.15
415.42	278.52
415.632	675.83
415.845	991.22
416.058	88.06
416.271	120.83
416.483	487.42
416.696	880.63
416.909	307.2
417.121	227.32
417.334	641.01
417.547	954.35
417.759	251.9
417.972	237.56
418.185	446.46
418.397	727.03
418.61	333.82
418.823	344.06
419.035	931.83
419.248	507.9
419.46	376.83
419.673	458.74
419.885	745.46
420.098	514.04
420.311	307.2
420.523	102.4
420.736	784.37
420.948	555
421.161	397.31
421.373	182.27
421.586	651.25
421.798	407.55
422.01	241.66
422.223	460.79
422.435	346.11
422.648	737.27
422.86	266.24
423.073	368.63
423.285	813.04
423.497	342.01
423.71	358.39
423.922	344.06
424.134	765.94
424.347	964.59
424.559	636.92
424.771	641.01
424.984	602.1
425.196	659.45
425.408	221.18
425.621	358.39
425.833	919.54
426.045	907.25
426.257	374.78
426.47	385.02
426.682	813.04
426.894	778.23
427.106	460.79
427.318	524.28
427.531	495.61
427.743	892.91
427.955	507.9
428.167	913.39
428.379	919.54
428.591	765.94
428.804	630.77
429.016	421.88
429.228	548.86
429.44	743.41
429.652	782.32
429.864	348.15
430.076	774.13
430.288	749.56
430.5	636.92
430.712	669.69
430.924	1003.5
431.136	829.43
431.348	421.88
431.56	585.72
431.772	770.04
431.984	774.13
432.196	565.24
432.408	610.29
432.62	696.31
432.832	958.45
433.044	860.15
433.256	778.23
433.468	1189.87
433.679	532.47
433.891	552.95
434.103	978.93
434.315	1167.34
434.527	1048.56
434.739	694.26
434.95	688.12
435.162	1126.38
435.374	856.05
435.586	794.61
435.798	692.21
436.009	735.22
436.221	894.96
436.433	681.97
436.645	739.32
436.856	741.36
437.068	1288.17
437.28	626.68
437.491	923.63
437.703	1169.39
437.915	1069.04
438.126	800.76
438.338	987.12
438.55	1114.09
438.761	1126.38
438.973	755.7
439.184	761.84
439.396	1103.86
439.608	1259.5
439.819	712.69
440.031	884.72
440.242	1294.32
440.454	1208.3
440.665	876.53
440.877	876.53
441.088	1308.65
441.3	1173.49
441.511	757.75
441.723	827.38
441.934	1173.49
442.146	1193.97
442.357	1187.82
442.569	1208.3
442.78	1169.39
442.991	1523.69
443.203	1304.56
443.414	778.23
443.626	1527.78
443.837	991.22
444.048	913.39
444.26	835.57
444.471	1226.73
444.682	1251.31
444.894	839.67
445.105	849.91
445.316	1380.33
445.528	1413.1
445.739	1175.53
445.95	1089.52
446.161	1228.78
446.373	1619.94
446.584	1079.28
446.795	1146.86
447.006	1511.4
447.217	1574.89
447.429	923.63
447.64	991.22
447.851	1507.3
448.062	1390.57
448.273	866.29
448.484	1110
448.695	1470.44
448.907	1286.12
449.118	1196.01
449.329	1253.36
449.54	1198.06
449.751	1052.66
449.962	1028.08
450.173	1150.96
450.384	1654.76
450.595	1677.29
450.806	1171.44
451.017	1294.32
451.228	1759.21
451.439	1589.22
451.65	1171.44
451.861	964.59
452.072	1216.49
452.283	1402.86
452.494	1357.8
452.705	1337.32
452.915	1724.39
453.126	1607.66
453.337	1478.63
453.548	1175.53
453.759	1830.88
453.97	2166.75
454.181	1642.47
454.391	1394.67
454.602	1642.47
454.813	1785.83
455.024	1525.74
455.235	1404.91
455.445	1665
455.656	1722.34
455.867	1619.94
456.078	1392.62
456.288	1540.07
456.499	1777.64
456.71	1388.52
456.921	1654.76
457.131	1873.89
457.342	1773.54
457.553	1648.61
457.763	1486.83
457.974	2027.49
458.184	1968.1
458.395	1464.3
458.606	1538.02
458.816	2097.12
459.027	2396.12
459.237	1634.28
459.448	1484.78
459.659	2138.08
459.869	2465.75
460.08	1546.22
460.29	1916.9
460.501	2381.79
460.711	1920.99
460.922	1517.54
461.132	1650.66
461.343	2707.41
461.553	1785.83
461.764	1822.69
461.974	1966.05
462.184	2136.03
462.395	2179.04
462.605	1816.55
462.816	1794.02
463.026	2312.16
463.236	2498.52
463.447	1863.65
463.657	1978.34
463.867	2570.2
464.078	2129.89
464.288	1978.34
464.498	2066.4
464.709	2398.17
464.919	2324.44
465.129	2093.02
465.339	1996.77
465.55	2529.24
465.76	2539.48
465.97	2109.41
466.18	2140.13
466.391	2791.38
466.601	2547.67
466.811	2289.63
467.021	2121.7
467.231	2664.41
467.441	2932.69
467.651	2381.79
467.862	2129.89
468.072	2781.14
468.282	3071.95
468.492	2574.3
468.702	2631.64
468.912	2854.87
469.122	3411.92
469.332	2971.6
469.542	2521.05
469.752	3127.25
469.962	3069.91
470.172	2662.36
470.382	2873.3
470.592	3231.69
470.802	3309.52
471.012	2906.07
471.222	2854.87
471.432	3420.11
471.642	3465.16
471.852	3172.3
472.062	2959.31
472.272	3268.56
472.482	3186.64
472.691	3059.67
472.901	2977.75
473.111	3506.12
473.321	4067.27
473.531	3203.02
473.741	3485.64
473.95	3866.57
474.16	3706.82
474.37	3616.71
474.58	3319.76
474.79	4341.69
474.999	4136.9
475.209	3657.67
475.419	3637.19
475.628	3983.3
475.838	4351.93
476.048	3862.47
476.258	3606.47
476.467	4476.86
476.677	4100.03
476.886	4157.38
477.096	3940.29
477.306	4239.3
477.515	4640.7
477.725	4259.77
477.935	4241.34
478.144	4741.05
478.354	4304.83
478.563	4472.76
478.773	4300.73
478.982	4714.42
479.192	5035.96
479.401	4569.02
479.611	4274.11
479.82	4626.36
480.03	5062.58
480.239	4718.52
480.449	4591.55
480.658	5574.57
480.868	5007.28
481.077	5083.06
481.287	4919.22
481.496	5224.37
481.705	5779.37
481.915	5400.49
482.124	5232.56
482.333	5517.23
482.543	5875.62
482.752	5218.22
482.961	5230.51
483.171	5728.17
483.38	5597.1
483.589	5490.6
483.799	5543.85
484.008	5590.95
484.217	6123.43
484.426	5576.62
484.636	5808.04
484.845	5982.12
485.054	5701.55
485.263	6098.85
485.472	5842.85
485.682	6524.83
485.891	6340.51
486.1	5754.79
486.309	6186.91
486.518	6563.74
486.727	6838.17
486.936	6076.32
487.146	6270.88
487.355	6942.61
487.564	6303.65
487.773	6533.02
487.982	6504.35
488.191	6643.61
488.4	6852.5
488.609	6528.92
488.818	6608.8
489.027	7384.98
489.236	7489.42
489.445	6879.13
489.654	6670.23
489.863	7440.27
490.072	7094.16
490.281	7225.23
490.49	6961.05
490.698	7575.44
490.907	7643.02
491.116	7366.54
491.325	7233.43
491.534	7688.07
491.743	7460.75
491.952	7266.19
492.16	7454.61
492.369	7810.95
492.578	7958.41
492.787	7708.55
492.996	7518.09
493.204	7585.68
493.413	8472.45
493.622	7468.94
493.831	7346.06
494.039	8509.31
494.248	7821.19
494.457	7896.97
494.665	7741.32
494.874	8195.97
495.083	8763.26
495.291	8107.91
495.5	8001.41
495.709	8507.26
495.917	8378.24
496.126	8429.44
496.335	8200.07
496.543	8507.26
496.752	8763.26
496.96	8624
497.169	8413.06
497.377	8748.92
497.586	9037.69
497.794	8761.21
498.003	8347.52
498.211	8912.76
498.42	9072.5
498.628	8773.5
498.837	8822.65
499.045	9047.93
499.254	9293.68
499.462	8779.64
499.671	8978.3
499.879	9580.4
500.087	9234.29
500.296	9045.88
500.504	9054.07
500.713	9428.85
500.921	10014.57
501.129	9166.71
501.338	9127.8
501.546	9809.77
501.754	9523.05
501.962	9209.72
502.171	9142.13
502.379	9690.99
502.587	10045.29
502.795	9541.49
503.004	9443.18
503.212	9899.88
503.42	10131.3
503.628	9703.28
503.837	9764.72
504.045	10067.81
504.253	10458.98
504.461	9895.78
504.669	9805.67
504.877	10344.29
505.085	10501.98
505.294	9705.32
505.502	10088.29
505.71	10327.91
505.918	10418.02
506.126	10016.62
506.334	10059.62
506.542	10467.17
506.75	10436.45
506.958	10418.02
507.166	10121.06
507.374	10465.12
507.582	11013.98
507.79	10450.78
507.998	10248.04
508.206	10821.47
508.414	10764.12
508.622	10559.33
508.83	10403.68
509.037	11171.67
509.245	10669.92
509.453	10614.62
509.661	10747.74
509.869	10958.68
510.077	10835.8
510.285	10719.07
510.492	10526.56
510.7	11706.19
510.908	10960.73
511.116	10667.87
511.324	10839.9
511.531	11091.8
511.739	11353.94
511.947	11050.84
512.155	11435.86
512.362	11429.71
512.57	11112.28
512.778	11126.61
512.985	10784.6
513.193	11716.43
513.401	11706.19
513.608	11327.32
513.816	11192.15
514.024	11640.65
514.231	11951.95
514.439	11380.56
514.646	11777.87
514.854	11908.94
515.061	11759.44
515.269	11546.45
515.477	11464.53
515.684	11700.05
515.892	12080.97
516.099	11491.15
516.307	11880.27
516.514	12218.18
516.722	12457.79
516.929	11695.95
517.136	11716.43
517.344	12412.74
517.551	12250.95
517.759	11888.46
517.966	12185.41
518.173	12316.48
518.381	12564.29
518.588	12093.26
518.796	11972.43
519.003	12633.92
519.21	12588.86
519.418	12461.89
519.625	12218.18
519.832	12302.15
520.039	12607.3
520.247	12130.12
520.454	12318.53
520.661	13168.44
520.868	12717.89
521.076	12568.38
521.283	12605.25
521.49	13555.51
521.697	12994.36
521.904	12631.87
522.112	12422.98
522.319	13029.18
522.526	13047.61
522.733	12810.04
522.94	12828.48
523.147	13203.25
523.354	13567.79
523.561	12949.31
523.768	13096.76
523.975	13436.72
524.183	13322.04
524.39	13182.77
524.597	12998.46
524.804	13543.22
525.011	13197.11
525.218	13061.94
525.425	13422.39
525.632	13901.61
525.838	13481.78
526.045	13180.73
526.252	13440.82
526.459	14870.3
526.666	14688.03
526.873	13547.31
527.08	13541.17
527.287	14473
527.494	14176.04
527.701	13610.8
527.907	13686.58
528.114	14462.76
528.321	14108.46
528.528	13926.19
528.735	14108.46
528.941	14047.02
529.148	13766.45
529.355	13995.82
529.562	13883.18
529.768	14788.38
529.975	14161.7
530.182	14104.36
530.388	14055.21
530.595	14630.69
530.802	14167.85
531.008	14759.71
531.215	14356.26
531.422	15595.28
531.628	15550.23
531.835	14454.56
532.042	14751.52
532.248	14825.25
532.455	14966.56
532.661	14567.2
532.868	14616.35
533.074	15077.15
533.281	15271.7
533.487	15034.14
533.694	14745.37
533.9	15212.31
534.107	15361.81
534.313	14923.55
534.52	14874.4
534.726	15654.67
534.933	15642.39
535.139	15118.11
535.345	14950.17
535.552	15810.32
535.758	15363.86
535.965	15632.15
536.171	15560.47
536.377	15648.53
536.584	15861.52
536.79	15501.08
536.996	15884.05
537.203	15931.15
537.409	16068.36
537.615	15609.62
537.821	15726.35
538.028	16236.3
538.234	16137.99
538.44	15662.86
538.646	15867.66
538.853	16385.8
539.059	15757.07
539.265	16324.36
539.471	15761.17
539.677	16371.46
539.883	16250.63
540.09	15970.06
540.296	16602.88
540.502	16635.65
540.708	16334.6
540.914	16516.87
541.12	16209.67
541.326	16637.7
541.532	16854.78
541.738	16705.28
541.944	16445.19
542.15	17344.25
542.356	16901.89
542.562	16760.58
542.768	16770.82
542.974	17633.01
543.18	17542.9
543.386	17100.54
543.592	16942.85
543.798	17579.76
544.004	17446.65
544.21	16787.2
544.415	17237.75
544.621	17291
544.827	17436.41
545.033	17219.32
545.239	17483.51
545.445	17385.21
545.651	17442.55
545.856	17370.87
546.062	17319.67
546.268	17710.83
546.474	17563.38
546.679	17436.41
546.885	17282.81
547.091	17557.24
547.297	17895.15
547.502	17403.64
547.708	17372.92
547.914	17456.89
548.119	18214.63
548.325	17360.63
548.531	17321.72
548.736	18667.24
548.942	17714.93
549.147	17473.27
549.353	17940.21
549.559	18536.17
549.764	18419.43
549.97	17731.31
550.175	17874.67
550.381	18288.36
550.586	17886.96
550.792	18120.43
550.997	17970.93
551.203	18646.76
551.408	18476.77
551.614	17911.53
551.819	18159.34
552.025	19164.89
552.23	19119.84
552.435	18288.36
552.641	18671.33
552.846	18781.92
553.052	19082.97
553.257	18753.25
553.462	18706.15
553.668	19054.3
553.873	19381.98
554.078	18472.68
554.283	18685.67
554.489	19244.76
554.694	18876.13
554.899	18824.93
555.105	19222.23
555.31	19418.84
555.515	19654.36
555.72	18982.62
555.925	19066.59
556.131	19547.86
556.336	19177.18
556.541	19265.24
556.746	18861.79
556.951	19918.54
557.156	19896.02
557.361	19320.54
557.567	19539.67
557.772	20086.48
557.977	19750.61
558.182	19259.1
558.387	19390.17
558.592	19490.52
558.797	20453.06
559.002	19664.6
559.207	19889.87
559.412	19979.98
559.617	20494.02
559.822	19664.6
560.027	19644.12
560.232	19889.87
560.437	20475.59
560.642	19664.6
560.847	19644.12
561.051	19947.22
561.256	19924.69
561.461	19857.1
561.666	19668.69
561.871	19953.36
562.076	20338.38
562.281	20174.54
562.485	20018.89
562.69	20567.75
562.895	20457.16
563.1	20178.64
563.305	20158.16
563.509	20876.99
563.714	21210.81
563.919	20229.84
564.123	20377.29
564.328	20584.13
564.533	20911.81
564.737	20397.77
564.942	20233.93
565.147	20969.15
565.351	21323.45
565.556	20618.95
565.761	20635.33
565.965	20553.41
566.17	20633.29
566.374	20549.32
566.579	20539.08
566.784	20833.99
566.988	20887.23
567.193	20688.58
567.397	20678.34
567.602	21014.21
567.806	21081.79
568.011	20946.62
568.215	21296.83
568.42	21139.13
568.624	21554.87
568.828	21118.65
569.033	20917.95
569.237	21601.97
569.442	21647.03
569.646	20876.99
569.85	21491.38
570.055	21679.8
570.259	21860.02
570.463	21790.39
570.668	21223.1
570.872	21659.32
571.076	21577.4
571.281	21757.62
571.485	21536.44
571.689	22130.35
571.893	22204.08
572.098	21749.43
572.302	21509.82
572.506	22001.33
572.71	22212.27
572.914	21499.58
573.119	21681.85
573.323	21954.22
573.527	22683.3
573.731	21825.2
573.935	21913.27
574.139	22498.98
574.343	21962.42
574.547	21843.63
574.751	22163.12
574.955	22873.76
575.159	22646.44
575.364	22224.56
575.568	21958.32
575.772	22269.61
575.976	22648.49
576.18	21827.25
576.383	22159.02
576.587	22906.53
576.791	22906.53
576.995	21966.51
577.199	22245.04
577.403	22992.55
577.607	23309.98
577.811	22570.66
578.015	22501.03
578.219	22877.86
578.422	23101.09
578.626	23199.39
578.83	22953.63
579.034	23031.46
579.238	22988.45
579.442	23043.74
579.645	23031.46
579.849	23297.69
580.053	23295.64
580.257	22986.4
580.46	22965.92
580.664	23463.58
580.868	23596.7
581.071	23543.45
581.275	23563.93
581.479	23269.02
581.682	23555.74
581.886	23017.12
582.09	23594.65
582.293	23668.37
582.497	23692.95
582.7	23395.99
582.904	23008.93
583.107	23891.6
583.311	23682.71
583.515	23936.66
583.718	23695
583.922	24333.96
584.125	24262.29
584.329	23586.46
584.532	23873.17
584.735	24573.58
584.939	24274.57
585.142	23690.9
585.346	23572.12
585.549	24368.78
585.753	24026.77
585.956	23703.19
586.159	23998.1
586.363	24823.43
586.566	24323.72
586.769	23928.47
586.973	24110.74
587.176	24673.93
587.379	24841.86
587.582	24487.56
587.786	24561.29
587.989	24792.71
588.192	25128.58
588.395	24626.82
588.599	25101.95
588.802	25157.25
589.005	24772.23
589.208	24604.3
589.411	24874.63
589.615	25206.4
589.818	25554.55
590.021	24721.03
590.224	24757.89
590.427	25042.56
590.63	25345.66
590.833	24690.31
591.036	24708.74
591.239	25554.55
591.442	24946.31
591.645	25321.09
591.848	25306.75
592.051	25697.91
592.254	25577.08
592.457	25286.27
592.66	25208.45
592.863	25462.4
593.066	25607.8
593.269	25423.48
593.472	25505.4
593.675	25663.1
593.878	25931.38
594.081	25548.41
594.284	25415.29
594.486	26168.94
594.689	26017.39
594.892	25704.06
595.095	25902.71
595.298	26037.87
595.5	26017.39
595.703	25724.54
595.906	25540.22
596.109	26232.43
596.311	26539.63
596.514	25691.77
596.717	26267.25
596.92	26754.66
597.122	26400.37
597.325	25736.82
597.528	26146.42
597.73	26932.84
597.933	26277.49
598.136	26363.5
598.338	26404.46
598.541	26793.58
598.743	27104.87
598.946	26326.64
599.148	26377.84
599.351	27012.71
599.554	27025
599.756	26740.33
599.959	26869.35
600.161	26945.12
600.363	27602.52
600.566	26682.98
600.768	26713.7
600.971	27358.81
601.173	27217.5
601.376	27076.19
601.578	26902.12
601.78	27280.99
601.983	27600.47
602.185	26914.41
602.388	27115.11
602.59	27457.12
602.792	27235.94
602.995	27147.87
603.197	26705.51
603.399	27606.62
603.601	27524.7
603.804	26887.78
604.006	27295.33
604.208	27084.39
604.41	27594.33
604.613	27541.08
604.815	27338.33
605.017	27930.2
605.219	27420.25
605.421	27342.43
605.623	27387.49
605.826	28218.96
606.028	27952.73
606.23	27676.25
606.432	27303.52
606.634	28204.63
606.836	28255.82
607.038	27508.32
607.24	27575.9
607.442	27885.14
607.644	27829.85
607.846	27827.8
608.048	27575.9
608.25	28018.26
608.452	27770.46
608.654	27819.61
608.856	26971.75
609.058	27782.74
609.26	28167.76
609.462	27821.66
609.664	27801.18
609.866	28294.74
610.067	28249.68
610.269	27913.81
610.471	27610.71
610.673	28091.99
610.875	28347.98
611.077	27743.83
611.278	27719.26
611.48	28223.06
611.682	28563.02
611.884	27942.49
612.085	27729.5
612.287	28272.21
612.489	28343.89
612.69	27987.54
612.892	28155.47
613.094	28651.08
613.295	28114.51
613.497	28190.29
613.699	28053.08
613.9	28739.15
614.102	28782.15
614.304	27899.48
614.505	27776.6
614.707	28370.51
614.908	28153.43
615.11	28370.51
615.311	28370.51
615.513	28223.06
615.714	28618.32
615.916	28403.28
616.117	28458.57
616.319	28462.67
616.52	28520.01
616.722	28372.56
616.923	28358.22
617.124	28737.1
617.326	28698.19
617.527	28692.04
617.729	28745.29
617.93	28386.89
618.131	29091.4
618.333	28405.33
618.534	28235.35
618.735	28184.15
618.937	29017.67
619.138	28505.68
619.339	28397.13
619.54	29118.02
619.742	28814.92
619.943	28649.03
620.144	28390.99
620.345	29220.42
620.546	29322.82
620.748	28712.52
620.949	28653.13
621.15	29183.55
621.351	28890.7
621.552	28646.99
621.753	28464.72
621.954	28767.82
622.155	29455.93
622.356	28649.03
622.558	29107.78
622.759	28896.84
622.96	29593.15
623.161	28913.22
623.362	28759.63
623.563	29001.29
623.764	29255.23
623.965	28702.28
624.166	29302.34
624.366	29081.16
624.567	29400.64
624.768	28593.74
624.969	28839.5
625.17	29390.4
625.371	29120.07
625.572	28976.71
625.773	29101.64
625.973	29613.63
626.174	29607.48
626.375	29371.97
626.576	29632.06
626.777	29478.46
626.977	29668.92
627.178	29486.65
627.379	29236.8
627.58	29417.02
627.78	29668.92
627.981	29154.88
628.182	29247.04
628.382	29984.31
628.583	29214.27
628.784	29140.55
628.984	29437.5
629.185	29847.1
629.386	29556.28
629.586	29515.33
629.787	29292.1
629.987	29918.78
630.188	29873.72
630.388	29546.05
630.589	29552.19
630.79	30408.24
630.99	29875.77
631.191	29576.76
631.391	29789.75
631.591	29961.78
631.792	30043.7
631.992	30205.49
632.193	29974.07
632.393	30328.37
632.594	30213.68
632.794	29744.7
632.994	29560.38
633.195	30133.81
633.395	30416.43
633.595	29797.95
633.796	30240.31
633.996	29875.77
634.196	30328.37
634.397	29994.55
634.597	29734.46
634.797	29840.95
634.997	30723.63
635.198	30219.83
635.398	29914.68
635.598	30338.61
635.798	30567.98
635.998	30000.69
636.199	30012.98
636.399	30162.48
636.599	30201.4
636.799	30152.24
636.999	30531.12
637.199	30731.82
637.399	30746.15
637.599	30139.96
637.799	30373.42
637.999	30522.93
638.199	31188.52
638.399	30099
638.599	30357.04
638.799	30762.54
638.999	31331.87
639.199	30572.08
639.399	30592.56
639.599	31057.45
639.799	30336.56
639.999	30500.4
640.199	30314.03
640.399	31032.87
640.599	29951.54
640.799	31190.56
640.998	30682.67
641.198	31211.04
641.398	30924.33
641.598	30918.18
641.798	30957.1
641.997	31825.43
642.197	31141.41
642.397	30987.82
642.597	30717.48
642.796	31147.56
642.996	31141.41
643.196	31051.3
643.395	30828.07
643.595	31264.29
643.795	30623.28
643.994	30617.13
644.194	31010.34
644.394	31438.37
644.593	31585.82
644.793	30793.26
644.992	31305.25
645.192	31784.47
645.392	30866.98
645.591	31358.5
645.791	31305.25
645.99	31415.84
646.19	31266.34
646.389	31159.84
646.589	31419.94
646.788	31540.77
646.987	31602.21
647.187	31376.93
647.386	31333.92
647.586	31759.9
647.785	31739.42
647.984	31401.5
648.184	31426.08
648.383	31878.68
648.582	31397.41
648.782	31366.69
648.981	31651.36
649.18	31182.37
649.38	31841.82
649.579	31442.46
649.778	31788.57
649.977	31956.5
650.177	31610.4
650.376	31514.14
650.575	31464.99
650.774	32124.44
650.973	31485.47
651.173	31045.16
651.372	31573.53
651.571	31874.59
651.77	31921.69
651.969	31512.1
652.168	31888.92
652.367	31833.63
652.566	32372.24
652.765	31837.72
652.964	32405.01
653.163	32687.63
653.362	32374.29
653.561	31505.95
653.76	31700.51
653.959	32017.94
654.158	32480.78
654.357	32169.49
654.556	31731.23
654.755	32198.16
654.954	32529.94
655.153	31850.01
655.352	32501.26
655.551	32574.99
655.749	32097.81
655.948	31905.31
656.147	32280.08
656.346	32564.75
656.545	32325.14
656.743	32212.5
656.942	32093.72
657.141	32362
657.34	32024.09
657.538	32384.53
657.737	32390.67
657.936	32515.6
658.135	32519.7
658.333	32364.05
658.532	32093.72
658.731	32988.68
658.929	32691.73
659.128	32374.29
659.326	32347.67
659.525	33265.16
659.724	32931.34
659.922	31950.36
660.121	32540.18
660.319	32538.13
660.518	32372.24
660.716	32357.91
660.915	32652.81
661.113	33119.75
661.312	32173.59
661.51	32738.83
661.709	32329.23
661.907	32771.6
662.105	32763.4
662.304	32411.15
662.502	32714.25
662.701	33066.5
662.899	32351.76
663.097	32503.31
663.296	32093.72
663.494	33310.21
663.692	32996.87
663.891	32128.53
664.089	32468.5
664.287	33203.72
664.485	32890.38
664.684	32804.36
664.882	32986.63
665.08	32933.39
665.278	33195.53
665.476	32720.4
665.675	33097.22
665.873	33496.58
666.071	33289.73
666.269	32857.61
666.467	32830.99
666.665	32722.44
666.863	32882.19
667.061	32953.87
667.259	32577.04
667.457	33035.78
667.655	32632.33
667.853	32402.96
668.051	32828.94
668.249	32708.11
668.447	33146.37
668.645	32206.36
668.843	33148.42
669.041	33250.82
669.239	32429.59
669.437	32472.59
669.635	33209.86
669.833	32613.9
670.031	33205.77
670.229	32671.25
670.426	32888.33
670.624	33406.47
670.822	32742.92
671.02	32480.78
671.218	32732.68
671.415	33084.94
671.613	33037.83
671.811	32740.88
672.009	32896.52
672.206	32980.49
672.404	32933.39
672.602	32771.6
672.799	32704.01
672.997	33345.03
673.195	33265.16
673.392	33279.49
673.59	32308.75
673.788	32828.94
673.985	32343.57
674.183	32953.87
674.38	32773.64
674.578	33388.03
674.775	32652.81
674.973	32491.02
675.17	32546.32
675.368	33115.65
675.565	32984.58
675.763	32663.05
675.96	32673.29
676.158	33138.18
676.355	32550.42
676.553	32501.26
676.75	32493.07
676.947	32984.58
677.145	32671.25
677.342	32577.04
677.539	32083.48
677.737	33072.65
677.934	33232.39
678.131	32448.02
678.329	32595.47
678.526	32951.82
678.723	33250.82
678.92	32863.75
679.118	32314.9
679.315	32527.89
679.512	32818.7
679.709	32544.27
679.906	32198.16
680.104	33179.14
680.301	32618
680.498	32464.4
680.695	32163.35
680.892	32411.15
681.089	32443.92
681.286	32714.25
681.483	31870.49
681.68	32761.36
681.877	32839.18
682.075	32558.61
682.272	32626.19
682.469	32951.82
682.665	32362
682.862	32333.33
683.059	31993.37
683.256	32632.33
683.453	32591.37
683.65	32124.44
683.847	32362
684.044	32538.13
684.241	32501.26
684.438	32728.59
684.635	31954.46
684.831	32957.96
685.028	32738.83
685.225	32015.9
685.422	32331.28
685.619	32497.17
685.815	32075.29
686.012	32011.8
686.209	32165.4
686.405	32218.64
686.602	32249.36
686.799	31862.3
686.996	31954.46
687.192	31733.28
687.389	32925.19
687.586	31948.31
687.782	32157.21
687.979	32351.76
688.175	32179.73
688.372	31809.05
688.568	32054.81
688.765	31893.02
688.962	32343.57
689.158	31714.84
689.355	31792.67
689.551	32099.86
689.748	31868.44
689.944	31718.94
690.14	31893.02
690.337	31876.63
690.533	32087.57
690.73	31630.88
690.926	32167.45
691.123	31833.63
691.319	31933.98
691.515	31989.27
691.712	32099.86
691.908	31890.97
692.104	32009.75
692.301	32042.52
692.497	31297.06
692.693	32194.07
692.889	32581.13
693.086	31915.54
693.282	31542.81
693.478	32083.48
693.674	32165.4
693.87	31548.96
694.067	31573.53
694.263	31907.35
694.459	31735.32
694.655	32060.95
694.851	31589.92
695.047	31591.97
695.243	32073.24
695.439	31508
695.635	31505.95
695.831	31847.96
696.027	31493.66
696.224	31170.08
696.42	31747.61
696.615	32374.29
696.811	31581.73
697.007	31039.01
697.203	31315.49
697.399	31862.3
697.595	31960.6
697.791	31356.45
697.987	31366.69
698.183	31280.67
698.379	31026.73
698.575	31260.19
698.77	31196.71
698.966	31890.97
699.162	31733.28
699.358	31389.22
699.554	31041.06
699.749	32028.18
699.945	31264.29
700.141	31348.26
700.337	31411.74
700.532	31139.36
700.728	31413.79
700.924	30821.93
701.119	30967.34
701.315	30895.66
701.511	31172.13
701.706	31618.59
701.902	30686.76
702.097	31512.1
702.293	31655.45
702.489	31063.59
702.684	30971.43
702.88	31225.38
703.075	31225.38
703.271	30969.38
703.466	31075.88
703.662	31120.93
703.857	31772.19
704.053	31151.65
704.248	30783.02
704.443	31311.39
704.639	31317.54
704.834	31206.95
705.03	31108.65
705.225	31252
705.42	31788.57
705.616	30889.51
705.811	31073.83
706.006	30881.32
706.202	31135.27
706.397	31006.25
706.592	30692.91
706.787	31112.74
706.983	30971.43
707.178	31338.02
707.373	31141.41
707.568	31217.19
707.763	31202.85
707.959	31125.03
708.154	30742.06
708.349	31000.1
708.544	31364.64
708.739	30660.14
708.934	30498.35
709.129	31340.07
709.324	31075.88
709.519	30754.35
709.714	30365.23
709.909	31399.46
710.104	30834.22
710.299	30475.82
710.494	31032.87
710.689	31133.22
710.884	30844.46
711.079	30735.91
711.274	30826.03
711.469	30989.86
711.664	30844.46
711.859	30684.72
712.054	30733.87
712.249	30694.96
712.443	30717.48
712.638	30852.65
712.833	30547.5
713.028	30930.47
713.223	30484.01
713.417	30811.69
713.612	30500.4
713.807	30852.65
714.002	31518.24
714.196	30854.7
714.391	30549.55
714.586	30946.86
714.78	30912.04
714.975	30131.76
715.17	30254.64
715.364	30432.82
715.559	30899.75
715.754	29896.25
715.948	30137.91
716.143	30850.6
716.337	30404.14
716.532	30541.36
716.726	30273.07
716.921	30942.76
717.115	31118.89
717.31	29955.64
717.504	30676.52
717.699	30152.24
717.893	30598.7
718.088	29992.5
718.282	29687.35
718.476	30189.11
718.671	29961.78
718.865	29687.35
719.059	29955.64
719.254	30103.09
719.448	30436.91
719.642	31256.1
719.837	29316.67
720.031	30248.5
720.225	30352.94
720.419	30029.37
720.614	29650.49
720.808	30017.08
721.002	29593.15
721.196	29863.48
721.39	29513.28
721.585	29912.63
721.779	29480.51
721.973	29331.01
722.167	29306.43
722.361	29931.06
722.555	30037.56
722.749	29597.24
722.943	29353.54
723.137	29238.85
723.331	29611.58
723.525	29537.85
723.719	29412.93
723.913	29787.71
724.107	29976.12
724.301	29396.54
724.495	29134.4
724.689	29955.64
724.883	29548.09
725.077	29472.32
725.271	29351.49
725.465	30051.89
725.659	29648.44
725.853	29212.23
726.046	28902.98
726.24	28905.03
726.434	29472.32
726.628	29169.22
726.822	29298.24
727.015	29853.24
727.209	29810.23
727.403	29398.59
727.596	29138.5
727.79	29814.33
727.984	29865.53
728.177	29251.14
728.371	29587
728.565	29353.54
728.758	29314.62
728.952	29064.77
729.146	29453.89
729.339	29632.06
729.533	29589.05
729.726	29154.88
729.92	29607.48
730.113	29750.84
730.307	29742.65
730.5	28993.09
730.694	29044.29
730.887	29632.06
731.081	29789.75
731.274	29406.78
731.468	29169.22
731.661	29406.78
731.854	29593.15
732.048	29011.53
732.241	29111.88
732.435	29089.35
732.628	29390.4
732.821	29414.98
733.014	28755.53
733.208	29281.86
733.401	29601.34
733.594	29238.85
733.788	29341.25
733.981	29888.06
734.174	29564.48
734.367	29142.6
734.56	29382.21
734.754	29529.66
734.947	29257.28
735.14	29032
735.333	29341.25
735.526	29507.13
735.719	29009.48
735.912	29021.77
736.105	29025.86
736.298	29439.55
736.491	29044.29
736.684	29130.31
736.877	29056.58
737.07	29075.01
737.263	29142.6
737.456	28759.63
737.649	28968.52
737.842	29216.32
738.035	29242.95
738.228	28972.61
738.421	29369.92
738.614	29711.93
738.807	29326.91
739	28804.68
739.192	28571.21
739.385	29132.36
739.578	29466.17
739.771	29167.17
739.964	29085.25
740.156	29253.19
740.349	29115.97
740.542	29281.86
740.735	28608.08
740.927	28888.65
741.12	29173.31
741.313	28753.48
741.505	29232.71
741.698	29185.6
741.891	29242.95
742.083	28941.89
742.276	28653.13
742.468	28984.9
742.661	29113.92
742.854	28483.15
743.046	28642.89
743.239	29494.85
743.431	29204.03
743.624	28341.84
743.816	28587.6
744.009	28989
744.201	29052.48
744.393	28692.04
744.586	28735.05
744.778	29118.02
744.971	28759.63
745.163	28329.55
745.355	28683.85
745.548	28575.31
745.74	28710.47
745.932	28491.34
746.125	28728.91
746.317	29017.67
746.509	28757.58
746.702	28421.71
746.894	28331.6
747.086	28950.09
747.278	28829.26
747.471	28585.55
747.663	28307.02
747.855	28577.36
748.047	28724.81
748.239	28331.6
748.431	28292.69
748.623	29189.7
748.815	28589.64
749.008	27936.34
749.2	28595.79
749.392	28724.81
749.584	28556.88
749.776	28452.43
749.968	28399.18
750.16	29216.32
750.352	28178
750.544	28108.37
750.736	28044.88
750.928	28651.08
751.12	28411.47
751.311	27561.56
751.503	28450.38
751.695	28055.12
751.887	28298.83
752.079	27889.24
752.271	28051.03
752.463	28954.18
752.654	28577.36
752.846	28264.02
753.038	27924.05
753.23	27846.23
753.421	28548.68
753.613	27686.49
753.805	28161.62
753.997	28243.54
754.188	28116.56
754.38	27663.96
754.572	27879
754.763	28145.23
754.955	28288.59
755.146	27899.48
755.338	27442.78
755.53	27962.97
755.721	27786.84
755.913	27127.39
756.104	27334.24
756.296	27917.91
756.487	27846.23
756.679	27450.97
756.87	27555.42
757.062	27264.61
757.253	27700.83
757.445	27090.53
757.636	27373.15
757.827	27883.09
758.019	28315.22
758.21	27414.11
758.401	27119.2
758.593	27827.8
758.784	27635.29
758.975	26805.86
759.167	27027.04
759.358	27256.42
759.549	27874.9
759.74	27020.9
759.932	27022.95
760.123	27201.12
760.314	27178.59
760.505	27254.37
760.696	26883.69
760.888	27604.57
761.079	27197.02
761.27	26971.75
761.461	26848.87
761.652	27506.27
761.843	27113.06
762.034	26842.73
762.225	26820.2
762.416	27037.28
762.607	26480.24
762.798	26576.49
762.989	26527.34
763.18	27817.56
763.371	26635.88
763.562	26744.42
763.753	26230.38
763.944	27358.81
764.135	26848.87
764.326	26564.2
764.517	26439.28
764.708	26719.85
764.899	26691.18
765.089	26195.57
765.28	26177.14
765.471	26625.64
765.662	26777.19
765.853	26420.84
766.043	25945.72
766.234	26689.13
766.425	26484.33
766.615	26127.99
766.806	25831.03
766.997	26414.7
767.187	26359.41
767.378	26050.16
767.569	25673.34
767.759	26383.98
767.95	26048.11
768.141	26113.65
768.331	25667.19
768.522	26060.4
768.712	26449.52
768.903	26132.08
769.093	26027.63
769.284	26150.51
769.474	25927.28
769.665	25390.72
769.855	25589.37
770.046	26152.56
770.236	25757.3
770.426	26074.74
770.617	25915
770.807	25710.2
770.998	25618.04
771.188	25511.55
771.378	25446.01
771.569	25906.8
771.759	25779.83
771.949	25384.57
772.139	25349.76
772.33	25374.33
772.52	26066.55
772.71	25577.08
772.9	24895.11
773.09	25792.12
773.281	25863.8
773.471	25052.8
773.661	25198.21
773.851	25773.69
774.041	25384.57
774.231	24888.96
774.421	24936.07
774.611	25673.34
774.802	25331.33
774.992	24960.64
775.182	24936.07
775.372	25046.66
775.562	25329.28
775.752	24911.49
775.942	24671.88
776.131	25443.96
776.321	25028.23
776.511	24741.51
776.701	24348.3
776.891	24960.64
777.081	24338.06
777.271	24413.84
777.461	24577.67
777.651	25417.34
777.84	24886.92
778.03	24444.55
778.22	24559.24
778.41	24813.19
778.599	24608.39
778.789	24383.12
778.979	24198.8
779.169	24684.17
779.358	24344.2
779.548	24514.19
779.738	24073.87
779.927	24587.91
780.117	24317.58
780.307	24071.82
780.496	24051.34
780.686	24401.55
780.875	25022.08
781.065	24245.9
781.254	24221.33
781.444	24157.84
781.633	24202.89
781.823	24094.35
782.012	24043.15
782.202	24211.09
782.391	24247.95
782.581	23967.38
782.77	23991.95
782.96	24424.08
783.149	23608.98
783.338	23711.38
783.528	23842.45
783.717	24168.08
783.906	23946.9
784.096	23875.22
784.285	23617.18
784.474	23686.81
784.663	23819.92
784.853	23346.84
785.042	23735.96
785.231	23701.14
785.42	24114.83
785.61	23604.89
785.799	23250.59
785.988	23588.5
786.177	23482.01
786.366	23371.42
786.555	23639.7
786.744	23697.05
786.933	23479.96
787.122	23475.87
787.312	23199.39
787.501	23484.06
787.69	23699.09
787.879	23336.6
788.068	23158.43
788.257	22861.48
788.445	23080.61
788.634	23162.53
788.823	22980.26
789.012	23897.75
789.201	23420.57
789.39	22875.81
789.579	22822.56
789.768	23408.28
789.957	23441.05
790.145	23080.61
790.334	22603.43
790.523	22912.67
790.712	23142.05
790.9	22982.31
791.089	22527.66
791.278	23125.66
791.467	22871.71
791.655	23074.46
791.844	23213.73
792.033	22720.17
792.221	22771.36
792.41	22845.09
792.599	22273.71
792.787	22884
792.976	23162.53
793.164	22159.02
793.353	22433.45
793.541	22855.33
793.73	22843.04
793.918	22658.73
794.107	22470.31
794.295	22607.53
794.484	22621.86
794.672	22544.04
794.861	22376.11
795.049	22820.52
795.238	22754.98
795.426	22304.43
795.614	22056.62
795.803	22462.12
795.991	22767.27
796.179	21958.32
796.368	21763.76
796.556	22881.95
796.744	22216.36
796.932	22122.16
797.121	22027.95
797.309	22283.95
797.497	22554.28
797.685	22161.07
797.874	22245.04
798.062	22247.08
798.25	22777.51
798.438	22091.44
798.626	22236.84
798.814	22605.48
799.002	22705.83
799.19	22412.97
799.378	22064.82
799.566	22503.08
799.755	22492.84
799.943	22199.98
800.131	21997.23
800.318	22130.35
800.506	22591.14
800.694	21917.36
800.882	22222.51
801.07	22443.69
801.258	22449.83
801.446	21892.79
801.634	21835.44
801.822	22353.58
802.01	22382.25
802.197	22144.69
802.385	22367.91
802.573	22589.1
802.761	22240.94
802.949	22195.89
803.136	22236.84
803.324	22539.94
803.512	22460.07
803.699	21984.94
803.887	22179.5
804.075	22892.19
804.262	22091.44
804.45	22273.71
804.638	22249.13
804.825	22302.38
805.013	22023.86
805.201	22435.5
805.388	21671.61
805.576	22423.21
805.763	22978.21
805.951	22318.76
806.138	22650.53
806.326	22990.5
806.513	22902.43
806.701	22449.83
806.888	22605.48
807.075	22843.04
807.263	23039.65
807.45	22236.84
807.638	22451.88
807.825	23324.32
808.012	22775.46
808.2	22550.18
808.387	22896.29
808.574	22945.44
808.761	22972.07
808.949	22271.66
809.136	22632.1
809.323	22552.23
809.51	22730.41
809.698	22687.4
809.885	22779.56
810.072	22654.63
810.259	23090.85
810.446	22695.59
810.633	22773.41
810.82	23195.29
811.008	23154.33
811.195	22689.45
811.382	22511.27
811.569	22834.85
811.756	22619.81
811.943	22496.94
812.13	22628.01
812.317	22838.95
812.504	23086.75
812.691	23006.88
812.878	23017.12
813.064	23060.13
813.251	23232.16
813.438	22742.69
813.625	22714.02
813.812	22615.72
813.999	22881.95
814.186	22830.76
814.372	22765.22
814.559	23160.48
814.746	22920.87
814.933	22724.26
815.12	23053.98
815.306	22605.48
815.493	22474.41
815.68	22879.91
815.866	22570.66
816.053	23277.21
816.24	23107.23
816.426	22738.6
816.613	22511.27
816.799	23230.11
816.986	23277.21
817.173	22623.91
817.359	22390.44
817.546	22783.65
817.732	22376.11
817.919	22261.42
818.105	22398.63
818.292	22507.18
818.478	22867.62
818.665	22757.03
818.851	22603.43
819.037	23101.09
819.224	22992.55
819.41	22347.43
819.597	22433.45
819.783	23084.7
819.969	22955.68
820.156	22306.48
820.342	22290.09
820.528	23434.91
820.714	22591.14
820.901	22595.24
821.087	22134.45
821.273	22855.33
821.459	22290.09
821.646	22222.51
821.832	22294.19
822.018	22984.35
822.204	22312.62
822.39	22238.89
822.576	22335.15
822.762	22754.98
822.948	22453.93
823.134	22347.43
823.32	21976.75
823.507	21939.89
823.693	22286
823.879	22505.13
824.065	21993.14
824.25	22445.74
824.436	22066.86
824.622	21599.93
824.808	21966.51
824.994	22066.86
825.18	21745.33
825.366	21700.28
825.552	21751.48
825.738	22376.11
825.923	22271.66
826.109	22177.45
826.295	21778.1
826.481	21853.87
826.667	21753.52
826.852	21882.55
827.038	21411.51
827.224	22374.06
827.409	22361.77
827.595	21108.41
827.781	21583.54
827.966	21880.5
828.152	21821.11
828.338	21649.08
828.523	21415.61
828.709	21556.92
828.894	21868.21
829.08	21362.36
829.266	21354.17
829.451	21302.97
829.637	21724.85
829.822	21339.83
830.008	21208.76
830.193	21868.21
830.378	21450.42
830.564	21663.41
830.749	20999.87
830.935	21442.23
831.12	21141.18
831.305	21214.91
831.491	21178.04
831.676	21089.98
831.861	21366.46
832.047	20963.01
832.232	20659.91
832.417	21329.59
832.602	21153.47
832.788	20670.15
832.973	20823.75
833.158	20981.44
833.343	21046.97
833.528	20872.9
833.714	21032.64
833.899	21249.72
834.084	21495.48
834.269	21046.97
834.454	20577.99
834.639	20911.81
834.824	21075.65
835.009	20635.33
835.194	20573.89
835.379	21073.6
835.564	20860.61
835.749	20618.95
835.934	20295.37
836.119	20721.35
836.304	20514.5
836.489	20246.22
836.674	20582.09
836.859	20418.25
837.044	20874.95
837.228	20170.44
837.413	20088.53
837.598	20541.13
837.783	20911.81
837.968	20059.85
838.152	19984.08
838.337	20184.78
838.522	20692.68
838.707	20422.34
838.891	20139.72
839.076	20381.38
839.261	20782.79
839.445	20213.45
839.63	20219.6
839.815	20524.74
839.999	20311.75
840.184	19893.97
840.368	19824.34
840.553	20367.05
840.737	20434.63
840.922	19375.83
841.106	19928.78
841.291	20166.35
841.475	19877.58
841.66	19619.54
841.844	19773.14
842.029	20633.29
842.213	19500.76
842.397	19427.03
842.582	19390.17
842.766	20135.63
842.951	19945.17
843.135	19814.1
843.319	19560.15
843.504	19867.34
843.688	20250.31
843.872	19451.61
844.056	19623.64
844.241	19820.24
844.425	19762.9
844.609	19418.84
844.793	19394.26
844.977	19969.74
845.161	19558.1
845.346	19177.18
845.53	19042.01
845.714	19597.01
845.898	19838.67
846.082	18951.9
846.266	19031.77
846.45	19209.95
846.634	19664.6
846.818	19119.84
847.002	19293.91
847.186	19623.64
847.37	19214.04
847.554	18882.27
847.738	18859.74
847.922	19132.12
848.106	19275.48
848.29	18749.15
848.473	18786.02
848.657	19185.37
848.841	19005.15
849.025	18671.33
849.209	18425.57
849.392	19025.63
849.576	18773.73
849.76	18163.43
849.944	18841.31
850.127	19558.1
850.311	18595.56
850.495	18245.35
850.678	18464.49
850.862	19060.45
851.046	19183.32
851.229	18718.43
851.413	18319.08
851.596	18835.17
851.78	18697.95
851.964	18659.04
852.147	18388.71
852.331	19445.46
852.514	19003.1
852.698	18605.8
852.881	18120.43
853.065	18796.26
853.248	18794.21
853.431	18503.4
853.615	18314.98
853.798	18943.71
853.982	18538.21
854.165	18239.21
854.348	18269.93
854.532	18271.98
854.715	18349.8
854.898	18069.23
855.081	18112.24
855.265	18493.16
855.448	18724.58
855.631	17968.88
855.814	17936.11
855.997	18183.91
856.181	18173.67
856.364	18044.65
856.547	17770.22
856.73	18093.8
856.913	18220.78
857.096	17612.53
857.279	18112.24
857.462	17780.46
857.645	18286.31
857.828	17790.7
858.011	17977.07
858.194	17762.03
858.377	17983.21
858.56	17501.94
858.743	17673.97
858.926	17342.2
859.109	17989.36
859.292	17315.58
859.475	17422.07
859.658	17938.16
859.841	17858.29
860.023	17274.62
860.206	17164.03
860.389	17733.36
860.572	17958.64
860.755	17434.36
860.937	17186.55
861.12	17585.91
861.303	17600.24
861.486	17528.56
861.668	17002.24
861.851	17712.88
862.034	17475.32
862.216	16801.54
862.399	16731.9
862.581	17309.43
862.764	17508.08
862.947	16908.03
863.129	16789.25
863.312	16750.34
863.494	17245.94
863.677	17233.66
863.859	16437
864.042	17051.39
864.224	17366.77
864.406	16756.48
864.589	16482.05
864.771	16838.4
864.954	16500.48
865.136	16443.14
865.318	16396.04
865.501	16883.45
865.683	16262.92
865.865	16506.63
866.048	16344.84
866.23	16711.42
866.412	16604.93
866.594	16076.55
866.777	16412.42
866.959	16711.42
867.141	16623.36
867.323	16477.96
867.505	16219.91
867.687	16545.54
867.869	16944.89
868.052	16092.94
868.234	16019.21
868.416	16234.25
868.598	16772.86
868.78	16248.58
868.962	15851.28
869.144	16912.13
869.326	16584.45
869.508	16314.12
869.69	16103.18
869.872	16332.55
870.054	16774.91
870.236	15789.84
870.417	16092.94
870.599	16416.52
870.781	16719.62
870.963	16185.1
871.145	15994.64
871.327	15994.64
871.508	16371.46
871.69	16324.36
871.872	15986.44
872.054	16305.93
872.235	16318.21
872.417	15961.87
872.599	16045.84
872.78	16867.07
872.962	16361.22
873.144	15984.4
873.325	16060.17
873.507	16600.83
873.689	16160.52
873.87	15693.58
874.052	15775.5
874.233	16316.17
874.415	16406.28
874.596	16037.64
874.778	16006.92
874.959	16254.73
875.141	16434.95
875.322	15957.77
875.503	15828.75
875.685	16695.04
875.866	15707.92
876.048	15945.48
876.229	15814.41
876.41	15867.66
876.592	16348.93
876.773	16271.11
876.954	15834.89
877.136	16699.14
877.317	16121.61
877.498	15990.54
877.679	16029.45
877.86	16297.74
878.042	16369.41
878.223	16070.41
878.404	16301.83
878.585	16531.2
878.766	16905.98
878.947	16273.16
879.128	16119.56
879.309	16678.66
879.49	16662.27
879.672	16328.45
879.853	16115.47
880.034	16248.58
880.215	16377.61
880.396	16322.31
880.576	16396.04
880.757	16269.06
880.938	16842.49
881.119	16224.01
881.3	16318.21
881.481	16721.66
881.662	17669.87
881.843	16533.25
882.023	16279.3
882.204	16875.26
882.385	16826.11
882.566	16586.5
882.747	16662.27
882.927	16682.75
883.108	16736
883.289	16533.25
883.469	16963.33
883.65	17014.52
883.831	16981.76
884.011	16834.3
884.192	16588.55
884.373	17118.97
884.553	17092.35
884.734	16736
884.914	17075.96
885.095	17911.53
885.275	17512.18
885.456	17309.43
885.636	16437
885.817	17026.81
885.997	16922.37
886.178	16707.33
886.358	16992
886.538	17280.76
886.719	18398.95
886.899	16756.48
887.08	16629.51
887.26	17590
887.44	17041.15
887.621	17135.35
887.801	17094.4
887.981	17913.58
888.161	17614.58
888.342	17188.6
888.522	17024.76
888.702	17508.08
888.882	17798.9
889.062	17364.73
889.242	16922.37
889.423	17741.55
889.603	17377.01
889.783	17219.32
889.963	17204.99
890.143	17747.7
890.323	17696.5
890.503	17127.16
890.683	17178.36
890.863	17352.44
891.043	17413.88
891.223	17440.5
891.403	17557.24
891.583	17430.26
891.763	17415.93
891.943	17471.22
892.122	17237.75
892.302	17616.63
892.482	17661.68
892.662	17374.97
892.842	17571.57
893.022	17409.78
893.201	17383.16
893.381	17374.97
893.561	17067.77
893.741	17768.18
893.92	17559.28
894.1	17381.11
894.28	17342.2
894.459	17878.77
894.639	17714.93
894.819	17207.03
894.998	17407.73
895.178	17901.29
895.357	17436.41
895.537	17252.09
895.716	17231.61
895.896	17569.52
896.075	17755.89
896.255	17176.31
896.434	17032.96
896.614	17751.79
896.793	17800.94
896.973	17235.7
897.152	17035
897.331	17544.95
897.511	17665.78
897.69	17061.63
897.87	17260.28
898.049	17692.4
898.228	17497.84
898.407	17399.54
898.587	17475.32
898.766	17135.35
898.945	17274.62
899.124	17151.74
899.304	17035
899.483	17360.63
899.662	17637.11
899.841	16817.92
900.02	16869.12
900.199	17528.56
900.378	17387.25
900.557	16723.71
900.737	16953.09
900.916	17389.3
901.095	17370.87
901.274	17024.76
901.453	16807.68
901.632	17010.43
901.811	16891.65
901.989	16547.59
902.168	16566.02
902.347	17047.29
902.526	16840.45
902.705	16559.88
902.884	16615.17
903.063	17182.46
903.242	17127.16
903.42	16531.2
903.599	16799.49
903.778	17028.86
903.957	17129.21
904.135	16451.33
904.314	16463.62
904.493	16801.54
904.672	16922.37
904.85	16453.38
905.029	16406.28
905.207	16649.99
905.386	17295.1
905.565	16262.92
905.743	16170.76
905.922	16154.38
906.1	16267.02
906.279	15992.59
906.457	16025.36
906.636	16305.93
906.814	15986.44
906.993	15834.89
907.171	15976.2
907.35	16150.28
907.528	16547.59
907.707	16004.88
907.885	15664.91
908.063	16588.55
908.242	16162.57
908.42	15802.13
908.598	15673.1
908.777	16217.86
908.955	15785.74
909.133	15818.51
909.311	15550.23
909.49	15929.1
909.668	16015.12
909.846	15669.01
910.024	15449.88
910.202	15838.99
910.38	15771.41
910.559	15367.96
910.737	15353.62
910.915	15666.96
911.093	15560.47
911.271	15640.34
911.449	15560.47
911.627	15910.67
911.805	16011.02
911.983	15320.85
912.161	15351.57
912.339	15570.71
912.517	15656.72
912.695	15394.58
912.872	15331.09
913.05	15179.54
913.228	15564.56
913.406	14903.07
913.584	14956.32
913.762	15175.45
913.939	14735.14
914.117	14761.76
914.295	14610.21
914.473	15036.19
914.65	14976.8
914.828	14632.74
915.006	14544.67
915.184	14790.43
915.361	14741.28
915.539	14473
915.716	14751.52
915.894	15107.87
916.072	15191.83
916.249	14630.69
916.427	14399.27
916.604	14221.09
916.782	14731.04
916.959	14366.5
917.137	13958.95
917.314	14241.57
917.492	14677.79
917.669	14319.4
917.847	13883.18
918.024	14528.29
918.201	14184.23
918.379	14057.26
918.556	14067.5
918.733	14300.97
918.911	14106.41
919.088	14024.49
919.265	13913.9
919.442	14233.38
919.62	13756.21
919.797	13442.87
919.974	13508.4
920.151	14114.6
920.328	13850.41
920.506	13399.86
920.683	13680.43
920.86	13467.44
921.037	13481.78
921.214	13442.87
921.391	13338.42
921.568	13758.25
921.745	13408.05
921.922	13223.73
922.099	12939.07
922.276	13760.3
922.453	13373.24
922.63	13201.21
922.807	13469.49
922.984	13293.37
923.161	12986.17
923.338	12693.31
923.514	12955.45
923.691	13170.49
923.868	13401.91
924.045	12676.93
924.222	12517.18
924.399	13002.55
924.575	13098.81
924.752	12592.96
924.929	12894.01
925.105	12918.59
925.282	12633.92
925.459	12537.66
925.635	12443.46
925.812	12713.79
925.989	12427.07
926.165	12427.07
926.342	12017.48
926.518	12025.67
926.695	12234.57
926.871	11902.79
927.048	11632.46
927.224	12515.14
927.401	11716.43
927.577	11886.41
927.754	11812.68
927.93	12302.15
928.107	12054.34
928.283	11673.42
928.459	11560.78
928.636	11970.38
928.812	11632.46
928.988	11284.31
929.165	11388.75
929.341	11863.88
929.517	11745.1
929.693	11573.07
929.87	11116.37
930.046	11808.59
930.222	11226.96
930.398	10997.59
930.574	11282.26
930.751	11390.8
930.927	10901.34
931.103	10995.54
931.279	10954.58
931.455	10954.58
931.631	10991.45
931.807	10463.07
931.983	10405.73
932.159	10620.77
932.335	11040.6
932.511	10313.57
932.687	10280.8
932.863	10628.96
933.039	10616.67
933.215	10112.87
933.391	10041.19
933.566	10366.82
933.742	10225.51
933.918	10084.2
934.094	9717.61
934.27	10088.29
934.445	9793.39
934.621	9568.11
934.797	9447.28
934.973	9955.18
935.148	9803.63
935.324	9269.11
935.5	9064.31
935.675	9596.78
935.851	9281.39
936.027	8865.66
936.202	8908.66
936.378	9064.31
936.553	9054.07
936.729	8937.34
936.904	8165.25
937.08	8208.26
937.255	8036.23
937.431	8015.75
937.606	7602.06
937.782	7946.12
937.957	7802.76
938.133	7810.95
938.308	7235.47
938.483	7577.48
938.659	7118.74
938.834	7018.39
939.009	6870.94
939.185	7075.73
939.36	6686.62
939.535	6305.7
939.71	6635.42
939.886	6885.27
940.061	6487.97
940.236	6379.42
940.411	6213.54
940.586	6416.29
940.761	6373.28
940.937	6231.97
941.112	5892.01
941.287	6313.89
941.462	6074.28
941.637	5615.53
941.812	5668.78
941.987	6137.76
942.162	5773.22
942.337	5617.58
942.512	5423.02
942.687	6125.47
942.862	5783.46
943.037	5345.2
943.212	5095.35
943.386	5607.34
943.561	5765.03
943.736	5644.2
943.911	5697.45
944.086	5482.41
944.26	5611.43
944.435	5300.14
944.61	5287.86
944.785	5855.14
944.959	5969.83
945.134	5207.98
945.309	5183.41
945.483	5283.76
945.658	5791.66
945.833	4941.75
946.007	5150.64
946.182	5900.2
946.357	5130.16
946.531	4995
946.706	5373.87
946.88	4956.08
947.055	5504.94
947.229	5060.53
947.404	5013.43
947.578	5756.84
947.752	5201.84
947.927	4968.37
948.101	4964.28
948.276	5341.1
948.45	5410.73
948.624	5439.4
948.799	5038
948.973	5543.85
949.147	5144.5
949.321	5261.23
949.496	5095.35
949.67	5640.11
949.844	5240.75
950.018	5048.24
950.193	4992.95
950.367	5859.24
950.541	5164.98
950.715	5269.42
950.889	5390.25
951.063	5187.5
951.237	5441.45
951.411	5058.48
951.585	4851.64
951.759	5367.73
951.933	5431.21
952.107	4988.85
952.281	5210.03
952.455	5808.04
952.629	5582.76
952.803	5167.03
952.977	5062.58
953.151	5730.22
953.325	5439.4
953.499	5328.81
953.672	4951.99
953.846	5216.18
954.02	5267.38
954.194	5046.19
954.368	4949.94
954.541	5486.51
954.715	5253.04
954.889	5310.38
955.062	5009.33
955.236	5296.05
955.41	5068.72
955.583	5160.88
955.757	4779.96
955.93	5232.56
956.104	4970.42
956.278	4943.8
956.451	4988.85
956.625	5367.73
956.798	5679.02
956.972	5205.94
957.145	4927.41
957.319	5232.56
957.492	5062.58
957.665	5144.5
957.839	4870.07
958.012	5308.33
958.185	5035.96
958.359	4951.99
958.532	5033.91
958.705	5480.36
958.879	5250.99
959.052	4986.8
959.225	4812.73
959.398	5242.8
959.572	5126.07
959.745	4853.69
959.918	4890.55
960.091	4865.97
960.264	5132.21
960.438	4796.34
960.611	4827.06
960.784	5318.57
960.957	4943.8
961.13	5341.1
961.303	4921.27
961.476	5097.39
961.649	5361.58
961.822	4888.5
961.995	4913.08
962.168	5173.17
962.341	4999.09
962.514	4755.38
962.686	4763.58
962.859	5126.07
963.032	4997.04
963.205	4755.38
963.378	4675.51
963.551	5013.43
963.723	5011.38
963.896	4698.04
964.069	4829.11
964.242	4831.16
964.414	5197.74
964.587	4673.46
964.76	4771.77
964.932	4929.46
965.105	4941.75
965.278	4751.29
965.45	4558.78
965.623	4960.18
965.795	5083.06
965.968	4763.58
966.14	4759.48
966.313	4802.49
966.485	4874.17
966.658	4511.68
966.83	4558.78
967.003	5091.25
967.175	5050.29
967.348	4648.89
967.52	4517.82
967.692	5146.55
967.865	4902.84
968.037	4566.97
968.209	4960.18
968.382	4849.59
968.554	5003.19
968.726	4542.39
968.898	4640.7
969.071	4843.45
969.243	4878.26
969.415	4532.15
969.587	4612.03
969.759	5246.9
969.932	4964.28
970.104	4462.52
970.276	4153.28
970.448	4644.79
970.62	4716.47
970.792	4562.87
970.964	4466.62
971.136	5128.11
971.308	4786.1
971.48	4257.73
971.652	4399.04
971.824	4906.93
971.996	4462.52
972.168	4472.76
972.339	4419.52
972.511	4845.49
972.683	4333.5
972.855	4433.85
973.027	4313.02
973.199	4380.61
973.37	4661.18
973.542	4353.98
973.714	4452.28
973.886	4487.1
974.057	4808.63
974.229	4198.34
974.401	4341.69
974.572	4298.69
974.744	4097.99
974.915	3999.68
975.087	4059.07
975.259	4788.15
975.43	4208.58
975.602	4278.21
975.773	4009.92
975.945	4149.18
976.116	4323.26
976.288	4077.51
976.459	4356.03
976.63	4296.64
976.802	4306.88
976.973	4050.88
977.145	4294.59
977.316	4773.82
977.487	4681.66
977.659	4161.47
977.83	4073.41
978.001	4792.25
978.172	4284.35
978.344	4011.97
978.515	4132.8
978.686	4083.65
978.857	4675.51
979.028	4038.59
979.2	3987.4
979.371	4571.07
979.542	4061.12
979.713	4042.69
979.884	3608.52
980.055	4130.75
980.226	4161.47
980.397	4028.35
980.568	3841.99
980.739	4362.17
980.91	4052.93
981.081	4108.23
981.252	3921.86
981.423	4360.13
981.594	4411.32
981.765	3813.32
981.936	4095.94
982.106	4104.13
982.277	4417.47
982.448	3717.06
982.619	4069.31
982.79	3807.17
982.96	4253.63
983.131	3782.6
983.302	3551.18
983.472	3821.51
983.643	3995.59
983.814	3821.51
983.984	3647.43
984.155	3901.38
984.326	4216.77
984.496	3983.3
984.667	3692.49
984.837	3858.37
985.008	4280.25
985.178	3950.53
985.349	3778.5
985.519	3825.61
985.69	3622.86
985.86	3715.02
986.031	3643.34
986.201	3919.81
986.371	3973.06
986.542	3366.86
986.712	3330
986.882	3887.04
987.053	3878.85
987.223	3448.78
987.393	3807.17
987.563	3610.57
987.734	3932.1
987.904	3891.14
988.074	3583.95
988.244	3782.6
988.414	3655.62
988.585	3512.27
988.755	3567.56
988.925	3690.44
989.095	3991.49
989.265	3332.05
989.435	3481.55
989.605	3850.18
989.775	3954.63
989.945	3790.79
990.115	3317.71
990.285	3682.25
990.455	3743.69
990.625	3514.31
990.795	3405.77
990.965	3813.32
991.134	3395.53
991.304	3217.36
991.474	3348.43
991.644	3661.77
991.814	3977.16
991.984	3106.77
992.153	3370.96
992.323	3403.72
992.493	3565.51
992.662	3016.66
992.832	3330
993.002	3567.56
993.171	3502.03
993.341	3129.3
993.511	3301.33
993.68	3297.23
993.85	3637.19
994.019	3129.3
994.189	3090.38
994.358	3366.86
994.528	3203.02
994.697	2922.45
994.867	3051.47
995.036	3588.04
995.206	3266.51
995.375	3106.77
995.544	3305.42
995.714	3399.63
995.883	3379.15
996.052	3264.46
996.222	2820.05
996.391	3684.3
996.56	3323.85
996.73	2942.93
996.899	2797.53
997.068	3639.24
997.237	3221.45
997.406	2918.36
997.576	2787.29
997.745	3356.62
997.914	3258.32
998.083	2824.15
998.252	2934.74
998.421	3114.96
998.59	2924.5
998.759	2783.19
998.928	2588.63
999.097	3375.05
999.266	3200.98
999.435	3037.14
999.604	2469.85
999.773	3653.58
999.942	3012.56
1000.111	2725.85
1000.28	2740.18
1000.448	2686.93
1000.617	2838.48
1000.786	2873.3
1000.955	2584.54
1001.124	3057.62
1001.292	3624.9
1001.461	2703.32
1001.63	2545.63
1001.798	3409.87
1001.967	3373
1002.136	2557.91
1002.304	2510.81
1002.473	2918.36
1002.642	2961.36
1002.81	2641.88
1002.979	2543.58
1003.147	3176.4
1003.316	3549.13
1003.484	2645.98
1003.653	2435.03
1003.821	3207.12
1003.99	2744.28
1004.158	2703.32
1004.327	2527.19
1004.495	2842.58
1004.663	2625.5
1004.832	2441.18
1005	2293.72
1005.168	2914.26
1005.337	2881.49
1005.505	2281.44
1005.673	2676.7
1005.842	3055.57
1006.01	2791.38
1006.178	2408.41
1006.346	2275.29
1006.514	2858.96
1006.683	3037.14
1006.851	2422.75
1007.019	2344.92
1007.187	2437.08
1007.355	2189.28
1007.523	2189.28
1007.691	2314.2
1007.859	2283.49
1008.027	2727.89
1008.195	2195.42
1008.363	2164.7
1008.531	2777.05
1008.699	2447.32
1008.867	2215.9
1009.035	2217.95
1009.203	2891.73
1009.37	2686.93
1009.538	2170.85
1009.706	2678.74
1009.874	2662.36
1010.042	2600.92
1010.209	2127.84
1010.377	2142.18
1010.545	2664.41
1010.713	2549.72
1010.88	2213.85
1011.048	2222.05
1011.216	2346.97
1011.383	2822.1
1011.551	2129.89
1011.718	2097.12
1011.886	2731.99
1012.054	2504.67
1012.221	1998.82
1012.389	2068.45
1012.556	2392.03
1012.724	2766.81
1012.891	2148.32
1013.058	1929.19
1013.226	2547.67
1013.393	2576.34
1013.561	1808.36
1013.728	1888.23
1013.895	2484.19
1014.063	2387.93
1014.23	1976.29
1014.397	1974.24
1014.565	2600.92
1014.732	2351.07
1014.899	1902.56
1015.066	1798.12
1015.233	2287.58
1015.401	2414.56
1015.568	1957.86
1015.735	1986.53
1015.902	2174.94
1016.069	2291.68
1016.236	1978.34
1016.403	1810.4
1016.57	2043.87
1016.737	2420.7
1016.904	1847.27
1017.071	1781.73
1017.238	2035.68
1017.405	2314.2
1017.572	1685.48
1017.739	1945.57
1017.906	2230.24
1018.073	2263.01
1018.24	1708.01
1018.407	1873.89
1018.573	2346.97
1018.74	2129.89
1018.907	1787.88
1019.074	1552.36
1019.241	2392.03
1019.407	2160.61
1019.574	1601.51
1019.741	1601.51
1019.907	2117.6
1020.074	2185.18
1020.241	1478.63
1020.407	1423.34
1020.574	2283.49
1020.74	2095.07
1020.907	1591.27
1021.073	1572.84
1021.24	2574.3
1021.406	2367.45
1021.573	1576.94
1021.739	1642.47
1021.906	2129.89
1022.072	1916.9
1022.239	1556.46
1022.405	1597.42
1022.571	1990.63
1022.738	1816.55
1022.904	1583.08
1023.07	1695.72
1023.237	1935.33
1023.403	2152.42
1023.569	1472.49
1023.735	1458.15
1023.902	2004.96
1024.068	1894.37
1024.234	1454.06
1024.4	1445.87
1024.566	1880.04
1024.732	2015.2
1024.898	1447.91
1025.065	1226.73
1025.231	1918.95
1025.397	1728.49
1025.563	1449.96
1025.729	1443.82
1025.895	1355.76
1026.061	1511.4
1026.227	1140.72
1026.392	1462.25
1026.558	1990.63
1026.724	1832.93
1026.89	1347.56
1027.056	1468.39
1027.222	1783.78
1027.388	1640.42
1027.553	1396.71
1027.719	1372.14
1027.885	2181.09
1028.051	1781.73
1028.216	1165.29
1028.382	1396.71
1028.548	1906.66
1028.713	1544.17
1028.879	1126.38
1029.045	1409
1029.21	1939.43
1029.376	1898.47
1029.541	1308.65
1029.707	1292.27
1029.873	1804.26
1030.038	1740.77
1030.204	1130.48
1030.369	1232.88
1030.534	1695.72
1030.7	1472.49
1030.865	1306.6
1031.031	1214.45
1031.196	1708.01
1031.361	1581.03
1031.527	1181.68
1031.692	1101.81
1031.857	1124.33
1032.023	1757.16
1032.188	1036.27
1032.353	1114.09
1032.518	1871.84
1032.684	1509.35
1032.849	946.16
1033.014	1200.11
1033.179	1673.19
1033.344	1708.01
1033.509	1054.7
1033.674	1142.77
1033.839	1587.18
1034.004	1617.9
1034.17	1034.22
1034.335	1003.5
1034.5	1325.04
1034.664	1439.72
1034.829	1083.38
1034.994	1013.74
1035.159	1601.51
1035.324	1525.74
1035.489	997.36
1035.654	1036.27
1035.819	1802.21
1035.984	1564.65
1036.148	1073.14
1036.313	1079.28
1036.478	1658.85
1036.643	1343.47
1036.807	962.55
1036.972	886.77
1037.137	1660.9
1037.301	1386.47
1037.466	757.75
1037.631	1064.94
1037.795	1642.47
1037.96	1501.16
1038.124	1087.47
1038.289	800.76
1038.454	1458.15
1038.618	1413.1
1038.783	1003.5
1038.947	987.12
1039.111	1316.84
1039.276	1220.59
1039.44	888.82
1039.605	1421.29
1039.769	1138.67
1039.933	1296.36
1040.098	1011.7
1040.262	1179.63
1040.426	1425.39
1040.591	1406.95
1040.755	765.94
1040.919	927.73
1041.083	1417.19
1041.248	1243.12
1041.412	659.45
1041.576	704.5
1041.74	1193.97
1041.904	1458.15
1042.068	784.37
1042.232	823.28
1042.397	1411.05
1042.561	1300.46
1042.725	491.51
1042.889	954.35
1043.053	1374.19
1043.217	1427.43
1043.381	950.26
1043.544	690.17
1043.708	1445.87
1043.872	927.73
1044.036	608.25
1044.2	585.72
1044.364	1501.16
1044.528	1474.54
1044.691	2244.57
1044.855	645.11
1045.019	1316.84
1045.183	1257.45
1045.346	714.74
1045.51	610.29
1045.674	1241.07
1045.837	1177.58
1046.001	720.88
1046.165	739.32
1046.328	1681.38
1046.492	1193.97
1046.655	847.86
1046.819	663.54
1046.983	872.43
1047.146	1263.6
1047.31	727.03
1047.473	483.32
1047.636	1062.9
1047.8	798.71
1047.963	686.07
1048.127	565.24
1048.29	868.34
