Data from Ink_Intensity_USB4F045381__136__00136.txt Node

Date: Mon Jul 17 11:21:44 EDT 2023
User: mmckonesweet
Spectrometer: USB4F04538
Trigger mode: 4
Integration Time (sec): 9.000000E-1
Scans to average: 1
Electric dark correction enabled: true
Nonlinearity correction enabled: false
Boxcar width: 0
XAxis mode: Wavelengths
Number of Pixels in Spectrum: 3648
>>>>>Begin Spectral Data<<<<<
345.52	-982.17
345.736	-982.17
345.952	-982.17
346.168	-976.03
346.384	-1055.9
346.6	-175.27
346.816	-261.29
347.032	-191.66
347.248	332.62
347.464	-240.81
347.68	-109.74
347.896	86.87
348.112	353.1
348.328	-70.83
348.544	-56.49
348.76	101.2
348.975	232.27
349.191	-238.76
349.407	-216.23
349.623	-15.53
349.839	-74.92
350.055	-79.02
350.27	68.44
350.486	152.4
350.702	308.05
350.918	236.37
351.133	-222.38
351.349	127.83
351.565	398.16
351.781	-251.05
351.996	7
352.212	297.81
352.428	-119.98
352.644	-208.04
352.859	-205.99
353.075	205.65
353.291	160.59
353.506	-113.83
353.722	-263.33
353.938	-117.93
354.153	469.84
354.369	66.39
354.584	-216.23
354.8	254.8
355.016	-384.16
355.231	-279.72
355.447	-50.35
355.662	191.31
355.878	867.14
356.093	-337.06
356.309	-29.87
356.524	-216.23
356.74	295.76
356.955	-156.84
357.171	-83.11
357.386	152.4
357.602	-285.86
357.817	-122.02
358.033	-228.52
358.248	346.96
358.464	240.47
358.679	-97.45
358.895	-318.63
359.11	19.29
359.325	226.13
359.541	25.43
359.756	-27.82
359.972	-156.84
360.187	181.07
360.402	-222.38
360.618	-160.94
360.833	1020.74
361.048	168.79
361.264	-165.03
361.479	-76.97
361.694	-5.29
361.909	232.27
362.125	-218.28
362.34	-107.69
362.555	224.08
362.77	121.68
362.986	-265.38
363.201	-150.7
363.416	201.55
363.631	166.74
363.847	-265.38
364.062	-212.14
364.277	232.27
364.492	213.84
364.707	-179.37
364.922	-328.87
365.138	236.37
365.353	349.01
365.568	-216.23
365.783	-183.46
365.998	47.96
366.213	564.04
366.428	-236.71
366.643	41.81
366.858	338.77
367.073	306
367.288	-95.4
367.503	-294.05
367.718	187.22
367.933	289.62
368.148	-314.53
368.363	-93.35
368.578	19.29
368.793	475.98
369.008	-122.02
369.223	-203.94
369.438	176.98
369.653	353.1
369.868	-210.09
370.083	-232.62
370.298	37.72
370.513	457.55
370.728	33.62
370.943	-150.7
371.157	-189.61
371.372	508.75
371.587	-269.48
371.802	-294.05
372.017	70.48
372.232	430.93
372.446	-40.11
372.661	-294.05
372.876	224.08
373.091	205.65
373.306	-142.5
373.52	-242.85
373.735	-218.28
373.95	469.84
374.165	-148.65
374.379	-154.79
374.594	-48.3
374.809	127.83
375.023	33.62
375.238	-214.18
375.453	265.04
375.667	-179.37
375.882	-191.66
376.097	-173.22
376.311	31.57
376.526	50
376.741	-246.95
376.955	97.11
377.17	514.89
377.384	594.76
377.599	-97.45
377.813	-320.68
378.028	639.82
378.242	246.61
378.457	-60.59
378.672	-453.8
378.886	74.58
379.101	-64.68
379.315	-341.16
379.53	-165.03
379.744	262.99
379.958	238.42
380.173	-203.94
380.387	-160.94
380.602	125.78
380.816	-89.26
381.031	-126.12
381.245	-111.78
381.459	238.42
381.674	2646.83
381.888	-226.47
382.103	23.38
382.317	-76.97
382.531	457.55
382.746	13.14
382.96	-222.38
383.174	-68.78
383.388	449.36
383.603	90.96
383.817	-224.42
384.031	234.32
384.246	445.26
384.46	-76.97
384.674	344.91
384.888	82.77
385.103	78.68
385.317	-320.68
385.531	-46.25
385.745	361.3
385.959	342.86
386.174	-181.42
386.388	-255.14
386.602	-38.06
386.816	-74.92
387.03	17.24
387.244	-150.7
387.458	33.62
387.672	312.14
387.887	-244.9
388.101	-228.52
388.315	279.38
388.529	150.36
388.743	-210.09
388.957	-201.9
389.171	283.47
389.385	-185.51
389.599	-126.12
389.813	33.62
390.027	252.75
390.241	727.88
390.455	-101.55
390.669	-66.73
390.883	-85.16
391.097	377.68
391.311	66.39
391.525	-154.79
391.738	146.26
391.952	265.04
392.166	-68.78
392.38	-220.33
392.594	275.28
392.808	271.19
393.022	-107.69
393.236	-185.51
393.449	138.07
393.663	123.73
393.877	-273.57
394.091	-101.55
394.305	-115.88
394.518	-119.98
394.732	-259.24
394.946	-97.45
395.16	484.17
395.373	80.72
395.587	-228.52
395.801	-230.57
396.015	256.85
396.228	244.56
396.442	-257.19
396.656	-328.87
396.869	291.66
397.083	463.69
397.297	-105.64
397.51	-136.36
397.724	387.92
397.938	127.83
398.151	-277.67
398.365	-328.87
398.578	254.8
398.792	459.6
399.005	15.19
399.219	-124.07
399.433	154.45
399.646	142.16
399.86	50
400.073	-19.63
400.287	213.84
400.5	-15.53
400.714	-62.63
400.927	-93.35
401.141	213.84
401.354	1067.85
401.567	181.07
401.781	-199.85
401.994	197.46
402.208	648.01
402.421	-113.83
402.635	-199.85
402.848	76.63
403.061	281.43
403.275	-36.01
403.488	-195.75
403.701	553.8
403.915	287.57
404.128	-33.96
404.341	-130.22
404.555	150.36
404.768	52.05
404.981	43.86
405.195	-187.56
405.408	482.13
405.621	262.99
405.834	21.33
406.048	-228.52
406.261	451.41
406.474	461.65
406.687	-152.74
406.9	13.14
407.114	-46.25
407.327	191.31
407.54	-349.35
407.753	-240.81
407.966	-85.16
408.179	211.79
408.392	-269.48
408.605	-302.25
408.819	158.55
409.032	129.88
409.245	-183.46
409.458	43.86
409.671	222.03
409.884	271.19
410.097	-269.48
410.31	31.57
410.523	142.16
410.736	-13.48
410.949	15.19
411.162	-128.17
411.375	334.67
411.588	262.99
411.801	19.29
412.014	-244.9
412.227	-36.01
412.44	-13.48
412.653	-257.19
412.865	-44.2
413.078	312.14
413.291	205.65
413.504	-40.11
413.717	-136.36
413.93	164.69
414.143	-138.41
414.356	-152.74
414.568	-341.16
414.781	336.72
414.994	230.23
415.207	-17.58
415.42	-44.2
415.632	226.13
415.845	531.28
416.058	-298.15
416.271	-269.48
416.483	54.1
416.696	504.65
416.909	-232.62
417.121	-195.75
417.334	185.17
417.547	451.41
417.759	-218.28
417.972	-281.77
418.185	-130.22
418.397	217.94
418.61	-81.07
418.823	-169.13
419.035	435.02
419.248	-36.01
419.46	-38.06
419.673	-124.07
419.885	105.3
420.098	4.95
420.311	-173.22
420.523	-441.51
420.736	236.37
420.948	105.3
421.161	-181.42
421.373	-343.21
421.586	84.82
421.798	-64.68
422.01	-269.48
422.223	-91.31
422.435	-23.72
422.648	250.71
422.86	-220.33
423.073	-201.9
423.285	301.9
423.497	-267.43
423.71	-208.04
423.922	-249
424.134	136.02
424.347	478.03
424.559	-29.87
424.771	72.53
424.984	-36.01
425.196	283.47
425.408	-382.12
425.621	-244.9
425.833	308.05
426.045	349.01
426.257	-294.05
426.47	-181.42
426.682	86.87
426.894	183.12
427.106	-128.17
427.318	-162.98
427.531	-128.17
427.743	193.36
427.955	-142.5
428.167	314.19
428.379	103.25
428.591	54.1
428.804	-167.08
429.016	-179.37
429.228	-134.31
429.44	127.83
429.652	0.85
429.864	-355.49
430.076	-72.87
430.288	39.76
430.5	-144.55
430.712	-173.22
430.924	312.14
431.136	33.62
431.348	-314.53
431.56	-171.18
431.772	58.2
431.984	2.9
432.196	-228.52
432.408	-165.03
432.62	-11.43
432.832	47.96
433.044	58.2
433.256	-162.98
433.468	197.46
433.679	-249
433.891	-271.53
434.103	136.02
434.315	418.64
434.527	158.55
434.739	-72.87
434.95	-187.56
435.162	273.23
435.374	-122.02
435.586	-212.14
435.798	-158.89
436.009	-242.85
436.221	17.24
436.433	-171.18
436.645	-165.03
436.856	-48.3
437.068	320.34
437.28	-177.32
437.491	123.73
437.703	72.53
437.915	111.44
438.126	-113.83
438.338	23.38
438.55	62.29
438.761	152.4
438.973	-191.66
439.184	-154.79
439.396	-19.63
439.608	260.95
439.819	-265.38
440.031	-111.78
440.242	191.31
440.454	201.55
440.665	-171.18
440.877	-64.68
441.088	136.02
441.3	37.72
441.511	-302.25
441.723	-220.33
441.934	133.97
442.146	133.97
442.357	-19.63
442.569	45.91
442.78	31.57
442.991	424.78
443.203	97.11
443.414	-335.01
443.626	330.58
443.837	-105.64
444.048	-208.04
444.26	-396.45
444.471	86.87
444.682	236.37
444.894	-341.16
445.105	-314.53
445.316	203.6
445.528	148.31
445.739	-173.22
445.95	-226.47
446.161	140.12
446.373	285.52
446.584	-234.66
446.795	-226.47
447.006	269.14
447.217	451.41
447.429	-308.39
447.64	-232.62
447.851	283.47
448.062	0.85
448.273	-306.34
448.484	-195.75
448.695	207.7
448.907	35.67
449.118	-76.97
449.329	-68.78
449.54	-5.29
449.751	-197.8
449.962	-173.22
450.173	-269.48
450.384	408.4
450.595	340.82
450.806	-167.08
451.017	-189.61
451.228	381.78
451.439	293.71
451.65	-146.6
451.861	-400.55
452.072	-150.7
452.283	9.05
452.494	-25.77
452.705	-203.94
452.915	426.83
453.126	127.83
453.337	-181.42
453.548	-306.34
453.759	236.37
453.97	566.09
454.181	27.48
454.391	-275.62
454.602	103.25
454.813	193.36
455.024	-167.08
455.235	-267.43
455.445	45.91
455.656	156.5
455.867	-13.48
456.078	-165.03
456.288	62.29
456.499	123.73
456.71	-232.62
456.921	-17.58
457.131	205.65
457.342	123.73
457.553	-144.55
457.763	-216.23
457.974	183.12
458.184	314.19
458.395	-289.96
458.606	-341.16
458.816	287.57
459.027	463.69
459.237	-64.68
459.448	-404.64
459.659	406.35
459.869	676.68
460.08	-449.7
460.29	-85.16
460.501	539.47
460.711	-128.17
460.922	-359.59
461.132	-208.04
461.343	752.46
461.553	-302.25
461.764	-191.66
461.974	-218.28
462.184	181.07
462.395	222.03
462.605	-87.21
462.816	-298.15
463.026	150.36
463.236	359.25
463.447	-253.09
463.657	-214.18
463.867	170.83
464.078	78.68
464.288	-105.64
464.498	-193.7
464.709	50
464.919	70.48
465.129	-183.46
465.339	-205.99
465.55	199.51
465.76	238.42
465.97	-175.27
466.18	-238.76
466.391	189.27
466.601	136.02
466.811	-175.27
467.021	-285.86
467.231	84.82
467.441	365.39
467.651	-185.51
467.862	-451.75
468.072	31.57
468.282	308.05
468.492	-195.75
468.702	-179.37
468.912	21.33
469.122	639.82
469.332	37.72
469.542	-316.58
469.752	285.52
469.962	82.77
470.172	-251.05
470.382	-257.19
470.592	201.55
470.802	320.34
471.012	-91.31
471.222	-273.57
471.432	312.14
471.642	211.79
471.852	-128.17
472.062	-253.09
472.272	33.62
472.482	-232.62
472.691	-310.44
472.901	-363.69
473.111	66.39
473.321	529.23
473.531	-275.62
473.741	-179.37
473.95	185.17
474.16	152.4
474.37	-76.97
474.58	-294.05
474.79	525.13
474.999	234.32
475.209	-193.7
475.419	-234.66
475.628	-21.67
475.838	297.81
476.048	-160.94
476.258	-330.92
476.467	291.66
476.677	-58.54
476.886	-11.43
477.096	-74.92
477.306	-81.07
477.515	426.83
477.725	-107.69
477.935	-154.79
478.144	332.62
478.354	-38.06
478.563	-201.9
478.773	-212.14
478.982	226.13
479.192	242.51
479.401	-109.74
479.611	-294.05
479.82	-72.87
480.03	160.59
480.239	-214.18
480.449	-265.38
480.658	410.45
480.868	-150.7
481.077	-62.63
481.287	-117.93
481.496	164.69
481.705	459.6
481.915	78.68
482.124	17.24
482.333	168.79
482.543	422.73
482.752	-136.36
482.961	-224.42
483.171	211.79
483.38	58.2
483.589	-177.32
483.799	-236.71
484.008	27.48
484.217	295.76
484.426	-154.79
484.636	-263.33
484.845	156.5
485.054	-242.85
485.263	54.1
485.472	-199.85
485.682	465.74
485.891	90.96
486.1	-253.09
486.309	-165.03
486.518	222.03
486.727	422.73
486.936	-244.9
487.146	-134.31
487.355	414.54
487.564	-107.69
487.773	-148.65
487.982	-232.62
488.191	-85.16
488.4	70.48
488.609	-150.7
488.818	-140.46
489.027	611.15
489.236	457.55
489.445	-136.36
489.654	-240.81
489.863	252.75
490.072	158.55
490.281	181.07
490.49	-228.52
490.698	529.23
490.907	303.95
491.116	-113.83
491.325	-279.72
491.534	453.45
491.743	181.07
491.952	-76.97
492.16	-115.88
492.369	226.13
492.578	340.82
492.787	43.86
492.996	-324.77
493.204	-60.59
493.413	648.01
493.622	-404.64
493.831	-318.63
494.039	478.03
494.248	-119.98
494.457	-212.14
494.665	-341.16
494.874	193.36
495.083	592.72
495.291	-140.46
495.5	-281.77
495.709	357.2
495.917	113.49
496.126	-19.63
496.335	-199.85
496.543	7
496.752	183.12
496.96	131.92
497.169	-312.49
497.377	76.63
497.586	381.78
497.794	-66.73
498.003	-371.88
498.211	95.06
498.42	404.3
498.628	-62.63
498.837	-224.42
499.045	168.79
499.254	201.55
499.462	-183.46
499.671	-228.52
499.879	570.19
500.087	377.68
500.296	-224.42
500.504	-185.51
500.713	201.55
500.921	582.48
501.129	-205.99
501.338	-156.84
501.546	158.55
501.754	35.67
501.962	-142.5
502.171	-314.53
502.379	213.84
502.587	568.14
502.795	-50.35
503.004	-144.55
503.212	136.02
503.42	349.01
503.628	-105.64
503.837	-13.48
504.045	322.38
504.253	516.94
504.461	-134.31
504.669	-322.73
504.877	322.38
505.085	492.37
505.294	-195.75
505.502	47.96
505.71	203.6
505.918	308.05
506.126	-191.66
506.334	-130.22
506.542	168.79
506.75	119.64
506.958	19.29
507.166	-109.74
507.374	82.77
507.582	598.86
507.79	2.9
507.998	-226.47
508.206	262.99
508.414	301.9
508.622	-205.99
508.83	-91.31
509.037	553.8
509.245	93.01
509.453	-208.04
509.661	-216.23
509.869	375.63
510.077	93.01
510.285	-66.73
510.492	-441.51
510.7	713.55
510.908	39.76
511.116	-60.59
511.324	-181.42
511.531	125.78
511.739	205.65
511.947	-5.29
512.155	131.92
512.362	138.07
512.57	-107.69
512.778	-183.46
512.985	-306.34
513.193	418.64
513.401	529.23
513.608	-105.64
513.816	-111.78
514.024	314.19
514.231	461.65
514.439	-9.39
514.646	-138.41
514.854	357.2
515.061	461.65
515.269	-27.82
515.477	-171.18
515.684	-44.2
515.892	430.93
516.099	-246.95
516.307	-269.48
516.514	435.02
516.722	496.46
516.929	-150.7
517.136	-156.84
517.344	602.96
517.551	246.61
517.759	-175.27
517.966	-115.88
518.173	156.5
518.381	183.12
518.588	7
518.796	-113.83
519.003	383.82
519.21	107.35
519.418	-134.31
519.625	125.78
519.832	183.12
520.039	357.2
520.247	-271.53
520.454	-31.91
520.661	451.41
520.868	338.77
521.076	-181.42
521.283	-9.39
521.49	691.02
521.697	232.27
521.904	-31.91
522.112	-76.97
522.319	426.83
522.526	187.22
522.733	-107.69
522.94	-109.74
523.147	281.43
523.354	449.36
523.561	-285.86
523.768	45.91
523.975	383.82
524.183	189.27
524.39	11.09
524.597	-191.66
524.804	213.84
525.011	13.14
525.218	-154.79
525.425	-109.74
525.632	619.34
525.838	66.39
526.045	-38.06
526.252	-134.31
526.459	1344.32
526.666	1047.37
526.873	-117.93
527.08	-44.2
527.287	592.72
527.494	496.46
527.701	-144.55
527.907	-95.4
528.114	441.17
528.321	193.36
528.528	7
528.735	-13.48
528.941	123.73
529.148	168.79
529.355	50
529.562	-25.77
529.768	754.51
529.975	152.4
530.182	9.05
530.388	-31.91
530.595	492.37
530.802	-62.63
531.008	90.96
531.215	-19.63
531.422	637.77
531.628	1014.6
531.835	9.05
532.042	58.2
532.248	156.5
532.455	303.95
532.661	86.87
532.868	-31.91
533.074	318.29
533.281	582.48
533.487	-36.01
533.694	-83.11
533.9	37.72
534.107	426.83
534.313	-76.97
534.52	-150.7
534.726	443.21
534.933	762.7
535.139	-154.79
535.345	-126.12
535.552	322.38
535.758	385.87
535.965	86.87
536.171	-66.73
536.377	518.99
536.584	645.96
536.79	-72.87
536.996	33.62
537.203	287.57
537.409	453.45
537.615	-44.2
537.821	105.3
538.028	430.93
538.234	478.03
538.44	9.05
538.646	86.87
538.853	486.22
539.059	291.66
539.265	394.06
539.471	-165.03
539.677	523.09
539.883	172.88
540.09	54.1
540.296	465.74
540.502	365.39
540.708	181.07
540.914	176.98
541.12	35.67
541.326	521.04
541.532	267.09
541.738	148.31
541.944	148.31
542.15	551.76
542.356	185.17
542.562	21.33
542.768	129.88
542.974	889.67
543.18	906.06
543.386	-15.53
543.592	-89.26
543.798	774.99
544.004	586.57
544.21	60.24
544.415	187.22
544.621	351.06
544.827	510.8
545.033	17.24
545.239	283.47
545.445	70.48
545.651	422.73
545.856	13.14
546.062	58.2
546.268	248.66
546.474	332.62
546.679	117.59
546.885	219.99
547.091	281.43
547.297	920.39
547.502	170.83
547.708	-60.59
547.914	301.9
548.119	525.13
548.325	-33.96
548.531	-29.87
548.736	668.49
548.942	232.27
549.147	37.72
549.353	353.1
549.559	611.15
549.764	570.19
549.97	90.96
550.175	56.15
550.381	623.44
550.586	222.03
550.792	115.54
550.997	111.44
551.203	529.23
551.408	613.2
551.614	88.92
551.819	90.96
552.025	756.55
552.23	908.1
552.435	35.67
552.641	330.58
552.846	273.23
553.052	707.4
553.257	279.38
553.462	164.69
553.668	246.61
553.873	697.16
554.078	197.46
554.283	121.68
554.489	514.89
554.694	441.17
554.899	64.34
555.105	318.29
555.31	590.67
555.515	541.52
555.72	265.04
555.925	35.67
556.131	738.12
556.336	303.95
556.541	133.97
556.746	25.43
556.951	766.79
557.156	848.71
557.361	273.23
557.567	267.09
557.772	1014.6
557.977	668.49
558.182	201.55
558.387	160.59
558.592	381.78
558.797	781.13
559.002	254.8
559.207	387.92
559.412	480.08
559.617	973.64
559.822	234.32
560.027	193.36
560.232	506.7
560.437	652.11
560.642	195.41
560.847	215.89
561.051	484.17
561.256	723.79
561.461	187.22
561.666	76.63
561.871	482.13
562.076	703.31
562.281	267.09
562.485	150.36
562.69	713.55
562.895	779.08
563.1	273.23
563.305	183.12
563.509	910.15
563.714	1016.65
563.919	164.69
564.123	283.47
564.328	590.67
564.533	840.52
564.737	297.81
564.942	289.62
565.147	885.58
565.351	1053.51
565.556	353.1
565.761	349.01
565.965	656.2
566.17	463.69
566.374	224.08
566.579	185.17
566.784	617.29
566.988	432.97
567.193	82.77
567.397	224.08
567.602	197.46
567.806	475.98
568.011	363.34
568.215	334.67
568.42	547.66
568.624	549.71
568.828	240.47
569.033	613.2
569.237	691.02
569.442	774.99
569.646	201.55
569.85	283.47
570.055	512.85
570.259	715.59
570.463	463.69
570.668	424.78
570.872	574.28
571.076	525.13
571.281	453.45
571.485	373.58
571.689	594.76
571.893	713.55
572.098	437.07
572.302	336.72
572.506	688.97
572.71	686.92
572.914	394.06
573.119	508.75
573.323	1047.37
573.527	977.73
573.731	392.02
573.935	291.66
574.139	766.79
574.343	502.61
574.547	451.41
574.751	357.2
574.955	975.69
575.159	1016.65
575.364	340.82
575.568	349.01
575.772	662.35
575.976	1049.41
576.18	451.41
576.383	232.27
576.587	967.49
576.791	901.96
576.995	234.32
577.199	222.03
577.403	877.38
577.607	985.93
577.811	308.05
578.015	480.08
578.219	795.47
578.422	1030.98
578.626	537.42
578.83	541.52
579.034	1016.65
579.238	750.41
579.442	428.88
579.645	772.94
579.849	709.45
580.053	779.08
580.257	541.52
580.46	549.71
580.664	1000.26
580.868	961.35
581.071	629.58
581.275	572.24
581.479	422.73
581.682	934.73
581.886	394.06
582.09	658.25
582.293	932.68
582.497	1065.8
582.7	713.55
582.904	504.65
583.107	774.99
583.311	725.83
583.515	586.57
583.718	693.07
583.922	934.73
584.125	1160
584.329	502.61
584.532	648.01
584.735	1198.92
584.939	897.86
585.142	402.26
585.346	478.03
585.549	881.48
585.753	723.79
585.956	506.7
586.159	705.35
586.363	1207.11
586.566	959.3
586.769	473.93
586.973	494.41
587.176	1028.93
587.379	1260.35
587.582	852.81
587.786	748.36
587.989	912.2
588.192	1454.91
588.395	629.58
588.599	863.05
588.802	1082.18
589.005	1108.8
589.208	545.61
589.411	574.28
589.615	1153.86
589.818	1381.18
590.021	830.28
590.224	734.03
590.427	1131.33
590.63	940.87
590.833	465.74
591.036	545.61
591.239	840.52
591.442	846.66
591.645	824.14
591.848	701.26
592.051	1084.23
592.254	1112.9
592.457	748.36
592.66	795.47
592.863	1014.6
593.066	1057.61
593.269	641.87
593.472	826.18
593.675	871.24
593.878	1246.02
594.081	805.71
594.284	557.9
594.486	1207.11
594.689	987.97
594.892	813.9
595.095	863.05
595.298	1024.84
595.5	901.96
595.703	756.55
595.906	889.67
596.109	1340.22
596.311	1254.21
596.514	439.12
596.717	787.27
596.92	1401.66
597.122	1133.38
597.325	533.33
597.528	693.07
597.73	1389.38
597.933	1106.76
598.136	779.08
598.338	510.8
598.541	1139.52
598.743	1456.96
598.946	842.57
599.148	904.01
599.351	1327.94
599.554	1336.13
599.756	963.4
599.959	766.79
600.161	1327.94
600.363	1813.31
600.566	1102.66
600.768	811.85
600.971	1483.58
601.173	1334.08
601.376	772.94
601.578	992.07
601.78	1321.79
601.983	1737.53
602.185	746.31
602.388	1069.89
602.59	1250.11
602.792	1010.5
602.995	1135.43
603.197	809.8
603.399	1364.8
603.601	1237.83
603.804	916.3
604.006	846.66
604.208	1096.52
604.41	815.94
604.613	1129.28
604.815	897.86
605.017	1633.08
605.219	979.78
605.421	1260.35
605.623	762.7
605.826	1461.06
606.028	1622.84
606.23	926.54
606.432	983.88
606.634	1688.38
606.836	1532.73
607.038	908.1
607.24	1114.95
607.442	1315.65
607.644	1260.35
607.846	1112.9
608.048	840.52
608.25	1502.01
608.452	1069.89
608.654	1104.71
608.856	828.23
609.058	1203.01
609.26	1360.7
609.462	1147.72
609.664	1067.85
609.866	1755.96
610.067	1510.21
610.269	1184.58
610.471	1055.56
610.673	1174.34
610.875	1506.11
611.077	932.68
611.278	1196.87
611.48	1336.13
611.682	1708.86
611.884	1123.14
612.085	1149.76
612.287	1153.86
612.489	1450.82
612.69	840.52
612.892	1127.24
613.094	1622.84
613.295	1575.74
613.497	985.93
613.699	1215.3
613.9	1782.59
614.102	1655.61
614.304	1139.52
614.505	971.59
614.707	1305.41
614.908	1420.1
615.11	967.49
615.311	1166.15
615.513	1542.97
615.714	1635.13
615.916	951.11
616.117	1190.72
616.319	1385.28
616.52	1563.45
616.722	1190.72
616.923	1172.29
617.124	1739.58
617.326	1557.31
617.527	1332.03
617.729	1440.58
617.93	1604.41
618.131	1602.36
618.333	1160
618.534	1286.98
618.735	1215.3
618.937	1844.03
619.138	1098.56
619.339	1147.72
619.54	1604.41
619.742	1389.38
619.943	1360.7
620.144	1286.98
620.345	1676.09
620.546	1721.15
620.748	1192.77
620.949	1172.29
621.15	1532.73
621.351	1600.32
621.552	1143.62
621.753	1123.14
621.954	1227.59
622.155	2179.89
622.356	1131.33
622.558	1280.83
622.759	1512.25
622.96	2009.91
623.161	1262.4
623.362	1321.79
623.563	1542.97
623.764	1737.53
623.965	1344.32
624.166	1436.48
624.366	1487.68
624.567	1698.62
624.768	1008.45
624.969	1356.61
625.17	1518.4
625.371	1807.16
625.572	1440.58
625.773	1280.83
625.973	1938.23
626.174	1786.68
626.375	1340.22
626.576	1381.18
626.777	1776.44
626.977	2253.62
627.178	1231.68
627.379	1461.06
627.58	1635.13
627.78	1549.12
627.981	1393.47
628.182	1551.17
628.382	1964.86
628.583	1360.7
628.784	1293.12
628.984	1471.29
629.185	1968.95
629.386	1897.27
629.586	1393.47
629.787	1342.27
629.987	1790.78
630.188	1665.85
630.388	1342.27
630.589	1514.3
630.79	2265.91
630.99	1680.19
631.191	1510.21
631.391	1512.25
631.591	1882.94
631.792	2130.74
631.992	1581.89
632.193	1557.31
632.393	2069.3
632.594	1731.39
632.794	1442.62
632.994	1643.32
633.195	1774.39
633.395	1739.58
633.595	1424.19
633.796	1610.56
633.996	1547.07
634.196	2061.11
634.397	1487.68
634.597	1590.08
634.797	1733.43
634.997	2065.21
635.198	1737.53
635.398	1497.92
635.598	1913.66
635.798	2052.92
635.998	2087.73
636.199	1624.89
636.399	1618.75
636.599	1653.56
636.799	1606.46
636.999	1760.06
637.199	1897.27
637.399	2126.64
637.599	1624.89
637.799	1649.47
637.999	1719.1
638.199	2331.44
638.399	1567.55
638.599	1604.41
638.799	2014.01
638.999	2399.02
639.199	1708.86
639.399	1737.53
639.599	2220.85
639.799	1715
639.999	1606.46
640.199	1565.5
640.399	1952.57
640.599	2054.97
640.799	1794.87
640.998	1893.18
641.198	2188.08
641.398	2036.53
641.598	1819.45
641.798	1717.05
641.997	3031.85
642.197	1975.1
642.397	1854.27
642.597	1639.23
642.796	2108.21
642.996	2306.87
643.196	1909.56
643.395	1692.48
643.595	2087.73
643.795	1633.08
643.994	1706.81
644.194	1942.33
644.394	2206.52
644.593	2132.79
644.793	1598.27
644.992	1938.23
645.192	2210.61
645.392	1600.32
645.591	1852.22
645.791	1905.46
645.99	2204.47
646.19	2030.39
646.389	1811.26
646.589	1844.03
646.788	2216.76
646.987	2259.76
647.187	2155.32
647.386	2040.63
647.586	2097.97
647.785	2278.19
647.984	1850.17
648.184	1866.55
648.383	1940.28
648.582	2014.01
648.782	1856.31
648.981	2079.54
649.18	1952.57
649.38	2278.19
649.579	1884.98
649.778	1817.4
649.977	2241.33
650.177	2149.17
650.376	1854.27
650.575	1950.52
650.774	2548.53
650.973	1973.05
651.173	1696.57
651.372	2009.91
651.571	2300.72
651.77	2425.65
651.969	2054.97
652.168	2038.58
652.367	1956.66
652.566	2237.24
652.765	1854.27
652.964	2347.83
653.163	2632.49
653.362	2239.28
653.561	2026.29
653.76	1962.81
653.959	2249.52
654.158	2409.26
654.357	2310.96
654.556	2102.07
654.755	2368.31
654.954	2433.84
655.153	2032.44
655.352	2095.93
655.551	2548.53
655.749	2163.51
655.948	2222.9
656.147	2116.41
656.346	2450.22
656.545	2227
656.743	2044.73
656.942	2136.88
657.141	2216.76
657.34	2120.5
657.538	2038.58
657.737	2179.89
657.936	2257.71
658.135	2577.2
658.333	2085.69
658.532	2255.67
658.731	2855.72
658.929	2534.19
659.128	2315.06
659.326	2114.36
659.525	2757.42
659.724	2372.4
659.922	1934.14
660.121	2020.15
660.319	2396.98
660.518	2134.84
660.716	2042.68
660.915	2155.32
661.113	2779.95
661.312	2241.33
661.51	2337.59
661.709	2001.72
661.907	2640.69
662.105	2794.28
662.304	2272.05
662.502	2331.44
662.701	2761.52
662.899	2505.52
663.097	2648.88
663.296	2128.69
663.494	2886.44
663.692	2913.06
663.891	2224.95
664.089	2216.76
664.287	2628.4
664.485	2974.5
664.684	2173.75
664.882	2405.17
665.08	2632.49
665.278	2575.15
665.476	2235.19
665.675	2632.49
665.873	3001.13
666.071	2794.28
666.269	2331.44
666.467	2532.14
666.665	2597.68
666.863	2513.71
667.061	2540.33
667.259	2263.86
667.457	2728.75
667.655	2827.05
667.853	2204.47
668.051	2476.85
668.249	2478.9
668.447	2827.05
668.645	2392.88
668.843	2702.12
669.041	2804.52
669.239	2480.94
669.437	2517.81
669.635	2581.29
669.833	2566.96
670.031	2814.76
670.229	2437.94
670.426	2470.7
670.624	2462.51
670.822	2439.98
671.02	2421.55
671.218	2462.51
671.415	2417.46
671.613	2726.7
671.811	2581.29
672.009	2487.09
672.206	2831.15
672.404	2704.17
672.602	2695.98
672.799	2732.84
672.997	2773.8
673.195	2935.59
673.392	2769.71
673.59	2470.7
673.788	2990.89
673.985	2208.56
674.183	2677.55
674.38	2437.94
674.578	2935.59
674.775	2550.57
674.973	2343.73
675.17	2401.07
675.368	3052.33
675.565	2792.23
675.763	2482.99
675.96	2378.55
676.158	3126.05
676.355	2732.84
676.553	2597.68
676.75	2638.64
676.947	2781.99
677.145	2771.76
677.342	2618.16
677.539	2790.19
677.737	2755.37
677.934	3167.01
678.131	2800.43
678.329	2458.42
678.526	3183.4
678.723	3058.47
678.92	2648.88
679.118	2581.29
679.315	2505.52
679.512	3076.9
679.709	2609.97
679.906	2640.69
680.104	3183.4
680.301	2859.82
680.498	2661.16
680.695	2634.54
680.892	2741.04
681.089	2700.08
681.286	2773.8
681.483	2444.08
681.68	3085.09
681.877	3062.57
682.075	2634.54
682.272	2896.68
682.469	2988.84
682.665	2894.63
682.862	2579.25
683.059	2466.61
683.256	3017.51
683.453	2984.74
683.65	2781.99
683.847	2769.71
684.044	2763.56
684.241	2620.21
684.438	2908.97
684.635	2650.92
684.831	3371.81
685.028	3375.91
685.225	2734.89
685.422	2886.44
685.619	2777.9
685.815	2968.36
686.012	2814.76
686.209	2810.67
686.405	2761.52
686.602	3121.96
686.799	2562.86
686.996	2603.82
687.192	2659.12
687.389	3615.52
687.586	2859.82
687.782	2898.73
687.979	3248.93
688.175	3320.61
688.372	2822.95
688.568	2851.63
688.765	2865.96
688.962	3402.53
689.158	2964.26
689.355	2618.16
689.551	3140.39
689.748	2999.08
689.944	2999.08
690.14	2757.42
690.337	3220.26
690.533	2908.97
690.73	3048.23
690.926	2851.63
691.123	3189.54
691.319	3027.75
691.515	2751.28
691.712	2999.08
691.908	3146.53
692.104	3212.07
692.301	2833.19
692.497	2681.64
692.693	3273.51
692.889	3164.97
693.086	2933.54
693.282	2540.33
693.478	3113.77
693.674	3556.13
693.87	2808.62
694.067	2718.51
694.263	3279.65
694.459	2917.16
694.655	3007.27
694.851	2843.43
695.047	3191.59
695.243	3181.35
695.439	3062.57
695.635	2720.56
695.831	3111.72
696.027	3224.36
696.224	2941.74
696.42	3265.32
696.615	3529.5
696.811	3326.75
697.007	2902.83
697.203	3056.42
697.399	3103.53
697.595	3410.72
697.791	2833.19
697.987	3054.37
698.183	3066.66
698.379	2994.98
698.575	3007.27
698.77	2960.17
698.966	3478.3
699.162	3377.95
699.358	3009.32
699.554	3072.81
699.749	3439.39
699.945	3380
700.141	3103.53
700.337	3164.97
700.532	3203.88
700.728	3095.33
700.924	2921.26
701.119	2857.77
701.315	3224.36
701.511	3140.39
701.706	3109.67
701.902	2796.33
702.097	3320.61
702.293	3420.96
702.489	3078.95
702.684	2906.92
702.88	3121.96
703.075	3085.09
703.271	2962.22
703.466	2839.34
703.662	3277.6
703.857	3441.44
704.053	2921.26
704.248	3048.23
704.443	3466.02
704.639	3392.29
704.834	3119.91
705.03	2964.26
705.225	3420.96
705.42	3613.47
705.616	3064.61
705.811	3068.71
706.006	3375.91
706.202	3232.55
706.397	3126.05
706.592	3035.94
706.787	3513.12
706.983	3316.51
707.178	3234.6
707.373	3205.92
707.568	3640.09
707.763	3615.52
707.959	3027.75
708.154	3027.75
708.349	3355.43
708.544	3549.98
708.739	3271.46
708.934	2966.31
709.129	3515.17
709.324	3541.79
709.519	2999.08
709.714	2937.64
709.909	3654.43
710.104	3492.64
710.299	3119.91
710.494	3181.35
710.689	3582.75
710.884	3506.98
711.079	3199.78
711.274	3396.39
711.469	3463.97
711.664	3625.76
711.859	3093.29
712.054	3318.56
712.249	3572.51
712.443	3615.52
712.638	3025.7
712.833	3132.2
713.028	3347.23
713.223	3287.84
713.417	3377.95
713.612	3177.25
713.807	3666.72
714.002	4016.92
714.196	3425.06
714.391	3248.93
714.586	3812.12
714.78	3482.4
714.975	3197.73
715.17	3199.78
715.364	3318.56
715.559	3722.01
715.754	3087.14
715.948	2986.79
716.143	4102.93
716.337	3363.62
716.532	3568.41
716.726	3279.65
716.921	3785.5
717.115	3902.23
717.31	3164.97
717.504	3769.12
717.699	3478.3
717.893	3625.76
718.088	3316.51
718.282	3089.19
718.476	3609.37
718.671	3535.65
718.865	3232.55
719.059	3269.41
719.254	3441.44
719.448	3795.74
719.642	4637.45
719.837	2997.03
720.031	3636
720.225	3789.6
720.419	3396.39
720.614	3273.51
720.808	3928.86
721.002	3412.77
721.196	3265.32
721.39	3244.84
721.585	3871.51
721.779	3681.05
721.973	3326.75
722.167	2947.88
722.361	3588.89
722.555	3875.61
722.749	3224.36
722.943	3343.14
723.137	3404.58
723.331	3500.83
723.525	3259.17
723.719	3220.26
723.913	3746.59
724.107	3935
724.301	3216.16
724.495	3420.96
724.689	3924.76
724.883	3816.22
725.077	3273.51
725.271	3357.47
725.465	3861.27
725.659	3500.83
725.853	3384.1
726.046	3285.8
726.24	3437.34
726.434	3685.15
726.628	3412.77
726.822	3476.26
727.015	3969.82
727.209	3969.82
727.403	3285.8
727.596	3341.09
727.79	3769.12
727.984	3912.47
728.177	3347.23
728.371	3429.15
728.565	3853.08
728.758	3328.8
728.952	3363.62
729.146	3453.73
729.339	4100.89
729.533	3568.41
729.726	3468.06
729.92	3300.13
730.113	3932.95
730.307	3810.08
730.5	3273.51
730.694	3490.59
730.887	3566.37
731.081	3799.84
731.274	3318.56
731.468	3484.45
731.661	3808.03
731.854	3656.48
732.048	3582.75
732.241	3191.59
732.435	3670.81
732.628	3732.25
732.821	3439.39
733.014	3400.48
733.208	3466.02
733.401	3785.5
733.594	3543.84
733.788	3377.95
733.981	4041.5
734.174	3855.13
734.367	3486.5
734.56	3623.71
734.754	3984.15
734.947	3683.1
735.14	3416.87
735.333	3588.89
735.526	4000.54
735.719	3668.77
735.912	3324.71
736.105	3410.72
736.298	3707.68
736.491	3689.25
736.684	3504.93
736.877	3531.55
737.07	4002.58
737.263	4184.85
737.456	3562.27
737.649	3474.21
737.842	3531.55
738.035	3668.77
738.228	3515.17
738.421	3717.92
738.614	4145.94
738.807	4096.79
739	3470.11
739.192	3427.11
739.385	3855.13
739.578	3951.39
739.771	3730.2
739.964	3547.94
740.156	3943.19
740.349	3658.53
740.542	3640.09
740.735	3351.33
740.927	3582.75
741.12	3666.72
741.313	3519.26
741.505	3754.78
741.698	3932.95
741.891	3908.38
742.083	3840.79
742.276	3699.48
742.468	3711.77
742.661	3891.99
742.854	3746.59
743.046	3572.51
743.239	4256.53
743.431	3853.08
743.624	3592.99
743.816	3453.73
744.009	3787.55
744.201	4096.79
744.393	3924.76
744.586	3486.5
744.778	4102.93
744.971	3986.2
745.163	3853.08
745.355	3869.47
745.548	3853.08
745.74	3664.67
745.932	3851.03
746.125	3707.68
746.317	4485.9
746.509	4033.3
746.702	3707.68
746.894	3773.21
747.086	4068.12
747.278	4254.48
747.471	3789.6
747.663	3781.4
747.855	3863.32
748.047	4477.71
748.239	3621.66
748.431	3597.09
748.623	4414.23
748.815	4240.15
749.008	3617.57
749.2	3662.62
749.392	4113.17
749.584	4102.93
749.776	3685.15
749.968	3891.99
750.16	4336.4
750.352	3863.32
750.544	3744.54
750.736	3789.6
750.928	4119.32
751.12	3951.39
751.311	3713.82
751.503	3707.68
751.695	4109.08
751.887	3986.2
752.079	3666.72
752.271	3728.16
752.463	4641.55
752.654	4047.64
752.846	3916.57
753.038	3799.84
753.23	3826.46
753.421	4152.09
753.613	3787.55
753.805	3975.96
753.997	4326.16
754.188	4377.36
754.38	3670.81
754.572	3889.95
754.763	3916.57
754.955	4178.71
755.146	3896.09
755.338	3748.64
755.53	4082.46
755.721	3900.19
755.913	3552.03
756.104	3494.69
756.296	4027.16
756.487	4242.2
756.679	3617.57
756.87	3891.99
757.062	3670.81
757.253	4166.42
757.445	3791.64
757.636	3922.71
757.827	4053.78
758.019	4760.33
758.21	3709.72
758.401	3775.26
758.593	4473.62
758.784	4326.16
758.975	3656.48
759.167	3842.84
759.358	4004.63
759.549	4266.77
759.74	3750.68
759.932	3810.08
760.123	4377.36
760.314	4016.92
760.505	4018.97
760.696	3793.69
760.888	4465.43
761.079	3937.05
761.27	3793.69
761.461	3592.99
761.652	4444.95
761.843	4043.54
762.034	3740.44
762.225	4195.09
762.416	4135.7
762.607	4137.75
762.798	3781.4
762.989	3691.29
763.18	4854.54
763.371	3969.82
763.562	3810.08
763.753	3859.23
763.944	4277.01
764.135	4410.13
764.326	3914.52
764.517	3756.83
764.708	3953.43
764.899	4211.48
765.089	3779.36
765.28	3515.17
765.471	4027.16
765.662	4150.04
765.853	3891.99
766.043	3597.09
766.234	4297.49
766.425	4344.6
766.615	3846.94
766.806	3674.91
766.997	4320.02
767.187	4234
767.378	3781.4
767.569	3605.28
767.759	4231.96
767.95	4057.88
768.141	3916.57
768.331	3781.4
768.522	4023.06
768.712	4317.97
768.903	3887.9
769.093	3709.72
769.284	4467.47
769.474	4117.27
769.665	3580.7
769.855	3539.74
770.046	4383.51
770.236	3973.91
770.426	3945.24
770.617	3732.25
770.807	4117.27
770.998	4037.4
771.188	3873.56
771.378	3785.5
771.569	4313.88
771.759	4297.49
771.949	3576.61
772.139	3568.41
772.33	4113.17
772.52	4360.98
772.71	3771.16
772.9	3576.61
773.09	4430.61
773.281	4403.99
773.471	3826.46
773.661	3685.15
773.851	4412.18
774.041	4111.13
774.231	3633.95
774.421	3851.03
774.611	4352.79
774.802	4057.88
774.992	3734.3
775.182	3640.09
775.372	4039.45
775.562	4256.53
775.752	3848.99
775.942	3752.73
776.131	4401.94
776.321	4248.34
776.511	3666.72
776.701	3564.32
776.891	4350.74
777.081	3881.75
777.271	3701.53
777.461	3812.12
777.651	4313.88
777.84	4270.87
778.03	3816.22
778.22	3861.27
778.41	4410.13
778.599	3834.65
778.789	3842.84
778.979	3601.18
779.169	4133.65
779.358	4111.13
779.548	4057.88
779.738	3539.74
779.927	3939.1
780.117	3705.63
780.307	3861.27
780.496	3500.83
780.686	4211.48
780.875	4334.36
781.065	3713.82
781.254	3646.24
781.444	4086.55
781.633	4027.16
781.823	3713.82
782.012	3771.16
782.202	3875.61
782.391	4049.69
782.581	3631.9
782.77	3808.03
782.96	4242.2
783.149	3879.71
783.338	3728.16
783.528	3517.22
783.717	4221.72
783.906	4510.48
784.096	3762.97
784.285	3703.58
784.474	4016.92
784.663	3867.42
784.853	3689.25
785.042	3836.7
785.231	3869.47
785.42	4234
785.61	3697.44
785.799	3818.27
785.988	3959.58
786.177	3988.25
786.366	3793.69
786.555	3986.2
786.744	4256.53
786.933	4074.26
787.122	3762.97
787.312	3549.98
787.501	3703.58
787.69	4240.15
787.879	3697.44
788.068	3609.37
788.257	3709.72
788.445	3797.79
788.634	3873.56
788.823	3703.58
789.012	4608.78
789.201	4369.17
789.39	3838.75
789.579	3767.07
789.768	4006.68
789.957	3943.19
790.145	3676.96
790.334	3519.26
790.523	3857.18
790.712	4051.74
790.9	3906.33
791.089	3621.66
791.278	4260.63
791.467	3951.39
791.655	3941.15
791.844	4107.03
792.033	3871.51
792.221	3957.53
792.41	3679.01
792.599	3574.56
792.787	4277.01
792.976	4145.94
793.164	3683.1
793.353	3771.16
793.541	4383.51
793.73	4096.79
793.918	3697.44
794.107	3734.3
794.295	3971.86
794.484	3969.82
794.672	3689.25
794.861	3775.26
795.049	4072.22
795.238	4369.17
795.426	3572.51
795.614	3666.72
795.803	3959.58
795.991	4354.83
796.179	3740.44
796.368	3730.2
796.556	4107.03
796.744	3728.16
796.932	3633.95
797.121	3783.45
797.309	3998.49
797.497	4217.62
797.685	3760.92
797.874	3709.72
798.062	3881.75
798.25	4303.64
798.438	3724.06
798.626	3625.76
798.814	4129.56
799.002	4530.96
799.19	3998.49
799.378	3883.8
799.566	4209.43
799.755	4473.62
799.943	3840.79
800.131	3785.5
800.318	4125.46
800.506	4012.82
800.694	3865.37
800.882	3859.23
801.07	4592.4
801.258	4113.17
801.446	3814.17
801.634	3797.79
801.822	4211.48
802.01	4180.76
802.197	3904.28
802.385	4070.17
802.573	4201.24
802.761	3920.67
802.949	3867.42
803.136	3748.64
803.324	4403.99
803.512	4119.32
803.699	4004.63
803.887	3740.44
804.075	4414.23
804.262	4121.37
804.45	3773.21
804.638	3894.04
804.825	4051.74
805.013	3998.49
805.201	4018.97
805.388	3834.65
805.576	4092.69
805.763	4668.17
805.951	4043.54
806.138	4084.5
806.326	4748.04
806.513	4350.74
806.701	3881.75
806.888	3722.01
807.075	4301.59
807.263	4621.07
807.45	3797.79
807.638	4049.69
807.825	4752.14
808.012	4434.71
808.2	4096.79
808.387	4197.14
808.574	4469.52
808.761	4639.5
808.949	3887.9
809.136	4135.7
809.323	4100.89
809.51	4238.1
809.698	4244.24
809.885	4164.37
810.072	4475.67
810.259	4633.36
810.446	4107.03
810.633	3949.34
810.82	4670.22
811.008	4659.98
811.195	4250.39
811.382	4283.16
811.569	4377.36
811.756	4031.26
811.943	4180.76
812.13	4129.56
812.317	4076.31
812.504	4344.6
812.691	4154.13
812.878	4334.36
813.064	4815.63
813.251	4391.7
813.438	4170.52
813.625	4434.71
813.812	4375.31
813.999	4301.59
814.186	4236.05
814.372	4121.37
814.559	4428.56
814.746	4784.91
814.933	4299.54
815.12	4272.92
815.306	4287.25
815.493	4113.17
815.68	4197.14
815.866	4109.08
816.053	4829.96
816.24	4819.72
816.426	4395.79
816.613	4260.63
816.799	4629.26
816.986	4623.12
817.173	4150.04
817.359	4121.37
817.546	4512.53
817.732	4041.5
817.919	3902.23
818.105	4324.12
818.292	4428.56
818.478	4637.45
818.665	4432.66
818.851	4317.97
819.037	4913.93
819.224	4434.71
819.41	4119.32
819.597	4117.27
819.783	4934.41
819.969	4717.33
820.156	4268.82
820.342	4195.09
820.528	5341.96
820.714	4444.95
820.901	4655.89
821.087	4231.96
821.273	4961.03
821.459	4451.09
821.646	4240.15
821.832	4324.12
822.018	4723.47
822.204	4440.85
822.39	4236.05
822.576	4168.47
822.762	4576.02
822.948	4563.73
823.134	4277.01
823.32	4236.05
823.507	4363.03
823.693	4655.89
823.879	4446.99
824.065	4219.67
824.25	4580.11
824.436	4186.9
824.622	4231.96
824.808	4156.18
824.994	4272.92
825.18	4274.96
825.366	4184.85
825.552	4223.76
825.738	4533.01
825.923	4637.45
826.109	4492.05
826.295	4096.79
826.481	4334.36
826.667	4449.04
826.852	4348.69
827.038	4031.26
827.224	4754.19
827.409	4958.99
827.595	3898.14
827.781	4385.55
827.966	4678.41
828.152	4707.09
828.338	4332.31
828.523	3978.01
828.709	4322.07
828.894	4766.48
829.08	4227.86
829.266	4049.69
829.451	4326.16
829.637	4563.73
829.822	4270.87
830.008	4102.93
830.193	4696.85
830.378	4698.89
830.564	4102.93
830.749	4076.31
830.935	4590.35
831.12	4684.56
831.305	4029.21
831.491	4258.58
831.676	4094.74
831.861	4768.52
832.047	4160.28
832.232	4041.5
832.417	4561.68
832.602	4524.82
832.788	3994.39
832.973	4041.5
833.158	4309.78
833.343	4553.49
833.528	4217.62
833.714	4424.47
833.899	4563.73
834.084	4850.44
834.269	4315.92
834.454	4115.22
834.639	4680.46
834.824	4461.33
835.009	4170.52
835.194	4305.68
835.379	4719.37
835.564	4672.27
835.749	4315.92
835.934	4033.3
836.119	4520.72
836.304	4492.05
836.489	4164.37
836.674	4328.21
836.859	4248.34
837.044	4748.04
837.228	4229.91
837.413	4023.06
837.598	4399.89
837.783	4508.43
837.968	4174.61
838.152	3930.91
838.337	4047.64
838.522	4698.89
838.707	4569.87
838.891	4242.2
839.076	4526.86
839.261	4610.83
839.445	4225.81
839.63	4283.16
839.815	4846.35
839.999	4277.01
840.184	3996.44
840.368	4219.67
840.553	4487.95
840.737	4584.21
840.922	3869.47
841.106	4104.98
841.291	4154.13
841.475	4375.31
841.66	4115.22
841.844	4143.89
842.029	5004.04
842.213	4029.21
842.397	4039.45
842.582	3980.06
842.766	4694.8
842.951	4584.21
843.135	4156.18
843.319	4207.38
843.504	4467.47
843.688	4537.1
843.872	3924.76
844.056	3867.42
844.241	4553.49
844.425	4250.39
844.609	4330.26
844.793	3904.28
844.977	4455.19
845.161	4473.62
845.346	3982.1
845.53	3990.3
845.714	4139.8
845.898	4670.22
846.082	3756.83
846.266	4168.47
846.45	4313.88
846.634	4315.92
846.818	4111.13
847.002	4115.22
847.186	4457.23
847.37	4039.45
847.554	3861.27
847.738	4154.13
847.922	4426.51
848.106	4387.6
848.29	3865.37
848.473	4008.73
848.657	4354.83
848.841	4328.21
849.025	4113.17
849.209	3865.37
849.392	4412.18
849.576	4174.61
849.76	3592.99
849.944	4172.57
850.127	4686.61
850.311	4154.13
850.495	4078.36
850.678	3900.19
850.862	4512.53
851.046	4723.47
851.229	4170.52
851.413	3797.79
851.596	4252.44
851.78	4363.03
851.964	4201.24
852.147	4018.97
852.331	5061.38
852.514	4533.01
852.698	4129.56
852.881	3756.83
853.065	4387.6
853.248	4104.98
853.431	4004.63
853.615	4074.26
853.798	4844.3
853.982	4291.35
854.165	4051.74
854.348	3896.09
854.532	4035.35
854.715	3971.86
854.898	4025.11
855.081	3943.19
855.265	4553.49
855.448	4631.31
855.631	3961.62
855.814	4074.26
855.997	4336.4
856.181	4008.73
856.364	4092.69
856.547	3681.05
856.73	4225.81
856.913	4324.12
857.096	3859.23
857.279	3953.43
857.462	4039.45
857.645	4408.08
857.828	4111.13
858.011	4193.05
858.194	4123.41
858.377	4217.62
858.56	3748.64
858.743	4021.02
858.926	4123.41
859.109	4348.69
859.292	3859.23
859.475	3785.5
859.658	4580.11
859.841	4274.96
860.023	3894.04
860.206	3826.46
860.389	4209.43
860.572	4530.96
860.755	3867.42
860.937	3861.27
861.12	4168.47
861.303	3998.49
861.486	3861.27
861.668	3707.68
861.851	4307.73
862.034	4340.5
862.216	3869.47
862.399	3660.57
862.581	4209.43
862.764	4559.63
862.947	3797.79
863.129	3803.93
863.312	3801.88
863.494	4367.12
863.677	4082.46
863.859	3689.25
864.042	4211.48
864.224	4377.36
864.406	3814.17
864.589	3529.5
864.771	4238.1
864.954	3932.95
865.136	3777.31
865.318	3578.65
865.501	4260.63
865.683	3719.96
865.865	3824.41
866.048	3695.39
866.23	4066.07
866.412	4008.73
866.594	3703.58
866.777	3834.65
866.959	4270.87
867.141	3808.03
867.323	3961.62
867.505	3859.23
867.687	3957.53
867.869	4004.63
868.052	3808.03
868.234	3605.28
868.416	3969.82
868.598	4311.83
868.78	3627.81
868.962	3513.12
869.144	4227.86
869.326	4309.78
869.508	3674.91
869.69	3648.29
869.872	3953.43
870.054	4309.78
870.236	3599.13
870.417	3545.89
870.599	4027.16
870.781	4342.55
870.963	3728.16
871.145	3601.18
871.327	3648.29
871.508	4117.27
871.69	3676.96
871.872	3654.43
872.054	4113.17
872.235	4121.37
872.417	3820.32
872.599	3486.5
872.78	4277.01
872.962	4145.94
873.144	3584.8
873.325	3867.42
873.507	4277.01
873.689	4041.5
873.87	3535.65
874.052	3894.04
874.233	4004.63
874.415	4344.6
874.596	3787.55
874.778	3623.71
874.959	3867.42
875.141	4270.87
875.322	3904.28
875.503	3715.87
875.685	4143.89
875.866	3734.3
876.048	3621.66
876.229	3687.2
876.41	3951.39
876.592	4188.95
876.773	3838.75
876.954	3449.63
877.136	4440.85
877.317	3982.1
877.498	3535.65
877.679	3685.15
877.86	4143.89
878.042	4039.45
878.223	3803.93
878.404	4156.18
878.585	4193.05
878.766	4567.82
878.947	4219.67
879.128	3998.49
879.309	4170.52
879.49	4410.13
879.672	3855.13
879.853	3896.09
880.034	3920.67
880.215	4088.6
880.396	3885.85
880.576	3867.42
880.757	4072.22
880.938	4426.51
881.119	3832.6
881.3	3912.47
881.481	4031.26
881.662	4993.8
881.843	3904.28
882.023	3605.28
882.204	4416.27
882.385	4234
882.566	3810.08
882.747	3873.56
882.927	4186.9
883.108	4266.77
883.289	3791.64
883.469	4293.4
883.65	4215.57
883.831	4264.72
884.011	4164.37
884.192	3949.34
884.373	4490
884.553	4424.47
884.734	4082.46
884.914	4287.25
885.095	4963.08
885.275	4705.04
885.456	4281.11
885.636	3865.37
885.817	4350.74
885.997	4295.44
886.178	3945.24
886.358	4117.27
886.538	4543.25
886.719	5368.58
886.899	3945.24
887.08	4229.91
887.26	4549.39
887.44	4049.69
887.621	3959.58
887.801	4328.21
887.981	5022.47
888.161	4561.68
888.342	4197.14
888.522	4332.31
888.702	4743.95
888.882	4702.99
889.062	4436.75
889.242	4064.02
889.423	4922.12
889.603	4551.44
889.783	4465.43
889.963	4147.99
890.143	4764.43
890.323	4819.72
890.503	4309.78
890.683	4295.44
890.863	4588.3
891.043	4694.8
891.223	4125.46
891.403	4530.96
891.583	4565.78
891.763	4571.92
891.943	4444.95
892.122	4242.2
892.302	4676.37
892.482	4612.88
892.662	4442.9
892.842	4334.36
893.022	4633.36
893.201	4334.36
893.381	4506.38
893.561	4377.36
893.741	4795.15
893.92	4619.02
894.1	4496.14
894.28	4522.77
894.459	4641.55
894.639	4584.21
894.819	4389.65
894.998	4436.75
895.178	4752.14
895.357	4768.52
895.537	4354.83
895.716	4291.35
895.896	4549.39
896.075	4926.22
896.255	4395.79
896.434	4291.35
896.614	4942.6
896.793	4911.88
896.973	4522.77
897.152	4473.62
897.331	4786.96
897.511	4936.46
897.69	4186.9
897.87	4629.26
898.049	4748.04
898.228	4510.48
898.407	4600.59
898.587	4492.05
898.766	4506.38
898.945	4778.76
899.124	4449.04
899.304	4563.73
899.483	4723.47
899.662	5024.52
899.841	4498.19
900.02	4422.42
900.199	4858.64
900.378	4682.51
900.557	4422.42
900.737	4326.16
900.916	4610.83
901.095	4723.47
901.274	4653.84
901.453	4262.68
901.632	4440.85
901.811	4498.19
901.989	4322.07
902.168	4455.19
902.347	4954.89
902.526	4420.37
902.705	4299.54
902.884	4403.99
903.063	4987.66
903.242	4768.52
903.42	4291.35
903.599	4553.49
903.778	4860.68
903.957	4915.98
904.135	4473.62
904.314	4393.75
904.493	4748.04
904.672	4524.82
904.85	4434.71
905.029	4147.99
905.207	4588.3
905.386	5219.08
905.565	4121.37
905.743	4277.01
905.922	4424.47
906.1	4733.71
906.279	4141.85
906.457	4281.11
906.636	4498.19
906.814	4461.33
906.993	4270.87
907.171	4150.04
907.35	4647.69
907.528	4901.64
907.707	4422.42
907.885	4152.09
908.063	4864.78
908.242	4244.24
908.42	4195.09
908.598	3924.76
908.777	4434.71
908.955	4367.12
909.133	4328.21
909.311	4041.5
909.49	4401.94
909.668	4490
909.846	4207.38
910.024	3883.8
910.202	4432.66
910.38	4471.57
910.559	4129.56
910.737	4080.41
910.915	4424.47
911.093	4397.84
911.271	4174.61
911.449	4393.75
911.627	4399.89
911.805	4993.8
911.983	4141.85
912.161	4078.36
912.339	4492.05
912.517	4666.13
912.695	4274.96
912.872	4203.29
913.05	3959.58
913.228	4363.03
913.406	4025.11
913.584	4025.11
913.762	4408.08
913.939	4055.83
914.117	3887.9
914.295	3967.77
914.473	4446.99
914.65	4211.48
914.828	3943.19
915.006	3797.79
915.184	3906.33
915.361	4098.84
915.539	4254.48
915.716	4174.61
915.894	4205.33
916.072	4444.95
916.249	4215.57
916.427	4004.63
916.604	3711.77
916.782	4277.01
916.959	3842.84
917.137	3752.73
917.314	4211.48
917.492	4219.67
917.669	3855.13
917.847	4111.13
918.024	4201.24
918.201	4002.58
918.379	4051.74
918.556	3945.24
918.733	4219.67
918.911	3996.44
919.088	4025.11
919.265	3826.46
919.442	4133.65
919.62	3943.19
919.797	3689.25
919.974	3568.41
920.151	4023.06
920.328	3965.72
920.506	3742.49
920.683	4010.78
920.86	3799.84
921.037	3728.16
921.214	3814.17
921.391	3699.48
921.568	4162.33
921.745	3717.92
921.922	3752.73
922.099	3498.78
922.276	4164.37
922.453	4055.83
922.63	3627.81
922.807	3896.09
922.984	3906.33
923.161	3558.18
923.338	3627.81
923.514	3599.13
923.691	3785.5
923.868	3926.81
924.045	3500.83
924.222	3416.87
924.399	3951.39
924.575	4098.84
924.752	3775.26
924.929	3676.96
925.105	3820.32
925.282	3664.67
925.459	3420.96
925.635	3552.03
925.812	3773.21
925.989	3631.9
926.165	3574.56
926.342	3160.87
926.518	3441.44
926.695	3670.81
926.871	3351.33
927.048	3289.89
927.224	3851.03
927.401	3611.42
927.577	3363.62
927.754	3263.27
927.93	3947.29
928.107	3693.34
928.283	3365.67
928.459	3400.48
928.636	3644.19
928.812	3414.82
928.988	3173.16
929.165	3197.73
929.341	3494.69
929.517	3447.58
929.693	3570.46
929.87	2951.98
930.046	3547.94
930.222	3189.54
930.398	3124.01
930.574	3402.53
930.751	3494.69
930.927	3207.97
931.103	3218.21
931.279	3195.68
931.455	3187.49
931.631	3408.67
931.807	3025.7
931.983	3003.18
932.159	2972.46
932.335	3318.56
932.511	3072.81
932.687	3025.7
932.863	3306.27
933.039	3109.67
933.215	2818.86
933.391	2695.98
933.566	3162.92
933.742	3154.73
933.918	2958.12
934.094	2648.88
934.27	2986.79
934.445	2941.74
934.621	2997.03
934.797	2730.8
934.973	3095.33
935.148	3050.28
935.324	2638.64
935.5	2329.39
935.675	3107.62
935.851	2876.2
936.027	2577.2
936.202	2523.95
936.378	2904.87
936.553	2687.79
936.729	2882.35
936.904	2263.86
937.08	2364.21
937.255	2482.99
937.431	2147.12
937.606	2175.8
937.782	2298.67
937.957	2482.99
938.133	2282.29
938.308	2200.37
938.483	2282.29
938.659	2102.07
938.834	2091.83
939.009	1983.29
939.185	2118.45
939.36	1903.42
939.535	1510.21
939.71	2089.78
939.886	2288.43
940.061	2286.39
940.236	1981.24
940.411	1852.22
940.586	1989.43
940.761	2196.28
940.937	1884.98
941.112	1688.38
941.287	1958.71
941.462	2065.21
941.637	1694.52
941.812	1661.76
941.987	1999.67
942.162	1846.07
942.337	1657.66
942.512	1633.08
942.687	2044.73
942.862	1839.93
943.037	1461.06
943.212	1196.87
943.386	1774.39
943.561	1811.26
943.736	1762.11
943.911	1794.87
944.086	1852.22
944.26	1927.99
944.435	1674.04
944.61	1735.48
944.785	2085.69
944.959	2198.32
945.134	1598.27
945.309	1561.41
945.483	1563.45
945.658	1999.67
945.833	1295.17
946.007	1360.7
946.182	2188.08
946.357	1479.49
946.531	1321.79
946.706	1432.38
946.88	1336.13
947.055	1780.54
947.229	1540.93
947.404	1377.09
947.578	1954.62
947.752	1581.89
947.927	1352.51
948.101	1340.22
948.276	1745.72
948.45	1690.43
948.624	1659.71
948.799	1430.34
948.973	1891.13
949.147	1469.25
949.321	1598.27
949.496	1479.49
949.67	1950.52
949.844	1594.17
950.018	1497.92
950.193	1477.44
950.367	2296.63
950.541	1610.56
950.715	1612.6
950.889	1674.04
951.063	1706.81
951.237	1860.41
951.411	1315.65
951.585	1250.11
951.759	1866.55
951.933	1739.58
952.107	1356.61
952.281	1557.31
952.455	2155.32
952.629	1880.89
952.803	1452.86
952.977	1444.67
953.151	1794.87
953.325	1766.2
953.499	1622.84
953.672	1332.03
953.846	1516.35
954.02	1585.98
954.194	1577.79
954.368	1352.51
954.541	1798.97
954.715	1526.59
954.889	1495.87
955.062	1465.15
955.236	1753.91
955.41	1684.28
955.583	1594.17
955.757	1266.5
955.93	1706.81
956.104	1485.63
956.278	1499.97
956.451	1493.82
956.625	1792.83
956.798	2204.47
956.972	1737.53
957.145	1436.48
957.319	1672
957.492	1557.31
957.665	1590.08
957.839	1413.95
958.012	1938.23
958.185	1520.45
958.359	1516.35
958.532	1575.74
958.705	1780.54
958.879	1653.56
959.052	1540.93
959.225	1248.07
959.398	1803.07
959.572	1790.78
959.745	1372.99
959.918	1508.16
960.091	1569.6
960.264	1782.59
960.438	1332.03
960.611	1297.22
960.784	1856.31
960.957	1536.83
961.13	1866.55
961.303	1299.27
961.476	1643.32
961.649	1917.75
961.822	1264.45
961.995	1487.68
962.168	1870.65
962.341	1567.55
962.514	1409.86
962.686	1356.61
962.859	1694.52
963.032	1819.45
963.205	1393.47
963.378	1323.84
963.551	1710.91
963.723	1651.52
963.896	1528.64
964.069	1512.25
964.242	1692.48
964.414	1825.59
964.587	1434.43
964.76	1524.54
964.932	1747.77
965.105	1528.64
965.278	1426.24
965.45	1391.42
965.623	1690.43
965.795	1796.92
965.968	1424.19
966.14	1348.42
966.313	1465.15
966.485	1631.04
966.658	1397.57
966.83	1311.55
967.003	1878.84
967.175	1794.87
967.348	1409.86
967.52	1401.66
967.692	1993.53
967.865	1655.61
968.037	1399.62
968.209	1608.51
968.382	1631.04
968.554	1852.22
968.726	1465.15
968.898	1278.79
969.071	1704.76
969.243	1692.48
969.415	1401.66
969.587	1538.88
969.759	2069.3
969.932	1796.92
970.104	1344.32
970.276	1160
970.448	1542.97
970.62	1461.06
970.792	1516.35
970.964	1467.2
971.136	1923.9
971.308	1688.38
971.48	1389.38
971.652	1276.74
971.824	1903.42
971.996	1436.48
972.168	1344.32
972.339	1409.86
972.511	1755.96
972.683	1497.92
972.855	1579.84
973.027	1375.04
973.199	1559.36
973.37	1585.98
973.542	1426.24
973.714	1391.42
973.886	1538.88
974.057	1674.04
974.229	1213.25
974.401	1254.21
974.572	1313.6
974.744	1098.56
974.915	1217.35
975.087	1155.91
975.259	1788.73
975.43	1340.22
975.602	1327.94
975.773	1188.68
975.945	1315.65
976.116	1641.28
976.288	1233.73
976.459	1510.21
976.63	1387.33
976.802	1577.79
976.973	1354.56
977.145	1385.28
977.316	1911.61
977.487	1592.13
977.659	1401.66
977.83	1354.56
978.001	1950.52
978.172	1522.49
978.344	1184.58
978.515	1182.53
978.686	1405.76
978.857	1651.52
979.028	1256.26
979.2	1196.87
979.371	1741.63
979.542	1438.53
979.713	1366.85
979.884	881.48
980.055	1356.61
980.226	1389.38
980.397	1143.62
980.568	1065.8
980.739	1860.41
980.91	1409.86
981.081	1407.81
981.252	1033.03
981.423	1606.46
981.594	1690.43
981.765	1102.66
981.936	1237.83
982.106	1446.72
982.277	1741.63
982.448	1168.2
982.619	1303.36
982.79	1299.27
982.96	1643.32
983.131	1276.74
983.302	996.17
983.472	1329.99
983.643	1495.87
983.814	1327.94
983.984	1063.75
984.155	1243.97
984.326	1624.89
984.496	1260.35
984.667	1094.47
984.837	1192.77
985.008	1731.39
985.178	1338.18
985.349	1258.31
985.519	1270.59
985.69	1198.92
985.86	1176.39
986.031	1073.99
986.201	1448.77
986.371	1495.87
986.542	1024.84
986.712	926.54
986.882	1459.01
987.053	1426.24
987.223	1024.84
987.393	1270.59
987.563	1231.68
987.734	1442.62
987.904	1450.82
988.074	1114.95
988.244	1354.56
988.414	1207.11
988.585	1071.94
988.755	1239.87
988.925	1413.95
989.095	1721.15
989.265	1008.45
989.435	1196.87
989.605	1504.06
989.775	1461.06
989.945	1389.38
990.115	936.78
990.285	1260.35
990.455	1327.94
990.625	1063.75
990.795	879.43
990.965	1655.61
991.134	1065.8
991.304	940.87
991.474	910.15
991.644	1379.14
991.814	1663.8
991.984	889.67
992.153	932.68
992.323	1200.96
992.493	1227.59
992.662	893.77
992.832	1139.52
993.002	1229.63
993.171	1229.63
993.341	899.91
993.511	1135.43
993.68	1141.57
993.85	1336.13
994.019	846.66
994.189	805.71
994.358	1293.12
994.528	1174.34
994.697	731.98
994.867	840.52
995.036	1411.9
995.206	1121.09
995.375	850.76
995.544	1078.08
995.714	1166.15
995.883	1106.76
996.052	1225.54
996.222	764.75
996.391	1647.42
996.56	1278.79
996.73	779.08
996.899	699.21
997.068	1567.55
997.237	1196.87
997.406	889.67
997.576	672.59
997.745	1207.11
997.914	1295.17
998.083	602.96
998.252	891.72
998.421	1188.68
998.59	1002.31
998.759	781.13
998.928	682.83
999.097	1375.04
999.266	1248.07
999.435	981.83
999.604	607.05
999.773	1524.54
999.942	1143.62
1000.111	744.27
1000.28	592.72
1000.448	863.05
1000.617	1016.65
1000.786	951.11
1000.955	709.45
1001.124	1108.8
1001.292	1723.2
1001.461	738.12
1001.63	721.74
1001.798	1475.39
1001.967	1379.14
1002.136	549.71
1002.304	742.22
1002.473	1100.61
1002.642	1086.28
1002.81	815.94
1002.979	719.69
1003.147	1252.16
1003.316	1645.37
1003.484	807.75
1003.653	758.6
1003.821	1299.27
1003.99	1010.5
1004.158	944.97
1004.327	815.94
1004.495	1119.04
1004.663	992.07
1004.832	815.94
1005	639.82
1005.168	1221.44
1005.337	1073.99
1005.505	543.57
1005.673	914.25
1005.842	1250.11
1006.01	1067.85
1006.178	537.42
1006.346	707.4
1006.514	1028.93
1006.683	1303.36
1006.851	693.07
1007.019	543.57
1007.187	830.28
1007.355	594.76
1007.523	650.06
1007.691	453.45
1007.859	660.3
1008.027	1239.87
1008.195	672.59
1008.363	537.42
1008.531	1176.39
1008.699	840.52
1008.867	521.04
1009.035	754.51
1009.203	1223.49
1009.37	1026.89
1009.538	598.86
1009.706	1162.05
1009.874	885.58
1010.042	897.86
1010.209	471.89
1010.377	463.69
1010.545	1055.56
1010.713	1016.65
1010.88	602.96
1011.048	598.86
1011.216	715.59
1011.383	1243.97
1011.551	555.85
1011.718	496.46
1011.886	1196.87
1012.054	813.9
1012.221	457.55
1012.389	539.47
1012.556	836.42
1012.724	1184.58
1012.891	660.3
1013.058	398.16
1013.226	998.21
1013.393	1059.65
1013.561	459.6
1013.728	361.3
1013.895	1114.95
1014.063	1073.99
1014.23	488.27
1014.397	537.42
1014.565	1069.89
1014.732	822.09
1014.899	512.85
1015.066	402.26
1015.233	897.86
1015.401	1049.41
1015.568	518.99
1015.735	707.4
1015.902	783.18
1016.069	869.19
1016.236	467.79
1016.403	379.73
1016.57	676.68
1016.737	1125.19
1016.904	627.53
1017.071	379.73
1017.238	648.01
1017.405	967.49
1017.572	447.31
1017.739	611.15
1017.906	858.95
1018.073	1037.13
1018.24	240.47
1018.407	488.27
1018.573	1008.45
1018.74	770.89
1018.907	619.34
1019.074	271.19
1019.241	1022.79
1019.407	805.71
1019.574	400.21
1019.741	289.62
1019.907	891.72
1020.074	877.38
1020.241	252.75
1020.407	349.01
1020.574	942.92
1020.74	955.21
1020.907	549.71
1021.073	414.54
1021.24	1354.56
1021.406	1086.28
1021.573	373.58
1021.739	342.86
1021.906	1010.5
1022.072	809.8
1022.239	459.6
1022.405	392.02
1022.571	811.85
1022.738	662.35
1022.904	344.91
1023.07	396.11
1023.237	774.99
1023.403	934.73
1023.569	435.02
1023.735	375.63
1023.902	856.9
1024.068	828.23
1024.234	336.72
1024.4	314.19
1024.566	822.09
1024.732	834.38
1024.898	435.02
1025.065	138.07
1025.231	904.01
1025.397	635.72
1025.563	455.5
1025.729	232.27
1025.895	236.37
1026.061	482.13
1026.227	129.88
1026.392	385.87
1026.558	920.39
1026.724	779.08
1026.89	262.99
1027.056	295.76
1027.222	787.27
1027.388	688.97
1027.553	277.33
1027.719	297.81
1027.885	1123.14
1028.051	805.71
1028.216	156.5
1028.382	291.66
1028.548	852.81
1028.713	535.37
1028.879	111.44
1029.045	373.58
1029.21	973.64
1029.376	871.24
1029.541	273.23
1029.707	256.85
1029.873	824.14
1030.038	922.44
1030.204	226.13
1030.369	267.09
1030.534	787.27
1030.7	586.57
1030.865	338.77
1031.031	162.64
1031.196	760.65
1031.361	707.4
1031.527	285.52
1031.692	166.74
1031.857	197.46
1032.023	881.48
1032.188	162.64
1032.353	281.43
1032.518	947.01
1032.684	672.59
1032.849	121.68
1033.014	207.7
1033.179	770.89
1033.344	789.32
1033.509	379.73
1033.674	242.51
1033.839	844.62
1034.004	711.5
1034.17	234.32
1034.335	185.17
1034.5	586.57
1034.664	473.93
1034.829	222.03
1034.994	308.05
1035.159	639.82
1035.324	609.1
1035.489	201.55
1035.654	224.08
1035.819	957.25
1035.984	715.59
1036.148	318.29
1036.313	181.07
1036.478	852.81
1036.643	619.34
1036.807	193.36
1036.972	174.93
1037.137	840.52
1037.301	621.39
1037.466	21.33
1037.631	275.28
1037.795	803.66
1037.96	525.13
1038.124	443.21
1038.289	41.81
1038.454	676.68
1038.618	764.75
1038.783	168.79
1038.947	279.38
1039.111	611.15
1039.276	510.8
1039.44	82.77
1039.605	619.34
1039.769	473.93
1039.933	504.65
1040.098	289.62
1040.262	406.35
1040.426	639.82
1040.591	723.79
1040.755	174.93
1040.919	140.12
1041.083	731.98
1041.248	492.37
1041.412	-1.19
1041.576	111.44
1041.74	512.85
1041.904	693.07
1042.068	136.02
1042.232	275.28
1042.397	781.13
1042.561	627.53
1042.725	-117.93
1042.889	406.35
1043.053	693.07
1043.217	588.62
1043.381	295.76
1043.544	9.05
1043.708	754.51
1043.872	256.85
1044.036	-72.87
1044.2	-48.3
1044.364	805.71
1044.528	820.04
1044.691	3363.62
1044.855	103.25
1045.019	762.7
1045.183	625.48
1045.346	230.23
1045.51	-17.58
1045.674	629.58
1045.837	594.76
1046.001	174.93
1046.165	142.16
1046.328	1045.32
1046.492	609.1
1046.655	287.57
1046.819	99.16
1046.983	418.64
1047.146	621.39
1047.31	95.06
1047.473	-115.88
1047.636	414.54
1047.8	281.43
1047.963	115.54
1048.127	76.63
1048.29	271.19
