Data from Ink_Intensity_USB4F045381__178__00178.txt Node

Date: Mon Jul 17 11:41:07 EDT 2023
User: mmckonesweet
Spectrometer: USB4F04538
Trigger mode: 4
Integration Time (sec): 9.000000E-1
Scans to average: 1
Electric dark correction enabled: true
Nonlinearity correction enabled: false
Boxcar width: 0
XAxis mode: Wavelengths
Number of Pixels in Spectrum: 3648
>>>>>Begin Spectral Data<<<<<
345.52	-1062.04
345.736	-1062.04
345.952	-1062.04
346.168	-1082.52
346.384	-1014.94
346.6	-91.31
346.816	-275.62
347.032	-185.51
347.248	303.95
347.464	-232.62
347.68	-203.94
347.896	17.24
348.112	473.93
348.328	-31.91
348.544	-25.77
348.76	0.85
348.975	250.71
349.191	-189.61
349.407	-210.09
349.623	-23.72
349.839	-119.98
350.055	-142.5
350.27	-50.35
350.486	125.78
350.702	357.2
350.918	271.19
351.133	-162.98
351.349	109.4
351.565	377.68
351.781	-255.14
351.996	-31.91
352.212	246.61
352.428	-89.26
352.644	-283.81
352.859	-179.37
353.075	357.2
353.291	129.88
353.506	-130.22
353.722	-287.91
353.938	-154.79
354.153	465.74
354.369	47.96
354.584	-246.95
354.8	232.27
355.016	-357.54
355.231	-246.95
355.447	-87.21
355.662	154.45
355.878	811.85
356.093	-316.58
356.309	17.24
356.524	-230.57
356.74	299.86
356.955	-185.51
357.171	-11.43
357.386	189.27
357.602	-244.9
357.817	-167.08
358.033	-203.94
358.248	320.34
358.464	99.16
358.679	-167.08
358.895	-347.3
359.11	-40.11
359.325	281.43
359.541	107.35
359.756	-48.3
359.972	-328.87
360.187	123.73
360.402	-222.38
360.618	-134.31
360.833	1014.6
361.048	70.48
361.264	-130.22
361.479	-103.59
361.694	-1.19
361.909	172.88
362.125	-185.51
362.34	-156.84
362.555	123.73
362.77	29.52
362.986	-347.3
363.201	-255.14
363.416	176.98
363.631	86.87
363.847	-187.56
364.062	-144.55
364.277	224.08
364.492	41.81
364.707	-234.66
364.922	-464.04
365.138	250.71
365.353	240.47
365.568	-244.9
365.783	-154.79
365.998	33.62
366.213	529.23
366.428	-261.29
366.643	-21.67
366.858	244.56
367.073	191.31
367.288	-142.5
367.503	-212.14
367.718	62.29
367.933	316.24
368.148	-296.1
368.363	-128.17
368.578	-79.02
368.793	373.58
369.008	-175.27
369.223	-216.23
369.438	131.92
369.653	387.92
369.868	-273.57
370.083	-218.28
370.298	50
370.513	373.58
370.728	27.48
370.943	-165.03
371.157	-179.37
371.372	557.9
371.587	-302.25
371.802	-273.57
372.017	127.83
372.232	484.17
372.446	-33.96
372.661	-304.29
372.876	181.07
373.091	107.35
373.306	-107.69
373.52	-226.47
373.735	-160.94
373.95	394.06
374.165	-138.41
374.379	-146.6
374.594	-179.37
374.809	58.2
375.023	-23.72
375.238	-193.7
375.453	222.03
375.667	-359.59
375.882	-156.84
376.097	-306.34
376.311	-70.83
376.526	-17.58
376.741	-318.63
376.955	78.68
377.17	478.03
377.384	486.22
377.599	-83.11
377.813	-287.91
378.028	633.68
378.242	205.65
378.457	-152.74
378.672	-363.69
378.886	95.06
379.101	-126.12
379.315	-296.1
379.53	-236.71
379.744	209.75
379.958	58.2
380.173	-130.22
380.387	-261.29
380.602	213.84
380.816	-158.89
381.031	-146.6
381.245	-89.26
381.459	176.98
381.674	2818.86
381.888	-99.5
382.103	115.54
382.317	-242.85
382.531	392.02
382.746	-79.02
382.96	-220.33
383.174	-173.22
383.388	467.79
383.603	58.2
383.817	-300.2
384.031	111.44
384.246	484.17
384.46	-62.63
384.674	222.03
384.888	2.9
385.103	50
385.317	-367.78
385.531	-150.7
385.745	291.66
385.959	265.04
386.174	-269.48
386.388	-226.47
386.602	11.09
386.816	-134.31
387.03	-76.97
387.244	-105.64
387.458	52.05
387.672	330.58
387.887	-330.92
388.101	-220.33
388.315	312.14
388.529	54.1
388.743	-285.86
388.957	-314.53
389.171	285.52
389.385	-212.14
389.599	-134.31
389.813	33.62
390.027	148.31
390.241	555.85
390.455	-89.26
390.669	-148.65
390.883	-101.55
391.097	324.43
391.311	9.05
391.525	-242.85
391.738	144.21
391.952	174.93
392.166	11.09
392.38	-205.99
392.594	150.36
392.808	324.43
393.022	-68.78
393.236	-124.07
393.449	160.59
393.663	103.25
393.877	-275.62
394.091	-91.31
394.305	-148.65
394.518	-97.45
394.732	-351.4
394.946	-175.27
395.16	416.59
395.373	136.02
395.587	-310.44
395.801	-224.42
396.015	248.66
396.228	127.83
396.442	-265.38
396.656	-343.21
396.869	228.18
397.083	469.84
397.297	-154.79
397.51	-185.51
397.724	283.47
397.938	133.97
398.151	-382.12
398.365	-371.88
398.578	234.32
398.792	324.43
399.005	-56.49
399.219	-201.9
399.433	66.39
399.646	142.16
399.86	-46.25
400.073	-7.34
400.287	72.53
400.5	-11.43
400.714	-46.25
400.927	-111.78
401.141	211.79
401.354	961.35
401.567	93.01
401.781	-289.96
401.994	234.32
402.208	623.44
402.421	-126.12
402.635	-169.13
402.848	-56.49
403.061	238.42
403.275	-93.35
403.488	-228.52
403.701	455.5
403.915	267.09
404.128	39.76
404.341	-138.41
404.555	254.8
404.768	-13.48
404.981	0.85
405.195	-220.33
405.408	381.78
405.621	252.75
405.834	-3.24
406.048	-253.09
406.261	381.78
406.474	392.02
406.687	-294.05
406.9	41.81
407.114	-95.4
407.327	219.99
407.54	-263.33
407.753	-289.96
407.966	-154.79
408.179	148.31
408.392	-263.33
408.605	-375.97
408.819	84.82
409.032	150.36
409.245	-210.09
409.458	23.38
409.671	197.46
409.884	236.37
410.097	-310.44
410.31	-113.83
410.523	197.46
410.736	-33.96
410.949	-122.02
411.162	-105.64
411.375	377.68
411.588	314.19
411.801	-72.87
412.014	-212.14
412.227	-19.63
412.44	-93.35
412.653	-199.85
412.865	-101.55
413.078	242.51
413.291	217.94
413.504	-173.22
413.717	-195.75
413.93	164.69
414.143	-134.31
414.356	-208.04
414.568	-398.5
414.781	265.04
414.994	70.48
415.207	-40.11
415.42	-115.88
415.632	295.76
415.845	451.41
416.058	-388.26
416.271	-261.29
416.483	45.91
416.696	482.13
416.909	-179.37
417.121	-289.96
417.334	88.92
417.547	545.61
417.759	-187.56
417.972	-210.09
418.185	-40.11
418.397	250.71
418.61	-269.48
418.823	-201.9
419.035	389.97
419.248	-15.53
419.46	-138.41
419.673	-76.97
419.885	148.31
420.098	-107.69
420.311	-218.28
420.523	-447.65
420.736	156.5
420.948	4.95
421.161	-183.46
421.373	-445.6
421.586	86.87
421.798	-156.84
422.01	-373.92
422.223	-40.11
422.435	-130.22
422.648	236.37
422.86	-242.85
423.073	-255.14
423.285	209.75
423.497	-218.28
423.71	-236.71
423.922	-218.28
424.134	154.45
424.347	432.97
424.559	21.33
424.771	47.96
424.984	-7.34
425.196	176.98
425.408	-386.21
425.621	-363.69
425.833	289.62
426.045	299.86
426.257	-347.3
426.47	-251.05
426.682	140.12
426.894	181.07
427.106	-212.14
427.318	-152.74
427.531	-95.4
427.743	295.76
427.955	-261.29
428.167	179.03
428.379	107.35
428.591	58.2
428.804	-64.68
429.016	-306.34
429.228	-70.83
429.44	78.68
429.652	17.24
429.864	-310.44
430.076	37.72
430.288	23.38
430.5	-191.66
430.712	-197.8
430.924	273.23
431.136	66.39
431.348	-433.32
431.56	-279.72
431.772	-15.53
431.984	-66.73
432.196	-277.67
432.408	-263.33
432.62	-105.64
432.832	111.44
433.044	86.87
433.256	-138.41
433.468	230.23
433.679	-384.16
433.891	-300.2
434.103	-7.34
434.315	353.1
434.527	125.78
434.739	-162.98
434.95	-169.13
435.162	170.83
435.374	-136.36
435.586	-199.85
435.798	-218.28
436.009	-320.68
436.221	-40.11
436.433	-230.57
436.645	-183.46
436.856	-117.93
437.068	213.84
437.28	-259.24
437.491	60.24
437.703	39.76
437.915	103.25
438.126	-109.74
438.338	119.64
438.55	-29.87
438.761	107.35
438.973	-175.27
439.184	-205.99
439.396	-33.96
439.608	154.45
439.819	-318.63
440.031	-74.92
440.242	207.7
440.454	203.6
440.665	-109.74
440.877	-66.73
441.088	115.54
441.3	-91.31
441.511	-396.45
441.723	-302.25
441.934	146.26
442.146	-15.53
442.357	-85.16
442.569	144.21
442.78	11.09
442.991	437.07
443.203	90.96
443.414	-345.25
443.626	420.69
443.837	-95.4
444.048	-255.14
444.26	-322.73
444.471	78.68
444.682	199.51
444.894	-449.7
445.105	-384.16
445.316	201.55
445.528	154.45
445.739	-130.22
445.95	-128.17
446.161	131.92
446.373	217.94
446.584	-146.6
446.795	-226.47
447.006	199.51
447.217	336.72
447.429	-455.84
447.64	-308.39
447.851	385.87
448.062	4.95
448.273	-367.78
448.484	-218.28
448.695	199.51
448.907	-72.87
449.118	-117.93
449.329	31.57
449.54	-183.46
449.751	-203.94
449.962	-328.87
450.173	-232.62
450.384	306
450.595	330.58
450.806	-212.14
451.017	-175.27
451.228	240.47
451.439	310.1
451.65	-144.55
451.861	-457.89
452.072	-261.29
452.283	-74.92
452.494	4.95
452.705	-212.14
452.915	346.96
453.126	99.16
453.337	-111.78
453.548	-275.62
453.759	168.79
453.97	516.94
454.181	117.59
454.391	-240.81
454.602	72.53
454.813	119.64
455.024	-189.61
455.235	-203.94
455.445	76.63
455.656	60.24
455.867	-56.49
456.078	-205.99
456.288	-93.35
456.499	119.64
456.71	-273.57
456.921	58.2
457.131	131.92
457.342	80.72
457.553	-158.89
457.763	-265.38
457.974	123.73
458.184	172.88
458.395	-277.67
458.606	-343.21
458.816	238.42
459.027	478.03
459.237	-162.98
459.448	-466.08
459.659	314.19
459.869	584.52
460.08	-402.6
460.29	-38.06
460.501	441.17
460.711	-105.64
460.922	-359.59
461.132	-306.34
461.343	701.26
461.553	-242.85
461.764	-351.4
461.974	-195.75
462.184	275.28
462.395	64.34
462.605	-191.66
462.816	-335.01
463.026	45.91
463.236	279.38
463.447	-324.77
463.657	-296.1
463.867	224.08
464.078	-54.44
464.288	-138.41
464.498	-244.9
464.709	-1.19
464.919	-66.73
465.129	-177.32
465.339	-300.2
465.55	164.69
465.76	199.51
465.97	-230.57
466.18	-269.48
466.391	303.95
466.601	80.72
466.811	-183.46
467.021	-337.06
467.231	62.29
467.441	299.86
467.651	-214.18
467.862	-439.46
468.072	-58.54
468.282	256.85
468.492	-255.14
468.702	-193.7
468.912	-36.01
469.122	508.75
469.332	-23.72
469.542	-267.43
469.752	197.46
469.962	-81.07
470.172	-337.06
470.382	-255.14
470.592	168.79
470.802	285.52
471.012	-156.84
471.222	-228.52
471.432	148.31
471.642	154.45
471.852	-130.22
472.062	-232.62
472.272	-140.46
472.482	-244.9
472.691	-396.45
472.901	-341.16
473.111	47.96
473.321	525.13
473.531	-302.25
473.741	-109.74
473.95	152.4
474.16	201.55
474.37	-228.52
474.58	-371.88
474.79	432.97
474.999	209.75
475.209	-341.16
475.419	-244.9
475.628	-56.49
475.838	357.2
476.048	-117.93
476.258	-429.22
476.467	291.66
476.677	-171.18
476.886	-27.82
477.096	-183.46
477.306	-85.16
477.515	320.34
477.725	-109.74
477.935	-222.38
478.144	340.82
478.354	-142.5
478.563	-208.04
478.773	-343.21
478.982	250.71
479.192	338.77
479.401	-103.59
479.611	-302.25
479.82	-122.02
480.03	45.91
480.239	-236.71
480.449	-361.64
480.658	435.02
480.868	-138.41
481.077	-58.54
481.287	-253.09
481.496	172.88
481.705	398.16
481.915	-9.39
482.124	43.86
482.333	70.48
482.543	369.49
482.752	-167.08
482.961	-300.2
483.171	205.65
483.38	11.09
483.589	-138.41
483.799	-283.81
484.008	-36.01
484.217	234.32
484.426	-281.77
484.636	-408.74
484.845	254.8
485.054	-255.14
485.263	62.29
485.472	-277.67
485.682	379.73
485.891	84.82
486.1	-308.39
486.309	-302.25
486.518	222.03
486.727	357.2
486.936	-328.87
487.146	-162.98
487.355	316.24
487.564	-244.9
487.773	-173.22
487.982	-269.48
488.191	-107.69
488.4	27.48
488.609	-193.7
488.818	-230.57
489.027	490.32
489.236	365.39
489.445	-179.37
489.654	-371.88
489.863	287.57
490.072	109.4
490.281	54.1
490.49	-218.28
490.698	332.62
490.907	318.29
491.116	-308.39
491.325	-384.16
491.534	385.87
491.743	101.2
491.952	-154.79
492.16	-146.6
492.369	154.45
492.578	236.37
492.787	-240.81
492.996	-400.55
493.204	-158.89
493.413	359.25
493.622	-445.6
493.831	-472.23
494.039	408.4
494.248	-365.73
494.457	-277.67
494.665	-359.59
494.874	224.08
495.083	553.8
495.291	-187.56
495.5	-390.31
495.709	160.59
495.917	76.63
496.126	-103.59
496.335	-287.91
496.543	-97.45
496.752	58.2
496.96	9.05
497.169	-416.93
497.377	-60.59
497.586	332.62
497.794	-48.3
498.003	-490.66
498.211	-42.15
498.42	459.6
498.628	-130.22
498.837	-261.29
499.045	121.68
499.254	109.4
499.462	-326.82
499.671	-302.25
499.879	418.64
500.087	285.52
500.296	-353.45
500.504	-238.76
500.713	29.52
500.921	562
501.129	-351.4
501.338	-294.05
501.546	125.78
501.754	7
501.962	-314.53
502.171	-306.34
502.379	131.92
502.587	426.83
502.795	-191.66
503.004	-203.94
503.212	-11.43
503.42	189.27
503.628	-249
503.837	-187.56
504.045	144.21
504.253	344.91
504.461	-244.9
504.669	-431.27
504.877	205.65
505.085	377.68
505.294	-404.64
505.502	-42.15
505.71	86.87
505.918	181.07
506.126	-373.92
506.334	-275.62
506.542	15.19
506.75	-29.87
506.958	-154.79
507.166	-283.81
507.374	-119.98
507.582	475.98
507.79	-228.52
507.998	-361.64
508.206	115.54
508.414	154.45
508.622	-292.01
508.83	-244.9
509.037	351.06
509.245	-68.78
509.453	-396.45
509.661	-363.69
509.869	215.89
510.077	-31.91
510.285	-81.07
510.492	-597.15
510.7	658.25
510.908	-64.68
511.116	-162.98
511.324	-269.48
511.531	-40.11
511.739	41.81
511.947	-146.6
512.155	-38.06
512.362	107.35
512.57	-265.38
512.778	-373.92
512.985	-457.89
513.193	230.23
513.401	357.2
513.608	-208.04
513.816	-332.97
514.024	156.5
514.231	320.34
514.439	-373.92
514.646	-261.29
514.854	164.69
515.061	267.09
515.269	-240.81
515.477	-257.19
515.684	-269.48
515.892	283.47
516.099	-425.12
516.307	-384.16
516.514	265.04
516.722	371.54
516.929	-386.21
517.136	-367.78
517.344	277.33
517.551	64.34
517.759	-277.67
517.966	-337.06
518.173	13.14
518.381	74.58
518.588	-216.23
518.796	-359.59
519.003	189.27
519.21	90.96
519.418	-257.19
519.625	13.14
519.832	-83.11
520.039	45.91
520.247	-416.93
520.454	-257.19
520.661	217.94
520.868	140.12
521.076	-265.38
521.283	-249
521.49	631.63
521.697	138.07
521.904	-246.95
522.112	-296.1
522.319	244.56
522.526	189.27
522.733	-330.92
522.94	-359.59
523.147	68.44
523.354	289.62
523.561	-482.47
523.768	-226.47
523.975	336.72
524.183	60.24
524.39	-224.42
524.597	-388.26
524.804	45.91
525.011	-175.27
525.218	-287.91
525.425	-251.05
525.632	324.43
525.838	-122.02
526.045	-267.43
526.252	-341.16
526.459	1141.57
526.666	854.86
526.873	-316.58
527.08	-257.19
527.287	306
527.494	172.88
527.701	-482.47
527.907	-396.45
528.114	166.74
528.321	76.63
528.528	-263.33
528.735	-277.67
528.941	-177.32
529.148	-142.5
529.355	-148.65
529.562	-351.4
529.768	394.06
529.975	-56.49
530.182	-205.99
530.388	-347.3
530.595	265.04
530.802	-281.77
531.008	-64.68
531.215	-271.53
531.422	349.01
531.628	721.74
531.835	-199.85
532.042	-199.85
532.248	-150.7
532.455	82.77
532.661	-173.22
532.868	-312.49
533.074	39.76
533.281	283.47
533.487	-265.38
533.694	-357.54
533.9	-226.47
534.107	97.11
534.313	-314.53
534.52	-443.56
534.726	230.23
534.933	445.26
535.139	-355.49
535.345	-382.12
535.552	142.16
535.758	119.64
535.965	-255.14
536.171	-257.19
536.377	219.99
536.584	316.24
536.79	-277.67
536.996	-249
537.203	117.59
537.409	197.46
537.615	-234.66
537.821	-115.88
538.028	140.12
538.234	248.66
538.44	-259.24
538.646	-167.08
538.853	160.59
539.059	-93.35
539.265	142.16
539.471	-509.09
539.677	207.7
539.883	-21.67
540.09	-277.67
540.296	199.51
540.502	-42.15
540.708	-160.94
540.914	-128.17
541.12	-314.53
541.326	62.29
541.532	-13.48
541.738	-160.94
541.944	-224.42
542.15	222.03
542.356	-48.3
542.562	-322.73
542.768	-261.29
542.974	553.8
543.18	541.52
543.386	-273.57
543.592	-445.6
543.798	324.43
544.004	365.39
544.21	-326.82
544.415	-236.71
544.621	125.78
544.827	340.82
545.033	-367.78
545.239	-81.07
545.445	-203.94
545.651	111.44
545.856	-335.01
546.062	-277.67
546.268	-83.11
546.474	-87.21
546.679	-228.52
546.885	-175.27
547.091	-101.55
547.297	494.41
547.502	-228.52
547.708	-410.79
547.914	-126.12
548.119	144.21
548.325	-312.49
548.531	-416.93
548.736	441.17
548.942	-87.21
549.147	-292.01
549.353	-15.53
549.559	287.57
549.764	166.74
549.97	-265.38
550.175	-304.29
550.381	181.07
550.586	-60.59
550.792	-193.7
550.997	-212.14
551.203	142.16
551.408	136.02
551.614	-412.84
551.819	-343.21
552.025	457.55
552.23	443.21
552.435	-343.21
552.641	-48.3
552.846	-158.89
553.052	318.29
553.257	-150.7
553.462	-320.68
553.668	-99.5
553.873	291.66
554.078	-275.62
554.283	-316.58
554.489	86.87
554.694	-27.82
554.899	-404.64
555.105	-117.93
555.31	113.49
555.515	168.79
555.72	-191.66
555.925	-365.73
556.131	183.12
556.336	-46.25
556.541	-283.81
556.746	-361.64
556.951	308.05
557.156	408.4
557.361	-169.13
557.567	-158.89
557.772	564.04
557.977	176.98
558.182	-294.05
558.387	-279.72
558.592	-72.87
558.797	355.15
559.002	-210.09
559.207	-134.31
559.412	21.33
559.617	471.89
559.822	-216.23
560.027	-363.69
560.232	74.58
560.437	289.62
560.642	-412.84
560.847	-367.78
561.051	95.06
561.256	121.68
561.461	-240.81
561.666	-412.84
561.871	-19.63
562.076	211.79
562.281	-220.33
562.485	-375.97
562.69	283.47
562.895	222.03
563.1	-154.79
563.305	-306.34
563.509	297.81
563.714	500.56
563.919	-275.62
564.123	-271.53
564.328	-72.87
564.533	328.53
564.737	-220.33
564.942	-242.85
565.147	402.26
565.351	574.28
565.556	-165.03
565.761	-222.38
565.965	142.16
566.17	-171.18
566.374	-171.18
566.579	-406.69
566.784	47.96
566.988	-23.72
567.193	-402.6
567.397	-273.57
567.602	-265.38
567.806	-81.07
568.011	-283.81
568.215	-316.58
568.42	-117.93
568.624	-79.02
568.828	-242.85
569.033	-101.55
569.237	107.35
569.442	191.31
569.646	-316.58
569.85	-187.56
570.055	-83.11
570.259	62.29
570.463	-81.07
570.668	-218.28
570.872	25.43
571.076	25.43
571.281	-44.2
571.485	-146.6
571.689	39.76
571.893	164.69
572.098	-91.31
572.302	-294.05
572.506	140.12
572.71	70.48
572.914	-251.05
573.119	-328.87
573.323	377.68
573.527	396.11
573.731	-310.44
573.935	-251.05
574.139	70.48
574.343	-122.02
574.547	-240.81
574.751	-240.81
574.955	394.06
575.159	277.33
575.364	-285.86
575.568	-388.26
575.772	45.91
575.976	222.03
576.18	-310.44
576.383	-490.66
576.587	265.04
576.791	191.31
576.995	-435.36
577.199	-472.23
577.403	160.59
577.607	281.43
577.811	-316.58
578.015	-232.62
578.219	107.35
578.422	168.79
578.626	-126.12
578.83	-95.4
579.034	324.43
579.238	70.48
579.442	-261.29
579.645	72.53
579.849	-1.19
580.053	74.58
580.257	-240.81
580.46	-179.37
580.664	197.46
580.868	150.36
581.071	-103.59
581.275	-64.68
581.479	-193.7
581.682	213.84
581.886	-283.81
582.09	-179.37
582.293	164.69
582.497	320.34
582.7	-76.97
582.904	-365.73
583.107	43.86
583.311	-11.43
583.515	-130.22
583.718	-185.51
583.922	207.7
584.125	498.51
584.329	-289.96
584.532	-119.98
584.735	353.1
584.939	123.73
585.142	-347.3
585.346	-306.34
585.549	172.88
585.753	-130.22
585.956	-236.71
586.159	-130.22
586.363	484.17
586.566	144.21
586.769	-240.81
586.973	-326.82
587.176	125.78
587.379	273.23
587.582	45.91
587.786	-15.53
587.989	-36.01
588.192	686.92
588.395	-183.46
588.599	37.72
588.802	160.59
589.005	152.4
589.208	-187.56
589.411	-232.62
589.615	275.28
589.818	523.09
590.021	7
590.224	-132.26
590.427	271.19
590.63	260.95
590.833	-443.56
591.036	-259.24
591.239	-97.45
591.442	-40.11
591.645	-29.87
591.848	-310.44
592.051	84.82
592.254	262.99
592.457	-214.18
592.66	-152.74
592.863	-3.24
593.066	158.55
593.269	-185.51
593.472	-179.37
593.675	-154.79
593.878	328.53
594.081	-115.88
594.284	-343.21
594.486	258.9
594.689	27.48
594.892	-64.68
595.095	-191.66
595.298	146.26
595.5	-74.92
595.703	-103.59
595.906	-79.02
596.109	349.01
596.311	322.38
596.514	-431.27
596.717	-214.18
596.92	295.76
597.122	252.75
597.325	-416.93
597.528	-257.19
597.73	359.25
597.933	115.54
598.136	-332.97
598.338	-468.13
598.541	185.17
598.743	330.58
598.946	-244.9
599.148	-181.42
599.351	373.58
599.554	238.42
599.756	-179.37
599.959	-154.79
600.161	306
600.363	611.15
600.566	25.43
600.768	-228.52
600.971	553.8
601.173	271.19
601.376	-222.38
601.578	-261.29
601.78	142.16
601.983	650.06
602.185	-253.09
602.388	-56.49
602.59	111.44
602.792	45.91
602.995	31.57
603.197	-148.65
603.399	254.8
603.601	129.88
603.804	-171.18
604.006	-183.46
604.208	13.14
604.41	-238.76
604.613	-52.39
604.815	-238.76
605.017	609.1
605.219	-89.26
605.421	123.73
605.623	-236.71
605.826	316.24
606.028	455.5
606.23	-224.42
606.432	-210.09
606.634	473.93
606.836	416.59
607.038	-300.2
607.24	-95.4
607.442	58.2
607.644	52.05
607.846	-89.26
608.048	-289.96
608.25	394.06
608.452	-85.16
608.654	-115.88
608.856	-384.16
609.058	-48.3
609.26	258.9
609.462	-60.59
609.664	-162.98
609.866	541.52
610.067	316.24
610.269	-29.87
610.471	-162.98
610.673	15.19
610.875	293.71
611.077	-289.96
611.278	-44.2
611.48	111.44
611.682	492.37
611.884	-134.31
612.085	-87.21
612.287	-171.18
612.489	260.95
612.69	-341.16
612.892	-169.13
613.094	351.06
613.295	224.08
613.497	-281.77
613.699	-109.74
613.9	428.88
614.102	322.38
614.304	-154.79
614.505	-330.92
614.707	90.96
614.908	90.96
615.11	-371.88
615.311	-124.07
615.513	320.34
615.714	312.14
615.916	-269.48
616.117	-101.55
616.319	60.24
616.52	252.75
616.722	-226.47
616.923	-171.18
617.124	324.43
617.326	336.72
617.527	-66.73
617.729	-40.11
617.93	219.99
618.131	287.57
618.333	-171.18
618.534	-167.08
618.735	-91.31
618.937	504.65
619.138	-318.63
619.339	-300.2
619.54	258.9
619.742	41.81
619.943	0.85
620.144	-201.9
620.345	324.43
620.546	363.34
620.748	-261.29
620.949	-185.51
621.15	68.44
621.351	189.27
621.552	-169.13
621.753	-357.54
621.954	-285.86
622.155	598.86
622.356	-240.81
622.558	45.91
622.759	-7.34
622.96	547.66
623.161	-128.17
623.362	-162.98
623.563	58.2
623.764	172.88
623.965	-158.89
624.166	-11.43
624.366	4.95
624.567	181.07
624.768	-474.28
624.969	-218.28
625.17	156.5
625.371	299.86
625.572	-31.91
625.773	-275.62
625.973	291.66
626.174	361.3
626.375	-117.93
626.576	-58.54
626.777	349.01
626.977	621.39
627.178	-216.23
627.379	-52.39
627.58	47.96
627.78	131.92
627.981	-74.92
628.182	9.05
628.382	418.64
628.583	-158.89
628.784	-167.08
628.984	-44.2
629.185	271.19
629.386	389.97
629.586	-17.58
629.787	-279.72
629.987	199.51
630.188	62.29
630.388	-117.93
630.589	-87.21
630.79	707.4
630.99	170.83
631.191	-64.68
631.391	-27.82
631.591	281.43
631.792	500.56
631.992	37.72
632.193	-48.3
632.393	529.23
632.594	121.68
632.794	-138.41
632.994	-7.34
633.195	119.64
633.395	99.16
633.595	-218.28
633.796	131.92
633.996	-128.17
634.196	478.03
634.397	-275.62
634.597	-56.49
634.797	-60.59
634.997	484.17
635.198	105.3
635.398	-203.94
635.598	166.74
635.798	516.94
635.998	301.9
636.199	-271.53
636.399	-15.53
636.599	-68.78
636.799	-144.55
636.999	99.16
637.199	328.53
637.399	402.26
637.599	-165.03
637.799	0.85
637.999	50
638.199	453.45
638.399	-226.47
638.599	-113.83
638.799	389.97
638.999	541.52
639.199	50
639.399	17.24
639.599	490.32
639.799	-54.44
639.999	-97.45
640.199	-212.14
640.399	236.37
640.599	252.75
640.799	4.95
640.998	76.63
641.198	422.73
641.398	295.76
641.598	13.14
641.798	-181.42
641.997	1057.61
642.197	140.12
642.397	-56.49
642.597	-99.5
642.796	312.14
642.996	488.27
643.196	86.87
643.395	-218.28
643.595	240.47
643.795	-236.71
643.994	-40.11
644.194	-48.3
644.394	297.81
644.593	205.65
644.793	-220.33
644.992	25.43
645.192	258.9
645.392	-261.29
645.591	19.29
645.791	-3.24
645.99	275.28
646.19	158.55
646.389	-60.59
646.589	-48.3
646.788	291.66
646.987	324.43
647.187	316.24
647.386	90.96
647.586	125.78
647.785	359.25
647.984	74.58
648.184	19.29
648.383	127.83
648.582	105.3
648.782	11.09
648.981	113.49
649.18	25.43
649.38	279.38
649.579	-31.91
649.778	-95.4
649.977	336.72
650.177	275.28
650.376	-134.31
650.575	-111.78
650.774	541.52
650.973	25.43
651.173	-212.14
651.372	47.96
651.571	215.89
651.77	398.16
651.969	-31.91
652.168	52.05
652.367	-76.97
652.566	217.94
652.765	-64.68
652.964	230.23
653.163	668.49
653.362	154.45
653.561	-201.9
653.76	-68.78
653.959	140.12
654.158	373.58
654.357	181.07
654.556	33.62
654.755	295.76
654.954	318.29
655.153	-29.87
655.352	15.19
655.551	459.6
655.749	-13.48
655.948	74.58
656.147	66.39
656.346	312.14
656.545	215.89
656.743	-13.48
656.942	35.67
657.141	228.18
657.34	-54.44
657.538	-3.24
657.737	-19.63
657.936	27.48
658.135	324.43
658.333	-68.78
658.532	111.44
658.731	656.2
658.929	420.69
659.128	232.27
659.326	-40.11
659.525	633.68
659.724	136.02
659.922	-246.95
660.121	-142.5
660.319	209.75
660.518	-40.11
660.716	-136.36
660.915	-76.97
661.113	510.8
661.312	-136.36
661.51	119.64
661.709	-117.93
661.907	269.14
662.105	547.66
662.304	41.81
662.502	25.43
662.701	529.23
662.899	90.96
663.097	338.77
663.296	-208.04
663.494	375.63
663.692	609.1
663.891	-93.35
664.089	-113.83
664.287	267.09
664.485	625.48
664.684	-138.41
664.882	43.86
665.08	252.75
665.278	273.23
665.476	-210.09
665.675	291.66
665.873	756.55
666.071	478.03
666.269	-68.78
666.467	258.9
666.665	262.99
666.863	191.31
667.061	201.55
667.259	-42.15
667.457	164.69
667.655	320.34
667.853	-79.02
668.051	150.36
668.249	31.57
668.447	316.24
668.645	-72.87
668.843	187.22
669.041	324.43
669.239	123.73
669.437	148.31
669.635	168.79
669.833	197.46
670.031	441.17
670.229	123.73
670.426	82.77
670.624	152.4
670.822	50
671.02	45.91
671.218	-3.24
671.415	2.9
671.613	338.77
671.811	74.58
672.009	-17.58
672.206	488.27
672.404	172.88
672.602	275.28
672.799	133.97
672.997	363.34
673.195	570.19
673.392	183.12
673.59	-23.72
673.788	463.69
673.985	-259.24
674.183	70.48
674.38	-7.34
674.578	467.79
674.775	99.16
674.973	-44.2
675.17	-58.54
675.368	664.4
675.565	414.54
675.763	-33.96
675.96	-15.53
676.158	596.81
676.355	152.4
676.553	33.62
676.75	41.81
676.947	277.33
677.145	189.27
677.342	148.31
677.539	142.16
677.737	342.86
677.934	738.12
678.131	217.94
678.329	45.91
678.526	725.83
678.723	416.59
678.92	101.2
679.118	97.11
679.315	13.14
679.512	615.24
679.709	146.26
679.906	93.01
680.104	658.25
680.301	316.24
680.498	-60.59
680.695	-19.63
680.892	35.67
681.089	191.31
681.286	74.58
681.483	-111.78
681.68	426.83
681.877	535.37
682.075	88.92
682.272	271.19
682.469	342.86
682.665	119.64
682.862	-3.24
683.059	-79.02
683.256	371.54
683.453	238.42
683.65	197.46
683.847	86.87
684.044	320.34
684.241	52.05
684.438	244.56
684.635	4.95
684.831	701.26
685.028	682.83
685.225	45.91
685.422	262.99
685.619	250.71
685.815	283.47
686.012	148.31
686.209	121.68
686.405	25.43
686.602	457.55
686.799	-105.64
686.996	-7.34
687.192	23.38
687.389	832.33
687.586	29.52
687.782	84.82
687.979	688.97
688.175	529.23
688.372	162.64
688.568	64.34
688.765	250.71
688.962	631.63
689.158	211.79
689.355	-46.25
689.551	510.8
689.748	144.21
689.944	222.03
690.14	-7.34
690.337	570.19
690.533	205.65
690.73	303.95
690.926	119.64
691.123	570.19
691.319	279.38
691.515	17.24
691.712	236.37
691.908	537.42
692.104	398.16
692.301	308.05
692.497	-50.35
692.693	500.56
692.889	516.94
693.086	250.71
693.282	-74.92
693.478	332.62
693.674	801.61
693.87	117.59
694.067	11.09
694.263	369.49
694.459	205.65
694.655	426.83
694.851	119.64
695.047	445.26
695.243	523.09
695.439	330.58
695.635	62.29
695.831	494.41
696.027	416.59
696.224	43.86
696.42	449.36
696.615	635.72
696.811	469.84
697.007	-54.44
697.203	131.92
697.399	516.94
697.595	666.44
697.791	33.62
697.987	283.47
698.183	58.2
698.379	174.93
698.575	195.41
698.77	156.5
698.966	488.27
699.162	607.05
699.358	185.17
699.554	152.4
699.749	478.03
699.945	480.08
700.141	269.14
700.337	273.23
700.532	349.01
700.728	148.31
700.924	58.2
701.119	-5.29
701.315	418.64
701.511	383.82
701.706	283.47
701.902	-3.24
702.097	324.43
702.293	455.5
702.489	262.99
702.684	148.31
702.88	373.58
703.075	303.95
703.271	172.88
703.466	31.57
703.662	353.1
703.857	490.32
704.053	140.12
704.248	90.96
704.443	566.09
704.639	531.28
704.834	189.27
705.03	88.92
705.225	592.72
705.42	643.92
705.616	271.19
705.811	7
706.006	281.43
706.202	308.05
706.397	217.94
706.592	-42.15
706.787	471.89
706.983	441.17
707.178	414.54
707.373	240.47
707.568	619.34
707.763	650.06
707.959	146.26
708.154	86.87
708.349	512.85
708.544	492.37
708.739	416.59
708.934	11.09
709.129	559.95
709.324	666.44
709.519	129.88
709.714	43.86
709.909	674.64
710.104	545.61
710.299	217.94
710.494	193.36
710.689	633.68
710.884	410.45
711.079	246.61
711.274	400.21
711.469	484.17
711.664	553.8
711.859	144.21
712.054	254.8
712.249	600.91
712.443	693.07
712.638	50
712.833	129.88
713.028	338.77
713.223	363.34
713.417	451.41
713.612	164.69
713.807	594.76
714.002	1006.41
714.196	324.43
714.391	131.92
714.586	643.92
714.78	320.34
714.975	262.99
715.17	121.68
715.364	232.27
715.559	635.72
715.754	-85.16
715.948	140.12
716.143	910.15
716.337	480.08
716.532	449.36
716.726	187.22
716.921	594.76
717.115	852.81
717.31	7
717.504	695.11
717.699	338.77
717.893	758.6
718.088	125.78
718.282	123.73
718.476	486.22
718.671	525.13
718.865	287.57
719.059	228.18
719.254	463.69
719.448	801.61
719.642	1622.84
719.837	35.67
720.031	648.01
720.225	787.27
720.419	281.43
720.614	107.35
720.808	641.87
721.002	457.55
721.196	228.18
721.39	183.12
721.585	766.79
721.779	549.71
721.973	328.53
722.167	86.87
722.361	584.52
722.555	729.93
722.749	209.75
722.943	183.12
723.137	275.28
723.331	600.91
723.525	240.47
723.719	213.84
723.913	643.92
724.107	908.1
724.301	82.77
724.495	275.28
724.689	895.82
724.883	813.9
725.077	285.52
725.271	193.36
725.465	688.97
725.659	410.45
725.853	262.99
726.046	99.16
726.24	414.54
726.434	725.83
726.628	222.03
726.822	361.3
727.015	754.51
727.209	795.47
727.403	209.75
727.596	172.88
727.79	674.64
727.984	566.09
728.177	254.8
728.371	275.28
728.565	721.74
728.758	207.7
728.952	148.31
729.146	281.43
729.339	750.41
729.533	406.35
729.726	279.38
729.92	242.51
730.113	838.47
730.307	615.24
730.5	330.58
730.694	168.79
730.887	455.5
731.081	586.57
731.274	219.99
731.468	222.03
731.661	469.84
731.854	473.93
732.048	258.9
732.241	189.27
732.435	389.97
732.628	521.04
732.821	262.99
733.014	144.21
733.208	199.51
733.401	731.98
733.594	279.38
733.788	248.66
733.981	750.41
734.174	541.52
734.367	230.23
734.56	260.95
734.754	723.79
734.947	455.5
735.14	314.19
735.333	277.33
735.526	576.33
735.719	336.72
735.912	187.22
736.105	105.3
736.298	625.48
736.491	342.86
736.684	234.32
736.877	222.03
737.07	570.19
737.263	832.33
737.456	326.48
737.649	211.79
737.842	396.11
738.035	559.95
738.228	435.02
738.421	459.6
738.614	781.13
738.807	756.55
739	131.92
739.192	246.61
739.385	627.53
739.578	639.82
739.771	504.65
739.964	267.09
740.156	672.59
740.349	562
740.542	557.9
740.735	140.12
740.927	252.75
741.12	291.66
741.313	115.54
741.505	330.58
741.698	584.52
741.891	676.68
742.083	469.84
742.276	293.71
742.468	514.89
742.661	510.8
742.854	435.02
743.046	299.86
743.239	934.73
743.431	510.8
743.624	424.78
743.816	90.96
744.009	363.34
744.201	756.55
744.393	469.84
744.586	160.59
744.778	889.67
744.971	531.28
745.163	367.44
745.355	478.03
745.548	619.34
745.74	537.42
745.932	385.87
746.125	291.66
746.317	1049.41
746.509	709.45
746.702	355.15
746.894	381.78
747.086	721.74
747.278	836.42
747.471	467.79
747.663	490.32
747.855	574.28
748.047	969.54
748.239	262.99
748.431	279.38
748.623	951.11
748.815	992.07
749.008	176.98
749.2	246.61
749.392	719.69
749.584	656.2
749.776	455.5
749.968	467.79
750.16	1067.85
750.352	545.61
750.544	435.02
750.736	232.27
750.928	736.07
751.12	545.61
751.311	353.1
751.503	359.25
751.695	652.11
751.887	580.43
752.079	146.26
752.271	426.83
752.463	1309.51
752.654	791.37
752.846	389.97
753.038	246.61
753.23	486.22
753.421	795.47
753.613	373.58
753.805	629.58
753.997	807.75
754.188	803.66
754.38	277.33
754.572	398.16
754.763	527.18
754.955	811.85
755.146	461.65
755.338	430.93
755.53	688.97
755.721	607.05
755.913	199.51
756.104	365.39
756.296	557.9
756.487	783.18
756.679	215.89
756.87	404.3
757.062	551.76
757.253	774.99
757.445	340.82
757.636	514.89
757.827	621.39
758.019	1178.44
758.21	267.09
758.401	371.54
758.593	1129.28
758.784	983.88
758.975	297.81
759.167	332.62
759.358	656.2
759.549	861
759.74	330.58
759.932	297.81
760.123	1047.37
760.314	475.98
760.505	465.74
760.696	349.01
760.888	1063.75
761.079	512.85
761.27	320.34
761.461	179.03
761.652	949.06
761.843	607.05
762.034	365.39
762.225	654.16
762.416	633.68
762.607	697.16
762.798	353.1
762.989	330.58
763.18	1305.41
763.371	576.33
763.562	379.73
763.753	361.3
763.944	867.14
764.135	781.13
764.326	527.18
764.517	295.76
764.708	764.75
764.899	852.81
765.089	400.21
765.28	332.62
765.471	615.24
765.662	834.38
765.853	451.41
766.043	330.58
766.234	744.27
766.425	832.33
766.615	469.84
766.806	242.51
766.997	848.71
767.187	723.79
767.378	385.87
767.569	236.37
767.759	813.9
767.95	678.73
768.141	553.8
768.331	279.38
768.522	639.82
768.712	975.69
768.903	279.38
769.093	398.16
769.284	1047.37
769.474	742.22
769.665	131.92
769.855	283.47
770.046	893.77
770.236	611.15
770.426	658.25
770.617	373.58
770.807	807.75
770.998	596.81
771.188	635.72
771.378	246.61
771.569	826.18
771.759	836.42
771.949	344.91
772.139	160.59
772.33	672.59
772.52	1018.69
772.71	371.54
772.9	172.88
773.09	1110.85
773.281	992.07
773.471	357.2
773.661	441.17
773.851	795.47
774.041	551.76
774.231	260.95
774.421	541.52
774.611	1020.74
774.802	805.71
774.992	402.26
775.182	344.91
775.372	625.48
775.562	867.14
775.752	443.21
775.942	441.17
776.131	973.64
776.321	834.38
776.511	467.79
776.701	361.3
776.891	1028.93
777.081	402.26
777.271	525.13
777.461	346.96
777.651	975.69
777.84	992.07
778.03	549.71
778.22	320.34
778.41	990.02
778.599	455.5
778.789	521.04
778.979	377.68
779.169	799.56
779.358	715.59
779.548	742.22
779.738	293.71
779.927	672.59
780.117	486.22
780.307	461.65
780.496	84.82
780.686	783.18
780.875	1180.48
781.065	310.1
781.254	379.73
781.444	758.6
781.633	746.31
781.823	338.77
782.012	314.19
782.202	590.67
782.391	709.45
782.581	217.94
782.77	578.38
782.96	861
783.149	615.24
783.338	396.11
783.528	152.4
783.717	906.06
783.906	967.49
784.096	518.99
784.285	392.02
784.474	605
784.663	555.85
784.853	385.87
785.042	518.99
785.231	617.29
785.42	965.45
785.61	555.85
785.799	254.8
785.988	594.76
786.177	701.26
786.366	435.02
786.555	600.91
786.744	844.62
786.933	697.16
787.122	361.3
787.312	318.29
787.501	527.18
787.69	815.94
787.879	394.06
788.068	437.07
788.257	353.1
788.445	598.86
788.634	486.22
788.823	279.38
789.012	1395.52
789.201	1053.51
789.39	529.23
789.579	385.87
789.768	631.63
789.957	717.64
790.145	486.22
790.334	105.3
790.523	533.33
790.712	676.68
790.9	478.03
791.089	353.1
791.278	863.05
791.467	777.03
791.655	688.97
791.844	926.54
792.033	602.96
792.221	607.05
792.41	324.43
792.599	320.34
792.787	885.58
792.976	815.94
793.164	332.62
793.353	443.21
793.541	850.76
793.73	748.36
793.918	510.8
794.107	426.83
794.295	674.64
794.484	650.06
794.672	494.41
794.861	459.6
795.049	838.47
795.238	1117
795.426	312.14
795.614	525.13
795.803	820.04
795.991	1035.08
796.179	420.69
796.368	328.53
796.556	1037.13
796.744	492.37
796.932	389.97
797.121	373.58
797.309	670.54
797.497	959.3
797.685	488.27
797.874	426.83
798.062	668.49
798.25	1061.7
798.438	428.88
798.626	459.6
798.814	762.7
799.002	1319.75
799.19	684.87
799.378	480.08
799.566	1028.93
799.755	1151.81
799.943	625.48
800.131	451.41
800.318	809.8
800.506	879.43
800.694	387.92
800.882	594.76
801.07	1051.46
801.258	740.17
801.446	426.83
801.634	408.4
801.822	678.73
802.01	709.45
802.197	457.55
802.385	697.16
802.573	820.04
802.761	570.19
802.949	484.17
803.136	308.05
803.324	1028.93
803.512	697.16
803.699	557.9
803.887	322.38
804.075	998.21
804.262	695.11
804.45	265.04
804.638	557.9
804.825	498.51
805.013	664.4
805.201	562
805.388	377.68
805.576	820.04
805.763	1260.35
805.951	533.33
806.138	574.28
806.326	1215.3
806.513	942.92
806.701	527.18
806.888	432.97
807.075	940.87
807.263	1223.49
807.45	377.68
807.638	699.21
807.825	1166.15
808.012	1053.51
808.2	686.92
808.387	838.47
808.574	971.59
808.761	1231.68
808.949	443.21
809.136	623.44
809.323	746.31
809.51	672.59
809.698	889.67
809.885	672.59
810.072	969.54
810.259	947.01
810.446	678.73
810.633	521.04
810.82	1078.08
811.008	1176.39
811.195	723.79
811.382	615.24
811.569	721.74
811.756	582.48
811.943	672.59
812.13	533.33
812.317	650.06
812.504	801.61
812.691	721.74
812.878	680.78
813.064	1248.07
813.251	852.81
813.438	506.7
813.625	697.16
813.812	938.82
813.999	742.22
814.186	607.05
814.372	641.87
814.559	832.33
814.746	1182.53
814.933	668.49
815.12	742.22
815.306	746.31
815.493	660.3
815.68	518.99
815.866	713.55
816.053	1069.89
816.24	1289.03
816.426	652.11
816.613	498.51
816.799	1055.56
816.986	1172.29
817.173	621.39
817.359	643.92
817.546	1012.55
817.732	521.04
817.919	369.49
818.105	688.97
818.292	787.27
818.478	951.11
818.665	656.2
818.851	619.34
819.037	1325.89
819.224	901.96
819.41	496.46
819.597	557.9
819.783	1299.27
819.969	906.06
820.156	707.4
820.342	469.84
820.528	1672
820.714	865.1
820.901	871.24
821.087	486.22
821.273	1229.63
821.459	824.14
821.646	500.56
821.832	484.17
822.018	863.05
822.204	891.72
822.39	676.68
822.576	525.13
822.762	934.73
822.948	1024.84
823.134	789.32
823.32	629.58
823.507	639.82
823.693	922.44
823.879	1024.84
824.065	580.43
824.25	1006.41
824.436	625.48
824.622	574.28
824.808	443.21
824.994	791.37
825.18	707.4
825.366	639.82
825.552	656.2
825.738	742.22
825.923	1151.81
826.109	879.43
826.295	584.52
826.481	713.55
826.667	762.7
826.852	754.51
827.038	537.42
827.224	1088.32
827.409	1260.35
827.595	527.18
827.781	842.57
827.966	1061.7
828.152	1143.62
828.338	711.5
828.523	512.85
828.709	787.27
828.894	1203.01
829.08	602.96
829.266	594.76
829.451	725.83
829.637	1110.85
829.822	729.93
830.008	629.58
830.193	1235.78
830.378	1248.07
830.564	717.64
830.749	516.94
830.935	1143.62
831.12	1041.22
831.305	545.61
831.491	736.07
831.676	588.62
831.861	1055.56
832.047	713.55
832.232	504.65
832.417	1280.83
832.602	912.2
832.788	461.65
832.973	551.76
833.158	918.34
833.343	975.69
833.528	701.26
833.714	762.7
833.899	1108.8
834.084	1368.9
834.269	942.92
834.454	713.55
834.639	1094.47
834.824	928.58
835.009	783.18
835.194	846.66
835.379	1117
835.564	1350.46
835.749	852.81
835.934	523.09
836.119	1153.86
836.304	904.01
836.489	758.6
836.674	1016.65
836.859	693.07
837.044	1211.2
837.228	688.97
837.413	535.37
837.598	1002.31
837.783	1250.11
837.968	725.83
838.152	459.6
838.337	510.8
838.522	1184.58
838.707	1219.39
838.891	861
839.076	1086.28
839.261	1215.3
839.445	717.64
839.63	721.74
839.815	1350.46
839.999	887.62
840.184	664.4
840.368	621.39
840.553	1092.42
840.737	1143.62
840.922	559.95
841.106	611.15
841.291	631.63
841.475	965.45
841.66	656.2
841.844	674.64
842.029	1637.18
842.213	600.91
842.397	506.7
842.582	574.28
842.766	1254.21
842.951	1213.25
843.135	633.68
843.319	801.61
843.504	1049.41
843.688	1250.11
843.872	404.3
844.056	762.7
844.241	1114.95
844.425	936.78
844.609	983.88
844.793	594.76
844.977	1215.3
845.161	1090.37
845.346	551.76
845.53	611.15
845.714	1090.37
845.898	1430.34
846.082	543.57
846.266	625.48
846.45	973.64
846.634	1037.13
846.818	639.82
847.002	785.23
847.186	1082.18
847.37	729.93
847.554	564.04
847.738	680.78
847.922	1057.61
848.106	971.59
848.29	609.1
848.473	564.04
848.657	1145.67
848.841	963.4
849.025	731.98
849.209	533.33
849.392	1147.72
849.576	914.25
849.76	562
849.944	861
850.127	1264.45
850.311	674.64
850.495	668.49
850.678	596.81
850.862	1188.68
851.046	1344.32
851.229	932.68
851.413	609.1
851.596	932.68
851.78	910.15
851.964	811.85
852.147	764.75
852.331	1583.93
852.514	1256.26
852.698	770.89
852.881	664.4
853.065	1145.67
853.248	938.82
853.431	842.57
853.615	715.59
853.798	1436.48
853.982	1061.7
854.165	852.81
854.348	627.53
854.532	723.79
854.715	801.61
854.898	731.98
855.081	713.55
855.265	1170.24
855.448	1469.25
855.631	650.06
855.814	772.94
855.997	1207.11
856.181	904.01
856.364	783.18
856.547	535.37
856.73	1043.27
856.913	1080.13
857.096	498.51
857.279	725.83
857.462	813.9
857.645	1358.66
857.828	906.06
858.011	891.72
858.194	852.81
858.377	1157.96
858.56	566.09
858.743	744.27
858.926	781.13
859.109	1117
859.292	688.97
859.475	668.49
859.658	1149.76
859.841	1196.87
860.023	500.56
860.206	582.48
860.389	1096.52
860.572	1303.36
860.755	721.74
860.937	621.39
861.12	965.45
861.303	910.15
861.486	697.16
861.668	590.67
861.851	1153.86
862.034	1014.6
862.216	901.96
862.399	500.56
862.581	1088.32
862.764	1399.62
862.947	781.13
863.129	564.04
863.312	734.03
863.494	1303.36
863.677	1067.85
863.859	506.7
864.042	1217.35
864.224	1286.98
864.406	717.64
864.589	514.89
864.771	1248.07
864.954	820.04
865.136	602.96
865.318	510.8
865.501	1151.81
865.683	576.33
865.865	715.59
866.048	783.18
866.23	1037.13
866.412	953.16
866.594	564.04
866.777	910.15
866.959	1127.24
867.141	801.61
867.323	940.87
867.505	811.85
867.687	994.12
867.869	1047.37
868.052	701.26
868.234	609.1
868.416	979.78
868.598	1061.7
868.78	645.96
868.962	566.09
869.144	1231.68
869.326	1076.04
869.508	688.97
869.69	549.71
869.872	709.45
870.054	1338.18
870.236	600.91
870.417	586.57
870.599	928.58
870.781	1348.42
870.963	844.62
871.145	594.76
871.327	705.35
871.508	1055.56
871.69	684.87
871.872	766.79
872.054	979.78
872.235	1188.68
872.417	756.55
872.599	570.19
872.78	1360.7
872.962	1117
873.144	637.77
873.325	727.88
873.507	1262.4
873.689	1082.18
873.87	635.72
874.052	985.93
874.233	1065.8
874.415	1213.25
874.596	752.46
874.778	707.4
874.959	1033.03
875.141	1157.96
875.322	615.24
875.503	723.79
875.685	1133.38
875.866	637.77
876.048	641.87
876.229	627.53
876.41	994.12
876.592	979.78
876.773	668.49
876.954	545.61
877.136	1327.94
877.317	871.24
877.498	486.22
877.679	721.74
877.86	1114.95
878.042	1051.46
878.223	666.44
878.404	1127.24
878.585	1102.66
878.766	1416
878.947	961.35
879.128	947.01
879.309	1192.77
879.49	1233.73
879.672	768.84
879.853	717.64
880.034	727.88
880.215	934.73
880.396	752.46
880.576	701.26
880.757	871.24
880.938	1393.47
881.119	703.31
881.3	656.2
881.481	895.82
881.662	1815.35
881.843	666.44
882.023	615.24
882.204	1137.48
882.385	1086.28
882.566	695.11
882.747	729.93
882.927	994.12
883.108	1098.56
883.289	652.11
883.469	1016.65
883.65	889.67
883.831	1129.28
884.011	940.87
884.192	711.5
884.373	1184.58
884.553	1137.48
884.734	908.1
884.914	1010.5
885.095	1690.43
885.275	1536.83
885.456	1108.8
885.636	621.39
885.817	971.59
885.997	1102.66
886.178	752.46
886.358	877.38
886.538	1151.81
886.719	2044.73
886.899	766.79
887.08	856.9
887.26	1223.49
887.44	856.9
887.621	670.54
887.801	940.87
887.981	1696.57
888.161	1248.07
888.342	869.19
888.522	926.54
888.702	1397.57
888.882	1409.86
889.062	1024.84
889.242	693.07
889.423	1442.62
889.603	1272.64
889.783	1006.41
889.963	805.71
890.143	1262.4
890.323	1411.9
890.503	844.62
890.683	891.72
890.863	1266.5
891.043	1233.73
891.223	1045.32
891.403	1110.85
891.583	1078.08
891.763	1231.68
891.943	910.15
892.122	770.89
892.302	1188.68
892.482	1016.65
892.662	1057.61
892.842	828.23
893.022	1293.12
893.201	1053.51
893.381	1067.85
893.561	811.85
893.741	1471.29
893.92	1325.89
894.1	981.83
894.28	1071.94
894.459	1389.38
894.639	1305.41
894.819	875.34
894.998	1043.27
895.178	1229.63
895.357	1227.59
895.537	877.38
895.716	715.59
895.896	1301.31
896.075	1454.91
896.255	975.69
896.434	766.79
896.614	1442.62
896.793	1524.54
896.973	1059.65
897.152	1043.27
897.331	1268.55
897.511	1344.32
897.69	734.03
897.87	1037.13
898.049	1360.7
898.228	1172.29
898.407	1078.08
898.587	1125.19
898.766	1092.42
898.945	1395.52
899.124	1248.07
899.304	1069.89
899.483	1375.04
899.662	1696.57
899.841	922.44
900.02	959.3
900.199	1454.91
900.378	1246.02
900.557	895.82
900.737	815.94
900.916	1313.6
901.095	1434.43
901.274	1289.03
901.453	873.29
901.632	1000.26
901.811	994.12
901.989	936.78
902.168	879.43
902.347	1387.33
902.526	1155.91
902.705	977.73
902.884	1166.15
903.063	1430.34
903.242	1508.16
903.42	889.67
903.599	1110.85
903.778	1499.97
903.957	1602.36
904.135	1186.63
904.314	1022.79
904.493	1297.22
904.672	1389.38
904.85	979.78
905.029	1008.45
905.207	1372.99
905.386	1844.03
905.565	863.05
905.743	983.88
905.922	1213.25
906.1	1366.85
906.279	844.62
906.457	955.21
906.636	1104.71
906.814	1127.24
906.993	910.15
907.171	854.86
907.35	1401.66
907.528	1293.12
907.707	1270.59
907.885	795.47
908.063	1594.17
908.242	963.4
908.42	906.06
908.598	803.66
908.777	1366.85
908.955	1139.52
909.133	1160
909.311	959.3
909.49	1182.53
909.668	1139.52
909.846	949.06
910.024	748.36
910.202	1213.25
910.38	1385.28
910.559	885.58
910.737	803.66
910.915	1258.31
911.093	1260.35
911.271	1026.89
911.449	1069.89
911.627	1311.55
911.805	1622.84
911.983	922.44
912.161	787.27
912.339	1231.68
912.517	1446.72
912.695	1123.14
912.872	934.73
913.05	1004.36
913.228	1286.98
913.406	938.82
913.584	772.94
913.762	1280.83
913.939	1004.36
914.117	815.94
914.295	787.27
914.473	1329.99
914.65	1291.07
914.828	936.78
915.006	926.54
915.184	932.68
915.361	1295.17
915.539	1045.32
915.716	1192.77
915.894	1303.36
916.072	1319.75
916.249	1182.53
916.427	1108.8
916.604	883.53
916.782	1293.12
916.959	729.93
917.137	869.19
917.314	1207.11
917.492	1327.94
917.669	981.83
917.847	1082.18
918.024	1286.98
918.201	1049.41
918.379	996.17
918.556	912.2
918.733	1344.32
918.911	1227.59
919.088	1076.04
919.265	871.24
919.442	1168.2
919.62	1067.85
919.797	869.19
919.974	684.87
920.151	1217.35
920.328	1213.25
920.506	885.58
920.683	1073.99
920.86	920.39
921.037	928.58
921.214	965.45
921.391	885.58
921.568	1276.74
921.745	1020.74
921.922	824.14
922.099	764.75
922.276	1434.43
922.453	1151.81
922.63	844.62
922.807	1192.77
922.984	1119.04
923.161	983.88
923.338	994.12
923.514	791.37
923.691	1106.76
923.868	1168.2
924.045	811.85
924.222	768.84
924.399	1094.47
924.575	1416
924.752	893.77
924.929	920.39
925.105	1137.48
925.282	885.58
925.459	928.58
925.635	785.23
925.812	1086.28
925.989	934.73
926.165	912.2
926.342	770.89
926.518	848.71
926.695	1094.47
926.871	703.31
927.048	824.14
927.224	1203.01
927.401	1033.03
927.577	910.15
927.754	701.26
927.93	1450.82
928.107	1233.73
928.283	815.94
928.459	947.01
928.636	1131.33
928.812	910.15
928.988	744.27
929.165	611.15
929.341	1000.26
929.517	1119.04
929.693	1129.28
929.87	670.54
930.046	1149.76
930.222	861
930.398	768.84
930.574	832.33
930.751	1045.32
930.927	922.44
931.103	893.77
931.279	846.66
931.455	746.31
931.631	1094.47
931.807	574.28
931.983	654.16
932.159	693.07
932.335	1022.79
932.511	746.31
932.687	680.78
932.863	1063.75
933.039	992.07
933.215	717.64
933.391	486.22
933.566	885.58
933.742	1004.36
933.918	793.42
934.094	531.28
934.27	936.78
934.445	938.82
934.621	811.85
934.797	562
934.973	1088.32
935.148	1059.65
935.324	652.11
935.5	482.13
935.675	1102.66
935.851	844.62
936.027	674.64
936.202	625.48
936.378	967.49
936.553	779.08
936.729	996.17
936.904	564.04
937.08	518.99
937.255	711.5
937.431	553.8
937.606	420.69
937.782	682.83
937.957	813.9
938.133	656.2
938.308	451.41
938.483	729.93
938.659	428.88
938.834	510.8
939.009	365.39
939.185	527.18
939.36	430.93
939.535	183.12
939.71	615.24
939.886	826.18
940.061	834.38
940.236	586.57
940.411	461.65
940.586	787.27
940.761	777.03
940.937	475.98
941.112	219.99
941.287	635.72
941.462	742.22
941.637	301.9
941.812	465.74
941.987	590.67
942.162	664.4
942.337	570.19
942.512	387.92
942.687	756.55
942.862	789.32
943.037	242.51
943.212	88.92
943.386	504.65
943.561	645.96
943.736	566.09
943.911	594.76
944.086	746.31
944.26	635.72
944.435	361.3
944.61	430.93
944.785	926.54
944.959	1028.93
945.134	334.67
945.309	299.86
945.483	426.83
945.658	836.42
945.833	99.16
946.007	197.46
946.182	1012.55
946.357	271.19
946.531	224.08
946.706	260.95
946.88	146.26
947.055	600.91
947.229	312.14
947.404	224.08
947.578	691.02
947.752	445.26
947.927	172.88
948.101	107.35
948.276	578.38
948.45	600.91
948.624	445.26
948.799	365.39
948.973	658.25
949.147	205.65
949.321	375.63
949.496	238.42
949.67	809.8
949.844	551.76
950.018	334.67
950.193	226.13
950.367	1098.56
950.541	545.61
950.715	435.02
950.889	478.03
951.063	494.41
951.237	754.51
951.411	148.31
951.585	33.62
951.759	631.63
951.933	580.43
952.107	328.53
952.281	488.27
952.455	844.62
952.629	725.83
952.803	250.71
952.977	250.71
953.151	750.41
953.325	680.78
953.499	437.07
953.672	158.55
953.846	316.24
954.02	504.65
954.194	289.62
954.368	363.34
954.541	650.06
954.715	371.54
954.889	443.21
955.062	213.84
955.236	529.23
955.41	443.21
955.583	480.08
955.757	80.72
955.93	451.41
956.104	260.95
956.278	219.99
956.451	357.2
956.625	619.34
956.798	1049.41
956.972	633.68
957.145	250.71
957.319	570.19
957.492	492.37
957.665	447.31
957.839	201.55
958.012	631.63
958.185	371.54
958.359	459.6
958.532	439.12
958.705	670.54
958.879	635.72
959.052	428.88
959.225	90.96
959.398	445.26
959.572	582.48
959.745	269.14
959.918	389.97
960.091	320.34
960.264	629.58
960.438	176.98
960.611	209.75
960.784	668.49
960.957	369.49
961.13	645.96
961.303	322.38
961.476	496.46
961.649	754.51
961.822	222.03
961.995	394.06
962.168	676.68
962.341	607.05
962.514	291.66
962.686	260.95
962.859	648.01
963.032	645.96
963.205	258.9
963.378	84.82
963.551	641.87
963.723	469.84
963.896	400.21
964.069	527.18
964.242	537.42
964.414	754.51
964.587	420.69
964.76	469.84
964.932	588.62
965.105	531.28
965.278	303.95
965.45	262.99
965.623	602.96
965.795	650.06
965.968	224.08
966.14	303.95
966.313	455.5
966.485	559.95
966.658	330.58
966.83	291.66
967.003	752.46
967.175	664.4
967.348	250.71
967.52	365.39
967.692	844.62
967.865	650.06
968.037	330.58
968.209	639.82
968.382	459.6
968.554	674.64
968.726	303.95
968.898	265.04
969.071	609.1
969.243	660.3
969.415	353.1
969.587	369.49
969.759	1063.75
969.932	654.16
970.104	406.35
970.276	-85.16
970.448	406.35
970.62	420.69
970.792	459.6
970.964	381.78
971.136	992.07
971.308	623.44
971.48	195.41
971.652	238.42
971.824	918.34
971.996	451.41
972.168	328.53
972.339	322.38
972.511	717.64
972.683	496.46
972.855	467.79
973.027	238.42
973.199	484.17
973.37	684.87
973.542	441.17
973.714	465.74
973.886	541.52
974.057	766.79
974.229	238.42
974.401	213.84
974.572	332.62
974.744	115.54
974.915	117.59
975.087	230.23
975.259	914.25
975.43	353.1
975.602	287.57
975.773	68.44
975.945	283.47
976.116	725.83
976.288	211.79
976.459	543.57
976.63	437.07
976.802	643.92
976.973	140.12
977.145	338.77
977.316	1065.8
977.487	848.71
977.659	398.16
977.83	355.15
978.001	1082.18
978.172	584.52
978.344	174.93
978.515	238.42
978.686	467.79
978.857	840.52
979.028	351.06
979.2	160.59
979.371	750.41
979.542	498.51
979.713	441.17
979.884	-40.11
980.055	422.73
980.226	416.59
980.397	133.97
980.568	193.36
980.739	807.75
980.91	516.94
981.081	498.51
981.252	205.65
981.423	623.44
981.594	699.21
981.765	181.07
981.936	402.26
982.106	459.6
982.277	762.7
982.448	217.94
982.619	451.41
982.79	406.35
982.96	832.33
983.131	439.12
983.302	29.52
983.472	377.68
983.643	629.58
983.814	265.04
983.984	191.31
984.155	439.12
984.326	703.31
984.496	410.45
984.667	222.03
984.837	418.64
985.008	838.47
985.178	332.62
985.349	324.43
985.519	430.93
985.69	369.49
985.86	303.95
986.031	138.07
986.201	541.52
986.371	615.24
986.542	222.03
986.712	19.29
986.882	602.96
987.053	549.71
987.223	119.64
987.393	400.21
987.563	353.1
987.734	652.11
987.904	529.23
988.074	174.93
988.244	529.23
988.414	314.19
988.585	166.74
988.755	363.34
988.925	318.29
989.095	789.32
989.265	117.59
989.435	199.51
989.605	543.57
989.775	590.67
989.945	490.32
990.115	136.02
990.285	365.39
990.455	576.33
990.625	316.24
990.795	185.17
990.965	734.03
991.134	262.99
991.304	232.27
991.474	176.98
991.644	592.72
991.814	834.38
991.984	86.87
992.153	191.31
992.323	396.11
992.493	525.13
992.662	-76.97
992.832	359.25
993.002	502.61
993.171	549.71
993.341	-23.72
993.511	287.57
993.68	291.66
993.85	643.92
994.019	29.52
994.189	66.39
994.358	482.13
994.528	387.92
994.697	-54.44
994.867	-23.72
995.036	688.97
995.206	310.1
995.375	37.72
995.544	277.33
995.714	486.22
995.883	297.81
996.052	306
996.222	-42.15
996.391	826.18
996.56	590.67
996.73	47.96
996.899	-19.63
997.068	901.96
997.237	363.34
997.406	70.48
997.576	-107.69
997.745	340.82
997.914	533.33
998.083	-85.16
998.252	103.25
998.421	426.83
998.59	250.71
998.759	-66.73
998.928	-21.67
999.097	740.17
999.266	562
999.435	254.8
999.604	-46.25
999.773	926.54
999.942	398.16
1000.111	-58.54
1000.28	-79.02
1000.448	152.4
1000.617	90.96
1000.786	371.54
1000.955	-1.19
1001.124	457.55
1001.292	1067.85
1001.461	113.49
1001.63	39.76
1001.798	717.64
1001.967	750.41
1002.136	-11.43
1002.304	27.48
1002.473	469.84
1002.642	357.2
1002.81	158.55
1002.979	43.86
1003.147	492.37
1003.316	973.64
1003.484	101.2
1003.653	97.11
1003.821	668.49
1003.99	306
1004.158	230.23
1004.327	183.12
1004.495	559.95
1004.663	136.02
1004.832	193.36
1005	-95.4
1005.168	467.79
1005.337	344.91
1005.505	-60.59
1005.673	291.66
1005.842	586.57
1006.01	459.6
1006.178	-76.97
1006.346	39.76
1006.514	451.41
1006.683	664.4
1006.851	-27.82
1007.019	-154.79
1007.187	123.73
1007.355	27.48
1007.523	-197.8
1007.691	-107.69
1007.859	95.06
1008.027	695.11
1008.195	123.73
1008.363	-74.92
1008.531	543.57
1008.699	215.89
1008.867	-42.15
1009.035	-31.91
1009.203	684.87
1009.37	359.25
1009.538	9.05
1009.706	504.65
1009.874	297.81
1010.042	351.06
1010.209	-158.89
1010.377	-48.3
1010.545	473.93
1010.713	381.78
1010.88	13.14
1011.048	17.24
1011.216	201.55
1011.383	625.48
1011.551	-122.02
1011.718	-76.97
1011.886	574.28
1012.054	441.17
1012.221	-19.63
1012.389	-68.78
1012.556	281.43
1012.724	783.18
1012.891	97.11
1013.058	-179.37
1013.226	414.54
1013.393	605
1013.561	-85.16
1013.728	-201.9
1013.895	527.18
1014.063	437.07
1014.23	-138.41
1014.397	-46.25
1014.565	562
1014.732	183.12
1014.899	-52.39
1015.066	-150.7
1015.233	336.72
1015.401	537.42
1015.568	-44.2
1015.735	60.24
1015.902	330.58
1016.069	443.21
1016.236	-79.02
1016.403	-56.49
1016.57	103.25
1016.737	656.2
1016.904	33.62
1017.071	-167.08
1017.238	183.12
1017.405	461.65
1017.572	-81.07
1017.739	129.88
1017.906	453.45
1018.073	617.29
1018.24	-177.32
1018.407	13.14
1018.573	582.48
1018.74	240.47
1018.907	-107.69
1019.074	-160.94
1019.241	529.23
1019.407	326.48
1019.574	-142.5
1019.741	-197.8
1019.907	463.69
1020.074	412.5
1020.241	-294.05
1020.407	-142.5
1020.574	467.79
1020.74	377.68
1020.907	25.43
1021.073	-179.37
1021.24	852.81
1021.406	656.2
1021.573	-208.04
1021.739	-107.69
1021.906	516.94
1022.072	353.1
1022.239	-130.22
1022.405	-52.39
1022.571	312.14
1022.738	111.44
1022.904	-52.39
1023.07	-17.58
1023.237	447.31
1023.403	637.77
1023.569	-48.3
1023.735	-11.43
1023.902	375.63
1024.068	379.73
1024.234	-119.98
1024.4	-48.3
1024.566	312.14
1024.732	492.37
1024.898	-81.07
1025.065	-251.05
1025.231	549.71
1025.397	230.23
1025.563	-31.91
1025.729	-113.83
1025.895	-105.64
1026.061	68.44
1026.227	-275.62
1026.392	-109.74
1026.558	504.65
1026.724	508.75
1026.89	-158.89
1027.056	-93.35
1027.222	361.3
1027.388	172.88
1027.553	-152.74
1027.719	-107.69
1027.885	684.87
1028.051	389.97
1028.216	-259.24
1028.382	-66.73
1028.548	480.08
1028.713	168.79
1028.879	-158.89
1029.045	82.77
1029.21	582.48
1029.376	594.76
1029.541	41.81
1029.707	-68.78
1029.873	426.83
1030.038	385.87
1030.204	-128.17
1030.369	-3.24
1030.534	447.31
1030.7	152.4
1030.865	13.14
1031.031	-130.22
1031.196	418.64
1031.361	361.3
1031.527	-119.98
1031.692	-171.18
1031.857	-89.26
1032.023	428.88
1032.188	-152.74
1032.353	-68.78
1032.518	578.38
1032.684	408.4
1032.849	-244.9
1033.014	-122.02
1033.179	537.42
1033.344	320.34
1033.509	11.09
1033.674	-134.31
1033.839	478.03
1034.004	418.64
1034.17	-76.97
1034.335	-199.85
1034.5	164.69
1034.664	140.12
1034.829	-138.41
1034.994	-50.35
1035.159	365.39
1035.324	336.72
1035.489	-101.55
1035.654	-203.94
1035.819	615.24
1035.984	322.38
1036.148	-21.67
1036.313	-99.5
1036.478	492.37
1036.643	324.43
1036.807	-132.26
1036.972	-193.7
1037.137	537.42
1037.301	336.72
1037.466	-226.47
1037.631	-23.72
1037.795	459.6
1037.96	342.86
1038.124	131.92
1038.289	-136.36
1038.454	410.45
1038.618	420.69
1038.783	-109.74
1038.947	33.62
1039.111	398.16
1039.276	125.78
1039.44	-138.41
1039.605	353.1
1039.769	125.78
1039.933	185.17
1040.098	17.24
1040.262	140.12
1040.426	441.17
1040.591	445.26
1040.755	-146.6
1040.919	-70.83
1041.083	398.16
1041.248	256.85
1041.412	-292.01
1041.576	-201.9
1041.74	234.32
1041.904	394.06
1042.068	-93.35
1042.232	-74.92
1042.397	510.8
1042.561	306
1042.725	-279.72
1042.889	66.39
1043.053	478.03
1043.217	422.73
1043.381	-40.11
1043.544	-162.98
1043.708	568.14
1043.872	33.62
1044.036	-322.73
1044.2	-222.38
1044.364	664.4
1044.528	586.57
1044.691	4789
1044.855	-255.14
1045.019	504.65
1045.183	428.88
1045.346	-68.78
1045.51	-171.18
1045.674	367.44
1045.837	441.17
1046.001	-54.44
1046.165	-148.65
1046.328	846.66
1046.492	367.44
1046.655	-3.24
1046.819	-50.35
1046.983	105.3
1047.146	404.3
1047.31	35.67
1047.473	-257.19
1047.636	295.76
1047.8	150.36
1047.963	-81.07
1048.127	-146.6
1048.29	123.73
