Data from Ink_Intensity_USB4F045381__108__00108.txt Node

Date: Mon Jul 17 11:07:45 EDT 2023
User: mmckonesweet
Spectrometer: USB4F04538
Trigger mode: 4
Integration Time (sec): 9.000000E-1
Scans to average: 1
Electric dark correction enabled: true
Nonlinearity correction enabled: false
Boxcar width: 0
XAxis mode: Wavelengths
Number of Pixels in Spectrum: 3648
>>>>>Begin Spectral Data<<<<<
345.52	-1019.55
345.736	-1019.55
345.952	-1019.55
346.168	-1042.07
346.384	-1003.16
346.6	-100.01
346.816	-165.54
347.032	-212.65
347.248	287.06
347.464	-239.27
347.68	-106.15
347.896	117.08
348.112	309.58
348.328	-73.39
348.544	-153.26
348.76	43.35
348.975	293.2
349.191	-321.19
349.407	-198.31
349.623	51.54
349.839	10.58
350.055	-186.02
350.27	-11.95
350.486	92.5
350.702	348.5
350.918	145.75
351.133	-124.58
351.349	162.13
351.565	416.08
351.781	-239.27
351.996	0.34
352.212	254.29
352.428	-204.46
352.644	-302.76
352.859	-267.94
353.075	305.49
353.291	151.89
353.506	-77.48
353.722	-339.62
353.938	-106.15
354.153	454.99
354.369	182.61
354.584	-216.74
354.8	231.76
355.016	-284.33
355.231	-194.22
355.447	-114.34
355.662	45.4
355.878	805.19
356.093	-306.85
356.309	12.63
356.524	-274.09
356.74	233.81
356.955	-263.85
357.171	-97.96
357.386	213.33
357.602	-253.61
357.817	-169.64
358.033	-145.06
358.248	332.11
358.464	104.79
358.679	-145.06
358.895	-370.34
359.11	-106.15
359.325	262.48
359.541	10.58
359.756	-36.52
359.972	-237.22
360.187	151.89
360.402	-120.49
360.618	-167.59
360.833	1001.8
361.048	49.49
361.264	-136.87
361.479	-69.29
361.694	0.34
361.909	207.19
362.125	-132.78
362.34	-110.25
362.555	282.96
362.77	112.98
362.986	-329.38
363.201	-194.22
363.416	180.56
363.631	69.97
363.847	-196.26
364.062	-165.54
364.277	123.22
364.492	88.4
364.707	-106.15
364.922	-343.72
365.138	256.34
365.353	289.1
365.568	-269.99
365.783	-173.74
365.998	59.73
366.213	571.72
366.428	-177.83
366.643	-11.95
366.858	233.81
367.073	174.42
367.288	-50.86
367.503	-235.18
367.718	119.12
367.933	295.25
368.148	-351.91
368.363	-40.62
368.578	12.63
368.793	452.94
369.008	-237.22
369.223	-194.22
369.438	112.98
369.653	411.98
369.868	-267.94
370.083	-235.18
370.298	55.64
370.513	305.49
370.728	41.3
370.943	-272.04
371.157	-153.26
371.372	534.86
371.587	-212.65
371.802	-265.89
372.017	127.32
372.232	440.65
372.446	-36.52
372.661	-284.33
372.876	211.28
373.091	139.6
373.306	-95.91
373.52	-300.71
373.735	-134.82
373.95	342.35
374.165	-161.45
374.379	-151.21
374.594	-138.92
374.809	53.59
375.023	127.32
375.238	-245.41
375.453	194.9
375.667	-306.85
375.882	-167.59
376.097	-130.73
376.311	14.68
376.526	31.06
376.741	-300.71
376.955	84.31
377.17	553.29
377.384	528.72
377.599	-59.05
377.813	-243.37
378.028	690.51
378.242	162.13
378.457	-26.28
378.672	-370.34
378.886	31.06
379.101	-16.04
379.315	-294.57
379.53	-161.45
379.744	139.6
379.958	160.08
380.173	-169.64
380.387	-138.92
380.602	145.75
380.816	-83.63
381.031	-169.64
381.245	-79.53
381.459	221.52
381.674	1780.03
381.888	-202.41
382.103	26.96
382.317	-145.06
382.531	395.6
382.746	-110.25
382.96	-159.4
383.174	-85.67
383.388	418.13
383.603	117.08
383.817	-278.18
384.031	207.19
384.246	508.24
384.46	-22.19
384.674	246.1
384.888	47.44
385.103	125.27
385.317	-302.76
385.531	-112.3
385.745	334.16
385.959	268.63
386.174	-100.01
386.388	-202.41
386.602	-1.71
386.816	-196.26
387.03	-67.24
387.244	-120.49
387.458	59.73
387.672	377.17
387.887	-186.02
388.101	-259.75
388.315	373.07
388.529	160.08
388.743	-181.93
388.957	-208.55
389.171	323.92
389.385	-241.32
389.599	-93.87
389.813	57.68
390.027	158.03
390.241	653.64
390.455	-175.78
390.669	-138.92
390.883	-87.72
391.097	293.2
391.311	45.4
391.525	-190.12
391.738	182.61
391.952	102.74
392.166	-71.34
392.38	-194.22
392.594	293.2
392.808	311.63
393.022	-77.48
393.236	-54.95
393.449	276.82
393.663	92.5
393.877	-292.52
394.091	-128.68
394.305	2.39
394.518	-61.1
394.732	-161.45
394.946	-91.82
395.16	500.05
395.373	117.08
395.587	-200.36
395.801	-167.59
396.015	258.39
396.228	233.81
396.442	-284.33
396.656	-304.81
396.869	317.78
397.083	389.46
397.297	-93.87
397.51	-112.3
397.724	373.07
397.938	76.12
398.151	-269.99
398.365	-337.57
398.578	219.47
398.792	387.41
399.005	31.06
399.219	-67.24
399.433	133.46
399.646	264.53
399.86	-38.57
400.073	-5.8
400.287	180.56
400.5	-65.19
400.714	-9.9
400.927	-54.95
401.141	242
401.354	1085.76
401.567	194.9
401.781	-198.31
401.994	309.58
402.208	557.39
402.421	-126.63
402.635	-54.95
402.848	49.49
403.061	350.54
403.275	-7.85
403.488	-243.37
403.701	440.65
403.915	352.59
404.128	63.83
404.341	-140.97
404.555	219.47
404.768	47.44
404.981	-116.39
405.195	-157.35
405.408	536.91
405.621	256.34
405.834	-30.38
406.048	-147.11
406.261	395.6
406.474	479.57
406.687	-192.17
406.9	-34.47
407.114	33.11
407.327	170.32
407.54	-329.38
407.753	-224.94
407.966	-95.91
408.179	264.53
408.392	-177.83
408.605	-313
408.819	123.22
409.032	182.61
409.245	-237.22
409.458	-61.1
409.671	315.73
409.884	303.44
410.097	-208.55
410.31	10.58
410.523	289.1
410.736	39.25
410.949	-59.05
411.162	-85.67
411.375	436.56
411.588	278.87
411.801	-11.95
412.014	-171.69
412.227	-1.71
412.44	-20.14
412.653	-196.26
412.865	-9.9
413.078	293.2
413.291	233.81
413.504	-112.3
413.717	-167.59
413.93	162.13
414.143	-145.06
414.356	-91.82
414.568	-290.47
414.781	242
414.994	227.67
415.207	-34.47
415.42	4.44
415.632	268.63
415.845	493.9
416.058	-233.13
416.271	-179.88
416.483	145.75
416.696	487.76
416.909	-190.12
417.121	-200.36
417.334	207.19
417.547	506.19
417.759	-169.64
417.972	-216.74
418.185	-112.3
418.397	309.58
418.61	-220.84
418.823	-206.5
419.035	481.61
419.248	72.02
419.46	-100.01
419.673	-104.11
419.885	256.34
420.098	45.4
420.311	-32.43
420.523	-304.81
420.736	176.47
420.948	170.32
421.161	-104.11
421.373	-353.96
421.586	88.4
421.798	-59.05
422.01	-290.47
422.223	-28.33
422.435	-63.15
422.648	186.71
422.86	-104.11
423.073	-77.48
423.285	366.93
423.497	-132.78
423.71	-190.12
423.922	-177.83
424.134	129.36
424.347	358.74
424.559	35.16
424.771	53.59
424.984	6.49
425.196	184.66
425.408	-259.75
425.621	-200.36
425.833	319.82
426.045	399.7
426.257	-214.7
426.47	-67.24
426.682	182.61
426.894	268.63
427.106	-71.34
427.318	-67.24
427.531	-71.34
427.743	295.25
427.955	-196.26
428.167	192.85
428.379	266.58
428.591	59.73
428.804	-73.39
429.016	-259.75
429.228	2.39
429.44	184.66
429.652	96.6
429.864	-188.07
430.076	24.92
430.288	119.12
430.5	-85.67
430.712	-67.24
430.924	409.94
431.136	194.9
431.348	-308.9
431.56	-169.64
431.772	59.73
431.984	84.31
432.196	-200.36
432.408	-130.73
432.62	-67.24
432.832	141.65
433.044	115.03
433.256	-73.39
433.468	237.91
433.679	-194.22
433.891	-206.5
434.103	104.79
434.315	354.64
434.527	194.9
434.739	-38.57
434.95	-179.88
435.162	368.98
435.374	26.96
435.586	-67.24
435.798	-83.63
436.009	-149.16
436.221	74.07
436.433	-143.02
436.645	-110.25
436.856	6.49
437.068	379.22
437.28	-229.03
437.491	141.65
437.703	137.56
437.915	215.38
438.126	-59.05
438.338	129.36
438.55	80.21
438.761	213.33
438.973	-50.86
439.184	-153.26
439.396	184.66
439.608	299.34
439.819	-267.94
440.031	-20.14
440.242	278.87
440.454	350.54
440.665	-114.34
440.877	-5.8
441.088	328.02
441.3	-61.1
441.511	-251.56
441.723	-128.68
441.934	217.43
442.146	141.65
442.357	20.82
442.569	121.17
442.78	108.88
442.991	592.2
443.203	147.8
443.414	-202.41
443.626	500.05
443.837	-34.47
444.048	-272.04
444.26	-206.5
444.471	166.23
444.682	371.02
444.894	-329.38
445.105	-267.94
445.316	354.64
445.528	289.1
445.739	33.11
445.95	-116.39
446.161	190.8
446.373	377.17
446.584	-91.82
446.795	-71.34
447.006	299.34
447.217	547.15
447.429	-229.03
447.64	-167.59
447.851	469.33
448.062	69.97
448.273	-218.79
448.484	-89.77
448.695	229.71
448.907	69.97
449.118	18.77
449.329	29.01
449.54	-5.8
449.751	-63.15
449.962	-104.11
450.173	-120.49
450.384	350.54
450.595	395.6
450.806	-130.73
451.017	-79.53
451.228	395.6
451.439	375.12
451.65	-122.54
451.861	-323.24
452.072	-77.48
452.283	37.2
452.494	90.45
452.705	-186.02
452.915	514.38
453.126	192.85
453.337	-132.78
453.548	-179.88
453.759	434.51
453.97	674.12
454.181	149.84
454.391	-69.29
454.602	303.44
454.813	321.87
455.024	-48.81
455.235	-169.64
455.445	145.75
455.656	346.45
455.867	47.44
456.078	-112.3
456.288	43.35
456.499	276.82
456.71	-128.68
456.921	149.84
457.131	131.41
457.342	205.14
457.553	-34.47
457.763	-130.73
457.974	293.2
458.184	254.29
458.395	-181.93
458.606	-233.13
458.816	381.26
459.027	643.4
459.237	55.64
459.448	-308.9
459.659	481.61
459.869	612.68
460.08	-198.31
460.29	39.25
460.501	627.02
460.711	104.79
460.922	-247.46
461.132	-95.91
461.343	768.33
461.553	-177.83
461.764	-93.87
461.974	-71.34
462.184	387.41
462.395	264.53
462.605	55.64
462.816	-130.73
463.026	117.08
463.236	522.57
463.447	-155.3
463.657	-134.82
463.867	434.51
464.078	117.08
464.288	31.06
464.498	-89.77
464.709	252.24
464.919	166.23
465.129	6.49
465.339	-192.17
465.55	268.63
465.76	293.2
465.97	-46.76
466.18	-95.91
466.391	358.74
466.601	287.06
466.811	2.39
467.021	-122.54
467.231	338.26
467.441	477.52
467.651	-46.76
467.862	-216.74
468.072	239.95
468.282	508.24
468.492	-91.82
468.702	47.44
468.912	178.51
469.122	772.43
469.332	352.59
469.542	-97.96
469.752	450.89
469.962	280.91
470.172	-124.58
470.382	-16.04
470.592	411.98
470.802	469.33
471.012	137.56
471.222	-75.43
471.432	514.38
471.642	389.46
471.852	135.51
472.062	-46.76
472.272	217.43
472.482	41.3
472.691	-122.54
472.901	-102.06
473.111	295.25
473.321	833.86
473.531	-77.48
473.741	84.31
473.95	428.37
474.16	532.81
474.37	102.74
474.58	-85.67
474.79	715.08
474.999	522.57
475.209	-3.75
475.419	20.82
475.628	225.62
475.838	581.96
476.048	125.27
476.258	-63.15
476.467	624.97
476.677	235.86
476.886	237.91
477.096	160.08
477.306	209.23
477.515	649.55
477.725	188.75
477.935	153.94
478.144	708.94
478.354	276.82
478.563	192.85
478.773	104.79
478.982	606.54
479.192	649.55
479.401	225.62
479.611	100.69
479.82	332.11
480.03	481.61
480.239	104.79
480.449	82.26
480.658	823.62
480.868	227.67
481.077	328.02
481.287	151.89
481.496	526.67
481.705	805.19
481.915	557.39
482.124	471.37
482.333	649.55
482.543	751.95
482.752	244.05
482.961	151.89
483.171	604.49
483.38	502.09
483.589	289.1
483.799	170.32
484.008	403.79
484.217	735.56
484.426	309.58
484.636	137.56
484.845	549.2
485.054	291.15
485.263	475.47
485.472	274.77
485.682	846.15
485.891	622.92
486.1	166.23
486.309	254.29
486.518	659.79
486.727	971.08
486.936	250.19
487.146	405.84
487.355	1042.76
487.564	407.89
487.773	260.43
487.982	371.02
488.191	598.35
488.4	674.12
488.609	360.78
488.818	340.3
489.027	1100.1
489.236	1005.89
489.445	426.32
489.654	319.82
489.863	919.88
490.072	629.07
490.281	758.09
490.49	313.68
490.698	1083.72
490.907	979.27
491.116	377.17
491.325	340.3
491.534	964.93
491.743	827.72
491.952	504.14
492.16	440.65
492.369	829.77
492.578	1001.8
492.787	637.26
492.996	248.15
493.204	588.11
493.413	1034.57
493.622	203.09
493.831	250.19
494.039	1108.29
494.248	514.38
494.457	547.15
494.665	397.65
494.874	792.91
495.083	1268.03
495.291	446.8
495.5	522.57
495.709	987.46
495.917	821.58
496.126	653.64
496.335	567.63
496.543	766.28
496.752	805.19
496.96	829.77
497.169	426.32
497.377	833.86
497.586	1098.05
497.794	704.84
498.003	346.45
498.211	778.57
498.42	1341.76
498.628	688.46
498.837	473.42
499.045	969.03
499.254	928.07
499.462	655.69
499.671	543.05
499.879	1290.56
500.087	1020.23
500.296	565.58
500.504	655.69
500.713	1110.34
500.921	1472.83
501.129	698.7
501.338	618.83
501.546	1046.85
501.754	1055.05
501.962	684.36
502.171	608.59
502.379	1122.63
502.587	1354.05
502.795	780.62
503.004	760.14
503.212	999.75
503.42	1235.27
503.628	680.27
503.837	792.91
504.045	1218.88
504.253	1405.25
504.461	682.31
504.669	577.87
504.877	1288.51
505.085	1319.23
505.294	596.3
505.502	1036.61
505.71	1186.12
505.918	1169.73
506.126	690.51
506.334	751.95
506.542	1042.76
506.75	1300.8
506.958	969.03
507.166	694.6
507.374	952.65
507.582	1603.9
507.79	983.37
507.998	835.91
508.206	1206.59
508.414	1268.03
508.622	825.67
508.83	780.62
509.037	1538.37
509.245	1093.96
509.453	790.86
509.661	782.67
509.869	1378.62
510.077	1227.07
510.285	1067.33
510.492	706.89
510.7	1710.4
510.908	1057.09
511.116	950.6
511.324	876.87
511.531	1165.64
511.739	1349.95
511.947	1114.44
512.155	1237.31
512.362	1411.39
512.57	842.06
512.778	952.65
512.985	797
513.193	1495.36
513.401	1526.08
513.608	1053
513.816	1012.04
514.024	1517.89
514.231	1593.66
514.439	1034.57
514.646	966.98
514.854	1538.37
515.061	1585.47
515.269	1067.33
515.477	1116.48
515.684	1169.73
515.892	1501.5
516.099	950.6
516.307	844.1
516.514	1577.28
516.722	1734.97
516.929	1149.25
517.136	1022.28
517.344	1790.27
517.551	1411.39
517.759	1042.76
517.966	1165.64
518.173	1274.18
518.381	1405.25
518.588	1321.28
518.796	1024.33
519.003	1591.61
519.21	1538.37
519.418	1139.01
519.625	1476.93
519.832	1376.58
520.039	1632.57
520.247	938.31
520.454	1198.4
520.661	1745.21
520.868	1696.06
521.076	1255.75
521.283	1354.05
521.49	2119.99
521.697	1720.64
521.904	1354.05
522.112	1251.65
522.319	1896.76
522.526	1659.2
522.733	1257.79
522.94	1231.17
523.147	1696.06
523.354	1849.66
523.561	1202.5
523.768	1511.74
523.975	1888.57
524.183	1653.05
524.39	1380.67
524.597	1202.5
524.804	1571.13
525.011	1485.12
525.218	1347.9
525.425	1263.94
525.632	1982.78
525.838	1571.13
526.045	1370.43
526.252	1352
526.459	2887.98
526.666	2593.07
526.873	1390.91
527.08	1382.72
527.287	1976.63
527.494	1970.49
527.701	1478.97
527.907	1390.91
528.114	1823.03
528.321	1775.93
528.528	1614.14
528.735	1450.3
528.941	1608
529.148	1630.52
529.355	1575.23
529.562	1505.6
529.768	2263.35
529.975	1706.3
530.182	1636.67
530.388	1464.64
530.595	2107.7
530.802	1591.61
531.008	1800.51
531.215	1710.4
531.422	2273.59
531.628	2685.23
531.835	1669.44
532.042	1724.73
532.248	1829.18
532.455	2064.69
532.661	1757.5
532.868	1800.51
533.074	2109.75
533.281	2132.28
533.487	1878.33
533.694	1714.49
533.9	1780.03
534.107	2169.14
534.313	1681.72
534.52	1745.21
534.726	2330.93
534.933	2601.26
535.139	1726.78
535.345	1552.7
535.552	2218.29
535.758	2181.43
535.965	1868.09
536.171	1640.76
536.377	2220.34
536.584	2513.2
536.79	1919.29
536.996	1855.8
537.203	2341.17
537.409	2341.17
537.615	1827.13
537.821	2036.02
538.028	2386.22
538.234	2298.16
538.44	1913.14
538.646	1917.24
538.853	2281.78
539.059	2165.04
539.265	2316.59
539.471	1716.54
539.677	2550.06
539.883	2185.52
540.09	2042.17
540.296	2408.75
540.502	2271.54
540.708	2214.2
540.914	2281.78
541.12	2003.25
541.326	2464.05
541.532	2324.79
541.738	2177.33
541.944	2156.85
542.15	2607.41
542.356	2343.22
542.562	2017.59
542.768	2232.63
542.974	3008.81
543.18	3080.49
543.386	2107.7
543.592	1999.16
543.798	2644.27
544.004	2789.67
544.21	2238.77
544.415	2208.05
544.621	2652.46
544.827	2713.9
545.033	2177.33
545.239	2427.18
545.445	2341.17
545.651	2681.13
545.856	2193.72
546.062	2220.34
546.268	2328.88
546.474	2664.75
546.679	2206
546.885	2234.68
547.091	2310.45
547.297	3070.25
547.502	2394.42
547.708	2253.11
547.914	2392.37
548.119	2945.32
548.325	2210.1
548.531	2095.41
548.736	3086.63
548.942	2529.58
549.147	2320.69
549.353	2601.26
549.559	3076.39
549.764	2910.5
549.97	2394.42
550.175	2468.14
550.381	2834.73
550.586	2674.99
550.792	2586.93
550.997	2455.86
551.203	2808.11
551.408	2820.39
551.614	2484.53
551.819	2412.85
552.025	3332.39
552.23	3234.08
552.435	2363.7
552.641	2914.6
552.846	2773.29
553.052	3225.89
553.257	2707.76
553.462	2539.82
553.668	2695.47
553.873	3223.84
554.078	2617.65
554.283	2705.71
554.489	3074.34
554.694	2881.83
554.899	2603.31
555.105	2781.48
555.31	3223.84
555.515	3361.06
555.72	2873.64
555.925	2689.32
556.131	3217.7
556.336	2883.88
556.541	2738.48
556.746	2771.24
556.951	3356.96
557.156	3502.37
557.361	2902.31
557.567	2877.74
557.772	3600.67
557.977	3260.71
558.182	2797.87
558.387	2830.63
558.592	2992.42
558.797	3473.7
559.002	2937.13
559.207	2976.04
559.412	3168.55
559.617	3707.16
559.822	2869.55
560.027	2748.72
560.232	3266.85
560.437	3291.43
560.642	2818.35
560.847	2943.27
561.051	3418.4
561.256	3320.1
561.461	3023.14
561.666	2849.07
561.871	3467.55
562.076	3526.94
562.281	3160.36
562.485	2902.31
562.69	3451.17
562.895	3535.14
563.1	3100.97
563.305	2892.07
563.509	3713.31
563.714	3731.74
563.919	3037.48
564.123	3041.57
564.328	3397.92
564.533	3784.99
564.737	3273
564.942	3100.97
565.147	3864.86
565.351	4159.77
565.556	3299.62
565.761	3191.08
565.965	3512.61
566.17	3311.91
566.374	3217.7
566.579	3168.55
566.784	3561.76
566.988	3420.45
567.193	3182.88
567.397	3148.07
567.602	3297.57
567.806	3647.77
568.011	3322.15
568.215	3266.85
568.42	3434.78
568.624	3676.45
568.828	3250.47
569.033	3442.98
569.237	3852.57
569.442	3868.95
569.646	3318.05
569.85	3369.25
570.055	3615.01
570.259	3811.61
570.463	3574.05
570.668	3451.17
570.872	3680.54
571.076	3692.83
571.281	3660.06
571.485	3569.95
571.689	3885.34
571.893	3959.06
572.098	3664.16
572.302	3535.14
572.506	3932.44
572.71	3682.59
572.914	3508.51
573.119	3582.24
573.323	4215.06
573.527	4237.59
573.731	3666.21
573.935	3547.42
574.139	3819.8
574.343	3713.31
574.547	3582.24
574.751	3766.56
574.955	4135.19
575.159	4286.74
575.364	3600.67
575.568	3701.02
575.772	4065.56
575.976	4376.85
576.18	3696.92
576.383	3711.26
576.587	4356.37
576.791	4294.93
576.995	3733.79
577.199	3549.47
577.403	4149.53
577.607	4432.15
577.811	3721.5
578.015	3914.01
578.219	4079.9
578.422	4342.04
578.626	3926.3
578.83	3954.97
579.034	4485.39
579.238	4178.2
579.442	3797.28
579.645	4213.01
579.849	4362.51
580.053	4243.73
580.257	3975.45
580.46	3989.78
580.664	4397.33
580.868	4366.61
581.071	4159.77
581.275	4208.92
581.479	3873.05
581.682	4489.49
581.886	3963.16
582.09	4145.43
582.293	4528.4
582.497	4673.81
582.7	4231.44
582.904	4131.09
583.107	4516.11
583.311	4389.14
583.515	4346.13
583.718	4204.82
583.922	4505.87
584.125	4931.85
584.329	4268.31
584.532	4346.13
584.735	4593.94
584.939	4606.22
585.142	4045.08
585.346	4276.5
585.549	4626.7
585.753	4509.97
585.956	4313.36
586.159	4475.15
586.363	5101.83
586.566	4749.58
586.769	4380.95
586.973	4188.44
587.176	4888.84
587.379	4927.75
587.582	4778.25
587.786	4657.42
587.989	4733.2
588.192	5212.42
588.395	4479.25
588.599	4757.77
588.802	5024.01
589.005	5134.6
589.208	4636.94
589.411	4477.2
589.615	5101.83
589.818	5173.51
590.021	4919.56
590.224	4706.57
590.427	5083.4
590.63	5095.69
590.833	4337.94
591.036	4753.68
591.239	5077.26
591.442	4819.21
591.645	4911.37
591.848	4837.64
592.051	5083.4
592.254	5105.93
592.457	4884.75
592.66	4913.42
592.863	5093.64
593.066	5277.96
593.269	4868.36
593.472	4862.22
593.675	4847.88
593.878	5513.47
594.081	4952.33
594.284	4737.29
594.486	5363.97
594.689	5257.48
594.892	5056.78
595.095	5001.48
595.298	5331.2
595.5	5073.16
595.703	5048.58
595.906	5204.23
596.109	5665.02
596.311	5488.9
596.514	4897.03
596.717	4991.24
596.92	5642.5
597.122	5454.08
597.325	4958.47
597.528	5083.4
597.73	5548.29
597.933	5554.43
598.136	4931.85
598.338	4833.55
598.541	5437.7
598.743	5589.25
598.946	5163.27
599.148	5275.91
599.351	5662.97
599.554	5906.68
599.756	5323.01
599.959	5390.6
600.161	5763.33
600.363	6015.23
600.566	5558.53
600.768	5277.96
600.971	5994.75
601.173	5851.39
601.376	5431.55
601.578	5316.87
601.78	5789.95
601.983	6299.89
602.185	5263.62
602.388	5665.02
602.59	5753.09
602.792	5671.17
602.995	5718.27
603.197	5419.27
603.399	6103.29
603.601	5779.71
603.804	5568.77
604.006	5368.07
604.208	5751.04
604.41	5378.31
604.613	5665.02
604.815	5556.48
605.017	6453.49
605.219	5474.56
605.421	5867.77
605.623	5458.18
605.826	6310.13
606.028	6404.34
606.23	5615.87
606.432	5726.46
606.634	6422.77
606.836	6220.02
607.038	5601.54
607.24	5824.76
607.442	6011.13
607.644	6041.85
607.846	5830.91
608.048	5724.41
608.25	6349.04
608.452	6039.8
608.654	5925.11
608.856	5589.25
609.058	6127.86
609.26	6183.16
609.462	5757.18
609.664	5828.86
609.866	6441.2
610.067	6095.1
610.269	6035.71
610.471	6148.34
610.673	6084.86
610.875	6236.41
611.077	5886.2
611.278	6056.18
611.48	6271.22
611.682	6705.39
611.884	6093.05
612.085	6060.28
612.287	6199.54
612.489	6330.61
612.69	5851.39
612.892	6023.42
613.094	6506.74
613.295	6271.22
613.497	6060.28
613.699	6123.77
613.9	6770.93
614.102	6652.14
614.304	6107.38
614.505	5789.95
614.707	6457.59
614.908	6279.41
615.11	5949.69
615.311	6263.03
615.513	6574.32
615.714	6652.14
615.916	6056.18
616.117	6248.69
616.319	6424.82
616.52	6639.86
616.722	6179.06
616.923	6269.17
617.124	6748.4
617.326	6465.78
617.527	6228.21
617.729	6486.26
617.93	6648.05
618.131	6748.4
618.333	6289.65
618.534	6404.34
618.735	6539.51
618.937	6852.84
619.138	6127.86
619.339	6295.8
619.54	6875.37
619.742	6586.61
619.943	6646
620.144	6379.76
620.345	6988.01
620.546	6899.95
620.748	6246.65
620.949	6277.37
621.15	6949.1
621.351	6689.01
621.552	6428.92
621.753	6541.55
621.954	6469.87
622.155	7282.92
622.356	6512.88
622.558	6551.79
622.759	6807.79
622.96	7250.15
623.161	6351.09
623.362	6459.63
623.563	6793.45
623.764	6928.62
623.965	6568.18
624.166	6813.93
624.366	6789.36
624.567	6906.09
624.768	6617.33
624.969	6371.57
625.17	6807.79
625.371	7045.35
625.572	6744.3
625.773	6605.04
625.973	7168.23
626.174	7284.97
626.375	6639.86
626.576	6863.08
626.777	7157.99
626.977	7555.3
627.178	6461.68
627.379	6805.74
627.58	7082.22
627.78	7071.98
627.981	6928.62
628.182	6815.98
628.382	7332.07
628.583	6799.6
628.784	6711.53
628.984	6934.76
629.185	7323.88
629.386	7457
629.586	7016.68
629.787	6801.65
629.987	7305.45
630.188	7428.32
630.388	6832.37
630.589	6844.65
630.79	7708.9
630.99	7307.49
631.191	7031.02
631.391	7094.51
631.591	7465.19
631.792	7864.54
631.992	7293.16
632.193	7190.76
632.393	7776.48
632.594	7162.09
632.794	7053.55
632.994	7221.48
633.195	7293.16
633.395	7561.44
633.595	6996.2
633.796	7504.1
633.996	7260.39
634.196	7622.88
634.397	7110.89
634.597	7170.28
634.797	7264.49
634.997	7651.55
635.198	7641.31
635.398	7194.86
635.598	7514.34
635.798	7950.56
635.998	7506.15
636.199	7147.75
636.399	7268.58
636.599	7295.21
636.799	7280.87
636.999	7540.96
637.199	7694.56
637.399	7874.78
637.599	7432.42
637.799	7411.94
637.999	7583.97
638.199	8098.01
638.399	7487.72
638.599	7370.98
638.799	7817.44
638.999	8202.46
639.199	7686.37
639.399	7483.62
639.599	8046.81
639.799	7622.88
639.999	7391.46
640.199	7489.76
640.399	7878.88
640.599	7588.07
640.799	7643.36
640.998	7844.06
641.198	8206.55
641.398	8059.1
641.598	7745.76
641.798	7770.33
641.997	8984.78
642.197	7952.6
642.397	7852.25
642.597	7782.62
642.796	8294.61
642.996	8276.18
643.196	7856.35
643.395	7577.83
643.595	8186.07
643.795	7729.38
643.994	7725.28
644.194	7882.97
644.394	8206.55
644.593	8036.57
644.793	7856.35
644.992	7995.61
645.192	8106.2
645.392	7844.06
645.591	8089.82
645.791	7862.49
645.99	8417.49
646.19	8138.97
646.389	7956.7
646.589	8044.76
646.788	8548.56
646.987	8358.1
647.187	8548.56
647.386	8356.05
647.586	8394.97
647.785	8591.57
647.984	8081.63
648.184	8147.16
648.383	8317.14
648.582	8210.65
648.782	8030.43
648.981	8210.65
649.18	8120.54
649.38	8231.13
649.579	8222.94
649.778	8091.87
649.977	8388.82
650.177	8554.71
650.376	8134.87
650.575	8102.11
650.774	8741.07
650.973	8413.4
651.173	8171.74
651.372	8427.73
651.571	8573.14
651.77	8669.39
651.969	8313.05
652.168	8300.76
652.367	8526.04
652.566	8736.98
652.765	8356.05
652.964	8622.29
653.163	9109.71
653.362	8564.95
653.561	8511.7
653.76	8515.8
653.959	8444.12
654.158	8880.33
654.357	8507.6
654.556	8624.34
654.755	8831.18
654.954	8843.47
655.153	8300.76
655.352	8628.43
655.551	9048.27
655.749	8501.46
655.948	8538.32
656.147	8616.15
656.346	8894.67
656.545	8661.2
656.743	8665.3
656.942	8890.57
657.141	8863.95
657.34	8528.08
657.538	8759.5
657.737	8710.35
657.936	8843.47
658.135	8919.25
658.333	8587.47
658.532	8874.19
658.731	9433.29
658.929	9273.54
659.128	9029.84
659.326	8693.97
659.525	9185.48
659.724	9015.5
659.922	8734.93
660.121	8605.91
660.319	9144.52
660.518	8909.01
660.716	8786.13
660.915	8898.77
661.113	9349.32
661.312	8788.18
661.51	9025.74
661.709	8612.05
661.907	9427.14
662.105	9384.13
662.304	8982.73
662.502	8976.59
662.701	9558.21
662.899	9279.69
663.097	9388.23
663.296	9083.08
663.494	9554.12
663.692	9685.19
663.891	8997.07
664.089	8902.86
664.287	9232.58
664.485	9691.33
664.684	9048.27
664.882	9105.61
665.08	9169.1
665.278	9306.31
665.476	8966.35
665.675	9347.27
665.873	9879.74
666.071	9566.4
666.269	9046.22
666.467	9445.57
666.665	9277.64
666.863	9357.51
667.061	9408.71
667.259	8894.67
667.457	9294.02
667.655	9779.39
667.853	8995.02
668.051	9267.4
668.249	9312.46
668.447	9509.06
668.645	9089.23
668.843	9580.74
669.041	9736.38
669.239	9332.93
669.437	9240.78
669.635	9480.39
669.833	9539.78
670.031	9787.58
670.229	9400.52
670.426	9517.25
670.624	9689.28
670.822	9406.66
671.02	9205.96
671.218	9357.51
671.415	9375.94
671.613	9384.13
671.811	9455.81
672.009	9330.89
672.206	9881.79
672.404	9779.39
672.602	9472.2
672.799	9613.51
672.997	9664.71
673.195	9885.89
673.392	9439.43
673.59	9414.85
673.788	9734.34
673.985	9134.28
674.183	9427.14
674.38	9423.05
674.578	10070.2
674.775	9482.44
674.973	9320.65
675.17	9373.89
675.368	10113.21
675.565	9863.36
675.763	9488.58
675.96	9683.14
676.158	9855.17
676.355	9746.62
676.553	9523.4
676.75	9441.48
676.947	9861.31
677.145	9765.06
677.342	9740.48
677.539	9697.47
677.737	9674.95
677.934	10324.15
678.131	9828.54
678.329	9681.09
678.526	10135.74
678.723	9801.92
678.92	9795.78
679.118	9390.28
679.315	9443.53
679.512	9969.85
679.709	9730.24
679.906	9537.73
680.104	10219.71
680.301	9871.55
680.498	9451.72
680.695	9500.87
680.892	9711.81
681.089	9654.47
681.286	9836.74
681.483	9312.46
681.68	10033.34
681.877	10234.04
682.075	9615.55
682.272	9980.09
682.469	10064.06
682.665	9851.07
682.862	9445.57
683.059	9421
683.256	10025.15
683.453	9996.48
683.65	9793.73
683.847	9738.43
684.044	9822.4
684.241	9742.53
684.438	9982.14
684.635	9523.4
684.831	10358.97
685.028	10389.69
685.225	9683.14
685.422	9767.1
685.619	10037.44
685.815	10004.67
686.012	9703.62
686.209	9691.33
686.405	9720
686.602	10191.03
686.799	9457.86
686.996	9633.99
687.192	9826.5
687.389	10543.28
687.586	9701.57
687.782	9787.58
687.979	10324.15
688.175	10297.53
688.372	9959.61
688.568	9818.3
688.765	9971.9
688.962	10256.57
689.158	9906.37
689.355	9627.84
689.551	10246.33
689.748	9984.19
689.944	9887.93
690.14	9521.35
690.337	10119.35
690.533	9826.5
690.73	10070.2
690.926	9914.56
691.123	10164.41
691.319	9980.09
691.515	9824.45
691.712	9922.75
691.908	10299.58
692.104	10191.03
692.301	9861.31
692.497	9681.09
692.693	10164.41
692.889	10483.89
693.086	9883.84
693.282	9500.87
693.478	10238.14
693.674	10481.85
693.87	9846.98
694.067	9736.38
694.263	10315.96
694.459	9957.57
694.655	10234.04
694.851	10068.16
695.047	10238.14
695.243	10387.64
695.439	10092.73
695.635	9849.02
695.831	10307.77
696.027	10119.35
696.224	9726.14
696.42	10307.77
696.615	10526.9
696.811	10586.29
697.007	9728.19
697.203	9996.48
697.399	10016.96
697.595	10569.91
697.791	9736.38
697.987	10109.12
698.183	9967.81
698.379	9873.6
698.575	10025.15
698.77	9971.9
698.966	10387.64
699.162	10457.27
699.358	9937.09
699.554	9980.09
699.749	10576.05
699.945	10451.13
700.141	10078.4
700.337	10277.05
700.532	10193.08
700.728	9992.38
700.924	10031.29
701.119	9568.45
701.315	10084.54
701.511	10209.47
701.706	10266.81
701.902	9810.11
702.097	10199.23
702.293	10424.5
702.489	10143.93
702.684	9998.52
702.88	10438.84
703.075	10231.99
703.271	10086.59
703.466	9904.32
703.662	10414.26
703.857	10487.99
704.053	10000.57
704.248	9924.8
704.443	10510.52
704.639	10561.72
704.834	10096.83
705.03	10256.57
705.225	10547.38
705.42	10465.46
705.616	10064.06
705.811	9910.46
706.006	10338.49
706.202	10240.19
706.397	10252.47
706.592	10096.83
706.787	10313.91
706.983	10313.91
707.178	10533.04
707.373	10176.7
707.568	10649.78
707.763	10506.42
707.959	10332.34
708.154	9902.27
708.349	10326.2
708.544	10465.46
708.739	10240.19
708.934	9932.99
709.129	10211.51
709.324	10688.69
709.519	10160.31
709.714	10088.64
709.909	10825.9
710.104	10584.24
710.299	10002.62
710.494	10100.92
710.689	10678.45
710.884	10203.32
711.079	10330.3
711.274	10287.29
711.469	10678.45
711.664	10459.32
711.859	10236.09
712.054	10387.64
712.249	10621.11
712.443	10653.87
712.638	10074.3
712.833	10215.61
713.028	10285.24
713.223	10561.72
713.417	10475.7
713.612	10164.41
713.807	10778.8
714.002	11116.72
714.196	10406.07
714.391	10188.99
714.586	10541.24
714.78	10477.75
714.975	10182.84
715.17	10111.16
715.364	10494.13
715.559	10791.09
715.754	9769.15
715.948	10197.18
716.143	10891.44
716.337	10418.36
716.532	10664.11
716.726	10266.81
716.921	10672.31
717.115	10989.74
717.31	10174.65
717.504	10844.34
717.699	10459.32
717.893	10682.55
718.088	10277.05
718.282	10166.46
718.476	10246.33
718.671	10444.98
718.865	10057.92
719.059	10127.55
719.254	10510.52
719.448	10778.8
719.642	11610.28
719.837	9990.33
720.031	10606.77
720.225	10838.19
720.419	10404.02
720.614	10270.9
720.808	10684.59
721.002	10361.02
721.196	9883.84
721.39	10102.97
721.585	10731.7
721.779	10545.33
721.973	9971.9
722.167	9943.23
722.361	10463.41
722.555	10694.83
722.749	10139.83
722.943	10184.89
723.137	9836.74
723.331	10752.18
723.525	10188.99
723.719	10047.68
723.913	10559.67
724.107	10547.38
724.301	10115.26
724.495	10299.58
724.689	10889.39
724.883	10815.66
725.077	10416.31
725.271	10406.07
725.465	10750.13
725.659	10473.65
725.853	10262.71
726.046	10111.16
726.24	10320.06
726.434	10410.17
726.628	10367.16
726.822	10191.03
727.015	10733.75
727.209	10764.47
727.403	10231.99
727.596	10086.59
727.79	10653.87
727.984	10608.82
728.177	10246.33
728.371	10258.62
728.565	10619.06
728.758	10258.62
728.952	10418.36
729.146	10152.12
729.339	10922.16
729.533	10786.99
729.726	10508.47
729.92	10205.37
730.113	10997.93
730.307	10764.47
730.5	10283.19
730.694	10434.74
730.887	10545.33
731.081	10813.62
731.274	10254.52
731.468	10264.76
731.661	10533.04
731.854	10510.52
732.048	10315.96
732.241	10094.78
732.435	10617.01
732.628	10574
732.821	10404.02
733.014	10377.4
733.208	10328.25
733.401	10664.11
733.594	10211.51
733.788	10342.58
733.981	10959.02
734.174	10817.71
734.367	10326.2
734.56	10459.32
734.754	10852.53
734.947	10617.01
735.14	10430.65
735.333	10506.42
735.526	10926.25
735.719	10590.39
735.912	10336.44
736.105	10643.63
736.298	10717.36
736.491	10625.2
736.684	10338.49
736.877	10231.99
737.07	10721.46
737.263	11069.61
737.456	10406.07
737.649	10393.78
737.842	10455.22
738.035	10754.23
738.228	10457.27
738.421	10770.61
738.614	10971.31
738.807	11063.47
739	10373.3
739.192	10346.68
739.385	10696.88
739.578	10971.31
739.771	10768.56
739.964	10428.6
740.156	10743.99
740.349	10873.01
740.542	10465.46
740.735	10328.25
740.927	10416.31
741.12	10668.21
741.313	10156.22
741.505	10588.34
741.698	10954.93
741.891	10758.32
742.083	10705.07
742.276	10414.26
742.468	10782.9
742.661	10924.21
742.854	10670.26
743.046	10494.13
743.239	11112.62
743.431	10883.25
743.624	10508.47
743.816	10260.66
744.009	10617.01
744.201	10848.43
744.393	10662.07
744.586	10483.89
744.778	11069.61
744.971	10743.99
745.163	10705.07
745.355	10537.14
745.548	10807.47
745.74	10571.96
745.932	10586.29
746.125	10692.79
746.317	11192.49
746.509	10737.84
746.702	10653.87
746.894	10586.29
747.086	11026.61
747.278	11032.75
747.471	10784.94
747.663	10637.49
747.855	10918.06
748.047	11131.05
748.239	10504.37
748.431	10436.79
748.623	11182.25
748.815	11215.02
749.008	10428.6
749.2	10334.39
749.392	10873.01
749.584	10864.82
749.776	10537.14
749.968	10543.28
750.16	11245.74
750.352	10711.22
750.544	10467.51
750.736	10326.2
750.928	11077.8
751.12	10762.42
751.311	10561.72
751.503	10635.44
751.695	10946.73
751.887	10752.18
752.079	10307.77
752.271	10285.24
752.463	11655.33
752.654	10979.5
752.846	10635.44
753.038	10657.97
753.23	10447.03
753.421	10897.58
753.613	10367.16
753.805	10934.45
753.997	11094.19
754.188	10926.25
754.38	10471.61
754.572	10643.63
754.763	10729.65
754.955	10877.1
755.146	10754.23
755.338	10561.72
755.53	10920.11
755.721	10696.88
755.913	10387.64
756.104	10430.65
756.296	10743.99
756.487	11081.9
756.679	10338.49
756.87	10281.14
757.062	10385.59
757.253	10780.85
757.445	10483.89
757.636	10680.5
757.827	10561.72
758.019	11309.22
758.21	10311.86
758.401	10436.79
758.593	11139.24
758.784	10969.26
758.975	10324.15
759.167	10254.52
759.358	10707.12
759.549	10803.38
759.74	10404.02
759.932	10227.9
760.123	10913.97
760.314	10352.82
760.505	10522.8
760.696	10510.52
760.888	11008.17
761.079	10596.53
761.27	10119.35
761.461	10199.23
761.652	11245.74
761.843	10459.32
762.034	10244.28
762.225	10563.76
762.416	10678.45
762.607	10602.68
762.798	10492.09
762.989	10336.44
763.18	11221.16
763.371	10735.79
763.562	10229.95
763.753	10143.93
763.944	10715.31
764.135	10645.68
764.326	10459.32
764.517	10227.9
764.708	10627.25
764.899	10680.5
765.089	10227.9
765.28	9971.9
765.471	10582.2
765.662	10535.09
765.853	10379.45
766.043	10135.74
766.234	10682.55
766.425	10477.75
766.615	10283.19
766.806	10209.47
766.997	10680.5
767.187	10545.33
767.378	10102.97
767.569	9863.36
767.759	10467.51
767.95	10401.97
768.141	10475.7
768.331	10252.47
768.522	10342.58
768.712	10631.35
768.903	10193.08
769.093	10045.63
769.284	10766.51
769.474	10119.35
769.665	9779.39
769.855	9773.25
770.046	10483.89
770.236	10268.86
770.426	10393.78
770.617	10078.4
770.807	10512.56
770.998	10483.89
771.188	10213.56
771.378	10160.31
771.569	10574
771.759	10582.2
771.949	9703.62
772.139	9906.37
772.33	10361.02
772.52	10588.34
772.71	9906.37
772.9	9767.1
773.09	10686.64
773.281	10633.4
773.471	9859.26
773.661	10109.12
773.851	10401.97
774.041	10297.53
774.231	10006.72
774.421	10158.27
774.611	10655.92
774.802	10326.2
774.992	10162.36
775.182	9754.82
775.372	10051.77
775.562	10479.8
775.752	9984.19
775.942	9855.17
776.131	10590.39
776.321	10518.71
776.511	9713.86
776.701	9885.89
776.891	10209.47
777.081	9996.48
777.271	9889.98
777.461	9885.89
777.651	10547.38
777.84	10393.78
778.03	10135.74
778.22	9730.24
778.41	10285.24
778.599	9703.62
778.789	9889.98
778.979	9824.45
779.169	9996.48
779.358	10145.98
779.548	10328.25
779.738	9621.7
779.927	10098.88
780.117	9957.57
780.307	9773.25
780.496	9574.6
780.686	10199.23
780.875	10438.84
781.065	9928.89
781.254	9787.58
781.444	9932.99
781.633	10096.83
781.823	9689.28
782.012	9623.75
782.202	9822.4
782.391	10027.2
782.581	9763.01
782.77	9928.89
782.96	10217.66
783.149	9687.23
783.338	9593.03
783.528	9515.2
783.717	10160.31
783.906	10463.41
784.096	9820.35
784.285	9730.24
784.474	9941.18
784.663	9642.18
784.853	9607.36
785.042	9771.2
785.231	9980.09
785.42	10092.73
785.61	9701.57
785.799	9398.47
785.988	9914.56
786.177	9627.84
786.366	9355.46
786.555	9717.95
786.744	10131.64
786.933	9879.74
787.122	9580.74
787.312	9687.23
787.501	9697.47
787.69	10094.78
787.879	9644.23
788.068	9443.53
788.257	9408.71
788.445	9500.87
788.634	9386.18
788.823	9466.05
789.012	10373.3
789.201	10033.34
789.39	9654.47
789.579	9486.53
789.768	9736.38
789.957	9582.79
790.145	9466.05
790.334	9205.96
790.523	9810.11
790.712	9629.89
790.9	9377.99
791.089	9285.83
791.278	10133.69
791.467	9599.17
791.655	9648.32
791.844	9836.74
792.033	9560.26
792.221	9488.58
792.41	9367.75
792.599	9167.05
792.787	9775.3
792.976	9945.28
793.164	9365.7
793.353	9478.34
793.541	9877.69
793.73	9865.41
793.918	9480.39
794.107	9193.67
794.295	9619.65
794.484	9568.45
794.672	9357.51
794.861	9171.15
795.049	9732.29
795.238	10121.4
795.426	9269.45
795.614	9203.91
795.803	9705.67
795.991	10055.87
796.179	9160.91
796.368	9259.21
796.556	9824.45
796.744	9294.02
796.932	9341.13
797.121	9181.39
797.309	9629.89
797.497	9746.62
797.685	9388.23
797.874	9226.44
798.062	9576.64
798.25	9838.78
798.438	9279.69
798.626	9269.45
798.814	9547.97
799.002	10127.55
799.19	9683.14
799.378	9570.5
799.566	9816.26
799.755	9771.2
799.943	9564.36
800.131	9208.01
800.318	9871.55
800.506	9787.58
800.694	9304.26
800.882	9416.9
801.07	9896.13
801.258	9672.9
801.446	9627.84
801.634	9302.22
801.822	9611.46
802.01	9724.1
802.197	9388.23
802.385	9572.55
802.573	9869.5
802.761	9590.98
802.949	9568.45
803.136	9275.59
803.324	10051.77
803.512	9533.64
803.699	9656.51
803.887	9230.54
804.075	10045.63
804.262	9447.62
804.45	9291.98
804.638	9507.01
804.825	9605.31
805.013	9562.31
805.201	9652.42
805.388	9312.46
805.576	9701.57
805.763	10391.73
805.951	9431.24
806.138	9832.64
806.326	10295.48
806.513	9932.99
806.701	9791.68
806.888	9629.89
807.075	9910.46
807.263	10487.99
807.45	9539.78
807.638	9617.6
807.825	10412.21
808.012	10178.75
808.2	9687.23
808.387	10053.82
808.574	10064.06
808.761	10381.49
808.949	9810.11
809.136	9867.45
809.323	9844.93
809.51	9978.05
809.698	10354.87
809.885	10135.74
810.072	10002.62
810.259	10324.15
810.446	9935.04
810.633	9656.51
810.82	10545.33
811.008	10219.71
811.195	9869.5
811.382	9926.85
811.569	10207.42
811.756	9824.45
811.943	9871.55
812.13	10000.57
812.317	10002.62
812.504	10043.58
812.691	10072.25
812.878	10160.31
813.064	10660.02
813.251	10049.72
813.438	9779.39
813.625	10053.82
813.812	10160.31
813.999	10115.26
814.186	10010.81
814.372	9967.81
814.559	10229.95
814.746	10746.03
814.933	9920.7
815.12	10016.96
815.306	9990.33
815.493	9806.02
815.68	10119.35
815.866	10141.88
816.053	10750.13
816.24	10774.7
816.426	9937.09
816.613	9777.34
816.799	10338.49
816.986	10684.59
817.173	9896.13
817.359	9820.35
817.546	10162.36
817.732	9642.18
817.919	9951.42
818.105	10082.49
818.292	10043.58
818.478	10412.21
818.665	10043.58
818.851	9910.46
819.037	10717.36
819.224	10160.31
819.41	9654.47
819.597	9898.17
819.783	10799.28
819.969	10221.75
820.156	10062.01
820.342	9849.02
820.528	11030.7
820.714	10008.76
820.901	10266.81
821.087	9914.56
821.273	10492.09
821.459	10193.08
821.646	9834.69
821.832	9885.89
822.018	10412.21
822.204	10098.88
822.39	9801.92
822.576	9906.37
822.762	10238.14
822.948	10131.64
823.134	10100.92
823.32	9996.48
823.507	9818.3
823.693	10129.59
823.879	10332.34
824.065	9580.74
824.25	10225.85
824.436	9967.81
824.622	9840.83
824.808	9679.04
824.994	9914.56
825.18	9867.45
825.366	9824.45
825.552	9631.94
825.738	10029.24
825.923	10420.41
826.109	10062.01
826.295	9699.52
826.481	9869.5
826.667	9875.65
826.852	9906.37
827.038	9509.06
827.224	10408.12
827.409	10510.52
827.595	9480.39
827.781	9746.62
827.966	10213.56
828.152	10248.38
828.338	9795.78
828.523	9586.88
828.709	9803.97
828.894	9984.19
829.08	9586.88
829.266	9486.53
829.451	9730.24
829.637	10019
829.822	9701.57
830.008	9529.54
830.193	10453.17
830.378	10074.3
830.564	9595.07
830.749	9625.79
830.935	9810.11
831.12	9752.77
831.305	9504.96
831.491	9367.75
831.676	9490.63
831.861	9906.37
832.047	9711.81
832.232	9232.58
832.417	10049.72
832.602	9943.23
832.788	9398.47
832.973	9226.44
833.158	9715.91
833.343	9621.7
833.528	9775.3
833.714	9408.71
833.899	9939.13
834.084	10121.4
834.269	9734.34
834.454	9341.13
834.639	9949.37
834.824	9695.43
835.009	9617.6
835.194	9791.68
835.379	9672.9
835.564	9877.69
835.749	9343.17
835.934	9302.22
836.119	9648.32
836.304	9656.51
836.489	9412.81
836.674	9586.88
836.859	9515.2
837.044	9828.54
837.228	9445.57
837.413	9068.75
837.598	9695.43
837.783	9697.47
837.968	9101.51
838.152	9185.48
838.337	9054.41
838.522	9865.41
838.707	9670.85
838.891	9455.81
839.076	9791.68
839.261	9683.14
839.445	9414.85
839.63	9246.92
839.815	9783.49
839.999	9502.92
840.184	9253.06
840.368	9158.86
840.553	9486.53
840.737	9646.27
840.922	9138.38
841.106	9134.28
841.291	9431.24
841.475	9435.33
841.66	9281.74
841.844	9035.98
842.029	10019
842.213	8990.92
842.397	9181.39
842.582	8876.24
842.766	9902.27
842.951	9726.14
843.135	9212.1
843.319	9320.65
843.504	9545.92
843.688	9564.36
843.872	8956.11
844.056	9109.71
844.241	9394.37
844.425	9203.91
844.609	9310.41
844.793	8810.7
844.977	9486.53
845.161	9488.58
845.346	8597.71
845.53	8935.63
845.714	9025.74
845.898	9644.23
846.082	8726.74
846.266	9021.64
846.45	9054.41
846.634	9273.54
846.818	8960.2
847.002	9013.45
847.186	9423.05
847.37	8968.4
847.554	8773.84
847.738	8943.82
847.922	9224.39
848.106	9267.4
848.29	8835.28
848.473	8771.79
848.657	9435.33
848.841	9083.08
849.025	8812.75
849.209	8554.71
849.392	9169.1
849.576	9066.7
849.76	8397.01
849.944	8939.72
850.127	9447.62
850.311	8677.58
850.495	8720.59
850.678	8691.92
850.862	9177.29
851.046	9255.11
851.229	8947.92
851.413	8583.38
851.596	9050.32
851.78	8941.77
851.964	8841.42
852.147	8794.32
852.331	9578.69
852.514	9230.54
852.698	8857.81
852.881	8718.54
853.065	9300.17
853.248	8962.25
853.431	8818.89
853.615	8642.77
853.798	9466.05
853.982	8995.02
854.165	8638.67
854.348	8507.6
854.532	8720.59
854.715	8886.48
854.898	8771.79
855.081	8607.95
855.265	9029.84
855.448	9216.2
855.631	8386.77
855.814	8755.41
855.997	9105.61
856.181	8616.15
856.364	8603.86
856.547	8556.75
856.73	8992.97
856.913	8849.61
857.096	8583.38
857.279	8435.92
857.462	8517.84
857.645	9074.89
857.828	8526.04
858.011	8648.91
858.194	8693.97
858.377	8876.24
858.56	8419.54
858.743	8337.62
858.926	8435.92
859.109	8671.44
859.292	8440.02
859.475	8116.44
859.658	8915.15
859.841	8779.98
860.023	8161.5
860.206	8210.65
860.389	8911.05
860.572	8870.09
860.755	8335.57
860.937	8288.47
861.12	8308.95
861.303	8538.32
861.486	8192.22
861.668	8012
861.851	8704.21
862.034	8618.19
862.216	8272.09
862.399	8001.76
862.581	8607.95
862.764	8714.45
862.947	8175.83
863.129	8081.63
863.312	8114.39
863.494	8536.28
863.677	8544.47
863.859	7758.05
864.042	8548.56
864.224	8554.71
864.406	8278.23
864.589	7827.68
864.771	8440.02
864.954	8028.38
865.136	8095.96
865.318	7866.59
865.501	8292.57
865.683	7809.25
865.865	7837.92
866.048	7870.69
866.23	8442.07
866.412	8227.03
866.594	7749.86
866.777	8079.58
866.959	8468.69
867.141	8153.3
867.323	8255.7
867.505	8050.91
867.687	8022.23
867.869	8292.57
868.052	7811.29
868.234	7901.4
868.416	8112.35
868.598	8483.03
868.78	7876.83
868.962	7833.82
869.144	8394.97
869.326	8265.94
869.508	7825.63
869.69	7839.97
869.872	7850.21
870.054	8409.3
870.236	7702.75
870.417	8001.76
870.599	8141.02
870.781	8478.93
870.963	7839.97
871.145	7903.45
871.327	7839.97
871.508	8265.94
871.69	7680.22
871.872	7983.32
872.054	8227.03
872.235	8259.8
872.417	7893.21
872.599	7758.05
872.78	8415.44
872.962	8161.5
873.144	7592.16
873.325	7813.34
873.507	8423.64
873.689	8282.33
873.87	7792.86
874.052	8038.62
874.233	7960.8
874.415	8351.96
874.596	7743.71
874.778	7518.43
874.959	8196.31
875.141	8454.36
875.322	7751.9
875.503	7913.69
875.685	8106.2
875.866	7743.71
876.048	7766.24
876.229	7741.66
876.41	8095.96
876.592	8249.56
876.773	7766.24
876.954	7784.67
877.136	8579.28
877.317	8134.87
877.498	7706.85
877.679	7622.88
877.86	8448.21
878.042	7958.75
878.223	7966.94
878.404	8298.71
878.585	8407.25
878.766	8460.5
878.947	8079.58
879.128	8114.39
879.309	8585.43
879.49	8485.08
879.672	8050.91
879.853	8012
880.034	8247.51
880.215	8208.6
880.396	8003.8
880.576	7987.42
880.757	8106.2
880.938	8704.21
881.119	8071.39
881.3	8079.58
881.481	8177.88
881.662	9244.87
881.843	7934.17
882.023	8061.15
882.204	8626.39
882.385	8401.11
882.566	8243.42
882.747	8157.4
882.927	8538.32
883.108	8427.73
883.289	8061.15
883.469	8587.47
883.65	8575.19
883.831	8546.51
884.011	8460.5
884.192	8259.8
884.373	8542.42
884.553	8734.93
884.734	8315.09
884.914	8370.39
885.095	9246.92
885.275	9070.79
885.456	8759.5
885.636	8216.79
885.817	8587.47
885.997	8734.93
886.178	8399.06
886.358	8440.02
886.538	8558.8
886.719	9799.87
886.899	8523.99
887.08	8687.82
887.26	9038.03
887.44	8589.52
887.621	8405.21
887.801	8421.59
887.981	9353.41
888.161	8964.3
888.342	8571.09
888.522	8411.35
888.702	9275.59
888.882	9269.45
889.062	8886.48
889.242	8364.25
889.423	9246.92
889.603	8911.05
889.783	8945.87
889.963	8519.89
890.143	8861.9
890.323	9185.48
890.503	8534.23
890.683	8734.93
890.863	9081.03
891.043	8855.76
891.223	8763.6
891.403	8773.84
891.583	9081.03
891.763	9113.8
891.943	8779.98
892.122	8822.99
892.302	8980.68
892.482	8855.76
892.662	8714.45
892.842	8868.05
893.022	9121.99
893.201	8825.04
893.381	8982.73
893.561	8747.22
893.741	9253.06
893.92	8900.81
894.1	8833.23
894.28	8802.51
894.459	9236.68
894.639	9093.32
894.819	8786.13
894.998	8872.14
895.178	9220.3
895.357	9074.89
895.537	8829.13
895.716	8491.22
895.896	8949.96
896.075	9380.04
896.255	8710.35
896.434	8425.68
896.614	9187.53
896.793	9433.29
896.973	8857.81
897.152	8861.9
897.331	9136.33
897.511	9308.36
897.69	8442.07
897.87	9025.74
898.049	9197.77
898.228	8986.83
898.407	8878.29
898.587	8882.38
898.766	8759.5
898.945	9124.04
899.124	8866
899.304	8714.45
899.483	9443.53
899.662	9394.37
899.841	8620.24
900.02	8679.63
900.199	9300.17
900.378	9013.45
900.557	8562.9
900.737	8429.78
900.916	8913.1
901.095	9181.39
901.274	8861.9
901.453	8540.37
901.632	8550.61
901.811	8671.44
901.989	8478.93
902.168	8526.04
902.347	9072.84
902.526	8728.78
902.705	8593.62
902.884	8583.38
903.063	9078.99
903.242	9124.04
903.42	8440.02
903.599	8538.32
903.778	8863.95
903.957	9148.62
904.135	8792.27
904.314	8597.71
904.493	8831.18
904.672	8937.68
904.85	8526.04
905.029	8233.18
905.207	9001.16
905.386	9300.17
905.565	8399.06
905.743	8528.08
905.922	8521.94
906.1	8882.38
906.279	8329.43
906.457	8317.14
906.636	8569.04
906.814	8485.08
906.993	8339.67
907.171	8423.64
907.35	8779.98
907.528	8562.9
907.707	8599.76
907.885	8212.7
908.063	8956.11
908.242	8337.62
908.42	8169.69
908.598	7825.63
908.777	8515.8
908.955	8251.61
909.133	8368.34
909.311	8038.62
909.49	8282.33
909.668	8276.18
909.846	8165.59
910.024	8022.23
910.202	8196.31
910.38	8351.96
910.559	7897.31
910.737	8169.69
910.915	8386.77
911.093	8341.72
911.271	8042.71
911.449	8362.2
911.627	8493.27
911.805	8872.14
911.983	7842.01
912.161	7854.3
912.339	8300.76
912.517	8497.36
912.695	8188.12
912.872	7936.22
913.05	8071.39
913.228	8214.74
913.406	7909.6
913.584	7725.28
913.762	8354.01
913.939	7786.72
914.117	7618.79
914.295	7551.2
914.473	7917.79
914.65	8083.67
914.828	7506.15
915.006	7712.99
915.184	7803.1
915.361	7952.6
915.539	7796.96
915.716	7837.92
915.894	7882.97
916.072	8138.97
916.249	7815.39
916.427	7848.16
916.604	7289.06
916.782	7919.84
916.959	7373.03
917.137	7387.36
917.314	7856.35
917.492	8165.59
917.669	7506.15
917.847	7413.99
918.024	7612.64
918.201	7606.5
918.379	7502.05
918.556	7465.19
918.733	7751.9
918.911	7522.53
919.088	7581.92
919.265	7188.71
919.442	7606.5
919.62	7510.24
919.797	7262.44
919.974	7219.43
920.151	7731.42
920.328	7413.99
920.506	7145.7
920.683	7375.08
920.86	7014.63
921.037	7133.42
921.214	7170.28
921.391	6830.32
921.568	7602.4
921.745	7104.74
921.922	7264.49
922.099	6877.42
922.276	7549.15
922.453	7407.84
922.63	6789.36
922.807	7268.58
922.984	7260.39
923.161	6977.77
923.338	6998.25
923.514	6781.17
923.691	7129.32
923.868	7006.44
924.045	6719.73
924.222	6727.92
924.399	7141.61
924.575	7069.93
924.752	6803.69
924.929	6670.58
925.105	7125.22
925.282	6533.36
925.459	6555.89
925.635	6584.56
925.812	6721.77
925.989	6680.82
926.165	6672.62
926.342	6342.9
926.518	6623.47
926.695	6768.88
926.871	6303.99
927.048	6277.37
927.224	6879.47
927.401	6531.31
927.577	6498.55
927.754	6138.1
927.93	6787.31
928.107	6637.81
928.283	6207.73
928.459	6375.67
928.636	6617.33
928.812	6293.75
928.988	6109.43
929.165	6099.19
929.341	6344.95
929.517	6277.37
929.693	6439.16
929.87	5871.87
930.046	6310.13
930.222	6211.83
930.398	5662.97
930.574	5880.06
930.751	6215.93
930.927	5916.92
931.103	5951.74
931.279	5789.95
931.455	5898.49
931.631	5976.31
931.807	5359.88
931.983	5617.92
932.159	5714.17
932.335	5900.54
932.511	5712.13
932.687	5511.43
932.863	5880.06
933.039	5710.08
933.215	5484.8
933.391	5302.53
933.566	5640.45
933.742	5634.3
933.918	5429.51
934.094	5060.87
934.27	5482.75
934.445	5556.48
934.621	5423.36
934.797	5069.06
934.973	5406.98
935.148	5359.88
935.324	4868.36
935.5	4694.29
935.675	5398.79
935.851	5118.22
936.027	4696.33
936.202	4595.98
936.378	4972.81
936.553	4854.03
936.729	5030.15
936.904	4327.7
937.08	4376.85
937.255	4436.24
937.431	4262.16
937.606	4045.08
937.782	4296.98
937.957	4307.22
938.133	4143.38
938.308	3680.54
938.483	4249.88
938.659	3920.15
938.834	3643.68
939.009	3592.48
939.185	3782.94
939.36	3756.32
939.535	3258.66
939.71	3713.31
939.886	3954.97
940.061	3830.04
940.236	3594.53
940.411	3377.44
940.586	3662.11
940.761	3717.4
940.937	3322.15
941.112	3254.56
941.287	3598.62
941.462	3455.26
941.637	3051.81
941.812	3162.41
941.987	3375.39
942.162	3158.31
942.337	3244.32
942.512	3043.62
942.687	3336.48
942.862	3410.21
943.037	2851.11
943.212	2570.54
943.386	3023.14
943.561	3197.22
943.736	3039.53
943.911	3209.51
944.086	3103.01
944.26	3111.21
944.435	2812.2
944.61	2947.37
944.785	3397.92
944.959	3506.46
945.134	2859.31
945.309	2836.78
945.483	2865.45
945.658	3213.6
945.833	2498.86
946.007	2631.98
946.182	3422.5
946.357	2810.15
946.531	2718
946.706	2634.03
946.88	2703.66
947.055	3045.67
947.229	2707.76
947.404	2619.69
947.578	3164.45
947.752	3088.68
947.927	2627.89
948.101	2459.95
948.276	3006.76
948.45	2976.04
948.624	2801.96
948.799	2777.39
948.973	3201.32
949.147	2513.2
949.321	2838.83
949.496	2871.59
949.67	3172.64
949.844	2939.18
950.018	2804.01
950.193	2834.73
950.367	3350.82
950.541	3017
950.715	2847.02
950.889	3004.71
951.063	2926.89
951.237	3148.07
951.411	2607.41
951.585	2586.93
951.759	3236.13
951.933	3004.71
952.107	2670.89
952.281	3010.86
952.455	3391.78
952.629	3146.02
952.803	2718
952.977	2775.34
953.151	3211.56
953.325	3051.81
953.499	3053.86
953.672	2699.56
953.846	2853.16
954.02	2967.85
954.194	2730.28
954.368	2656.56
954.541	3168.55
954.715	2890.03
954.889	2853.16
955.062	2593.07
955.236	3070.25
955.41	2804.01
955.583	2951.46
955.757	2619.69
955.93	2806.06
956.104	2736.43
956.278	2820.39
956.451	2742.57
956.625	3008.81
956.798	3461.41
956.972	3072.29
957.145	2756.91
957.319	2951.46
957.492	2890.03
957.665	2801.96
957.839	2668.84
958.012	3168.55
958.185	2783.53
958.359	2687.28
958.532	2871.59
958.705	3094.82
958.879	3010.86
959.052	2824.49
959.225	2412.85
959.398	2871.59
959.572	3004.71
959.745	2672.94
959.918	2758.96
960.091	2773.29
960.264	2973.99
960.438	2541.87
960.611	2476.34
960.784	3094.82
960.957	2697.52
961.13	2920.74
961.303	2597.17
961.476	2906.41
961.649	3021.1
961.822	2400.56
961.995	2765.1
962.168	3090.73
962.341	2853.16
962.514	2683.18
962.686	2556.21
962.859	2894.12
963.032	2863.4
963.205	2515.25
963.378	2476.34
963.551	2861.35
963.723	2722.09
963.896	2681.13
964.069	2660.65
964.242	2793.77
964.414	3000.62
964.587	2670.89
964.76	2668.84
964.932	2836.78
965.105	2740.52
965.278	2603.31
965.45	2521.39
965.623	2799.91
965.795	3047.72
965.968	2556.21
966.14	2386.22
966.313	2711.85
966.485	2810.15
966.658	2642.22
966.83	2492.72
967.003	3057.96
967.175	2885.93
967.348	2597.17
967.52	2570.54
967.692	3146.02
967.865	2949.42
968.037	2584.88
968.209	2814.25
968.382	2822.44
968.554	3047.72
968.726	2591.02
968.898	2494.77
969.071	2861.35
969.243	2844.97
969.415	2500.91
969.587	2613.55
969.759	3193.12
969.932	2832.68
970.104	2472.24
970.276	2242.87
970.448	2652.46
970.62	2562.35
970.792	2588.97
970.964	2490.67
971.136	3166.5
971.308	2625.84
971.48	2292.02
971.652	2410.8
971.824	3074.34
971.996	2578.73
972.168	2416.94
972.339	2478.38
972.511	2875.69
972.683	2582.83
972.855	2603.31
973.027	2421.04
973.199	2656.56
973.37	2844.97
973.542	2613.55
973.714	2482.48
973.886	2636.08
974.057	2867.5
974.229	2212.15
974.401	2341.17
974.572	2363.7
974.744	2218.29
974.915	2275.63
975.087	2212.15
975.259	2955.56
975.43	2359.6
975.602	2236.72
975.773	2165.04
975.945	2345.27
976.116	2765.1
976.288	2259.25
976.459	2494.77
976.63	2464.05
976.802	2652.46
976.973	2294.07
977.145	2519.34
977.316	3014.95
977.487	2892.07
977.659	2539.82
977.83	2320.69
978.001	2953.51
978.172	2582.83
978.344	2236.72
978.515	2242.87
978.686	2394.42
978.857	2828.59
979.028	2218.29
979.2	2183.48
979.371	2734.38
979.542	2509.1
979.713	2353.46
979.884	1730.87
980.055	2220.34
980.226	2287.92
980.397	2212.15
980.568	2072.89
980.739	2623.79
980.91	2345.27
981.081	2300.21
981.252	2081.08
981.423	2611.5
981.594	2824.49
981.765	2052.41
981.936	2238.77
982.106	2332.98
982.277	2660.65
982.448	2113.85
982.619	2224.44
982.79	2314.55
982.96	2574.64
983.131	2197.81
983.302	1907
983.472	2287.92
983.643	2480.43
983.814	2115.89
983.984	2140.47
984.155	2189.62
984.326	2492.72
984.496	2199.86
984.667	1993.01
984.837	2038.07
985.008	2588.97
985.178	2109.75
985.349	2074.93
985.519	2267.44
985.69	2259.25
985.86	2095.41
986.031	1915.19
986.201	2244.92
986.371	2318.64
986.542	1931.58
986.712	1823.03
986.882	2390.32
987.053	2410.8
987.223	1866.04
987.393	2099.51
987.563	2148.66
987.734	2300.21
987.904	2296.11
988.074	1880.38
988.244	2302.26
988.414	2050.36
988.585	1890.62
988.755	1898.81
988.925	2119.99
989.095	2591.02
989.265	2025.78
989.435	2068.79
989.605	2316.59
989.775	2279.73
989.945	2165.04
990.115	1792.31
990.285	2169.14
990.455	2173.24
990.625	1970.49
990.795	1896.76
990.965	2414.9
991.134	1911.1
991.304	1823.03
991.474	1796.41
991.644	2156.85
991.814	2431.28
991.984	1700.16
992.153	1796.41
992.323	1986.87
992.493	2230.58
992.662	1544.51
992.832	1968.44
993.002	2218.29
993.171	2093.37
993.341	1739.07
993.511	1896.76
993.68	1947.96
993.85	2255.15
994.019	1724.73
994.189	1583.42
994.358	1937.72
994.528	1880.38
994.697	1442.11
994.867	1685.82
995.036	2171.19
995.206	1831.23
995.375	1556.8
995.544	1861.94
995.714	2128.18
995.883	1886.52
996.052	1833.27
996.222	1470.78
996.391	2494.77
996.56	1986.87
996.73	1616.19
996.899	1417.54
997.068	2275.63
997.237	1943.86
997.406	1573.18
997.576	1419.58
997.745	1947.96
997.914	1978.68
998.083	1481.02
998.252	1608
998.421	1868.09
998.59	1722.68
998.759	1556.8
998.928	1268.03
999.097	2210.1
999.266	1898.81
999.435	1685.82
999.604	1356.1
999.773	2357.55
999.942	1726.78
1000.111	1407.3
1000.28	1368.38
1000.448	1536.32
1000.617	1558.85
1000.786	1646.91
1000.955	1378.62
1001.124	1931.58
1001.292	2457.9
1001.461	1411.39
1001.63	1382.72
1001.798	2242.87
1001.967	2058.55
1002.136	1284.42
1002.304	1374.53
1002.473	1847.61
1002.642	1827.13
1002.81	1448.26
1002.979	1448.26
1003.147	1927.48
1003.316	2328.88
1003.484	1485.12
1003.653	1460.54
1003.821	2079.03
1003.99	1671.48
1004.158	1495.36
1004.327	1505.6
1004.495	1902.9
1004.663	1554.75
1004.832	1489.21
1005	1341.76
1005.168	1753.4
1005.337	1786.17
1005.505	1235.27
1005.673	1481.02
1005.842	1741.11
1006.01	1825.08
1006.178	1157.44
1006.346	1296.71
1006.514	1706.3
1006.683	1882.42
1006.851	1390.91
1007.019	1255.75
1007.187	1317.19
1007.355	1198.4
1007.523	1134.92
1007.691	1186.12
1007.859	1268.03
1008.027	1800.51
1008.195	1280.32
1008.363	1161.54
1008.531	1759.55
1008.699	1364.29
1008.867	1091.91
1009.035	1286.47
1009.203	1820.99
1009.37	1587.52
1009.538	1231.17
1009.706	1556.8
1009.874	1558.85
1010.042	1507.65
1010.209	1136.96
1010.377	1118.53
1010.545	1831.23
1010.713	1564.99
1010.88	1143.11
1011.048	1212.74
1011.216	1440.06
1011.383	1769.79
1011.551	1100.1
1011.718	1030.47
1011.886	1706.3
1012.054	1478.97
1012.221	1120.58
1012.389	960.84
1012.556	1388.86
1012.724	1829.18
1012.891	1292.61
1013.058	905.54
1013.226	1530.17
1013.393	1648.96
1013.561	977.22
1013.728	897.35
1013.895	1554.75
1014.063	1546.56
1014.23	766.28
1014.397	1018.18
1014.565	1603.9
1014.732	1358.14
1014.899	1077.57
1015.066	883.02
1015.233	1433.92
1015.401	1573.18
1015.568	1093.96
1015.735	1179.97
1015.902	1411.39
1016.069	1386.82
1016.236	977.22
1016.403	938.31
1016.57	1096
1016.737	1497.41
1016.904	940.36
1017.071	868.68
1017.238	1220.93
1017.405	1515.84
1017.572	907.59
1017.739	1085.76
1017.906	1466.69
1018.073	1569.09
1018.24	751.95
1018.407	983.37
1018.573	1483.07
1018.74	1186.12
1018.907	934.22
1019.074	710.99
1019.241	1487.17
1019.407	1214.79
1019.574	829.77
1019.741	842.06
1019.907	1399.1
1020.074	1333.57
1020.241	661.84
1020.407	782.67
1020.574	1442.11
1020.74	1401.15
1020.907	883.02
1021.073	835.91
1021.24	1739.07
1021.406	1593.66
1021.573	821.58
1021.739	870.73
1021.906	1349.95
1022.072	1136.96
1022.239	805.19
1022.405	856.39
1022.571	1241.41
1022.738	1005.89
1022.904	751.95
1023.07	833.86
1023.237	1198.4
1023.403	1386.82
1023.569	784.71
1023.735	827.72
1023.902	1229.12
1024.068	1216.83
1024.234	686.41
1024.4	743.75
1024.566	1175.88
1024.732	1229.12
1024.898	776.52
1025.065	604.49
1025.231	1300.8
1025.397	1026.37
1025.563	821.58
1025.729	721.23
1025.895	704.84
1026.061	864.58
1026.227	577.87
1026.392	715.08
1026.558	1247.55
1026.724	1067.33
1026.89	577.87
1027.056	694.6
1027.222	1190.21
1027.388	923.98
1027.553	682.31
1027.719	739.66
1027.885	1411.39
1028.051	1192.26
1028.216	547.15
1028.382	659.79
1028.548	1270.08
1028.713	977.22
1028.879	514.38
1029.045	794.95
1029.21	1319.23
1029.376	1290.56
1029.541	772.43
1029.707	684.36
1029.873	1165.64
1030.038	1220.93
1030.204	510.29
1030.369	618.83
1030.534	1163.59
1030.7	911.69
1030.865	661.84
1031.031	545.1
1031.196	979.27
1031.361	1009.99
1031.527	588.11
1031.692	573.77
1031.857	620.88
1032.023	1091.91
1032.188	520.53
1032.353	616.78
1032.518	1345.86
1032.684	1012.04
1032.849	422.22
1033.014	579.92
1033.179	1030.47
1033.344	1032.52
1033.509	667.98
1033.674	575.82
1033.839	1159.49
1034.004	1083.72
1034.17	565.58
1034.335	362.83
1034.5	815.43
1034.664	649.55
1034.829	479.57
1034.994	553.29
1035.159	938.31
1035.324	1089.86
1035.489	508.24
1035.654	495.95
1035.819	1182.02
1035.984	989.51
1036.148	573.77
1036.313	477.52
1036.478	1087.81
1036.643	901.45
1036.807	440.65
1036.972	381.26
1037.137	1280.32
1037.301	870.73
1037.466	340.3
1037.631	522.57
1037.795	993.61
1037.96	887.11
1038.124	594.25
1038.289	344.4
1038.454	1112.39
1038.618	952.65
1038.783	452.94
1038.947	534.86
1039.111	870.73
1039.276	723.27
1039.44	454.99
1039.605	979.27
1039.769	731.47
1039.933	710.99
1040.098	483.66
1040.262	733.51
1040.426	946.5
1040.591	962.89
1040.755	379.22
1040.919	426.32
1041.083	840.01
1041.248	751.95
1041.412	252.24
1041.576	334.16
1041.74	747.85
1041.904	936.26
1042.068	340.3
1042.232	409.94
1042.397	971.08
1042.561	764.23
1042.725	153.94
1042.889	586.06
1043.053	969.03
1043.217	874.82
1043.381	483.66
1043.544	246.1
1043.708	940.36
1043.872	430.41
1044.036	162.13
1044.2	133.46
1044.364	1003.85
1044.528	1087.81
1044.691	3258.66
1044.855	244.05
1045.019	946.5
1045.183	911.69
1045.346	387.41
1045.51	262.48
1045.674	860.49
1045.837	874.82
1046.001	338.26
1046.165	381.26
1046.328	1282.37
1046.492	753.99
1046.655	444.75
1046.819	510.29
1046.983	536.91
1047.146	819.53
1047.31	389.46
1047.473	94.55
1047.636	653.64
1047.8	493.9
1047.963	334.16
1048.127	264.53
1048.29	493.9
