Data from Ink_Intensity_USB4F045381__16__00016.txt Node

Date: Mon Jul 17 09:37:02 EDT 2023
User: mmckonesweet
Spectrometer: USB4F04538
Trigger mode: 4
Integration Time (sec): 9.000000E-1
Scans to average: 1
Electric dark correction enabled: true
Nonlinearity correction enabled: false
Boxcar width: 0
XAxis mode: Wavelengths
Number of Pixels in Spectrum: 3648
>>>>>Begin Spectral Data<<<<<
345.52	-1023.47
345.736	-1023.47
345.952	-1023.47
346.168	-1050.1
346.384	-974.32
346.6	-120.32
346.816	-312.83
347.032	-196.09
347.248	289.28
347.464	-183.81
347.68	-77.31
347.896	154.11
348.112	381.43
348.328	-3.58
348.544	-161.28
348.76	16.9
348.975	213.5
349.191	-255.48
349.407	-134.65
349.623	-46.59
349.839	-120.32
350.055	-136.7
350.27	115.2
350.486	121.34
350.702	260.6
350.918	264.7
351.133	-202.24
351.349	96.77
351.565	322.04
351.781	-220.67
351.996	-22.02
352.212	291.32
352.428	-198.14
352.644	-167.42
352.859	-253.44
353.075	272.89
353.291	-136.7
353.506	-153.09
353.722	-251.39
353.938	-105.98
354.153	410.11
354.369	61.95
354.584	-187.9
354.8	215.55
355.016	-282.11
355.231	-187.9
355.447	-58.88
355.662	92.67
355.878	893.43
356.093	-294.4
356.309	-19.97
356.524	-249.34
356.74	174.59
356.955	-202.24
357.171	-24.06
357.386	174.59
357.602	-278.01
357.817	-19.97
358.033	-118.27
358.248	258.56
358.464	64
358.679	-89.6
358.895	-259.58
359.11	-85.5
359.325	229.88
359.541	158.21
359.756	37.38
359.972	-312.83
360.187	184.83
360.402	-216.57
360.618	-175.61
360.833	825.84
361.048	127.49
361.264	-134.65
361.479	10.75
361.694	-38.4
361.909	68.09
362.125	-155.13
362.34	-99.84
362.555	162.3
362.77	33.28
362.986	-288.25
363.201	-148.99
363.416	98.81
363.631	-32.26
363.847	-194.05
364.062	-112.13
364.277	184.83
364.492	43.52
364.707	-91.65
364.922	-384.51
365.138	195.07
365.353	371.19
365.568	-189.95
365.783	-132.61
365.998	23.04
366.213	571.9
366.428	-243.2
366.643	-26.11
366.858	248.32
367.073	57.86
367.288	-93.69
367.503	-300.54
367.718	59.9
367.933	236.03
368.148	-278.01
368.363	-26.11
368.578	-126.46
368.793	430.59
369.008	-177.66
369.223	-181.76
369.438	156.16
369.653	442.87
369.868	-271.87
370.083	-271.87
370.298	61.95
370.513	414.2
370.728	94.72
370.943	-196.09
371.157	-241.15
371.372	387.58
371.587	-261.63
371.802	-280.06
372.017	57.86
372.232	401.91
372.446	-79.36
372.661	-226.81
372.876	127.49
373.091	18.94
373.306	-42.5
373.52	-148.99
373.735	-140.8
373.95	352.76
374.165	-116.22
374.379	-173.57
374.594	-155.13
374.809	6.66
375.023	16.9
375.238	-265.72
375.453	215.55
375.667	-259.58
375.882	-85.5
376.097	-192
376.311	-13.82
376.526	-30.21
376.741	-196.09
376.955	8.7
377.17	565.75
377.384	508.41
377.599	-67.07
377.813	-181.76
378.028	631.29
378.242	123.39
378.457	53.76
378.672	-355.83
378.886	51.71
379.101	-93.69
379.315	-302.59
379.53	-138.75
379.744	193.02
379.958	98.81
380.173	-136.7
380.387	-183.81
380.602	78.33
380.816	-85.5
381.031	-173.57
381.245	-89.6
381.459	193.02
381.674	2443.74
381.888	-153.09
382.103	20.99
382.317	-208.38
382.531	442.87
382.746	-44.54
382.96	-114.17
383.174	-116.22
383.388	354.81
383.603	14.85
383.817	-251.39
384.031	102.91
384.246	430.59
384.46	6.66
384.674	332.28
384.888	18.94
385.103	39.42
385.317	-245.24
385.531	-19.97
385.745	238.08
385.959	244.22
386.174	-167.42
386.388	-198.14
386.602	12.8
386.816	-183.81
387.03	-130.56
387.244	-42.5
387.458	61.95
387.672	348.67
387.887	-237.05
388.101	-304.64
388.315	428.54
388.529	94.72
388.743	-85.5
388.957	-230.91
389.171	358.91
389.385	-177.66
389.599	-101.89
389.813	117.25
390.027	104.96
390.241	594.42
390.455	-79.36
390.669	-116.22
390.883	-112.13
391.097	418.3
391.311	20.99
391.525	-165.37
391.738	197.12
391.952	86.53
392.166	-71.17
392.38	-124.41
392.594	238.08
392.808	293.37
393.022	-73.21
393.236	-54.78
393.449	133.63
393.663	100.86
393.877	-251.39
394.091	-40.45
394.305	-134.65
394.518	-110.08
394.732	-189.95
394.946	-171.52
395.16	483.83
395.373	35.33
395.587	-148.99
395.801	-210.43
396.015	324.09
396.228	215.55
396.442	-148.99
396.656	-337.4
396.869	328.19
397.083	430.59
397.297	-13.82
397.51	-116.22
397.724	477.69
397.938	195.07
398.151	-241.15
398.365	-243.2
398.578	205.31
398.792	371.19
399.005	2.56
399.219	-67.07
399.433	35.33
399.646	246.27
399.86	55.81
400.073	6.66
400.287	221.69
400.5	2.56
400.714	-9.73
400.927	8.7
401.141	182.78
401.354	965.11
401.567	176.64
401.781	-218.62
401.994	293.37
402.208	594.42
402.421	-42.5
402.635	12.8
402.848	20.99
403.061	358.91
403.275	68.09
403.488	-214.52
403.701	543.22
403.915	176.64
404.128	66.05
404.341	-62.98
404.555	143.87
404.768	23.04
404.981	0.51
405.195	-134.65
405.408	518.65
405.621	301.56
405.834	61.95
406.048	-212.48
406.261	463.35
406.474	410.11
406.687	-151.04
406.9	61.95
407.114	59.9
407.327	133.63
407.54	-208.38
407.753	-189.95
407.966	-132.61
408.179	262.65
408.392	-73.21
408.605	-185.85
408.819	170.49
409.032	248.32
409.245	-116.22
409.458	154.11
409.671	233.98
409.884	195.07
410.097	-345.59
410.31	12.8
410.523	233.98
410.736	72.19
410.949	-24.06
411.162	-142.85
411.375	481.78
411.588	299.52
411.801	100.86
412.014	-153.09
412.227	8.7
412.44	-9.73
412.653	-26.11
412.865	64
413.078	320
413.291	231.93
413.504	20.99
413.717	-81.41
413.93	256.51
414.143	-122.37
414.356	-85.5
414.568	-206.33
414.781	252.41
414.994	80.38
415.207	-36.35
415.42	0.51
415.632	322.04
415.845	606.71
416.058	-206.33
416.271	-138.75
416.483	172.54
416.696	565.75
416.909	-118.27
417.121	-132.61
417.334	260.6
417.547	584.18
417.759	-87.55
417.972	-112.13
418.185	-46.59
418.397	342.52
418.61	-134.65
418.823	-87.55
419.035	471.54
419.248	107.01
419.46	-28.16
419.673	18.94
419.885	297.47
420.098	43.52
420.311	-85.5
420.523	-296.44
420.736	287.23
420.948	135.68
421.161	8.7
421.373	-214.52
421.586	190.97
421.798	-97.79
422.01	-183.81
422.223	90.62
422.435	-34.3
422.648	244.22
422.86	-67.07
423.073	-95.74
423.285	487.93
423.497	-89.6
423.71	-110.08
423.922	-116.22
424.134	281.08
424.347	483.83
424.559	168.45
424.771	113.15
424.984	70.14
425.196	262.65
425.408	-208.38
425.621	-218.62
425.833	426.49
426.045	455.16
426.257	-226.81
426.47	-148.99
426.682	205.31
426.894	231.93
427.106	-85.5
427.318	-13.82
427.531	2.56
427.743	336.38
427.955	-79.36
428.167	317.95
428.379	238.08
428.591	-22.02
428.804	80.38
429.016	-60.93
429.228	82.43
429.44	172.54
429.652	115.2
429.864	-140.8
430.076	53.76
430.288	35.33
430.5	-50.69
430.712	35.33
430.924	500.22
431.136	156.16
431.348	-116.22
431.56	39.42
431.772	94.72
431.984	49.66
432.196	-114.17
432.408	0.51
432.62	104.96
432.832	320
433.044	252.41
433.256	96.77
433.468	354.81
433.679	-103.93
433.891	-181.76
434.103	174.59
434.315	475.64
434.527	303.61
434.739	102.91
434.95	-1.54
435.162	471.54
435.374	-7.68
435.586	4.61
435.798	-15.87
436.009	-42.5
436.221	47.62
436.433	66.05
436.645	53.76
436.856	88.57
437.068	379.39
437.28	-26.11
437.491	301.56
437.703	397.82
437.915	301.56
438.126	12.8
438.338	344.57
438.55	172.54
438.761	324.09
438.973	49.66
439.184	55.81
439.396	147.97
439.608	500.22
439.819	-95.74
440.031	193.02
440.242	389.63
440.454	356.86
440.665	156.16
440.877	98.81
441.088	385.53
441.3	70.14
441.511	-46.59
441.723	-26.11
441.934	332.28
442.146	203.26
442.357	217.6
442.569	363
442.78	213.5
442.991	565.75
443.203	363
443.414	-54.78
443.626	477.69
443.837	150.01
444.048	10.75
444.26	61.95
444.471	272.89
444.682	504.31
444.894	-196.09
445.105	-38.4
445.316	487.93
445.528	223.74
445.739	193.02
445.95	107.01
446.161	287.23
446.373	485.88
446.584	166.4
446.795	137.73
447.006	375.29
447.217	647.67
447.429	-34.3
447.64	18.94
447.851	455.16
448.062	264.7
448.273	-56.83
448.484	125.44
448.695	332.28
448.907	70.14
449.118	274.94
449.329	264.7
449.54	182.78
449.751	152.06
449.962	16.9
450.173	213.5
450.384	510.46
450.595	659.96
450.806	129.53
451.017	145.92
451.228	614.9
451.439	446.97
451.65	123.39
451.861	-148.99
452.072	104.96
452.283	297.47
452.494	313.85
452.705	82.43
452.915	651.77
453.126	479.74
453.337	152.06
453.548	72.19
453.759	526.84
453.97	901.62
454.181	389.63
454.391	186.88
454.602	385.53
454.813	438.78
455.024	250.36
455.235	115.2
455.445	371.19
455.656	377.34
455.867	254.46
456.078	147.97
456.288	297.47
456.499	385.53
456.71	107.01
456.921	426.49
457.131	512.5
457.342	420.35
457.553	254.46
457.763	176.64
457.974	487.93
458.184	575.99
458.395	129.53
458.606	129.53
458.816	627.19
459.027	758.26
459.237	336.38
459.448	-83.45
459.659	688.63
459.869	854.51
460.08	72.19
460.29	424.44
460.501	928.24
460.711	254.46
460.922	66.05
461.132	197.12
461.343	1036.78
461.553	176.64
461.764	238.08
461.974	111.1
462.184	596.47
462.395	457.21
462.605	332.28
462.816	168.45
463.026	586.23
463.236	768.5
463.447	201.21
463.657	272.89
463.867	690.68
464.078	387.58
464.288	279.04
464.498	385.53
464.709	401.91
464.919	463.35
465.129	391.67
465.339	254.46
465.55	662.01
465.76	717.3
465.97	365.05
466.18	350.71
466.391	741.88
466.601	571.9
466.811	459.26
467.021	338.43
467.231	666.1
467.441	801.27
467.651	473.59
467.862	125.44
468.072	596.47
468.282	885.23
468.492	389.63
468.702	496.12
468.912	596.47
469.122	1094.13
469.332	645.62
469.542	373.24
469.752	834.04
469.962	643.57
470.172	391.67
470.382	444.92
470.592	842.23
470.802	1038.83
471.012	700.92
471.222	489.98
471.432	1022.45
471.642	864.75
471.852	619
472.062	422.39
472.272	670.2
472.482	532.98
472.691	451.07
472.901	440.83
473.111	768.5
473.321	1235.44
473.531	549.37
473.741	664.05
473.95	954.87
474.16	864.75
474.37	739.83
474.58	494.07
474.79	1174
474.999	1085.94
475.209	522.74
475.419	655.86
475.628	963.06
475.838	1116.65
476.048	821.75
476.258	639.48
476.467	1186.29
476.677	791.03
476.886	920.05
477.096	887.28
477.306	850.42
477.515	1411.56
477.725	881.14
477.935	856.56
478.144	1255.92
478.354	903.67
478.563	868.85
478.773	901.62
478.982	1180.14
479.192	1319.4
479.401	907.76
479.611	788.98
479.82	819.7
480.03	1163.76
480.239	848.37
480.449	745.97
480.658	1579.5
480.868	1104.37
481.077	1047.02
481.287	942.58
481.496	1360.36
481.705	1530.34
481.915	1257.96
482.124	1176.05
482.333	1206.77
482.543	1536.49
482.752	1106.42
482.961	928.24
483.171	1348.08
483.38	1292.78
483.589	1178.09
483.799	1055.22
484.008	1317.36
484.217	1624.55
484.426	1288.68
484.636	932.34
484.845	1382.89
485.054	1196.53
485.263	1456.62
485.472	1286.64
485.682	1880.55
485.891	1612.26
486.1	1053.17
486.309	1210.86
486.518	1520.1
486.727	1757.67
486.936	1184.24
487.146	1452.52
487.355	1747.43
487.564	1284.59
487.773	1577.45
487.982	1350.12
488.191	1468.91
488.4	1618.41
488.609	1468.91
488.818	1450.47
489.027	2091.49
489.236	1970.66
489.445	1542.63
489.654	1348.08
489.863	1905.12
490.072	1716.71
490.281	1737.19
490.49	1554.92
490.698	2015.71
490.907	1939.94
491.116	1516.01
491.325	1419.75
491.534	1970.66
491.743	1673.7
491.952	1659.37
492.16	1671.65
492.369	2005.47
492.578	1884.64
492.787	1700.33
492.996	1477.1
493.204	1790.44
493.413	2240.99
493.622	1544.68
493.831	1536.49
494.039	2222.56
494.248	1782.24
494.457	1784.29
494.665	1520.1
494.874	2021.86
495.083	2423.26
495.291	1841.64
495.5	1724.9
495.709	2208.22
495.917	2032.1
496.126	1892.84
496.335	1733.09
496.543	1866.21
496.752	2142.69
496.96	2044.38
497.169	1671.65
497.377	2054.62
497.586	2439.64
497.794	1911.27
498.003	1653.22
498.211	1976.8
498.42	2445.79
498.628	1984.99
498.837	1935.84
499.045	2294.24
499.254	2347.48
499.462	1946.08
499.671	2009.57
499.879	2583
500.087	2529.75
500.296	1948.13
500.504	2056.67
500.713	2361.82
500.921	2699.73
501.129	1909.22
501.338	2062.82
501.546	2441.69
501.754	2322.91
501.962	2021.86
502.171	2025.95
502.379	2488.79
502.587	2669.02
502.795	2214.37
503.004	2089.44
503.212	2492.89
503.42	2609.62
503.628	2183.65
503.837	2374.11
504.045	2591.19
504.253	2832.85
504.461	2271.71
504.669	2193.89
504.877	2636.25
505.085	2716.12
505.294	2224.61
505.502	2402.78
505.71	2544.09
505.918	2709.97
506.126	2314.72
506.334	2288.09
506.542	2515.42
506.75	2410.97
506.958	2421.21
507.166	2458.07
507.374	2462.17
507.582	3023.31
507.79	2472.41
507.998	2251.23
508.206	2691.54
508.414	2734.55
508.622	2363.87
508.83	2505.18
509.037	2970.07
509.245	2646.49
509.453	2359.77
509.661	2413.02
509.869	2793.94
510.077	2740.69
510.285	2605.53
510.492	2263.52
510.7	3328.46
510.908	2673.11
511.116	2501.08
511.324	2531.8
511.531	2583
511.739	2718.17
511.947	2673.11
512.155	2869.72
512.362	2853.33
512.57	2621.91
512.778	2517.47
512.985	2525.66
513.193	3140.05
513.401	3111.38
513.608	2709.97
513.816	2669.02
514.024	2949.59
514.231	3109.33
514.439	2679.26
514.646	2689.49
514.854	3008.98
515.061	3226.06
515.269	2654.68
515.477	2617.82
515.684	2785.75
515.892	3195.34
516.099	2537.95
516.307	2742.74
516.514	3152.34
516.722	3412.43
516.929	2890.2
517.136	2752.98
517.344	3449.29
517.551	3150.29
517.759	2718.17
517.966	2937.3
518.173	2972.11
518.381	3160.53
518.588	3019.22
518.796	2718.17
519.003	3285.45
519.21	3039.7
519.418	2703.83
519.625	3191.25
519.832	3187.15
520.039	3232.21
520.247	2818.52
520.454	3004.88
520.661	3461.58
520.868	3394
521.076	2959.83
521.283	3064.27
521.49	3738.05
521.697	3336.65
521.904	3008.98
522.112	3111.38
522.319	3520.97
522.526	3355.08
522.733	3045.84
522.94	2988.5
523.147	3348.94
523.354	3563.98
523.561	3000.79
523.768	3273.17
523.975	3717.58
524.183	3529.16
524.39	3289.55
524.597	3117.52
524.804	3404.24
525.011	3273.17
525.218	3258.83
525.425	3314.13
525.632	3922.37
525.838	3271.12
526.045	3111.38
526.252	3277.26
526.459	4260.29
526.666	4305.34
526.873	3219.92
527.08	3226.06
527.287	3766.73
527.494	3764.68
527.701	3291.6
527.907	3369.42
528.114	3797.45
528.321	3563.98
528.528	3504.59
528.735	3447.24
528.941	3766.73
529.148	3455.44
529.355	3641.8
529.562	3451.34
529.768	4075.97
529.975	3594.7
530.182	3512.78
530.388	3408.33
530.595	4024.77
530.802	3373.52
531.008	3686.86
531.215	3688.9
531.422	4467.13
531.628	4440.51
531.835	3783.11
532.042	3772.87
532.248	3783.11
532.455	3824.07
532.661	3772.87
532.868	3668.42
533.074	3940.8
533.281	4137.41
533.487	3772.87
533.694	3498.44
533.9	3656.14
534.107	4053.44
534.313	3729.86
534.52	3774.92
534.726	4020.67
534.933	4434.36
535.139	3693
535.345	3654.09
535.552	4018.63
535.758	4080.07
535.965	3895.75
536.171	3869.12
536.377	4311.49
536.584	4415.93
536.79	4008.39
536.996	4006.34
537.203	4211.14
537.409	4282.81
537.615	3963.33
537.821	4096.45
538.028	4444.6
538.234	4272.57
538.44	4149.7
538.646	3944.9
538.853	4446.65
539.059	4215.23
539.265	4338.11
539.471	3797.45
539.677	4458.94
539.883	4297.15
540.09	4141.5
540.296	4499.9
540.502	4295.1
540.708	4135.36
540.914	4293.05
541.12	4225.47
541.326	4755.9
541.532	4387.26
541.738	4307.39
541.944	4311.49
542.15	4645.31
542.356	4387.26
542.562	4153.79
542.768	4209.09
542.974	5022.13
543.18	4899.25
543.386	4362.69
543.592	4288.96
543.798	4696.5
544.004	4901.3
544.21	4233.66
544.415	4557.24
544.621	4600.25
544.827	4837.81
545.033	4194.75
545.239	4594.11
545.445	4610.49
545.651	4700.6
545.856	4514.24
546.062	4647.35
546.268	4510.14
546.474	4590.01
546.679	4350.4
546.885	4379.07
547.091	4383.17
547.297	5147.06
547.502	4610.49
547.708	4387.26
547.914	4590.01
548.119	4983.22
548.325	4415.93
548.531	4467.13
548.736	5247.41
548.942	4585.91
549.147	4590.01
549.353	4831.67
549.559	5181.87
549.764	4891.06
549.97	4680.12
550.175	4659.64
550.381	5028.28
550.586	4702.65
550.792	4901.3
550.997	4696.5
551.203	5032.37
551.408	4952.5
551.614	4659.64
551.819	4805.05
552.025	5353.9
552.23	5487.02
552.435	4661.69
552.641	4960.69
552.846	4862.39
553.052	5450.16
553.257	4913.59
553.462	4964.79
553.668	4889.01
553.873	5403.05
554.078	4780.47
554.283	4899.25
554.489	5145.01
554.694	5155.25
554.899	4950.45
555.105	5120.43
555.31	5190.06
555.515	5519.79
555.72	5147.06
555.925	4934.07
556.131	5484.97
556.336	5061.04
556.541	4993.46
556.746	5046.71
556.951	5550.51
557.156	5749.16
557.361	5108.15
557.567	5282.22
557.772	5792.17
557.977	5568.94
558.182	5259.7
558.387	5296.56
558.592	5333.42
558.797	5902.76
559.002	5339.57
559.207	5288.37
559.412	5433.77
559.617	5812.65
559.822	5226.93
560.027	5233.07
560.232	5405.1
560.437	5593.51
560.642	5163.44
560.847	5210.54
561.051	5542.32
561.256	5523.88
561.461	5523.88
561.666	5181.87
561.871	5546.41
562.076	5771.69
562.281	5474.73
562.485	5183.92
562.69	5884.33
562.895	5818.79
563.1	5425.58
563.305	5192.11
563.509	5966.24
563.714	6158.75
563.919	5353.9
564.123	5321.13
564.328	5867.94
564.533	5898.66
564.737	5345.71
564.942	5685.67
565.147	6132.13
565.351	6289.82
565.556	5767.59
565.761	5474.73
565.965	5972.39
566.17	5505.45
566.374	5609.9
566.579	5480.88
566.784	5829.03
566.988	5788.07
567.193	5661.1
567.397	5519.79
567.602	5495.21
567.806	5984.68
568.011	5638.57
568.215	5781.93
568.42	5925.29
568.624	5882.28
568.828	5747.11
569.033	5865.89
569.237	6068.64
569.442	6033.83
569.646	5591.47
569.85	5888.42
570.055	5880.23
570.259	6160.8
570.463	6015.4
570.668	5921.19
570.872	5933.48
571.076	6023.59
571.281	5943.72
571.485	6089.12
571.689	6093.22
571.893	6427.04
572.098	6183.33
572.302	5960.1
572.506	6134.18
572.71	6130.08
572.914	6082.98
573.119	5913
573.323	6531.48
573.527	6560.16
573.731	5992.87
573.935	6003.11
574.139	6439.33
574.343	5902.76
574.547	6064.55
574.751	6177.19
574.955	6619.55
575.159	6584.73
575.364	6062.5
575.568	6070.69
575.772	6308.26
575.976	6637.98
576.18	6101.41
576.383	5994.92
576.587	6656.41
576.791	6457.76
576.995	5927.33
577.199	5986.72
577.403	6744.47
577.607	6789.53
577.811	6244.77
578.015	6523.29
578.219	6769.05
578.422	6711.71
578.626	6351.26
578.83	6414.75
579.034	6830.49
579.238	6406.56
579.442	6269.34
579.645	6773.14
579.849	6402.46
580.053	6613.4
580.257	6437.28
580.46	6386.08
580.664	6840.73
580.868	6836.63
581.071	6748.57
581.275	6685.08
581.479	6476.19
581.682	6678.94
581.886	6504.86
582.09	6490.52
582.293	6963.61
582.497	6912.41
582.7	6592.92
582.904	6484.38
583.107	6963.61
583.311	6787.48
583.515	6584.73
583.718	6732.19
583.922	6848.92
584.125	7063.96
584.329	6496.67
584.532	6863.26
584.735	7258.51
584.939	6896.02
585.142	6291.87
585.346	6597.02
585.549	6877.59
585.753	6818.2
585.956	6869.4
586.159	7045.52
586.363	7451.02
586.566	7250.32
586.769	6736.28
586.973	6685.08
587.176	7258.51
587.379	7397.78
587.582	7262.61
587.786	7174.55
587.989	7137.68
588.192	7651.72
588.395	6916.5
588.599	7274.9
588.802	7168.4
589.005	7453.07
589.208	7090.58
589.411	6967.7
589.615	7330.19
589.818	7686.54
590.021	7201.17
590.224	7043.48
590.427	7549.32
590.63	7410.06
590.833	6969.75
591.036	6906.26
591.239	7192.98
591.442	7276.94
591.645	7373.2
591.848	7199.12
592.051	7557.52
592.254	7676.3
592.457	7188.88
592.66	7414.16
592.863	7479.69
593.066	7502.22
593.269	7358.86
593.472	7446.93
593.675	7438.73
593.878	7799.18
594.081	7502.22
594.284	7299.47
594.486	7833.99
594.689	7764.36
594.892	7451.02
595.095	7453.07
595.298	7729.55
595.5	7745.93
595.703	7782.79
595.906	7588.24
596.109	8026.5
596.311	7973.25
596.514	7326.1
596.717	7489.93
596.92	8110.47
597.122	7600.52
597.325	7080.34
597.528	7547.28
597.73	8169.86
597.933	7928.2
598.136	7631.24
598.338	7322
598.541	7969.16
598.743	8032.65
598.946	7670.15
599.148	7600.52
599.351	8044.93
599.554	8151.43
599.756	7858.57
599.959	7838.09
600.161	8161.67
600.363	8442.24
600.566	7899.53
600.768	7745.93
600.971	8386.94
601.173	8001.93
601.376	7782.79
601.578	7760.27
601.78	8298.88
601.983	8472.96
602.185	7801.22
602.388	8169.86
602.59	8382.85
602.792	8190.34
602.995	8012.17
603.197	7637.39
603.399	8278.4
603.601	8200.58
603.804	7862.66
604.006	7938.44
604.208	8094.08
604.41	7653.77
604.613	8233.35
604.815	7793.03
605.017	8831.35
605.219	7999.88
605.421	8206.72
605.623	7901.58
605.826	8667.52
606.028	8446.34
606.23	8216.96
606.432	8018.31
606.634	8753.53
606.836	8528.25
607.038	7811.46
607.24	8089.99
607.442	8405.38
607.644	8366.46
607.846	8151.43
608.048	8188.29
608.25	8558.97
608.452	8399.23
608.654	8475.01
608.856	7817.61
609.058	8397.18
609.26	8450.43
609.462	8401.28
609.664	8356.22
609.866	8929.66
610.067	8743.29
610.269	8466.81
610.471	8221.06
610.673	8341.89
610.875	8380.8
611.077	8268.16
611.278	8434.05
611.48	8479.1
611.682	8890.74
611.884	8448.38
612.085	8438.14
612.287	8368.51
612.489	8667.52
612.69	8241.54
612.892	8436.1
613.094	8812.92
613.295	8638.84
613.497	8180.1
613.699	8507.77
613.9	9070.97
614.102	8798.59
614.304	8458.62
614.505	8096.13
614.707	8737.15
614.908	8706.43
615.11	8210.82
615.311	8708.48
615.513	8737.15
615.714	8821.11
615.916	8401.28
616.117	8548.73
616.319	8542.59
616.52	8903.03
616.722	8247.68
616.923	8583.55
617.124	8950.14
617.326	8714.62
617.527	8659.32
617.729	8800.63
617.93	8907.13
618.131	9058.68
618.333	8548.73
618.534	8503.68
618.735	8444.29
618.937	9390.45
619.138	8405.38
619.339	8571.26
619.54	8857.98
619.742	8780.15
619.943	8827.26
620.144	8397.18
620.345	8952.18
620.546	9097.59
620.748	8735.1
620.949	8690.04
621.15	8978.81
621.351	8817.02
621.552	8630.65
621.753	8589.69
621.954	8477.05
622.155	9369.97
622.356	8704.38
622.558	8792.44
622.759	8896.89
622.96	9257.33
623.161	8681.85
623.362	8825.21
623.563	9120.12
623.764	9077.11
623.965	8769.91
624.166	8995.19
624.366	8956.28
624.567	9034.1
624.768	8460.67
624.969	8737.15
625.17	8948.09
625.371	9279.86
625.572	8831.35
625.773	8855.93
625.973	9406.83
626.174	9154.93
626.375	9130.36
626.576	8862.07
626.777	9265.52
626.977	9619.82
627.178	8845.69
627.379	9169.27
627.58	9009.53
627.78	9396.59
627.981	8958.33
628.182	9136.5
628.382	9230.71
628.583	8790.39
628.784	8657.28
628.984	8991.09
629.185	9421.17
629.386	9183.6
629.586	9062.77
629.787	8962.42
629.987	9255.28
630.188	9216.37
630.388	9075.06
630.589	8800.63
630.79	9818.47
630.99	9347.44
631.191	9263.47
631.391	9058.68
631.591	9539.95
631.792	9685.36
631.992	9437.55
632.193	9124.21
632.393	9746.8
632.594	9197.94
632.794	8997.24
632.994	9380.21
633.195	9245.04
633.395	9548.14
633.595	8984.95
633.796	9458.03
633.996	9347.44
634.196	9824.62
634.397	9177.46
634.597	9654.64
634.797	9179.51
634.997	9877.87
635.198	9550.19
635.398	9044.34
635.598	9814.38
635.798	9984.36
635.998	9679.21
636.199	9435.5
636.399	9249.14
636.599	9453.94
636.799	9673.07
636.999	9544.05
637.199	9611.63
637.399	9918.82
637.599	9425.26
637.799	9429.36
637.999	9578.86
638.199	9865.58
638.399	9574.77
638.599	9273.71
638.799	9802.09
638.999	10105.19
639.199	9722.22
639.399	9523.57
639.599	10062.18
639.799	9611.63
639.999	9388.4
640.199	9619.82
640.399	9806.19
640.599	9490.8
640.799	9941.35
640.998	9720.17
641.198	9910.63
641.398	9623.92
641.598	9701.74
641.798	9587.05
641.997	10619.23
642.197	9720.17
642.397	9867.63
642.597	9621.87
642.796	9935.21
642.996	10226.02
643.196	9804.14
643.395	9443.7
643.595	9865.58
643.795	9705.84
643.994	9740.65
644.194	9732.46
644.394	10223.97
644.593	10117.48
644.793	9572.72
644.992	9955.69
645.192	10097
645.392	9535.85
645.591	9900.39
645.791	9810.28
645.99	10160.48
646.19	10021.22
646.389	9970.02
646.589	9845.1
646.788	10170.72
646.987	10152.29
647.187	10379.62
647.386	10226.02
647.586	10053.99
647.785	10133.86
647.984	9873.77
648.184	10015.08
648.383	10105.19
648.582	9945.45
648.782	9892.2
648.981	10074.47
649.18	9818.47
649.38	10148.2
649.579	9879.91
649.778	9982.31
649.977	10350.95
650.177	10230.12
650.376	9957.74
650.575	9939.3
650.774	10510.69
650.973	10013.03
651.173	9795.95
651.372	10008.94
651.571	10424.67
651.77	10389.86
651.969	9912.68
652.168	10195.3
652.367	10037.61
652.566	10244.45
652.765	10101.09
652.964	10383.71
653.163	10965.34
653.362	10221.92
653.561	10064.23
653.76	10097
653.959	10246.5
654.158	10760.54
654.357	10240.36
654.556	10121.57
654.755	10504.54
654.954	10729.82
655.153	10199.4
655.352	10467.68
655.551	10709.34
655.749	10303.84
655.948	10344.8
656.147	10396
656.346	10967.38
656.545	10488.16
656.743	10387.81
656.942	10369.38
657.141	10604.89
657.34	10258.79
657.538	10299.75
657.737	10352.99
657.936	10672.48
658.135	10572.13
658.333	10258.79
658.532	10578.27
658.731	10871.13
658.929	10590.56
659.128	10676.57
659.326	10400.1
659.525	11030.87
659.724	10596.7
659.922	10402.15
660.121	10328.42
660.319	10719.58
660.518	10309.99
660.716	10457.44
660.915	10447.2
661.113	10920.28
661.312	10539.36
661.51	10477.92
661.709	10576.22
661.907	10856.79
662.105	11182.42
662.304	10361.19
662.502	10488.16
662.701	11125.08
662.899	10623.33
663.097	10641.76
663.296	10434.91
663.494	10967.38
663.692	11182.42
663.891	10484.06
664.089	10400.1
664.287	10611.04
664.485	11114.84
664.684	10488.16
664.882	10510.69
665.08	10776.92
665.278	10813.79
665.476	10359.14
665.675	10760.54
665.873	11266.39
666.071	10975.58
666.269	10692.96
666.467	10711.39
666.665	11039.06
666.863	10785.12
667.061	10844.51
667.259	10498.4
667.457	10903.9
667.655	10989.91
667.853	10408.29
668.051	10649.95
668.249	10424.67
668.447	10965.34
668.645	10484.06
668.843	11147.61
669.041	11008.34
669.239	10746.2
669.437	10803.55
669.635	11071.83
669.833	10875.23
670.031	10969.43
670.229	10768.73
670.426	10805.6
670.624	10873.18
670.822	10645.85
671.02	10899.8
671.218	10883.42
671.415	10787.16
671.613	10934.62
671.811	10758.49
672.009	11047.26
672.206	11155.8
672.404	10799.45
672.602	10826.07
672.799	10760.54
672.997	11000.15
673.195	10979.67
673.392	10881.37
673.59	10484.06
673.788	11043.16
673.985	10441.06
674.183	10926.43
674.38	10649.95
674.578	11237.72
674.775	10772.83
674.973	10785.12
675.17	10596.7
675.368	11366.74
675.565	11080.02
675.763	10637.66
675.96	10711.39
676.158	11157.85
676.355	10834.27
676.553	10824.03
676.75	10660.19
676.947	11002.2
677.145	10946.9
677.342	10920.28
677.539	10891.61
677.737	11219.28
677.934	11446.61
678.131	10959.19
678.329	10643.81
678.526	11200.85
678.723	11067.74
678.92	10758.49
679.118	10672.48
679.315	10611.04
679.512	11268.44
679.709	10826.07
679.906	10758.49
680.104	11354.45
680.301	11188.57
680.498	10541.41
680.695	10662.24
680.892	10924.38
681.089	11047.26
681.286	10846.55
681.483	10510.69
681.68	11075.93
681.877	11241.81
682.075	10672.48
682.272	10905.95
682.469	11137.37
682.665	10905.95
682.862	10746.2
683.059	10557.79
683.256	10946.9
683.453	10686.81
683.65	10709.34
683.847	11014.49
684.044	10914.14
684.241	10877.27
684.438	11086.17
684.635	10647.9
684.831	11419.99
685.028	11485.52
685.225	10846.55
685.422	10652
685.619	10932.57
685.815	10910.04
686.012	10920.28
686.209	10805.6
686.405	10627.42
686.602	11018.58
686.799	10484.06
686.996	10715.48
687.192	10695
687.389	11489.62
687.586	10858.84
687.782	10793.31
687.979	11198.81
688.175	11233.62
688.372	10695
688.568	10725.72
688.765	10652
688.962	11157.85
689.158	11065.69
689.355	10701.15
689.551	10891.61
689.748	10817.88
689.944	10907.99
690.14	10735.96
690.337	11092.31
690.533	10709.34
690.73	10862.94
690.926	11049.3
691.123	11096.41
691.319	10836.31
691.515	10633.57
691.712	10785.12
691.908	11008.34
692.104	10903.9
692.301	10809.69
692.497	10432.86
692.693	11114.84
692.889	11161.94
693.086	10985.82
693.282	10592.61
693.478	10660.19
693.674	11258.2
693.87	10756.44
694.067	10518.88
694.263	11129.17
694.459	10778.97
694.655	10828.12
694.851	10785.12
695.047	10928.47
695.243	10946.9
695.439	10955.1
695.635	10727.77
695.831	11096.41
696.027	10852.7
696.224	10522.98
696.42	10879.32
696.615	11336.02
696.811	11028.82
697.007	10594.65
697.203	10735.96
697.399	11092.31
697.595	11188.57
697.791	10580.32
697.987	10758.49
698.183	10563.93
698.379	10615.13
698.575	10539.36
698.77	10649.95
698.966	10977.62
699.162	11186.52
699.358	10723.68
699.554	10723.68
699.749	11116.89
699.945	11155.8
700.141	10725.72
700.337	10762.59
700.532	10721.63
700.728	10600.8
700.924	10486.11
701.119	10666.33
701.315	10989.91
701.511	10690.91
701.706	10572.13
701.902	10385.76
702.097	10717.53
702.293	10994.01
702.489	10674.53
702.684	10951
702.88	10778.97
703.075	10809.69
703.271	10611.04
703.466	10611.04
703.662	10953.05
703.857	10903.9
704.053	10645.85
704.248	10834.27
704.443	11016.54
704.639	11123.03
704.834	10778.97
705.03	10430.82
705.225	10916.19
705.42	10856.79
705.616	10811.74
705.811	10486.11
706.006	10733.92
706.202	10656.09
706.397	10459.49
706.592	10398.05
706.787	10840.41
706.983	10834.27
707.178	10981.72
707.373	10721.63
707.568	10969.43
707.763	11037.02
707.959	10692.96
708.154	10551.65
708.349	10836.31
708.544	10832.22
708.739	10983.77
708.934	10588.51
709.129	10791.26
709.324	10926.43
709.519	10553.69
709.714	10537.31
709.909	11080.02
710.104	10883.42
710.299	10490.21
710.494	10838.36
710.689	10852.7
710.884	10819.93
711.079	10641.76
711.274	10813.79
711.469	10926.43
711.664	10656.09
711.859	10639.71
712.054	10852.7
712.249	11002.2
712.443	11276.63
712.638	10565.98
712.833	10463.58
713.028	10766.68
713.223	10672.48
713.417	10830.17
713.612	10496.35
713.807	10783.07
714.002	11223.38
714.196	10568.03
714.391	10606.94
714.586	10875.23
714.78	10666.33
714.975	10525.02
715.17	10602.85
715.364	10531.17
715.559	10887.51
715.754	10385.76
715.948	10396
716.143	11290.96
716.337	10905.95
716.532	10805.6
716.726	10455.39
716.921	10828.12
717.115	11247.96
717.31	10424.67
717.504	11016.54
717.699	10613.09
717.893	10910.04
718.088	10203.49
718.282	10185.06
718.476	10645.85
718.671	10778.97
718.865	10490.21
719.059	10367.33
719.254	10662.24
719.448	10809.69
719.642	11661.65
719.837	10232.16
720.031	10826.07
720.225	10918.23
720.419	10252.64
720.614	10246.5
720.808	11071.83
721.002	10682.72
721.196	10309.99
721.39	10598.75
721.585	10975.58
721.779	10565.98
721.973	10369.38
722.167	10078.57
722.361	10400.1
722.555	10821.98
722.749	10295.65
722.943	10232.16
723.137	10305.89
723.331	10604.89
723.525	10338.66
723.719	10568.03
723.913	10498.4
724.107	10770.78
724.301	10309.99
724.495	10508.64
724.689	10828.12
724.883	10899.8
725.077	10346.85
725.271	10281.32
725.465	10844.51
725.659	10451.3
725.853	10430.82
726.046	10242.4
726.24	10183.01
726.434	10697.05
726.628	10416.48
726.822	10189.16
727.015	10910.04
727.209	10699.1
727.403	10400.1
727.596	10174.82
727.79	10637.66
727.984	10717.53
728.177	10199.4
728.371	10541.41
728.565	10752.35
728.758	10359.14
728.952	10377.57
729.146	10119.53
729.339	10805.6
729.533	10529.12
729.726	10516.83
729.92	10461.54
730.113	10830.17
730.307	10617.18
730.5	10393.95
730.694	10211.68
730.887	10340.71
731.081	10781.02
731.274	10234.21
731.468	10342.75
731.661	10488.16
731.854	10406.24
732.048	10459.49
732.241	10199.4
732.435	10365.28
732.628	10557.79
732.821	10197.35
733.014	10385.76
733.208	10119.53
733.401	11077.97
733.594	10125.67
733.788	10367.33
733.981	10801.5
734.174	10510.69
734.367	10459.49
734.56	10465.63
734.754	10600.8
734.947	10613.09
735.14	10328.42
735.333	10486.11
735.526	10735.96
735.719	10441.06
735.912	10275.17
736.105	10168.68
736.298	10340.71
736.491	10316.13
736.684	10232.16
736.877	10385.76
737.07	10410.34
737.263	10938.71
737.456	10402.15
737.649	10361.19
737.842	10338.66
738.035	10414.43
738.228	10111.33
738.421	10510.69
738.614	10813.79
738.807	10905.95
739	10248.55
739.192	10213.73
739.385	10592.61
739.578	10635.61
739.771	10477.92
739.964	10408.29
740.156	10641.76
740.349	10307.94
740.542	10586.46
740.735	10150.25
740.927	10336.61
741.12	10414.43
741.313	10160.48
741.505	10594.65
741.698	10482.02
741.891	10426.72
742.083	10516.83
742.276	10342.75
742.468	10527.07
742.661	10533.22
742.854	10357.09
743.046	10217.83
743.239	10916.19
743.431	10561.89
743.624	10441.06
743.816	10129.77
744.009	10670.43
744.201	10475.87
744.393	10484.06
744.586	10197.35
744.778	10725.72
744.971	10570.08
745.163	10467.68
745.355	10350.95
745.548	10451.3
745.74	10336.61
745.932	10365.28
746.125	10275.17
746.317	10928.47
746.509	10471.78
746.702	10223.97
746.894	10234.21
747.086	10396
747.278	10600.8
747.471	10320.23
747.663	10336.61
747.855	10627.42
748.047	10887.51
748.239	10006.89
748.431	10053.99
748.623	10639.71
748.815	10625.37
749.008	10047.85
749.2	10264.93
749.392	10545.5
749.584	10363.23
749.776	10266.98
749.968	10262.88
750.16	10832.22
750.352	10322.27
750.544	10418.53
750.736	10305.89
750.928	10494.3
751.12	10355.04
751.311	10187.11
751.503	10221.92
751.695	10459.49
751.887	10496.35
752.079	10033.51
752.271	10285.41
752.463	11286.87
752.654	10545.5
752.846	10068.33
753.038	10066.28
753.23	10252.64
753.421	10344.8
753.613	10103.14
753.805	10338.66
753.997	10559.84
754.188	10533.22
754.38	9949.54
754.572	10154.34
754.763	10246.5
754.955	10412.39
755.146	9974.12
755.338	10318.18
755.53	10420.58
755.721	10160.48
755.913	9927.02
756.104	9826.67
756.296	10013.03
756.487	10451.3
756.679	9927.02
756.87	10078.57
757.062	10101.09
757.253	10439.01
757.445	10068.33
757.636	9931.11
757.827	10121.57
758.019	10735.96
758.21	9697.64
758.401	9984.36
758.593	10711.39
758.784	10426.72
758.975	9621.87
759.167	9707.88
759.358	10211.68
759.549	10600.8
759.74	9666.92
759.932	9841
760.123	10383.71
760.314	10111.33
760.505	9699.69
760.696	9666.92
760.888	10514.78
761.079	9910.63
761.27	9841
761.461	9498.99
761.652	10172.77
761.843	9800.04
762.034	9927.02
762.225	10068.33
762.416	9797.99
762.607	10060.13
762.798	9740.65
762.989	9730.41
763.18	10531.17
763.371	9830.76
763.562	9558.38
763.753	9757.04
763.944	10146.15
764.135	10015.08
764.326	9894.25
764.517	9638.25
764.708	9752.94
764.899	10074.47
765.089	9425.26
765.28	9429.36
765.471	9871.72
765.662	9965.93
765.853	9701.74
766.043	9443.7
766.234	9939.3
766.425	9970.02
766.615	9611.63
766.806	9288.05
766.997	10189.16
767.187	9783.66
767.378	9441.65
767.569	9435.5
767.759	9951.59
767.95	9714.03
768.141	9726.32
768.331	9437.55
768.522	9750.89
768.712	10002.79
768.903	9533.81
769.093	9492.85
769.284	10000.74
769.474	9814.38
769.665	9236.85
769.855	9218.42
770.046	9967.98
770.236	9564.53
770.426	9556.33
770.617	9191.8
770.807	9711.98
770.998	9517.42
771.188	9609.58
771.378	9331.06
771.569	9791.85
771.759	9515.37
771.949	9097.59
772.139	9275.76
772.33	9578.86
772.52	10117.48
772.71	9318.77
772.9	9150.84
773.09	10082.66
773.281	9773.42
773.471	9357.68
773.661	9294.19
773.851	9730.41
774.041	9408.88
774.231	9066.87
774.421	9421.17
774.611	9771.37
774.802	9281.91
774.992	8935.8
775.182	9187.7
775.372	9265.52
775.562	9544.05
775.752	9169.27
775.942	9210.23
776.131	9697.64
776.321	9365.87
776.511	9066.87
776.701	9070.97
776.891	9507.18
777.081	9181.56
777.271	9087.35
777.461	9011.57
777.651	9384.3
777.84	9630.06
778.03	9093.49
778.22	8927.61
778.41	9605.49
778.599	9007.48
778.789	9159.03
778.979	8989.05
779.169	9363.83
779.358	9169.27
779.548	9163.12
779.738	8796.54
779.927	9339.25
780.117	9130.36
780.307	9077.11
780.496	8774.01
780.686	9329.01
780.875	9572.72
781.065	9017.72
781.254	8976.76
781.444	9261.43
781.633	9202.04
781.823	8769.91
782.012	8808.83
782.202	9001.33
782.391	9159.03
782.581	8626.56
782.77	9118.07
782.96	9288.05
783.149	9044.34
783.338	8870.26
783.528	8784.25
783.717	9175.41
783.906	9331.06
784.096	8991.09
784.285	8821.11
784.474	8892.79
784.663	8898.94
784.853	8796.54
785.042	8767.87
785.231	8954.23
785.42	9378.16
785.61	8681.85
785.799	8761.72
785.988	8870.26
786.177	8970.62
786.366	8677.76
786.555	8860.02
786.744	9103.73
786.933	8919.42
787.122	8669.56
787.312	8778.11
787.501	8872.31
787.69	8939.9
787.879	8647.04
788.068	8702.33
788.257	8444.29
788.445	8876.41
788.634	8741.24
788.823	8591.74
789.012	9503.09
789.201	9161.08
789.39	8681.85
789.579	8530.3
789.768	8780.15
789.957	8493.44
790.145	8706.43
790.334	8386.94
790.523	8597.88
790.712	8851.83
790.9	8790.39
791.089	8493.44
791.278	8982.9
791.467	8925.56
791.655	8814.97
791.844	8960.38
792.033	8567.17
792.221	8556.93
792.41	8526.21
792.599	8325.5
792.787	8913.27
792.976	8714.62
793.164	8653.18
793.353	8475.01
793.541	8982.9
793.73	8673.66
793.918	8520.06
794.107	8403.33
794.295	8604.03
794.484	8659.32
794.672	8581.5
794.861	8421.76
795.049	8827.26
795.238	8833.4
795.426	8409.47
795.614	8345.98
795.803	8679.8
795.991	9032.05
796.179	8311.17
796.368	8407.42
796.556	8849.78
796.744	8259.97
796.932	8290.69
797.121	8227.2
797.309	8579.45
797.497	8696.19
797.685	8485.25
797.874	8509.82
798.062	8475.01
798.25	8905.08
798.438	8227.2
798.626	8491.39
798.814	8657.28
799.002	9128.31
799.19	8526.21
799.378	8272.26
799.566	8751.48
799.755	8706.43
799.943	8384.9
800.131	8368.51
800.318	8587.64
800.506	8688
800.694	8288.64
800.882	8540.54
801.07	8839.55
801.258	8673.66
801.446	8395.14
801.634	8313.22
801.822	8671.61
802.01	8636.8
802.197	8243.59
802.385	8679.8
802.573	8536.45
802.761	8524.16
802.949	8491.39
803.136	8343.94
803.324	8817.02
803.512	8702.33
803.699	8409.47
803.887	8194.43
804.075	8810.87
804.262	8489.34
804.45	8341.89
804.638	8462.72
804.825	8466.81
805.013	8589.69
805.201	8276.35
805.388	8411.52
805.576	8618.36
805.763	9345.39
805.951	8450.43
806.138	8767.87
806.326	9189.75
806.513	8870.26
806.701	8626.56
806.888	8874.36
807.075	8733.05
807.263	9048.44
807.45	8530.3
807.638	8546.69
807.825	9181.56
808.012	8829.31
808.2	8593.79
808.387	8808.83
808.574	8913.27
808.761	9077.11
808.949	8571.26
809.136	8771.96
809.323	8810.87
809.51	8712.57
809.698	8688
809.885	8692.09
810.072	8964.47
810.259	9091.45
810.446	8515.97
810.633	8558.97
810.82	9238.9
811.008	9212.28
811.195	8765.82
811.382	8671.61
811.569	8890.74
811.756	8526.21
811.943	8700.28
812.13	8702.33
812.317	8710.52
812.504	8839.55
812.691	8874.36
812.878	8622.46
813.064	9216.37
813.251	9146.74
813.438	8577.41
813.625	8839.55
813.812	8728.95
813.999	8982.9
814.186	8833.4
814.372	8692.09
814.559	8892.79
814.746	9181.56
814.933	8714.62
815.12	8925.56
815.306	8671.61
815.493	8845.69
815.68	8737.15
815.866	8716.67
816.053	9126.26
816.24	9542
816.426	8860.02
816.613	8849.78
816.799	9267.57
816.986	9042.29
817.173	8692.09
817.359	8569.21
817.546	9011.57
817.732	8685.95
817.919	8456.57
818.105	8714.62
818.292	8778.11
818.478	8939.9
818.665	8671.61
818.851	8669.56
819.037	9558.38
819.224	8571.26
819.41	8626.56
819.597	8669.56
819.783	8946.04
819.969	9116.02
820.156	8825.21
820.342	8669.56
820.528	9490.8
820.714	8757.63
820.901	8878.46
821.087	8679.8
821.273	9335.15
821.459	8786.3
821.646	8601.98
821.832	8622.46
822.018	8698.24
822.204	8565.12
822.39	8368.51
822.576	8460.67
822.762	8745.34
822.948	8808.83
823.134	8612.22
823.32	8540.54
823.507	8528.25
823.693	8812.92
823.879	8894.84
824.065	8638.84
824.25	8731
824.436	8546.69
824.622	8724.86
824.808	8366.46
824.994	8667.52
825.18	8479.1
825.366	8331.65
825.552	8442.24
825.738	8761.72
825.923	8923.51
826.109	8731
826.295	8438.14
826.481	8483.2
826.667	8573.31
826.852	8513.92
827.038	8249.73
827.224	8855.93
827.409	9163.12
827.595	8286.59
827.781	8468.86
827.966	8915.32
828.152	8612.22
828.338	8266.11
828.523	8325.5
828.709	8333.7
828.894	8694.14
829.08	8313.22
829.266	8452.48
829.451	8438.14
829.637	8499.58
829.822	8452.48
830.008	8374.66
830.193	8630.65
830.378	8749.43
830.564	8341.89
830.749	8182.15
830.935	8608.12
831.12	8452.48
831.305	8075.65
831.491	8108.42
831.676	8147.33
831.861	8616.32
832.047	8153.48
832.232	8008.07
832.417	8509.82
832.602	8405.38
832.788	8165.76
832.973	7993.73
833.158	8405.38
833.343	8417.66
833.528	8198.53
833.714	8286.59
833.899	8483.2
834.084	8849.78
834.269	8382.85
834.454	8110.47
834.639	8358.27
834.824	8204.67
835.009	8157.57
835.194	8337.79
835.379	8487.29
835.564	8475.01
835.749	8126.85
835.934	7903.62
836.119	8440.19
836.304	8153.48
836.489	8073.6
836.674	8176
836.859	7975.3
837.044	8565.12
837.228	8061.32
837.413	7846.28
837.598	8155.52
837.783	8329.6
837.968	7991.69
838.152	7745.93
838.337	7737.74
838.522	8528.25
838.707	8429.95
838.891	8153.48
839.076	8255.87
839.261	8300.93
839.445	7950.73
839.63	8065.41
839.815	8354.18
839.999	7807.37
840.184	7692.68
840.368	7727.5
840.553	8442.24
840.737	8225.15
840.922	7637.39
841.106	7575.95
841.291	7776.65
841.475	8114.56
841.66	7747.98
841.844	7612.81
842.029	8704.38
842.213	7786.89
842.397	7737.74
842.582	7514.51
842.766	8114.56
842.951	8063.36
843.135	7815.56
843.319	7659.92
843.504	7917.96
843.688	8020.36
843.872	7575.95
844.056	7641.48
844.241	7977.35
844.425	7829.9
844.609	7997.83
844.793	7623.05
844.977	7795.08
845.161	7825.8
845.346	7573.9
845.53	7694.73
845.714	7733.64
845.898	8155.52
846.082	7322
846.266	7623.05
846.45	7602.57
846.634	7901.58
846.818	7494.03
847.002	7676.3
847.186	8042.89
847.37	7645.58
847.554	7518.61
847.738	7524.75
847.922	7866.76
848.106	7930.25
848.29	7319.95
848.473	7416.21
848.657	7666.06
848.841	7743.88
849.025	7506.32
849.209	7043.48
849.392	7795.08
849.576	7557.52
849.76	7141.78
849.944	7340.43
850.127	7942.53
850.311	7403.92
850.495	7311.76
850.678	7203.22
850.862	7907.72
851.046	7973.25
851.229	7545.23
851.413	7192.98
851.596	7520.65
851.78	7553.42
851.964	7549.32
852.147	7231.89
852.331	8151.43
852.514	7747.98
852.698	7371.15
852.881	7088.53
853.065	7764.36
853.248	7410.06
853.431	7311.76
853.615	7438.73
853.798	8063.36
853.982	7467.41
854.165	7285.14
854.348	7301.52
854.532	7313.81
854.715	7205.27
854.898	7311.76
855.081	7270.8
855.265	7655.82
855.448	7721.35
855.631	7059.86
855.814	7229.84
855.997	7631.24
856.181	7328.14
856.364	7160.21
856.547	7020.95
856.73	7352.72
856.913	7403.92
857.096	6822.3
857.279	7186.83
857.462	7233.94
857.645	7393.68
857.828	7199.12
858.011	7252.37
858.194	7172.5
858.377	7674.25
858.56	7047.57
858.743	7027.09
858.926	6941.08
859.109	7432.59
859.292	7072.15
859.475	7027.09
859.658	7467.41
859.841	7322
860.023	7037.33
860.206	6916.5
860.389	7186.83
860.572	7479.69
860.755	7070.1
860.937	6994.33
861.12	6936.98
861.303	7057.81
861.486	6834.58
861.668	6756.76
861.851	7322
862.034	7322
862.216	6934.93
862.399	6605.21
862.581	7010.71
862.764	7467.41
862.947	6924.69
863.129	6738.33
863.312	6666.65
863.494	7281.04
863.677	6939.03
863.859	6461.85
864.042	7018.9
864.224	7330.19
864.406	6861.21
864.589	6511
864.771	6861.21
864.954	6627.74
865.136	6642.07
865.318	6414.75
865.501	6994.33
865.683	6562.2
865.865	6506.91
866.048	6734.23
866.23	6953.37
866.412	6912.41
866.594	6513.05
866.777	6490.52
866.959	7059.86
867.141	6746.52
867.323	6785.43
867.505	6621.59
867.687	6793.62
867.869	6873.5
868.052	6615.45
868.234	6427.04
868.416	6744.47
868.598	6670.75
868.78	6674.84
868.962	6611.36
869.144	6881.69
869.326	7078.29
869.508	6429.09
869.69	6560.16
869.872	6662.55
870.054	6857.11
870.236	6543.77
870.417	6527.39
870.599	6617.5
870.781	7127.44
870.963	6613.4
871.145	6437.28
871.327	6594.97
871.508	6816.15
871.69	6412.7
871.872	6539.68
872.054	6683.03
872.235	6635.93
872.417	6627.74
872.599	6347.17
872.78	7033.24
872.962	6791.58
873.144	6236.58
873.325	6568.35
873.507	6871.45
873.689	6715.8
873.87	6246.82
874.052	6511
874.233	6633.88
874.415	6900.12
874.596	6474.14
874.778	6381.98
874.959	6775.19
875.141	6836.63
875.322	6455.71
875.503	6439.33
875.685	6936.98
875.866	6365.6
876.048	6517.15
876.229	6375.84
876.41	6723.99
876.592	6740.38
876.773	6379.93
876.954	6414.75
877.136	6932.89
877.317	6574.49
877.498	6328.74
877.679	6506.91
877.86	6652.31
878.042	6723.99
878.223	6470.05
878.404	6654.36
878.585	6879.64
878.766	7104.92
878.947	6771.1
879.128	6726.04
879.309	6814.1
879.49	6977.94
879.672	6560.16
879.853	6617.5
880.034	6623.64
880.215	6832.54
880.396	6611.36
880.576	6500.76
880.757	6562.2
880.938	7246.23
881.119	6527.39
881.3	6603.16
881.481	6680.99
881.662	7797.13
881.843	6654.36
882.023	6633.88
882.204	6896.02
882.385	6947.22
882.566	6730.14
882.747	6777.24
882.927	6943.13
883.108	6922.65
883.289	6723.99
883.469	6982.04
883.65	6861.21
883.831	7070.1
884.011	6801.82
884.192	6836.63
884.373	7152.02
884.553	7090.58
884.734	6951.32
884.914	7002.52
885.095	7670.15
885.275	7502.22
885.456	7176.59
885.636	6619.55
885.817	7063.96
885.997	7131.54
886.178	6750.62
886.358	6898.07
886.538	7184.79
886.719	7971.21
886.899	6926.74
887.08	7113.11
887.26	7367.06
887.44	6867.35
887.621	6791.58
887.801	6812.06
887.981	7702.92
888.161	7233.94
888.342	7133.59
888.522	7084.44
888.702	7395.73
888.882	7514.51
889.062	7047.57
889.242	6773.14
889.423	7440.78
889.603	7272.85
889.783	7231.89
889.963	6951.32
890.143	7340.43
890.323	7397.78
890.503	6889.88
890.683	7037.33
890.863	7195.03
891.043	7328.14
891.223	7098.77
891.403	7219.6
891.583	7203.22
891.763	7328.14
891.943	7041.43
892.122	7016.85
892.302	7336.34
892.482	7184.79
892.662	7102.87
892.842	7246.23
893.022	7539.08
893.201	6975.89
893.381	7287.18
893.561	7252.37
893.741	7551.37
893.92	7348.62
894.1	7131.54
894.28	7170.45
894.459	7436.69
894.639	7494.03
894.819	7113.11
894.998	7250.32
895.178	7555.47
895.357	7371.15
895.537	7002.52
895.716	6984.09
895.896	7270.8
896.075	7596.43
896.255	6914.45
896.434	6910.36
896.614	7502.22
896.793	7516.56
896.973	7322
897.152	7215.51
897.331	7395.73
897.511	7408.01
897.69	6947.22
897.87	7111.06
898.049	7428.49
898.228	7416.21
898.407	7276.94
898.587	7250.32
898.766	7078.29
898.945	7315.86
899.124	7143.83
899.304	7231.89
899.483	7491.98
899.662	7668.11
899.841	6924.69
900.02	7070.1
900.199	7494.03
900.378	7270.8
900.557	6949.27
900.737	6902.17
900.916	7256.47
901.095	7508.37
901.274	7250.32
901.453	6947.22
901.632	6953.37
901.811	7004.57
901.989	7045.52
902.168	6777.24
902.347	7362.96
902.526	6836.63
902.705	6932.89
902.884	6957.46
903.063	7393.68
903.242	7272.85
903.42	6754.71
903.599	6959.51
903.778	7348.62
903.957	7313.81
904.135	7043.48
904.314	7137.68
904.493	7303.57
904.672	7334.29
904.85	6812.06
905.029	6812.06
905.207	7123.35
905.386	7752.07
905.565	6850.97
905.743	6867.35
905.922	6769.05
906.1	7104.92
906.279	6605.21
906.457	6599.07
906.636	7041.43
906.814	6537.63
906.993	6601.12
907.171	6773.14
907.35	7127.44
907.528	7119.25
907.707	6793.62
907.885	6652.31
908.063	7250.32
908.242	6711.71
908.42	6746.52
908.598	6341.02
908.777	6920.6
908.955	6547.87
909.133	6685.08
909.311	6449.57
909.49	6756.76
909.668	6697.37
909.846	6445.47
910.024	6187.43
910.202	6742.43
910.38	6709.66
910.559	6394.27
910.737	6265.25
910.915	6695.32
911.093	6838.68
911.271	6418.85
911.449	6572.44
911.627	6738.33
911.805	6814.1
911.983	6422.94
912.161	6228.38
912.339	6556.06
912.517	6926.74
912.695	6580.64
912.872	6236.58
913.05	6343.07
913.228	6488.48
913.406	6478.24
913.584	6230.43
913.762	6603.16
913.939	6275.49
914.117	6330.78
914.295	6322.59
914.473	6568.35
914.65	6375.84
914.828	6191.52
915.006	6068.64
915.184	6224.29
915.361	6402.46
915.539	6201.76
915.716	6238.62
915.894	6298.02
916.072	6394.27
916.249	6349.22
916.427	6089.12
916.604	5945.77
916.782	6498.72
916.959	6011.3
917.137	6031.78
917.314	6332.83
917.492	6300.06
917.669	6123.94
917.847	6056.36
918.024	6175.14
918.201	5910.95
918.379	5849.51
918.556	5966.24
918.733	6232.48
918.911	6027.68
919.088	6029.73
919.265	5724.58
919.442	6144.42
919.62	5951.91
919.797	5562.8
919.974	5681.58
920.151	5890.47
920.328	6201.76
920.506	5597.61
920.683	5913
920.86	5685.67
921.037	5657
921.214	5687.72
921.391	5632.43
921.568	5851.56
921.745	5620.14
921.922	5773.74
922.099	5575.08
922.276	5951.91
922.453	5953.96
922.63	5620.14
922.807	5693.87
922.984	5708.2
923.161	5491.12
923.338	5468.59
923.514	5286.32
923.691	5546.41
923.868	5446.06
924.045	5368.24
924.222	5265.84
924.399	5679.53
924.575	5857.7
924.752	5407.15
924.929	5489.07
925.105	5579.18
925.282	5245.36
925.459	5312.94
925.635	5151.15
925.812	5325.23
925.989	5167.54
926.165	5226.93
926.342	4975.03
926.518	5173.68
926.695	5321.13
926.871	5075.38
927.048	4979.12
927.224	5513.64
927.401	5097.91
927.577	5190.06
927.754	4786.61
927.93	5464.49
928.107	5468.59
928.283	4882.87
928.459	5050.8
928.636	5263.79
928.812	5085.62
928.988	4895.16
929.165	4829.62
929.341	5022.13
929.517	4987.32
929.693	5190.06
929.87	4596.15
930.046	5083.57
930.222	4841.91
930.398	4702.65
930.574	4749.75
930.751	4823.48
930.927	4684.22
931.103	4723.13
931.279	4565.43
931.455	4532.67
931.631	4641.21
931.807	4315.58
931.983	4334.01
932.159	4262.33
932.335	4901.3
932.511	4506.04
932.687	4350.4
932.863	4729.27
933.039	4594.11
933.215	4233.66
933.391	4026.82
933.566	4432.32
933.742	4407.74
933.918	4217.28
934.094	3998.15
934.27	4422.08
934.445	4387.26
934.621	4131.26
934.797	4067.78
934.973	4354.49
935.148	4291.01
935.324	3883.46
935.5	3664.33
935.675	4301.25
935.851	3989.96
936.027	3895.75
936.202	3793.35
936.378	4010.43
936.553	3779.01
936.729	3824.07
936.904	3449.29
937.08	3416.52
937.255	3322.32
937.431	3340.75
937.606	3295.69
937.782	3467.72
937.957	3398.09
938.133	3283.41
938.308	3041.75
938.483	3224.01
938.659	3117.52
938.834	3092.94
939.009	2939.35
939.185	3039.7
939.36	2814.42
939.535	2558.42
939.71	2814.42
939.886	3129.81
940.061	2974.16
940.236	2810.33
940.411	2677.21
940.586	3002.83
940.761	2929.11
940.937	2578.9
941.112	2462.17
941.287	2746.84
941.462	2732.5
941.637	2300.38
941.812	2421.21
941.987	2720.21
942.162	2644.44
942.337	2460.12
942.512	2517.47
942.687	2681.3
942.862	2613.72
943.037	2294.24
943.212	2103.78
943.386	2374.11
943.561	2408.92
943.736	2365.92
943.911	2474.46
944.086	2484.7
944.26	2453.98
944.435	2314.72
944.61	2263.52
944.785	2636.25
944.959	2636.25
945.134	2292.19
945.309	2095.58
945.483	2208.22
945.658	2607.58
945.833	1950.18
946.007	2011.62
946.182	2816.47
946.357	2101.73
946.531	2068.96
946.706	2177.5
946.88	1970.66
947.055	2232.8
947.229	2183.65
947.404	2028
947.578	2525.66
947.752	2273.76
947.927	2050.53
948.101	2025.95
948.276	2277.85
948.45	2210.27
948.624	2288.09
948.799	2177.5
948.973	2503.13
949.147	2001.38
949.321	2161.12
949.496	2214.37
949.67	2544.09
949.844	2236.89
950.018	2261.47
950.193	2062.82
950.367	2828.76
950.541	2310.62
950.715	2349.53
950.889	2312.67
951.063	2310.62
951.237	2535.9
951.411	2044.38
951.585	1946.08
951.759	2388.44
951.933	2284
952.107	2161.12
952.281	2220.51
952.455	2709.97
952.629	2533.85
952.803	2091.49
952.977	2034.14
953.151	2568.66
953.325	2453.98
953.499	2300.38
953.672	1935.84
953.846	1933.79
954.02	2257.37
954.194	1989.09
954.368	2126.3
954.541	2480.6
954.715	2140.64
954.889	2216.41
955.062	2079.2
955.236	2320.86
955.41	2292.19
955.583	2247.13
955.757	2021.86
955.93	2193.89
956.104	1968.61
956.278	1956.32
956.451	2132.45
956.625	2456.03
956.798	2902.48
956.972	2376.16
957.145	2046.43
957.319	2208.22
957.492	2232.8
957.665	2355.68
957.839	1972.71
958.012	2318.81
958.185	2114.02
958.359	2148.83
958.532	2286.05
958.705	2521.56
958.879	2429.4
959.052	2097.63
959.225	1767.91
959.398	2284
959.572	2212.32
959.745	2060.77
959.918	2161.12
960.091	2093.54
960.264	2324.96
960.438	1894.88
960.611	2046.43
960.784	2322.91
960.957	2132.45
961.13	2413.02
961.303	1978.85
961.476	2130.4
961.649	2298.33
961.822	1896.93
961.995	2003.43
962.168	2296.28
962.341	2159.07
962.514	2111.97
962.686	2025.95
962.859	2255.33
963.032	2351.58
963.205	1970.66
963.378	1831.4
963.551	2343.39
963.723	2081.25
963.896	1962.47
964.069	2093.54
964.242	2197.98
964.414	2333.15
964.587	2077.15
964.76	2138.59
964.932	2200.03
965.105	2114.02
965.278	1903.07
965.45	1896.93
965.623	2128.35
965.795	2214.37
965.968	1974.75
966.14	1872.36
966.313	2062.82
966.485	2044.38
966.658	1948.13
966.83	1864.16
967.003	2349.53
967.175	2257.37
967.348	1946.08
967.52	1962.47
967.692	2529.75
967.865	2298.33
968.037	2028
968.209	2083.3
968.382	2152.93
968.554	2243.04
968.726	1939.94
968.898	1835.49
969.071	2161.12
969.243	2316.76
969.415	1984.99
969.587	2044.38
969.759	2634.2
969.932	2300.38
970.104	1970.66
970.276	1567.21
970.448	1995.23
970.62	1925.6
970.792	2054.62
970.964	1890.79
971.136	2521.56
971.308	2298.33
971.48	1806.82
971.652	1729
971.824	2388.44
971.996	1821.16
972.168	1853.92
972.339	1864.16
972.511	2355.68
972.683	1905.12
972.855	2017.76
973.027	1782.24
973.199	1980.9
973.37	2138.59
973.542	1978.85
973.714	2044.38
973.886	2075.1
974.057	2167.26
974.229	1794.53
974.401	1874.4
974.572	1786.34
974.744	1542.63
974.915	1749.48
975.087	1599.98
975.259	2394.59
975.43	1825.25
975.602	1786.34
975.773	1661.41
975.945	1794.53
976.116	2124.26
976.288	1690.09
976.459	1923.55
976.63	1843.68
976.802	2056.67
976.973	1692.13
977.145	1927.65
977.316	2353.63
977.487	1903.07
977.659	1862.12
977.83	1847.78
978.001	2286.05
978.172	1874.4
978.344	1665.51
978.515	1767.91
978.686	1892.84
978.857	2083.3
979.028	1690.09
979.2	1618.41
979.371	1997.28
979.542	1950.18
979.713	1733.09
979.884	1335.79
980.055	1630.7
980.226	1880.55
980.397	1602.02
980.568	1640.93
980.739	2238.94
980.91	1786.34
981.081	1839.59
981.252	1481.19
981.423	1984.99
981.594	2146.78
981.765	1575.4
981.936	1716.71
982.106	1905.12
982.277	2030.05
982.448	1538.54
982.619	1784.29
982.79	1614.31
982.96	2152.93
983.131	1772
983.302	1356.27
983.472	1616.36
983.643	1804.77
983.814	1698.28
983.984	1604.07
984.155	1706.47
984.326	1980.9
984.496	1759.72
984.667	1505.77
984.837	1569.26
985.008	2107.87
985.178	1616.36
985.349	1534.44
985.519	1724.9
985.69	1501.67
985.86	1591.78
986.031	1429.99
986.201	1788.39
986.371	1853.92
986.542	1458.67
986.712	1309.16
986.882	1886.69
987.053	1724.9
987.223	1407.47
987.393	1552.87
987.563	1618.41
987.734	1780.2
987.904	1679.85
988.074	1477.1
988.244	1755.62
988.414	1552.87
988.585	1448.43
988.755	1466.86
988.925	1716.71
989.095	1917.41
989.265	1442.28
989.435	1470.95
989.605	1780.2
989.775	1772
989.945	1647.08
990.115	1235.44
990.285	1692.13
990.455	1702.37
990.625	1585.64
990.795	1438.19
990.965	1909.22
991.134	1438.19
991.304	1423.85
991.474	1464.81
991.644	1618.41
991.814	1880.55
991.984	1346.03
992.153	1266.16
992.323	1485.29
992.493	1563.11
992.662	1130.99
992.832	1421.8
993.002	1675.75
993.171	1614.31
993.341	1135.09
993.511	1530.34
993.68	1403.37
993.85	1649.13
994.019	1249.77
994.189	1241.58
994.358	1575.4
994.528	1319.4
994.697	1016.3
994.867	1163.76
995.036	1602.02
995.206	1384.94
995.375	1290.73
995.544	1505.77
995.714	1520.1
995.883	1378.79
996.052	1438.19
996.222	977.39
996.391	2028
996.56	1581.54
996.73	1153.52
996.899	1065.46
997.068	1772
997.237	1335.79
997.406	1227.25
997.576	1163.76
997.745	1516.01
997.914	1458.67
998.083	965.11
998.252	1161.71
998.421	1485.29
998.59	1274.35
998.759	1186.29
998.928	948.72
999.097	1704.42
999.266	1493.48
999.435	1313.26
999.604	997.87
999.773	1868.26
999.942	1245.68
1000.111	1040.88
1000.28	969.2
1000.448	1085.94
1000.617	1178.09
1000.786	1251.82
1000.955	1106.42
1001.124	1462.76
1001.292	1843.68
1001.461	1063.41
1001.63	1100.27
1001.798	1747.43
1001.967	1700.33
1002.136	932.34
1002.304	1040.88
1002.473	1376.75
1002.642	1395.18
1002.81	1137.13
1002.979	905.71
1003.147	1393.13
1003.316	1876.45
1003.484	1090.03
1003.653	971.25
1003.821	1571.3
1003.99	1255.92
1004.158	1141.23
1004.327	1133.04
1004.495	1341.93
1004.663	1118.7
1004.832	1100.27
1005	909.81
1005.168	1458.67
1005.337	1382.89
1005.505	920.05
1005.673	1151.47
1005.842	1356.27
1006.01	1497.58
1006.178	893.43
1006.346	938.48
1006.514	1356.27
1006.683	1415.66
1006.851	856.56
1007.019	795.12
1007.187	954.87
1007.355	727.54
1007.523	674.29
1007.691	799.22
1007.859	979.44
1008.027	1374.7
1008.195	967.15
1008.363	748.02
1008.531	1356.27
1008.699	1014.26
1008.867	825.84
1009.035	901.62
1009.203	1372.65
1009.37	1020.4
1009.538	846.32
1009.706	1200.62
1009.874	1120.75
1010.042	1073.65
1010.209	731.64
1010.377	801.27
1010.545	1296.88
1010.713	1112.56
1010.88	883.19
1011.048	897.52
1011.216	1053.17
1011.383	1438.19
1011.551	756.21
1011.718	735.73
1011.886	1352.17
1012.054	1108.46
1012.221	715.25
1012.389	852.47
1012.556	1022.45
1012.724	1497.58
1012.891	856.56
1013.058	575.99
1013.226	1135.09
1013.393	1139.18
1013.561	600.57
1013.728	625.14
1013.895	1214.96
1014.063	1104.37
1014.23	735.73
1014.397	721.4
1014.565	1200.62
1014.732	885.23
1014.899	653.81
1015.066	584.18
1015.233	915.95
1015.401	1223.15
1015.568	748.02
1015.735	764.4
1015.902	1014.26
1016.069	1143.28
1016.236	735.73
1016.403	768.5
1016.57	903.67
1016.737	1102.32
1016.904	655.86
1017.071	621.05
1017.238	709.11
1017.405	1198.57
1017.572	793.08
1017.739	801.27
1017.906	1083.89
1018.073	1110.51
1018.24	619
1018.407	729.59
1018.573	1147.37
1018.74	795.12
1018.907	684.53
1019.074	563.7
1019.241	1147.37
1019.407	942.58
1019.574	596.47
1019.741	594.42
1019.907	1010.16
1020.074	1137.13
1020.241	528.89
1020.407	428.54
1020.574	1077.74
1020.74	1067.5
1020.907	670.2
1021.073	516.6
1021.24	1389.03
1021.406	1212.91
1021.573	553.46
1021.739	571.9
1021.906	1094.13
1022.072	834.04
1022.239	631.29
1022.405	606.71
1022.571	870.9
1022.738	698.87
1022.904	696.82
1023.07	578.04
1023.237	879.09
1023.403	1047.02
1023.569	530.94
1023.735	590.33
1023.902	905.71
1024.068	1018.35
1024.234	535.03
1024.4	559.61
1024.566	956.91
1024.732	1094.13
1024.898	545.27
1025.065	465.4
1025.231	1008.11
1025.397	774.64
1025.563	547.32
1025.729	438.78
1025.895	367.1
1026.061	522.74
1026.227	436.73
1026.392	496.12
1026.558	1135.09
1026.724	938.48
1026.89	401.91
1027.056	645.62
1027.222	872.95
1027.388	741.88
1027.553	428.54
1027.719	522.74
1027.885	1094.13
1028.051	903.67
1028.216	154.11
1028.382	492.02
1028.548	866.8
1028.713	629.24
1028.879	324.09
1029.045	651.77
1029.21	948.72
1029.376	932.34
1029.541	557.56
1029.707	463.35
1029.873	795.12
1030.038	831.99
1030.204	408.06
1030.369	469.5
1030.534	850.42
1030.7	682.49
1030.865	489.98
1031.031	342.52
1031.196	780.79
1031.361	823.8
1031.527	360.95
1031.692	367.1
1031.857	397.82
1032.023	854.51
1032.188	403.96
1032.353	397.82
1032.518	1036.78
1032.684	823.8
1032.849	270.84
1033.014	420.35
1033.179	854.51
1033.344	897.52
1033.509	430.59
1033.674	332.28
1033.839	979.44
1034.004	872.95
1034.17	373.24
1034.335	293.37
1034.5	586.23
1034.664	590.33
1034.829	209.4
1034.994	424.44
1035.159	803.32
1035.324	655.86
1035.489	377.34
1035.654	352.76
1035.819	950.77
1035.984	668.15
1036.148	412.15
1036.313	406.01
1036.478	891.38
1036.643	653.81
1036.807	238.08
1036.972	197.12
1037.137	1006.06
1037.301	674.29
1037.466	160.25
1037.631	344.57
1037.795	909.81
1037.96	653.81
1038.124	449.02
1038.289	203.26
1038.454	758.26
1038.618	692.73
1038.783	309.76
1038.947	408.06
1039.111	670.2
1039.276	496.12
1039.44	250.36
1039.605	717.3
1039.769	485.88
1039.933	623.09
1040.098	385.53
1040.262	545.27
1040.426	774.64
1040.591	688.63
1040.755	170.49
1040.919	272.89
1041.083	690.68
1041.248	545.27
1041.412	102.91
1041.576	145.92
1041.74	557.56
1041.904	651.77
1042.068	209.4
1042.232	307.71
1042.397	772.6
1042.561	705.01
1042.725	49.66
1042.889	328.19
1043.053	666.1
1043.217	725.49
1043.381	242.17
1043.544	109.05
1043.708	848.37
1043.872	326.14
1044.036	92.67
1044.2	80.38
1044.364	786.93
1044.528	928.24
1044.691	2781.65
1044.855	94.72
1045.019	795.12
1045.183	664.05
1045.346	328.19
1045.51	162.3
1045.674	729.59
1045.837	664.05
1046.001	328.19
1046.165	213.5
1046.328	1042.93
1046.492	596.47
1046.655	395.77
1046.819	244.22
1046.983	446.97
1047.146	696.82
1047.31	352.76
1047.473	51.71
1047.636	569.85
1047.8	311.8
1047.963	246.27
1048.127	160.25
1048.29	367.1
