Data from Ink_Intensity_USB4F045381__143__00143.txt Node

Date: Mon Jul 17 11:24:54 EDT 2023
User: mmckonesweet
Spectrometer: USB4F04538
Trigger mode: 4
Integration Time (sec): 9.000000E-1
Scans to average: 1
Electric dark correction enabled: true
Nonlinearity correction enabled: false
Boxcar width: 0
XAxis mode: Wavelengths
Number of Pixels in Spectrum: 3648
>>>>>Begin Spectral Data<<<<<
345.52	-952.48
345.736	-952.48
345.952	-952.48
346.168	-1048.73
346.384	-977.05
346.6	-84.14
346.816	-317.61
347.032	-204.97
347.248	337.74
347.464	-231.59
347.68	-53.42
347.896	91.99
348.112	333.65
348.328	-108.71
348.544	-114.86
348.76	75.6
348.975	276.31
349.191	-202.92
349.407	-209.06
349.623	59.22
349.839	-84.14
350.055	-112.81
350.27	-8.36
350.486	182.1
350.702	302.93
350.918	327.5
351.133	-178.34
351.349	135
351.565	409.42
351.781	-268.45
351.996	46.93
352.212	261.97
352.428	-155.82
352.644	-166.06
352.859	-278.69
353.075	292.69
353.291	85.84
353.506	-116.9
353.722	-260.26
353.938	-77.99
354.153	454.48
354.369	26.45
354.584	-207.02
354.8	251.73
355.016	-227.5
355.231	-211.11
355.447	-32.94
355.662	130.9
355.878	786.25
356.093	-321.7
356.309	-63.66
356.524	-131.24
356.74	190.29
356.955	-280.74
357.171	-118.95
357.386	149.33
357.602	-237.74
357.817	-94.38
358.033	-129.19
358.248	339.79
358.464	132.95
358.679	-247.97
358.895	-247.97
359.11	30.55
359.325	327.5
359.541	-53.42
359.756	-20.65
359.972	-374.95
360.187	251.73
360.402	-223.4
360.618	-221.35
360.833	1003.33
361.048	108.37
361.264	-245.93
361.479	-59.56
361.694	-20.65
361.909	280.4
362.125	-188.58
362.34	-145.58
362.555	190.29
362.77	51.03
362.986	-383.14
363.201	-221.35
363.416	159.57
363.631	38.74
363.847	-194.73
364.062	-204.97
364.277	182.1
364.492	112.47
364.707	-170.15
364.922	-356.52
365.138	294.74
365.353	347.98
365.568	-338.09
365.783	-155.82
365.998	87.89
366.213	515.92
366.428	-293.03
366.643	42.84
366.858	218.96
367.073	194.39
367.288	-116.9
367.503	-290.98
367.718	120.66
367.933	264.02
368.148	-321.7
368.363	-24.75
368.578	-186.54
368.793	380.75
369.008	-194.73
369.223	-354.47
369.438	223.06
369.653	362.32
369.868	-325.8
370.083	-280.74
370.298	59.22
370.513	411.47
370.728	55.12
370.943	-252.07
371.157	-102.57
371.372	509.77
371.587	-305.32
371.802	-235.69
372.017	44.88
372.232	427.85
372.446	-71.85
372.661	-256.17
372.876	243.54
373.091	139.09
373.306	-108.71
373.52	-327.85
373.735	-106.67
373.95	436.05
374.165	-166.06
374.379	-182.44
374.594	-129.19
374.809	112.47
375.023	-59.56
375.238	-280.74
375.453	264.02
375.667	-256.17
375.882	-145.58
376.097	-200.87
376.311	-34.99
376.526	14.17
376.741	-227.5
376.955	36.69
377.17	526.16
377.384	534.35
377.599	-43.18
377.813	-305.32
378.028	565.07
378.242	208.72
378.457	-84.14
378.672	-270.5
378.886	73.56
379.101	-22.7
379.315	-356.52
379.53	-121
379.744	161.62
379.958	169.81
380.173	-159.91
380.387	-217.26
380.602	141.14
380.816	-63.66
381.031	-129.19
381.245	-155.82
381.459	257.87
381.674	2715.44
381.888	-247.97
382.103	91.99
382.317	-170.15
382.531	540.49
382.746	-118.95
382.96	-178.34
383.174	-39.08
383.388	491.34
383.603	8.02
383.817	-313.51
384.031	184.15
384.246	444.24
384.46	32.6
384.674	245.59
384.888	22.36
385.103	44.88
385.317	-303.27
385.531	-88.23
385.745	341.84
385.959	372.56
386.174	-243.88
386.388	-297.13
386.602	-108.71
386.816	-139.43
387.03	-159.91
387.244	-57.51
387.458	132.95
387.672	337.74
387.887	-321.7
388.101	-323.75
388.315	319.31
388.529	159.57
388.743	-133.29
388.957	-274.6
389.171	360.27
389.385	-178.34
389.599	-121
389.813	-47.27
390.027	223.06
390.241	632.65
390.455	-131.24
390.669	-168.1
390.883	-34.99
391.097	341.84
391.311	-28.84
391.525	-202.92
391.738	255.83
391.952	184.15
392.166	-61.61
392.38	-272.55
392.594	243.54
392.808	272.21
393.022	-96.43
393.236	-116.9
393.449	225.11
393.663	198.48
393.877	-247.97
394.091	-209.06
394.305	-20.65
394.518	-104.62
394.732	-333.99
394.946	-121
395.16	380.75
395.373	145.24
395.587	-235.69
395.801	-207.02
396.015	313.17
396.228	186.19
396.442	-280.74
396.656	-350.37
396.869	335.7
397.083	452.43
397.297	-49.32
397.51	-217.26
397.724	382.8
397.938	73.56
398.151	-366.76
398.365	-336.04
398.578	157.52
398.792	388.94
399.005	38.74
399.219	-133.29
399.433	141.14
399.646	91.99
399.86	18.26
400.073	-6.31
400.287	190.29
400.5	53.08
400.714	-39.08
400.927	-133.29
401.141	169.81
401.354	1058.63
401.567	171.86
401.781	-313.51
401.994	311.12
402.208	644.94
402.421	-102.57
402.635	-55.47
402.848	61.27
403.061	317.26
403.275	-55.47
403.488	-170.15
403.701	513.87
403.915	227.15
404.128	-18.6
404.341	-235.69
404.555	149.33
404.768	-34.99
404.981	-10.41
405.195	-235.69
405.408	450.38
405.621	229.2
405.834	-2.22
406.048	-276.65
406.261	380.75
406.474	448.33
406.687	-211.11
406.9	-49.32
407.114	8.02
407.327	198.48
407.54	-307.37
407.753	-397.48
407.966	-184.49
408.179	221.01
408.392	-254.12
408.605	-409.76
408.819	153.43
409.032	202.58
409.245	-243.88
409.458	24.4
409.671	186.19
409.884	208.72
410.097	-333.99
410.31	-43.18
410.523	186.19
410.736	10.07
410.949	1.88
411.162	-219.3
411.375	470.86
411.588	202.58
411.801	34.64
412.014	-233.64
412.227	34.64
412.44	-51.37
412.653	-164.01
412.865	55.12
413.078	243.54
413.291	186.19
413.504	-123.05
413.717	-174.25
413.93	212.82
414.143	-145.58
414.356	-178.34
414.568	-352.42
414.781	239.44
414.994	108.37
415.207	-176.3
415.42	-92.33
415.632	227.15
415.845	438.09
416.058	-254.12
416.271	-217.26
416.483	-26.79
416.696	466.77
416.909	-276.65
417.121	-194.73
417.334	194.39
417.547	567.12
417.759	-198.82
417.972	-272.55
418.185	-30.89
418.397	268.11
418.61	-225.45
418.823	-233.64
419.035	419.66
419.248	42.84
419.46	-159.91
419.673	-116.9
419.885	208.72
420.098	1.88
420.311	-176.3
420.523	-411.81
420.736	251.73
420.948	40.79
421.161	-243.88
421.373	-366.76
421.586	122.71
421.798	-69.8
422.01	-313.51
422.223	18.26
422.435	-106.67
422.648	239.44
422.86	-190.63
423.073	-200.87
423.285	241.49
423.497	-215.21
423.71	-211.11
423.922	-290.98
424.134	161.62
424.347	350.03
424.559	-61.61
424.771	57.17
424.984	24.4
425.196	157.52
425.408	-407.72
425.621	-297.13
425.833	206.67
426.045	309.07
426.257	-268.45
426.47	-129.19
426.682	91.99
426.894	186.19
427.106	-227.5
427.318	-176.3
427.531	-172.2
427.743	157.52
427.955	-100.52
428.167	194.39
428.379	114.52
428.591	-34.99
428.804	-75.95
429.016	-243.88
429.228	-8.36
429.44	118.61
429.652	8.02
429.864	-358.57
430.076	22.36
430.288	-45.23
430.5	-129.19
430.712	-110.76
430.924	313.17
431.136	163.67
431.348	-379.04
431.56	-276.65
431.772	-2.22
431.984	-80.04
432.196	-229.54
432.408	-184.49
432.62	-43.18
432.832	163.67
433.044	48.98
433.256	-139.43
433.468	128.85
433.679	-256.17
433.891	-282.79
434.103	-22.7
434.315	366.42
434.527	198.48
434.739	-118.95
434.95	-188.58
435.162	214.87
435.374	-94.38
435.586	-196.78
435.798	-207.02
436.009	-258.21
436.221	-47.27
436.433	-233.64
436.645	-227.5
436.856	-63.66
437.068	335.7
437.28	-229.54
437.491	141.14
437.703	91.99
437.915	55.12
438.126	-178.34
438.338	73.56
438.55	44.88
438.761	114.52
438.973	-159.91
439.184	-202.92
439.396	-12.46
439.608	206.67
439.819	-272.55
440.031	-80.04
440.242	200.53
440.454	202.58
440.665	-129.19
440.877	-110.76
441.088	186.19
441.3	-65.71
441.511	-317.61
441.723	-276.65
441.934	59.22
442.146	98.13
442.357	-84.14
442.569	135
442.78	30.55
442.991	448.33
443.203	94.04
443.414	-260.26
443.626	376.66
443.837	-139.43
444.048	-305.32
444.26	-381.09
444.471	69.46
444.682	251.73
444.894	-356.52
445.105	-350.37
445.316	243.54
445.528	141.14
445.739	-90.28
445.95	-114.86
446.161	77.65
446.373	284.5
446.584	-157.86
446.795	-272.55
447.006	182.1
447.217	460.62
447.429	-350.37
447.64	-317.61
447.851	370.51
448.062	53.08
448.273	-405.67
448.484	-293.03
448.695	268.11
448.907	-39.08
449.118	-116.9
449.329	-24.75
449.54	-71.85
449.751	-164.01
449.962	-221.35
450.173	-235.69
450.384	327.5
450.595	386.9
450.806	-219.3
451.017	-211.11
451.228	315.22
451.439	274.26
451.65	-174.25
451.861	-428.2
452.072	-284.84
452.283	28.5
452.494	-112.81
452.705	-151.72
452.915	393.04
453.126	175.95
453.337	-153.77
453.548	-176.3
453.759	382.8
453.97	517.97
454.181	59.22
454.391	-202.92
454.602	81.75
454.813	135
455.024	-170.15
455.235	-200.87
455.445	120.66
455.656	120.66
455.867	30.55
456.078	-282.79
456.288	10.07
456.499	83.8
456.71	-317.61
456.921	32.6
457.131	71.51
457.342	135
457.553	-200.87
457.763	-264.36
457.974	239.44
458.184	141.14
458.395	-202.92
458.606	-280.74
458.816	255.83
459.027	491.34
459.237	-0.17
459.448	-399.52
459.659	307.02
459.869	591.69
460.08	-350.37
460.29	-139.43
460.501	458.57
460.711	-84.14
460.922	-338.09
461.132	-274.6
461.343	667.47
461.553	-293.03
461.764	-293.03
461.974	-313.51
462.184	130.9
462.395	137.04
462.605	-106.67
462.816	-256.17
463.026	184.15
463.236	307.02
463.447	-239.78
463.657	-268.45
463.867	243.54
464.078	-34.99
464.288	-143.53
464.498	-213.16
464.709	-6.31
464.919	-0.17
465.129	-164.01
465.339	-241.83
465.55	173.91
465.76	182.1
465.97	-207.02
466.18	-211.11
466.391	247.63
466.601	126.8
466.811	-166.06
467.021	-354.47
467.231	165.71
467.441	333.65
467.651	-168.1
467.862	-538.79
468.072	-28.84
468.282	350.03
468.492	-215.21
468.702	-209.06
468.912	10.07
469.122	659.28
469.332	143.19
469.542	-319.65
469.752	235.35
469.962	104.28
470.172	-276.65
470.382	-297.13
470.592	243.54
470.802	257.87
471.012	-71.85
471.222	-286.89
471.432	178
471.642	149.33
471.852	-118.95
472.062	-247.97
472.272	-8.36
472.482	-254.12
472.691	-395.43
472.901	-309.41
473.111	48.98
473.321	481.1
473.531	-290.98
473.741	-112.81
473.95	104.28
474.16	214.87
474.37	-153.77
474.58	-284.84
474.79	395.09
474.999	218.96
475.209	-342.18
475.419	-202.92
475.628	-77.99
475.838	309.07
476.048	-155.82
476.258	-309.41
476.467	323.41
476.677	-200.87
476.886	-26.79
477.096	-145.58
477.306	-176.3
477.515	294.74
477.725	-170.15
477.935	-202.92
478.144	290.64
478.354	-86.19
478.563	-211.11
478.773	-301.22
478.982	184.15
479.192	331.6
479.401	-180.39
479.611	-422.05
479.82	-198.82
480.03	46.93
480.239	-264.36
480.449	-415.91
480.658	372.56
480.868	-71.85
481.077	-219.3
481.287	-202.92
481.496	212.82
481.705	313.17
481.915	100.18
482.124	10.07
482.333	106.32
482.543	370.51
482.752	-114.86
482.961	-266.41
483.171	276.31
483.38	46.93
483.589	-159.91
483.799	-284.84
484.008	-18.6
484.217	280.4
484.426	-211.11
484.636	-329.89
484.845	153.43
485.054	-247.97
485.263	83.8
485.472	-161.96
485.682	374.61
485.891	71.51
486.1	-362.66
486.309	-213.16
486.518	196.43
486.727	378.7
486.936	-317.61
487.146	-143.53
487.355	321.36
487.564	-155.82
487.773	-94.38
487.982	-215.21
488.191	-77.99
488.4	5.97
488.609	-235.69
488.818	-250.02
489.027	571.21
489.236	372.56
489.445	-204.97
489.654	-297.13
489.863	311.12
490.072	110.42
490.281	120.66
490.49	-270.5
490.698	386.9
490.907	384.85
491.116	-186.54
491.325	-350.37
491.534	431.95
491.743	118.61
491.952	-106.67
492.16	-159.91
492.369	106.32
492.578	264.02
492.787	-192.68
492.996	-313.51
493.204	-84.14
493.413	448.33
493.622	-475.3
493.831	-413.86
494.039	356.18
494.248	-161.96
494.457	-219.3
494.665	-348.33
494.874	268.11
495.083	599.88
495.291	-178.34
495.5	-364.71
495.709	196.43
495.917	38.74
496.126	-69.8
496.335	-211.11
496.543	-47.27
496.752	118.61
496.96	36.69
497.169	-370.85
497.377	67.41
497.586	323.41
497.794	-100.52
498.003	-387.24
498.211	71.51
498.42	456.53
498.628	-178.34
498.837	-254.12
499.045	169.81
499.254	110.42
499.462	-274.6
499.671	-227.5
499.879	558.92
500.087	339.79
500.296	-313.51
500.504	-178.34
500.713	132.95
500.921	542.54
501.129	-231.59
501.338	-198.82
501.546	182.1
501.754	59.22
501.962	-286.89
502.171	-276.65
502.379	65.36
502.587	505.68
502.795	-151.72
503.004	-147.62
503.212	112.47
503.42	372.56
503.628	-264.36
503.837	-61.61
504.045	282.45
504.253	423.76
504.461	-196.78
504.669	-366.76
504.877	202.58
505.085	458.57
505.294	-338.09
505.502	-43.18
505.71	139.09
505.918	292.69
506.126	-235.69
506.334	-295.08
506.542	38.74
506.75	104.28
506.958	-129.19
507.166	-227.5
507.374	30.55
507.582	509.77
507.79	3.93
507.998	-311.46
508.206	120.66
508.414	137.04
508.622	-235.69
508.83	-123.05
509.037	505.68
509.245	48.98
509.453	-239.78
509.661	-348.33
509.869	231.25
510.077	-37.03
510.285	-96.43
510.492	-483.49
510.7	702.28
510.908	1.88
511.116	-190.63
511.324	-252.07
511.531	-55.47
511.739	71.51
511.947	-121
512.155	141.14
512.362	120.66
512.57	-180.39
512.778	-313.51
512.985	-358.57
513.193	280.4
513.401	364.37
513.608	-235.69
513.816	-194.73
514.024	178
514.231	386.9
514.439	-256.17
514.646	-200.87
514.854	239.44
515.061	339.79
515.269	-211.11
515.477	-211.11
515.684	-114.86
515.892	304.98
516.099	-317.61
516.307	-333.99
516.514	276.31
516.722	464.72
516.929	-145.58
517.136	-299.17
517.344	462.67
517.551	243.54
517.759	-129.19
517.966	-114.86
518.173	20.31
518.381	30.55
518.588	-121
518.796	-305.32
519.003	257.87
519.21	-10.41
519.418	-284.84
519.625	132.95
519.832	42.84
520.039	231.25
520.247	-358.57
520.454	-118.95
520.661	307.02
520.868	223.06
521.076	-127.14
521.283	-137.38
521.49	694.09
521.697	126.8
521.904	-127.14
522.112	-147.62
522.319	167.76
522.526	139.09
522.733	-288.93
522.94	-288.93
523.147	108.37
523.354	307.02
523.561	-395.43
523.768	-96.43
523.975	378.7
524.183	192.34
524.39	-121
524.597	-370.85
524.804	71.51
525.011	-43.18
525.218	-190.63
525.425	-196.78
525.632	368.46
525.838	1.88
526.045	-229.54
526.252	-137.38
526.459	1288
526.666	847.69
526.873	-331.94
527.08	-221.35
527.287	415.57
527.494	280.4
527.701	-297.13
527.907	-223.4
528.114	223.06
528.321	61.27
528.528	-155.82
528.735	-288.93
528.941	-10.41
529.148	-92.33
529.355	-67.75
529.562	-102.57
529.768	552.78
529.975	38.74
530.182	-88.23
530.388	-313.51
530.595	378.7
530.802	-149.67
531.008	-26.79
531.215	-151.72
531.422	565.07
531.628	900.94
531.835	-22.7
532.042	-63.66
532.248	-110.76
532.455	110.42
532.661	-65.71
532.868	-215.21
533.074	233.3
533.281	415.57
533.487	-94.38
533.694	-235.69
533.9	-63.66
534.107	296.78
534.313	-198.82
534.52	-272.55
534.726	436.05
534.933	618.32
535.139	-266.41
535.345	-243.88
535.552	259.92
535.758	137.04
535.965	-51.37
536.171	-151.72
536.377	290.64
536.584	538.45
536.79	-192.68
536.996	-69.8
537.203	216.91
537.409	280.4
537.615	-188.58
537.821	51.03
538.028	380.75
538.234	423.76
538.44	-149.67
538.646	-82.09
538.853	317.26
539.059	61.27
539.265	175.95
539.471	-243.88
539.677	458.57
539.883	137.04
540.09	-129.19
540.296	272.21
540.502	67.41
540.708	-53.42
540.914	55.12
541.12	-180.39
541.326	313.17
541.532	132.95
541.738	-0.17
541.944	-178.34
542.15	448.33
542.356	36.69
542.562	-202.92
542.768	-104.62
542.974	702.28
543.18	614.22
543.386	-170.15
543.592	-364.71
543.798	542.54
544.004	448.33
544.21	-145.58
544.415	59.22
544.621	214.87
544.827	462.67
545.033	-209.06
545.239	46.93
545.445	-86.19
545.651	196.43
545.856	-88.23
546.062	-229.54
546.268	26.45
546.474	161.62
546.679	-61.61
546.885	-63.66
547.091	40.79
547.297	704.33
547.502	-41.13
547.708	-215.21
547.914	44.88
548.119	350.03
548.325	-176.3
548.531	-190.63
548.736	538.45
548.942	26.45
549.147	-219.3
549.353	124.76
549.559	464.72
549.764	237.39
549.97	-61.61
550.175	-125.1
550.381	413.52
550.586	83.8
550.792	-96.43
550.997	-96.43
551.203	229.2
551.408	292.69
551.614	-135.34
551.819	-100.52
552.025	673.61
552.23	659.28
552.435	-207.02
552.641	75.6
552.846	-6.31
553.052	501.58
553.257	1.88
553.462	-61.61
553.668	5.97
553.873	333.65
554.078	-192.68
554.283	-88.23
554.489	317.26
554.694	194.39
554.899	-135.34
555.105	118.61
555.31	358.22
555.515	298.83
555.72	3.93
555.925	-227.5
556.131	464.72
556.336	108.37
556.541	-63.66
556.746	-166.06
556.951	520.01
557.156	593.74
557.361	-2.22
557.567	34.64
557.772	730.95
557.977	257.87
558.182	-108.71
558.387	-143.53
558.592	67.41
558.797	589.64
559.002	30.55
559.207	44.88
559.412	317.26
559.617	687.95
559.822	-53.42
560.027	-141.48
560.232	323.41
560.437	452.43
560.642	-219.3
560.847	-133.29
561.051	304.98
561.256	339.79
561.461	-92.33
561.666	-186.54
561.871	247.63
562.076	442.19
562.281	12.12
562.485	-223.4
562.69	352.08
562.895	536.4
563.1	79.7
563.305	-41.13
563.509	538.45
563.714	831.3
563.919	-88.23
564.123	-88.23
564.328	270.16
564.533	544.59
564.737	1.88
564.942	-57.51
565.147	702.28
565.351	745.29
565.556	36.69
565.761	69.46
565.965	354.13
566.17	161.62
566.374	-41.13
566.579	-168.1
566.784	374.61
566.988	208.72
567.193	-166.06
567.397	-26.79
567.602	-39.08
567.806	270.16
568.011	28.5
568.215	77.65
568.42	212.82
568.624	218.96
568.828	-80.04
569.033	128.85
569.237	442.19
569.442	446.29
569.646	-233.64
569.85	22.36
570.055	311.12
570.259	380.75
570.463	290.64
570.668	-22.7
570.872	294.74
571.076	270.16
571.281	132.95
571.485	63.32
571.689	378.7
571.893	507.73
572.098	124.76
572.302	1.88
572.506	495.44
572.71	272.21
572.914	38.74
573.119	38.74
573.323	640.84
573.527	636.75
573.731	44.88
573.935	55.12
574.139	347.98
574.343	194.39
574.547	104.28
574.751	30.55
574.955	702.28
575.159	675.66
575.364	67.41
575.568	-69.8
575.772	350.03
575.976	589.64
576.18	67.41
576.383	-71.85
576.587	636.75
576.791	517.97
576.995	-159.91
577.199	-174.25
577.403	571.21
577.607	612.17
577.811	-26.79
578.015	61.27
578.219	382.8
578.422	567.12
578.626	157.52
578.83	210.77
579.034	614.22
579.238	397.14
579.442	51.03
579.645	431.95
579.849	358.22
580.053	401.23
580.257	143.19
580.46	184.15
580.664	636.75
580.868	458.57
581.071	296.78
581.275	206.67
581.479	120.66
581.682	563.02
581.886	118.61
582.09	137.04
582.293	520.01
582.497	608.08
582.7	327.5
582.904	69.46
583.107	440.14
583.311	264.02
583.515	204.63
583.718	169.81
583.922	579.4
584.125	767.82
584.329	114.52
584.532	229.2
584.735	776.01
584.939	581.45
585.142	3.93
585.346	91.99
585.549	495.44
585.753	264.02
585.956	194.39
586.159	225.11
586.363	790.35
586.566	558.92
586.769	100.18
586.973	26.45
587.176	558.92
587.379	755.53
587.582	489.29
587.786	354.13
587.989	319.31
588.192	1029.96
588.395	304.98
588.599	317.26
588.802	505.68
589.005	665.42
589.208	182.1
589.411	120.66
589.615	665.42
589.818	894.79
590.021	386.9
590.224	227.15
590.427	700.23
590.63	665.42
590.833	-39.08
591.036	71.51
591.239	413.52
591.442	364.37
591.645	368.46
591.848	235.35
592.051	567.12
592.254	733
592.457	272.21
592.66	319.31
592.863	460.62
593.066	587.6
593.269	276.31
593.472	309.07
593.675	325.46
593.878	741.19
594.081	380.75
594.284	135
594.486	708.43
594.689	489.29
594.892	296.78
595.095	276.31
595.298	675.66
595.5	329.55
595.703	366.42
595.906	364.37
596.109	821.06
596.311	632.65
596.514	-61.61
596.717	329.55
596.92	806.73
597.122	601.93
597.325	94.04
597.528	212.82
597.73	829.26
597.933	632.65
598.136	239.44
598.338	-51.37
598.541	739.15
598.743	837.45
598.946	313.17
599.148	331.6
599.351	784.2
599.554	782.15
599.756	399.18
599.959	313.17
600.161	829.26
600.363	1140.55
600.566	489.29
600.768	249.68
600.971	954.18
601.173	669.52
601.376	249.68
601.578	429.9
601.78	681.8
601.983	1115.97
602.185	292.69
602.388	485.2
602.59	708.43
602.792	458.57
602.995	538.45
603.197	366.42
603.399	804.68
603.601	683.85
603.804	434
604.006	304.98
604.208	554.83
604.41	249.68
604.613	538.45
604.815	343.89
605.017	1214.27
605.219	534.35
605.421	706.38
605.623	364.37
605.826	958.28
606.028	1099.59
606.23	378.7
606.432	380.75
606.634	1068.87
606.836	943.94
607.038	268.11
607.24	616.27
607.442	696.14
607.644	661.32
607.846	542.54
608.048	304.98
608.25	1034.05
608.452	517.97
608.654	388.94
608.856	233.3
609.058	616.27
609.26	841.54
609.462	501.58
609.664	415.57
609.866	1257.28
610.067	913.22
610.269	608.08
610.471	434
610.673	618.32
610.875	862.02
611.077	235.35
611.278	554.83
611.48	718.67
611.682	1152.84
611.884	505.68
612.085	493.39
612.287	440.14
612.489	812.87
612.69	345.94
612.892	472.91
613.094	1101.64
613.295	765.77
613.497	358.22
613.699	520.01
613.9	1156.93
614.102	954.18
614.304	468.81
614.505	268.11
614.707	712.52
614.908	767.82
615.11	366.42
615.311	517.97
615.513	964.42
615.714	909.13
615.916	468.81
616.117	530.25
616.319	814.92
616.52	978.76
616.722	415.57
616.923	458.57
617.124	1070.92
617.326	919.37
617.527	610.12
617.729	864.07
617.93	917.32
618.131	1029.96
618.333	509.77
618.534	575.31
618.735	538.45
618.937	1187.65
619.138	419.66
619.339	503.63
619.54	919.37
619.742	778.06
619.943	694.09
620.144	620.36
620.345	1027.91
620.546	1032.01
620.748	425.81
620.949	503.63
621.15	853.83
621.351	776.01
621.552	569.16
621.753	350.03
621.954	485.2
622.155	1410.88
622.356	468.81
622.558	681.8
622.759	878.41
622.96	1347.39
623.161	612.17
623.362	554.83
623.563	898.89
623.764	806.73
623.965	571.21
624.166	788.3
624.366	753.48
624.567	878.41
624.768	309.07
624.969	581.45
625.17	819.02
625.371	984.9
625.572	692.04
625.773	454.48
625.973	1226.56
626.174	1038.15
626.375	671.56
626.576	714.57
626.777	1007.43
626.977	1404.74
627.178	669.52
627.379	735.05
627.58	849.74
627.78	782.15
627.981	681.8
628.182	730.95
628.382	1126.21
628.583	651.08
628.784	608.08
628.984	849.74
629.185	1046.34
629.386	1103.68
629.586	687.95
629.787	608.08
629.987	1068.87
630.188	980.81
630.388	601.93
630.589	771.91
630.79	1537.85
630.99	1032.01
631.191	763.72
631.391	796.49
631.591	1052.49
631.792	1273.67
631.992	890.7
632.193	700.23
632.393	1511.23
632.594	964.42
632.794	714.57
632.994	796.49
633.195	1077.06
633.395	972.61
633.595	704.33
633.796	956.23
633.996	831.3
634.196	1333.06
634.397	569.16
634.597	943.94
634.797	782.15
634.997	1394.5
635.198	1083.2
635.398	694.09
635.598	1048.39
635.798	1374.02
635.998	1216.32
636.199	675.66
636.399	923.46
636.599	886.6
636.799	823.11
636.999	1036.1
637.199	1154.88
637.399	1277.76
637.599	792.39
637.799	941.89
637.999	915.27
638.199	1357.63
638.399	790.35
638.599	859.98
638.799	1222.47
638.999	1550.14
639.199	984.9
639.399	927.56
639.599	1369.92
639.799	816.97
639.999	706.38
640.199	751.43
640.399	1107.78
640.599	1201.99
640.799	937.8
640.998	1077.06
641.198	1376.06
641.398	1111.88
641.598	943.94
641.798	925.51
641.997	2029.37
642.197	1111.88
642.397	964.42
642.597	841.54
642.796	1333.06
642.996	1445.7
643.196	1048.39
643.395	794.44
643.595	1263.43
643.795	675.66
643.994	902.98
644.194	929.61
644.394	1369.92
644.593	1298.24
644.793	825.16
644.992	1013.57
645.192	1247.04
645.392	782.15
645.591	1001.29
645.791	1005.38
645.99	1222.47
646.19	1005.38
646.389	989
646.589	989
646.788	1441.6
646.987	1337.15
647.187	1238.85
647.386	1173.32
647.586	1251.14
647.785	1414.98
647.984	886.6
648.184	1042.25
648.383	976.71
648.582	1197.89
648.782	931.66
648.981	1007.43
649.18	1085.25
649.38	1300.29
649.579	915.27
649.778	991.05
649.977	1314.63
650.177	1324.87
650.376	1072.96
650.575	929.61
650.774	1623.87
650.973	1136.45
651.173	790.35
651.372	1115.97
651.571	1322.82
651.77	1500.99
651.969	956.23
652.168	1075.01
652.367	997.19
652.566	1388.35
652.765	1134.4
652.964	1478.46
653.163	1607.48
653.362	1283.91
653.561	1095.49
653.76	1152.84
653.959	1181.51
654.158	1546.05
654.357	1306.43
654.556	1087.3
654.755	1410.88
654.954	1464.13
655.153	1089.35
655.352	1144.64
655.551	1670.97
655.749	1220.42
655.948	1175.36
656.147	1185.6
656.346	1525.57
656.545	1353.54
656.743	1025.86
656.942	1255.23
657.141	1331.01
657.34	1189.7
657.538	1251.14
657.737	1204.03
657.936	1271.62
658.135	1576.77
658.333	1077.06
658.532	1263.43
658.731	1859.38
658.929	1615.68
659.128	1341.25
659.326	1083.2
659.525	1750.84
659.724	1421.12
659.922	943.94
660.121	1019.72
660.319	1582.91
660.518	1181.51
660.716	1091.4
660.915	1167.17
661.113	1795.9
661.312	1128.26
661.51	1255.23
661.709	1050.44
661.907	1599.29
662.105	1853.24
662.304	1214.27
662.502	1314.63
662.701	1836.86
662.899	1355.58
663.097	1544
663.296	1066.82
663.494	1699.64
663.692	1804.09
663.891	1222.47
664.089	1167.17
664.287	1613.63
664.485	1814.33
664.684	1142.6
664.882	1312.58
665.08	1474.37
665.278	1482.56
665.476	1197.89
665.675	1537.85
665.873	2058.04
666.071	1812.28
666.269	1265.47
666.467	1494.85
666.665	1566.53
666.863	1421.12
667.061	1492.8
667.259	1361.73
667.457	1505.09
667.655	1687.36
667.853	1244.99
668.051	1316.67
668.249	1564.48
668.447	1734.46
668.645	1244.99
668.843	1460.03
669.041	1709.88
669.239	1503.04
669.437	1447.74
669.635	1521.47
669.833	1447.74
670.031	1797.95
670.229	1560.38
670.426	1443.65
670.624	1412.93
670.822	1298.24
671.02	1271.62
671.218	1384.26
671.415	1326.91
671.613	1730.36
671.811	1513.28
672.009	1292.1
672.206	1873.72
672.404	1619.77
672.602	1634.11
672.799	1451.84
672.997	1718.08
673.195	1890.1
673.392	1462.08
673.59	1230.66
673.788	1861.43
673.985	1150.79
674.183	1593.15
674.38	1468.22
674.578	1886.01
674.775	1484.61
674.973	1320.77
675.17	1435.46
675.368	2082.61
675.565	1701.69
675.763	1353.54
675.96	1380.16
676.158	1959.74
676.355	1566.53
676.553	1412.93
676.75	1500.99
676.947	1656.64
677.145	1668.92
677.342	1562.43
677.539	1505.09
677.737	1810.23
677.934	2320.18
678.131	1734.46
678.329	1371.97
678.526	2131.76
678.723	1859.38
678.92	1644.35
679.118	1623.87
679.315	1466.17
679.512	2074.42
679.709	1619.77
679.906	1599.29
680.104	2010.93
680.301	1773.37
680.498	1431.36
680.695	1496.89
680.892	1654.59
681.089	1617.72
681.286	1591.1
681.483	1423.17
681.68	1742.65
681.877	1857.34
682.075	1490.75
682.272	1726.27
682.469	1756.99
682.665	1673.02
682.862	1478.46
683.059	1425.22
683.256	1799.99
683.453	1861.43
683.65	1668.92
683.847	1589.05
684.044	1763.13
684.241	1658.68
684.438	1685.31
684.635	1437.5
684.831	2254.64
685.028	2320.18
685.225	1546.05
685.422	1724.22
685.619	1767.23
685.815	1871.67
686.012	1603.39
686.209	1595.2
686.405	1603.39
686.602	2029.37
686.799	1513.28
686.996	1486.65
687.192	1498.94
687.389	2262.83
687.586	1548.09
687.782	1656.64
687.979	2121.52
688.175	2160.44
688.372	1668.92
688.568	1705.79
688.765	1810.23
688.962	2217.78
689.158	1771.32
689.355	1388.35
689.551	1955.64
689.748	1703.74
689.944	1732.41
690.14	1474.37
690.337	2148.15
690.533	1877.82
690.73	1777.47
690.926	1791.8
691.123	1920.82
691.319	1945.4
691.515	1550.14
691.712	1816.38
691.908	1980.22
692.104	1902.39
692.301	1783.61
692.497	1580.86
692.693	2115.38
692.889	2199.35
693.086	1920.82
693.282	1552.19
693.478	1963.83
693.674	2334.51
693.87	1791.8
694.067	1617.72
694.263	2121.52
694.459	1955.64
694.655	1924.92
694.851	1769.27
695.047	2049.85
695.243	2213.68
695.439	1799.99
695.635	1632.06
695.831	2027.32
696.027	2068.28
696.224	1724.22
696.42	2000.69
696.615	2166.58
696.811	2060.09
697.007	1630.01
697.203	1701.69
697.399	2094.9
697.595	2244.4
697.791	1740.6
697.987	1847.1
698.183	1687.36
698.379	1857.34
698.575	1763.13
698.77	1791.8
698.966	2137.91
699.162	2291.51
699.358	1853.24
699.554	1896.25
699.749	2076.47
699.945	2117.43
700.141	1994.55
700.337	1904.44
700.532	1912.63
700.728	1849.15
700.924	1677.12
701.119	1699.64
701.315	2162.48
701.511	1937.21
701.706	1816.38
701.902	1648.44
702.097	2105.14
702.293	2131.76
702.489	1765.18
702.684	1787.71
702.88	2000.69
703.075	2068.28
703.271	1859.38
703.466	1673.02
703.662	1986.36
703.857	2221.88
704.053	1730.36
704.248	1785.66
704.443	2246.45
704.639	2158.39
704.834	1806.14
705.03	1863.48
705.225	2371.38
705.42	2350.9
705.616	1980.22
705.811	1826.62
706.006	2068.28
706.202	1976.12
706.397	1994.55
706.592	1673.02
706.787	2232.12
706.983	2180.92
707.178	2154.29
707.373	1877.82
707.568	2242.36
707.763	2443.06
707.959	1836.86
708.154	1855.29
708.349	2156.34
708.544	2195.25
708.739	2254.64
708.934	1859.38
709.129	2277.17
709.324	2344.75
709.519	1826.62
709.714	1836.86
709.909	2410.29
710.104	2311.99
710.299	1849.15
710.494	1992.5
710.689	2264.88
710.884	2234.16
711.079	2039.61
711.274	2090.81
711.469	2289.46
711.664	2123.57
711.859	1810.23
712.054	2041.65
712.249	2357.04
712.443	2322.23
712.638	1845.05
712.833	1861.43
713.028	2109.24
713.223	2123.57
713.417	2121.52
713.612	1957.69
713.807	2393.9
714.002	2801.45
714.196	2099
714.391	1996.6
714.586	2506.54
714.78	2172.72
714.975	1888.06
715.17	1947.45
715.364	2170.68
715.559	2477.87
715.754	1701.69
715.948	1906.49
716.143	2746.16
716.337	2180.92
716.532	2291.51
716.726	2021.17
716.921	2467.63
717.115	2711.34
717.31	1845.05
717.504	2576.17
717.699	2219.83
717.893	2504.5
718.088	1881.91
718.282	1888.06
718.476	2291.51
718.671	2387.76
718.865	1992.5
719.059	2008.89
719.254	2344.75
719.448	2496.3
719.642	3235.62
719.837	1855.29
720.031	2430.77
720.225	2537.26
720.419	2121.52
720.614	1900.34
720.808	2559.79
721.002	2291.51
721.196	1910.58
721.39	1988.41
721.585	2479.92
721.779	2271.03
721.973	1961.78
722.167	1691.45
722.361	2379.57
722.555	2508.59
722.749	2088.76
722.943	2012.98
723.137	2086.71
723.331	2279.22
723.525	2113.33
723.719	2082.61
723.913	2287.41
724.107	2647.85
724.301	1992.5
724.495	2219.83
724.689	2809.64
724.883	2565.93
725.077	2060.09
725.271	2049.85
725.465	2604.85
725.659	2221.88
725.853	2092.85
726.046	1912.63
726.24	2162.48
726.434	2553.65
726.628	2066.23
726.822	2135.86
727.015	2608.94
727.209	2625.33
727.403	2133.81
727.596	1935.16
727.79	2514.73
727.984	2664.24
728.177	2152.24
728.371	2164.53
728.565	2606.89
728.758	2135.86
728.952	1984.31
729.146	2058.04
729.339	2635.57
729.533	2385.71
729.726	2139.96
729.92	2099
730.113	2672.43
730.307	2332.47
730.5	2189.11
730.694	2193.2
730.887	2326.32
731.081	2608.94
731.274	2027.32
731.468	2289.46
731.661	2502.45
731.854	2246.45
732.048	2172.72
732.241	2064.18
732.435	2357.04
732.628	2508.59
732.821	2223.92
733.014	2084.66
733.208	2172.72
733.401	2570.03
733.594	2176.82
733.788	2125.62
733.981	2830.12
734.174	2557.74
734.367	2123.57
734.56	2490.16
734.754	2549.55
734.947	2430.77
735.14	2244.4
735.333	2246.45
735.526	2598.7
735.719	2328.37
735.912	2246.45
736.105	2135.86
736.298	2567.98
736.491	2279.22
736.684	2131.76
736.877	2301.75
737.07	2572.08
737.263	2774.83
737.456	2246.45
737.649	2168.63
737.842	2342.71
738.035	2496.3
738.228	2330.42
738.421	2369.33
738.614	2770.73
738.807	2699.05
739	2078.52
739.192	2004.79
739.385	2574.13
739.578	2705.2
739.771	2455.34
739.964	2246.45
740.156	2740.01
740.349	2418.48
740.542	2443.06
740.735	2156.34
740.927	2369.33
741.12	2316.08
741.313	2393.9
741.505	2369.33
741.698	2516.78
741.891	2676.52
742.083	2455.34
742.276	2445.1
742.468	2506.54
742.661	2465.58
742.854	2352.95
743.046	2264.88
743.239	2852.65
743.431	2574.13
743.624	2330.42
743.816	2139.96
744.009	2533.17
744.201	2547.5
744.393	2608.94
744.586	2207.54
744.778	2727.72
744.971	2543.41
745.163	2432.82
745.355	2586.41
745.548	2467.63
745.74	2594.61
745.932	2357.04
746.125	2367.28
746.317	3057.45
746.509	2580.27
746.702	2320.18
746.894	2389.81
747.086	2750.25
747.278	2946.86
747.471	2508.59
747.663	2436.91
747.855	2623.28
748.047	3018.54
748.239	2398
748.431	2363.19
748.623	3133.22
748.815	2942.76
749.008	2250.55
749.2	2238.26
749.392	2723.63
749.584	2813.74
749.776	2490.16
749.968	2428.72
750.16	3100.45
750.352	2608.94
750.544	2463.54
750.736	2328.37
750.928	2932.52
751.12	2508.59
751.311	2361.14
751.503	2402.1
751.695	2799.4
751.887	2791.21
752.079	2215.73
752.271	2328.37
752.463	3411.75
752.654	2826.03
752.846	2436.91
753.038	2486.06
753.23	2309.94
753.421	2799.4
753.613	2418.48
753.805	2658.09
753.997	2907.94
754.188	2850.6
754.38	2303.79
754.572	2447.15
754.763	2684.72
754.955	2895.66
755.146	2484.02
755.338	2426.67
755.53	2793.26
755.721	2621.23
755.913	2246.45
756.104	2375.47
756.296	2606.89
756.487	2887.47
756.679	2373.43
756.87	2385.71
757.062	2666.28
757.253	2873.13
757.445	2520.88
757.636	2596.65
757.827	2727.72
758.019	3391.27
758.21	2307.89
758.401	2465.58
758.593	3254.05
758.784	3004.2
758.975	2361.14
759.167	2365.23
759.358	2774.83
759.549	2924.33
759.74	2428.72
759.932	2430.77
760.123	2979.62
760.314	2613.04
760.505	2592.56
760.696	2438.96
760.888	3067.69
761.079	2629.42
761.27	2342.71
761.461	2262.83
761.652	3137.32
761.843	2692.91
762.034	2594.61
762.225	2703.15
762.416	2694.96
762.607	2729.77
762.798	2481.97
762.989	2373.43
763.18	3438.37
763.371	2625.33
763.562	2502.45
763.753	2535.21
763.944	2912.04
764.135	2979.62
764.326	2553.65
764.517	2301.75
764.708	2766.64
764.899	2828.07
765.089	2533.17
765.28	2375.47
765.471	2795.31
765.662	2858.79
765.853	2529.07
766.043	2344.75
766.234	2946.86
766.425	2934.57
766.615	2475.82
766.806	2283.31
766.997	3018.54
767.187	2901.8
767.378	2320.18
767.569	2402.1
767.759	2877.23
767.95	2793.26
768.141	2635.57
768.331	2481.97
768.522	2819.88
768.712	3086.12
768.903	2502.45
769.093	2465.58
769.284	3102.5
769.474	2842.41
769.665	2232.12
769.855	2357.04
770.046	2852.65
770.236	2684.72
770.426	2840.36
770.617	2445.1
770.807	2864.94
770.998	2756.4
771.188	2613.04
771.378	2565.93
771.569	2971.43
771.759	2961.19
771.949	2320.18
772.139	2223.92
772.33	2787.11
772.52	3098.41
772.71	2553.65
772.9	2400.05
773.09	3192.61
773.281	3024.68
773.471	2369.33
773.661	2395.95
773.851	2989.86
774.041	2643.76
774.231	2350.9
774.421	2555.69
774.611	3151.65
774.802	2713.39
774.992	2531.12
775.182	2295.6
775.372	2715.44
775.562	2944.81
775.752	2498.35
775.942	2518.83
776.131	3084.07
776.321	2905.9
776.511	2402.1
776.701	2408.24
776.891	2922.28
777.081	2576.17
777.271	2635.57
777.461	2488.11
777.651	3075.88
777.84	3024.68
778.03	2617.13
778.22	2332.47
778.41	3165.99
778.599	2774.83
778.789	2484.02
778.979	2389.81
779.169	3061.54
779.358	2836.27
779.548	2842.41
779.738	2451.25
779.927	2959.14
780.117	2590.51
780.307	2586.41
780.496	2219.83
780.686	2885.42
780.875	3237.67
781.065	2547.5
781.254	2449.2
781.444	2795.31
781.633	2748.2
781.823	2467.63
782.012	2340.66
782.202	2740.01
782.391	2705.2
782.581	2408.24
782.77	2801.45
782.96	2963.24
783.149	2737.96
783.338	2383.66
783.528	2348.85
783.717	3018.54
783.906	2877.23
784.096	2623.28
784.285	2387.76
784.474	2686.76
784.663	2701.1
784.853	2508.59
785.042	2545.45
785.231	2715.44
785.42	3120.93
785.61	2619.18
785.799	2467.63
785.988	2672.43
786.177	2840.36
786.366	2545.45
786.555	2672.43
786.744	2823.98
786.933	2694.96
787.122	2316.08
787.312	2379.57
787.501	2567.98
787.69	2909.99
787.879	2547.5
788.068	2471.73
788.257	2354.99
788.445	2744.11
788.634	2457.39
788.823	2389.81
789.012	3358.5
789.201	3168.04
789.39	2543.41
789.579	2389.81
789.768	2793.26
789.957	2783.02
790.145	2445.1
790.334	2340.66
790.523	2821.93
790.712	2719.53
790.9	2705.2
791.089	2311.99
791.278	2991.91
791.467	2789.16
791.655	2854.7
791.844	2979.62
792.033	2674.48
792.221	2641.71
792.41	2613.04
792.599	2232.12
792.787	2983.72
792.976	2836.27
793.164	2494.26
793.353	2561.84
793.541	2850.6
793.73	2987.82
793.918	2606.89
794.107	2527.02
794.295	2823.98
794.484	2842.41
794.672	2629.42
794.861	2608.94
795.049	2936.62
795.238	3323.68
795.426	2398
795.614	2592.56
795.803	2860.84
795.991	3233.57
796.179	2604.85
796.368	2533.17
796.556	3014.44
796.744	2586.41
796.932	2506.54
797.121	2320.18
797.309	2748.2
797.497	2993.96
797.685	2656.04
797.874	2479.92
798.062	2625.33
798.25	3184.42
798.438	2471.73
798.626	2658.09
798.814	3028.78
799.002	3278.63
799.19	2766.64
799.378	2559.79
799.566	3041.06
799.755	3221.28
799.943	2754.35
800.131	2604.85
800.318	2860.84
800.506	3016.49
800.694	2543.41
800.882	2811.69
801.07	3094.31
801.258	2703.15
801.446	2535.21
801.634	2533.17
801.822	2924.33
802.01	2821.93
802.197	2557.74
802.385	2647.85
802.573	2944.81
802.761	2680.62
802.949	2602.8
803.136	2463.54
803.324	3168.04
803.512	2926.38
803.699	2680.62
803.887	2559.79
804.075	3211.04
804.262	2936.62
804.45	2602.8
804.638	2641.71
804.825	2821.93
805.013	2756.4
805.201	2651.95
805.388	2477.87
805.576	3075.88
805.763	3364.64
805.951	2590.51
806.138	2737.96
806.326	3417.89
806.513	3147.56
806.701	2656.04
806.888	2615.09
807.075	2998.06
807.263	3362.59
807.45	2447.15
807.638	2905.9
807.825	3475.23
808.012	3213.09
808.2	2832.17
808.387	3057.45
808.574	2991.91
808.761	3311.39
808.949	2713.39
809.136	2840.36
809.323	2697
809.51	2998.06
809.698	3120.93
809.885	3057.45
810.072	3190.56
810.259	3321.63
810.446	2813.74
810.633	2664.24
810.82	3362.59
811.008	3428.13
811.195	2967.34
811.382	2920.23
811.569	3233.57
811.756	2852.65
811.943	2930.47
812.13	2768.68
812.317	2977.58
812.504	3012.39
812.691	2993.96
812.878	2856.75
813.064	3395.36
813.251	3135.27
813.438	2871.08
813.625	3041.06
813.812	3024.68
813.999	3018.54
814.186	2840.36
814.372	2957.1
814.559	3252
814.746	3479.33
814.933	2942.76
815.12	3165.99
815.306	3131.17
815.493	2930.47
815.68	2996.01
815.866	2946.86
816.053	3591.97
816.24	3616.54
816.426	3094.31
816.613	2746.16
816.799	3387.17
816.986	3438.37
817.173	2922.28
817.359	2807.59
817.546	3315.49
817.732	2797.35
817.919	2651.95
818.105	2873.13
818.292	3051.3
818.478	3276.58
818.665	3165.99
818.851	2836.27
819.037	3757.85
819.224	3245.86
819.41	2676.52
819.597	2893.61
819.783	3649.31
819.969	3276.58
820.156	3110.69
820.342	2901.8
820.528	4077.34
820.714	3073.83
820.901	3260.2
821.087	2920.23
821.273	3647.26
821.459	3053.35
821.646	2869.03
821.832	2811.69
822.018	3411.75
822.204	3252
822.39	2934.57
822.576	2766.64
822.762	3372.83
822.948	3290.92
823.134	3215.14
823.32	3026.73
823.507	2942.76
823.693	3352.35
823.879	3311.39
824.065	2936.62
824.25	3172.13
824.436	2953
824.622	2873.13
824.808	2815.79
824.994	3092.26
825.18	2989.86
825.366	2809.64
825.552	2979.62
825.738	3127.08
825.923	3383.07
826.109	3051.3
826.295	2860.84
826.481	3028.78
826.667	2996.01
826.852	3182.37
827.038	2887.47
827.224	3516.19
827.409	3723.04
827.595	2742.06
827.781	3088.17
827.966	3446.56
828.152	3356.45
828.338	2914.09
828.523	2817.83
828.709	3077.93
828.894	3387.17
829.08	2895.66
829.266	2776.87
829.451	3084.07
829.637	3266.34
829.822	3000.1
830.008	2842.41
830.193	3462.94
830.378	3542.82
830.564	3061.54
830.749	2819.88
830.935	3327.78
831.12	3438.37
831.305	2789.16
831.491	3018.54
831.676	2922.28
831.861	3387.17
832.047	3016.49
832.232	2895.66
832.417	3385.12
832.602	3262.24
832.788	2850.6
832.973	2744.11
833.158	3063.59
833.343	3223.33
833.528	3086.12
833.714	2955.05
833.899	3317.54
834.084	3555.1
834.269	3129.13
834.454	2891.56
834.639	3338.02
834.824	3274.53
835.009	2971.43
835.194	3247.91
835.379	3395.36
835.564	3577.63
835.749	3084.07
835.934	2838.31
836.119	3481.38
836.304	3180.32
836.489	3073.83
836.674	3174.18
836.859	3010.34
837.044	3571.49
837.228	3073.83
837.413	2891.56
837.598	3258.15
837.783	3419.94
837.968	3002.15
838.152	2701.1
838.337	2842.41
838.522	3372.83
838.707	3442.46
838.891	3047.21
839.076	3155.75
839.261	3348.26
839.445	2946.86
839.63	2950.95
839.815	3575.58
839.999	3252
840.184	2828.07
840.368	2844.46
840.553	3352.35
840.737	3442.46
840.922	2754.35
841.106	2823.98
841.291	3069.73
841.475	3305.25
841.66	2848.55
841.844	2942.76
842.029	3831.58
842.213	2950.95
842.397	2864.94
842.582	2697
842.766	3405.6
842.951	3333.92
843.135	2903.85
843.319	2975.53
843.504	3270.44
843.688	3364.64
843.872	2621.23
844.056	2785.07
844.241	3288.87
844.425	3147.56
844.609	3012.39
844.793	2578.22
844.977	3323.68
845.161	3053.35
845.346	2803.5
845.53	2934.57
845.714	3041.06
845.898	3561.25
846.082	2735.92
846.266	2875.18
846.45	3168.04
846.634	3237.67
846.818	2821.93
847.002	2967.34
847.186	3458.85
847.37	2901.8
847.554	2715.44
847.738	2977.58
847.922	3192.61
848.106	3405.6
848.29	2684.72
848.473	2971.43
848.657	3442.46
848.841	3010.34
849.025	2819.88
849.209	2715.44
849.392	3387.17
849.576	2983.72
849.76	2629.42
849.944	2930.47
850.127	3475.23
850.311	2959.14
850.495	2594.61
850.678	2631.47
850.862	3290.92
851.046	3551.01
851.229	3196.71
851.413	2762.54
851.596	3073.83
851.78	2998.06
851.964	2987.82
852.147	2823.98
852.331	3753.76
852.514	3327.78
852.698	3041.06
852.881	2766.64
853.065	3475.23
853.248	2967.34
853.431	3061.54
853.615	2909.99
853.798	3546.91
853.982	3139.37
854.165	3112.74
854.348	2832.17
854.532	2948.9
854.715	2981.67
854.898	2930.47
855.081	2922.28
855.265	3530.53
855.448	3581.73
855.631	2832.17
855.814	2756.4
855.997	3385.12
856.181	3172.13
856.364	2819.88
856.547	2772.78
856.73	3174.18
856.913	3082.02
857.096	2670.38
857.279	2832.17
857.462	2971.43
857.645	3139.37
857.828	2893.61
858.011	3049.25
858.194	2897.71
858.377	3247.91
858.56	2656.04
858.743	2967.34
858.926	2936.62
859.109	3276.58
859.292	2729.77
859.475	2686.76
859.658	3313.44
859.841	3122.98
860.023	2668.33
860.206	2776.87
860.389	3131.17
860.572	3368.74
860.755	2785.07
860.937	2694.96
861.12	3149.61
861.303	3053.35
861.486	2744.11
861.668	2729.77
861.851	3209
862.034	3196.71
862.216	2885.42
862.399	2737.96
862.581	3108.65
862.764	3426.08
862.947	2723.63
863.129	2666.28
863.312	2727.72
863.494	3256.1
863.677	2977.58
863.859	2649.9
864.042	3178.28
864.224	3338.02
864.406	2803.5
864.589	2615.09
864.771	3241.76
864.954	2703.15
865.136	2647.85
865.318	2610.99
865.501	3133.22
865.683	2582.32
865.865	2694.96
866.048	2621.23
866.23	3030.82
866.412	2965.29
866.594	2508.59
866.777	2871.08
866.959	3165.99
867.141	2750.25
867.323	2926.38
867.505	2866.99
867.687	3059.49
867.869	2946.86
868.052	2690.86
868.234	2604.85
868.416	3002.15
868.598	3139.37
868.78	2709.29
868.962	2647.85
869.144	3135.27
869.326	3143.46
869.508	2660.14
869.69	2733.87
869.872	2807.59
870.054	3247.91
870.236	2565.93
870.417	2654
870.599	2967.34
870.781	3331.87
870.963	2815.79
871.145	2717.48
871.327	2770.73
871.508	3249.96
871.69	2852.65
871.872	2721.58
872.054	2893.61
872.235	3100.45
872.417	2758.44
872.599	2670.38
872.78	3438.37
872.962	3084.07
873.144	2484.02
873.325	2762.54
873.507	3249.96
873.689	3061.54
873.87	2615.09
874.052	2836.27
874.233	3010.34
874.415	3213.09
874.596	2807.59
874.778	2733.87
874.959	3032.87
875.141	3221.28
875.322	2844.46
875.503	2637.61
875.685	3129.13
875.866	2764.59
876.048	2561.84
876.229	2524.97
876.41	3039.01
876.592	3075.88
876.773	2760.49
876.954	2502.45
877.136	3370.79
877.317	3108.65
877.498	2615.09
877.679	2840.36
877.86	3157.8
878.042	2973.48
878.223	2801.45
878.404	3045.16
878.585	3270.44
878.766	3505.95
878.947	3161.89
879.128	2950.95
879.309	3268.39
879.49	3266.34
879.672	2985.77
879.853	2959.14
880.034	2895.66
880.215	3051.3
880.396	2809.64
880.576	2856.75
880.757	2858.79
880.938	3428.13
881.119	2830.12
881.3	2869.03
881.481	2987.82
881.662	4079.38
881.843	2832.17
882.023	2862.89
882.204	3170.08
882.385	2983.72
882.566	2899.75
882.747	3041.06
882.927	3200.8
883.108	3174.18
883.289	2707.24
883.469	3186.47
883.65	3135.27
883.831	3225.38
884.011	3071.78
884.192	2823.98
884.373	3458.85
884.553	3309.35
884.734	3016.49
884.914	3342.11
885.095	3964.7
885.275	3692.32
885.456	3268.39
885.636	2858.79
885.817	3204.9
885.997	3129.13
886.178	2864.94
886.358	3000.1
886.538	3165.99
886.719	4298.52
886.899	2996.01
887.08	3184.42
887.26	3501.86
887.44	3075.88
887.621	2963.24
887.801	3192.61
887.981	3897.11
888.161	3583.77
888.342	3239.72
888.522	3147.56
888.702	3546.91
888.882	3768.09
889.062	3284.77
889.242	2844.46
889.423	3680.03
889.603	3446.56
889.783	3350.31
889.963	3061.54
890.143	3446.56
890.323	3606.3
890.503	3125.03
890.683	3118.89
890.863	3573.53
891.043	3583.77
891.223	3342.11
891.403	3432.22
891.583	3415.84
891.763	3450.66
891.943	3286.82
892.122	3204.9
892.302	3501.86
892.482	3409.7
892.662	3381.03
892.842	3282.72
893.022	3577.63
893.201	3180.32
893.381	3335.97
893.561	3200.8
893.741	3688.22
893.92	3632.93
894.1	3368.74
894.28	3213.09
894.459	3743.52
894.639	3475.23
894.819	3272.48
894.998	3280.68
895.178	3555.1
895.357	3639.07
895.537	3145.51
895.716	3161.89
895.896	3526.43
896.075	3735.32
896.255	3311.39
896.434	3075.88
896.614	3692.32
896.793	3852.06
896.973	3348.26
897.152	3354.4
897.331	3469.09
897.511	3827.48
897.69	3157.8
897.87	3292.96
898.049	3637.02
898.228	3663.65
898.407	3493.66
898.587	3262.24
898.766	3370.79
898.945	3856.15
899.124	3438.37
899.304	3399.46
899.483	3766.04
899.662	3991.32
899.841	3262.24
900.02	3174.18
900.199	3845.91
900.378	3501.86
900.557	3075.88
900.737	3174.18
900.916	3596.06
901.095	3733.28
901.274	3467.04
901.453	3125.03
901.632	3305.25
901.811	3321.63
901.989	3258.15
902.168	3198.76
902.347	3532.58
902.526	3362.59
902.705	3170.08
902.884	3241.76
903.063	3819.29
903.242	3770.14
903.42	3077.93
903.599	3319.59
903.778	3815.2
903.957	3782.43
904.135	3551.01
904.314	3444.51
904.493	3532.58
904.672	3647.26
904.85	3286.82
905.029	3188.52
905.207	3778.33
905.386	4261.65
905.565	3147.56
905.743	3237.67
905.922	3360.55
906.1	3624.73
906.279	3100.45
906.457	3075.88
906.636	3252
906.814	3444.51
906.993	3266.34
907.171	3143.46
907.35	3528.48
907.528	3751.71
907.707	3526.43
907.885	3129.13
908.063	3835.67
908.242	3155.75
908.42	3217.19
908.598	2885.42
908.777	3460.9
908.955	3370.79
909.133	3182.37
909.311	2946.86
909.49	3329.83
909.668	3372.83
909.846	3192.61
910.024	2922.28
910.202	3432.22
910.38	3534.62
910.559	3012.39
910.737	2864.94
910.915	3553.06
911.093	3483.42
911.271	3127.08
911.449	3303.2
911.627	3448.61
911.805	3897.11
911.983	2975.53
912.161	3049.25
912.339	3364.64
912.517	3559.2
912.695	3225.38
912.872	3137.32
913.05	3231.52
913.228	3452.7
913.406	3034.92
913.584	2991.91
913.762	3481.38
913.939	3196.71
914.117	2897.71
914.295	2942.76
914.473	3342.11
914.65	3370.79
914.828	2957.1
915.006	2922.28
915.184	2991.91
915.361	3397.41
915.539	3182.37
915.716	3059.49
915.894	3432.22
916.072	3399.46
916.249	3188.52
916.427	3188.52
916.604	3000.1
916.782	3344.16
916.959	2742.06
917.137	2977.58
917.314	3209
917.492	3344.16
917.669	3006.25
917.847	2963.24
918.024	3313.44
918.201	3012.39
918.379	3002.15
918.556	2965.29
918.733	3303.2
918.911	3149.61
919.088	3069.73
919.265	2983.72
919.442	3098.41
919.62	3084.07
919.797	2713.39
919.974	2676.52
920.151	3209
920.328	3075.88
920.506	2830.12
920.683	2823.98
920.86	2832.17
921.037	2850.6
921.214	2850.6
921.391	2764.59
921.568	3198.76
921.745	2881.32
921.922	2705.2
922.099	2713.39
922.276	3235.62
922.453	3012.39
922.63	2682.67
922.807	3108.65
922.984	3057.45
923.161	2785.07
923.338	2658.09
923.514	2688.81
923.691	2930.47
923.868	3086.12
924.045	2729.77
924.222	2518.83
924.399	3032.87
924.575	3090.21
924.752	2733.87
924.929	2754.35
925.105	3024.68
925.282	2729.77
925.459	2721.58
925.635	2647.85
925.812	3041.06
925.989	2735.92
926.165	2608.94
926.342	2475.82
926.518	2524.97
926.695	2766.64
926.871	2533.17
927.048	2305.84
927.224	2971.43
927.401	2799.4
927.577	2527.02
927.754	2287.41
927.93	2897.71
928.107	2948.9
928.283	2436.91
928.459	2750.25
928.636	2897.71
928.812	2688.81
928.988	2363.19
929.165	2357.04
929.341	2656.04
929.517	2828.07
929.693	2869.03
929.87	2240.31
930.046	2746.16
930.222	2592.56
930.398	2354.99
930.574	2590.51
930.751	2641.71
930.927	2510.64
931.103	2344.75
931.279	2449.2
931.455	2258.74
931.631	2664.24
931.807	2180.92
931.983	2209.59
932.159	2158.39
932.335	2551.6
932.511	2264.88
932.687	2232.12
932.863	2475.82
933.039	2365.23
933.215	2121.52
933.391	2033.46
933.566	2363.19
933.742	2445.1
933.918	2262.83
934.094	1953.59
934.27	2443.06
934.445	2471.73
934.621	2279.22
934.797	2025.27
934.973	2582.32
935.148	2295.6
935.324	1969.98
935.5	1875.77
935.675	2402.1
935.851	2250.55
936.027	1961.78
936.202	1994.55
936.378	2250.55
936.553	2082.61
936.729	2344.75
936.904	1759.03
937.08	1705.79
937.255	1869.62
937.431	1685.31
937.606	1498.94
937.782	1861.43
937.957	1894.2
938.133	1636.16
938.308	1539.9
938.483	1769.27
938.659	1505.09
938.834	1589.05
939.009	1466.17
939.185	1777.47
939.36	1484.61
939.535	1146.69
939.71	1601.34
939.886	1984.31
940.061	1722.17
940.236	1511.23
940.411	1388.35
940.586	1740.6
940.761	1771.32
940.937	1367.87
941.112	1206.08
941.287	1634.11
941.462	1568.57
941.637	1124.16
941.812	1298.24
941.987	1576.77
942.162	1369.92
942.337	1333.06
942.512	1218.37
942.687	1756.99
942.862	1685.31
943.037	1079.11
943.212	937.8
943.386	1353.54
943.561	1451.84
943.736	1275.71
943.911	1580.86
944.086	1517.37
944.26	1482.56
944.435	1296.19
944.61	1285.95
944.785	1797.95
944.959	1754.94
945.134	1152.84
945.309	1034.05
945.483	1187.65
945.658	1525.57
945.833	835.4
946.007	993.09
946.182	1816.38
946.357	1165.12
946.531	997.19
946.706	1044.29
946.88	1046.34
947.055	1431.36
947.229	1124.16
947.404	1072.96
947.578	1640.25
947.752	1294.15
947.927	1054.53
948.101	841.54
948.276	1384.26
948.45	1376.06
948.624	1249.09
948.799	1017.67
948.973	1464.13
949.147	1066.82
949.321	1185.6
949.496	1163.08
949.67	1535.81
949.844	1240.9
950.018	1093.44
950.193	1167.17
950.367	1779.51
950.541	1111.88
950.715	1324.87
950.889	1257.28
951.063	1271.62
951.237	1480.51
951.411	853.83
951.585	857.93
951.759	1427.26
951.933	1324.87
952.107	1134.4
952.281	1281.86
952.455	1673.02
952.629	1500.99
952.803	1165.12
952.977	1034.05
953.151	1507.13
953.325	1378.11
953.499	1193.8
953.672	976.71
953.846	1216.32
954.02	1275.71
954.194	1187.65
954.368	1095.49
954.541	1404.74
954.715	1163.08
954.889	1208.13
955.062	1064.77
955.236	1316.67
955.41	1206.08
955.583	1292.1
955.757	888.65
955.93	1320.77
956.104	1107.78
956.278	1161.03
956.451	1120.07
956.625	1574.72
956.798	1843
956.972	1277.76
957.145	1017.67
957.319	1322.82
957.492	1292.1
957.665	1244.99
957.839	1077.06
958.012	1496.89
958.185	1185.6
958.359	1072.96
958.532	1222.47
958.705	1445.7
958.879	1445.7
959.052	1120.07
959.225	943.94
959.398	1171.27
959.572	1447.74
959.745	1060.68
959.918	1165.12
960.091	1302.34
960.264	1455.94
960.438	956.23
960.611	950.09
960.784	1412.93
960.957	1075.01
961.13	1388.35
961.303	1021.77
961.476	1402.69
961.649	1460.03
961.822	976.71
961.995	1097.54
962.168	1453.89
962.341	1218.37
962.514	1128.26
962.686	935.75
962.859	1341.25
963.032	1277.76
963.205	1034.05
963.378	880.46
963.551	1296.19
963.723	1222.47
963.896	1218.37
964.069	1212.23
964.242	1277.76
964.414	1503.04
964.587	1107.78
964.76	1165.12
964.932	1355.58
965.105	1333.06
965.278	1019.72
965.45	1019.72
965.623	1367.87
965.795	1353.54
965.968	1044.29
966.14	1032.01
966.313	1312.58
966.485	1312.58
966.658	964.42
966.83	1001.29
967.003	1513.28
967.175	1451.84
967.348	1044.29
967.52	1005.38
967.692	1519.42
967.865	1404.74
968.037	1132.36
968.209	1447.74
968.382	1226.56
968.554	1484.61
968.726	1095.49
968.898	980.81
969.071	1326.91
969.243	1359.68
969.415	956.23
969.587	1068.87
969.759	1697.6
969.932	1394.5
970.104	1136.45
970.276	739.15
970.448	1208.13
970.62	1013.57
970.792	1142.6
970.964	1085.25
971.136	1713.98
971.308	1353.54
971.48	948.04
971.652	943.94
971.824	1554.24
971.996	1163.08
972.168	1025.86
972.339	1046.34
972.511	1410.88
972.683	1191.75
972.855	1304.39
973.027	1029.96
973.199	1259.33
973.37	1394.5
973.542	1161.03
973.714	1183.56
973.886	1251.14
974.057	1509.18
974.229	880.46
974.401	1005.38
974.572	1083.2
974.744	837.45
974.915	1007.43
975.087	1023.81
975.259	1521.47
975.43	1089.35
975.602	1128.26
975.773	804.68
975.945	1107.78
976.116	1412.93
976.288	921.42
976.459	1140.55
976.63	1040.2
976.802	1402.69
976.973	835.4
977.145	1107.78
977.316	1658.68
977.487	1189.7
977.659	1199.94
977.83	984.9
978.001	1668.92
978.172	1298.24
978.344	1005.38
978.515	1009.48
978.686	1158.98
978.857	1496.89
979.028	1040.2
979.2	894.79
979.371	1455.94
979.542	1259.33
979.713	1040.2
979.884	669.52
980.055	952.13
980.226	1107.78
980.397	986.95
980.568	812.87
980.739	1496.89
980.91	1146.69
981.081	1142.6
981.252	900.94
981.423	1296.19
981.594	1400.64
981.765	804.68
981.936	1040.2
982.106	1140.55
982.277	1433.41
982.448	829.26
982.619	982.85
982.79	962.37
982.96	1359.68
983.131	966.47
983.302	677.71
983.472	1042.25
983.643	1232.71
983.814	1015.62
983.984	798.54
984.155	1036.1
984.326	1279.81
984.496	1050.44
984.667	853.83
984.837	984.9
985.008	1431.36
985.178	1118.02
985.349	845.64
985.519	1058.63
985.69	825.16
985.86	892.74
986.031	747.34
986.201	1085.25
986.371	1242.95
986.542	743.24
986.712	677.71
986.882	1210.18
987.053	1208.13
987.223	714.57
987.393	878.41
987.563	921.42
987.734	1238.85
987.904	1095.49
988.074	737.1
988.244	1161.03
988.414	878.41
988.585	845.64
988.755	894.79
988.925	995.14
989.095	1480.51
989.265	741.19
989.435	839.5
989.605	1247.04
989.775	1244.99
989.945	1134.4
990.115	595.79
990.285	976.71
990.455	1109.83
990.625	857.93
990.795	671.56
990.965	1292.1
991.134	747.34
991.304	765.77
991.474	741.19
991.644	1052.49
991.814	1378.11
991.984	671.56
992.153	792.39
992.323	997.19
992.493	1085.25
992.662	606.03
992.832	935.75
993.002	1081.16
993.171	1052.49
993.341	536.4
993.511	827.21
993.68	843.59
993.85	1275.71
994.019	601.93
994.189	587.6
994.358	1109.83
994.528	771.91
994.697	479.05
994.867	644.94
995.036	1175.36
995.206	819.02
995.375	683.85
995.544	954.18
995.714	1038.15
995.883	816.97
996.052	839.5
996.222	460.62
996.391	1548.09
996.56	1005.38
996.73	603.98
996.899	464.72
997.068	1253.19
997.237	935.75
997.406	599.88
997.576	540.49
997.745	950.09
997.914	917.32
998.083	440.14
998.252	554.83
998.421	1013.57
998.59	636.75
998.759	554.83
998.928	343.89
999.097	1177.41
999.266	986.95
999.435	780.11
999.604	393.04
999.773	1365.82
999.942	915.27
1000.111	493.39
1000.28	452.43
1000.448	612.17
1000.617	710.47
1000.786	821.06
1000.955	544.59
1001.124	884.55
1001.292	1546.05
1001.461	552.78
1001.63	487.25
1001.798	1218.37
1001.967	1083.2
1002.136	440.14
1002.304	429.9
1002.473	886.6
1002.642	915.27
1002.81	640.84
1002.979	591.69
1003.147	1052.49
1003.316	1349.44
1003.484	554.83
1003.653	456.53
1003.821	1072.96
1003.99	741.19
1004.158	632.65
1004.327	550.73
1004.495	995.14
1004.663	720.71
1004.832	595.79
1005	360.27
1005.168	941.89
1005.337	954.18
1005.505	450.38
1005.673	679.75
1005.842	939.85
1006.01	962.37
1006.178	511.82
1006.346	505.68
1006.514	972.61
1006.683	1214.27
1006.851	450.38
1007.019	354.13
1007.187	665.42
1007.355	298.83
1007.523	313.17
1007.691	405.33
1007.859	599.88
1008.027	960.33
1008.195	534.35
1008.363	407.38
1008.531	952.13
1008.699	591.69
1008.867	268.11
1009.035	427.85
1009.203	1097.54
1009.37	837.45
1009.538	442.19
1009.706	798.54
1009.874	780.11
1010.042	681.8
1010.209	325.46
1010.377	337.74
1010.545	896.84
1010.713	724.81
1010.88	423.76
1011.048	468.81
1011.216	687.95
1011.383	1054.53
1011.551	454.48
1011.718	331.6
1011.886	1032.01
1012.054	771.91
1012.221	376.66
1012.389	333.65
1012.556	683.85
1012.724	1140.55
1012.891	442.19
1013.058	233.3
1013.226	853.83
1013.393	982.85
1013.561	214.87
1013.728	83.8
1013.895	1019.72
1014.063	837.45
1014.23	268.11
1014.397	280.4
1014.565	864.07
1014.732	575.31
1014.899	280.4
1015.066	264.02
1015.233	808.78
1015.401	802.63
1015.568	419.66
1015.735	509.77
1015.902	864.07
1016.069	810.82
1016.236	337.74
1016.403	374.61
1016.57	444.24
1016.737	878.41
1016.904	276.31
1017.071	200.53
1017.238	487.25
1017.405	823.11
1017.572	388.94
1017.739	542.54
1017.906	780.11
1018.073	841.54
1018.24	347.98
1018.407	423.76
1018.573	941.89
1018.74	548.68
1018.907	311.12
1019.074	96.08
1019.241	923.46
1019.407	651.08
1019.574	337.74
1019.741	124.76
1019.907	661.32
1020.074	788.3
1020.241	98.13
1020.407	257.87
1020.574	737.1
1020.74	806.73
1020.907	354.13
1021.073	241.49
1021.24	1187.65
1021.406	986.95
1021.573	147.28
1021.739	315.22
1021.906	825.16
1022.072	579.4
1022.239	327.5
1022.405	405.33
1022.571	685.9
1022.738	470.86
1022.904	239.44
1023.07	270.16
1023.237	630.6
1023.403	880.46
1023.569	235.35
1023.735	245.59
1023.902	665.42
1024.068	626.51
1024.234	139.09
1024.4	169.81
1024.566	673.61
1024.732	745.29
1024.898	233.3
1025.065	51.03
1025.231	812.87
1025.397	509.77
1025.563	286.54
1025.729	261.97
1025.895	145.24
1026.061	286.54
1026.227	61.27
1026.392	194.39
1026.558	763.72
1026.724	649.04
1026.89	175.95
1027.056	292.69
1027.222	651.08
1027.388	419.66
1027.553	227.15
1027.719	182.1
1027.885	929.61
1028.051	689.99
1028.216	-4.27
1028.382	182.1
1028.548	798.54
1028.713	487.25
1028.879	36.69
1029.045	356.18
1029.21	909.13
1029.376	853.83
1029.541	202.58
1029.707	180.05
1029.873	724.81
1030.038	683.85
1030.204	139.09
1030.369	247.63
1030.534	765.77
1030.7	423.76
1030.865	227.15
1031.031	69.46
1031.196	606.03
1031.361	579.4
1031.527	120.66
1031.692	102.23
1031.857	83.8
1032.023	534.35
1032.188	104.28
1032.353	264.02
1032.518	892.74
1032.684	665.42
1032.849	20.31
1033.014	141.14
1033.179	669.52
1033.344	665.42
1033.509	325.46
1033.674	216.91
1033.839	739.15
1034.004	642.89
1034.17	94.04
1034.335	132.95
1034.5	481.1
1034.664	317.26
1034.829	102.23
1034.994	104.28
1035.159	573.26
1035.324	624.46
1035.489	128.85
1035.654	89.94
1035.819	806.73
1035.984	481.1
1036.148	218.96
1036.313	116.56
1036.478	692.04
1036.643	477.01
1036.807	30.55
1036.972	122.71
1037.137	837.45
1037.301	511.82
1037.466	-57.51
1037.631	194.39
1037.795	730.95
1037.96	567.12
1038.124	309.07
1038.289	14.17
1038.454	575.31
1038.618	565.07
1038.783	151.38
1038.947	184.15
1039.111	497.49
1039.276	448.33
1039.44	26.45
1039.605	571.21
1039.769	483.15
1039.933	376.66
1040.098	130.9
1040.262	358.22
1040.426	714.57
1040.591	661.32
1040.755	34.64
1040.919	102.23
1041.083	511.82
1041.248	376.66
1041.412	-30.89
1041.576	-0.17
1041.74	472.91
1041.904	581.45
1042.068	5.97
1042.232	51.03
1042.397	640.84
1042.561	493.39
1042.725	-170.15
1042.889	329.55
1043.053	587.6
1043.217	489.29
1043.381	157.52
1043.544	-59.56
1043.708	735.05
1043.872	274.26
1044.036	-215.21
1044.2	-34.99
1044.364	657.23
1044.528	829.26
1044.691	1490.75
1044.855	46.93
1045.019	687.95
1045.183	522.06
1045.346	120.66
1045.51	51.03
1045.674	536.4
1045.837	622.41
1046.001	141.14
1046.165	-28.84
1046.328	1003.33
1046.492	460.62
1046.655	206.67
1046.819	173.91
1046.983	292.69
1047.146	509.77
1047.31	159.57
1047.473	-100.52
1047.636	399.18
1047.8	216.91
1047.963	110.42
1048.127	30.55
1048.29	223.06
