Data from Ink_Intensity_USB4F045381__182__00182.txt Node

Date: Mon Jul 17 11:42:00 EDT 2023
User: mmckonesweet
Spectrometer: USB4F04538
Trigger mode: 4
Integration Time (sec): 9.000000E-1
Scans to average: 1
Electric dark correction enabled: true
Nonlinearity correction enabled: false
Boxcar width: 0
XAxis mode: Wavelengths
Number of Pixels in Spectrum: 3648
>>>>>Begin Spectral Data<<<<<
345.52	-1049.93
345.736	-1049.93
345.952	-1049.93
346.168	-1006.92
346.384	-1062.21
346.6	-87.38
346.816	-253.27
347.032	-214.35
347.248	162.47
347.464	-122.2
347.68	-204.11
347.896	86.7
348.112	369.32
348.328	-77.14
348.544	-62.8
348.76	96.94
348.975	305.83
349.191	-238.93
349.407	-202.07
349.623	-38.23
349.839	-109.91
350.055	-187.73
350.27	25.26
350.486	74.41
350.702	305.83
350.918	185
351.133	-193.87
351.349	68.27
351.565	363.17
351.781	-243.03
351.996	-15.7
352.212	246.44
352.428	-167.25
352.644	-269.65
352.859	-216.4
353.075	195.24
353.291	103.08
353.506	-212.31
353.722	-341.33
353.938	-93.52
354.153	492.2
354.369	107.18
354.584	-243.03
354.8	195.24
355.016	-236.88
355.231	-222.55
355.447	-71
355.662	148.14
355.878	793.25
356.093	-423.25
356.309	-89.43
356.524	-261.46
356.74	213.67
356.955	-197.97
357.171	-95.57
357.386	172.71
357.602	-267.6
357.817	-136.53
358.033	-220.5
358.248	316.07
358.464	123.56
358.679	-163.15
358.895	-320.85
359.11	-124.24
359.325	217.77
359.541	15.02
359.756	-50.52
359.972	-390.48
360.187	70.31
360.402	-220.5
360.618	-216.4
360.833	981.66
361.048	166.57
361.264	-200.02
361.479	-148.82
361.694	-9.56
361.909	168.62
362.125	-216.4
362.34	-118.1
362.555	297.64
362.77	25.26
362.986	-314.7
363.201	-77.14
363.416	252.58
363.631	-30.04
363.847	-214.35
364.062	-193.87
364.277	78.51
364.492	76.46
364.707	-263.51
364.922	-408.91
365.138	236.2
365.353	348.84
365.568	-269.65
365.783	-118.1
365.998	125.61
366.213	551.59
366.428	-183.63
366.643	117.42
366.858	197.29
367.073	82.6
367.288	-97.62
367.503	-316.75
367.718	68.27
367.933	262.82
368.148	-355.66
368.363	-120.15
368.578	-89.43
368.793	414.37
369.008	-136.53
369.223	-183.63
369.438	240.29
369.653	318.12
369.868	-271.7
370.083	-253.27
370.298	62.12
370.513	410.28
370.728	37.55
370.943	-269.65
371.157	-204.11
371.372	570.02
371.587	-331.09
371.802	-361.81
372.017	25.26
372.232	426.66
372.446	-120.15
372.661	-243.03
372.876	158.38
373.091	98.99
373.306	-87.38
373.52	-265.55
373.735	-263.51
373.95	414.37
374.165	-204.11
374.379	-79.19
374.594	-111.96
374.809	86.7
375.023	31.4
375.238	-232.79
375.453	215.72
375.667	-249.17
375.882	-175.44
376.097	-234.83
376.311	25.26
376.526	-23.89
376.741	-206.16
376.955	15.02
377.17	508.58
377.384	590.5
377.599	-48.47
377.813	-341.33
378.028	559.78
378.242	215.72
378.457	-146.77
378.672	-355.66
378.886	37.55
379.101	-40.28
379.315	-337.23
379.53	-132.44
379.744	185
379.958	150.18
380.173	-189.78
380.387	-267.6
380.602	223.91
380.816	-138.58
381.031	-255.31
381.245	-163.15
381.459	144.04
381.674	2652.8
381.888	-298.32
382.103	98.99
382.317	-200.02
382.531	385.7
382.746	-142.68
382.96	-163.15
383.174	-150.87
383.388	369.32
383.603	21.16
383.817	-275.79
384.031	8.87
384.246	402.08
384.46	-21.85
384.674	307.88
384.888	51.88
385.103	51.88
385.317	-351.57
385.531	-118.1
385.745	434.85
385.959	271.01
386.174	-187.73
386.388	-318.8
386.602	39.59
386.816	-146.77
387.03	-189.78
387.244	-202.07
387.458	58.03
387.672	273.06
387.887	-335.18
388.101	-351.57
388.315	309.93
388.529	66.22
388.743	-212.31
388.957	-281.94
389.171	285.35
389.385	-206.16
389.599	-111.96
389.813	-3.41
390.027	90.79
390.241	621.22
390.455	-191.83
390.669	-210.26
390.883	-73.04
391.097	340.65
391.311	-44.37
391.525	-208.21
391.738	70.31
391.952	164.52
392.166	-64.85
392.38	-273.75
392.594	240.29
392.808	297.64
393.022	-146.77
393.236	-154.96
393.449	137.9
393.663	133.8
393.877	-308.56
394.091	-181.59
394.305	-111.96
394.518	-132.44
394.732	-341.33
394.946	-118.1
395.16	369.32
395.373	64.17
395.587	-257.36
395.801	-286.03
396.015	150.18
396.228	187.05
396.442	-322.9
396.656	-421.2
396.869	354.98
397.083	404.13
397.297	-161.11
397.51	-134.48
397.724	324.26
397.938	131.75
398.151	-388.43
398.365	-347.47
398.578	223.91
398.792	293.54
399.005	-44.37
399.219	-224.59
399.433	15.02
399.646	166.57
399.86	-105.81
400.073	41.64
400.287	174.76
400.5	-85.33
400.714	-97.62
400.927	-114
401.141	225.96
401.354	1036.95
401.567	76.46
401.781	-290.13
401.994	168.62
402.208	496.29
402.421	-134.48
402.635	-154.96
402.848	-30.04
403.061	230.06
403.275	-64.85
403.488	-296.27
403.701	447.14
403.915	211.62
404.128	-5.46
404.341	-161.11
404.555	195.24
404.768	-27.99
404.981	21.16
405.195	-216.4
405.408	475.81
405.621	205.48
405.834	43.69
406.048	-277.84
406.261	283.3
406.474	402.08
406.687	-257.36
406.9	-118.1
407.114	-34.13
407.327	137.9
407.54	-345.42
407.753	-392.53
407.966	-107.86
408.179	307.88
408.392	-187.73
408.605	-324.94
408.819	84.65
409.032	170.66
409.245	-243.03
409.458	8.87
409.671	203.43
409.884	228.01
410.097	-331.09
410.31	-40.28
410.523	275.11
410.736	-46.42
410.949	-202.07
411.162	-157.01
411.375	447.14
411.588	295.59
411.801	17.07
412.014	-212.31
412.227	60.07
412.44	-48.47
412.653	-249.17
412.865	-83.28
413.078	217.77
413.291	178.86
413.504	-75.09
413.717	-269.65
413.93	266.92
414.143	-144.72
414.356	-200.02
414.568	-310.61
414.781	260.77
414.994	115.37
415.207	-130.39
415.42	-122.2
415.632	291.49
415.845	502.43
416.058	-433.49
416.271	-347.47
416.483	33.45
416.696	412.32
416.909	-197.97
417.121	-216.4
417.334	105.13
417.547	547.49
417.759	-206.16
417.972	-363.86
418.185	-64.85
418.397	205.48
418.61	-234.83
418.823	-298.32
419.035	449.19
419.248	-1.37
419.46	-157.01
419.673	-91.48
419.885	133.8
420.098	-21.85
420.311	-169.3
420.523	-398.67
420.736	207.53
420.948	-11.61
421.161	-261.46
421.373	-413.01
421.586	-66.9
421.798	-130.39
422.01	-376.14
422.223	-44.37
422.435	-60.76
422.648	180.9
422.86	-191.83
423.073	-220.5
423.285	197.29
423.497	-263.51
423.71	-226.64
423.922	-157.01
424.134	119.46
424.347	342.69
424.559	-111.96
424.771	150.18
424.984	-46.42
425.196	156.33
425.408	-376.14
425.621	-296.27
425.833	342.69
426.045	281.25
426.257	-228.69
426.47	-253.27
426.682	107.18
426.894	82.6
427.106	-236.88
427.318	-114
427.531	-187.73
427.743	197.29
427.955	-249.17
428.167	182.95
428.379	76.46
428.591	-97.62
428.804	-109.91
429.016	-329.04
429.228	-114
429.44	205.48
429.652	-5.46
429.864	-425.29
430.076	-73.04
430.288	-73.04
430.5	-202.07
430.712	-148.82
430.924	326.31
431.136	105.13
431.348	-400.72
431.56	-253.27
431.772	-34.13
431.984	-87.38
432.196	-316.75
432.408	-187.73
432.62	-138.58
432.832	111.27
433.044	62.12
433.256	-114
433.468	197.29
433.679	-294.22
433.891	-265.55
434.103	-81.24
434.315	354.98
434.527	172.71
434.739	-208.21
434.95	-228.69
435.162	283.3
435.374	-148.82
435.586	-171.35
435.798	-148.82
436.009	-206.16
436.221	-30.04
436.433	-114
436.645	-206.16
436.856	-138.58
437.068	303.78
437.28	-245.07
437.491	21.16
437.703	109.22
437.915	37.55
438.126	-191.83
438.338	49.83
438.55	-77.14
438.761	248.49
438.973	-249.17
439.184	-206.16
439.396	-15.7
439.608	275.11
439.819	-355.66
440.031	-116.05
440.242	156.33
440.454	185
440.665	-171.35
440.877	-97.62
441.088	156.33
441.3	-52.56
441.511	-392.53
441.723	-300.37
441.934	185
442.146	-11.61
442.357	-89.43
442.569	-48.47
442.78	8.87
442.991	430.76
443.203	131.75
443.414	-312.66
443.626	307.88
443.837	-140.63
444.048	-226.64
444.26	-363.86
444.471	-1.37
444.682	178.86
444.894	-359.76
445.105	-437.58
445.316	264.87
445.528	131.75
445.739	-66.9
445.95	-277.84
446.161	60.07
446.373	271.01
446.584	-81.24
446.795	-281.94
447.006	234.15
447.217	400.04
447.429	-408.91
447.64	-335.18
447.851	297.64
448.062	45.74
448.273	-425.29
448.484	-236.88
448.695	82.6
448.907	-15.7
449.118	-111.96
449.329	39.59
449.54	-157.01
449.751	-218.45
449.962	-267.6
450.173	-204.11
450.384	318.12
450.595	281.25
450.806	-220.5
451.017	-195.92
451.228	264.87
451.439	180.9
451.65	-202.07
451.861	-535.89
452.072	-243.03
452.283	-25.94
452.494	-25.94
452.705	-312.66
452.915	391.84
453.126	121.51
453.337	-179.54
453.548	-269.65
453.759	283.3
453.97	486.05
454.181	39.59
454.391	-175.44
454.602	4.78
454.813	217.77
455.024	-195.92
455.235	-249.17
455.445	117.42
455.656	29.35
455.867	-52.56
456.078	-286.03
456.288	49.83
456.499	64.17
456.71	-314.7
456.921	-48.47
457.131	121.51
457.342	66.22
457.553	-73.04
457.763	-253.27
457.974	213.67
458.184	197.29
458.395	-286.03
458.606	-277.84
458.816	303.78
459.027	484
459.237	-68.95
459.448	-384.34
459.659	342.69
459.869	596.64
460.08	-396.62
460.29	-126.29
460.501	420.52
460.711	-38.23
460.922	-376.14
461.132	-283.99
461.343	713.38
461.553	-382.29
461.764	-275.79
461.974	-216.4
462.184	207.53
462.395	98.99
462.605	-220.5
462.816	-290.13
463.026	86.7
463.236	295.59
463.447	-228.69
463.657	-224.59
463.867	209.58
464.078	-87.38
464.288	-253.27
464.498	-232.79
464.709	-30.04
464.919	-66.9
465.129	-269.65
465.339	-376.14
465.55	109.22
465.76	232.1
465.97	-154.96
466.18	-310.61
466.391	193.19
466.601	53.93
466.811	-146.77
467.021	-382.29
467.231	123.56
467.441	262.82
467.651	-200.02
467.862	-523.6
468.072	-17.75
468.282	264.87
468.492	-261.46
468.702	-202.07
468.912	8.87
469.122	653.98
469.332	111.27
469.542	-310.61
469.752	223.91
469.962	23.21
470.172	-339.28
470.382	-343.38
470.592	98.99
470.802	254.63
471.012	-128.34
471.222	-335.18
471.432	242.34
471.642	207.53
471.852	-148.82
472.062	-384.34
472.272	-89.43
472.482	-277.84
472.691	-355.66
472.901	-439.63
473.111	-7.51
473.321	563.87
473.531	-413.01
473.741	-179.54
473.95	127.66
474.16	176.81
474.37	-105.81
474.58	-292.18
474.79	367.27
474.999	176.81
475.209	-335.18
475.419	-257.36
475.628	-32.08
475.838	344.74
476.048	-167.25
476.258	-394.58
476.467	332.45
476.677	-60.76
476.886	-13.65
477.096	-189.78
477.306	-48.47
477.515	297.64
477.725	-109.91
477.935	-171.35
478.144	271.01
478.354	-212.31
478.563	-281.94
478.773	-431.44
478.982	174.76
479.192	250.53
479.401	-161.11
479.611	-390.48
479.82	-197.97
480.03	25.26
480.239	-277.84
480.449	-384.34
480.658	481.96
480.868	-93.52
481.077	-138.58
481.287	-314.7
481.496	164.52
481.705	354.98
481.915	-40.28
482.124	-21.85
482.333	74.41
482.543	385.7
482.752	-179.54
482.961	-263.51
483.171	189.1
483.38	35.5
483.589	-122.2
483.799	-298.32
484.008	-50.52
484.217	213.67
484.426	-202.07
484.636	-482.64
484.845	86.7
485.054	-249.17
485.263	49.83
485.472	-214.35
485.682	352.93
485.891	35.5
486.1	-431.44
486.309	-251.22
486.518	166.57
486.727	311.97
486.936	-355.66
487.146	-216.4
487.355	367.27
487.564	-195.92
487.773	-224.59
487.982	-228.69
488.191	-109.91
488.4	55.98
488.609	-224.59
488.818	-257.36
489.027	561.83
489.236	326.31
489.445	-212.31
489.654	-410.96
489.863	221.86
490.072	23.21
490.281	15.02
490.49	-216.4
490.698	379.56
490.907	387.75
491.116	-212.31
491.325	-439.63
491.534	338.6
491.743	-7.51
491.952	-142.68
492.16	-232.79
492.369	82.6
492.578	168.62
492.787	-154.96
492.996	-394.58
493.204	-89.43
493.413	471.72
493.622	-515.41
493.831	-482.64
494.039	369.32
494.248	-271.7
494.457	-345.42
494.665	-392.53
494.874	135.85
495.083	512.67
495.291	-220.5
495.5	-292.18
495.709	160.42
495.917	111.27
496.126	-163.15
496.335	-316.75
496.543	-183.63
496.752	172.71
496.96	4.78
497.169	-445.77
497.377	58.03
497.586	266.92
497.794	-75.09
498.003	-458.06
498.211	23.21
498.42	385.7
498.628	-195.92
498.837	-318.8
499.045	164.52
499.254	27.31
499.462	-333.14
499.671	-331.09
499.879	438.95
500.087	271.01
500.296	-238.93
500.504	-232.79
500.713	-48.47
500.921	537.25
501.129	-273.75
501.338	-269.65
501.546	35.5
501.754	-1.37
501.962	-288.08
502.171	-351.57
502.379	221.86
502.587	400.04
502.795	-202.07
503.004	-243.03
503.212	29.35
503.42	248.49
503.628	-267.6
503.837	-240.98
504.045	252.58
504.253	412.32
504.461	-316.75
504.669	-492.88
504.877	168.62
505.085	293.54
505.294	-425.29
505.502	-62.8
505.71	33.45
505.918	232.1
506.126	-374.1
506.334	-300.37
506.542	-77.14
506.75	86.7
506.958	-126.29
507.166	-269.65
507.374	-167.25
507.582	438.95
507.79	-144.72
507.998	-306.51
508.206	148.14
508.414	74.41
508.622	-306.51
508.83	-243.03
509.037	438.95
509.245	-48.47
509.453	-320.85
509.661	-376.14
509.869	172.71
510.077	-11.61
510.285	-179.54
510.492	-492.88
510.7	498.34
510.908	-85.33
511.116	-247.12
511.324	-224.59
511.531	-44.37
511.739	80.55
511.947	-146.77
512.155	55.98
512.362	58.03
512.57	-269.65
512.778	-318.8
512.985	-417.1
513.193	234.15
513.401	334.5
513.608	-220.5
513.816	-273.75
514.024	199.34
514.231	330.41
514.439	-326.99
514.646	-290.13
514.854	279.21
515.061	250.53
515.269	-263.51
515.477	-302.42
515.684	-202.07
515.892	256.68
516.099	-425.29
516.307	-417.1
516.514	158.38
516.722	357.03
516.929	-277.84
517.136	-296.27
517.344	443.04
517.551	125.61
517.759	-247.12
517.966	-240.98
518.173	-54.61
518.381	29.35
518.588	-138.58
518.796	-310.61
519.003	271.01
519.21	21.16
519.418	-312.66
519.625	68.27
519.832	6.83
520.039	49.83
520.247	-443.73
520.454	-210.26
520.661	219.82
520.868	158.38
521.076	-288.08
521.283	-150.87
521.49	606.88
521.697	119.46
521.904	-116.05
522.112	-388.43
522.319	193.19
522.526	105.13
522.733	-329.04
522.94	-318.8
523.147	45.74
523.354	211.62
523.561	-359.76
523.768	-144.72
523.975	287.4
524.183	43.69
524.39	-105.81
524.597	-431.44
524.804	-27.99
525.011	-132.44
525.218	-347.47
525.425	-376.14
525.632	377.51
525.838	-114
526.045	-302.42
526.252	-349.52
526.459	1165.98
526.666	828.06
526.873	-355.66
527.08	-298.32
527.287	365.22
527.494	182.95
527.701	-441.68
527.907	-408.91
528.114	174.76
528.321	-52.56
528.528	-249.17
528.735	-269.65
528.941	-71
529.148	-179.54
529.355	-204.11
529.562	-355.66
529.768	344.74
529.975	-105.81
530.182	-286.03
530.388	-413.01
530.595	238.25
530.802	-243.03
531.008	-138.58
531.215	-273.75
531.422	508.58
531.628	817.82
531.835	-181.59
532.042	-214.35
532.248	-138.58
532.455	144.04
532.661	-212.31
532.868	-361.81
533.074	150.18
533.281	271.01
533.487	-146.77
533.694	-349.52
533.9	-200.02
534.107	139.94
534.313	-357.71
534.52	-462.16
534.726	193.19
534.933	459.43
535.139	-421.2
535.345	-449.87
535.552	76.46
535.758	-68.95
535.965	-202.07
536.171	-304.46
536.377	176.81
536.584	428.71
536.79	-322.9
536.996	-195.92
537.203	164.52
537.409	41.64
537.615	-261.46
537.821	-169.3
538.028	201.38
538.234	144.04
538.44	-228.69
538.646	-128.34
538.853	109.22
539.059	-9.56
539.265	135.85
539.471	-466.25
539.677	209.58
539.883	-56.66
540.09	-286.03
540.296	74.41
540.502	-15.7
540.708	-159.06
540.914	-48.47
541.12	-286.03
541.326	135.85
541.532	-89.43
541.738	-197.97
541.944	-173.39
542.15	180.9
542.356	-40.28
542.562	-359.76
542.768	-259.41
542.974	553.63
543.18	557.73
543.386	-318.8
543.592	-402.77
543.798	357.03
544.004	187.05
544.21	-335.18
544.415	-171.35
544.621	101.03
544.827	357.03
545.033	-372.05
545.239	-64.85
545.445	-173.39
545.651	109.22
545.856	-333.14
546.062	-290.13
546.268	-165.2
546.474	-48.47
546.679	-234.83
546.885	-210.26
547.091	-152.92
547.297	488.1
547.502	-120.15
547.708	-376.14
547.914	-134.48
548.119	248.49
548.325	-367.95
548.531	-413.01
548.736	379.56
548.942	-150.87
549.147	-314.7
549.353	-87.38
549.559	242.34
549.764	197.29
549.97	-294.22
550.175	-324.94
550.381	178.86
550.586	-111.96
550.792	-259.41
550.997	-306.51
551.203	146.09
551.408	158.38
551.614	-355.66
551.819	-429.39
552.025	443.04
552.23	422.56
552.435	-398.67
552.641	-122.2
552.846	-226.64
553.052	262.82
553.257	-204.11
553.462	-355.66
553.668	-150.87
553.873	289.45
554.078	-413.01
554.283	-279.89
554.489	17.07
554.694	-32.08
554.899	-324.94
555.105	-25.94
555.31	180.9
555.515	264.87
555.72	-189.78
555.925	-286.03
556.131	191.14
556.336	-130.39
556.541	-370
556.746	-398.67
556.951	254.63
557.156	334.5
557.361	-154.96
557.567	-62.8
557.772	467.62
557.977	164.52
558.182	-310.61
558.387	-310.61
558.592	-46.42
558.797	281.25
559.002	-175.44
559.207	-202.07
559.412	74.41
559.617	510.63
559.822	-281.94
560.027	-372.05
560.232	127.66
560.437	273.06
560.642	-480.59
560.847	-384.34
561.051	8.87
561.256	58.03
561.461	-195.92
561.666	-324.94
561.871	111.27
562.076	242.34
562.281	-286.03
562.485	-466.25
562.69	254.63
562.895	297.64
563.1	-324.94
563.305	-326.99
563.509	342.69
563.714	475.81
563.919	-329.04
564.123	-310.61
564.328	-56.66
564.533	336.55
564.737	-232.79
564.942	-320.85
565.147	416.42
565.351	529.06
565.556	-122.2
565.761	-265.55
565.965	74.41
566.17	-130.39
566.374	-228.69
566.579	-439.63
566.784	129.7
566.988	-66.9
567.193	-490.83
567.397	-355.66
567.602	-302.42
567.806	-73.04
568.011	-177.49
568.215	-236.88
568.42	-52.56
568.624	-21.85
568.828	-283.99
569.033	-83.28
569.237	125.61
569.442	119.46
569.646	-410.96
569.85	-281.94
570.055	17.07
570.259	189.1
570.463	-23.89
570.668	-228.69
570.872	-97.62
571.076	-32.08
571.281	-138.58
571.485	-259.41
571.689	10.92
571.893	166.57
572.098	-64.85
572.302	-255.31
572.506	74.41
572.71	35.5
572.914	-236.88
573.119	-275.79
573.323	359.08
573.527	258.73
573.731	-355.66
573.935	-310.61
574.139	96.94
574.343	-208.21
574.547	-200.02
574.751	-193.87
574.955	367.27
575.159	344.74
575.364	-349.52
575.568	-341.33
575.772	-3.41
575.976	242.34
576.18	-322.9
576.383	-421.2
576.587	326.31
576.791	111.27
576.995	-445.77
577.199	-443.73
577.403	262.82
577.607	256.68
577.811	-415.06
578.015	-181.59
578.219	17.07
578.422	219.82
578.626	-195.92
578.83	-163.15
579.034	232.1
579.238	-7.51
579.442	-376.14
579.645	107.18
579.849	33.45
580.053	62.12
580.257	-259.41
580.46	-208.21
580.664	168.62
580.868	150.18
581.071	-56.66
581.275	-101.72
581.479	-204.11
581.682	123.56
581.886	-300.37
582.09	-165.2
582.293	228.01
582.497	221.86
582.7	-140.63
582.904	-372.05
583.107	21.16
583.311	-3.41
583.515	-255.31
583.718	-130.39
583.922	168.62
584.125	467.62
584.329	-316.75
584.532	-107.86
584.735	281.25
584.939	55.98
585.142	-302.42
585.346	-302.42
585.549	160.42
585.753	-175.44
585.956	-204.11
586.159	-140.63
586.363	445.09
586.566	178.86
586.769	-314.7
586.973	-341.33
587.176	185
587.379	252.58
587.582	-75.09
587.786	-62.8
587.989	-9.56
588.192	639.65
588.395	-204.11
588.599	-19.8
588.802	154.28
589.005	228.01
589.208	-185.68
589.411	-232.79
589.615	248.49
589.818	477.86
590.021	-48.47
590.224	-124.24
590.427	201.38
590.63	271.01
590.833	-437.58
591.036	-236.88
591.239	-48.47
591.442	-60.76
591.645	-27.99
591.848	-310.61
592.051	94.89
592.254	232.1
592.457	-181.59
592.66	-97.62
592.863	-54.61
593.066	115.37
593.269	-236.88
593.472	-134.48
593.675	-238.93
593.878	172.71
594.081	-232.79
594.284	-355.66
594.486	111.27
594.689	49.83
594.892	-128.34
595.095	-204.11
595.298	189.1
595.5	-27.99
595.703	-136.53
595.906	-122.2
596.109	414.37
596.311	289.45
596.514	-437.58
596.717	-204.11
596.92	369.32
597.122	187.05
597.325	-406.86
597.528	-271.7
597.73	350.89
597.933	90.79
598.136	-279.89
598.338	-478.54
598.541	150.18
598.743	344.74
598.946	-179.54
599.148	-228.69
599.351	311.97
599.554	285.35
599.756	-58.71
599.959	-232.79
600.161	385.7
600.363	688.8
600.566	-27.99
600.768	-267.6
600.971	391.84
601.173	262.82
601.376	-195.92
601.578	-185.68
601.78	309.93
601.983	582.31
602.185	-261.46
602.388	-68.95
602.59	131.75
602.792	-103.76
602.995	-93.52
603.197	-228.69
603.399	330.41
603.601	148.14
603.804	-163.15
604.006	-265.55
604.208	53.93
604.41	-347.47
604.613	-54.61
604.815	-314.7
605.017	660.13
605.219	-134.48
605.421	158.38
605.623	-216.4
605.826	369.32
606.028	465.57
606.23	-279.89
606.432	-191.83
606.634	453.28
606.836	438.95
607.038	-314.7
607.24	-89.43
607.442	29.35
607.644	43.69
607.846	-23.89
608.048	-314.7
608.25	404.13
608.452	-77.14
608.654	-136.53
608.856	-355.66
609.058	68.27
609.26	225.96
609.462	-114
609.664	-183.63
609.866	578.21
610.067	316.07
610.269	-77.14
610.471	-118.1
610.673	-40.28
610.875	160.42
611.077	-267.6
611.278	-32.08
611.48	107.18
611.682	486.05
611.884	-97.62
612.085	-128.34
612.287	-212.31
612.489	185
612.69	-308.56
612.892	-56.66
613.094	393.89
613.295	117.42
613.497	-341.33
613.699	-193.87
613.9	508.58
614.102	285.35
614.304	-116.05
614.505	-286.03
614.707	-11.61
614.908	15.02
615.11	-245.07
615.311	-95.57
615.513	275.11
615.714	246.44
615.916	-335.18
616.117	-161.11
616.319	-11.61
616.52	242.34
616.722	-277.84
616.923	-224.59
617.124	363.17
617.326	236.2
617.527	-91.48
617.729	31.4
617.93	334.5
618.131	330.41
618.333	-138.58
618.534	-73.04
618.735	-73.04
618.937	393.89
619.138	-294.22
619.339	-193.87
619.54	152.23
619.742	-3.41
619.943	-77.14
620.144	-146.77
620.345	293.54
620.546	262.82
620.748	-236.88
620.949	-224.59
621.15	107.18
621.351	197.29
621.552	-236.88
621.753	-376.14
621.954	-288.08
622.155	641.7
622.356	-310.61
622.558	-195.92
622.759	-38.23
622.96	627.36
623.161	-163.15
623.362	-183.63
623.563	70.31
623.764	127.66
623.965	-85.33
624.166	82.6
624.366	86.7
624.567	176.81
624.768	-453.97
624.969	-157.01
625.17	27.31
625.371	240.29
625.572	-126.29
625.773	-179.54
625.973	369.32
626.174	299.69
626.375	-66.9
626.576	-60.76
626.777	279.21
626.977	656.03
627.178	-189.78
627.379	-34.13
627.58	64.17
627.78	66.22
627.981	-7.51
628.182	-54.61
628.382	365.22
628.583	-269.65
628.784	-341.33
628.984	-50.52
629.185	236.2
629.386	324.26
629.586	-87.38
629.787	-269.65
629.987	156.33
630.188	41.64
630.388	-109.91
630.589	21.16
630.79	692.9
630.99	189.1
631.191	-120.15
631.391	-44.37
631.591	281.25
631.792	557.73
631.992	-95.57
632.193	-163.15
632.393	524.96
632.594	125.61
632.794	-193.87
632.994	-52.56
633.195	70.31
633.395	33.45
633.595	-187.73
633.796	101.03
633.996	-122.2
634.196	336.55
634.397	-286.03
634.597	-62.8
634.797	-50.52
634.997	533.15
635.198	109.22
635.398	-261.46
635.598	219.82
635.798	422.56
635.998	201.38
636.199	-197.97
636.399	-64.85
636.599	-38.23
636.799	-105.81
636.999	254.63
637.199	221.86
637.399	340.65
637.599	-136.53
637.799	-79.19
637.999	17.07
638.199	404.13
638.399	-202.07
638.599	-154.96
638.799	170.66
638.999	649.89
639.199	27.31
639.399	-56.66
639.599	537.25
639.799	-48.47
639.999	-193.87
640.199	-255.31
640.399	164.52
640.599	215.72
640.799	-68.95
640.998	43.69
641.198	490.15
641.398	262.82
641.598	-36.18
641.798	-64.85
641.997	1090.2
642.197	131.75
642.397	10.92
642.597	-157.01
642.796	348.84
642.996	510.63
643.196	8.87
643.395	-232.79
643.595	213.67
643.795	-193.87
643.994	-118.1
644.194	-38.23
644.394	295.59
644.593	281.25
644.793	-329.04
644.992	92.84
645.192	234.15
645.392	-247.12
645.591	8.87
645.791	-99.67
645.99	182.95
646.19	129.7
646.389	-89.43
646.589	-95.57
646.788	309.93
646.987	303.78
647.187	94.89
647.386	82.6
647.586	127.66
647.785	307.88
647.984	-54.61
648.184	-23.89
648.383	45.74
648.582	37.55
648.782	-23.89
648.981	76.46
649.18	-58.71
649.38	238.25
649.579	-163.15
649.778	-195.92
649.977	307.88
650.177	328.36
650.376	-130.39
650.575	-154.96
650.774	543.39
650.973	-52.56
651.173	-269.65
651.372	21.16
651.571	195.24
651.77	424.61
651.969	-138.58
652.168	-44.37
652.367	-93.52
652.566	213.67
652.765	-193.87
652.964	221.86
653.163	578.21
653.362	158.38
653.561	-40.28
653.76	-23.89
653.959	31.4
654.158	254.63
654.357	148.14
654.556	-25.94
654.755	295.59
654.954	385.7
655.153	-58.71
655.352	70.31
655.551	529.06
655.749	-5.46
655.948	49.83
656.147	15.02
656.346	277.16
656.545	135.85
656.743	70.31
656.942	-56.66
657.141	238.25
657.34	-107.86
657.538	-30.04
657.737	-56.66
657.936	82.6
658.135	271.01
658.333	-89.43
658.532	35.5
658.731	580.26
658.929	389.8
659.128	223.91
659.326	-111.96
659.525	443.04
659.724	172.71
659.922	-195.92
660.121	-228.69
660.319	301.73
660.518	-1.37
660.716	-167.25
660.915	-175.44
661.113	492.2
661.312	-91.48
661.51	125.61
661.709	-146.77
661.907	359.08
662.105	576.16
662.304	-30.04
662.502	37.55
662.701	473.76
662.899	133.8
663.097	301.73
663.296	-216.4
663.494	426.66
663.692	557.73
663.891	-79.19
664.089	-116.05
664.287	291.49
664.485	535.2
664.684	-109.91
664.882	123.56
665.08	281.25
665.278	223.91
665.476	-169.3
665.675	289.45
665.873	682.66
666.071	574.11
666.269	-118.1
666.467	295.59
666.665	232.1
666.863	217.77
667.061	137.9
667.259	-97.62
667.457	268.97
667.655	354.98
667.853	-122.2
668.051	29.35
668.249	25.26
668.447	338.6
668.645	-105.81
668.843	162.47
669.041	295.59
669.239	133.8
669.437	113.32
669.635	78.51
669.833	86.7
670.031	295.59
670.229	125.61
670.426	55.98
670.624	80.55
670.822	21.16
671.02	19.11
671.218	-36.18
671.415	-27.99
671.613	205.48
671.811	127.66
672.009	-111.96
672.206	402.08
672.404	264.87
672.602	172.71
672.799	152.23
672.997	316.07
673.195	465.57
673.392	111.27
673.59	-109.91
673.788	449.19
673.985	-245.07
674.183	49.83
674.38	-32.08
674.578	434.85
674.775	78.51
674.973	-68.95
675.17	-48.47
675.368	576.16
675.565	318.12
675.763	-15.7
675.96	-36.18
676.158	549.54
676.355	197.29
676.553	-15.7
676.75	55.98
676.947	256.68
677.145	158.38
677.342	66.22
677.539	129.7
677.737	297.64
677.934	746.14
678.131	234.15
678.329	8.87
678.526	639.65
678.723	447.14
678.92	205.48
679.118	66.22
679.315	-1.37
679.512	668.32
679.709	43.69
679.906	45.74
680.104	492.2
680.301	264.87
680.498	-34.13
680.695	49.83
680.892	-19.8
681.089	31.4
681.286	191.14
681.483	-114
681.68	434.85
681.877	352.93
682.075	37.55
682.272	185
682.469	361.13
682.665	182.95
682.862	-79.19
683.059	-142.68
683.256	287.4
683.453	291.49
683.65	180.9
683.847	31.4
684.044	289.45
684.241	6.83
684.438	185
684.635	-138.58
684.831	610.98
685.028	791.2
685.225	-25.94
685.422	150.18
685.619	213.67
685.815	322.21
686.012	103.08
686.209	113.32
686.405	-66.9
686.602	494.24
686.799	-101.72
686.996	-66.9
687.192	-60.76
687.389	707.23
687.586	-11.61
687.782	121.51
687.979	541.35
688.175	434.85
688.372	131.75
688.568	21.16
688.765	207.53
688.962	584.35
689.158	168.62
689.355	-128.34
689.551	447.14
689.748	242.34
689.944	146.09
690.14	-161.11
690.337	486.05
690.533	78.51
690.73	332.45
690.926	-15.7
691.123	416.42
691.319	252.58
691.515	-85.33
691.712	156.33
691.908	412.32
692.104	346.79
692.301	176.81
692.497	21.16
692.693	438.95
692.889	475.81
693.086	311.97
693.282	-38.23
693.478	326.31
693.674	715.42
693.87	80.55
694.067	-66.9
694.263	293.54
694.459	258.73
694.655	150.18
694.851	172.71
695.047	408.23
695.243	496.29
695.439	232.1
695.635	105.13
695.831	414.37
696.027	408.23
696.224	66.22
696.42	400.04
696.615	631.46
696.811	422.56
697.007	-38.23
697.203	51.88
697.399	379.56
697.595	594.59
697.791	80.55
697.987	262.82
698.183	23.21
698.379	166.57
698.575	125.61
698.77	72.36
698.966	447.14
699.162	641.7
699.358	123.56
699.554	168.62
699.749	443.04
699.945	447.14
700.141	150.18
700.337	115.37
700.532	328.36
700.728	207.53
700.924	17.07
701.119	-60.76
701.315	471.72
701.511	354.98
701.706	160.42
701.902	-19.8
702.097	361.13
702.293	434.85
702.489	187.05
702.684	125.61
702.88	311.97
703.075	303.78
703.271	135.85
703.466	8.87
703.662	273.06
703.857	449.19
704.053	105.13
704.248	96.94
704.443	533.15
704.639	512.67
704.834	217.77
705.03	107.18
705.225	578.21
705.42	559.78
705.616	213.67
705.811	117.42
706.006	268.97
706.202	250.53
706.397	232.1
706.592	4.78
706.787	410.28
706.983	436.9
707.178	393.89
707.373	213.67
707.568	565.92
707.763	561.83
707.959	180.9
708.154	131.75
708.349	432.8
708.544	567.97
708.739	316.07
708.934	-46.42
709.129	455.33
709.324	584.35
709.519	60.07
709.714	41.64
709.909	580.26
710.104	512.67
710.299	121.51
710.494	217.77
710.689	541.35
710.884	344.74
711.079	225.96
711.274	387.75
711.469	475.81
711.664	445.09
711.859	123.56
712.054	215.72
712.249	471.72
712.443	615.07
712.638	29.35
712.833	58.03
713.028	434.85
713.223	318.12
713.417	428.71
713.612	139.94
713.807	500.39
714.002	1018.52
714.196	348.84
714.391	191.14
714.586	586.4
714.78	279.21
714.975	201.38
715.17	156.33
715.364	199.34
715.559	656.03
715.754	-73.04
715.948	156.33
716.143	942.75
716.337	463.52
716.532	416.42
716.726	98.99
716.921	524.96
717.115	787.1
717.31	4.78
717.504	664.22
717.699	271.01
717.893	553.63
718.088	47.79
718.282	15.02
718.476	508.58
718.671	623.27
718.865	158.38
719.059	170.66
719.254	338.6
719.448	713.38
719.642	1565.33
719.837	-36.18
720.031	567.97
720.225	637.6
720.419	275.11
720.614	174.76
720.808	686.75
721.002	348.84
721.196	201.38
721.39	98.99
721.585	795.29
721.779	586.4
721.973	189.1
722.167	53.93
722.361	516.77
722.555	666.27
722.749	168.62
722.943	193.19
723.137	176.81
723.331	533.15
723.525	221.86
723.719	146.09
723.913	557.73
724.107	721.57
724.301	82.6
724.495	309.93
724.689	895.64
724.883	725.66
725.077	107.18
725.271	213.67
725.465	764.57
725.659	445.09
725.853	293.54
726.046	35.5
726.24	350.89
726.434	737.95
726.628	96.94
726.822	201.38
727.015	727.71
727.209	639.65
727.403	256.68
727.596	37.55
727.79	635.55
727.984	656.03
728.177	170.66
728.371	305.83
728.565	647.84
728.758	199.34
728.952	58.03
729.146	117.42
729.339	742.05
729.533	420.52
729.726	268.97
729.92	121.51
730.113	772.77
730.307	441
730.5	197.29
730.694	250.53
730.887	400.04
731.081	533.15
731.274	94.89
731.468	168.62
731.661	524.96
731.854	393.89
732.048	119.46
732.241	135.85
732.435	318.12
732.628	467.62
732.821	275.11
733.014	187.05
733.208	258.73
733.401	570.02
733.594	189.1
733.788	189.1
733.981	752.29
734.174	508.58
734.367	195.24
734.56	307.88
734.754	748.19
734.947	447.14
735.14	189.1
735.333	287.4
735.526	594.59
735.719	314.02
735.912	197.29
736.105	115.37
736.298	529.06
736.491	400.04
736.684	191.14
736.877	60.07
737.07	629.41
737.263	717.47
737.456	250.53
737.649	166.57
737.842	373.41
738.035	520.87
738.228	311.97
738.421	393.89
738.614	715.42
738.807	586.4
739	25.26
739.192	158.38
739.385	549.54
739.578	590.5
739.771	565.92
739.964	268.97
740.156	619.17
740.349	447.14
740.542	410.28
740.735	82.6
740.927	187.05
741.12	318.12
741.313	121.51
741.505	373.41
741.698	584.35
741.891	586.4
742.083	414.37
742.276	203.43
742.468	406.18
742.661	475.81
742.854	295.59
743.046	252.58
743.239	828.06
743.431	434.85
743.624	342.69
743.816	137.9
744.009	445.09
744.201	578.21
744.393	459.43
744.586	58.03
744.778	801.44
744.971	490.15
745.163	291.49
745.355	443.04
745.548	490.15
745.74	410.28
745.932	385.7
746.125	203.43
746.317	1002.14
746.509	512.67
746.702	297.64
746.894	389.8
747.086	641.7
747.278	737.95
747.471	422.56
747.663	410.28
747.855	508.58
748.047	842.4
748.239	201.38
748.431	164.52
748.623	901.79
748.815	963.23
749.008	178.86
749.2	150.18
749.392	664.22
749.584	643.74
749.776	348.84
749.968	363.17
750.16	991.9
750.352	502.43
750.544	225.96
750.736	176.81
750.928	639.65
751.12	578.21
751.311	281.25
751.503	344.74
751.695	604.83
751.887	508.58
752.079	49.83
752.271	295.59
752.463	1313.43
752.654	696.99
752.846	346.79
753.038	217.77
753.23	414.37
753.421	696.99
753.613	324.26
753.805	486.05
753.997	731.81
754.188	762.53
754.38	234.15
754.572	268.97
754.763	545.44
754.955	717.47
755.146	426.66
755.338	330.41
755.53	647.84
755.721	639.65
755.913	150.18
756.104	242.34
756.296	471.72
756.487	746.14
756.679	236.2
756.87	318.12
757.062	428.71
757.253	682.66
757.445	275.11
757.636	484
757.827	512.67
758.019	1170.07
758.21	199.34
758.401	328.36
758.593	1036.95
758.784	856.73
758.975	207.53
759.167	246.44
759.358	500.39
759.549	942.75
759.74	225.96
759.932	318.12
760.123	885.41
760.314	510.63
760.505	410.28
760.696	281.25
760.888	1082.01
761.079	492.2
761.27	264.87
761.461	148.14
761.652	883.36
761.843	651.94
762.034	271.01
762.225	631.46
762.416	535.2
762.607	594.59
762.798	252.58
762.989	238.25
763.18	1381.01
763.371	406.18
763.562	264.87
763.753	402.08
763.944	746.14
764.135	875.17
764.326	559.78
764.517	268.97
764.708	615.07
764.899	715.42
765.089	297.64
765.28	139.94
765.471	619.17
765.662	709.28
765.853	426.66
766.043	225.96
766.234	848.54
766.425	830.11
766.615	408.23
766.806	74.41
766.997	844.45
767.187	608.93
767.378	314.02
767.569	193.19
767.759	721.57
767.95	594.59
768.141	475.81
768.331	359.08
768.522	606.88
768.712	783.01
768.903	273.06
769.093	262.82
769.284	1006.24
769.474	656.03
769.665	172.71
769.855	119.46
770.046	783.01
770.236	594.59
770.426	424.61
770.617	168.62
770.807	651.94
770.998	475.81
771.188	518.82
771.378	275.11
771.569	852.64
771.759	735.9
771.949	322.21
772.139	115.37
772.33	582.31
772.52	971.42
772.71	262.82
772.9	164.52
773.09	944.8
773.281	881.31
773.471	297.64
773.661	303.78
773.851	899.74
774.041	477.86
774.231	289.45
774.421	402.08
774.611	942.75
774.802	672.42
774.992	332.45
775.182	371.36
775.372	524.96
775.562	729.76
775.752	336.55
775.942	318.12
776.131	826.01
776.321	709.28
776.511	318.12
776.701	193.19
776.891	930.46
777.081	410.28
777.271	451.24
777.461	273.06
777.651	903.84
777.84	924.32
778.03	418.47
778.22	428.71
778.41	907.93
778.599	455.33
778.789	459.43
778.979	314.02
779.169	778.91
779.358	676.51
779.548	606.88
779.738	240.29
779.927	682.66
780.117	488.1
780.307	473.76
780.496	58.03
780.686	674.46
780.875	969.37
781.065	455.33
781.254	330.41
781.444	705.18
781.633	613.03
781.823	307.88
782.012	322.21
782.202	582.31
782.391	596.64
782.581	285.35
782.77	549.54
782.96	789.15
783.149	563.87
783.338	318.12
783.528	125.61
783.717	850.59
783.906	897.69
784.096	514.72
784.285	271.01
784.474	567.97
784.663	414.37
784.853	346.79
785.042	512.67
785.231	533.15
785.42	901.79
785.61	465.57
785.799	148.14
785.988	488.1
786.177	504.48
786.366	371.36
786.555	453.28
786.744	1000.09
786.933	694.94
787.122	301.73
787.312	264.87
787.501	391.84
787.69	746.14
787.879	365.22
788.068	252.58
788.257	318.12
788.445	539.3
788.634	273.06
788.823	209.58
789.012	1260.18
789.201	920.22
789.39	410.28
789.579	330.41
789.768	586.4
789.957	676.51
790.145	369.32
790.334	119.46
790.523	631.46
790.712	660.13
790.9	551.59
791.089	285.35
791.278	803.49
791.467	641.7
791.655	678.56
791.844	815.77
792.033	477.86
792.221	522.91
792.41	463.52
792.599	344.74
792.787	834.21
792.976	838.3
793.164	250.53
793.353	287.4
793.541	801.44
793.73	805.53
793.918	447.14
794.107	289.45
794.295	535.2
794.484	641.7
794.672	447.14
794.861	377.51
795.049	819.87
795.238	1082.01
795.426	273.06
795.614	402.08
795.803	713.38
795.991	1010.33
796.179	307.88
796.368	359.08
796.556	989.85
796.744	414.37
796.932	367.27
797.121	285.35
797.309	635.55
797.497	783.01
797.685	441
797.874	438.95
798.062	647.84
798.25	1000.09
798.438	303.78
798.626	359.08
798.814	735.9
799.002	1204.89
799.19	506.53
799.378	316.07
799.566	909.98
799.755	1084.06
799.943	600.74
800.131	262.82
800.318	721.57
800.506	740
800.694	387.75
800.882	549.54
801.07	1010.33
801.258	692.9
801.446	414.37
801.634	481.96
801.822	606.88
802.01	656.03
802.197	385.7
802.385	512.67
802.573	772.77
802.761	387.75
802.949	445.09
803.136	223.91
803.324	971.42
803.512	709.28
803.699	441
803.887	262.82
804.075	979.61
804.262	565.92
804.45	264.87
804.638	477.86
804.825	488.1
805.013	537.25
805.201	326.31
805.388	375.46
805.576	637.6
805.763	1098.39
805.951	408.23
806.138	541.35
806.326	1223.32
806.513	879.26
806.701	490.15
806.888	373.41
807.075	805.53
807.263	1122.97
807.45	367.27
807.638	627.36
807.825	1129.11
808.012	952.99
808.2	522.91
808.387	610.98
808.574	852.64
808.761	989.85
808.949	385.7
809.136	561.83
809.323	651.94
809.51	613.03
809.698	778.91
809.885	623.27
810.072	760.48
810.259	967.32
810.446	672.42
810.633	416.42
810.82	932.51
811.008	1059.48
811.195	623.27
811.382	594.59
811.569	713.38
811.756	514.72
811.943	561.83
812.13	449.19
812.317	701.09
812.504	643.74
812.691	531.11
812.878	582.31
813.064	1028.76
813.251	729.76
813.438	346.79
813.625	627.36
813.812	662.18
813.999	768.67
814.186	606.88
814.372	518.82
814.559	766.62
814.746	1125.02
814.933	590.5
815.12	762.53
815.306	662.18
815.493	615.07
815.68	492.2
815.866	627.36
816.053	1069.72
816.24	1260.18
816.426	563.87
816.613	303.78
816.799	938.65
816.986	1012.38
817.173	490.15
817.359	580.26
817.546	879.26
817.732	430.76
817.919	299.69
818.105	617.12
818.292	742.05
818.478	883.36
818.665	701.09
818.851	461.48
819.037	1262.23
819.224	744.1
819.41	510.63
819.597	537.25
819.783	1204.89
819.969	879.26
820.156	662.18
820.342	473.76
820.528	1507.99
820.714	783.01
820.901	692.9
821.087	578.21
821.273	1254.04
821.459	744.1
821.646	455.33
821.832	484
822.018	750.24
822.204	828.06
822.39	610.98
822.576	385.7
822.762	1034.91
822.948	838.3
823.134	766.62
823.32	555.68
823.507	598.69
823.693	912.03
823.879	969.37
824.065	559.78
824.25	852.64
824.436	610.98
824.622	549.54
824.808	451.24
824.994	684.7
825.18	656.03
825.366	465.57
825.552	445.09
825.738	828.06
825.923	1032.86
826.109	727.71
826.295	535.2
826.481	649.89
826.667	723.62
826.852	709.28
827.038	453.28
827.224	1059.48
827.409	1335.96
827.595	404.13
827.781	699.04
827.966	1020.57
828.152	975.52
828.338	717.47
828.523	559.78
828.709	647.84
828.894	1129.11
829.08	512.67
829.266	555.68
829.451	684.7
829.637	909.98
829.822	760.48
830.008	449.19
830.193	1047.19
830.378	1208.98
830.564	594.59
830.749	406.18
830.935	1000.09
831.12	1024.67
831.305	479.91
831.491	631.46
831.676	563.87
831.861	1049.24
832.047	606.88
832.232	461.48
832.417	1120.92
832.602	862.88
832.788	572.07
832.973	533.15
833.158	844.45
833.343	873.12
833.528	707.23
833.714	582.31
833.899	936.6
834.084	1409.69
834.269	750.24
834.454	676.51
834.639	1090.2
834.824	918.17
835.009	680.61
835.194	869.02
835.379	1065.63
835.564	1196.7
835.749	717.47
835.934	467.62
836.119	1061.53
836.304	955.04
836.489	582.31
836.674	807.58
836.859	586.4
837.044	1241.75
837.228	641.7
837.413	453.28
837.598	940.7
837.783	1165.98
837.968	635.55
838.152	438.95
838.337	371.36
838.522	1206.94
838.707	1034.91
838.891	791.2
839.076	948.89
839.261	1043.1
839.445	610.98
839.63	699.04
839.815	1264.28
839.999	807.58
840.184	619.17
840.368	459.43
840.553	1122.97
840.737	1098.39
840.922	586.4
841.106	416.42
841.291	615.07
841.475	864.93
841.66	600.74
841.844	598.69
842.029	1553.04
842.213	619.17
842.397	672.42
842.582	436.9
842.766	1055.39
842.951	946.84
843.135	627.36
843.319	604.83
843.504	959.13
843.688	1129.11
843.872	373.41
844.056	518.82
844.241	1010.33
844.425	856.73
844.609	787.1
844.793	475.81
844.977	1200.79
845.161	1000.09
845.346	438.95
845.53	574.11
845.714	860.83
845.898	1125.02
846.082	410.28
846.266	633.5
846.45	877.21
846.634	842.4
846.818	475.81
847.002	754.34
847.186	932.51
847.37	674.46
847.554	496.29
847.738	684.7
847.922	887.45
848.106	975.52
848.29	469.67
848.473	635.55
848.657	1057.43
848.841	889.5
849.025	658.08
849.209	400.04
849.392	1096.35
849.576	846.49
849.76	377.51
849.944	768.67
850.127	1163.93
850.311	701.09
850.495	479.91
850.678	404.13
850.862	1084.06
851.046	1233.56
851.229	862.88
851.413	527.01
851.596	856.73
851.78	885.41
851.964	881.31
852.147	586.4
852.331	1694.35
852.514	1211.03
852.698	748.19
852.881	459.43
853.065	1125.02
853.248	924.32
853.431	744.1
853.615	705.18
853.798	1456.79
853.982	942.75
854.165	844.45
854.348	584.35
854.532	662.18
854.715	799.39
854.898	633.5
855.081	584.35
855.265	1180.31
855.448	1313.43
855.631	625.31
855.814	688.8
855.997	1057.43
856.181	934.56
856.364	643.74
856.547	467.62
856.73	959.13
856.913	918.17
857.096	514.72
857.279	672.42
857.462	692.9
857.645	1082.01
857.828	778.91
858.011	742.05
858.194	799.39
858.377	1135.26
858.56	453.28
858.743	594.59
858.926	686.75
859.109	1110.68
859.292	514.72
859.475	488.1
859.658	1270.42
859.841	1090.2
860.023	533.15
860.206	586.4
860.389	1069.72
860.572	1229.46
860.755	606.88
860.937	584.35
861.12	864.93
861.303	844.45
861.486	707.23
861.668	447.14
861.851	1000.09
862.034	996
862.216	764.57
862.399	467.62
862.581	952.99
862.764	1313.43
862.947	791.2
863.129	514.72
863.312	617.12
863.494	1188.5
863.677	969.37
863.859	459.43
864.042	1092.25
864.224	1161.88
864.406	735.9
864.589	451.24
864.771	1061.53
864.954	780.96
865.136	586.4
865.318	463.52
865.501	1036.95
865.683	512.67
865.865	559.78
866.048	631.46
866.23	1002.14
866.412	848.54
866.594	508.58
866.777	696.99
866.959	1190.55
867.141	656.03
867.323	957.08
867.505	770.72
867.687	856.73
867.869	836.25
868.052	582.31
868.234	529.06
868.416	848.54
868.598	1153.69
868.78	602.79
868.962	512.67
869.144	1165.98
869.326	1127.07
869.508	559.78
869.69	508.58
869.872	768.67
870.054	1190.55
870.236	467.62
870.417	565.92
870.599	889.5
870.781	1280.66
870.963	787.1
871.145	586.4
871.327	651.94
871.508	1045.15
871.69	727.71
871.872	637.6
872.054	852.64
872.235	993.95
872.417	696.99
872.599	522.91
872.78	1311.38
872.962	998.04
873.144	434.85
873.325	674.46
873.507	1237.66
873.689	1006.24
873.87	463.52
874.052	744.1
874.233	832.16
874.415	1208.98
874.596	621.22
874.778	545.44
874.959	916.12
875.141	1141.4
875.322	635.55
875.503	551.59
875.685	895.64
875.866	588.45
876.048	496.29
876.229	559.78
876.41	866.97
876.592	983.71
876.773	709.28
876.954	508.58
877.136	1333.91
877.317	791.2
877.498	500.39
877.679	731.81
877.86	934.56
878.042	893.6
878.223	639.65
878.404	869.02
878.585	1030.81
878.766	1501.84
878.947	977.56
879.128	873.12
879.309	1090.2
879.49	1114.78
879.672	668.32
879.853	725.66
880.034	776.86
880.215	959.13
880.396	623.27
880.576	680.61
880.757	746.14
880.938	1315.48
881.119	522.91
881.3	649.89
881.481	885.41
881.662	1680.02
881.843	633.5
882.023	506.53
882.204	961.18
882.385	950.94
882.566	674.46
882.747	598.69
882.927	912.03
883.108	985.76
883.289	647.84
883.469	959.13
883.65	848.54
883.831	987.8
884.011	942.75
884.192	664.22
884.373	1245.85
884.553	1067.67
884.734	778.91
884.914	1063.58
885.095	1712.78
885.275	1350.29
885.456	1045.15
885.636	565.92
885.817	985.76
885.997	967.32
886.178	608.93
886.358	842.4
886.538	1004.19
886.719	1913.49
886.899	699.04
887.08	848.54
887.26	1215.13
887.44	725.66
887.621	664.22
887.801	844.45
887.981	1606.29
888.161	1125.02
888.342	946.84
888.522	805.53
888.702	1208.98
888.882	1301.14
889.062	912.03
889.242	533.15
889.423	1565.33
889.603	1196.7
889.783	891.55
889.963	828.06
890.143	1204.89
890.323	1366.68
890.503	733.86
890.683	733.86
890.863	1135.26
891.043	1237.66
891.223	842.4
891.403	1057.43
891.583	971.42
891.763	1090.2
891.943	828.06
892.122	686.75
892.302	1049.24
892.482	987.8
892.662	996
892.842	760.48
893.022	1141.4
893.201	963.23
893.381	1036.95
893.561	789.15
893.741	1350.29
893.92	1198.74
894.1	897.69
894.28	952.99
894.459	1315.48
894.639	1235.61
894.819	957.08
894.998	889.5
895.178	1239.7
895.357	1165.98
895.537	875.17
895.716	787.1
895.896	1129.11
896.075	1557.14
896.255	936.6
896.434	703.14
896.614	1364.63
896.793	1370.77
896.973	973.47
897.152	991.9
897.331	1274.52
897.511	1338.01
897.69	680.61
897.87	944.8
898.049	1299.09
898.228	1139.35
898.407	1061.53
898.587	946.84
898.766	950.94
898.945	1258.14
899.124	1129.11
899.304	993.95
899.483	1295
899.662	1645.2
899.841	770.72
900.02	762.53
900.199	1354.39
900.378	1184.41
900.557	832.16
900.737	795.29
900.916	1145.5
901.095	1356.44
901.274	1125.02
901.453	770.72
901.632	914.08
901.811	903.84
901.989	793.25
902.168	789.15
902.347	1241.75
902.526	1102.49
902.705	842.4
902.884	1008.28
903.063	1448.6
903.242	1409.69
903.42	768.67
903.599	975.52
903.778	1378.97
903.957	1471.12
904.135	1098.39
904.314	897.69
904.493	1182.36
904.672	1264.28
904.85	903.84
905.029	828.06
905.207	1178.26
905.386	1843.85
905.565	639.65
905.743	780.96
905.922	977.56
906.1	1303.19
906.279	746.14
906.457	826.01
906.636	1024.67
906.814	1131.16
906.993	823.97
907.171	862.88
907.35	1350.29
907.528	1352.34
907.707	1118.87
907.885	748.19
908.063	1548.95
908.242	971.42
908.42	948.89
908.598	664.22
908.777	1403.54
908.955	952.99
909.133	1030.81
909.311	766.62
909.49	1147.55
909.668	1149.59
909.846	875.17
910.024	610.98
910.202	1186.46
910.38	1270.42
910.559	735.9
910.737	705.18
910.915	1204.89
911.093	1262.23
911.271	871.07
911.449	1079.96
911.627	1229.46
911.805	1725.07
911.983	866.97
912.161	823.97
912.339	1172.12
912.517	1460.88
912.695	1045.15
912.872	891.55
913.05	928.41
913.228	1165.98
913.406	879.26
913.584	758.43
913.762	1233.56
913.939	985.76
914.117	856.73
914.295	811.68
914.473	1143.45
914.65	1272.47
914.828	789.15
915.006	756.38
915.184	811.68
915.361	1247.9
915.539	1026.71
915.716	1045.15
915.894	1196.7
916.072	1366.68
916.249	1014.43
916.427	1045.15
916.604	809.63
916.782	1133.21
916.959	770.72
917.137	834.21
917.314	1221.27
917.492	1133.21
917.669	930.46
917.847	873.12
918.024	1163.93
918.201	891.55
918.379	922.27
918.556	959.13
918.733	1196.7
918.911	1125.02
919.088	1098.39
919.265	787.1
919.442	1127.07
919.62	1217.18
919.797	846.49
919.974	707.23
920.151	1049.24
920.328	1041.05
920.506	832.16
920.683	989.85
920.86	850.59
921.037	887.45
921.214	918.17
921.391	776.86
921.568	1217.18
921.745	819.87
921.922	889.5
922.099	762.53
922.276	1235.61
922.453	1032.86
922.63	737.95
922.807	1180.31
922.984	1063.58
923.161	938.65
923.338	805.53
923.514	758.43
923.691	1065.63
923.868	1223.32
924.045	678.56
924.222	774.81
924.399	1155.74
924.575	1235.61
924.752	920.22
924.929	850.59
925.105	1045.15
925.282	850.59
925.459	809.63
925.635	787.1
925.812	1012.38
925.989	826.01
926.165	805.53
926.342	635.55
926.518	783.01
926.695	1082.01
926.871	725.66
927.048	604.83
927.224	1149.59
927.401	907.93
927.577	836.25
927.754	598.69
927.93	1225.37
928.107	1215.13
928.283	752.29
928.459	885.41
928.636	1129.11
928.812	877.21
928.988	637.6
929.165	533.15
929.341	1012.38
929.517	996
929.693	1094.3
929.87	580.26
930.046	1016.48
930.222	828.06
930.398	672.42
930.574	903.84
930.751	1016.48
930.927	778.91
931.103	709.28
931.279	803.49
931.455	690.85
931.631	1004.19
931.807	535.2
931.983	467.62
932.159	651.94
932.335	991.9
932.511	713.38
932.687	735.9
932.863	922.27
933.039	869.02
933.215	598.69
933.391	488.1
933.566	821.92
933.742	979.61
933.918	680.61
934.094	469.67
934.27	938.65
934.445	920.22
934.621	699.04
934.797	539.3
934.973	1106.59
935.148	901.79
935.324	473.76
935.5	346.79
935.675	1018.52
935.851	928.41
936.027	520.87
936.202	758.43
936.378	852.64
936.553	770.72
936.729	1000.09
936.904	479.91
937.08	479.91
937.255	684.7
937.431	428.71
937.606	330.41
937.782	563.87
937.957	690.85
938.133	504.48
938.308	467.62
938.483	705.18
938.659	613.03
938.834	473.76
939.009	397.99
939.185	516.77
939.36	463.52
939.535	131.75
939.71	537.25
939.886	862.88
940.061	836.25
940.236	498.34
940.411	395.94
940.586	656.03
940.761	834.21
940.937	410.28
941.112	238.25
941.287	557.73
941.462	653.98
941.637	330.41
941.812	365.22
941.987	729.76
942.162	510.63
942.337	486.05
942.512	402.08
942.687	869.02
942.862	705.18
943.037	225.96
943.212	45.74
943.386	467.62
943.561	586.4
943.736	477.86
943.911	674.46
944.086	694.94
944.26	625.31
944.435	385.7
944.61	418.47
944.785	871.07
944.959	948.89
945.134	352.93
945.309	262.82
945.483	342.69
945.658	783.01
945.833	107.18
946.007	158.38
946.182	952.99
946.357	350.89
946.531	217.77
946.706	275.11
946.88	80.55
947.055	676.51
947.229	266.92
947.404	195.24
947.578	828.06
947.752	416.42
947.927	197.29
948.101	21.16
948.276	557.73
948.45	508.58
948.624	443.04
948.799	295.59
948.973	600.74
949.147	279.21
949.321	248.49
949.496	266.92
949.67	742.05
949.844	508.58
950.018	391.84
950.193	266.92
950.367	1010.33
950.541	354.98
950.715	357.03
950.889	402.08
951.063	418.47
951.237	649.89
951.411	88.75
951.585	137.9
951.759	721.57
951.933	520.87
952.107	262.82
952.281	404.13
952.455	934.56
952.629	733.86
952.803	242.34
952.977	248.49
953.151	731.81
953.325	668.32
953.499	357.03
953.672	137.9
953.846	400.04
954.02	387.75
954.194	187.05
954.368	246.44
954.541	658.08
954.715	393.89
954.889	410.28
955.062	201.38
955.236	436.9
955.41	379.56
955.583	479.91
955.757	39.59
955.93	432.8
956.104	332.45
956.278	246.44
956.451	340.65
956.625	684.7
956.798	975.52
956.972	586.4
957.145	105.13
957.319	492.2
957.492	406.18
957.665	404.13
957.839	225.96
958.012	615.07
958.185	385.7
958.359	205.48
958.532	438.95
958.705	606.88
958.879	586.4
959.052	293.54
959.225	33.45
959.398	441
959.572	570.02
959.745	254.63
959.918	273.06
960.091	342.69
960.264	608.93
960.438	180.9
960.611	166.57
960.784	635.55
960.957	322.21
961.13	600.74
961.303	162.47
961.476	465.57
961.649	742.05
961.822	166.57
961.995	320.17
962.168	559.78
962.341	535.2
962.514	328.36
962.686	254.63
962.859	518.82
963.032	574.11
963.205	162.47
963.378	141.99
963.551	545.44
963.723	504.48
963.896	348.84
964.069	359.08
964.242	533.15
964.414	821.92
964.587	262.82
964.76	363.17
964.932	508.58
965.105	393.89
965.278	271.01
965.45	195.24
965.623	531.11
965.795	664.22
965.968	131.75
966.14	309.93
966.313	434.85
966.485	443.04
966.658	291.49
966.83	180.9
967.003	713.38
967.175	641.7
967.348	197.29
967.52	295.59
967.692	920.22
967.865	549.54
968.037	152.23
968.209	578.21
968.382	598.69
968.554	715.42
968.726	346.79
968.898	203.43
969.071	602.79
969.243	619.17
969.415	303.78
969.587	340.65
969.759	918.17
969.932	656.03
970.104	289.45
970.276	82.6
970.448	352.93
970.62	383.65
970.792	334.5
970.964	336.55
971.136	901.79
971.308	651.94
971.48	221.86
971.652	221.86
971.824	881.31
971.996	412.32
972.168	309.93
972.339	275.11
972.511	703.14
972.683	387.75
972.855	492.2
973.027	275.11
973.199	461.48
973.37	639.65
973.542	430.76
973.714	406.18
973.886	512.67
974.057	672.42
974.229	228.01
974.401	240.29
974.572	248.49
974.744	60.07
974.915	174.76
975.087	193.19
975.259	844.45
975.43	289.45
975.602	213.67
975.773	217.77
975.945	228.01
976.116	682.66
976.288	111.27
976.459	486.05
976.63	441
976.802	602.79
976.973	217.77
977.145	363.17
977.316	965.28
977.487	535.2
977.659	369.32
977.83	211.62
978.001	887.45
978.172	537.25
978.344	166.57
978.515	262.82
978.686	338.6
978.857	856.73
979.028	234.15
979.2	162.47
979.371	766.62
979.542	473.76
979.713	451.24
979.884	-105.81
980.055	336.55
980.226	414.37
980.397	156.33
980.568	82.6
980.739	647.84
980.91	426.66
981.081	326.31
981.252	189.1
981.423	623.27
981.594	721.57
981.765	103.08
981.936	258.73
982.106	459.43
982.277	686.75
982.448	158.38
982.619	436.9
982.79	379.56
982.96	705.18
983.131	291.49
983.302	-7.51
983.472	332.45
983.643	551.59
983.814	385.7
983.984	217.77
984.155	459.43
984.326	705.18
984.496	305.83
984.667	133.8
984.837	266.92
985.008	778.91
985.178	434.85
985.349	207.53
985.519	430.76
985.69	234.15
985.86	203.43
986.031	74.41
986.201	535.2
986.371	541.35
986.542	53.93
986.712	-5.46
986.882	518.82
987.053	559.78
987.223	123.56
987.393	385.7
987.563	305.83
987.734	606.88
987.904	473.76
988.074	185
988.244	451.24
988.414	324.26
988.585	148.14
988.755	279.21
988.925	436.9
989.095	791.2
989.265	90.79
989.435	246.44
989.605	625.31
989.775	496.29
989.945	445.09
990.115	58.03
990.285	453.28
990.455	539.3
990.625	187.05
990.795	123.56
990.965	729.76
991.134	144.04
991.304	144.04
991.474	141.99
991.644	539.3
991.814	821.92
991.984	25.26
992.153	121.51
992.323	410.28
992.493	533.15
992.662	-71
992.832	322.21
993.002	430.76
993.171	561.83
993.341	25.26
993.511	238.25
993.68	234.15
993.85	606.88
994.019	10.92
994.189	-81.24
994.358	471.72
994.528	371.36
994.697	-195.92
994.867	-7.51
995.036	574.11
995.206	324.26
995.375	78.51
995.544	166.57
995.714	555.68
995.883	295.59
996.052	230.06
996.222	-25.94
996.391	869.02
996.56	434.85
996.73	41.64
996.899	-79.19
997.068	815.77
997.237	266.92
997.406	86.7
997.576	-87.38
997.745	484
997.914	385.7
998.083	-85.33
998.252	49.83
998.421	424.61
998.59	230.06
998.759	-32.08
998.928	-99.67
999.097	725.66
999.266	434.85
999.435	289.45
999.604	-224.59
999.773	946.84
999.942	328.36
1000.111	35.5
1000.28	-134.48
1000.448	131.75
1000.617	133.8
1000.786	258.73
1000.955	-50.52
1001.124	432.8
1001.292	1041.05
1001.461	-17.75
1001.63	2.73
1001.798	680.61
1001.967	625.31
1002.136	-40.28
1002.304	-27.99
1002.473	467.62
1002.642	289.45
1002.81	109.22
1002.979	-105.81
1003.147	502.43
1003.316	926.36
1003.484	8.87
1003.653	-60.76
1003.821	658.08
1003.99	281.25
1004.158	168.62
1004.327	135.85
1004.495	432.8
1004.663	115.37
1004.832	185
1005	-126.29
1005.168	541.35
1005.337	459.43
1005.505	-183.63
1005.673	230.06
1005.842	418.47
1006.01	447.14
1006.178	19.11
1006.346	-64.85
1006.514	494.24
1006.683	537.25
1006.851	2.73
1007.019	-191.83
1007.187	176.81
1007.355	-71
1007.523	-204.11
1007.691	-44.37
1007.859	92.84
1008.027	643.74
1008.195	15.02
1008.363	-130.39
1008.531	565.92
1008.699	137.9
1008.867	-140.63
1009.035	-13.65
1009.203	658.08
1009.37	348.84
1009.538	17.07
1009.706	393.89
1009.874	326.31
1010.042	281.25
1010.209	-154.96
1010.377	-48.47
1010.545	500.39
1010.713	357.03
1010.88	-136.53
1011.048	-15.7
1011.216	238.25
1011.383	594.59
1011.551	-79.19
1011.718	-118.1
1011.886	582.31
1012.054	352.93
1012.221	-95.57
1012.389	-144.72
1012.556	228.01
1012.724	709.28
1012.891	119.46
1013.058	-195.92
1013.226	453.28
1013.393	535.2
1013.561	-167.25
1013.728	-267.6
1013.895	549.54
1014.063	383.65
1014.23	-136.53
1014.397	-114
1014.565	549.54
1014.732	166.57
1014.899	-44.37
1015.066	-77.14
1015.233	330.41
1015.401	570.02
1015.568	-58.71
1015.735	41.64
1015.902	293.54
1016.069	320.17
1016.236	10.92
1016.403	-107.86
1016.57	29.35
1016.737	496.29
1016.904	-15.7
1017.071	-140.63
1017.238	180.9
1017.405	453.28
1017.572	-99.67
1017.739	76.46
1017.906	404.13
1018.073	596.64
1018.24	-169.3
1018.407	-68.95
1018.573	516.77
1018.74	236.2
1018.907	62.12
1019.074	-228.69
1019.241	584.35
1019.407	244.39
1019.574	4.78
1019.741	-210.26
1019.907	352.93
1020.074	426.66
1020.241	-263.51
1020.407	-202.07
1020.574	414.37
1020.74	410.28
1020.907	-154.96
1021.073	-46.42
1021.24	883.36
1021.406	664.22
1021.573	-204.11
1021.739	-130.39
1021.906	453.28
1022.072	281.25
1022.239	-89.43
1022.405	-93.52
1022.571	230.06
1022.738	66.22
1022.904	-134.48
1023.07	-23.89
1023.237	250.53
1023.403	477.86
1023.569	-71
1023.735	-71
1023.902	377.51
1024.068	395.94
1024.234	-95.57
1024.4	-46.42
1024.566	354.98
1024.732	438.95
1024.898	-81.24
1025.065	-240.98
1025.231	463.52
1025.397	201.38
1025.563	-54.61
1025.729	-142.68
1025.895	-142.68
1026.061	58.03
1026.227	-261.46
1026.392	-56.66
1026.558	457.38
1026.724	260.77
1026.89	-161.11
1027.056	-62.8
1027.222	377.51
1027.388	174.76
1027.553	-128.34
1027.719	-183.63
1027.885	647.84
1028.051	406.18
1028.216	-267.6
1028.382	-181.59
1028.548	393.89
1028.713	154.28
1028.879	-232.79
1029.045	-1.37
1029.21	561.83
1029.376	539.3
1029.541	-15.7
1029.707	-85.33
1029.873	387.75
1030.038	457.38
1030.204	-85.33
1030.369	-120.15
1030.534	434.85
1030.7	197.29
1030.865	-56.66
1031.031	-154.96
1031.196	414.37
1031.361	281.25
1031.527	-204.11
1031.692	-220.5
1031.857	-85.33
1032.023	490.15
1032.188	-251.22
1032.353	-64.85
1032.518	647.84
1032.684	301.73
1032.849	-292.18
1033.014	-62.8
1033.179	402.08
1033.344	328.36
1033.509	-79.19
1033.674	-138.58
1033.839	434.85
1034.004	381.6
1034.17	-32.08
1034.335	-165.2
1034.5	162.47
1034.664	62.12
1034.829	-150.87
1034.994	-34.13
1035.159	295.59
1035.324	400.04
1035.489	-68.95
1035.654	-140.63
1035.819	623.27
1035.984	332.45
1036.148	-157.01
1036.313	-200.02
1036.478	481.96
1036.643	168.62
1036.807	-150.87
1036.972	-226.64
1037.137	502.43
1037.301	266.92
1037.466	-275.79
1037.631	-54.61
1037.795	430.76
1037.96	344.74
1038.124	121.51
1038.289	-265.55
1038.454	500.39
1038.618	279.21
1038.783	-185.68
1038.947	2.73
1039.111	281.25
1039.276	160.42
1039.44	-140.63
1039.605	291.49
1039.769	207.53
1039.933	230.06
1040.098	-54.61
1040.262	103.08
1040.426	469.67
1040.591	434.85
1040.755	-212.31
1040.919	-152.92
1041.083	303.78
1041.248	193.19
1041.412	-312.66
1041.576	-212.31
1041.74	209.58
1041.904	508.58
1042.068	-212.31
1042.232	-83.28
1042.397	520.87
1042.561	344.74
1042.725	-339.28
1042.889	86.7
1043.053	430.76
1043.217	348.84
1043.381	8.87
1043.544	-283.99
1043.708	527.01
1043.872	58.03
1044.036	-308.56
1044.2	-255.31
1044.364	617.12
1044.528	787.1
1044.691	4807.27
1044.855	-228.69
1045.019	492.2
1045.183	449.19
1045.346	2.73
1045.51	-134.48
1045.674	348.84
1045.837	467.62
1046.001	-103.76
1046.165	-152.92
1046.328	860.83
1046.492	389.8
1046.655	12.97
1046.819	-38.23
1046.983	213.67
1047.146	371.36
1047.31	-79.19
1047.473	-281.94
1047.636	238.25
1047.8	55.98
1047.963	-111.96
1048.127	-181.59
1048.29	88.75
