Data from Ink_Intensity_USB4F045381__41__00041.txt Node

Date: Mon Jul 17 09:53:16 EDT 2023
User: mmckonesweet
Spectrometer: USB4F04538
Trigger mode: 4
Integration Time (sec): 9.000000E-1
Scans to average: 1
Electric dark correction enabled: true
Nonlinearity correction enabled: false
Boxcar width: 0
XAxis mode: Wavelengths
Number of Pixels in Spectrum: 3648
>>>>>Begin Spectral Data<<<<<
345.52	-993.26
345.736	-993.26
345.952	-993.26
346.168	-970.74
346.384	-1007.6
346.6	-102.4
346.816	-278.52
347.032	-190.46
347.248	268.28
347.464	-180.22
347.68	-57.34
347.896	28.67
348.112	440.31
348.328	-126.97
348.544	-100.35
348.76	73.73
348.975	225.28
349.191	-264.19
349.407	-180.22
349.623	-10.24
349.839	-137.21
350.055	-200.7
350.27	122.88
350.486	169.98
350.702	356.35
350.918	188.41
351.133	-247.8
351.349	174.08
351.565	290.81
351.781	-141.31
351.996	-30.72
352.212	350.2
352.428	-247.8
352.644	-188.41
352.859	-256
353.075	294.91
353.291	-73.73
353.506	-174.08
353.722	-210.94
353.938	-79.87
354.153	346.11
354.369	108.54
354.584	-215.04
354.8	143.36
355.016	-321.53
355.231	-278.52
355.447	-104.45
355.662	45.06
355.878	794.61
356.093	-278.52
356.309	-43.01
356.524	-256
356.74	196.61
356.955	-239.61
357.171	-114.69
357.386	94.21
357.602	-290.81
357.817	-92.16
358.033	-227.32
358.248	356.35
358.464	77.82
358.679	-118.78
358.895	-333.82
359.11	-26.62
359.325	210.94
359.541	225.28
359.756	-61.44
359.972	-370.68
360.187	104.45
360.402	-196.6
360.618	-206.84
360.833	901.11
361.048	124.93
361.264	-202.75
361.479	-182.27
361.694	-90.11
361.909	169.98
362.125	-325.63
362.34	-145.41
362.555	139.26
362.77	69.63
362.986	-348.15
363.201	-245.76
363.416	167.93
363.631	-43.01
363.847	-212.99
364.062	-208.89
364.277	67.58
364.492	112.64
364.707	-174.08
364.922	-448.51
365.138	258.04
365.353	319.48
365.568	-292.86
365.783	-172.03
365.998	-16.38
366.213	557.05
366.428	-229.37
366.643	26.62
366.858	217.08
367.073	231.42
367.288	-151.55
367.503	-292.86
367.718	77.82
367.933	225.28
368.148	-315.39
368.363	-112.64
368.578	-137.21
368.793	417.79
369.008	-147.45
369.223	-301.05
369.438	116.73
369.653	409.59
369.868	-313.34
370.083	-245.76
370.298	16.38
370.513	301.05
370.728	57.34
370.943	-196.6
371.157	-212.99
371.372	452.6
371.587	-233.47
371.802	-262.14
372.017	-77.82
372.232	333.82
372.446	-61.44
372.661	-296.96
372.876	143.36
373.091	100.35
373.306	-69.63
373.52	-274.43
373.735	-247.8
373.95	376.83
374.165	-141.31
374.379	-186.37
374.594	-149.5
374.809	88.06
375.023	-30.72
375.238	-278.52
375.453	233.47
375.667	-333.82
375.882	-157.69
376.097	-202.75
376.311	18.43
376.526	-100.35
376.741	-215.04
376.955	73.73
377.17	524.28
377.384	471.03
377.599	-83.97
377.813	-350.2
378.028	497.66
378.242	98.3
378.457	-67.58
378.672	-468.98
378.886	24.58
379.101	-118.78
379.315	-337.91
379.53	-159.74
379.744	163.84
379.958	249.85
380.173	-137.21
380.387	-184.32
380.602	75.77
380.816	-161.79
381.031	-139.26
381.245	-221.18
381.459	159.74
381.674	2437.08
381.888	-266.24
382.103	198.65
382.317	-241.66
382.531	444.41
382.746	-118.78
382.96	-202.75
383.174	-57.34
383.388	299
383.603	-2.05
383.817	-356.35
384.031	104.45
384.246	382.97
384.46	-34.82
384.674	284.67
384.888	0
385.103	-26.62
385.317	-299
385.531	-114.69
385.745	243.71
385.959	268.28
386.174	-188.41
386.388	-315.39
386.602	8.19
386.816	-169.98
387.03	-94.21
387.244	-118.78
387.458	32.77
387.672	233.47
387.887	-239.61
388.101	-313.34
388.315	286.72
388.529	92.16
388.743	-159.74
388.957	-303.1
389.171	190.46
389.385	-243.71
389.599	-210.94
389.813	32.77
390.027	30.72
390.241	518.14
390.455	-108.54
390.669	-131.07
390.883	-122.88
391.097	303.1
391.311	-30.72
391.525	-133.12
391.738	235.52
391.952	122.88
392.166	-47.1
392.38	-243.71
392.594	210.94
392.808	231.42
393.022	-145.41
393.236	-217.08
393.449	167.93
393.663	165.89
393.877	-272.38
394.091	-108.54
394.305	-143.36
394.518	-245.76
394.732	-323.58
394.946	-129.02
395.16	356.35
395.373	67.58
395.587	-178.17
395.801	-321.53
396.015	251.9
396.228	63.49
396.442	-229.37
396.656	-376.83
396.869	290.81
397.083	352.25
397.297	-116.73
397.51	-153.6
397.724	389.11
397.938	79.87
398.151	-352.25
398.365	-313.34
398.578	167.93
398.792	325.63
399.005	-88.06
399.219	-69.63
399.433	145.41
399.646	69.63
399.86	-34.82
400.073	20.48
400.287	131.07
400.5	-40.96
400.714	2.05
400.927	-104.45
401.141	149.5
401.354	911.35
401.567	159.74
401.781	-208.89
401.994	227.32
402.208	561.14
402.421	-217.08
402.635	-155.65
402.848	45.06
403.061	299
403.275	-65.53
403.488	-227.32
403.701	372.73
403.915	145.41
404.128	114.69
404.341	-206.84
404.555	45.06
404.768	-151.55
404.981	-32.77
405.195	-178.17
405.408	432.12
405.621	163.84
405.834	-6.14
406.048	-317.44
406.261	342.01
406.474	423.93
406.687	-249.85
406.9	28.67
407.114	-65.53
407.327	16.38
407.54	-325.63
407.753	-321.53
407.966	-165.89
408.179	161.79
408.392	-249.85
408.605	-358.39
408.819	165.89
409.032	88.06
409.245	-208.89
409.458	0
409.671	190.46
409.884	206.84
410.097	-364.54
410.31	40.96
410.523	104.45
410.736	-47.1
410.949	-112.64
411.162	-169.98
411.375	303.1
411.588	243.71
411.801	-24.58
412.014	-231.42
412.227	34.82
412.44	-75.77
412.653	-163.84
412.865	-10.24
413.078	157.69
413.291	131.07
413.504	-118.78
413.717	-231.42
413.93	169.98
414.143	-126.97
414.356	-67.58
414.568	-385.02
414.781	169.98
414.994	34.82
415.207	-172.03
415.42	-149.5
415.632	204.8
415.845	409.59
416.058	-210.94
416.271	-278.52
416.483	12.29
416.696	440.31
416.909	-256
417.121	-212.99
417.334	184.32
417.547	450.55
417.759	-114.69
417.972	-249.85
418.185	-147.45
418.397	192.51
418.61	-210.94
418.823	-190.46
419.035	331.77
419.248	2.05
419.46	-51.2
419.673	-104.45
419.885	124.93
420.098	-47.1
420.311	-147.45
420.523	-378.87
420.736	217.08
420.948	102.4
421.161	-188.41
421.373	-423.93
421.586	51.2
421.798	-169.98
422.01	-389.11
422.223	-116.73
422.435	-139.26
422.648	131.07
422.86	-163.84
423.073	-229.37
423.285	305.15
423.497	-239.61
423.71	-188.41
423.922	-272.38
424.134	98.3
424.347	317.44
424.559	-4.1
424.771	53.25
424.984	-43.01
425.196	69.63
425.408	-382.97
425.621	-274.43
425.833	247.8
426.045	352.25
426.257	-274.43
426.47	-200.7
426.682	94.21
426.894	169.98
427.106	-223.23
427.318	-126.97
427.531	-198.65
427.743	133.12
427.955	-245.76
428.167	200.7
428.379	94.21
428.591	-59.39
428.804	-77.82
429.016	-315.39
429.228	-45.06
429.44	129.02
429.652	-114.69
429.864	-258.04
430.076	-73.73
430.288	6.14
430.5	-155.65
430.712	-122.88
430.924	178.17
431.136	34.82
431.348	-415.74
431.56	-245.76
431.772	12.29
431.984	-47.1
432.196	-278.52
432.408	-225.28
432.62	-129.02
432.832	86.01
433.044	8.19
433.256	-135.17
433.468	129.02
433.679	-317.44
433.891	-303.1
434.103	47.1
434.315	333.82
434.527	198.65
434.739	-133.12
434.95	-176.13
435.162	227.32
435.374	-153.6
435.586	-163.84
435.798	-260.09
436.009	-270.33
436.221	-100.35
436.433	-204.8
436.645	-249.85
436.856	-86.01
437.068	241.66
437.28	-415.74
437.491	51.2
437.703	135.17
437.915	-6.14
438.126	-176.13
438.338	57.34
438.55	-2.05
438.761	126.97
438.973	-169.98
439.184	-141.31
439.396	-8.19
439.608	264.19
439.819	-286.72
440.031	-194.56
440.242	190.46
440.454	145.41
440.665	-161.79
440.877	-79.87
441.088	36.86
441.3	-51.2
441.511	-366.59
441.723	-296.96
441.934	75.77
442.146	-20.48
442.357	-108.54
442.569	49.15
442.78	-14.34
442.991	372.73
443.203	36.86
443.414	-317.44
443.626	305.15
443.837	-221.18
444.048	-337.91
444.26	-272.38
444.471	-55.3
444.682	215.04
444.894	-444.41
445.105	-315.39
445.316	200.7
445.528	98.3
445.739	-110.59
445.95	-198.65
446.161	67.58
446.373	229.37
446.584	-198.65
446.795	-223.23
447.006	135.17
447.217	368.63
447.429	-290.81
447.64	-337.91
447.851	245.76
448.062	22.53
448.273	-452.6
448.484	-190.46
448.695	112.64
448.907	-47.1
449.118	-192.51
449.329	24.58
449.54	-178.17
449.751	-249.85
449.962	-178.17
450.173	-249.85
450.384	237.56
450.595	372.73
450.806	-270.33
451.017	-210.94
451.228	284.67
451.439	174.08
451.65	-163.84
451.861	-399.35
452.072	-210.94
452.283	-40.96
452.494	-12.29
452.705	-329.72
452.915	303.1
453.126	-8.19
453.337	-210.94
453.548	-342.01
453.759	202.75
453.97	444.41
454.181	-16.38
454.391	-237.56
454.602	55.3
454.813	157.69
455.024	-215.04
455.235	-190.46
455.445	-51.2
455.656	6.14
455.867	16.38
456.078	-198.65
456.288	-49.15
456.499	55.3
456.71	-299
456.921	16.38
457.131	120.83
457.342	75.77
457.553	-151.55
457.763	-251.9
457.974	153.6
458.184	184.32
458.395	-280.57
458.606	-301.05
458.816	227.32
459.027	389.11
459.237	-92.16
459.448	-395.26
459.659	260.09
459.869	526.33
460.08	-344.06
460.29	-112.64
460.501	428.03
460.711	-79.87
460.922	-382.97
461.132	-301.05
461.343	636.92
461.553	-311.29
461.764	-282.62
461.974	-194.56
462.184	182.27
462.395	24.58
462.605	-120.83
462.816	-413.69
463.026	-6.14
463.236	321.53
463.447	-249.85
463.657	-290.81
463.867	124.93
464.078	-202.75
464.288	-215.04
464.498	-219.13
464.709	-77.82
464.919	30.72
465.129	-182.27
465.339	-366.59
465.55	57.34
465.76	169.98
465.97	-215.04
466.18	-278.52
466.391	231.42
466.601	8.19
466.811	-153.6
467.021	-372.73
467.231	30.72
467.441	313.34
467.651	-243.71
467.862	-397.31
468.072	-32.77
468.282	362.49
468.492	-321.53
468.702	-186.37
468.912	-36.86
469.122	534.52
469.332	4.1
469.542	-288.76
469.752	159.74
469.962	6.14
470.172	-348.15
470.382	-354.3
470.592	141.31
470.802	294.91
471.012	-118.78
471.222	-225.28
471.432	219.13
471.642	139.26
471.852	-149.5
472.062	-299
472.272	-63.49
472.482	-313.34
472.691	-299
472.901	-405.5
473.111	32.77
473.321	468.98
473.531	-253.95
473.741	-153.6
473.95	47.1
474.16	114.69
474.37	-96.25
474.58	-387.07
474.79	497.66
474.999	210.94
475.209	-337.91
475.419	-266.24
475.628	-96.25
475.838	208.89
476.048	-169.98
476.258	-346.11
476.467	186.37
476.677	-149.5
476.886	-38.91
477.096	-178.17
477.306	-223.23
477.515	311.29
477.725	-178.17
477.935	-133.12
478.144	337.91
478.354	-94.21
478.563	-188.41
478.773	-305.15
478.982	180.22
479.192	194.56
479.401	-149.5
479.611	-319.48
479.82	-174.08
480.03	10.24
480.239	-235.52
480.449	-374.78
480.658	327.68
480.868	-243.71
481.077	-129.02
481.287	-200.7
481.496	69.63
481.705	241.66
481.915	-59.39
482.124	4.1
482.333	6.14
482.543	311.29
482.752	-182.27
482.961	-280.57
483.171	112.64
483.38	-4.1
483.589	-190.46
483.799	-342.01
484.008	-104.45
484.217	200.7
484.426	-253.95
484.636	-382.97
484.845	67.58
485.054	-210.94
485.263	34.82
485.472	-184.32
485.682	378.87
485.891	57.34
486.1	-354.3
486.309	-260.09
486.518	167.93
486.727	317.44
486.936	-274.43
487.146	-159.74
487.355	354.3
487.564	-231.42
487.773	-241.66
487.982	-288.76
488.191	-112.64
488.4	-61.44
488.609	-237.56
488.818	-210.94
489.027	509.94
489.236	393.21
489.445	-184.32
489.654	-280.57
489.863	208.89
490.072	-20.48
490.281	94.21
490.49	-274.43
490.698	397.31
490.907	366.59
491.116	-223.23
491.325	-350.2
491.534	260.09
491.743	26.62
491.952	-159.74
492.16	-231.42
492.369	231.42
492.578	288.76
492.787	-174.08
492.996	-342.01
493.204	-79.87
493.413	407.55
493.622	-481.27
493.831	-434.17
494.039	368.63
494.248	-237.56
494.457	-317.44
494.665	-413.69
494.874	151.55
495.083	417.79
495.291	-206.84
495.5	-317.44
495.709	212.99
495.917	94.21
496.126	-159.74
496.335	-292.86
496.543	-38.91
496.752	108.54
496.96	-45.06
497.169	-352.25
497.377	-43.01
497.586	241.66
497.794	-247.8
498.003	-432.12
498.211	-61.44
498.42	352.25
498.628	-153.6
498.837	-337.91
499.045	38.91
499.254	-8.19
499.462	-331.77
499.671	-286.72
499.879	313.34
500.087	178.17
500.296	-270.33
500.504	-221.18
500.713	137.21
500.921	526.33
501.129	-241.66
501.338	-210.94
501.546	112.64
501.754	38.91
501.962	-249.85
502.171	-276.48
502.379	45.06
502.587	366.59
502.795	-145.41
503.004	-210.94
503.212	-75.77
503.42	194.56
503.628	-260.09
503.837	-153.6
504.045	47.1
504.253	413.69
504.461	-258.04
504.669	-425.98
504.877	73.73
505.085	403.45
505.294	-350.2
505.502	-90.11
505.71	51.2
505.918	225.28
506.126	-260.09
506.334	-280.57
506.542	-106.49
506.75	104.45
506.958	-174.08
507.166	-167.93
507.374	-83.97
507.582	389.11
507.79	-227.32
507.998	-315.39
508.206	77.82
508.414	51.2
508.622	-229.37
508.83	-231.42
509.037	389.11
509.245	2.05
509.453	-305.15
509.661	-303.1
509.869	139.26
510.077	-100.35
510.285	-112.64
510.492	-497.66
510.7	620.53
510.908	-108.54
511.116	-149.5
511.324	-243.71
511.531	-108.54
511.739	4.1
511.947	-73.73
512.155	20.48
512.362	-32.77
512.57	-239.61
512.778	-237.56
512.985	-399.35
513.193	272.38
513.401	434.17
513.608	-202.75
513.816	-290.81
514.024	180.22
514.231	315.39
514.439	-253.95
514.646	-215.04
514.854	151.55
515.061	223.23
515.269	-282.62
515.477	-284.67
515.684	-157.69
515.892	235.52
516.099	-333.82
516.307	-358.39
516.514	120.83
516.722	403.45
516.929	-305.15
517.136	-370.68
517.344	428.03
517.551	102.4
517.759	-280.57
517.966	-227.32
518.173	-75.77
518.381	36.86
518.588	-198.65
518.796	-256
519.003	227.32
519.21	49.15
519.418	-245.76
519.625	-20.48
519.832	-55.3
520.039	126.97
520.247	-380.92
520.454	-315.39
520.661	253.95
520.868	55.3
521.076	-237.56
521.283	-223.23
521.49	542.71
521.697	174.08
521.904	-223.23
522.112	-276.48
522.319	235.52
522.526	51.2
522.733	-272.38
522.94	-342.01
523.147	-22.53
523.354	247.8
523.561	-350.2
523.768	-239.61
523.975	223.23
524.183	34.82
524.39	-182.27
524.597	-337.91
524.804	-18.43
525.011	-145.41
525.218	-360.44
525.425	-335.87
525.632	325.63
525.838	-129.02
526.045	-251.9
526.252	-337.91
526.459	1058.8
526.666	755.7
526.873	-311.29
527.08	-223.23
527.287	337.91
527.494	86.01
527.701	-335.87
527.907	-337.91
528.114	182.27
528.321	-96.25
528.528	-174.08
528.735	-225.28
528.941	-116.73
529.148	-169.98
529.355	-147.45
529.562	-362.49
529.768	434.17
529.975	-79.87
530.182	-206.84
530.388	-305.15
530.595	315.39
530.802	-303.1
531.008	-116.73
531.215	-215.04
531.422	651.25
531.628	620.53
531.835	-167.93
532.042	-167.93
532.248	-106.49
532.455	6.14
532.661	-243.71
532.868	-208.89
533.074	104.45
533.281	235.52
533.487	-131.07
533.694	-268.28
533.9	-227.32
534.107	90.11
534.313	-309.24
534.52	-327.67
534.726	219.13
534.933	466.94
535.139	-319.48
535.345	-387.07
535.552	26.62
535.758	4.1
535.965	-225.28
536.171	-260.09
536.377	186.37
536.584	305.15
536.79	-237.56
536.996	-225.28
537.203	83.97
537.409	161.79
537.615	-161.79
537.821	-116.73
538.028	186.37
538.234	219.13
538.44	-227.32
538.646	-178.17
538.853	169.98
539.059	-77.82
539.265	120.83
539.471	-407.55
539.677	247.8
539.883	-116.73
540.09	-249.85
540.296	186.37
540.502	22.53
540.708	-43.01
540.914	-40.96
541.12	-217.08
541.326	135.17
541.532	6.14
541.738	-180.22
541.944	-137.21
542.15	178.17
542.356	-102.4
542.562	-276.48
542.768	-237.56
542.974	649.21
543.18	425.98
543.386	-280.57
543.592	-364.54
543.798	413.69
544.004	268.28
544.21	-294.91
544.415	-182.27
544.621	10.24
544.827	251.9
545.033	-301.05
545.239	-22.53
545.445	-155.65
545.651	63.49
545.856	-282.62
546.062	-309.24
546.268	-133.12
546.474	55.3
546.679	-198.65
546.885	-235.52
547.091	-182.27
547.297	481.27
547.502	-67.58
547.708	-350.2
547.914	-61.44
548.119	145.41
548.325	-372.73
548.531	-327.67
548.736	526.33
548.942	-157.69
549.147	-317.44
549.353	-10.24
549.559	268.28
549.764	92.16
549.97	-65.53
550.175	-243.71
550.381	178.17
550.586	-4.1
550.792	-133.12
550.997	-227.32
551.203	176.13
551.408	178.17
551.614	-296.96
551.819	-217.08
552.025	323.58
552.23	491.51
552.435	-319.48
552.641	-59.39
552.846	-239.61
553.052	311.29
553.257	-83.97
553.462	-206.84
553.668	-196.6
553.873	237.56
554.078	-299
554.283	-219.13
554.489	43.01
554.694	69.63
554.899	-348.15
555.105	-36.86
555.31	67.58
555.515	114.69
555.72	-155.65
555.925	-264.19
556.131	137.21
556.336	-69.63
556.541	-272.38
556.746	-350.2
556.951	301.05
557.156	477.18
557.361	-112.64
557.567	-94.21
557.772	518.14
557.977	145.41
558.182	-223.23
558.387	-212.99
558.592	-53.25
558.797	301.05
559.002	-135.17
559.207	-43.01
559.412	10.24
559.617	446.46
559.822	-276.48
560.027	-333.82
560.232	157.69
560.437	190.46
560.642	-325.63
560.847	-319.48
561.051	-14.34
561.256	51.2
561.461	-145.41
561.666	-284.67
561.871	106.49
562.076	176.13
562.281	-114.69
562.485	-354.3
562.69	225.28
562.895	274.43
563.1	-129.02
563.305	-260.09
563.509	305.15
563.714	641.01
563.919	-206.84
564.123	-231.42
564.328	-43.01
564.533	305.15
564.737	-139.26
564.942	-135.17
565.147	403.45
565.351	526.33
565.556	-159.74
565.761	-149.5
565.965	190.46
566.17	-32.77
566.374	-159.74
566.579	-325.63
566.784	32.77
566.988	-122.88
567.193	-288.76
567.397	-223.23
567.602	-239.61
567.806	-18.43
568.011	-243.71
568.215	-149.5
568.42	63.49
568.624	-34.82
568.828	-315.39
569.033	-2.05
569.237	235.52
569.442	126.97
569.646	-305.15
569.85	-231.42
570.055	-86.01
570.259	137.21
570.463	-32.77
570.668	-245.76
570.872	51.2
571.076	30.72
571.281	-96.25
571.485	-86.01
571.689	14.34
571.893	249.85
572.098	-63.49
572.302	-163.84
572.506	112.64
572.71	69.63
572.914	-43.01
573.119	-114.69
573.323	399.35
573.527	311.29
573.731	-215.04
573.935	-268.28
574.139	153.6
574.343	-143.36
574.547	-196.6
574.751	-129.02
574.955	325.63
575.159	274.43
575.364	-262.14
575.568	-299
575.772	-12.29
575.976	315.39
576.18	-280.57
576.383	-335.87
576.587	256
576.791	141.31
576.995	-407.55
577.199	-405.5
577.403	305.15
577.607	239.61
577.811	-317.44
578.015	-32.77
578.219	161.79
578.422	270.33
578.626	-114.69
578.83	-79.87
579.034	296.96
579.238	96.25
579.442	-161.79
579.645	227.32
579.849	-55.3
580.053	57.34
580.257	-77.82
580.46	-108.54
580.664	278.52
580.868	247.8
581.071	45.06
581.275	-55.3
581.479	-245.76
581.682	221.18
581.886	-253.95
582.09	-67.58
582.293	251.9
582.497	319.48
582.7	14.34
582.904	-290.81
583.107	100.35
583.311	55.3
583.515	-75.77
583.718	-157.69
583.922	227.32
584.125	448.51
584.329	-354.3
584.532	-51.2
584.735	356.35
584.939	108.54
585.142	-292.86
585.346	-194.56
585.549	172.03
585.753	-26.62
585.956	-122.88
586.159	-69.63
586.363	405.5
586.566	237.56
586.769	-286.72
586.973	-272.38
587.176	157.69
587.379	311.29
587.582	188.41
587.786	133.12
587.989	69.63
588.192	612.34
588.395	-45.06
588.599	96.25
588.802	163.84
589.005	217.08
589.208	-276.48
589.411	-126.97
589.615	311.29
589.818	473.08
590.021	112.64
590.224	-106.49
590.427	253.95
590.63	253.95
590.833	-382.97
591.036	-165.89
591.239	-12.29
591.442	-71.68
591.645	120.83
591.848	-153.6
592.051	215.04
592.254	288.76
592.457	-98.3
592.66	-96.25
592.863	65.54
593.066	249.85
593.269	-157.69
593.472	-71.68
593.675	-108.54
593.878	329.72
594.081	-43.01
594.284	-198.65
594.486	196.61
594.689	151.55
594.892	-8.19
595.095	-71.68
595.298	186.37
595.5	-110.59
595.703	-180.22
595.906	-69.63
596.109	440.31
596.311	290.81
596.514	-262.14
596.717	-163.84
596.92	305.15
597.122	145.41
597.325	-325.63
597.528	-184.32
597.73	452.6
597.933	32.77
598.136	-155.65
598.338	-370.68
598.541	172.03
598.743	284.67
598.946	-149.5
599.148	-135.17
599.351	421.88
599.554	335.87
599.756	-22.53
599.959	-126.97
600.161	262.14
600.363	729.08
600.566	43.01
600.768	-182.27
600.971	550.9
601.173	294.91
601.376	-94.21
601.578	-59.39
601.78	215.04
601.983	567.29
602.185	-194.56
602.388	10.24
602.59	276.48
602.792	30.72
602.995	79.87
603.197	-110.59
603.399	319.48
603.601	118.78
603.804	-75.77
604.006	-98.3
604.208	110.59
604.41	-321.53
604.613	114.69
604.815	-133.12
605.017	694.26
605.219	-20.48
605.421	212.99
605.623	-112.64
605.826	440.31
606.028	413.69
606.23	-40.96
606.432	-124.93
606.634	602.1
606.836	489.46
607.038	-264.19
607.24	49.15
607.442	161.79
607.644	120.83
607.846	-40.96
608.048	-88.06
608.25	407.55
608.452	59.39
608.654	-43.01
608.856	-299
609.058	30.72
609.26	278.52
609.462	-22.53
609.664	8.19
609.866	524.28
610.067	258.04
610.269	102.4
610.471	-151.55
610.673	88.06
610.875	266.24
611.077	-249.85
611.278	24.58
611.48	137.21
611.682	761.84
611.884	-30.72
612.085	-14.34
612.287	-92.16
612.489	260.09
612.69	-223.23
612.892	55.3
613.094	325.63
613.295	270.33
613.497	-178.17
613.699	-86.01
613.9	526.33
614.102	325.63
614.304	-100.35
614.505	-206.84
614.707	145.41
614.908	186.37
615.11	-180.22
615.311	-49.15
615.513	362.49
615.714	292.86
615.916	-133.12
616.117	8.19
616.319	83.97
616.52	362.49
616.722	-106.49
616.923	-63.49
617.124	454.65
617.326	256
617.527	92.16
617.729	92.16
617.93	335.87
618.131	241.66
618.333	-67.58
618.534	-8.19
618.735	-30.72
618.937	499.7
619.138	-190.46
619.339	-155.65
619.54	167.93
619.742	65.54
619.943	110.59
620.144	-22.53
620.345	374.78
620.546	407.55
620.748	-69.63
620.949	-20.48
621.15	296.96
621.351	307.2
621.552	-133.12
621.753	-215.04
621.954	-124.93
622.155	688.12
622.356	-149.5
622.558	86.01
622.759	284.67
622.96	585.72
623.161	-34.82
623.362	-28.67
623.563	172.03
623.764	251.9
623.965	-38.91
624.166	182.27
624.366	57.34
624.567	251.9
624.768	-313.34
624.969	-143.36
625.17	167.93
625.371	352.25
625.572	-24.58
625.773	-190.46
625.973	372.73
626.174	296.96
626.375	145.41
626.576	24.58
626.777	350.2
626.977	751.6
627.178	-28.67
627.379	118.78
627.58	172.03
627.78	180.22
627.981	4.1
628.182	112.64
628.382	491.51
628.583	-204.8
628.784	-129.02
628.984	94.21
629.185	333.82
629.386	387.07
629.586	63.49
629.787	-57.34
629.987	374.78
630.188	186.37
630.388	96.25
630.589	57.34
630.79	806.9
630.99	133.12
631.191	38.91
631.391	88.06
631.591	421.88
631.792	567.29
631.992	126.97
632.193	10.24
632.393	548.86
632.594	192.51
632.794	-57.34
632.994	98.3
633.195	176.13
633.395	241.66
633.595	-79.87
633.796	219.13
633.996	75.77
634.196	495.61
634.397	-217.08
634.597	-26.62
634.797	-135.17
634.997	483.32
635.198	167.93
635.398	-190.46
635.598	225.28
635.798	555
635.998	425.98
636.199	-34.82
636.399	32.77
636.599	-114.69
636.799	4.1
636.999	272.38
637.199	282.62
637.399	448.51
637.599	32.77
637.799	151.55
637.999	34.82
638.199	552.95
638.399	-94.21
638.599	-10.24
638.799	272.38
638.999	673.78
639.199	143.36
639.399	75.77
639.599	655.35
639.799	92.16
639.999	-88.06
640.199	-71.68
640.399	268.28
640.599	317.44
640.799	77.82
640.998	206.84
641.198	542.71
641.398	391.16
641.598	102.4
641.798	59.39
641.997	1165.29
642.197	237.56
642.397	165.89
642.597	-38.91
642.796	288.76
642.996	620.53
643.196	126.97
643.395	-71.68
643.595	376.83
643.795	-184.32
643.994	-55.3
644.194	141.31
644.394	356.35
644.593	253.95
644.793	-190.46
644.992	163.84
645.192	284.67
645.392	-139.26
645.591	145.41
645.791	135.17
645.99	385.02
646.19	264.19
646.389	116.73
646.589	36.86
646.788	378.87
646.987	434.17
647.187	176.13
647.386	251.9
647.586	169.98
647.785	446.46
647.984	153.6
648.184	147.45
648.383	188.41
648.582	239.61
648.782	26.62
648.981	215.04
649.18	53.25
649.38	284.67
649.579	-86.01
649.778	40.96
649.977	407.55
650.177	321.53
650.376	-30.72
650.575	-24.58
650.774	600.05
650.973	129.02
651.173	-100.35
651.372	149.5
651.571	413.69
651.77	511.99
651.969	-51.2
652.168	59.39
652.367	2.05
652.566	256
652.765	-26.62
652.964	303.1
653.163	720.89
653.362	245.76
653.561	53.25
653.76	57.34
653.959	61.44
654.158	307.2
654.357	395.26
654.556	67.58
654.755	405.5
654.954	436.22
655.153	65.54
655.352	88.06
655.551	546.81
655.749	75.77
655.948	176.13
656.147	145.41
656.346	333.82
656.545	176.13
656.743	163.84
656.942	188.41
657.141	368.63
657.34	106.49
657.538	108.54
657.737	67.58
657.936	163.84
658.135	440.31
658.333	-36.86
658.532	151.55
658.731	733.17
658.929	415.74
659.128	370.68
659.326	-14.34
659.525	575.48
659.724	329.72
659.922	-204.8
660.121	-26.62
660.319	362.49
660.518	6.14
660.716	-6.14
660.915	45.06
661.113	501.75
661.312	-30.72
661.51	237.56
661.709	16.38
661.907	434.17
662.105	673.78
662.304	55.3
662.502	104.45
662.701	653.3
662.899	157.69
663.097	342.01
663.296	-71.68
663.494	489.46
663.692	649.21
663.891	10.24
664.089	34.82
664.287	350.2
664.485	573.43
664.684	86.01
664.882	270.33
665.08	323.58
665.278	333.82
665.476	-139.26
665.675	278.52
665.873	692.21
666.071	516.09
666.269	129.02
666.467	337.91
666.665	301.05
666.863	364.54
667.061	182.27
667.259	40.96
667.457	262.14
667.655	440.31
667.853	-63.49
668.051	186.37
668.249	126.97
668.447	368.63
668.645	92.16
668.843	227.32
669.041	333.82
669.239	256
669.437	223.23
669.635	266.24
669.833	141.31
670.031	448.51
670.229	212.99
670.426	169.98
670.624	122.88
670.822	126.97
671.02	86.01
671.218	102.4
671.415	96.25
671.613	258.04
671.811	227.32
672.009	106.49
672.206	485.37
672.404	323.58
672.602	284.67
672.799	182.27
672.997	350.2
673.195	561.14
673.392	268.28
673.59	63.49
673.788	395.26
673.985	-51.2
674.183	169.98
674.38	124.93
674.578	468.98
674.775	102.4
674.973	32.77
675.17	94.21
675.368	684.02
675.565	468.98
675.763	34.82
675.96	67.58
676.158	657.4
676.355	292.86
676.553	133.12
676.75	159.74
676.947	372.73
677.145	350.2
677.342	276.48
677.539	251.9
677.737	296.96
677.934	724.98
678.131	188.41
678.329	75.77
678.526	665.59
678.723	464.89
678.92	327.68
679.118	77.82
679.315	-32.77
679.512	663.54
679.709	133.12
679.906	274.43
680.104	624.63
680.301	339.96
680.498	75.77
680.695	-43.01
680.892	143.36
681.089	120.83
681.286	206.84
681.483	-34.82
681.68	532.47
681.877	497.66
682.075	49.15
682.272	299
682.469	425.98
682.665	192.51
682.862	112.64
683.059	-2.05
683.256	415.74
683.453	280.57
683.65	208.89
683.847	165.89
684.044	284.67
684.241	69.63
684.438	202.75
684.635	43.01
684.831	702.45
685.028	786.42
685.225	120.83
685.422	227.32
685.619	317.44
685.815	393.21
686.012	260.09
686.209	155.65
686.405	45.06
686.602	565.24
686.799	45.06
686.996	90.11
687.192	124.93
687.389	714.74
687.586	104.45
687.782	221.18
687.979	643.06
688.175	626.68
688.372	258.04
688.568	145.41
688.765	215.04
688.962	620.53
689.158	231.42
689.355	24.58
689.551	497.66
689.748	219.13
689.944	329.72
690.14	-49.15
690.337	532.47
690.533	114.69
690.73	264.19
690.926	247.8
691.123	505.85
691.319	411.64
691.515	30.72
691.712	229.37
691.908	477.18
692.104	456.7
692.301	270.33
692.497	40.96
692.693	575.48
692.889	526.33
693.086	325.63
693.282	-32.77
693.478	360.44
693.674	757.75
693.87	157.69
694.067	-32.77
694.263	423.93
694.459	313.34
694.655	339.96
694.851	284.67
695.047	526.33
695.243	573.43
695.439	395.26
695.635	143.36
695.831	575.48
696.027	327.68
696.224	172.03
696.42	466.94
696.615	595.96
696.811	432.12
697.007	71.68
697.203	182.27
697.399	436.22
697.595	632.82
697.791	6.14
697.987	311.29
698.183	165.89
698.379	157.69
698.575	149.5
698.77	202.75
698.966	530.42
699.162	452.6
699.358	202.75
699.554	192.51
699.749	622.58
699.945	600.05
700.141	305.15
700.337	231.42
700.532	354.3
700.728	124.93
700.924	83.97
701.119	57.34
701.315	473.08
701.511	319.48
701.706	268.28
701.902	-6.14
702.097	311.29
702.293	505.85
702.489	202.75
702.684	149.5
702.88	229.37
703.075	247.8
703.271	260.09
703.466	65.54
703.662	382.97
703.857	522.23
704.053	118.78
704.248	219.13
704.443	475.13
704.639	583.67
704.834	278.52
705.03	188.41
705.225	571.38
705.42	677.88
705.616	262.14
705.811	108.54
706.006	374.78
706.202	251.9
706.397	417.79
706.592	75.77
706.787	354.3
706.983	460.79
707.178	401.4
707.373	272.38
707.568	509.94
707.763	645.11
707.959	120.83
708.154	192.51
708.349	485.37
708.544	511.99
708.739	421.88
708.934	92.16
709.129	509.94
709.324	636.92
709.519	124.93
709.714	120.83
709.909	626.68
710.104	516.09
710.299	153.6
710.494	241.66
710.689	548.86
710.884	362.49
711.079	354.3
711.274	514.04
711.469	475.13
711.664	432.12
711.859	63.49
712.054	331.77
712.249	526.33
712.443	641.01
712.638	118.78
712.833	124.93
713.028	303.1
713.223	319.48
713.417	397.31
713.612	63.49
713.807	471.03
714.002	962.55
714.196	419.83
714.391	126.97
714.586	655.35
714.78	305.15
714.975	219.13
715.17	200.7
715.364	247.8
715.559	595.96
715.754	-14.34
715.948	149.5
716.143	892.91
716.337	460.79
716.532	454.65
716.726	200.7
716.921	579.58
717.115	735.22
717.31	81.92
717.504	569.34
717.699	292.86
717.893	581.62
718.088	163.84
718.282	59.39
718.476	503.8
718.671	423.93
718.865	210.94
719.059	196.61
719.254	452.6
719.448	772.08
719.642	1497.07
719.837	34.82
720.031	632.82
720.225	667.64
720.419	333.82
720.614	112.64
720.808	641.01
721.002	323.58
721.196	143.36
721.39	143.36
721.585	731.12
721.779	509.94
721.973	165.89
722.167	122.88
722.361	460.79
722.555	651.25
722.749	210.94
722.943	184.32
723.137	131.07
723.331	471.03
723.525	221.18
723.719	137.21
723.913	567.29
724.107	727.03
724.301	116.73
724.495	215.04
724.689	837.62
724.883	755.7
725.077	129.02
725.271	200.7
725.465	643.06
725.659	423.93
725.853	286.72
726.046	77.82
726.24	284.67
726.434	649.21
726.628	153.6
726.822	280.57
727.015	716.79
727.209	733.17
727.403	208.89
727.596	106.49
727.79	610.29
727.984	569.34
728.177	204.8
728.371	223.23
728.565	690.17
728.758	135.17
728.952	116.73
729.146	245.76
729.339	677.88
729.533	387.07
729.726	311.29
729.92	120.83
730.113	661.49
730.307	479.22
730.5	235.52
730.694	129.02
730.887	303.1
731.081	577.53
731.274	96.25
731.468	243.71
731.661	430.07
731.854	288.76
732.048	194.56
732.241	45.06
732.435	268.28
732.628	493.56
732.821	370.68
733.014	184.32
733.208	186.37
733.401	643.06
733.594	202.75
733.788	251.9
733.981	673.78
734.174	532.47
734.367	243.71
734.56	360.44
734.754	581.62
734.947	358.39
735.14	94.21
735.333	118.78
735.526	606.2
735.719	192.51
735.912	149.5
736.105	145.41
736.298	423.93
736.491	239.61
736.684	145.41
736.877	163.84
737.07	466.94
737.263	669.69
737.456	196.61
737.649	75.77
737.842	348.15
738.035	385.02
738.228	260.09
738.421	407.55
738.614	622.58
738.807	569.34
739	135.17
739.192	88.06
739.385	548.86
739.578	559.1
739.771	542.71
739.964	317.44
740.156	466.94
740.349	317.44
740.542	344.06
740.735	83.97
740.927	86.01
741.12	210.94
741.313	92.16
741.505	376.83
741.698	511.99
741.891	540.66
742.083	284.67
742.276	235.52
742.468	399.35
742.661	409.59
742.854	262.14
743.046	223.23
743.239	833.52
743.431	362.49
743.624	362.49
743.816	-34.82
744.009	354.3
744.201	573.43
744.393	385.02
744.586	114.69
744.778	622.58
744.971	362.49
745.163	247.8
745.355	268.28
745.548	428.03
745.74	362.49
745.932	321.53
746.125	221.18
746.317	1026.03
746.509	378.87
746.702	253.95
746.894	378.87
747.086	589.82
747.278	747.51
747.471	358.39
747.663	274.43
747.855	419.83
748.047	800.76
748.239	161.79
748.431	88.06
748.623	806.9
748.815	821.24
749.008	180.22
749.2	18.43
749.392	509.94
749.584	579.58
749.776	212.99
749.968	188.41
750.16	870.39
750.352	389.11
750.544	251.9
750.736	212.99
750.928	632.82
751.12	583.67
751.311	243.71
751.503	208.89
751.695	526.33
751.887	342.01
752.079	-8.19
752.271	225.28
752.463	1220.59
752.654	702.45
752.846	284.67
753.038	290.81
753.23	290.81
753.421	567.29
753.613	243.71
753.805	436.22
753.997	686.07
754.188	567.29
754.38	243.71
754.572	163.84
754.763	272.38
754.955	571.38
755.146	292.86
755.338	329.72
755.53	507.9
755.721	366.59
755.913	116.73
756.104	102.4
756.296	370.68
756.487	604.15
756.679	139.26
756.87	225.28
757.062	348.15
757.253	520.18
757.445	219.13
757.636	296.96
757.827	415.74
758.019	1017.84
758.21	217.08
758.401	239.61
758.593	917.49
758.784	667.64
758.975	67.58
759.167	116.73
759.358	528.38
759.549	665.59
759.74	235.52
759.932	208.89
760.123	716.79
760.314	272.38
760.505	440.31
760.696	212.99
760.888	823.28
761.079	288.76
761.27	81.92
761.461	88.06
761.652	727.03
761.843	305.15
762.034	204.8
762.225	446.46
762.416	405.5
762.607	415.74
762.798	243.71
762.989	108.54
763.18	1103.86
763.371	264.19
763.562	219.13
763.753	247.8
763.944	634.87
764.135	667.64
764.326	378.87
764.517	200.7
764.708	417.79
764.899	575.48
765.089	186.37
765.28	47.1
765.471	487.42
765.662	460.79
765.853	350.2
766.043	122.88
766.234	733.17
766.425	622.58
766.615	284.67
766.806	167.93
766.997	815.09
767.187	473.08
767.378	212.99
767.569	-2.05
767.759	581.62
767.95	485.37
768.141	389.11
768.331	206.84
768.522	487.42
768.712	602.1
768.903	227.32
769.093	188.41
769.284	841.72
769.474	464.89
769.665	40.96
769.855	92.16
770.046	522.23
770.236	305.15
770.426	376.83
770.617	71.68
770.807	581.62
770.998	348.15
771.188	438.27
771.378	198.65
771.569	655.35
771.759	538.62
771.949	114.69
772.139	4.1
772.33	454.65
772.52	823.28
772.71	153.6
772.9	61.44
773.09	788.47
773.281	741.36
773.471	116.73
773.661	225.28
773.851	724.98
774.041	356.35
774.231	157.69
774.421	360.44
774.611	786.42
774.802	432.12
774.992	333.82
775.182	122.88
775.372	311.29
775.562	628.73
775.752	149.5
775.942	174.08
776.131	716.79
776.321	600.05
776.511	233.47
776.701	104.45
776.891	731.12
777.081	198.65
777.271	235.52
777.461	55.3
777.651	559.1
777.84	718.84
778.03	253.95
778.22	280.57
778.41	763.89
778.599	178.17
778.789	268.28
778.979	176.13
779.169	591.86
779.358	372.73
779.548	399.35
779.738	51.2
779.927	452.6
780.117	225.28
780.307	208.89
780.496	20.48
780.686	520.18
780.875	903.15
781.065	133.12
781.254	169.98
781.444	378.87
781.633	481.27
781.823	202.75
782.012	141.31
782.202	335.87
782.391	323.58
782.581	22.53
782.77	319.48
782.96	567.29
783.149	411.64
783.338	151.55
783.528	32.77
783.717	546.81
783.906	776.18
784.096	333.82
784.285	120.83
784.474	270.33
784.663	305.15
784.853	202.75
785.042	260.09
785.231	350.2
785.42	688.12
785.61	301.05
785.799	108.54
785.988	305.15
786.177	380.92
786.366	196.61
786.555	301.05
786.744	737.27
786.933	370.68
787.122	110.59
787.312	2.05
787.501	309.24
787.69	491.51
787.879	270.33
788.068	174.08
788.257	178.17
788.445	227.32
788.634	208.89
788.823	34.82
789.012	1056.75
789.201	624.63
789.39	243.71
789.579	118.78
789.768	423.93
789.957	391.16
790.145	172.03
790.334	-88.06
790.523	350.2
790.712	288.76
790.9	208.89
791.089	106.49
791.278	587.77
791.467	446.46
791.655	374.78
791.844	667.64
792.033	290.81
792.221	370.68
792.41	276.48
792.599	47.1
792.787	567.29
792.976	653.3
793.164	126.97
793.353	184.32
793.541	532.47
793.73	559.1
793.918	325.63
794.107	210.94
794.295	391.16
794.484	350.2
794.672	178.17
794.861	221.18
795.049	606.2
795.238	755.7
795.426	143.36
795.614	186.37
795.803	466.94
795.991	757.75
796.179	186.37
796.368	190.46
796.556	702.45
796.744	212.99
796.932	88.06
797.121	200.7
797.309	378.87
797.497	473.08
797.685	200.7
797.874	178.17
798.062	333.82
798.25	722.93
798.438	133.12
798.626	172.03
798.814	436.22
799.002	892.91
799.19	305.15
799.378	188.41
799.566	616.44
799.755	763.89
799.943	391.16
800.131	133.12
800.318	526.33
800.506	477.18
800.694	184.32
800.882	436.22
801.07	694.26
801.258	325.63
801.446	225.28
801.634	149.5
801.822	411.64
802.01	419.83
802.197	104.45
802.385	342.01
802.573	438.27
802.761	268.28
802.949	182.27
803.136	53.25
803.324	704.5
803.512	432.12
803.699	235.52
803.887	-71.68
804.075	690.17
804.262	292.86
804.45	133.12
804.638	219.13
804.825	221.18
805.013	253.95
805.201	237.56
805.388	92.16
805.576	329.72
805.763	692.21
805.951	141.31
806.138	350.2
806.326	854
806.513	593.91
806.701	270.33
806.888	135.17
807.075	423.93
807.263	800.76
807.45	-2.05
807.638	325.63
807.825	849.91
808.012	655.35
808.2	219.13
808.387	382.97
808.574	534.52
808.761	733.17
808.949	102.4
809.136	319.48
809.323	333.82
809.51	356.35
809.698	464.89
809.885	411.64
810.072	569.34
810.259	622.58
810.446	278.52
810.633	163.84
810.82	655.35
811.008	774.13
811.195	356.35
811.382	247.8
811.569	423.93
811.756	186.37
811.943	157.69
812.13	145.41
812.317	333.82
812.504	313.34
812.691	247.8
812.878	344.06
813.064	737.27
813.251	409.59
813.438	57.34
813.625	421.88
813.812	452.6
813.999	460.79
814.186	280.57
814.372	329.72
814.559	411.64
814.746	659.45
814.933	147.45
815.12	368.63
815.306	256
815.493	178.17
815.68	184.32
815.866	280.57
816.053	694.26
816.24	993.26
816.426	317.44
816.613	73.73
816.799	524.28
816.986	630.77
817.173	241.66
817.359	133.12
817.546	514.04
817.732	143.36
817.919	6.14
818.105	339.96
818.292	380.92
818.478	520.18
818.665	409.59
818.851	161.79
819.037	972.79
819.224	503.8
819.41	4.1
819.597	143.36
819.783	833.52
819.969	524.28
820.156	321.53
820.342	155.65
820.528	1120.24
820.714	448.51
820.901	530.42
821.087	325.63
821.273	770.04
821.459	411.64
821.646	165.89
821.832	145.41
822.018	434.17
822.204	456.7
822.39	288.76
822.576	86.01
822.762	616.44
822.948	411.64
823.134	374.78
823.32	202.75
823.507	196.61
823.693	448.51
823.879	581.62
824.065	139.26
824.25	485.37
824.436	245.76
824.622	210.94
824.808	69.63
824.994	296.96
825.18	235.52
825.366	120.83
825.552	229.37
825.738	268.28
825.923	755.7
826.109	415.74
826.295	149.5
826.481	280.57
826.667	331.77
826.852	337.91
827.038	112.64
827.224	628.73
827.409	868.34
827.595	94.21
827.781	409.59
827.966	591.86
828.152	579.58
828.338	274.43
828.523	65.54
828.709	272.38
828.894	698.36
829.08	186.37
829.266	182.27
829.451	235.52
829.637	579.58
829.822	307.2
830.008	169.98
830.193	761.84
830.378	751.6
830.564	301.05
830.749	135.17
830.935	505.85
831.12	587.77
831.305	217.08
831.491	321.53
831.676	157.69
831.861	579.58
832.047	200.7
832.232	75.77
832.417	843.76
832.602	428.03
832.788	184.32
832.973	129.02
833.158	438.27
833.343	362.49
833.528	264.19
833.714	278.52
833.899	540.66
834.084	845.81
834.269	368.63
834.454	268.28
834.639	626.68
834.824	409.59
835.009	274.43
835.194	346.11
835.379	579.58
835.564	839.67
835.749	305.15
835.934	135.17
836.119	614.39
836.304	466.94
836.489	153.6
836.674	489.46
836.859	268.28
837.044	718.84
837.228	278.52
837.413	210.94
837.598	479.22
837.783	696.31
837.968	305.15
838.152	90.11
838.337	38.91
838.522	829.43
838.707	645.11
838.891	372.73
839.076	448.51
839.261	616.44
839.445	229.37
839.63	346.11
839.815	811
839.999	518.14
840.184	178.17
840.368	274.43
840.553	645.11
840.737	669.69
840.922	186.37
841.106	167.93
841.291	163.84
841.475	536.57
841.66	204.8
841.844	202.75
842.029	1142.77
842.213	227.32
842.397	186.37
842.582	71.68
842.766	796.66
842.951	661.49
843.135	229.37
843.319	231.42
843.504	501.75
843.688	681.97
843.872	6.14
844.056	167.93
844.241	565.24
844.425	393.21
844.609	403.45
844.793	-67.58
844.977	692.21
845.161	485.37
845.346	30.72
845.53	225.28
845.714	456.7
845.898	819.19
846.082	-10.24
846.266	200.7
846.45	296.96
846.634	499.7
846.818	149.5
847.002	337.91
847.186	540.66
847.37	239.61
847.554	124.93
847.738	391.16
847.922	495.61
848.106	485.37
848.29	38.91
848.473	217.08
848.657	589.82
848.841	342.01
849.025	212.99
849.209	83.97
849.392	614.39
849.576	342.01
849.76	-26.62
849.944	354.3
850.127	751.6
850.311	188.41
850.495	67.58
850.678	-14.34
850.862	690.17
851.046	731.12
851.229	403.45
851.413	143.36
851.596	436.22
851.78	391.16
851.964	270.33
852.147	260.09
852.331	1161.2
852.514	806.9
852.698	329.72
852.881	79.87
853.065	673.78
853.248	366.59
853.431	284.67
853.615	247.8
853.798	1009.65
853.982	518.14
854.165	395.26
854.348	178.17
854.532	251.9
854.715	387.07
854.898	329.72
855.081	215.04
855.265	651.25
855.448	786.42
855.631	96.25
855.814	258.04
855.997	661.49
856.181	342.01
856.364	296.96
856.547	22.53
856.73	464.89
856.913	489.46
857.096	40.96
857.279	225.28
857.462	264.19
857.645	661.49
857.828	290.81
858.011	237.56
858.194	249.85
858.377	647.16
858.56	67.58
858.743	276.48
858.926	178.17
859.109	524.28
859.292	143.36
859.475	149.5
859.658	645.11
859.841	473.08
860.023	32.77
860.206	83.97
860.389	524.28
860.572	690.17
860.755	161.79
860.937	178.17
861.12	428.03
861.303	456.7
861.486	192.51
861.668	204.8
861.851	620.53
862.034	483.32
862.216	256
862.399	-16.38
862.581	514.04
862.764	837.62
862.947	231.42
863.129	145.41
863.312	208.89
863.494	776.18
863.677	565.24
863.859	49.15
864.042	567.29
864.224	851.95
864.406	391.16
864.589	40.96
864.771	593.91
864.954	184.32
865.136	153.6
865.318	36.86
865.501	585.72
865.683	145.41
865.865	96.25
866.048	221.18
866.23	460.79
866.412	438.27
866.594	63.49
866.777	413.69
866.959	600.05
867.141	290.81
867.323	473.08
867.505	321.53
867.687	354.3
867.869	450.55
868.052	253.95
868.234	43.01
868.416	475.13
868.598	661.49
868.78	178.17
868.962	102.4
869.144	600.05
869.326	520.18
869.508	118.78
869.69	51.2
869.872	278.52
870.054	589.82
870.236	73.73
870.417	223.23
870.599	339.96
870.781	827.38
870.963	317.44
871.145	112.64
871.327	104.45
871.508	614.39
871.69	188.41
871.872	159.74
872.054	346.11
872.235	514.04
872.417	251.9
872.599	86.01
872.78	759.8
872.962	374.78
873.144	34.82
873.325	249.85
873.507	739.32
873.689	411.64
873.87	75.77
874.052	282.62
874.233	368.63
874.415	651.25
874.596	210.94
874.778	96.25
874.959	409.59
875.141	739.32
875.322	253.95
875.503	100.35
875.685	546.81
875.866	92.16
876.048	38.91
876.229	18.43
876.41	434.17
876.592	544.76
876.773	143.36
876.954	-10.24
877.136	782.32
877.317	296.96
877.498	-26.62
877.679	272.38
877.86	509.94
878.042	387.07
878.223	167.93
878.404	489.46
878.585	528.38
878.766	782.32
878.947	552.95
879.128	348.15
879.309	538.62
879.49	624.63
879.672	272.38
879.853	149.5
880.034	249.85
880.215	299
880.396	276.48
880.576	110.59
880.757	243.71
880.938	743.41
881.119	81.92
881.3	116.73
881.481	239.61
881.662	1214.45
881.843	206.84
882.023	-26.62
882.204	399.35
882.385	382.97
882.566	159.74
882.747	124.93
882.927	411.64
883.108	380.92
883.289	129.02
883.469	380.92
883.65	268.28
883.831	413.69
884.011	395.26
884.192	133.12
884.373	544.76
884.553	423.93
884.734	266.24
884.914	385.02
885.095	1056.75
885.275	751.6
885.456	522.23
885.636	18.43
885.817	366.59
885.997	372.73
886.178	143.36
886.358	256
886.538	503.8
886.719	1417.19
886.899	88.06
887.08	192.51
887.26	579.58
887.44	241.66
887.621	145.41
887.801	294.91
887.981	915.44
888.161	733.17
888.342	165.89
888.522	247.8
888.702	628.73
888.882	677.88
889.062	364.54
889.242	59.39
889.423	868.34
889.603	534.52
889.783	350.2
889.963	159.74
890.143	503.8
890.323	694.26
890.503	139.26
890.683	243.71
890.863	466.94
891.043	524.28
891.223	274.43
891.403	348.15
891.583	399.35
891.763	473.08
891.943	360.44
892.122	106.49
892.302	448.51
892.482	364.54
892.662	260.09
892.842	210.94
893.022	442.36
893.201	305.15
893.381	337.91
893.561	161.79
893.741	505.85
893.92	464.89
894.1	333.82
894.28	229.37
894.459	575.48
894.639	565.24
894.819	227.32
894.998	335.87
895.178	526.33
895.357	647.16
895.537	178.17
895.716	53.25
895.896	468.98
896.075	823.28
896.255	262.14
896.434	47.1
896.614	563.19
896.793	778.23
896.973	421.88
897.152	401.4
897.331	616.44
897.511	692.21
897.69	30.72
897.87	356.35
898.049	610.29
898.228	450.55
898.407	464.89
898.587	385.02
898.766	227.32
898.945	681.97
899.124	595.96
899.304	397.31
899.483	581.62
899.662	886.77
899.841	225.28
900.02	249.85
900.199	788.47
900.378	563.19
900.557	221.18
900.737	129.02
900.916	534.52
901.095	692.21
901.274	464.89
901.453	169.98
901.632	245.76
901.811	425.98
901.989	217.08
902.168	169.98
902.347	636.92
902.526	333.82
902.705	241.66
902.884	321.53
903.063	737.27
903.242	788.47
903.42	116.73
903.599	395.26
903.778	745.46
903.957	819.19
904.135	380.92
904.314	350.2
904.493	530.42
904.672	690.17
904.85	319.48
905.029	212.99
905.207	622.58
905.386	1261.55
905.565	145.41
905.743	235.52
905.922	407.55
906.1	780.28
906.279	163.84
906.457	161.79
906.636	329.72
906.814	382.97
906.993	266.24
907.171	231.42
907.35	591.86
907.528	589.82
907.707	473.08
907.885	153.6
908.063	978.93
908.242	299
908.42	276.48
908.598	96.25
908.777	569.34
908.955	276.48
909.133	278.52
909.311	188.41
909.49	464.89
909.668	450.55
909.846	188.41
910.024	6.14
910.202	407.55
910.38	468.98
910.559	141.31
910.737	83.97
910.915	589.82
911.093	550.9
911.271	346.11
911.449	440.31
911.627	616.44
911.805	956.4
911.983	260.09
912.161	239.61
912.339	534.52
912.517	759.8
912.695	313.34
912.872	292.86
913.05	380.92
913.228	528.38
913.406	249.85
913.584	143.36
913.762	632.82
913.939	247.8
914.117	161.79
914.295	237.56
914.473	587.77
914.65	493.56
914.828	276.48
915.006	190.46
915.184	176.13
915.361	595.96
915.539	380.92
915.716	428.03
915.894	608.25
916.072	628.73
916.249	446.46
916.427	378.87
916.604	229.37
916.782	628.73
916.959	124.93
917.137	266.24
917.314	595.96
917.492	585.72
917.669	352.25
917.847	327.68
918.024	491.51
918.201	223.23
918.379	344.06
918.556	178.17
918.733	755.7
918.911	415.74
919.088	497.66
919.265	188.41
919.442	561.14
919.62	276.48
919.797	194.56
919.974	151.55
920.151	483.32
920.328	479.22
920.506	313.34
920.683	409.59
920.86	303.1
921.037	329.72
921.214	258.04
921.391	137.21
921.568	716.79
921.745	194.56
921.922	270.33
922.099	135.17
922.276	688.12
922.453	575.48
922.63	165.89
922.807	446.46
922.984	546.81
923.161	321.53
923.338	219.13
923.514	110.59
923.691	395.26
923.868	538.62
924.045	227.32
924.222	116.73
924.399	489.46
924.575	624.63
924.752	309.24
924.929	358.39
925.105	522.23
925.282	360.44
925.459	274.43
925.635	268.28
925.812	397.31
925.989	221.18
926.165	292.86
926.342	186.37
926.518	180.22
926.695	411.64
926.871	251.9
927.048	59.39
927.224	548.86
927.401	352.25
927.577	169.98
927.754	108.54
927.93	694.26
928.107	550.9
928.283	165.89
928.459	262.14
928.636	387.07
928.812	403.45
928.988	169.98
929.165	69.63
929.341	350.2
929.517	358.39
929.693	487.42
929.87	2.05
930.046	536.57
930.222	315.39
930.398	188.41
930.574	290.81
930.751	342.01
930.927	266.24
931.103	215.04
931.279	235.52
931.455	245.76
931.631	411.64
931.807	104.45
931.983	102.4
932.159	18.43
932.335	370.68
932.511	188.41
932.687	133.12
932.863	421.88
933.039	391.16
933.215	61.44
933.391	-18.43
933.566	405.5
933.742	409.59
933.918	200.7
934.094	-36.86
934.27	258.04
934.445	292.86
934.621	202.75
934.797	49.15
934.973	581.62
935.148	425.98
935.324	71.68
935.5	-186.37
935.675	669.69
935.851	415.74
936.027	163.84
936.202	81.92
936.378	460.79
936.553	354.3
936.729	522.23
936.904	108.54
937.08	38.91
937.255	186.37
937.431	30.72
937.606	47.1
937.782	225.28
937.957	325.63
938.133	188.41
938.308	-16.38
938.483	305.15
938.659	40.96
938.834	79.87
939.009	51.2
939.185	245.76
939.36	188.41
939.535	-225.28
939.71	79.87
939.886	493.56
940.061	380.92
940.236	208.89
940.411	106.49
940.586	299
940.761	393.21
940.937	59.39
941.112	24.58
941.287	280.57
941.462	366.59
941.637	-63.49
941.812	63.49
941.987	342.01
942.162	174.08
942.337	167.93
942.512	45.06
942.687	370.68
942.862	425.98
943.037	-53.25
943.212	-200.7
943.386	151.55
943.561	208.89
943.736	190.46
943.911	280.57
944.086	335.87
944.26	247.8
944.435	63.49
944.61	86.01
944.785	495.61
944.959	628.73
945.134	122.88
945.309	-73.73
945.483	86.01
945.658	403.45
945.833	-149.5
946.007	-137.21
946.182	632.82
946.357	-65.53
946.531	-129.02
946.706	-112.64
946.88	-106.49
947.055	186.37
947.229	-47.1
947.404	-94.21
947.578	460.79
947.752	116.73
947.927	-90.11
948.101	-133.12
948.276	204.8
948.45	98.3
948.624	161.79
948.799	-75.77
948.973	339.96
949.147	-79.87
949.321	47.1
949.496	20.48
949.67	399.35
949.844	135.17
950.018	-53.25
950.193	-49.15
950.367	684.02
950.541	169.98
950.715	102.4
950.889	141.31
951.063	114.69
951.237	303.1
951.411	-210.94
951.585	-192.51
951.759	317.44
951.933	147.45
952.107	-59.39
952.281	108.54
952.455	624.63
952.629	372.73
952.803	-110.59
952.977	-53.25
953.151	335.87
953.325	325.63
953.499	86.01
953.672	-55.3
953.846	-20.48
954.02	135.17
954.194	-139.26
954.368	-55.3
954.541	339.96
954.715	59.39
954.889	102.4
955.062	-126.97
955.236	137.21
955.41	108.54
955.583	112.64
955.757	-169.98
955.93	26.62
956.104	-104.45
956.278	-47.1
956.451	-45.06
956.625	262.14
956.798	614.39
956.972	233.47
957.145	-176.13
957.319	159.74
957.492	92.16
957.665	90.11
957.839	-26.62
958.012	278.52
958.185	71.68
958.359	-4.1
958.532	67.58
958.705	366.59
958.879	278.52
959.052	20.48
959.225	-178.17
959.398	188.41
959.572	200.7
959.745	-79.87
959.918	47.1
960.091	122.88
960.264	206.84
960.438	-155.65
960.611	-106.49
960.784	309.24
960.957	51.2
961.13	354.3
961.303	-28.67
961.476	73.73
961.649	321.53
961.822	-178.17
961.995	-6.14
962.168	266.24
962.341	88.06
962.514	2.05
962.686	-104.45
962.859	83.97
963.032	239.61
963.205	-55.3
963.378	-192.51
963.551	286.72
963.723	180.22
963.896	145.41
964.069	34.82
964.242	100.35
964.414	346.11
964.587	20.48
964.76	-20.48
964.932	204.8
965.105	2.05
965.278	-81.92
965.45	-102.4
965.623	268.28
965.795	350.2
965.968	43.01
966.14	-63.49
966.313	79.87
966.485	75.77
966.658	-6.14
966.83	-67.58
967.003	518.14
967.175	299
967.348	22.53
967.52	-32.77
967.692	559.1
967.865	294.91
968.037	-24.58
968.209	233.47
968.382	223.23
968.554	329.72
968.726	8.19
968.898	-51.2
969.071	219.13
969.243	249.85
969.415	-26.62
969.587	77.82
969.759	759.8
969.932	323.58
970.104	61.44
970.276	-337.91
970.448	47.1
970.62	65.54
970.792	129.02
970.964	86.01
971.136	620.53
971.308	358.39
971.48	-6.14
971.652	-32.77
971.824	514.04
971.996	-16.38
972.168	-6.14
972.339	0
972.511	382.97
972.683	69.63
972.855	206.84
973.027	4.1
973.199	141.31
973.37	307.2
973.542	73.73
973.714	135.17
973.886	188.41
974.057	442.36
974.229	-88.06
974.401	-8.19
974.572	-59.39
974.744	-202.75
974.915	-172.03
975.087	-147.45
975.259	458.75
975.43	55.3
975.602	-20.48
975.773	-61.44
975.945	-4.1
976.116	305.15
976.288	-184.32
976.459	36.86
976.63	112.64
976.802	253.95
976.973	-112.64
977.145	122.88
977.316	589.82
977.487	460.79
977.659	45.06
977.83	40.96
978.001	591.86
978.172	184.32
978.344	-81.92
978.515	-8.19
978.686	22.53
978.857	423.93
979.028	-22.53
979.2	-192.51
979.371	409.59
979.542	239.61
979.713	94.21
979.884	-399.35
980.055	-26.62
980.226	59.39
980.397	-36.86
980.568	-182.27
980.739	329.72
980.91	178.17
981.081	147.45
981.252	-120.83
981.423	329.72
981.594	362.49
981.765	-141.31
981.936	8.19
982.106	317.44
982.277	425.98
982.448	-88.06
982.619	81.92
982.79	49.15
982.96	397.31
983.131	-20.48
983.302	-135.17
983.472	30.72
983.643	239.61
983.814	-67.58
983.984	-20.48
984.155	186.37
984.326	395.26
984.496	-4.1
984.667	-67.58
984.837	75.77
985.008	493.56
985.178	104.45
985.349	-40.96
985.519	120.83
985.69	-2.05
985.86	14.34
986.031	-75.77
986.201	202.75
986.371	223.23
986.542	-81.92
986.712	-223.23
986.882	251.9
987.053	223.23
987.223	-194.56
987.393	114.69
987.563	6.14
987.734	313.34
987.904	204.8
988.074	-45.06
988.244	206.84
988.414	65.54
988.585	-116.73
988.755	100.35
988.925	161.79
989.095	475.13
989.265	-137.21
989.435	-63.49
989.605	311.29
989.775	366.59
989.945	157.69
990.115	-131.07
990.285	126.97
990.455	258.04
990.625	-10.24
990.795	-149.5
990.965	428.03
991.134	-53.25
991.304	-81.92
991.474	-104.45
991.644	178.17
991.814	450.55
991.984	-157.69
992.153	-120.83
992.323	69.63
992.493	178.17
992.662	-311.29
992.832	75.77
993.002	169.98
993.171	270.33
993.341	-188.41
993.511	-26.62
993.68	-26.62
993.85	323.58
994.019	-292.86
994.189	-114.69
994.358	77.82
994.528	-18.43
994.697	-358.39
994.867	-206.84
995.036	290.81
995.206	51.2
995.375	-176.13
995.544	-63.49
995.714	161.79
995.883	14.34
996.052	118.78
996.222	-284.67
996.391	534.52
996.56	229.37
996.73	-163.84
996.899	-251.9
997.068	407.55
997.237	112.64
997.406	-202.75
997.576	-249.85
997.745	108.54
997.914	161.79
998.083	-247.8
998.252	-165.89
998.421	129.02
998.59	-79.87
998.759	-280.57
998.928	-290.81
999.097	337.91
999.266	131.07
999.435	-51.2
999.604	-301.05
999.773	622.58
999.942	-26.62
1000.111	-270.33
1000.28	-356.35
1000.448	-155.65
1000.617	-151.55
1000.786	-20.48
1000.955	-256
1001.124	90.11
1001.292	819.19
1001.461	-202.75
1001.63	-167.93
1001.798	493.56
1001.967	323.58
1002.136	-260.09
1002.304	-253.95
1002.473	120.83
1002.642	81.92
1002.81	-88.06
1002.979	-196.6
1003.147	192.51
1003.316	708.6
1003.484	-141.31
1003.653	-243.71
1003.821	401.4
1003.99	131.07
1004.158	-159.74
1004.327	-40.96
1004.495	231.42
1004.663	-51.2
1004.832	-92.16
1005	-368.63
1005.168	274.43
1005.337	69.63
1005.505	-352.25
1005.673	2.05
1005.842	147.45
1006.01	256
1006.178	-270.33
1006.346	-256
1006.514	206.84
1006.683	348.15
1006.851	-186.37
1007.019	-278.52
1007.187	-200.7
1007.355	-348.15
1007.523	-358.39
1007.691	-370.68
1007.859	-153.6
1008.027	432.12
1008.195	-174.08
1008.363	-217.08
1008.531	264.19
1008.699	-61.44
1008.867	-296.96
1009.035	-317.44
1009.203	307.2
1009.37	61.44
1009.538	-204.8
1009.706	118.78
1009.874	94.21
1010.042	57.34
1010.209	-319.48
1010.377	-325.63
1010.545	260.09
1010.713	145.41
1010.88	-243.71
1011.048	-108.54
1011.216	-43.01
1011.383	362.49
1011.551	-200.7
1011.718	-329.72
1011.886	354.3
1012.054	102.4
1012.221	-241.66
1012.389	-258.04
1012.556	104.45
1012.724	497.66
1012.891	-194.56
1013.058	-266.24
1013.226	245.76
1013.393	258.04
1013.561	-350.2
1013.728	-364.54
1013.895	243.71
1014.063	176.13
1014.23	-315.39
1014.397	-264.19
1014.565	292.86
1014.732	-45.06
1014.899	-210.94
1015.066	-348.15
1015.233	108.54
1015.401	151.55
1015.568	-149.5
1015.735	-176.13
1015.902	36.86
1016.069	137.21
1016.236	-286.72
1016.403	-313.34
1016.57	-51.2
1016.737	194.56
1016.904	-129.02
1017.071	-256
1017.238	-32.77
1017.405	274.43
1017.572	-256
1017.739	-38.91
1017.906	157.69
1018.073	335.87
1018.24	-317.44
1018.407	-145.41
1018.573	276.48
1018.74	57.34
1018.907	-202.75
1019.074	-331.77
1019.241	264.19
1019.407	122.88
1019.574	-296.96
1019.741	-387.07
1019.907	145.41
1020.074	247.8
1020.241	-464.89
1020.407	-288.76
1020.574	182.27
1020.74	243.71
1020.907	-292.86
1021.073	-323.58
1021.24	638.97
1021.406	438.27
1021.573	-278.52
1021.739	-309.24
1021.906	342.01
1022.072	-16.38
1022.239	-315.39
1022.405	-184.32
1022.571	137.21
1022.738	-165.89
1022.904	-286.72
1023.07	-245.76
1023.237	165.89
1023.403	235.52
1023.569	-210.94
1023.735	-243.71
1023.902	174.08
1024.068	133.12
1024.234	-350.2
1024.4	-184.32
1024.566	176.13
1024.732	315.39
1024.898	-243.71
1025.065	-358.39
1025.231	256
1025.397	34.82
1025.563	-186.37
1025.729	-309.24
1025.895	-284.67
1026.061	-73.73
1026.227	-425.98
1026.392	-276.48
1026.558	368.63
1026.724	178.17
1026.89	-260.09
1027.056	-176.13
1027.222	202.75
1027.388	30.72
1027.553	-290.81
1027.719	-366.59
1027.885	446.46
1028.051	184.32
1028.216	-362.49
1028.382	-206.84
1028.548	276.48
1028.713	10.24
1028.879	-323.58
1029.045	-98.3
1029.21	399.35
1029.376	376.83
1029.541	-192.51
1029.707	-192.51
1029.873	217.08
1030.038	280.57
1030.204	-256
1030.369	-208.89
1030.534	280.57
1030.7	6.14
1030.865	-260.09
1031.031	-348.15
1031.196	163.84
1031.361	90.11
1031.527	-311.29
1031.692	-251.9
1031.857	-243.71
1032.023	288.76
1032.188	-378.87
1032.353	-194.56
1032.518	464.89
1032.684	149.5
1032.849	-403.45
1033.014	-157.69
1033.179	229.37
1033.344	225.28
1033.509	-135.17
1033.674	-178.17
1033.839	360.44
1034.004	247.8
1034.17	-188.41
1034.335	-395.26
1034.5	-38.91
1034.664	-34.82
1034.829	-286.72
1034.994	-186.37
1035.159	317.44
1035.324	129.02
1035.489	-204.8
1035.654	-194.56
1035.819	452.6
1035.984	190.46
1036.148	-172.03
1036.313	-165.89
1036.478	253.95
1036.643	126.97
1036.807	-161.79
1036.972	-260.09
1037.137	454.65
1037.301	135.17
1037.466	-376.83
1037.631	-178.17
1037.795	438.27
1037.96	198.65
1038.124	34.82
1038.289	-335.87
1038.454	286.72
1038.618	266.24
1038.783	-241.66
1038.947	-90.11
1039.111	116.73
1039.276	0
1039.44	-223.23
1039.605	161.79
1039.769	49.15
1039.933	94.21
1040.098	-129.02
1040.262	8.19
1040.426	206.84
1040.591	231.42
1040.755	-284.67
1040.919	-204.8
1041.083	129.02
1041.248	116.73
1041.412	-284.67
1041.576	-264.19
1041.74	112.64
1041.904	313.34
1042.068	-284.67
1042.232	-167.93
1042.397	247.8
1042.561	194.56
1042.725	-448.51
1042.889	-6.14
1043.053	182.27
1043.217	237.56
1043.381	-14.34
1043.544	-305.15
1043.708	462.84
1043.872	-90.11
1044.036	-382.97
1044.2	-372.73
1044.364	342.01
1044.528	456.7
1044.691	2570.2
1044.855	-282.62
1045.019	311.29
1045.183	290.81
1045.346	-116.73
1045.51	-303.1
1045.674	245.76
1045.837	301.05
1046.001	-137.21
1046.165	-286.72
1046.328	692.21
1046.492	215.04
1046.655	-30.72
1046.819	-112.64
1046.983	61.44
1047.146	284.67
1047.31	-151.55
1047.473	-389.11
1047.636	192.51
1047.8	2.05
1047.963	-135.17
1048.127	-124.93
1048.29	12.29
