Data from Ink_Intensity_USB4F045381__192__00192.txt Node

Date: Mon Jul 17 11:45:50 EDT 2023
User: mmckonesweet
Spectrometer: USB4F04538
Trigger mode: 4
Integration Time (sec): 9.000000E-1
Scans to average: 1
Electric dark correction enabled: true
Nonlinearity correction enabled: false
Boxcar width: 0
XAxis mode: Wavelengths
Number of Pixels in Spectrum: 3648
>>>>>Begin Spectral Data<<<<<
345.52	-1035.76
345.736	-1035.76
345.952	-1035.76
346.168	-1005.04
346.384	-1039.86
346.6	-183.81
346.816	-286.2
347.032	-169.47
347.248	297.47
347.464	-232.96
347.68	-138.75
347.896	90.62
348.112	373.24
348.328	-91.65
348.544	37.38
348.76	23.04
348.975	281.08
349.191	-241.15
349.407	-241.15
349.623	-19.97
349.839	-1.54
350.055	-226.81
350.27	8.7
350.486	164.35
350.702	274.94
350.918	186.88
351.133	-237.05
351.349	119.29
351.565	274.94
351.781	-271.87
351.996	-108.03
352.212	238.08
352.428	-179.71
352.644	-202.24
352.859	-259.58
353.075	209.4
353.291	12.8
353.506	-110.08
353.722	-261.63
353.938	-65.02
354.153	352.76
354.369	82.43
354.584	-273.92
354.8	299.52
355.016	-376.31
355.231	-230.91
355.447	-54.78
355.662	115.2
355.878	846.32
356.093	-404.99
356.309	-40.45
356.524	-202.24
356.74	270.84
356.955	-189.95
357.171	-67.07
357.386	217.6
357.602	-232.96
357.817	-85.5
358.033	-245.24
358.248	281.08
358.464	205.31
358.679	-192
358.895	-267.77
359.11	-79.36
359.325	279.04
359.541	-44.54
359.756	61.95
359.972	-314.88
360.187	66.05
360.402	-163.33
360.618	-187.9
360.833	922.1
361.048	190.97
361.264	-208.38
361.479	-112.13
361.694	-15.87
361.909	217.6
362.125	-245.24
362.34	-105.98
362.555	231.93
362.77	25.09
362.986	-351.74
363.201	-267.77
363.416	127.49
363.631	-40.45
363.847	-212.48
364.062	-175.61
364.277	168.45
364.492	96.77
364.707	-208.38
364.922	-511.48
365.138	295.42
365.353	295.42
365.568	-280.06
365.783	-175.61
365.998	-13.82
366.213	510.46
366.428	-232.96
366.643	66.05
366.858	143.87
367.073	188.93
367.288	-245.24
367.503	-265.72
367.718	117.25
367.933	313.85
368.148	-347.64
368.363	-103.93
368.578	-56.83
368.793	438.78
369.008	-286.2
369.223	-267.77
369.438	139.77
369.653	375.29
369.868	-288.25
370.083	-278.01
370.298	16.9
370.513	320
370.728	70.14
370.943	-249.34
371.157	-290.3
371.372	526.84
371.587	-353.79
371.802	-300.54
372.017	57.86
372.232	418.3
372.446	-163.33
372.661	-290.3
372.876	195.07
373.091	84.48
373.306	-124.41
373.52	-355.83
373.735	-257.53
373.95	332.28
374.165	-165.37
374.379	-171.52
374.594	-101.89
374.809	78.33
375.023	18.94
375.238	-351.74
375.453	231.93
375.667	-327.16
375.882	-153.09
376.097	-284.16
376.311	33.28
376.526	-48.64
376.741	-298.49
376.955	70.14
377.17	545.27
377.384	602.61
377.599	-19.97
377.813	-278.01
378.028	588.28
378.242	139.77
378.457	-95.74
378.672	-359.93
378.886	6.66
379.101	-46.59
379.315	-407.03
379.53	-185.85
379.744	213.5
379.958	125.44
380.173	-144.89
380.387	-192
380.602	154.11
380.816	-228.86
381.031	-200.19
381.245	-185.85
381.459	143.87
381.674	2757.08
381.888	-314.88
382.103	43.52
382.317	-257.53
382.531	393.72
382.746	-60.93
382.96	-249.34
383.174	-95.74
383.388	461.3
383.603	-3.58
383.817	-275.96
384.031	156.16
384.246	449.02
384.46	-56.83
384.674	233.98
384.888	49.66
385.103	-56.83
385.317	-321.02
385.531	-124.41
385.745	342.52
385.959	266.75
386.174	-253.44
386.388	-200.19
386.602	-50.69
386.816	-151.04
387.03	-196.09
387.244	-122.37
387.458	111.1
387.672	369.15
387.887	-255.48
388.101	-327.16
388.315	363
388.529	147.97
388.743	-245.24
388.957	-292.35
389.171	346.62
389.385	-148.99
389.599	-175.61
389.813	0.51
390.027	143.87
390.241	610.81
390.455	-91.65
390.669	-253.44
390.883	-48.64
391.097	391.67
391.311	-28.16
391.525	-255.48
391.738	190.97
391.952	201.21
392.166	-140.8
392.38	-316.92
392.594	328.19
392.808	254.46
393.022	-202.24
393.236	-220.67
393.449	172.54
393.663	133.63
393.877	-335.35
394.091	-159.23
394.305	-44.54
394.518	-179.71
394.732	-292.35
394.946	-146.94
395.16	395.77
395.373	152.06
395.587	-204.28
395.801	-163.33
396.015	250.36
396.228	195.07
396.442	-261.63
396.656	-390.65
396.869	356.86
397.083	434.68
397.297	-138.75
397.51	-253.44
397.724	371.19
397.938	82.43
398.151	-415.23
398.365	-308.73
398.578	102.91
398.792	305.66
399.005	-67.07
399.219	-192
399.433	129.53
399.646	193.02
399.86	-38.4
400.073	-15.87
400.287	160.25
400.5	8.7
400.714	-103.93
400.927	-73.21
401.141	197.12
401.354	1036.78
401.567	117.25
401.781	-282.11
401.994	215.55
402.208	551.42
402.421	-87.55
402.635	-161.28
402.848	-1.54
403.061	233.98
403.275	-91.65
403.488	-228.86
403.701	442.87
403.915	158.21
404.128	-38.4
404.341	-183.81
404.555	125.44
404.768	-40.45
404.981	-60.93
405.195	-247.29
405.408	532.98
405.621	217.6
405.834	-85.5
406.048	-306.68
406.261	397.82
406.474	420.35
406.687	-265.72
406.9	-87.55
407.114	-46.59
407.327	115.2
407.54	-349.69
407.753	-310.78
407.966	-171.52
408.179	125.44
408.392	-245.24
408.605	-392.7
408.819	207.36
409.032	160.25
409.245	-241.15
409.458	-15.87
409.671	180.73
409.884	315.9
410.097	-282.11
410.31	-36.35
410.523	102.91
410.736	-48.64
410.949	-120.32
411.162	-212.48
411.375	393.72
411.588	201.21
411.801	-30.21
412.014	-208.38
412.227	-1.54
412.44	-75.26
412.653	-228.86
412.865	43.52
413.078	231.93
413.291	207.36
413.504	-110.08
413.717	-220.67
413.93	152.06
414.143	-192
414.356	-220.67
414.568	-382.46
414.781	252.41
414.994	123.39
415.207	-130.56
415.42	-171.52
415.632	207.36
415.845	440.83
416.058	-290.3
416.271	-284.16
416.483	59.9
416.696	526.84
416.909	-202.24
417.121	-241.15
417.334	90.62
417.547	500.22
417.759	-280.06
417.972	-292.35
418.185	-105.98
418.397	188.93
418.61	-273.92
418.823	-185.85
419.035	379.39
419.248	-19.97
419.46	-120.32
419.673	-171.52
419.885	109.05
420.098	-67.07
420.311	-116.22
420.523	-341.5
420.736	225.79
420.948	8.7
421.161	-192
421.373	-300.54
421.586	45.57
421.798	-159.23
422.01	-304.64
422.223	-44.54
422.435	-136.7
422.648	266.75
422.86	-185.85
423.073	-284.16
423.285	295.42
423.497	-325.12
423.71	-269.82
423.922	-218.62
424.134	61.95
424.347	403.96
424.559	-11.78
424.771	125.44
424.984	-36.35
425.196	107.01
425.408	-411.13
425.621	-333.31
425.833	287.23
426.045	336.38
426.257	-335.35
426.47	-136.7
426.682	123.39
426.894	147.97
427.106	-175.61
427.318	-224.76
427.531	-216.57
427.743	238.08
427.955	-196.09
428.167	236.03
428.379	96.77
428.591	-75.26
428.804	-114.17
429.016	-306.68
429.228	0.51
429.44	139.77
429.652	-28.16
429.864	-312.83
430.076	41.47
430.288	-32.26
430.5	-112.13
430.712	-60.93
430.924	168.45
431.136	117.25
431.348	-464.38
431.56	-237.05
431.772	-19.97
431.984	-7.68
432.196	-325.12
432.408	-181.76
432.62	-101.89
432.832	111.1
433.044	78.33
433.256	-126.46
433.468	238.08
433.679	-357.88
433.891	-323.07
434.103	-50.69
434.315	324.09
434.527	82.43
434.739	-181.76
434.95	-273.92
435.162	147.97
435.374	-177.66
435.586	-220.67
435.798	-220.67
436.009	-310.78
436.221	27.14
436.433	-210.43
436.645	-237.05
436.856	4.61
437.068	250.36
437.28	-245.24
437.491	-15.87
437.703	78.33
437.915	35.33
438.126	-192
438.338	20.99
438.55	82.43
438.761	193.02
438.973	-175.61
439.184	-157.18
439.396	-67.07
439.608	184.83
439.819	-327.16
440.031	-105.98
440.242	186.88
440.454	139.77
440.665	-235
440.877	-134.65
441.088	131.58
441.3	-105.98
441.511	-433.66
441.723	-275.96
441.934	172.54
442.146	47.62
442.357	-85.5
442.569	66.05
442.78	4.61
442.991	434.68
443.203	57.86
443.414	-306.68
443.626	289.28
443.837	-185.85
444.048	-380.41
444.26	-415.23
444.471	-5.63
444.682	205.31
444.894	-351.74
445.105	-304.64
445.316	238.08
445.528	84.48
445.739	-15.87
445.95	-95.74
446.161	-11.78
446.373	248.32
446.584	-208.38
446.795	-218.62
447.006	279.04
447.217	438.78
447.429	-318.97
447.64	-298.49
447.851	289.28
448.062	16.9
448.273	-415.23
448.484	-335.35
448.695	162.3
448.907	-77.31
449.118	-157.18
449.329	-71.17
449.54	-99.84
449.751	-196.09
449.962	-249.34
450.173	-237.05
450.384	315.9
450.595	283.13
450.806	-294.4
451.017	-218.62
451.228	254.46
451.439	256.51
451.65	-161.28
451.861	-419.32
452.072	-202.24
452.283	-48.64
452.494	-105.98
452.705	-267.77
452.915	289.28
453.126	84.48
453.337	-253.44
453.548	-325.12
453.759	299.52
453.97	510.46
454.181	-52.74
454.391	-228.86
454.602	174.59
454.813	152.06
455.024	-192
455.235	-261.63
455.445	8.7
455.656	109.05
455.867	-124.41
456.078	-280.06
456.288	-56.83
456.499	45.57
456.71	-249.34
456.921	-62.98
457.131	76.29
457.342	61.95
457.553	-142.85
457.763	-196.09
457.974	186.88
458.184	139.77
458.395	-286.2
458.606	-437.75
458.816	301.56
459.027	485.88
459.237	-93.69
459.448	-425.47
459.659	231.93
459.869	487.93
460.08	-531.96
460.29	-148.99
460.501	438.78
460.711	-101.89
460.922	-259.58
461.132	-316.92
461.343	711.16
461.553	-302.59
461.764	-284.16
461.974	-235
462.184	250.36
462.395	64
462.605	-185.85
462.816	-323.07
463.026	33.28
463.236	354.81
463.447	-361.98
463.657	-243.2
463.867	162.3
464.078	-40.45
464.288	-294.4
464.498	-327.16
464.709	-77.31
464.919	-22.02
465.129	-212.48
465.339	-327.16
465.55	82.43
465.76	199.16
465.97	-208.38
466.18	-294.4
466.391	158.21
466.601	100.86
466.811	-202.24
467.021	-327.16
467.231	98.81
467.441	293.37
467.651	-159.23
467.862	-531.96
468.072	-22.02
468.282	270.84
468.492	-275.96
468.702	-251.39
468.912	14.85
469.122	524.79
469.332	16.9
469.542	-292.35
469.752	172.54
469.962	49.66
470.172	-259.58
470.382	-247.29
470.592	121.34
470.802	297.47
471.012	-60.93
471.222	-179.71
471.432	213.5
471.642	233.98
471.852	-114.17
472.062	-282.11
472.272	-32.26
472.482	-220.67
472.691	-382.46
472.901	-421.37
473.111	0.51
473.321	535.03
473.531	-347.64
473.741	-110.08
473.95	125.44
474.16	174.59
474.37	-175.61
474.58	-423.42
474.79	522.74
474.999	168.45
475.209	-304.64
475.419	-366.07
475.628	-44.54
475.838	260.6
476.048	-220.67
476.258	-380.41
476.467	250.36
476.677	-181.76
476.886	-56.83
477.096	-165.37
477.306	-163.33
477.515	272.89
477.725	-89.6
477.935	-194.05
478.144	313.85
478.354	-110.08
478.563	-251.39
478.773	-300.54
478.982	209.4
479.192	223.74
479.401	-140.8
479.611	-300.54
479.82	-202.24
480.03	16.9
480.239	-339.45
480.449	-421.37
480.658	440.83
480.868	-173.57
481.077	-136.7
481.287	-173.57
481.496	111.1
481.705	324.09
481.915	-3.58
482.124	27.14
482.333	35.33
482.543	283.13
482.752	-194.05
482.961	-290.3
483.171	229.88
483.38	-3.58
483.589	-271.87
483.799	-364.03
484.008	-50.69
484.217	231.93
484.426	-245.24
484.636	-302.59
484.845	61.95
485.054	-245.24
485.263	92.67
485.472	-259.58
485.682	369.15
485.891	41.47
486.1	-413.18
486.309	-245.24
486.518	145.92
486.727	326.14
486.936	-345.59
487.146	-110.08
487.355	422.39
487.564	-200.19
487.773	-284.16
487.982	-273.92
488.191	-140.8
488.4	-19.97
488.609	-253.44
488.818	-216.57
489.027	559.61
489.236	281.08
489.445	-316.92
489.654	-278.01
489.863	328.19
490.072	-46.59
490.281	111.1
490.49	-273.92
490.698	461.3
490.907	324.09
491.116	-259.58
491.325	-447.99
491.534	276.99
491.743	72.19
491.952	-208.38
492.16	-216.57
492.369	80.38
492.578	188.93
492.787	-204.28
492.996	-376.31
493.204	-249.34
493.413	459.26
493.622	-480.76
493.831	-382.46
494.039	315.9
494.248	-249.34
494.457	-347.64
494.665	-380.41
494.874	207.36
495.083	444.92
495.291	-212.48
495.5	-321.02
495.709	252.41
495.917	104.96
496.126	-103.93
496.335	-288.25
496.543	-75.26
496.752	23.04
496.96	-42.5
497.169	-407.03
497.377	-26.11
497.586	334.33
497.794	-110.08
498.003	-413.18
498.211	-3.58
498.42	401.91
498.628	-196.09
498.837	-353.79
499.045	33.28
499.254	76.29
499.462	-237.05
499.671	-314.88
499.879	426.49
500.087	172.54
500.296	-249.34
500.504	-292.35
500.713	125.44
500.921	530.94
501.129	-325.12
501.338	-239.1
501.546	74.24
501.754	98.81
501.962	-202.24
502.171	-337.4
502.379	31.23
502.587	336.38
502.795	-249.34
503.004	-333.31
503.212	-24.06
503.42	236.03
503.628	-259.58
503.837	-73.21
504.045	158.21
504.253	418.3
504.461	-300.54
504.669	-523.77
504.877	233.98
505.085	457.21
505.294	-435.71
505.502	-17.92
505.71	43.52
505.918	172.54
506.126	-323.07
506.334	-343.55
506.542	-93.69
506.75	107.01
506.958	-196.09
507.166	-237.05
507.374	-134.65
507.582	432.63
507.79	-144.89
507.998	-388.6
508.206	94.72
508.414	240.12
508.622	-351.74
508.83	-206.33
509.037	393.72
509.245	-65.02
509.453	-335.35
509.661	-388.6
509.869	213.5
510.077	-32.26
510.285	-161.28
510.492	-562.68
510.7	596.47
510.908	-79.36
511.116	-232.96
511.324	-286.2
511.531	-87.55
511.739	37.38
511.947	-81.41
512.155	-11.78
512.362	66.05
512.57	-308.73
512.778	-357.88
512.985	-527.86
513.193	279.04
513.401	381.43
513.608	-267.77
513.816	-296.44
514.024	131.58
514.231	295.42
514.439	-247.29
514.646	-335.35
514.854	182.78
515.061	360.95
515.269	-286.2
515.477	-269.82
515.684	-216.57
515.892	240.12
516.099	-431.61
516.307	-462.33
516.514	190.97
516.722	377.34
516.929	-261.63
517.136	-343.55
517.344	332.28
517.551	123.39
517.759	-286.2
517.966	-290.3
518.173	-48.64
518.381	-48.64
518.588	-286.2
518.796	-398.84
519.003	201.21
519.21	-11.78
519.418	-284.16
519.625	37.38
519.832	18.94
520.039	90.62
520.247	-419.32
520.454	-298.49
520.661	229.88
520.868	107.01
521.076	-273.92
521.283	-232.96
521.49	571.9
521.697	133.63
521.904	-335.35
522.112	-220.67
522.319	227.84
522.526	205.31
522.733	-339.45
522.94	-359.93
523.147	-58.88
523.354	205.31
523.561	-511.48
523.768	-228.86
523.975	303.61
524.183	16.9
524.39	-179.71
524.597	-439.8
524.804	102.91
525.011	-226.81
525.218	-368.12
525.425	-267.77
525.632	416.25
525.838	-228.86
526.045	-341.5
526.252	-409.08
526.459	1149.42
526.666	774.64
526.873	-398.84
527.08	-343.55
527.287	451.07
527.494	244.22
527.701	-400.89
527.907	-396.79
528.114	104.96
528.321	-95.74
528.528	-216.57
528.735	-288.25
528.941	-155.13
529.148	-194.05
529.355	-155.13
529.562	-251.39
529.768	381.43
529.975	-89.6
530.182	-271.87
530.388	-380.41
530.595	287.23
530.802	-235
531.008	-183.81
531.215	-239.1
531.422	360.95
531.628	797.17
531.835	-284.16
532.042	-177.66
532.248	-175.61
532.455	74.24
532.661	-296.44
532.868	-378.36
533.074	113.15
533.281	276.99
533.487	-265.72
533.694	-351.74
533.9	-235
534.107	156.16
534.313	-368.12
534.52	-384.51
534.726	236.03
534.933	438.78
535.139	-470.52
535.345	-333.31
535.552	104.96
535.758	-77.31
535.965	-269.82
536.171	-306.68
536.377	170.49
536.584	279.04
536.79	-286.2
536.996	-263.68
537.203	45.57
537.409	201.21
537.615	-255.48
537.821	-151.04
538.028	285.18
538.234	162.3
538.44	-296.44
538.646	-245.24
538.853	125.44
539.059	-24.06
539.265	164.35
539.471	-443.9
539.677	289.28
539.883	-56.83
540.09	-267.77
540.296	115.2
540.502	47.62
540.708	-60.93
540.914	-95.74
541.12	-331.26
541.326	174.59
541.532	-11.78
541.738	-273.92
541.944	-210.43
542.15	252.41
542.356	-9.73
542.562	-382.46
542.768	-222.72
542.974	659.96
543.18	494.07
543.386	-378.36
543.592	-456.19
543.798	414.2
544.004	309.76
544.21	-318.97
544.415	-144.89
544.621	127.49
544.827	242.17
545.033	-398.84
545.239	-87.55
545.445	-179.71
545.651	70.14
545.856	-349.69
546.062	-298.49
546.268	-169.47
546.474	-48.64
546.679	-198.14
546.885	-220.67
547.091	-105.98
547.297	532.98
547.502	-235
547.708	-382.46
547.914	-259.58
548.119	219.64
548.325	-390.65
548.531	-384.51
548.736	264.7
548.942	-210.43
549.147	-343.55
549.353	-71.17
549.559	227.84
549.764	111.1
549.97	-288.25
550.175	-245.24
550.381	164.35
550.586	-177.66
550.792	-159.23
550.997	-237.05
551.203	49.66
551.408	115.2
551.614	-372.22
551.819	-253.44
552.025	422.39
552.23	391.67
552.435	-400.89
552.641	-161.28
552.846	-206.33
553.052	256.51
553.257	-122.37
553.462	-331.26
553.668	-155.13
553.873	225.79
554.078	-396.79
554.283	-357.88
554.489	82.43
554.694	-54.78
554.899	-491
555.105	-97.79
555.31	82.43
555.515	133.63
555.72	-204.28
555.925	-376.31
556.131	190.97
556.336	-124.41
556.541	-292.35
556.746	-400.89
556.951	289.28
557.156	377.34
557.361	-155.13
557.567	-194.05
557.772	555.51
557.977	119.29
558.182	-300.54
558.387	-327.16
558.592	-159.23
558.797	410.11
559.002	-275.96
559.207	-218.62
559.412	-30.21
559.617	389.63
559.822	-257.53
560.027	-351.74
560.232	43.52
560.437	193.02
560.642	-327.16
560.847	-323.07
561.051	-11.78
561.256	74.24
561.461	-259.58
561.666	-306.68
561.871	68.09
562.076	190.97
562.281	-222.72
562.485	-433.66
562.69	164.35
562.895	172.54
563.1	-249.34
563.305	-376.31
563.509	297.47
563.714	498.17
563.919	-364.03
564.123	-355.83
564.328	29.18
564.533	324.09
564.737	-183.81
564.942	-288.25
565.147	457.21
565.351	469.5
565.556	-226.81
565.761	-273.92
565.965	170.49
566.17	-214.52
566.374	-355.83
566.579	-429.56
566.784	41.47
566.988	-89.6
567.193	-439.8
567.397	-351.74
567.602	-275.96
567.806	-75.26
568.011	-323.07
568.215	-286.2
568.42	-58.88
568.624	-11.78
568.828	-341.5
569.033	-110.08
569.237	107.01
569.442	168.45
569.646	-390.65
569.85	-310.78
570.055	-60.93
570.259	115.2
570.463	-140.8
570.668	-269.82
570.872	43.52
571.076	25.09
571.281	-200.19
571.485	-194.05
571.689	-15.87
571.893	182.78
572.098	-136.7
572.302	-245.24
572.506	143.87
572.71	10.75
572.914	-265.72
573.119	-232.96
573.323	418.3
573.527	301.56
573.731	-237.05
573.935	-341.5
574.139	90.62
574.343	-77.31
574.547	-290.3
574.751	-226.81
574.955	311.8
575.159	287.23
575.364	-321.02
575.568	-327.16
575.772	-99.84
575.976	233.98
576.18	-249.34
576.383	-464.38
576.587	225.79
576.791	96.77
576.995	-421.37
577.199	-474.62
577.403	240.12
577.607	311.8
577.811	-378.36
578.015	-224.76
578.219	51.71
578.422	168.45
578.626	-222.72
578.83	-175.61
579.034	203.26
579.238	74.24
579.442	-347.64
579.645	129.53
579.849	20.99
580.053	45.57
580.257	-232.96
580.46	-151.04
580.664	205.31
580.868	154.11
581.071	-67.07
581.275	-198.14
581.479	-329.21
581.682	164.35
581.886	-366.07
582.09	-179.71
582.293	156.16
582.497	180.73
582.7	-81.41
582.904	-353.79
583.107	-17.92
583.311	-26.11
583.515	-206.33
583.718	-261.63
583.922	109.05
584.125	381.43
584.329	-425.47
584.532	-122.37
584.735	371.19
584.939	107.01
585.142	-450.04
585.346	-247.29
585.549	154.11
585.753	-118.27
585.956	-241.15
586.159	-218.62
586.363	377.34
586.566	184.83
586.769	-339.45
586.973	-357.88
587.176	141.82
587.379	229.88
587.582	66.05
587.786	-11.78
587.989	29.18
588.192	698.87
588.395	-255.48
588.599	-54.78
588.802	98.81
589.005	205.31
589.208	-259.58
589.411	-273.92
589.615	139.77
589.818	440.83
590.021	27.14
590.224	-175.61
590.427	223.74
590.63	168.45
590.833	-392.7
591.036	-380.41
591.239	-114.17
591.442	-85.5
591.645	-79.36
591.848	-325.12
592.051	76.29
592.254	233.98
592.457	-179.71
592.66	-243.2
592.863	-24.06
593.066	133.63
593.269	-230.91
593.472	-175.61
593.675	-181.76
593.878	264.7
594.081	-75.26
594.284	-261.63
594.486	119.29
594.689	57.86
594.892	-177.66
595.095	-161.28
595.298	158.21
595.5	-97.79
595.703	-251.39
595.906	-114.17
596.109	418.3
596.311	266.75
596.514	-472.57
596.717	-208.38
596.92	274.94
597.122	180.73
597.325	-531.96
597.528	-237.05
597.73	326.14
597.933	66.05
598.136	-306.68
598.338	-456.19
598.541	121.34
598.743	281.08
598.946	-237.05
599.148	-192
599.351	272.89
599.554	236.03
599.756	-79.36
599.959	-232.96
600.161	209.4
600.363	569.85
600.566	-40.45
600.768	-296.44
600.971	387.58
601.173	176.64
601.376	-247.29
601.578	-146.94
601.78	127.49
601.983	614.9
602.185	-282.11
602.388	-28.16
602.59	180.73
602.792	-85.5
602.995	-1.54
603.197	-261.63
603.399	252.41
603.601	176.64
603.804	-253.44
604.006	-245.24
604.208	-73.21
604.41	-349.69
604.613	0.51
604.815	-237.05
605.017	537.08
605.219	-112.13
605.421	109.05
605.623	-157.18
605.826	225.79
606.028	442.87
606.23	-278.01
606.432	-269.82
606.634	420.35
606.836	270.84
607.038	-370.17
607.24	-99.84
607.442	37.38
607.644	121.34
607.846	-144.89
608.048	-294.4
608.25	328.19
608.452	-138.75
608.654	-159.23
608.856	-411.13
609.058	-15.87
609.26	176.64
609.462	-206.33
609.664	-183.81
609.866	512.5
610.067	252.41
610.269	-75.26
610.471	-120.32
610.673	-48.64
610.875	137.73
611.077	-351.74
611.278	-171.52
611.48	39.42
611.682	408.06
611.884	-97.79
612.085	-142.85
612.287	-169.47
612.489	143.87
612.69	-267.77
612.892	-159.23
613.094	252.41
613.295	119.29
613.497	-339.45
613.699	-222.72
613.9	354.81
614.102	211.45
614.304	-200.19
614.505	-378.36
614.707	33.28
614.908	61.95
615.11	-273.92
615.311	-175.61
615.513	197.12
615.714	311.8
615.916	-329.21
616.117	-161.28
616.319	61.95
616.52	209.4
616.722	-237.05
616.923	-181.76
617.124	350.71
617.326	182.78
617.527	-146.94
617.729	25.09
617.93	205.31
618.131	254.46
618.333	-206.33
618.534	-198.14
618.735	-48.64
618.937	301.56
619.138	-259.58
619.339	-278.01
619.54	147.97
619.742	86.53
619.943	-17.92
620.144	-140.8
620.345	299.52
620.546	244.22
620.748	-304.64
620.949	-208.38
621.15	131.58
621.351	121.34
621.552	-243.2
621.753	-349.69
621.954	-263.68
622.155	602.61
622.356	-339.45
622.558	-19.97
622.759	-34.3
622.96	498.17
623.161	-208.38
623.362	-208.38
623.563	121.34
623.764	57.86
623.965	-159.23
624.166	-93.69
624.366	16.9
624.567	84.48
624.768	-452.09
624.969	-275.96
625.17	-7.68
625.371	221.69
625.572	-175.61
625.773	-269.82
625.973	256.51
626.174	246.27
626.375	-130.56
626.576	-48.64
626.777	133.63
626.977	606.71
627.178	-239.1
627.379	-155.13
627.58	-1.54
627.78	98.81
627.981	-124.41
628.182	-103.93
628.382	356.86
628.583	-241.15
628.784	-339.45
628.984	8.7
629.185	213.5
629.386	315.9
629.586	-69.12
629.787	-298.49
629.987	246.27
630.188	8.7
630.388	-192
630.589	-151.04
630.79	698.87
630.99	66.05
631.191	-192
631.391	-153.09
631.591	223.74
631.792	489.98
631.992	-93.69
632.193	-214.52
632.393	377.34
632.594	86.53
632.794	-181.76
632.994	-54.78
633.195	20.99
633.395	139.77
633.595	-200.19
633.796	43.52
633.996	-120.32
634.196	399.87
634.397	-333.31
634.597	-122.37
634.797	-87.55
634.997	475.64
635.198	-24.06
635.398	-343.55
635.598	123.39
635.798	336.38
635.998	213.5
636.199	-247.29
636.399	-103.93
636.599	-202.24
636.799	-218.62
636.999	150.01
637.199	322.04
637.399	373.24
637.599	-192
637.799	-44.54
637.999	20.99
638.199	416.25
638.399	-333.31
638.599	-122.37
638.799	272.89
638.999	549.37
639.199	27.14
639.399	-56.83
639.599	389.63
639.799	-144.89
639.999	-323.07
640.199	-286.2
640.399	139.77
640.599	215.55
640.799	-138.75
640.998	4.61
641.198	414.2
641.398	193.02
641.598	-83.45
641.798	-228.86
641.997	946.67
642.197	-13.82
642.397	-146.94
642.597	-136.7
642.796	209.4
642.996	483.83
643.196	-60.93
643.395	-329.21
643.595	143.87
643.795	-349.69
643.994	-89.6
644.194	-130.56
644.394	283.13
644.593	164.35
644.793	-286.2
644.992	-101.89
645.192	236.03
645.392	-327.16
645.591	35.33
645.791	-134.65
645.99	266.75
646.19	-81.41
646.389	-153.09
646.589	-159.23
646.788	219.64
646.987	240.12
647.187	197.12
647.386	16.9
647.586	72.19
647.785	225.79
647.984	-69.12
648.184	-42.5
648.383	-24.06
648.582	102.91
648.782	-126.46
648.981	-15.87
649.18	-79.36
649.38	188.93
649.579	-212.48
649.778	-249.34
649.977	244.22
650.177	195.07
650.376	-175.61
650.575	-230.91
650.774	485.88
650.973	-93.69
651.173	-316.92
651.372	-128.51
651.571	184.83
651.77	299.52
651.969	-161.28
652.168	-85.5
652.367	-97.79
652.566	61.95
652.765	-155.13
652.964	135.68
653.163	512.5
653.362	147.97
653.561	-112.13
653.76	-124.41
653.959	-54.78
654.158	178.69
654.357	102.91
654.556	-204.28
654.755	182.78
654.954	248.32
655.153	-99.84
655.352	-97.79
655.551	485.88
655.749	-73.21
655.948	-54.78
656.147	-36.35
656.346	117.25
656.545	55.81
656.743	-56.83
656.942	-77.31
657.141	127.49
657.34	-81.41
657.538	-36.35
657.737	-95.74
657.936	55.81
658.135	201.21
658.333	-165.37
658.532	-85.5
658.731	541.18
658.929	317.95
659.128	233.98
659.326	-155.13
659.525	350.71
659.724	190.97
659.922	-376.31
660.121	-278.01
660.319	172.54
660.518	-142.85
660.716	-212.48
660.915	-187.9
661.113	422.39
661.312	-228.86
661.51	-46.59
661.709	-206.33
661.907	307.71
662.105	522.74
662.304	-140.8
662.502	-112.13
662.701	459.26
662.899	14.85
663.097	133.63
663.296	-259.58
663.494	346.62
663.692	580.09
663.891	-142.85
664.089	-169.47
664.287	201.21
664.485	373.24
664.684	-198.14
664.882	-89.6
665.08	152.06
665.278	100.86
665.476	-224.76
665.675	172.54
665.873	567.8
666.071	459.26
666.269	-144.89
666.467	78.33
666.665	139.77
666.863	74.24
667.061	109.05
667.259	-155.13
667.457	84.48
667.655	322.04
667.853	-263.68
668.051	-34.3
668.249	-48.64
668.447	168.45
668.645	-249.34
668.843	59.9
669.041	322.04
669.239	61.95
669.437	14.85
669.635	31.23
669.833	70.14
670.031	338.43
670.229	20.99
670.426	0.51
670.624	35.33
670.822	-114.17
671.02	-105.98
671.218	-3.58
671.415	-42.5
671.613	131.58
671.811	23.04
672.009	-60.93
672.206	254.46
672.404	162.3
672.602	125.44
672.799	-19.97
672.997	174.59
673.195	354.81
673.392	23.04
673.59	-263.68
673.788	401.91
673.985	-378.36
674.183	90.62
674.38	-67.07
674.578	340.47
674.775	-15.87
674.973	-144.89
675.17	-187.9
675.368	481.78
675.565	315.9
675.763	-241.15
675.96	-214.52
676.158	438.78
676.355	164.35
676.553	-153.09
676.75	-89.6
676.947	135.68
677.145	100.86
677.342	49.66
677.539	49.66
677.737	188.93
677.934	610.81
678.131	170.49
678.329	-56.83
678.526	444.92
678.723	252.41
678.92	74.24
679.118	-69.12
679.315	-142.85
679.512	508.41
679.709	-15.87
679.906	25.09
680.104	397.82
680.301	68.09
680.498	-118.27
680.695	-220.67
680.892	-7.68
681.089	29.18
681.286	35.33
681.483	-171.52
681.68	287.23
681.877	356.86
682.075	8.7
682.272	184.83
682.469	367.1
682.665	66.05
682.862	-118.27
683.059	-275.96
683.256	209.4
683.453	215.55
683.65	31.23
683.847	18.94
684.044	100.86
684.241	-144.89
684.438	96.77
684.635	-122.37
684.831	553.46
685.028	664.05
685.225	-122.37
685.422	55.81
685.619	102.91
685.815	193.02
686.012	-5.63
686.209	61.95
686.405	-128.51
686.602	451.07
686.799	-218.62
686.996	-167.42
687.192	-93.69
687.389	608.76
687.586	-93.69
687.782	-9.73
687.979	469.5
688.175	408.06
688.372	-1.54
688.568	-44.54
688.765	37.38
688.962	537.08
689.158	49.66
689.355	-200.19
689.551	408.06
689.748	-77.31
689.944	35.33
690.14	-161.28
690.337	387.58
690.533	90.62
690.73	145.92
690.926	16.9
691.123	363
691.319	164.35
691.515	-108.03
691.712	182.78
691.908	305.66
692.104	184.83
692.301	25.09
692.497	-163.33
692.693	389.63
692.889	385.53
693.086	129.53
693.282	-142.85
693.478	188.93
693.674	565.75
693.87	-22.02
694.067	-140.8
694.263	203.26
694.459	139.77
694.655	94.72
694.851	39.42
695.047	401.91
695.243	371.19
695.439	82.43
695.635	-32.26
695.831	281.08
696.027	246.27
696.224	-132.61
696.42	324.09
696.615	535.03
696.811	371.19
697.007	-124.41
697.203	-28.16
697.399	391.67
697.595	414.2
697.791	-32.26
697.987	143.87
698.183	-3.58
698.379	29.18
698.575	12.8
698.77	25.09
698.966	391.67
699.162	496.12
699.358	-24.06
699.554	14.85
699.749	381.43
699.945	420.35
700.141	109.05
700.337	100.86
700.532	223.74
700.728	-32.26
700.924	-101.89
701.119	-136.7
701.315	322.04
701.511	156.16
701.706	80.38
701.902	-194.05
702.097	201.21
702.293	358.91
702.489	-60.93
702.684	0.51
702.88	193.02
703.075	143.87
703.271	39.42
703.466	-32.26
703.662	170.49
703.857	336.38
704.053	-97.79
704.248	-46.59
704.443	391.67
704.639	377.34
704.834	-9.73
705.03	-79.36
705.225	348.67
705.42	524.79
705.616	90.62
705.811	-144.89
706.006	195.07
706.202	125.44
706.397	-34.3
706.592	-126.46
706.787	213.5
706.983	252.41
707.178	238.08
707.373	66.05
707.568	360.95
707.763	449.02
707.959	-30.21
708.154	-24.06
708.349	211.45
708.544	340.47
708.739	270.84
708.934	-85.5
709.129	451.07
709.324	494.07
709.519	-73.21
709.714	-110.08
709.909	434.68
710.104	285.18
710.299	37.38
710.494	100.86
710.689	442.87
710.884	180.73
711.079	94.72
711.274	276.99
711.469	354.81
711.664	295.42
711.859	-81.41
712.054	137.73
712.249	287.23
712.443	442.87
712.638	-116.22
712.833	-56.83
713.028	221.69
713.223	215.55
713.417	328.19
713.612	-54.78
713.807	403.96
714.002	885.23
714.196	176.64
714.391	-42.5
714.586	418.3
714.78	233.98
714.975	10.75
715.17	76.29
715.364	180.73
715.559	518.65
715.754	-245.24
715.948	-9.73
716.143	782.84
716.337	381.43
716.532	295.42
716.726	-36.35
716.921	463.35
717.115	598.52
717.31	-179.71
717.504	467.45
717.699	100.86
717.893	399.87
718.088	-15.87
718.282	-85.5
718.476	240.12
718.671	291.32
718.865	14.85
719.059	59.9
719.254	264.7
719.448	535.03
719.642	1313.26
719.837	-171.52
720.031	432.63
720.225	438.78
720.419	109.05
720.614	31.23
720.808	477.69
721.002	160.25
721.196	-24.06
721.39	76.29
721.585	657.91
721.779	387.58
721.973	158.21
722.167	-134.65
722.361	383.48
722.555	535.03
722.749	59.9
722.943	70.14
723.137	57.86
723.331	213.5
723.525	76.29
723.719	43.52
723.913	395.77
724.107	647.67
724.301	-83.45
724.495	145.92
724.689	694.77
724.883	635.38
725.077	-3.58
725.271	35.33
725.465	580.09
725.659	246.27
725.853	121.34
726.046	-56.83
726.24	174.59
726.434	428.54
726.628	-38.4
726.822	51.71
727.015	594.42
727.209	600.57
727.403	64
727.596	-75.26
727.79	557.56
727.984	524.79
728.177	51.71
728.371	139.77
728.565	516.6
728.758	29.18
728.952	-32.26
729.146	82.43
729.339	524.79
729.533	276.99
729.726	113.15
729.92	-22.02
730.113	664.05
730.307	338.43
730.5	-32.26
730.694	41.47
730.887	242.17
731.081	422.39
731.274	-71.17
731.468	86.53
731.661	385.53
731.854	207.36
732.048	27.14
732.241	-118.27
732.435	125.44
732.628	328.19
732.821	86.53
733.014	2.56
733.208	33.28
733.401	459.26
733.594	86.53
733.788	117.25
733.981	633.33
734.174	270.84
734.367	16.9
734.56	188.93
734.754	641.53
734.947	246.27
735.14	53.76
735.333	78.33
735.526	444.92
735.719	143.87
735.912	51.71
736.105	-56.83
736.298	322.04
736.491	193.02
736.684	88.57
736.877	16.9
737.07	455.16
737.263	596.47
737.456	72.19
737.649	-116.22
737.842	164.35
738.035	320
738.228	125.44
738.421	143.87
738.614	657.91
738.807	430.59
739	-108.03
739.192	-32.26
739.385	446.97
739.578	451.07
739.771	356.86
739.964	96.77
740.156	414.2
740.349	287.23
740.542	305.66
740.735	-24.06
740.927	102.91
741.12	70.14
741.313	-54.78
741.505	205.31
741.698	332.28
741.891	463.35
742.083	264.7
742.276	125.44
742.468	287.23
742.661	244.22
742.854	88.57
743.046	10.75
743.239	715.25
743.431	207.36
743.624	141.82
743.816	-69.12
744.009	215.55
744.201	446.97
744.393	242.17
744.586	-44.54
744.778	625.14
744.971	352.76
745.163	156.16
745.355	252.41
745.548	225.79
745.74	205.31
745.932	86.53
746.125	-15.87
746.317	897.52
746.509	336.38
746.702	141.82
746.894	182.78
747.086	389.63
747.278	623.09
747.471	295.42
747.663	176.64
747.855	381.43
748.047	725.49
748.239	82.43
748.431	94.72
748.623	641.53
748.815	692.73
749.008	61.95
749.2	57.86
749.392	516.6
749.584	489.98
749.776	98.81
749.968	172.54
750.16	750.07
750.352	293.37
750.544	182.78
750.736	14.85
750.928	551.42
751.12	328.19
751.311	215.55
751.503	133.63
751.695	451.07
751.887	307.71
752.079	-114.17
752.271	74.24
752.463	1135.09
752.654	575.99
752.846	193.02
753.038	125.44
753.23	246.27
753.421	537.08
753.613	197.12
753.805	322.04
753.997	555.51
754.188	598.52
754.38	74.24
754.572	86.53
754.763	236.03
754.955	492.02
755.146	158.21
755.338	217.6
755.53	453.11
755.721	363
755.913	-11.78
756.104	20.99
756.296	336.38
756.487	543.22
756.679	59.9
756.87	57.86
757.062	299.52
757.253	514.55
757.445	43.52
757.636	309.76
757.827	397.82
758.019	979.44
758.21	23.04
758.401	113.15
758.593	815.6
758.784	612.85
758.975	16.9
759.167	20.99
759.358	383.48
759.549	645.62
759.74	47.62
759.932	107.01
760.123	725.49
760.314	293.37
760.505	266.75
760.696	57.86
760.888	739.83
761.079	334.33
761.27	29.18
761.461	-114.17
761.652	735.73
761.843	322.04
762.034	131.58
762.225	426.49
762.416	328.19
762.607	403.96
762.798	104.96
762.989	68.09
763.18	1114.61
763.371	305.66
763.562	197.12
763.753	117.25
763.944	637.43
764.135	641.53
764.326	201.21
764.517	86.53
764.708	473.59
764.899	483.83
765.089	102.91
765.28	-60.93
765.471	451.07
765.662	463.35
765.853	223.74
766.043	-26.11
766.234	584.18
766.425	629.24
766.615	111.1
766.806	90.62
766.997	735.73
767.187	483.83
767.378	127.49
767.569	-79.36
767.759	543.22
767.95	418.3
768.141	254.46
768.331	12.8
768.522	414.2
768.712	655.86
768.903	94.72
769.093	18.94
769.284	872.95
769.474	418.3
769.665	41.47
769.855	-32.26
770.046	514.55
770.236	295.42
770.426	207.36
770.617	41.47
770.807	469.5
770.998	354.81
771.188	297.47
771.378	90.62
771.569	614.9
771.759	655.86
771.949	45.57
772.139	-52.74
772.33	451.07
772.52	813.56
772.71	94.72
772.9	-36.35
773.09	778.74
773.281	774.64
773.471	162.3
773.661	51.71
773.851	702.97
774.041	258.56
774.231	152.06
774.421	281.08
774.611	748.02
774.802	379.39
774.992	172.54
775.182	86.53
775.372	363
775.562	551.42
775.752	119.29
775.942	145.92
776.131	725.49
776.321	578.04
776.511	102.91
776.701	35.33
776.891	635.38
777.081	156.16
777.271	176.64
777.461	133.63
777.651	688.63
777.84	680.44
778.03	297.47
778.22	111.1
778.41	707.06
778.599	227.84
778.789	168.45
778.979	76.29
779.169	567.8
779.358	412.15
779.548	426.49
779.738	47.62
779.927	516.6
780.117	258.56
780.307	227.84
780.496	-54.78
780.686	481.78
780.875	838.13
781.065	156.16
781.254	117.25
781.444	485.88
781.633	504.31
781.823	111.1
782.012	156.16
782.202	262.65
782.391	387.58
782.581	76.29
782.77	336.38
782.96	500.22
783.149	389.63
783.338	107.01
783.528	-28.16
783.717	623.09
783.906	680.44
784.096	276.99
784.285	186.88
784.474	358.91
784.663	256.51
784.853	246.27
785.042	123.39
785.231	315.9
785.42	541.18
785.61	285.18
785.799	74.24
785.988	385.53
786.177	401.91
786.366	141.82
786.555	328.19
786.744	698.87
786.933	367.1
787.122	-7.68
787.312	10.75
787.501	285.18
787.69	602.61
787.879	197.12
788.068	14.85
788.257	107.01
788.445	418.3
788.634	207.36
788.823	-3.58
789.012	1139.18
789.201	760.31
789.39	197.12
789.579	98.81
789.768	406.01
789.957	455.16
790.145	158.21
790.334	-181.76
790.523	358.91
790.712	231.93
790.9	213.5
791.089	-19.97
791.278	608.76
791.467	510.46
791.655	479.74
791.844	625.14
792.033	240.12
792.221	385.53
792.41	291.32
792.599	-56.83
792.787	662.01
792.976	664.05
793.164	59.9
793.353	139.77
793.541	623.09
793.73	520.7
793.918	291.32
794.107	111.1
794.295	393.72
794.484	455.16
794.672	268.8
794.861	207.36
795.049	541.18
795.238	795.12
795.426	-34.3
795.614	205.31
795.803	549.37
795.991	770.55
796.179	170.49
796.368	98.81
796.556	795.12
796.744	135.68
796.932	59.9
797.121	90.62
797.309	461.3
797.497	643.57
797.685	262.65
797.874	164.35
798.062	385.53
798.25	772.6
798.438	150.01
798.626	160.25
798.814	610.81
799.002	971.25
799.19	369.15
799.378	307.71
799.566	723.44
799.755	821.75
799.943	377.34
800.131	55.81
800.318	504.31
800.506	522.74
800.694	139.77
800.882	311.8
801.07	750.07
801.258	354.81
801.446	172.54
801.634	225.79
801.822	463.35
802.01	434.68
802.197	213.5
802.385	360.95
802.573	500.22
802.761	252.41
802.949	231.93
803.136	12.8
803.324	754.16
803.512	526.84
803.699	336.38
803.887	-36.35
804.075	674.29
804.262	473.59
804.45	78.33
804.638	295.42
804.825	283.13
805.013	430.59
805.201	233.98
805.388	98.81
805.576	483.83
805.763	928.24
805.951	231.93
806.138	414.2
806.326	877.04
806.513	635.38
806.701	252.41
806.888	92.67
807.075	561.66
807.263	991.73
807.45	107.01
807.638	350.71
807.825	852.47
808.012	721.4
808.2	336.38
808.387	463.35
808.574	526.84
808.761	770.55
808.949	162.3
809.136	272.89
809.323	446.97
809.51	434.68
809.698	541.18
809.885	422.39
810.072	633.33
810.259	770.55
810.446	260.6
810.633	287.23
810.82	788.98
811.008	795.12
811.195	360.95
811.382	225.79
811.569	459.26
811.756	307.71
811.943	246.27
812.13	227.84
812.317	401.91
812.504	377.34
812.691	317.95
812.878	348.67
813.064	844.28
813.251	575.99
813.438	109.05
813.625	459.26
813.812	430.59
813.999	553.46
814.186	346.62
814.372	242.17
814.559	457.21
814.746	858.61
814.933	281.08
815.12	426.49
815.306	502.26
815.493	330.23
815.68	209.4
815.866	315.9
816.053	768.5
816.24	1077.74
816.426	324.09
816.613	160.25
816.799	745.97
816.986	772.6
817.173	320
817.359	229.88
817.546	612.85
817.732	264.7
817.919	55.81
818.105	377.34
818.292	479.74
818.478	623.09
818.665	373.24
818.851	270.84
819.037	1016.3
819.224	483.83
819.41	150.01
819.597	213.5
819.783	950.77
819.969	653.81
820.156	377.34
820.342	166.4
820.528	1286.64
820.714	453.11
820.901	494.07
821.087	254.46
821.273	954.87
821.459	469.5
821.646	201.21
821.832	240.12
822.018	508.41
822.204	539.13
822.39	254.46
822.576	188.93
822.762	672.25
822.948	686.58
823.134	498.17
823.32	379.39
823.507	322.04
823.693	592.37
823.879	567.8
824.065	242.17
824.25	653.81
824.436	418.3
824.622	309.76
824.808	242.17
824.994	459.26
825.18	258.56
825.366	150.01
825.552	264.7
825.738	512.5
825.923	741.88
826.109	496.12
826.295	242.17
826.481	383.48
826.667	489.98
826.852	492.02
827.038	233.98
827.224	791.03
827.409	1001.97
827.595	143.87
827.781	475.64
827.966	829.94
828.152	772.6
828.338	320
828.523	150.01
828.709	371.19
828.894	870.9
829.08	365.05
829.266	246.27
829.451	420.35
829.637	657.91
829.822	324.09
830.008	322.04
830.193	897.52
830.378	952.82
830.564	330.23
830.749	274.94
830.935	795.12
831.12	721.4
831.305	258.56
831.491	346.62
831.676	289.28
831.861	733.68
832.047	293.37
832.232	213.5
832.417	842.23
832.602	657.91
832.788	338.43
832.973	238.08
833.158	604.66
833.343	639.48
833.528	336.38
833.714	346.62
833.899	770.55
834.084	1024.5
834.269	446.97
834.454	348.67
834.639	862.71
834.824	608.76
835.009	451.07
835.194	571.9
835.379	741.88
835.564	924.15
835.749	516.6
835.934	229.88
836.119	741.88
836.304	522.74
836.489	322.04
836.674	676.34
836.859	377.34
837.044	881.14
837.228	422.39
837.413	229.88
837.598	606.71
837.783	801.27
837.968	248.32
838.152	156.16
838.337	174.59
838.522	754.16
838.707	856.56
838.891	438.78
839.076	725.49
839.261	899.57
839.445	477.69
839.63	582.14
839.815	952.82
839.999	565.75
840.184	340.47
840.368	377.34
840.553	795.12
840.737	846.32
840.922	276.99
841.106	221.69
841.291	352.76
841.475	698.87
841.66	307.71
841.844	377.34
842.029	1317.36
842.213	344.57
842.397	356.86
842.582	190.97
842.766	860.66
842.951	913.91
843.135	338.43
843.319	330.23
843.504	782.84
843.688	831.99
843.872	115.2
844.056	285.18
844.241	774.64
844.425	633.33
844.609	412.15
844.793	156.16
844.977	850.42
845.161	696.82
845.346	289.28
845.53	281.08
845.714	645.62
845.898	979.44
846.082	184.83
846.266	360.95
846.45	610.81
846.634	750.07
846.818	311.8
847.002	516.6
847.186	739.83
847.37	481.78
847.554	313.85
847.738	494.07
847.922	752.12
848.106	610.81
848.29	274.94
848.473	320
848.657	913.91
848.841	553.46
849.025	395.77
849.209	223.74
849.392	709.11
849.576	592.37
849.76	107.01
849.944	535.03
850.127	950.77
850.311	330.23
850.495	227.84
850.678	229.88
850.862	971.25
851.046	934.39
851.229	539.13
851.413	219.64
851.596	582.14
851.78	598.52
851.964	545.27
852.147	414.2
852.331	1380.84
852.514	961.01
852.698	565.75
852.881	176.64
853.065	901.62
853.248	532.98
853.431	575.99
853.615	494.07
853.798	1217.01
853.982	635.38
854.165	492.02
854.348	369.15
854.532	514.55
854.715	508.41
854.898	377.34
855.081	307.71
855.265	985.58
855.448	1153.52
855.631	324.09
855.814	395.77
855.997	874.99
856.181	639.48
856.364	475.64
856.547	262.65
856.73	741.88
856.913	684.53
857.096	274.94
857.279	449.02
857.462	532.98
857.645	848.37
857.828	516.6
858.011	440.83
858.194	541.18
858.377	913.91
858.56	264.7
858.743	426.49
858.926	483.83
859.109	772.6
859.292	336.38
859.475	297.47
859.658	1008.11
859.841	842.23
860.023	287.23
860.206	313.85
860.389	717.3
860.572	995.82
860.755	389.63
860.937	377.34
861.12	700.92
861.303	573.94
861.486	502.26
861.668	311.8
861.851	813.56
862.034	725.49
862.216	526.84
862.399	246.27
862.581	819.7
862.764	967.15
862.947	469.5
863.129	281.08
863.312	444.92
863.494	1049.07
863.677	766.45
863.859	233.98
864.042	819.7
864.224	950.77
864.406	498.17
864.589	221.69
864.771	745.97
864.954	397.82
865.136	395.77
865.318	221.69
865.501	811.51
865.683	223.74
865.865	393.72
866.048	408.06
866.23	700.92
866.412	657.91
866.594	274.94
866.777	471.54
866.959	807.41
867.141	453.11
867.323	653.81
867.505	590.33
867.687	750.07
867.869	696.82
868.052	393.72
868.234	313.85
868.416	623.09
868.598	901.62
868.78	381.43
868.962	238.08
869.144	831.99
869.326	879.09
869.508	338.43
869.69	233.98
869.872	516.6
870.054	909.81
870.236	141.82
870.417	352.76
870.599	559.61
870.781	1112.56
870.963	526.84
871.145	315.9
871.327	414.2
871.508	901.62
871.69	375.29
871.872	440.83
872.054	627.19
872.235	809.46
872.417	410.11
872.599	268.8
872.78	965.11
872.962	719.35
873.144	303.61
873.325	389.63
873.507	1073.65
873.689	772.6
873.87	324.09
874.052	451.07
874.233	559.61
874.415	1010.16
874.596	438.78
874.778	301.56
874.959	688.63
875.141	848.37
875.322	395.77
875.503	352.76
875.685	758.26
875.866	313.85
876.048	258.56
876.229	256.51
876.41	631.29
876.592	709.11
876.773	348.67
876.954	223.74
877.136	922.1
877.317	713.21
877.498	305.66
877.679	395.77
877.86	725.49
878.042	567.8
878.223	346.62
878.404	713.21
878.585	821.75
878.766	1085.94
878.947	657.91
879.128	561.66
879.309	958.96
879.49	874.99
879.672	487.93
879.853	451.07
880.034	377.34
880.215	565.75
880.396	633.33
880.576	463.35
880.757	467.45
880.938	1044.98
881.119	369.15
881.3	373.24
881.481	508.41
881.662	1483.24
881.843	330.23
882.023	262.65
882.204	803.32
882.385	631.29
882.566	451.07
882.747	426.49
882.927	737.78
883.108	711.16
883.289	385.53
883.469	606.71
883.65	621.05
883.831	748.02
884.011	606.71
884.192	422.39
884.373	950.77
884.553	791.03
884.734	569.85
884.914	743.92
885.095	1282.54
885.275	1159.66
885.456	766.45
885.636	320
885.817	643.57
885.997	668.15
886.178	301.56
886.358	504.31
886.538	696.82
886.719	1614.31
886.899	399.87
887.08	559.61
887.26	1008.11
887.44	557.56
887.621	387.58
887.801	647.67
887.981	1274.35
888.161	938.48
888.342	485.88
888.522	530.94
888.702	971.25
888.882	948.72
889.062	655.86
889.242	274.94
889.423	1094.13
889.603	825.84
889.783	551.42
889.963	512.5
890.143	909.81
890.323	1034.74
890.503	459.26
890.683	539.13
890.863	827.89
891.043	913.91
891.223	698.87
891.403	754.16
891.583	797.17
891.763	889.33
891.943	526.84
892.122	481.78
892.302	741.88
892.482	795.12
892.662	700.92
892.842	602.61
893.022	866.8
893.201	655.86
893.381	659.96
893.561	524.79
893.741	1049.07
893.92	866.8
894.1	616.95
894.28	664.05
894.459	948.72
894.639	922.1
894.819	578.04
894.998	707.06
895.178	993.78
895.357	967.15
895.537	612.85
895.716	481.78
895.896	762.36
896.075	1176.05
896.255	578.04
896.434	369.15
896.614	954.87
896.793	1214.96
896.973	721.4
897.152	702.97
897.331	913.91
897.511	1067.5
897.69	467.45
897.87	643.57
898.049	963.06
898.228	852.47
898.407	782.84
898.587	760.31
898.766	688.63
898.945	979.44
899.124	942.58
899.304	619
899.483	918
899.662	1245.68
899.841	561.66
900.02	510.46
900.199	1110.51
900.378	891.38
900.557	567.8
900.737	483.83
900.916	938.48
901.095	1071.6
901.274	915.95
901.453	518.65
901.632	653.81
901.811	684.53
901.989	502.26
902.168	555.51
902.347	1122.8
902.526	680.44
902.705	471.54
902.884	633.33
903.063	1159.66
903.242	1180.14
903.42	487.93
903.599	631.29
903.778	1116.65
903.957	1143.28
904.135	676.34
904.314	756.21
904.493	1067.5
904.672	915.95
904.85	643.57
905.029	520.7
905.207	1008.11
905.386	1614.31
905.565	459.26
905.743	557.56
905.922	766.45
906.1	1044.98
906.279	541.18
906.457	530.94
906.636	690.68
906.814	725.49
906.993	616.95
907.171	643.57
907.35	1016.3
907.528	1085.94
907.707	784.88
907.885	516.6
908.063	1251.82
908.242	690.68
908.42	594.42
908.598	375.29
908.777	991.73
908.955	725.49
909.133	680.44
909.311	483.83
909.49	852.47
909.668	805.36
909.846	580.09
910.024	463.35
910.202	778.74
910.38	989.68
910.559	434.68
910.737	512.5
910.915	1024.5
911.093	862.71
911.271	555.51
911.449	795.12
911.627	977.39
911.805	1438.19
911.983	580.09
912.161	623.09
912.339	981.49
912.517	1137.13
912.695	672.25
912.872	600.57
913.05	535.03
913.228	922.1
913.406	602.61
913.584	598.52
913.762	915.95
913.939	676.34
914.117	508.41
914.295	461.3
914.473	1032.69
914.65	809.46
914.828	590.33
915.006	524.79
915.184	592.37
915.361	1030.64
915.539	682.49
915.716	793.08
915.894	897.52
916.072	1040.88
916.249	791.03
916.427	717.3
916.604	619
916.782	985.58
916.959	520.7
917.137	532.98
917.314	899.57
917.492	973.3
917.669	715.25
917.847	655.86
918.024	897.52
918.201	670.2
918.379	621.05
918.556	655.86
918.733	997.87
918.911	717.3
919.088	831.99
919.265	592.37
919.442	840.18
919.62	797.17
919.797	541.18
919.974	367.1
920.151	840.18
920.328	854.51
920.506	510.46
920.683	725.49
920.86	600.57
921.037	637.43
921.214	711.16
921.391	414.2
921.568	1112.56
921.745	524.79
921.922	541.18
922.099	565.75
922.276	1016.3
922.453	858.61
922.63	549.37
922.807	756.21
922.984	868.85
923.161	569.85
923.338	516.6
923.514	395.77
923.691	788.98
923.868	852.47
924.045	512.5
924.222	451.07
924.399	862.71
924.575	1030.64
924.752	643.57
924.929	639.48
925.105	930.29
925.282	612.85
925.459	584.18
925.635	657.91
925.812	868.85
925.989	528.89
926.165	619
926.342	367.1
926.518	561.66
926.695	791.03
926.871	582.14
927.048	264.7
927.224	1006.06
927.401	623.09
927.577	711.16
927.754	442.87
927.93	1128.94
928.107	983.54
928.283	446.97
928.459	541.18
928.636	844.28
928.812	788.98
928.988	461.3
929.165	299.52
929.341	721.4
929.517	836.08
929.693	852.47
929.87	309.76
930.046	872.95
930.222	641.53
930.398	358.91
930.574	619
930.751	750.07
930.927	496.12
931.103	565.75
931.279	580.09
931.455	530.94
931.631	809.46
931.807	313.85
931.983	344.57
932.159	395.77
932.335	692.73
932.511	514.55
932.687	451.07
932.863	803.32
933.039	717.3
933.215	352.76
933.391	377.34
933.566	578.04
933.742	664.05
933.918	535.03
934.094	287.23
934.27	717.3
934.445	694.77
934.621	530.94
934.797	354.81
934.973	1006.06
935.148	719.35
935.324	315.9
935.5	150.01
935.675	842.23
935.851	786.93
936.027	451.07
936.202	428.54
936.378	764.4
936.553	532.98
936.729	825.84
936.904	266.75
937.08	344.57
937.255	475.64
937.431	303.61
937.606	266.75
937.782	487.93
937.957	557.56
938.133	317.95
938.308	363
938.483	487.93
938.659	281.08
938.834	438.78
939.009	199.16
939.185	381.43
939.36	295.42
939.535	-26.11
939.71	406.01
939.886	811.51
940.061	635.38
940.236	403.96
940.411	311.8
940.586	569.85
940.761	588.28
940.937	281.08
941.112	147.97
941.287	487.93
941.462	508.41
941.637	59.9
941.812	162.3
941.987	500.22
942.162	426.49
942.337	365.05
942.512	250.36
942.687	655.86
942.862	645.62
943.037	76.29
943.212	-30.21
943.386	324.09
943.561	479.74
943.736	313.85
943.911	532.98
944.086	457.21
944.26	514.55
944.435	180.73
944.61	340.47
944.785	741.88
944.959	954.87
945.134	250.36
945.309	160.25
945.483	371.19
945.658	649.72
945.833	-103.93
946.007	76.29
946.182	827.89
946.357	168.45
946.531	203.26
946.706	51.71
946.88	49.66
947.055	461.3
947.229	129.53
947.404	111.1
947.578	610.81
947.752	348.67
947.927	-48.64
948.101	66.05
948.276	408.06
948.45	500.22
948.624	324.09
948.799	152.06
948.973	479.74
949.147	90.62
949.321	203.26
949.496	78.33
949.67	705.01
949.844	305.66
950.018	119.29
950.193	193.02
950.367	911.86
950.541	315.9
950.715	328.19
950.889	305.66
951.063	344.57
951.237	522.74
951.411	-73.21
951.585	-48.64
951.759	614.9
951.933	346.62
952.107	141.82
952.281	326.14
952.455	762.36
952.629	541.18
952.803	-9.73
952.977	98.81
953.151	561.66
953.325	504.31
953.499	332.28
953.672	18.94
953.846	107.01
954.02	320
954.194	117.25
954.368	51.71
954.541	555.51
954.715	254.46
954.889	281.08
955.062	82.43
955.236	453.11
955.41	430.59
955.583	311.8
955.757	-17.92
955.93	385.53
956.104	104.96
956.278	35.33
956.451	248.32
956.625	483.83
956.798	872.95
956.972	442.87
957.145	82.43
957.319	498.17
957.492	379.39
957.665	276.99
957.839	90.62
958.012	500.22
958.185	281.08
958.359	131.58
958.532	270.84
958.705	623.09
958.879	512.5
959.052	332.28
959.225	27.14
959.398	385.53
959.572	459.26
959.745	102.91
959.918	170.49
960.091	238.08
960.264	508.41
960.438	121.34
960.611	61.95
960.784	537.08
960.957	258.56
961.13	463.35
961.303	20.99
961.476	393.72
961.649	553.46
961.822	70.14
961.995	217.6
962.168	623.09
962.341	330.23
962.514	125.44
962.686	98.81
962.859	467.45
963.032	504.31
963.205	125.44
963.378	-32.26
963.551	377.34
963.723	393.72
963.896	264.7
964.069	354.81
964.242	426.49
964.414	580.09
964.587	252.41
964.76	238.08
964.932	418.3
965.105	307.71
965.278	90.62
965.45	102.91
965.623	455.16
965.795	498.17
965.968	143.87
966.14	115.2
966.313	279.04
966.485	397.82
966.658	223.74
966.83	18.94
967.003	653.81
967.175	494.07
967.348	186.88
967.52	217.6
967.692	770.55
967.865	479.74
968.037	133.63
968.209	399.87
968.382	367.1
968.554	602.61
968.726	145.92
968.898	111.1
969.071	449.02
969.243	471.54
969.415	238.08
969.587	238.08
969.759	834.04
969.932	567.8
970.104	156.16
970.276	-120.32
970.448	332.28
970.62	254.46
970.792	313.85
970.964	213.5
971.136	852.47
971.308	489.98
971.48	107.01
971.652	119.29
971.824	797.17
971.996	332.28
972.168	213.5
972.339	92.67
972.511	614.9
972.683	373.24
972.855	365.05
973.027	227.84
973.199	363
973.37	598.52
973.542	295.42
973.714	295.42
973.886	377.34
974.057	582.14
974.229	80.38
974.401	78.33
974.572	211.45
974.744	20.99
974.915	53.76
975.087	158.21
975.259	729.59
975.43	264.7
975.602	186.88
975.773	55.81
975.945	270.84
976.116	600.57
976.288	131.58
976.459	313.85
976.63	209.4
976.802	471.54
976.973	100.86
977.145	307.71
977.316	879.09
977.487	438.78
977.659	238.08
977.83	133.63
978.001	850.42
978.172	440.83
978.344	113.15
978.515	141.82
978.686	299.52
978.857	735.73
979.028	135.68
979.2	14.85
979.371	631.29
979.542	363
979.713	332.28
979.884	-216.57
980.055	320
980.226	344.57
980.397	90.62
980.568	8.7
980.739	563.7
980.91	320
981.081	287.23
981.252	35.33
981.423	444.92
981.594	526.84
981.765	-22.02
981.936	240.12
982.106	467.45
982.277	647.67
982.448	123.39
982.619	229.88
982.79	195.07
982.96	508.41
983.131	207.36
983.302	-58.88
983.472	266.75
983.643	346.62
983.814	238.08
983.984	76.29
984.155	371.19
984.326	631.29
984.496	195.07
984.667	123.39
984.837	205.31
985.008	643.57
985.178	279.04
985.349	158.21
985.519	360.95
985.69	168.45
985.86	109.05
986.031	53.76
986.201	455.16
986.371	500.22
986.542	-19.97
986.712	-89.6
986.882	616.95
987.053	494.07
987.223	-26.11
987.393	260.6
987.563	213.5
987.734	498.17
987.904	428.54
988.074	29.18
988.244	397.82
988.414	299.52
988.585	74.24
988.755	207.36
988.925	254.46
989.095	748.02
989.265	-36.35
989.435	184.83
989.605	463.35
989.775	459.26
989.945	403.96
990.115	6.66
990.285	315.9
990.455	424.44
990.625	211.45
990.795	94.72
990.965	666.1
991.134	184.83
991.304	20.99
991.474	70.14
991.644	410.11
991.814	811.51
991.984	4.61
992.153	70.14
992.323	213.5
992.493	438.78
992.662	-138.75
992.832	174.59
993.002	326.14
993.171	346.62
993.341	-77.31
993.511	207.36
993.68	133.63
993.85	504.31
994.019	-26.11
994.189	-42.5
994.358	363
994.528	188.93
994.697	-101.89
994.867	-15.87
995.036	473.59
995.206	213.5
995.375	-65.02
995.544	205.31
995.714	315.9
995.883	291.32
996.052	213.5
996.222	-120.32
996.391	766.45
996.56	336.38
996.73	-50.69
996.899	-204.28
997.068	698.87
997.237	293.37
997.406	-81.41
997.576	-155.13
997.745	385.53
997.914	311.8
998.083	-175.61
998.252	4.61
998.421	289.28
998.59	217.6
998.759	-146.94
998.928	-194.05
999.097	475.64
999.266	498.17
999.435	102.91
999.604	-267.77
999.773	836.08
999.942	188.93
1000.111	-189.95
1000.28	-204.28
1000.448	109.05
1000.617	16.9
1000.786	100.86
1000.955	-136.7
1001.124	248.32
1001.292	946.67
1001.461	29.18
1001.63	-85.5
1001.798	696.82
1001.967	569.85
1002.136	-157.18
1002.304	-163.33
1002.473	365.05
1002.642	254.46
1002.81	49.66
1002.979	-56.83
1003.147	471.54
1003.316	825.84
1003.484	-44.54
1003.653	-134.65
1003.821	602.61
1003.99	221.69
1004.158	113.15
1004.327	70.14
1004.495	477.69
1004.663	115.2
1004.832	127.49
1005	-163.33
1005.168	410.11
1005.337	397.82
1005.505	-232.96
1005.673	154.11
1005.842	369.15
1006.01	360.95
1006.178	-93.69
1006.346	-91.65
1006.514	336.38
1006.683	567.8
1006.851	-99.84
1007.019	-167.42
1007.187	8.7
1007.355	-179.71
1007.523	-273.92
1007.691	-224.76
1007.859	59.9
1008.027	520.7
1008.195	-15.87
1008.363	-159.23
1008.531	449.02
1008.699	78.33
1008.867	-210.43
1009.035	-114.17
1009.203	594.42
1009.37	324.09
1009.538	-85.5
1009.706	309.76
1009.874	305.66
1010.042	184.83
1010.209	-237.05
1010.377	-122.37
1010.545	434.68
1010.713	207.36
1010.88	-116.22
1011.048	-71.17
1011.216	53.76
1011.383	610.81
1011.551	-89.6
1011.718	-222.72
1011.886	449.02
1012.054	320
1012.221	-151.04
1012.389	-155.13
1012.556	223.74
1012.724	647.67
1012.891	-24.06
1013.058	-269.82
1013.226	354.81
1013.393	381.43
1013.561	-300.54
1013.728	-224.76
1013.895	414.2
1014.063	397.82
1014.23	-208.38
1014.397	-210.43
1014.565	481.78
1014.732	229.88
1014.899	-159.23
1015.066	-171.52
1015.233	217.6
1015.401	403.96
1015.568	-69.12
1015.735	-1.54
1015.902	309.76
1016.069	297.47
1016.236	-48.64
1016.403	-128.51
1016.57	43.52
1016.737	397.82
1016.904	-71.17
1017.071	-202.24
1017.238	94.72
1017.405	444.92
1017.572	-71.17
1017.739	131.58
1017.906	403.96
1018.073	502.26
1018.24	-318.97
1018.407	-13.82
1018.573	520.7
1018.74	221.69
1018.907	-101.89
1019.074	-331.26
1019.241	446.97
1019.407	250.36
1019.574	-245.24
1019.741	-216.57
1019.907	285.18
1020.074	373.24
1020.241	-222.72
1020.407	-192
1020.574	317.95
1020.74	403.96
1020.907	-130.56
1021.073	-134.65
1021.24	735.73
1021.406	606.71
1021.573	-245.24
1021.739	-212.48
1021.906	412.15
1022.072	254.46
1022.239	-134.65
1022.405	-128.51
1022.571	336.38
1022.738	-15.87
1022.904	-265.72
1023.07	-177.66
1023.237	190.97
1023.403	467.45
1023.569	-38.4
1023.735	-126.46
1023.902	250.36
1024.068	301.56
1024.234	-288.25
1024.4	-212.48
1024.566	352.76
1024.732	344.57
1024.898	-140.8
1025.065	-306.68
1025.231	385.53
1025.397	123.39
1025.563	-171.52
1025.729	-216.57
1025.895	-161.28
1026.061	37.38
1026.227	-253.44
1026.392	-75.26
1026.558	434.68
1026.724	354.81
1026.89	-245.24
1027.056	-24.06
1027.222	395.77
1027.388	90.62
1027.553	-208.38
1027.719	-157.18
1027.885	614.9
1028.051	350.71
1028.216	-308.73
1028.382	-28.16
1028.548	444.92
1028.713	104.96
1028.879	-208.38
1029.045	8.7
1029.21	537.08
1029.376	471.54
1029.541	-34.3
1029.707	-171.52
1029.873	336.38
1030.038	446.97
1030.204	-136.7
1030.369	-58.88
1030.534	508.41
1030.7	123.39
1030.865	-85.5
1031.031	-208.38
1031.196	330.23
1031.361	289.28
1031.527	-189.95
1031.692	-208.38
1031.857	-120.32
1032.023	363
1032.188	-298.49
1032.353	-124.41
1032.518	590.33
1032.684	315.9
1032.849	-290.3
1033.014	-179.71
1033.179	410.11
1033.344	399.87
1033.509	-48.64
1033.674	-128.51
1033.839	369.15
1034.004	424.44
1034.17	-126.46
1034.335	-294.4
1034.5	82.43
1034.664	47.62
1034.829	-144.89
1034.994	-118.27
1035.159	356.86
1035.324	289.28
1035.489	-91.65
1035.654	-171.52
1035.819	535.03
1035.984	270.84
1036.148	-220.67
1036.313	-128.51
1036.478	414.2
1036.643	88.57
1036.807	-269.82
1036.972	-206.33
1037.137	532.98
1037.301	238.08
1037.466	-327.16
1037.631	-52.74
1037.795	455.16
1037.96	256.51
1038.124	70.14
1038.289	-265.72
1038.454	354.81
1038.618	340.47
1038.783	-110.08
1038.947	-44.54
1039.111	289.28
1039.276	131.58
1039.44	-192
1039.605	336.38
1039.769	119.29
1039.933	145.92
1040.098	-77.31
1040.262	23.04
1040.426	406.01
1040.591	483.83
1040.755	-196.09
1040.919	-130.56
1041.083	356.86
1041.248	166.4
1041.412	-343.55
1041.576	-235
1041.74	213.5
1041.904	418.3
1042.068	-216.57
1042.232	-75.26
1042.397	426.49
1042.561	338.43
1042.725	-325.12
1042.889	-65.02
1043.053	438.78
1043.217	297.47
1043.381	-60.93
1043.544	-321.02
1043.708	514.55
1043.872	41.47
1044.036	-359.93
1044.2	-323.07
1044.364	530.94
1044.528	590.33
1044.691	3781.06
1044.855	-343.55
1045.019	408.06
1045.183	459.26
1045.346	-7.68
1045.51	-278.01
1045.674	279.04
1045.837	377.34
1046.001	-171.52
1046.165	-228.86
1046.328	805.36
1046.492	373.24
1046.655	37.38
1046.819	-34.3
1046.983	94.72
1047.146	330.23
1047.31	-116.22
1047.473	-327.16
1047.636	201.21
1047.8	-13.82
1047.963	-173.57
1048.127	-181.76
1048.29	18.94
