Data from Ink_Intensity_USB4F045381__128__00128.txt Node

Date: Mon Jul 17 11:18:19 EDT 2023
User: mmckonesweet
Spectrometer: USB4F04538
Trigger mode: 4
Integration Time (sec): 9.000000E-1
Scans to average: 1
Electric dark correction enabled: true
Nonlinearity correction enabled: false
Boxcar width: 0
XAxis mode: Wavelengths
Number of Pixels in Spectrum: 3648
>>>>>Begin Spectral Data<<<<<
345.52	-1047.71
345.736	-1047.71
345.952	-1047.71
346.168	-1045.66
346.384	-982.17
346.6	-99.5
346.816	-246.95
347.032	-222.38
347.248	267.09
347.464	-249
347.68	-117.93
347.896	45.91
348.112	398.16
348.328	-40.11
348.544	-46.25
348.76	4.95
348.975	306
349.191	-218.28
349.407	-189.61
349.623	-62.63
349.839	-158.89
350.055	-105.64
350.27	29.52
350.486	164.69
350.702	281.43
350.918	215.89
351.133	-275.62
351.349	187.22
351.565	322.38
351.781	-246.95
351.996	88.92
352.212	219.99
352.428	-91.31
352.644	-165.03
352.859	-175.27
353.075	297.81
353.291	66.39
353.506	-122.02
353.722	-253.09
353.938	-74.92
354.153	430.93
354.369	121.68
354.584	-191.66
354.8	189.27
355.016	-238.76
355.231	-251.05
355.447	-83.11
355.662	154.45
355.878	817.99
356.093	-335.01
356.309	-29.87
356.524	-249
356.74	256.85
356.955	-201.9
357.171	-93.35
357.386	138.07
357.602	-253.09
357.817	-42.15
358.033	-189.61
358.248	287.57
358.464	191.31
358.679	-177.32
358.895	-265.38
359.11	-17.58
359.325	297.81
359.541	76.63
359.756	11.09
359.972	-312.49
360.187	232.27
360.402	-181.42
360.618	-128.17
360.833	922.44
361.048	136.02
361.264	-222.38
361.479	-74.92
361.694	-83.11
361.909	213.84
362.125	-224.42
362.34	-177.32
362.555	232.27
362.77	80.72
362.986	-292.01
363.201	-175.27
363.416	234.32
363.631	4.95
363.847	-167.08
364.062	-165.03
364.277	240.47
364.492	70.48
364.707	-173.22
364.922	-357.54
365.138	281.43
365.353	340.82
365.568	-214.18
365.783	-124.07
365.998	60.24
366.213	529.23
366.428	-287.91
366.643	115.54
366.858	279.38
367.073	197.46
367.288	-162.98
367.503	-275.62
367.718	25.43
367.933	301.9
368.148	-341.16
368.363	7
368.578	60.24
368.793	461.65
369.008	-136.36
369.223	-330.92
369.438	222.03
369.653	330.58
369.868	-230.57
370.083	-242.85
370.298	115.54
370.513	326.48
370.728	82.77
370.943	-115.88
371.157	-167.08
371.372	439.12
371.587	-236.71
371.802	-218.28
372.017	31.57
372.232	449.36
372.446	-56.49
372.661	-253.09
372.876	156.5
373.091	162.64
373.306	-60.59
373.52	-271.53
373.735	-220.33
373.95	373.58
374.165	-68.78
374.379	-160.94
374.594	-107.69
374.809	95.06
375.023	56.15
375.238	-199.85
375.453	273.23
375.667	-279.72
375.882	-160.94
376.097	-169.13
376.311	37.72
376.526	2.9
376.741	-160.94
376.955	117.59
377.17	582.48
377.384	523.09
377.599	-115.88
377.813	-267.43
378.028	615.24
378.242	144.21
378.457	-185.51
378.672	-337.06
378.886	80.72
379.101	-46.25
379.315	-318.63
379.53	-156.84
379.744	170.83
379.958	183.12
380.173	-191.66
380.387	-281.77
380.602	215.89
380.816	-138.41
381.031	-189.61
381.245	-224.42
381.459	236.37
381.674	2775.85
381.888	-234.66
382.103	45.91
382.317	-152.74
382.531	463.69
382.746	-85.16
382.96	-230.57
383.174	-38.06
383.388	387.92
383.603	50
383.817	-263.33
384.031	113.49
384.246	406.35
384.46	-29.87
384.674	338.77
384.888	23.38
385.103	64.34
385.317	-345.25
385.531	-17.58
385.745	346.96
385.959	318.29
386.174	-265.38
386.388	-341.16
386.602	-21.67
386.816	-152.74
387.03	-62.63
387.244	-21.67
387.458	123.73
387.672	387.92
387.887	-308.39
388.101	-279.72
388.315	379.73
388.529	64.34
388.743	-183.46
388.957	-246.95
389.171	308.05
389.385	-167.08
389.599	-152.74
389.813	68.44
390.027	174.93
390.241	633.68
390.455	-177.32
390.669	-122.02
390.883	-29.87
391.097	340.82
391.311	37.72
391.525	-171.18
391.738	236.37
391.952	236.37
392.166	-132.26
392.38	-238.76
392.594	234.32
392.808	250.71
393.022	-83.11
393.236	-165.03
393.449	256.85
393.663	191.31
393.877	-314.53
394.091	-99.5
394.305	35.67
394.518	-195.75
394.732	-328.87
394.946	-152.74
395.16	330.58
395.373	23.38
395.587	-224.42
395.801	-208.04
396.015	199.51
396.228	197.46
396.442	-367.78
396.656	-378.02
396.869	334.67
397.083	381.78
397.297	-134.31
397.51	-68.78
397.724	426.83
397.938	88.92
398.151	-332.97
398.365	-304.29
398.578	187.22
398.792	387.92
399.005	-46.25
399.219	-193.7
399.433	109.4
399.646	185.17
399.86	7
400.073	74.58
400.287	246.61
400.5	-66.73
400.714	-3.24
400.927	-87.21
401.141	179.03
401.354	1043.27
401.567	152.4
401.781	-238.76
401.994	293.71
402.208	592.72
402.421	-115.88
402.635	-111.78
402.848	-91.31
403.061	365.39
403.275	-62.63
403.488	-306.34
403.701	469.84
403.915	224.08
404.128	-1.19
404.341	-158.89
404.555	136.02
404.768	-48.3
404.981	17.24
405.195	-185.51
405.408	383.82
405.621	174.93
405.834	47.96
406.048	-263.33
406.261	445.26
406.474	435.02
406.687	-189.61
406.9	-13.48
407.114	82.77
407.327	172.88
407.54	-322.73
407.753	-357.54
407.966	-115.88
408.179	258.9
408.392	-234.66
408.605	-433.32
408.819	117.59
409.032	125.78
409.245	-208.04
409.458	60.24
409.671	179.03
409.884	191.31
410.097	-234.66
410.31	-15.53
410.523	211.79
410.736	0.85
410.949	-126.12
411.162	-167.08
411.375	357.2
411.588	308.05
411.801	-38.06
412.014	-277.67
412.227	97.11
412.44	-87.21
412.653	-230.57
412.865	-79.02
413.078	224.08
413.291	179.03
413.504	-136.36
413.717	-246.95
413.93	232.27
414.143	-201.9
414.356	-33.96
414.568	-398.5
414.781	301.9
414.994	52.05
415.207	-19.63
415.42	-103.59
415.632	234.32
415.845	428.88
416.058	-312.49
416.271	-275.62
416.483	37.72
416.696	553.8
416.909	-195.75
417.121	-271.53
417.334	164.69
417.547	451.41
417.759	-232.62
417.972	-203.94
418.185	-95.4
418.397	213.84
418.61	-177.32
418.823	-216.23
419.035	408.4
419.248	35.67
419.46	-158.89
419.673	-169.13
419.885	146.26
420.098	68.44
420.311	-208.04
420.523	-355.49
420.736	174.93
420.948	82.77
421.161	-130.22
421.373	-349.35
421.586	99.16
421.798	-173.22
422.01	-332.97
422.223	-124.07
422.435	-173.22
422.648	269.14
422.86	-255.14
423.073	-181.42
423.285	332.62
423.497	-234.66
423.71	-287.91
423.922	-357.54
424.134	109.4
424.347	453.45
424.559	-64.68
424.771	86.87
424.984	-13.48
425.196	123.73
425.408	-425.12
425.621	-337.06
425.833	275.28
426.045	353.1
426.257	-289.96
426.47	-218.28
426.682	93.01
426.894	166.74
427.106	-156.84
427.318	-122.02
427.531	-76.97
427.743	277.33
427.955	-214.18
428.167	256.85
428.379	242.51
428.591	-46.25
428.804	-119.98
429.016	-269.48
429.228	29.52
429.44	207.7
429.652	-9.39
429.864	-330.92
430.076	0.85
430.288	-62.63
430.5	-154.79
430.712	-99.5
430.924	267.09
431.136	144.21
431.348	-418.98
431.56	-212.14
431.772	27.48
431.984	-58.54
432.196	-210.09
432.408	-214.18
432.62	-33.96
432.832	136.02
433.044	-3.24
433.256	-66.73
433.468	160.59
433.679	-298.15
433.891	-371.88
434.103	-70.83
434.315	338.77
434.527	152.4
434.739	-93.35
434.95	-158.89
435.162	207.7
435.374	-58.54
435.586	-193.7
435.798	-222.38
436.009	-224.42
436.221	-117.93
436.433	-171.18
436.645	-203.94
436.856	-109.74
437.068	349.01
437.28	-208.04
437.491	140.12
437.703	119.64
437.915	158.55
438.126	-236.71
438.338	64.34
438.55	88.92
438.761	136.02
438.973	-218.28
439.184	-210.09
439.396	45.91
439.608	166.74
439.819	-312.49
440.031	-74.92
440.242	295.76
440.454	197.46
440.665	-226.47
440.877	-74.92
441.088	103.25
441.3	-76.97
441.511	-378.02
441.723	-199.85
441.934	113.49
442.146	-29.87
442.357	-33.96
442.569	154.45
442.78	56.15
442.991	439.12
443.203	246.61
443.414	-189.61
443.626	320.34
443.837	-234.66
444.048	-224.42
444.26	-400.55
444.471	84.82
444.682	279.38
444.894	-361.64
445.105	-367.78
445.316	236.37
445.528	191.31
445.739	-107.69
445.95	-144.55
446.161	142.16
446.373	250.71
446.584	-165.03
446.795	-162.98
447.006	154.45
447.217	420.69
447.429	-337.06
447.64	-289.96
447.851	365.39
448.062	-1.19
448.273	-431.27
448.484	-220.33
448.695	187.22
448.907	-9.39
449.118	-72.87
449.329	47.96
449.54	-83.11
449.751	-167.08
449.962	-226.47
450.173	-232.62
450.384	314.19
450.595	349.01
450.806	-177.32
451.017	-136.36
451.228	469.84
451.439	232.27
451.65	-220.33
451.861	-445.6
452.072	-193.7
452.283	-7.34
452.494	31.57
452.705	-283.81
452.915	420.69
453.126	133.97
453.337	-119.98
453.548	-165.03
453.759	394.06
453.97	551.76
454.181	21.33
454.391	-124.07
454.602	93.01
454.813	203.6
455.024	-107.69
455.235	-255.14
455.445	179.03
455.656	138.07
455.867	-19.63
456.078	-273.57
456.288	21.33
456.499	127.83
456.71	-218.28
456.921	-1.19
457.131	158.55
457.342	185.17
457.553	-76.97
457.763	-210.09
457.974	181.07
458.184	242.51
458.395	-226.47
458.606	-304.29
458.816	330.58
459.027	449.36
459.237	54.1
459.448	-322.73
459.659	379.73
459.869	633.68
460.08	-406.69
460.29	-89.26
460.501	457.55
460.711	-11.43
460.922	-375.97
461.132	-218.28
461.343	682.83
461.553	-236.71
461.764	-228.52
461.974	-160.94
462.184	244.56
462.395	195.41
462.605	-177.32
462.816	-328.87
463.026	84.82
463.236	373.58
463.447	-197.8
463.657	-201.9
463.867	273.23
464.078	-52.39
464.288	-185.51
464.498	-152.74
464.709	78.68
464.919	47.96
465.129	-111.78
465.339	-279.72
465.55	125.78
465.76	256.85
465.97	-99.5
466.18	-195.75
466.391	219.99
466.601	183.12
466.811	-140.46
467.021	-308.39
467.231	146.26
467.441	330.58
467.651	-167.08
467.862	-447.65
468.072	97.11
468.282	389.97
468.492	-275.62
468.702	-31.91
468.912	-19.63
469.122	662.35
469.332	131.92
469.542	-234.66
469.752	232.27
469.962	-7.34
470.172	-265.38
470.382	-279.72
470.592	322.38
470.802	363.34
471.012	-97.45
471.222	-191.66
471.432	195.41
471.642	242.51
471.852	-150.7
472.062	-257.19
472.272	37.72
472.482	-167.08
472.691	-279.72
472.901	-312.49
473.111	156.5
473.321	602.96
473.531	-255.14
473.741	-25.77
473.95	197.46
474.16	299.86
474.37	-42.15
474.58	-324.77
474.79	549.71
474.999	258.9
475.209	-199.85
475.419	-183.46
475.628	52.05
475.838	416.59
476.048	-128.17
476.258	-292.01
476.467	404.3
476.677	-76.97
476.886	25.43
477.096	-54.44
477.306	-85.16
477.515	383.82
477.725	-70.83
477.935	35.67
478.144	306
478.354	37.72
478.563	-56.49
478.773	-156.84
478.982	312.14
479.192	435.02
479.401	-13.48
479.611	-240.81
479.82	2.9
480.03	191.31
480.239	-185.51
480.449	-281.77
480.658	461.65
480.868	31.57
481.077	-38.06
481.287	-115.88
481.496	248.66
481.705	486.22
481.915	47.96
482.124	213.84
482.333	109.4
482.543	568.14
482.752	-33.96
482.961	-74.92
483.171	338.77
483.38	121.68
483.589	-76.97
483.799	-185.51
484.008	45.91
484.217	330.58
484.426	-48.3
484.636	-242.85
484.845	203.6
485.054	-201.9
485.263	174.93
485.472	-81.07
485.682	451.41
485.891	236.37
486.1	-191.66
486.309	-81.07
486.518	316.24
486.727	496.46
486.936	-191.66
487.146	86.87
487.355	557.9
487.564	-33.96
487.773	-144.55
487.982	13.14
488.191	52.05
488.4	154.45
488.609	-52.39
488.818	-56.49
489.027	721.74
489.236	527.18
489.445	-29.87
489.654	-1.19
489.863	473.93
490.072	224.08
490.281	275.28
490.49	-42.15
490.698	584.52
490.907	621.39
491.116	19.29
491.325	-124.07
491.534	539.47
491.743	254.8
491.952	125.78
492.16	23.38
492.369	371.54
492.578	412.5
492.787	-1.19
492.996	-154.79
493.204	80.72
493.413	656.2
493.622	-230.57
493.831	-265.38
494.039	635.72
494.248	39.76
494.457	-70.83
494.665	-165.03
494.874	418.64
495.083	744.27
495.291	-17.58
495.5	-15.53
495.709	535.37
495.917	283.47
496.126	76.63
496.335	-83.11
496.543	174.93
496.752	332.62
496.96	215.89
497.169	-263.33
497.377	207.7
497.586	486.22
497.794	158.55
498.003	-249
498.211	252.75
498.42	688.97
498.628	90.96
498.837	-40.11
499.045	377.68
499.254	283.47
499.462	41.81
499.671	-54.44
499.879	752.46
500.087	461.65
500.296	-17.58
500.504	76.63
500.713	359.25
500.921	910.15
501.129	27.48
501.338	17.24
501.546	430.93
501.754	316.24
501.962	158.55
502.171	-54.44
502.379	535.37
502.587	736.07
502.795	136.02
503.004	50
503.212	332.62
503.42	633.68
503.628	111.44
503.837	238.42
504.045	568.14
504.253	809.8
504.461	2.9
504.669	-171.18
504.877	482.13
505.085	723.79
505.294	-79.02
505.502	262.99
505.71	437.07
505.918	602.96
506.126	146.26
506.334	-3.24
506.542	314.19
506.75	365.39
506.958	244.56
507.166	133.97
507.374	228.18
507.582	830.28
507.79	205.65
507.998	43.86
508.206	435.02
508.414	430.93
508.622	47.96
508.83	140.12
509.037	668.49
509.245	330.58
509.453	7
509.661	31.57
509.869	529.23
510.077	355.15
510.285	273.23
510.492	-152.74
510.7	936.78
510.908	359.25
511.116	86.87
511.324	117.59
511.531	322.38
511.739	385.87
511.947	326.48
512.155	414.54
512.362	457.55
512.57	209.75
512.778	121.68
512.985	-29.87
513.193	676.68
513.401	791.37
513.608	250.71
513.816	199.51
514.024	656.2
514.231	731.98
514.439	133.97
514.646	240.47
514.854	707.4
515.061	781.13
515.269	125.78
515.477	248.66
515.684	306
515.892	688.97
516.099	125.78
516.307	-9.39
516.514	686.92
516.722	920.39
516.929	228.18
517.136	129.88
517.344	797.51
517.551	598.86
517.759	203.6
517.966	211.79
518.173	381.78
518.381	416.59
518.588	349.01
518.796	160.59
519.003	676.68
519.21	422.73
519.418	93.01
519.625	490.32
519.832	473.93
520.039	602.96
520.247	-3.24
520.454	189.27
520.661	660.3
520.868	670.54
521.076	273.23
521.283	332.62
521.49	1092.42
521.697	660.3
521.904	320.34
522.112	277.33
522.319	787.27
522.526	727.88
522.733	131.92
522.94	113.49
523.147	545.61
523.354	774.99
523.561	123.73
523.768	381.78
523.975	734.03
524.183	559.95
524.39	414.54
524.597	93.01
524.804	613.2
525.011	432.97
525.218	281.43
525.425	394.06
525.632	969.54
525.838	277.33
526.045	301.9
526.252	181.07
526.459	1866.55
526.666	1471.29
526.873	262.99
527.08	316.24
527.287	981.83
527.494	848.71
527.701	207.7
527.907	308.05
528.114	727.88
528.321	619.34
528.528	471.89
528.735	262.99
528.941	510.8
529.148	568.14
529.355	480.08
529.562	299.86
529.768	1088.32
529.975	625.48
530.182	330.58
530.388	310.1
530.595	924.49
530.802	389.97
531.008	625.48
531.215	420.69
531.422	1094.47
531.628	1524.54
531.835	482.13
532.042	502.61
532.248	576.33
532.455	772.94
532.661	475.98
532.868	465.74
533.074	830.28
533.281	926.54
533.487	594.76
533.694	351.06
533.9	527.18
534.107	961.35
534.313	363.34
534.52	318.29
534.726	840.52
534.933	1147.72
535.139	371.54
535.345	398.16
535.552	832.33
535.758	774.99
535.965	654.16
536.171	463.69
536.377	942.92
536.584	1190.72
536.79	551.76
536.996	594.76
537.203	910.15
537.409	908.1
537.615	547.66
537.821	793.42
538.028	1078.08
538.234	1020.74
538.44	547.66
538.646	580.43
538.853	1137.48
539.059	781.13
539.265	969.54
539.471	254.8
539.677	1049.41
539.883	756.55
540.09	293.71
540.296	926.54
540.502	801.61
540.708	801.61
540.914	838.47
541.12	619.34
541.326	1059.65
541.532	901.96
541.738	594.76
541.944	678.73
542.15	1119.04
542.356	895.82
542.562	553.8
542.768	609.1
542.974	1600.32
543.18	1397.57
543.386	570.19
543.592	420.69
543.798	1203.01
544.004	1268.55
544.21	555.85
544.415	676.68
544.621	1078.08
544.827	1135.43
545.033	506.7
545.239	1030.98
545.445	623.44
545.651	1125.19
545.856	670.54
546.062	709.45
546.268	869.19
546.474	981.83
546.679	660.3
546.885	777.03
547.091	781.13
547.297	1477.44
547.502	764.75
547.708	576.33
547.914	793.42
548.119	1235.78
548.325	731.98
548.531	633.68
548.736	1375.04
548.942	838.47
549.147	717.64
549.353	1053.51
549.559	1442.62
549.764	1162.05
549.97	756.55
550.175	707.4
550.381	1211.2
550.586	971.59
550.792	805.71
550.997	717.64
551.203	1243.97
551.408	1317.7
551.614	658.25
551.819	723.79
552.025	1497.92
552.23	1639.23
552.435	781.13
552.641	1002.31
552.846	863.05
553.052	1403.71
553.257	992.07
553.462	871.24
553.668	904.01
553.873	1313.6
554.078	727.88
554.283	826.18
554.489	1182.53
554.694	1289.03
554.899	828.23
555.105	977.73
555.31	1254.21
555.515	1473.34
555.72	1047.37
555.925	879.43
556.131	1375.04
556.336	1129.28
556.541	838.47
556.746	834.38
556.951	1442.62
557.156	1528.64
557.361	1035.08
557.567	1180.48
557.772	1667.9
557.977	1393.47
558.182	985.93
558.387	924.49
558.592	1125.19
558.797	1534.78
559.002	1094.47
559.207	1248.07
559.412	1299.27
559.617	1725.24
559.822	922.44
560.027	953.16
560.232	1370.94
560.437	1542.97
560.642	834.38
560.847	963.4
561.051	1305.41
561.256	1405.76
561.461	1061.7
561.666	912.2
561.871	1366.85
562.076	1536.83
562.281	1092.42
562.485	910.15
562.69	1577.79
562.895	1624.89
563.1	1073.99
563.305	1004.36
563.509	1616.7
563.714	1971
563.919	1139.52
564.123	1162.05
564.328	1364.8
564.533	1620.8
564.737	1141.57
564.942	1092.42
565.147	1807.16
565.351	1917.75
565.556	1241.92
565.761	1225.54
565.965	1502.01
566.17	1225.54
566.374	1104.71
566.579	967.49
566.784	1522.49
566.988	1299.27
567.193	971.59
567.397	1162.05
567.602	1174.34
567.806	1325.89
568.011	1155.91
568.215	1319.75
568.42	1381.18
568.624	1452.86
568.828	1133.38
569.033	1450.82
569.237	1690.43
569.442	1624.89
569.646	992.07
569.85	1274.69
570.055	1487.68
570.259	1712.96
570.463	1483.58
570.668	1319.75
570.872	1518.4
571.076	1514.3
571.281	1329.99
571.485	1409.86
571.689	1530.69
571.893	1665.85
572.098	1393.47
572.302	1366.85
572.506	1698.62
572.71	1633.08
572.914	1284.93
573.119	1385.28
573.323	2014.01
573.527	1932.09
573.731	1375.04
573.935	1274.69
574.139	1710.91
574.343	1446.72
574.547	1344.32
574.751	1352.51
574.955	1942.33
575.159	1989.43
575.364	1362.75
575.568	1284.93
575.772	1682.24
575.976	1903.42
576.18	1317.7
576.383	1241.92
576.587	1927.99
576.791	1874.74
576.995	1329.99
577.199	1223.49
577.403	1950.52
577.607	2059.06
577.811	1317.7
578.015	1555.26
578.219	1823.55
578.422	1956.66
578.626	1651.52
578.83	1653.56
579.034	2001.72
579.238	1903.42
579.442	1475.39
579.645	1958.71
579.849	1821.5
580.053	1817.4
580.257	1538.88
580.46	1639.23
580.664	1950.52
580.868	2061.11
581.071	1833.79
581.275	1588.03
581.479	1567.55
581.682	2087.73
581.886	1563.45
582.09	1723.2
582.293	2009.91
582.497	2077.49
582.7	1874.74
582.904	1610.56
583.107	1907.51
583.311	1788.73
583.515	1690.43
583.718	1676.09
583.922	2104.12
584.125	2339.63
584.329	1614.65
584.532	1764.15
584.735	2284.34
584.939	2136.88
585.142	1542.97
585.346	1624.89
585.549	2042.68
585.753	1889.08
585.956	1770.3
586.159	1899.32
586.363	2571.05
586.566	2026.29
586.769	1567.55
586.973	1680.19
587.176	2157.36
587.379	2405.17
587.582	2151.22
587.786	1987.38
587.989	2083.64
588.192	2554.67
588.395	1868.6
588.599	2034.49
588.802	2190.13
589.005	2216.76
589.208	1792.83
589.411	1821.5
589.615	2339.63
589.818	2642.73
590.021	2134.84
590.224	1954.62
590.427	2390.83
590.63	2306.87
590.833	1786.68
591.036	1942.33
591.239	2145.08
591.442	2069.3
591.645	2128.69
591.848	1932.09
592.051	2292.53
592.254	2452.27
592.457	1962.81
592.66	2122.55
592.863	2231.09
593.066	2337.59
593.269	2079.54
593.472	2034.49
593.675	2128.69
593.878	2444.08
594.081	2118.45
594.284	1995.57
594.486	2616.11
594.689	2396.98
594.892	2124.6
595.095	2075.45
595.298	2405.17
595.5	2317.11
595.703	2210.61
595.906	2112.31
596.109	2603.82
596.311	2616.11
596.514	1874.74
596.717	2253.62
596.92	2726.7
597.122	2560.81
597.325	1870.65
597.528	2057.01
597.73	2786.09
597.933	2536.24
598.136	2136.88
598.338	1981.24
598.541	2601.77
598.743	2747.18
598.946	2194.23
599.148	2085.69
599.351	2788.14
599.554	2736.94
599.756	2319.15
599.959	2206.52
600.161	2755.37
600.363	3119.91
600.566	2489.14
600.768	2239.28
600.971	3070.76
601.173	2757.42
601.376	2399.02
601.578	2317.11
601.78	2681.64
601.983	3214.12
602.185	2313.01
602.388	2380.59
602.59	2605.87
602.792	2407.22
602.995	2573.1
603.197	2444.08
603.399	2829.1
603.601	2777.9
603.804	2474.8
604.006	2220.85
604.208	2659.12
604.41	2253.62
604.613	2497.33
604.815	2468.66
605.017	3273.51
605.219	2665.26
605.421	2773.8
605.623	2458.42
605.826	2980.65
606.028	3267.36
606.23	2405.17
606.432	2513.71
606.634	2939.69
606.836	3037.99
607.038	2485.04
607.24	2738.99
607.442	2790.19
607.644	2855.72
607.846	2722.6
608.048	2421.55
608.25	3011.37
608.452	2720.56
608.654	2519.85
608.856	2274.1
609.058	2857.77
609.26	2939.69
609.462	2763.56
609.664	2609.97
609.866	3205.92
610.067	3085.09
610.269	2814.76
610.471	2667.31
610.673	2960.17
610.875	3093.29
611.077	2407.22
611.278	2718.51
611.48	2749.23
611.682	3351.33
611.884	2773.8
612.085	2751.28
612.287	2646.83
612.489	3044.13
612.69	2456.37
612.892	2812.71
613.094	3308.32
613.295	3109.67
613.497	2521.9
613.699	2681.64
613.9	3222.31
614.102	3156.77
614.304	2814.76
614.505	2542.38
614.707	2982.7
614.908	3027.75
615.11	2521.9
615.311	2747.18
615.513	3226.4
615.714	3271.46
615.916	2556.72
616.117	2814.76
616.319	3164.97
616.52	3316.51
616.722	2681.64
616.923	2954.02
617.124	3412.77
617.326	3291.94
617.527	2872.11
617.729	3052.33
617.93	3392.29
618.131	3228.45
618.333	2812.71
618.534	3009.32
618.735	3023.66
618.937	3480.35
619.138	2716.46
619.339	2911.02
619.54	3296.04
619.742	3132.2
619.943	3042.09
620.144	3025.7
620.345	3347.23
620.546	3437.34
620.748	2853.67
620.949	3037.99
621.15	3216.16
621.351	3326.75
621.552	2988.84
621.753	2761.52
621.954	3074.85
622.155	3773.21
622.356	2951.98
622.558	3267.36
622.759	3185.44
622.96	3648.29
623.161	3158.82
623.362	2974.5
623.563	3316.51
623.764	3267.36
623.965	3066.66
624.166	3218.21
624.366	3259.17
624.567	3351.33
624.768	2781.99
624.969	3171.11
625.17	3296.04
625.371	3484.45
625.572	3283.75
625.773	3083.05
625.973	3615.52
626.174	3521.31
626.375	3279.65
626.576	3240.74
626.777	3519.26
626.977	4018.97
627.178	3128.1
627.379	3183.4
627.58	3318.56
627.78	3533.6
627.981	3257.12
628.182	3390.24
628.382	3875.61
628.583	3205.92
628.784	3132.2
628.984	3410.72
629.185	3760.92
629.386	3709.72
629.586	3365.67
629.787	3238.69
629.987	3742.49
630.188	3488.54
630.388	3283.75
630.589	3443.49
630.79	4262.68
630.99	3658.53
631.191	3517.22
631.391	3341.09
631.591	3896.09
631.792	3955.48
631.992	3459.87
632.193	3349.28
632.393	4078.36
632.594	3517.22
632.794	3453.73
632.994	3418.91
633.195	3715.87
633.395	3722.01
633.595	3296.04
633.796	3738.4
633.996	3545.89
634.196	4066.07
634.397	3296.04
634.597	3619.61
634.797	3636
634.997	4217.62
635.198	3746.59
635.398	3416.87
635.598	3728.16
635.798	4150.04
635.998	3988.25
636.199	3384.1
636.399	3660.57
636.599	3435.3
636.799	3523.36
636.999	3984.15
637.199	4004.63
637.399	4131.61
637.599	3578.65
637.799	3742.49
637.999	3773.21
638.199	4295.44
638.399	3607.33
638.599	3562.27
638.799	3963.67
638.999	4358.93
639.199	3805.98
639.399	3810.08
639.599	4367.12
639.799	3767.07
639.999	3648.29
640.199	3582.75
640.399	3879.71
640.599	3883.8
640.799	3805.98
640.998	3930.91
641.198	4236.05
641.398	4012.82
641.598	3935
641.798	3840.79
641.997	4952.84
642.197	3978.01
642.397	3980.06
642.597	3863.32
642.796	4293.4
642.996	4348.69
643.196	3830.55
643.395	3808.03
643.595	4324.12
643.795	3625.76
643.994	3824.41
644.194	3904.28
644.394	4098.84
644.593	4225.81
644.793	3758.88
644.992	3978.01
645.192	4281.11
645.392	3756.83
645.591	4043.54
645.791	3986.2
645.99	4320.02
646.19	4107.03
646.389	4215.57
646.589	3992.34
646.788	4522.77
646.987	4397.84
647.187	4301.59
647.386	4283.16
647.586	4250.39
647.785	4608.78
647.984	4074.26
648.184	4186.9
648.383	4160.28
648.582	4287.25
648.782	4094.74
648.981	4041.5
649.18	4188.95
649.38	4299.54
649.579	4068.12
649.778	4049.69
649.977	4627.21
650.177	4512.53
650.376	4127.51
650.575	4123.41
650.774	4858.64
650.973	4367.12
651.173	4051.74
651.372	4246.29
651.571	4449.04
651.77	4754.19
651.969	4127.51
652.168	4227.86
652.367	4041.5
652.566	4541.2
652.765	4305.68
652.964	4567.82
653.163	4977.42
653.362	4451.09
653.561	4274.96
653.76	4191
653.959	4459.28
654.158	4895.5
654.357	4606.74
654.556	4387.6
654.755	4639.5
654.954	4715.28
655.153	4285.2
655.352	4377.36
655.551	4999.95
655.749	4467.47
655.948	4399.89
656.147	4403.99
656.346	4690.7
656.545	4637.45
656.743	4238.1
656.942	4418.32
657.141	4721.42
657.34	4598.54
657.538	4434.71
657.737	4555.54
657.936	4614.93
658.135	4862.73
658.333	4598.54
658.532	4533.01
658.731	5247.75
658.929	5077.77
659.128	4879.11
659.326	4387.6
659.525	5030.66
659.724	4713.23
659.922	4340.5
660.121	4401.94
660.319	4954.89
660.518	4809.48
660.716	4365.07
660.915	4502.29
661.113	5245.7
661.312	4428.56
661.51	4791.05
661.709	4602.64
661.907	4875.02
662.105	5192.45
662.304	4702.99
662.502	4582.16
662.701	5167.88
662.899	4840.2
663.097	5030.66
663.296	4754.19
663.494	5362.44
663.692	5372.68
663.891	4582.16
664.089	4662.03
664.287	5081.86
664.485	5450.5
664.684	4672.27
664.882	4758.28
665.08	5032.71
665.278	4942.6
665.476	4590.35
665.675	5192.45
665.873	5491.46
666.071	5233.41
666.269	4778.76
666.467	4958.99
666.665	5028.62
666.863	5032.71
667.061	5063.43
667.259	4746
667.457	4954.89
667.655	5221.13
667.853	4596.5
668.051	4934.41
668.249	4782.86
668.447	5255.94
668.645	4872.97
668.843	5053.19
669.041	5251.85
669.239	5124.87
669.437	5147.4
669.635	5126.92
669.833	5077.77
670.031	5442.31
670.229	5118.73
670.426	5077.77
670.624	5206.79
670.822	5139.21
671.02	4807.44
671.218	5116.68
671.415	4965.13
671.613	5305.09
671.811	5065.48
672.009	5083.91
672.206	5352.2
672.404	5380.87
672.602	5296.9
672.799	5081.86
672.997	5253.89
673.195	5524.23
673.392	5163.78
673.59	4862.73
673.788	5335.81
673.985	4672.27
674.183	5085.96
674.38	5055.24
674.578	5364.48
674.775	5110.54
674.973	4840.2
675.17	4969.23
675.368	5757.69
675.565	5470.98
675.763	5036.81
675.96	4983.56
676.158	5638.91
676.355	5112.58
676.553	5075.72
676.75	5184.26
676.947	5493.51
677.145	5317.38
677.342	5296.9
677.539	5341.96
677.737	5380.87
677.934	5868.28
678.131	5321.48
678.329	5180.17
678.526	5765.89
678.723	5536.51
678.92	5337.86
679.118	5284.61
679.315	5266.18
679.512	5843.71
679.709	5430.02
679.906	5090.06
680.104	5815.04
680.301	5503.75
680.498	5167.88
680.695	5128.97
680.892	5522.18
681.089	5305.09
681.286	5346.05
681.483	4887.31
681.68	5610.24
681.877	5731.07
682.075	5108.49
682.272	5427.97
682.469	5516.03
682.665	5548.8
682.862	5307.14
683.059	4979.47
683.256	5679.87
683.453	5591.81
683.65	5327.62
683.847	5301
684.044	5593.86
684.241	5292.8
684.438	5473.03
684.635	5133.06
684.831	5905.15
685.028	5905.15
685.225	5305.09
685.422	5321.48
685.619	5479.17
685.815	5423.87
686.012	5442.31
686.209	5346.05
686.405	5274.37
686.602	5706.49
686.799	5217.03
686.996	5282.56
687.192	5243.65
687.389	6019.83
687.586	5212.93
687.782	5413.63
687.979	5960.44
688.175	6036.22
688.372	5440.26
688.568	5421.83
688.765	5395.2
688.962	5866.24
689.158	5499.65
689.355	5327.62
689.551	5679.87
689.748	5462.79
689.944	5757.69
690.14	5239.56
690.337	5774.08
690.533	5391.11
690.73	5470.98
690.926	5661.44
691.123	5919.48
691.319	5690.11
691.515	5337.86
691.712	5516.03
691.908	5827.32
692.104	5884.67
692.301	5657.34
692.497	5227.27
692.693	6052.6
692.889	5860.09
693.086	5692.16
693.282	5247.75
693.478	5753.6
693.674	6118.14
693.87	5597.95
694.067	5397.25
694.263	5888.76
694.459	5612.29
694.655	5729.02
694.851	5507.84
695.047	5858.04
695.243	5911.29
695.439	5853.95
695.635	5393.16
695.831	5825.28
696.027	5837.56
696.224	5532.42
696.42	5917.44
696.615	6142.71
696.811	5978.87
697.007	5380.87
697.203	5550.85
697.399	5876.48
697.595	6191.86
697.791	5376.77
697.987	5706.49
698.183	5561.09
698.379	5667.58
698.575	5731.07
698.77	5604.1
698.966	6087.42
699.162	5993.21
699.358	5704.45
699.554	5622.53
699.749	5989.11
699.945	6077.18
700.141	5688.06
700.337	5761.79
700.532	5724.93
700.728	5737.21
700.924	5679.87
701.119	5241.61
701.315	6040.31
701.511	5769.98
701.706	5810.94
701.902	5491.46
702.097	5899
702.293	6071.03
702.489	5729.02
702.684	5565.18
702.88	5851.9
703.075	5796.6
703.271	5757.69
703.466	5718.78
703.662	5946.11
703.857	6077.18
704.053	5614.34
704.248	5634.82
704.443	6075.13
704.639	6255.35
704.834	5737.21
705.03	5716.73
705.225	6126.33
705.42	6214.39
705.616	5845.76
705.811	5671.68
706.006	5882.62
706.202	5892.86
706.397	5817.08
706.592	5483.27
706.787	6077.18
706.983	6032.12
707.178	6406.9
707.373	5731.07
707.568	6073.08
707.763	6155
707.959	5841.66
708.154	5833.47
708.349	5862.14
708.544	6150.9
708.739	6144.76
708.934	5677.82
709.129	6146.81
709.324	6415.09
709.519	5798.65
709.714	5716.73
709.909	6212.34
710.104	6157.05
710.299	5819.13
710.494	5958.39
710.689	6114.04
710.884	6099.7
711.079	5982.97
711.274	6105.85
711.469	6243.06
711.664	6226.68
711.859	5860.09
712.054	5968.63
712.249	6376.18
712.443	6441.72
712.638	5751.55
712.833	5901.05
713.028	6142.71
713.223	5954.3
713.417	6173.43
713.612	5964.54
713.807	6214.39
714.002	6884.08
714.196	6212.34
714.391	5919.48
714.586	6294.26
714.78	6036.22
714.975	6005.5
715.17	6056.7
715.364	6073.08
715.559	6300.41
715.754	5597.95
715.948	5944.06
716.143	6505.2
716.337	6148.86
716.532	6046.46
716.726	5794.56
716.921	6390.52
717.115	6658.8
717.31	5886.72
717.504	6628.08
717.699	6275.83
717.893	6281.97
718.088	5958.39
718.282	5692.16
718.476	6204.15
718.671	6292.21
718.865	5919.48
719.059	5935.87
719.254	6279.93
719.448	6525.68
719.642	7346.92
719.837	5794.56
720.031	6447.86
720.225	6408.95
720.419	6114.04
720.614	5894.91
720.808	6306.55
721.002	6177.53
721.196	5767.93
721.39	5821.18
721.585	6445.81
721.779	6245.11
721.973	6079.22
722.167	5714.69
722.361	6109.94
722.555	6302.45
722.749	6021.88
722.943	6015.74
723.137	6052.6
723.331	6355.7
723.525	5815.04
723.719	6038.27
723.913	6402.8
724.107	6365.94
724.301	5894.91
724.495	6036.22
724.689	6546.16
724.883	6478.58
725.077	5909.24
725.271	5956.35
725.465	6470.39
725.659	6167.29
725.853	6269.69
726.046	5743.36
726.24	6042.36
726.434	6490.87
726.628	5878.52
726.822	6081.27
727.015	6630.13
727.209	6787.82
727.403	6075.13
727.596	5735.17
727.79	6662.9
727.984	6525.68
728.177	6044.41
728.371	6132.47
728.565	6572.79
728.758	5909.24
728.952	5970.68
729.146	6134.52
729.339	6689.52
729.533	6294.26
729.726	6216.44
729.92	6091.51
730.113	6564.59
730.307	6480.63
730.5	6228.73
730.694	6046.46
730.887	6376.18
731.081	6611.7
731.274	6025.98
731.468	6388.47
731.661	6372.08
731.854	6345.46
732.048	6155
732.241	6105.85
732.435	6306.55
732.628	6640.37
732.821	6177.53
733.014	6208.25
733.208	6263.54
733.401	6570.74
733.594	6148.86
733.788	6195.96
733.981	6867.69
734.174	6562.55
734.367	6193.91
734.56	6404.85
734.754	6644.46
734.947	6490.87
735.14	6118.14
735.333	6185.72
735.526	6767.34
735.719	6249.21
735.912	6148.86
736.105	5974.78
736.298	6583.02
736.491	6568.69
736.684	6367.99
736.877	6189.81
737.07	6570.74
737.263	6904.56
737.456	6284.02
737.649	6380.28
737.842	6486.77
738.035	6552.31
738.228	6159.1
738.421	6654.7
738.614	6730.48
738.807	6785.77
739	6228.73
739.192	6267.64
739.385	6605.55
739.578	6796.01
739.771	6533.87
739.964	6419.19
740.156	6908.65
740.349	6497.01
740.542	6648.56
740.735	6234.87
740.927	6312.69
741.12	6419.19
741.313	6116.09
741.505	6382.32
741.698	6716.14
741.891	6791.92
742.083	6666.99
742.276	6433.52
742.468	6824.69
742.661	6623.98
742.854	6392.56
743.046	6417.14
743.239	7148.26
743.431	6576.88
743.624	6425.33
743.816	6343.41
744.009	6427.38
744.201	6865.64
744.393	6611.7
744.586	6298.36
744.778	6920.94
744.971	6685.42
745.163	6527.73
745.355	6531.83
745.548	6720.24
745.74	6527.73
745.932	6636.27
746.125	6513.39
746.317	7199.46
746.509	6753.01
746.702	6263.54
746.894	6466.29
747.086	6761.2
747.278	6851.31
747.471	6623.98
747.663	6515.44
747.855	6707.95
748.047	7121.64
748.239	6494.96
748.431	6380.28
748.623	6970.09
748.815	7133.93
749.008	6392.56
749.2	6347.51
749.392	6890.22
749.584	6781.68
749.776	6564.59
749.968	6626.03
750.16	7303.91
750.352	6601.46
750.544	6574.83
750.736	6474.48
750.928	6720.24
751.12	6693.62
751.311	6367.99
751.503	6583.02
751.695	6888.17
751.887	6636.27
752.079	6396.66
752.271	6544.11
752.463	7547.62
752.654	7025.39
752.846	6632.18
753.038	6591.22
753.23	6443.76
753.421	6890.22
753.613	6449.91
753.805	6613.74
753.997	6841.07
754.188	6916.84
754.38	6318.84
754.572	6462.19
754.763	6638.32
754.955	6949.61
755.146	6673.14
755.338	6568.69
755.53	6705.9
755.721	6882.03
755.913	6267.64
756.104	6408.95
756.296	6716.14
756.487	6982.38
756.679	6363.89
756.87	6589.17
757.062	6644.46
757.253	6902.51
757.445	6458.1
757.636	6693.62
757.827	6771.44
758.019	7545.57
758.21	6421.24
758.401	6593.26
758.593	7191.27
758.784	7019.24
758.975	6232.82
759.167	6329.08
759.358	6728.43
759.549	6820.59
759.74	6333.17
759.932	6433.52
760.123	7052.01
760.314	6519.54
760.505	6671.09
760.696	6537.97
760.888	7205.61
761.079	6636.27
761.27	6404.85
761.461	6484.72
761.652	7267.05
761.843	6775.53
762.034	6548.21
762.225	6656.75
762.416	6736.62
762.607	6879.98
762.798	6523.63
762.989	6478.58
763.18	7504.61
763.371	6705.9
763.562	6564.59
763.753	6345.46
763.944	6941.42
764.135	6851.31
764.326	6712.05
764.517	6441.72
764.708	6820.59
764.899	6886.12
765.089	6429.43
765.28	6169.34
765.471	6861.55
765.662	6875.88
765.853	6376.18
766.043	6339.32
766.234	6738.67
766.425	6974.19
766.615	6425.33
766.806	6212.34
766.997	6871.79
767.187	6769.39
767.378	6349.56
767.569	6234.87
767.759	6959.85
767.95	6879.98
768.141	6656.75
768.331	6435.57
768.522	6798.06
768.712	6884.08
768.903	6445.81
769.093	6222.58
769.284	7027.43
769.474	6683.38
769.665	6218.49
769.855	6191.86
770.046	6992.62
770.236	6517.49
770.426	6621.94
770.617	6384.37
770.807	6832.88
770.998	6431.48
771.188	6578.93
771.378	6335.22
771.569	6906.6
771.759	6666.99
771.949	6267.64
772.139	6288.12
772.33	6556.4
772.52	6812.4
772.71	6320.88
772.9	6320.88
773.09	7031.53
773.281	7013.1
773.471	6423.28
773.661	6347.51
773.851	7000.81
774.041	6517.49
774.231	6212.34
774.421	6529.78
774.611	7127.78
774.802	6664.94
774.992	6400.76
775.182	6466.29
775.372	6603.5
775.562	6804.21
775.752	6355.7
775.942	6419.19
776.131	6918.89
776.321	6714.09
776.511	6392.56
776.701	6298.36
776.891	6787.82
777.081	6413.04
777.271	6464.24
777.461	6230.77
777.651	6808.3
777.84	6871.79
778.03	6435.57
778.22	6183.67
778.41	6849.26
778.599	6333.17
778.789	6470.39
778.979	6144.76
779.169	6703.86
779.358	6544.11
779.548	6740.72
779.738	6097.66
779.927	6474.48
780.117	6390.52
780.307	6261.49
780.496	5997.31
780.686	6599.41
780.875	7015.15
781.065	6089.46
781.254	6406.9
781.444	6533.87
781.633	6546.16
781.823	6269.69
782.012	6097.66
782.202	6470.39
782.391	6376.18
782.581	6304.5
782.77	6443.76
782.96	6683.38
783.149	6421.24
783.338	6259.45
783.528	6023.93
783.717	6750.96
783.906	6714.09
784.096	6345.46
784.285	6066.94
784.474	6298.36
784.663	6449.91
784.853	6222.58
785.042	6261.49
785.231	6470.39
785.42	6843.12
785.61	6355.7
785.799	6329.08
785.988	6556.4
786.177	6564.59
786.366	6370.04
786.555	6572.79
786.744	6703.86
786.933	6486.77
787.122	6097.66
787.312	6056.7
787.501	6294.26
787.69	6589.17
787.879	6253.3
788.068	6269.69
788.257	6202.1
788.445	6269.69
788.634	6296.31
788.823	6054.65
789.012	6980.33
789.201	6730.48
789.39	6294.26
789.579	6275.83
789.768	6476.53
789.957	6466.29
790.145	6134.52
790.334	5794.56
790.523	6214.39
790.712	6327.03
790.9	6120.18
791.089	6060.79
791.278	6623.98
791.467	6421.24
791.655	6527.73
791.844	6791.92
792.033	6275.83
792.221	6339.32
792.41	6165.24
792.599	5917.44
792.787	6607.6
792.976	6636.27
793.164	6001.4
793.353	6044.41
793.541	6615.79
793.73	6470.39
793.918	6337.27
794.107	5948.15
794.295	6429.43
794.484	6406.9
794.672	6052.6
794.861	6136.57
795.049	6458.1
795.238	6759.15
795.426	6068.98
795.614	6105.85
795.803	6492.91
795.991	6771.44
796.179	6228.73
796.368	6116.09
796.556	6609.65
796.744	6107.9
796.932	6189.81
797.121	6107.9
797.309	6370.04
797.497	6617.84
797.685	6210.29
797.874	6046.46
798.062	6451.95
798.25	6662.9
798.438	6296.31
798.626	6046.46
798.814	6529.78
799.002	7056.11
799.19	6306.55
799.378	6193.91
799.566	6728.43
799.755	6654.7
799.943	6372.08
800.131	6337.27
800.318	6302.45
800.506	6519.54
800.694	6118.14
800.882	6159.1
801.07	6820.59
801.258	6382.32
801.446	6308.6
801.634	6087.42
801.822	6460.15
802.01	6472.43
802.197	6363.89
802.385	6394.61
802.573	6476.53
802.761	6359.8
802.949	6232.82
803.136	6066.94
803.324	6824.69
803.512	6615.79
803.699	6361.84
803.887	6144.76
804.075	6929.13
804.262	6499.06
804.45	6253.3
804.638	6441.72
804.825	6464.24
805.013	6636.27
805.201	6476.53
805.388	6073.08
805.576	6673.14
805.763	7033.58
805.951	6290.17
806.138	6585.07
806.326	7109.35
806.513	6826.73
806.701	6517.49
806.888	6288.12
807.075	6617.84
807.263	7039.72
807.45	6238.97
807.638	6576.88
807.825	7199.46
808.012	6871.79
808.2	6507.25
808.387	6818.54
808.574	6871.79
808.761	7178.98
808.949	6494.96
809.136	6611.7
809.323	6753.01
809.51	6503.15
809.698	6720.24
809.885	6779.63
810.072	6701.81
810.259	6974.19
810.446	6447.86
810.633	6402.8
810.82	7043.82
811.008	7215.85
811.195	6671.09
811.382	6712.05
811.569	6855.4
811.756	6662.9
811.943	6771.44
812.13	6621.94
812.317	6644.46
812.504	6834.93
812.691	6689.52
812.878	6785.77
813.064	7252.71
813.251	6984.43
813.438	6464.24
813.625	6671.09
813.812	6818.54
813.999	6855.4
814.186	6775.53
814.372	6675.18
814.559	6972.14
814.746	7312.1
814.933	6818.54
815.12	6955.76
815.306	6902.51
815.493	6789.87
815.68	6435.57
815.866	6871.79
816.053	7322.34
816.24	7588.58
816.426	6877.93
816.613	6804.21
816.799	7308.01
816.986	7371.49
817.173	6681.33
817.359	6724.33
817.546	7133.93
817.732	6673.14
817.919	6568.69
818.105	6685.42
818.292	6753.01
818.478	7015.15
818.665	6671.09
818.851	6857.45
819.037	7391.97
819.224	6900.46
819.41	6863.6
819.597	6836.97
819.783	7342.82
819.969	7086.83
820.156	6656.75
820.342	6826.73
820.528	7766.75
820.714	6839.02
820.901	6822.64
821.087	6599.41
821.273	7363.3
821.459	6992.62
821.646	6753.01
821.832	6621.94
822.018	6961.9
822.204	7064.3
822.39	6945.52
822.576	6724.33
822.762	7031.53
822.948	7095.02
823.134	7097.07
823.32	6634.22
823.507	6804.21
823.693	7017.19
823.879	7133.93
824.065	6507.25
824.25	7023.34
824.436	6886.12
824.622	6669.04
824.808	6705.9
824.994	6906.6
825.18	6732.53
825.366	6720.24
825.552	6628.08
825.738	6847.21
825.923	7187.18
826.109	6976.23
826.295	6558.45
826.481	6802.16
826.667	6898.41
826.852	6699.76
827.038	6574.83
827.224	7097.07
827.409	7250.66
827.595	6486.77
827.781	6695.66
827.966	7011.05
828.152	7111.4
828.338	6591.22
828.523	6294.26
828.709	6650.61
828.894	7318.25
829.08	6699.76
829.266	6652.66
829.451	6705.9
829.637	7105.26
829.822	6658.8
830.008	6544.11
830.193	7025.39
830.378	7158.5
830.564	6556.4
830.749	6554.35
830.935	6875.88
831.12	7047.91
831.305	6509.3
831.491	6638.32
831.676	6658.8
831.861	6927.08
832.047	6615.79
832.232	6316.79
832.417	7154.41
832.602	6947.56
832.788	6400.76
832.973	6529.78
833.158	6679.28
833.343	6789.87
833.528	6523.63
833.714	6394.61
833.899	6916.84
834.084	7232.23
834.269	6527.73
834.454	6490.87
834.639	6968.04
834.824	6818.54
835.009	6683.38
835.194	6689.52
835.379	6937.32
835.564	7144.17
835.749	6601.46
835.934	6411
836.119	6732.53
836.304	6722.29
836.489	6533.87
836.674	6695.66
836.859	6603.5
837.044	7025.39
837.228	6503.15
837.413	6267.64
837.598	6757.1
837.783	7039.72
837.968	6462.19
838.152	6146.81
838.337	6243.06
838.522	6986.47
838.707	6859.5
838.891	6714.09
839.076	6646.51
839.261	6853.36
839.445	6312.69
839.63	6673.14
839.815	7066.35
839.999	6769.39
840.184	6277.88
840.368	6423.28
840.553	6675.18
840.737	6920.94
840.922	6394.61
841.106	6226.68
841.291	6365.94
841.475	6615.79
841.66	6277.88
841.844	6261.49
842.029	7334.63
842.213	6361.84
842.397	6187.77
842.582	6083.32
842.766	6796.01
842.951	6683.38
843.135	6490.87
843.319	6222.58
843.504	6451.95
843.688	6859.5
843.872	6169.34
844.056	6042.36
844.241	6439.67
844.425	6458.1
844.609	6454
844.793	5892.86
844.977	6632.18
845.161	6576.88
845.346	6181.62
845.53	6200.05
845.714	6437.62
845.898	6984.43
846.082	6193.91
846.266	6386.42
846.45	6611.7
846.634	6767.34
846.818	6341.36
847.002	6433.52
847.186	6593.26
847.37	6310.65
847.554	6161.14
847.738	6374.13
847.922	6675.18
848.106	6777.58
848.29	6124.28
848.473	6093.56
848.657	6605.55
848.841	6331.12
849.025	6204.15
849.209	6068.98
849.392	6552.31
849.576	6286.07
849.76	5874.43
849.944	6265.59
850.127	6839.02
850.311	6200.05
850.495	6064.89
850.678	5954.3
850.862	6646.51
851.046	6707.95
851.229	6234.87
851.413	5968.63
851.596	6302.45
851.78	6482.67
851.964	6255.35
852.147	6062.84
852.331	7207.66
852.514	6501.11
852.698	6198.01
852.881	5976.83
853.065	6734.57
853.248	6431.48
853.431	6230.77
853.615	6234.87
853.798	6943.47
853.982	6564.59
854.165	6195.96
854.348	6058.74
854.532	6220.53
854.715	6245.11
854.898	5954.3
855.081	6081.27
855.265	6599.41
855.448	6685.42
855.631	5851.9
855.814	6152.95
855.997	6367.99
856.181	6236.92
856.364	6054.65
856.547	5833.47
856.73	6361.84
856.913	6296.31
857.096	5843.71
857.279	6083.32
857.462	6363.89
857.645	6515.44
857.828	6062.84
858.011	6105.85
858.194	6050.55
858.377	6372.08
858.56	5843.71
858.743	6146.81
858.926	6089.46
859.109	6413.04
859.292	5870.33
859.475	5843.71
859.658	6642.42
859.841	6312.69
860.023	5698.3
860.206	5610.24
860.389	6312.69
860.572	6445.81
860.755	5954.3
860.937	5866.24
861.12	6236.92
861.303	6114.04
861.486	6052.6
861.668	5935.87
861.851	6241.01
862.034	6122.23
862.216	5929.72
862.399	5720.83
862.581	6281.97
862.764	6519.54
862.947	5892.86
863.129	5802.75
863.312	5827.32
863.494	6486.77
863.677	6167.29
863.859	5571.33
864.042	6245.11
864.224	6267.64
864.406	5892.86
864.589	5575.42
864.771	6062.84
864.954	5786.37
865.136	5698.3
865.318	5597.95
865.501	6052.6
865.683	5585.66
865.865	5714.69
866.048	5681.92
866.23	5982.97
866.412	5831.42
866.594	5659.39
866.777	5856
866.959	6140.66
867.141	5495.55
867.323	5903.1
867.505	5626.62
867.687	5960.44
867.869	5880.57
868.052	5688.06
868.234	5704.45
868.416	6034.17
868.598	6091.51
868.78	5518.08
868.962	5481.22
869.144	6187.77
869.326	6195.96
869.508	5632.77
869.69	5591.81
869.872	5753.6
870.054	6200.05
870.236	5528.32
870.417	5731.07
870.599	5929.72
870.781	6400.76
870.963	5821.18
871.145	5563.14
871.327	5726.97
871.508	6228.73
871.69	5409.54
871.872	5856
872.054	5921.53
872.235	6052.6
872.417	5679.87
872.599	5458.69
872.78	6259.45
872.962	6155
873.144	5460.74
873.325	5741.31
873.507	6415.09
873.689	6056.7
873.87	5470.98
874.052	5944.06
874.233	5862.14
874.415	6071.03
874.596	5624.58
874.778	5454.59
874.959	5909.24
875.141	6064.89
875.322	5683.97
875.503	5761.79
875.685	6003.45
875.866	5542.66
876.048	5470.98
876.229	5616.38
876.41	6013.69
876.592	6064.89
876.773	5774.08
876.954	5683.97
877.136	6460.15
877.317	6017.79
877.498	5528.32
877.679	5925.63
877.86	6302.45
878.042	5991.16
878.223	5903.1
878.404	6271.73
878.585	6324.98
878.766	6568.69
878.947	6253.3
879.128	5987.07
879.309	6398.71
879.49	6372.08
879.672	5985.02
879.853	5972.73
880.034	5935.87
880.215	5997.31
880.396	6089.46
880.576	5935.87
880.757	5982.97
880.938	6449.91
881.119	5868.28
881.3	5845.76
881.481	6095.61
881.662	7107.3
881.843	5915.39
882.023	5839.61
882.204	6417.14
882.385	6220.53
882.566	5866.24
882.747	6073.08
882.927	6114.04
883.108	6370.04
883.289	6075.13
883.469	6167.29
883.65	6148.86
883.831	6271.73
884.011	6370.04
884.192	6048.51
884.373	6662.9
884.553	6445.81
884.734	6271.73
884.914	6306.55
885.095	6978.28
885.275	6736.62
885.456	6384.37
885.636	5806.84
885.817	6445.81
885.997	6615.79
886.178	6122.23
886.358	6126.33
886.538	6515.44
886.719	7488.23
886.899	6251.25
887.08	6265.59
887.26	6863.6
887.44	6355.7
887.621	6128.38
887.801	6400.76
887.981	7078.63
888.161	6900.46
888.342	6433.52
888.522	6384.37
888.702	6855.4
888.882	6953.71
889.062	6666.99
889.242	6095.61
889.423	7076.59
889.603	6836.97
889.783	6466.29
889.963	6509.3
890.143	6736.62
890.323	6771.44
890.503	6378.23
890.683	6413.04
890.863	6710
891.043	6712.05
891.223	6458.1
891.403	6712.05
891.583	6599.41
891.763	6759.15
891.943	6478.58
892.122	6486.77
892.302	6652.66
892.482	6728.43
892.662	6580.98
892.842	6583.02
893.022	6656.75
893.201	6585.07
893.381	6703.86
893.561	6419.19
893.741	6896.36
893.92	6742.77
894.1	6460.15
894.28	6503.15
894.459	6976.23
894.639	6851.31
894.819	6294.26
894.998	6707.95
895.178	6890.22
895.357	6884.08
895.537	6257.4
895.716	6292.21
895.896	6486.77
896.075	7031.53
896.255	6632.18
896.434	6372.08
896.614	6996.71
896.793	7064.3
896.973	6693.62
897.152	6542.07
897.331	7025.39
897.511	6947.56
897.69	6327.03
897.87	6689.52
898.049	6851.31
898.228	6710
898.407	6820.59
898.587	6650.61
898.766	6544.11
898.945	6904.56
899.124	6613.74
899.304	6681.33
899.483	7049.96
899.662	7224.04
899.841	6367.99
900.02	6433.52
900.199	7015.15
900.378	6738.67
900.557	6404.85
900.737	6339.32
900.916	6767.34
901.095	6896.36
901.274	6699.76
901.453	6390.52
901.632	6478.58
901.811	6398.71
901.989	6331.12
902.168	6134.52
902.347	6630.13
902.526	6746.86
902.705	6449.91
902.884	6484.72
903.063	6955.76
903.242	7011.05
903.42	6277.88
903.599	6544.11
903.778	6910.7
903.957	7019.24
904.135	6583.02
904.314	6580.98
904.493	6810.35
904.672	6830.83
904.85	6247.16
905.029	6296.31
905.207	6671.09
905.386	7181.03
905.565	6169.34
905.743	6367.99
905.922	6394.61
906.1	6714.09
906.279	6068.98
906.457	6304.5
906.636	6390.52
906.814	6251.25
906.993	6187.77
907.171	6218.49
907.35	6587.12
907.528	6773.49
907.707	6488.82
907.885	5954.3
908.063	6785.77
908.242	6245.11
908.42	6218.49
908.598	5868.28
908.777	6595.31
908.955	6386.42
909.133	6173.43
909.311	5853.95
909.49	6294.26
909.668	6132.47
909.846	6042.36
910.024	5876.48
910.202	6327.03
910.38	6474.48
910.559	5987.07
910.737	6011.64
910.915	6408.95
911.093	6464.24
911.271	6105.85
911.449	6292.21
911.627	6370.04
911.805	6736.62
911.983	5913.34
912.161	5882.62
912.339	6550.26
912.517	6478.58
912.695	6271.73
912.872	5927.67
913.05	6052.6
913.228	6265.59
913.406	6025.98
913.584	5724.93
913.762	6310.65
913.939	5837.56
914.117	5810.94
914.295	5769.98
914.473	6271.73
914.65	6218.49
914.828	5778.17
915.006	5788.41
915.184	5602.05
915.361	6116.09
915.539	5968.63
915.716	5815.04
915.894	6048.51
916.072	6298.36
916.249	5980.92
916.427	6003.45
916.604	5702.4
916.782	6025.98
916.959	5581.57
917.137	5737.21
917.314	5950.2
917.492	6095.61
917.669	5595.9
917.847	5614.34
918.024	5843.71
918.201	5610.24
918.379	5681.92
918.556	5729.02
918.733	5982.97
918.911	5679.87
919.088	5739.26
919.265	5462.79
919.442	5896.96
919.62	5575.42
919.797	5509.89
919.974	5432.07
920.151	5696.25
920.328	5628.67
920.506	5360.39
920.683	5720.83
920.86	5395.2
921.037	5382.92
921.214	5419.78
921.391	5184.26
921.568	5729.02
921.745	5337.86
921.922	5397.25
922.099	5282.56
922.276	5794.56
922.453	5436.16
922.63	5210.89
922.807	5538.56
922.984	5542.66
923.161	5337.86
923.338	5153.54
923.514	5081.86
923.691	5389.06
923.868	5452.55
924.045	5077.77
924.222	5022.47
924.399	5454.59
924.575	5626.62
924.752	5305.09
924.929	5090.06
925.105	5397.25
925.282	4961.03
925.459	5071.62
925.635	5112.58
925.812	5284.61
925.989	5247.75
926.165	4893.45
926.342	4725.52
926.518	4819.72
926.695	5178.12
926.871	4856.59
927.048	4698.89
927.224	5337.86
927.401	4971.27
927.577	4807.44
927.754	4793.1
927.93	5257.99
928.107	5233.41
928.283	4631.31
928.459	4827.92
928.636	5057.29
928.812	5016.33
928.988	4557.58
929.165	4537.1
929.341	4778.76
929.517	4815.63
929.693	4842.25
929.87	4436.75
930.046	4770.57
930.222	4688.65
930.398	4344.6
930.574	4756.24
930.751	4832.01
930.927	4578.06
931.103	4365.07
931.279	4354.83
931.455	4332.31
931.631	4795.15
931.807	4352.79
931.983	4178.71
932.159	4279.06
932.335	4502.29
932.511	4426.51
932.687	4180.76
932.863	4526.86
933.039	4401.94
933.215	3879.71
933.391	4147.99
933.566	4494.1
933.742	4469.52
933.918	4152.09
934.094	3984.15
934.27	4242.2
934.445	4240.15
934.621	4078.36
934.797	3762.97
934.973	4207.38
935.148	4100.89
935.324	3736.35
935.5	3547.94
935.675	4070.17
935.851	4111.13
936.027	3732.25
936.202	3672.86
936.378	3943.19
936.553	3744.54
936.729	3797.79
936.904	3433.25
937.08	3375.91
937.255	3476.26
937.431	3187.49
937.606	3197.73
937.782	3214.12
937.957	3445.54
938.133	3242.79
938.308	3068.71
938.483	3246.88
938.659	2943.78
938.834	3062.57
939.009	2919.21
939.185	3093.29
939.36	2827.05
939.535	2372.4
939.71	2704.17
939.886	3126.05
940.061	2939.69
940.236	2712.36
940.411	2661.16
940.586	2956.07
940.761	3015.46
940.937	2476.85
941.112	2448.18
941.287	2775.85
941.462	2693.93
941.637	2288.43
941.812	2403.12
941.987	2702.12
942.162	2558.77
942.337	2558.77
942.512	2358.07
942.687	2796.33
942.862	2695.98
943.037	2220.85
943.212	1962.81
943.386	2448.18
943.561	2497.33
943.736	2341.68
943.911	2433.84
944.086	2575.15
944.26	2517.81
944.435	2210.61
944.61	2313.01
944.785	2685.74
944.959	2917.16
945.134	2224.95
945.309	2194.23
945.483	2085.69
945.658	2632.49
945.833	2014.01
946.007	2091.83
946.182	2810.67
946.357	2362.16
946.531	2052.92
946.706	2108.21
946.88	2032.44
947.055	2452.27
947.229	2083.64
947.404	2108.21
947.578	2706.22
947.752	2323.25
947.927	2063.16
948.101	1997.62
948.276	2454.32
948.45	2439.98
948.624	2183.99
948.799	2227
948.973	2380.59
949.147	2007.86
949.321	2143.03
949.496	2143.03
949.67	2593.58
949.844	2497.33
950.018	2124.6
950.193	2175.8
950.367	2814.76
950.541	2386.74
950.715	2253.62
950.889	2261.81
951.063	2249.52
951.237	2407.22
951.411	2030.39
951.585	2028.34
951.759	2485.04
951.933	2325.3
952.107	2120.5
952.281	2452.27
952.455	2781.99
952.629	2456.37
952.803	2155.32
952.977	2163.51
953.151	2624.3
953.325	2517.81
953.499	2335.54
953.672	1934.14
953.846	2325.3
954.02	2399.02
954.194	2089.78
954.368	2175.8
954.541	2564.91
954.715	2261.81
954.889	2243.38
955.062	2063.16
955.236	2343.73
955.41	2251.57
955.583	2286.39
955.757	1833.79
955.93	2304.82
956.104	2005.81
956.278	2071.35
956.451	2134.84
956.625	2487.09
956.798	2755.37
956.972	2296.63
957.145	1956.66
957.319	2362.16
957.492	2308.91
957.665	2202.42
957.839	2116.41
958.012	2421.55
958.185	2108.21
958.359	2169.65
958.532	2200.37
958.705	2532.14
958.879	2325.3
959.052	2265.91
959.225	1962.81
959.398	2356.02
959.572	2427.7
959.745	2100.02
959.918	2239.28
960.091	2214.71
960.264	2456.37
960.438	1903.42
960.611	1936.18
960.784	2435.89
960.957	2235.19
961.13	2448.18
961.303	1968.95
961.476	2272.05
961.649	2550.57
961.822	1919.8
961.995	2100.02
962.168	2345.78
962.341	2372.4
962.514	2067.25
962.686	1979.19
962.859	2345.78
963.032	2411.31
963.205	1968.95
963.378	1850.17
963.551	2372.4
963.723	2255.67
963.896	2143.03
964.069	2087.73
964.242	2108.21
964.414	2505.52
964.587	2122.55
964.76	2179.89
964.932	2335.54
965.105	2097.97
965.278	1930.04
965.45	2038.58
965.623	2233.14
965.795	2411.31
965.968	1971
966.14	2026.29
966.313	2054.97
966.485	2208.56
966.658	1903.42
966.83	1923.9
967.003	2468.66
967.175	2411.31
967.348	1968.95
967.52	1997.62
967.692	2620.21
967.865	2267.95
968.037	2011.96
968.209	2227
968.382	2079.54
968.554	2280.24
968.726	2048.82
968.898	1919.8
969.071	2319.15
969.243	2270
969.415	1977.14
969.587	2007.86
969.759	2650.92
969.932	2345.78
970.104	1956.66
970.276	1731.39
970.448	2014.01
970.62	2065.21
970.792	2104.12
970.964	1954.62
971.136	2650.92
971.308	2255.67
971.48	1846.07
971.652	1821.5
971.824	2528.05
971.996	1987.38
972.168	1915.7
972.339	1864.5
972.511	2341.68
972.683	2087.73
972.855	2083.64
973.027	1930.04
973.199	1989.43
973.37	2210.61
973.542	2014.01
973.714	1966.9
973.886	2044.73
974.057	2345.78
974.229	1811.26
974.401	1899.32
974.572	1985.34
974.744	1674.04
974.915	1749.82
975.087	1729.34
975.259	2423.6
975.43	1837.88
975.602	1821.5
975.773	1696.57
975.945	1874.74
976.116	2153.27
976.288	1768.25
976.459	1995.57
976.63	1968.95
976.802	2282.29
976.973	1749.82
977.145	1932.09
977.316	2394.93
977.487	2497.33
977.659	1993.53
977.83	1846.07
978.001	2390.83
978.172	2054.97
978.344	1680.19
978.515	1956.66
978.686	1987.38
978.857	2333.49
979.028	1866.55
979.2	1731.39
979.371	2298.67
979.542	2038.58
979.713	1850.17
979.884	1483.58
980.055	1813.31
980.226	1948.47
980.397	1753.91
980.568	1649.47
980.739	2169.65
980.91	1993.53
981.081	1862.46
981.252	1596.22
981.423	2048.82
981.594	2159.41
981.765	1690.43
981.936	1768.25
982.106	1927.99
982.277	2194.23
982.448	1696.57
982.619	1780.54
982.79	1766.2
982.96	2079.54
983.131	1690.43
983.302	1510.21
983.472	1858.36
983.643	1872.7
983.814	1710.91
983.984	1753.91
984.155	1805.11
984.326	2159.41
984.496	1774.39
984.667	1573.69
984.837	1708.86
985.008	2165.56
985.178	1755.96
985.349	1727.29
985.519	1839.93
985.69	1739.58
985.86	1583.93
986.031	1432.38
986.201	1858.36
986.371	1870.65
986.542	1612.6
986.712	1303.36
986.882	1971
987.053	1895.22
987.223	1489.73
987.393	1672
987.563	1639.23
987.734	1940.28
987.904	1975.1
988.074	1569.6
988.244	2014.01
988.414	1647.42
988.585	1514.3
988.755	1608.51
988.925	1827.64
989.095	2177.84
989.265	1493.82
989.435	1551.17
989.605	1952.57
989.775	1932.09
989.945	1733.43
990.115	1452.86
990.285	1694.52
990.455	1758.01
990.625	1479.49
990.795	1409.86
990.965	2087.73
991.134	1438.53
991.304	1381.18
991.474	1461.06
991.644	1739.58
991.814	2157.36
991.984	1360.7
992.153	1387.33
992.323	1698.62
992.493	1854.27
992.662	1348.42
992.832	1592.13
993.002	1764.15
993.171	1776.44
993.341	1248.07
993.511	1538.88
993.68	1684.28
993.85	1887.03
994.019	1190.72
994.189	1379.14
994.358	1635.13
994.528	1583.93
994.697	1049.41
994.867	1282.88
995.036	1739.58
995.206	1557.31
995.375	1309.51
995.544	1514.3
995.714	1712.96
995.883	1534.78
996.052	1551.17
996.222	1157.96
996.391	2009.91
996.56	1682.24
996.73	1248.07
996.899	1164.1
997.068	1932.09
997.237	1645.37
997.406	1241.92
997.576	1084.23
997.745	1618.75
997.914	1585.98
998.083	967.49
998.252	1332.03
998.421	1475.39
998.59	1327.94
998.759	969.54
998.928	1096.52
999.097	1850.17
999.266	1479.49
999.435	1297.22
999.604	1084.23
999.773	1936.18
999.942	1481.53
1000.111	1055.56
1000.28	1012.55
1000.448	1282.88
1000.617	1252.16
1000.786	1452.86
1000.955	1182.53
1001.124	1497.92
1001.292	2085.69
1001.461	1168.2
1001.63	1088.32
1001.798	1839.93
1001.967	1819.45
1002.136	987.97
1002.304	1061.7
1002.473	1444.67
1002.642	1561.41
1002.81	1200.96
1002.979	1100.61
1003.147	1626.94
1003.316	1985.34
1003.484	1067.85
1003.653	1051.46
1003.821	1715
1003.99	1418.05
1004.158	1272.64
1004.327	1266.5
1004.495	1538.88
1004.663	1203.01
1004.832	1215.3
1005	944.97
1005.168	1653.56
1005.337	1473.34
1005.505	932.68
1005.673	1129.28
1005.842	1549.12
1006.01	1536.83
1006.178	998.21
1006.346	1106.76
1006.514	1428.29
1006.683	1674.04
1006.851	1096.52
1007.019	854.86
1007.187	1196.87
1007.355	912.2
1007.523	877.38
1007.691	908.1
1007.859	1035.08
1008.027	1493.82
1008.195	944.97
1008.363	934.73
1008.531	1506.11
1008.699	1182.53
1008.867	899.91
1009.035	975.69
1009.203	1557.31
1009.37	1270.59
1009.538	1006.41
1009.706	1403.71
1009.874	1348.42
1010.042	1168.2
1010.209	744.27
1010.377	863.05
1010.545	1467.2
1010.713	1299.27
1010.88	987.97
1011.048	914.25
1011.216	1096.52
1011.383	1522.49
1011.551	916.3
1011.718	781.13
1011.886	1481.53
1012.054	1033.03
1012.221	805.71
1012.389	852.81
1012.556	1149.76
1012.724	1612.6
1012.891	930.63
1013.058	785.23
1013.226	1428.29
1013.393	1313.6
1013.561	754.51
1013.728	643.92
1013.895	1375.04
1014.063	1309.51
1014.23	785.23
1014.397	723.79
1014.565	1303.36
1014.732	1053.51
1014.899	727.88
1015.066	777.03
1015.233	1157.96
1015.401	1231.68
1015.568	799.56
1015.735	779.08
1015.902	1123.14
1016.069	1235.78
1016.236	863.05
1016.403	594.76
1016.57	871.24
1016.737	1375.04
1016.904	830.28
1017.071	654.16
1017.238	873.29
1017.405	1301.31
1017.572	764.75
1017.739	932.68
1017.906	1155.91
1018.073	1266.5
1018.24	674.64
1018.407	797.51
1018.573	1286.98
1018.74	938.82
1018.907	709.45
1019.074	498.51
1019.241	1305.41
1019.407	1061.7
1019.574	729.93
1019.741	516.94
1019.907	1157.96
1020.074	1184.58
1020.241	435.02
1020.407	596.81
1020.574	1145.67
1020.74	1168.2
1020.907	613.2
1021.073	621.39
1021.24	1518.4
1021.406	1286.98
1021.573	621.39
1021.739	598.86
1021.906	1112.9
1022.072	1008.45
1022.239	668.49
1022.405	703.31
1022.571	1104.71
1022.738	820.04
1022.904	609.1
1023.07	727.88
1023.237	1073.99
1023.403	1248.07
1023.569	572.24
1023.735	738.12
1023.902	1024.84
1024.068	977.73
1024.234	494.41
1024.4	562
1024.566	1014.6
1024.732	1194.82
1024.898	596.81
1025.065	516.94
1025.231	1106.76
1025.397	762.7
1025.563	568.14
1025.729	435.02
1025.895	516.94
1026.061	787.27
1026.227	332.62
1026.392	564.04
1026.558	1157.96
1026.724	977.73
1026.89	508.75
1027.056	641.87
1027.222	1102.66
1027.388	850.76
1027.553	576.33
1027.719	480.08
1027.885	1289.03
1028.051	1002.31
1028.216	281.43
1028.382	457.55
1028.548	1071.94
1028.713	717.64
1028.879	420.69
1029.045	648.01
1029.21	1176.39
1029.376	1090.37
1029.541	559.95
1029.707	551.76
1029.873	1012.55
1030.038	992.07
1030.204	516.94
1030.369	484.17
1030.534	1059.65
1030.7	713.55
1030.865	545.61
1031.031	385.87
1031.196	949.06
1031.361	840.52
1031.527	381.78
1031.692	394.06
1031.857	410.45
1032.023	916.3
1032.188	318.29
1032.353	402.26
1032.518	1121.09
1032.684	772.94
1032.849	322.38
1033.014	478.03
1033.179	928.58
1033.344	932.68
1033.509	539.47
1033.674	379.73
1033.839	895.82
1034.004	940.87
1034.17	418.64
1034.335	246.61
1034.5	725.83
1034.664	617.29
1034.829	381.78
1034.994	457.55
1035.159	801.61
1035.324	875.34
1035.489	363.34
1035.654	254.8
1035.819	1008.45
1035.984	838.47
1036.148	416.59
1036.313	377.68
1036.478	961.35
1036.643	772.94
1036.807	340.82
1036.972	334.67
1037.137	1014.6
1037.301	674.64
1037.466	164.69
1037.631	602.96
1037.795	1045.32
1037.96	834.38
1038.124	529.23
1038.289	260.95
1038.454	809.8
1038.618	912.2
1038.783	394.06
1038.947	451.41
1039.111	766.79
1039.276	590.67
1039.44	346.96
1039.605	709.45
1039.769	715.59
1039.933	731.98
1040.098	369.49
1040.262	666.44
1040.426	873.29
1040.591	904.01
1040.755	236.37
1040.919	295.76
1041.083	822.09
1041.248	639.82
1041.412	150.36
1041.576	193.36
1041.74	566.09
1041.904	789.32
1042.068	277.33
1042.232	244.56
1042.397	861
1042.561	797.51
1042.725	80.72
1042.889	420.69
1043.053	830.28
1043.217	820.04
1043.381	383.82
1043.544	168.79
1043.708	891.72
1043.872	451.41
1044.036	7
1044.2	93.01
1044.364	836.42
1044.528	947.01
1044.691	3271.46
1044.855	117.59
1045.019	803.66
1045.183	744.27
1045.346	297.81
1045.51	113.49
1045.674	717.64
1045.837	799.56
1046.001	207.7
1046.165	183.12
1046.328	1137.48
1046.492	719.69
1046.655	346.96
1046.819	273.23
1046.983	537.42
1047.146	719.69
1047.31	205.65
1047.473	86.87
1047.636	621.39
1047.8	361.3
1047.963	197.46
1048.127	123.73
1048.29	449.36
