Data from Ink_Intensity_USB4F045381__175__00175.txt Node

Date: Mon Jul 17 11:39:47 EDT 2023
User: mmckonesweet
Spectrometer: USB4F04538
Trigger mode: 4
Integration Time (sec): 9.000000E-1
Scans to average: 1
Electric dark correction enabled: true
Nonlinearity correction enabled: false
Boxcar width: 0
XAxis mode: Wavelengths
Number of Pixels in Spectrum: 3648
>>>>>Begin Spectral Data<<<<<
345.52	-1033.03
345.736	-1033.03
345.952	-1033.03
346.168	-1028.93
346.384	-1016.65
346.6	-156.5
346.816	-326.48
347.032	-140.12
347.248	226.47
347.464	-236.37
347.68	-111.44
347.896	68.78
348.112	382.12
348.328	-37.72
348.544	-76.63
348.76	89.26
348.975	318.63
349.191	-260.95
349.407	-211.79
349.623	62.63
349.839	-50
350.055	-185.17
350.27	11.43
350.486	101.55
350.702	375.97
350.918	275.62
351.133	-185.17
351.349	177.32
351.565	281.77
351.781	-242.51
351.996	-33.62
352.212	269.48
352.428	-121.68
352.644	-183.12
352.859	-205.65
353.075	265.38
353.291	109.74
353.506	-107.35
353.722	-277.33
353.938	-146.26
354.153	443.56
354.369	72.87
354.584	-287.57
354.8	179.37
355.016	-328.53
355.231	-193.36
355.447	-72.53
355.662	93.35
355.878	834.72
356.093	-297.81
356.309	-9.05
356.524	-275.28
356.74	242.85
356.955	-256.85
357.171	-76.63
357.386	103.59
357.602	-224.08
357.817	-39.76
358.033	-170.83
358.248	302.25
358.464	265.38
358.679	-189.27
358.895	-301.9
359.11	33.96
359.325	361.64
359.541	46.25
359.756	36.01
359.972	-205.65
360.187	130.22
360.402	-127.83
360.618	-217.94
360.833	1010.84
361.048	185.51
361.264	-209.75
361.479	-15.19
361.694	-58.2
361.909	220.33
362.125	-197.46
362.34	-199.51
362.555	226.47
362.77	79.02
362.986	-262.99
363.201	-117.59
363.416	183.46
363.631	46.25
363.847	-154.45
364.062	-133.97
364.277	152.74
364.492	52.39
364.707	-76.63
364.922	-406.35
365.138	265.38
365.353	304.29
365.568	-254.8
365.783	-172.88
365.998	72.87
366.213	566.43
366.428	-287.57
366.643	27.82
366.858	152.74
367.073	162.98
367.288	-197.46
367.503	-230.23
367.718	113.83
367.933	253.09
368.148	-320.34
368.363	-172.88
368.578	-70.48
368.793	427.17
369.008	-193.36
369.223	-287.57
369.438	208.04
369.653	386.21
369.868	-293.71
370.083	-293.71
370.298	119.98
370.513	351.4
370.728	-17.24
370.943	-187.22
371.157	-209.75
371.372	566.43
371.587	-289.62
371.802	-254.8
372.017	40.11
372.232	478.37
372.446	-115.54
372.661	-273.23
372.876	203.94
373.091	117.93
373.306	-142.16
373.52	-295.76
373.735	-164.69
373.95	441.51
374.165	-179.03
374.379	-183.12
374.594	-62.29
374.809	124.07
375.023	117.93
375.238	-291.66
375.453	216.23
375.667	-250.71
375.882	-195.41
376.097	-299.86
376.311	-29.52
376.526	-90.96
376.741	-222.03
376.955	62.63
377.17	613.54
377.384	638.11
377.599	-142.16
377.813	-279.38
378.028	599.2
378.242	214.18
378.457	-37.72
378.672	-340.82
378.886	-17.24
379.101	-54.1
379.315	-287.57
379.53	-228.18
379.744	162.98
379.958	195.75
380.173	-193.36
380.387	-217.94
380.602	95.4
380.816	-119.64
381.031	-144.21
381.245	-170.83
381.459	230.57
381.674	2620.55
381.888	-240.47
382.103	23.72
382.317	-215.89
382.531	412.84
382.746	-70.48
382.96	-162.64
383.174	-103.25
383.388	414.88
383.603	17.58
383.817	-285.52
384.031	134.31
384.246	451.75
384.46	-148.31
384.674	230.57
384.888	-58.2
385.103	31.91
385.317	-226.13
385.531	-11.09
385.745	285.86
385.959	292.01
386.174	-230.23
386.388	-209.75
386.602	27.82
386.816	-148.31
387.03	-90.96
387.244	-146.26
387.458	42.15
387.672	367.78
387.887	-262.99
388.101	-326.48
388.315	308.39
388.529	154.79
388.743	-189.27
388.957	-219.99
389.171	216.23
389.385	-160.59
389.599	-152.4
389.813	-0.85
390.027	134.31
390.241	554.15
390.455	-103.25
390.669	-129.88
390.883	-78.68
391.097	269.48
391.311	-2.9
391.525	-230.23
391.738	208.04
391.952	128.17
392.166	-105.3
392.38	-217.94
392.594	257.19
392.808	341.16
393.022	-150.36
393.236	-176.98
393.449	179.37
393.663	113.83
393.877	-277.33
394.091	-162.64
394.305	-62.29
394.518	-144.21
394.732	-238.42
394.946	-152.4
395.16	423.08
395.373	140.46
395.587	-281.43
395.801	-191.31
396.015	279.72
396.228	277.67
396.442	-244.56
396.656	-387.92
396.869	269.48
397.083	433.32
397.297	-111.44
397.51	-275.28
397.724	322.73
397.938	126.12
398.151	-332.62
398.365	-375.63
398.578	189.61
398.792	406.69
399.005	-0.85
399.219	-176.98
399.433	95.4
399.646	220.33
399.86	-64.34
400.073	-15.19
400.287	150.7
400.5	36.01
400.714	-90.96
400.927	-168.79
401.141	279.72
401.354	1082.52
401.567	144.55
401.781	-312.14
401.994	310.44
402.208	580.77
402.421	-146.26
402.635	-105.3
402.848	68.78
403.061	285.86
403.275	-138.07
403.488	-293.71
403.701	453.8
403.915	232.62
404.128	-7
404.341	-154.45
404.555	115.88
404.768	25.77
404.981	-50
405.195	-242.51
405.408	435.36
405.621	185.51
405.834	25.77
406.048	-279.38
406.261	371.88
406.474	470.18
406.687	-238.42
406.9	15.53
407.114	52.39
407.327	142.5
407.54	-291.66
407.753	-254.8
407.966	-136.02
408.179	146.6
408.392	-234.32
408.605	-349.01
408.819	251.05
409.032	187.56
409.245	-228.18
409.458	-27.48
409.671	222.38
409.884	230.57
410.097	-369.49
410.31	52.39
410.523	138.41
410.736	-37.72
410.949	-123.73
411.162	-62.29
411.375	412.84
411.588	228.52
411.801	33.96
412.014	-213.84
412.227	72.87
412.44	-64.34
412.653	-172.88
412.865	60.59
413.078	273.57
413.291	199.85
413.504	-111.44
413.717	-238.42
413.93	230.57
414.143	-152.4
414.356	-144.21
414.568	-363.34
414.781	187.56
414.994	156.84
415.207	-109.4
415.42	-58.2
415.632	228.52
415.845	425.12
416.058	-299.86
416.271	-320.34
416.483	5.29
416.696	459.94
416.909	-242.51
417.121	-291.66
417.334	189.61
417.547	507.04
417.759	-183.12
417.972	-246.61
418.185	-127.83
418.397	236.71
418.61	-136.02
418.823	-183.12
419.035	324.77
419.248	-27.48
419.46	-121.68
419.673	-50
419.885	185.51
420.098	7.34
420.311	-152.4
420.523	-312.14
420.736	224.42
420.948	83.11
421.161	-271.19
421.373	-367.44
421.586	91.31
421.798	-148.31
422.01	-308.05
422.223	-119.64
422.435	-123.73
422.648	214.18
422.86	-179.03
423.073	-105.3
423.285	285.86
423.497	-234.32
423.71	-238.42
423.922	-254.8
424.134	142.5
424.347	392.36
424.559	68.78
424.771	-15.19
424.984	-86.87
425.196	105.64
425.408	-392.02
425.621	-324.43
425.833	138.41
426.045	298.15
426.257	-262.99
426.47	-176.98
426.682	83.11
426.894	189.61
427.106	-181.07
427.318	-205.65
427.531	-129.88
427.743	261.29
427.955	-205.65
428.167	228.52
428.379	64.68
428.591	-13.14
428.804	-103.25
429.016	-273.23
429.228	-43.86
429.44	72.87
429.652	36.01
429.864	-277.33
430.076	-19.29
430.288	-35.67
430.5	-201.55
430.712	-127.83
430.924	240.81
431.136	113.83
431.348	-340.82
431.56	-166.74
431.772	68.78
431.984	-74.58
432.196	-226.13
432.408	-170.83
432.62	-39.76
432.832	201.9
433.044	72.87
433.256	-166.74
433.468	257.19
433.679	-281.43
433.891	-275.28
434.103	-0.85
434.315	343.21
434.527	199.85
434.739	-70.48
434.95	-187.22
435.162	228.52
435.374	-66.39
435.586	-176.98
435.798	-164.69
436.009	-242.51
436.221	-80.72
436.433	-179.03
436.645	-195.41
436.856	-109.4
437.068	353.45
437.28	-262.99
437.491	76.97
437.703	175.27
437.915	162.98
438.126	-209.75
438.338	38.06
438.55	66.73
438.761	255.14
438.973	-205.65
439.184	-205.65
439.396	38.06
439.608	195.75
439.819	-387.92
440.031	-99.16
440.242	181.42
440.454	187.56
440.665	-222.03
440.877	-146.26
441.088	117.93
441.3	-78.68
441.511	-279.38
441.723	-172.88
441.934	208.04
442.146	81.07
442.357	-70.48
442.569	50.35
442.78	89.26
442.991	429.22
443.203	81.07
443.414	-191.31
443.626	408.74
443.837	-172.88
444.048	-306
444.26	-275.28
444.471	19.63
444.682	253.09
444.894	-422.73
445.105	-314.19
445.316	306.34
445.528	146.6
445.739	-129.88
445.95	-187.22
446.161	109.74
446.373	287.91
446.584	-195.41
446.795	-187.22
447.006	228.52
447.217	343.21
447.429	-377.68
447.64	-297.81
447.851	351.4
448.062	119.98
448.273	-375.63
448.484	-320.34
448.695	253.09
448.907	-107.35
449.118	-158.55
449.329	-9.05
449.54	-74.58
449.751	-213.84
449.962	-224.08
450.173	-203.6
450.384	314.53
450.595	326.82
450.806	-201.55
451.017	-136.02
451.228	392.36
451.439	289.96
451.65	-140.12
451.861	-437.07
452.072	-129.88
452.283	17.58
452.494	-72.53
452.705	-281.43
452.915	371.88
453.126	81.07
453.337	-228.18
453.548	-226.13
453.759	281.77
453.97	521.38
454.181	81.07
454.391	-230.23
454.602	48.3
454.813	83.11
455.024	-209.75
455.235	-291.66
455.445	113.83
455.656	144.55
455.867	-23.38
456.078	-213.84
456.288	-41.81
456.499	173.22
456.71	-299.86
456.921	89.26
457.131	99.5
457.342	146.6
457.553	-152.4
457.763	-228.18
457.974	162.98
458.184	269.48
458.395	-318.29
458.606	-289.62
458.816	283.81
459.027	464.04
459.237	-45.91
459.448	-453.45
459.659	330.92
459.869	515.23
460.08	-365.39
460.29	-138.07
460.501	461.99
460.711	-109.4
460.922	-336.72
461.132	-222.03
461.343	722.08
461.553	-150.36
461.764	-211.79
461.974	-240.47
462.184	244.9
462.395	60.59
462.605	-219.99
462.816	-291.66
463.026	21.67
463.236	283.81
463.447	-293.71
463.657	-254.8
463.867	294.05
464.078	3.24
464.288	-222.03
464.498	-281.43
464.709	17.58
464.919	-25.43
465.129	-129.88
465.339	-242.51
465.55	148.65
465.76	273.57
465.97	-222.03
466.18	-254.8
466.391	103.59
466.601	113.83
466.811	-193.36
467.021	-281.43
467.231	56.49
467.441	263.33
467.651	-254.8
467.862	-451.41
468.072	40.11
468.282	330.92
468.492	-297.81
468.702	-158.55
468.912	31.91
469.122	539.81
469.332	68.78
469.542	-230.23
469.752	228.52
469.962	60.59
470.172	-260.95
470.382	-293.71
470.592	203.94
470.802	345.25
471.012	-136.02
471.222	-254.8
471.432	263.33
471.642	138.41
471.852	-138.07
472.062	-308.05
472.272	-39.76
472.482	-195.41
472.691	-283.47
472.901	-404.3
473.111	126.12
473.321	523.43
473.531	-318.29
473.741	-127.83
473.95	64.68
474.16	236.71
474.37	-164.69
474.58	-326.48
474.79	519.33
474.999	162.98
475.209	-297.81
475.419	-318.29
475.628	-41.81
475.838	306.34
476.048	-224.08
476.258	-426.83
476.467	314.53
476.677	-45.91
476.886	-133.97
477.096	-213.84
477.306	-101.2
477.515	330.92
477.725	-90.96
477.935	-230.23
478.144	224.42
478.354	-119.64
478.563	-303.95
478.773	-285.52
478.982	238.76
479.192	279.72
479.401	-193.36
479.611	-295.76
479.82	-179.03
480.03	128.17
480.239	-351.06
480.449	-363.34
480.658	386.21
480.868	-187.22
481.077	-181.07
481.287	-170.83
481.496	224.42
481.705	396.45
481.915	-47.96
482.124	13.48
482.333	197.8
482.543	310.44
482.752	-164.69
482.961	-316.24
483.171	238.76
483.38	15.53
483.589	-127.83
483.799	-254.8
484.008	-27.48
484.217	255.14
484.426	-166.74
484.636	-373.58
484.845	52.39
485.054	-176.98
485.263	54.44
485.472	-271.19
485.682	386.21
485.891	33.96
486.1	-242.51
486.309	-328.53
486.518	97.45
486.727	427.17
486.936	-353.1
487.146	-68.44
487.355	400.55
487.564	-230.23
487.773	-219.99
487.982	-279.38
488.191	-88.92
488.4	46.25
488.609	-203.6
488.818	-205.65
489.027	634.02
489.236	361.64
489.445	-211.79
489.654	-269.14
489.863	193.7
490.072	29.87
490.281	66.73
490.49	-162.64
490.698	414.88
490.907	418.98
491.116	-285.52
491.325	-383.82
491.534	363.69
491.743	93.35
491.952	-74.58
492.16	-146.26
492.369	101.55
492.578	283.81
492.787	-219.99
492.996	-316.24
493.204	-125.78
493.413	466.08
493.622	-480.08
493.831	-392.02
494.039	421.03
494.248	-222.03
494.457	-324.43
494.665	-303.95
494.874	107.69
495.083	466.08
495.291	-242.51
495.5	-344.91
495.709	310.44
495.917	50.35
496.126	-95.06
496.335	-301.9
496.543	-72.53
496.752	122.02
496.96	-52.05
497.169	-441.17
497.377	87.21
497.586	265.38
497.794	-33.62
498.003	-435.02
498.211	-66.39
498.42	404.64
498.628	-164.69
498.837	-289.62
499.045	150.7
499.254	165.03
499.462	-230.23
499.671	-303.95
499.879	445.6
500.087	302.25
500.296	-359.25
500.504	-234.32
500.713	81.07
500.921	421.03
501.129	-287.57
501.338	-228.18
501.546	117.93
501.754	138.41
501.962	-283.47
502.171	-312.14
502.379	95.4
502.587	431.27
502.795	-205.65
503.004	-256.85
503.212	87.21
503.42	232.62
503.628	-228.18
503.837	-131.92
504.045	275.62
504.253	423.08
504.461	-303.95
504.669	-387.92
504.877	242.85
505.085	443.56
505.294	-410.45
505.502	-90.96
505.71	99.5
505.918	189.61
506.126	-379.73
506.334	-273.23
506.542	-15.19
506.75	122.02
506.958	-179.03
507.166	-238.42
507.374	-82.77
507.582	464.04
507.79	-131.92
507.998	-295.76
508.206	214.18
508.414	124.07
508.622	-346.96
508.83	-222.03
509.037	378.02
509.245	15.53
509.453	-275.28
509.661	-287.57
509.869	205.99
510.077	11.43
510.285	-183.12
510.492	-498.51
510.7	603.3
510.908	-66.39
511.116	-228.18
511.324	-209.75
511.531	-64.34
511.739	72.87
511.947	-185.17
512.155	-39.76
512.362	68.78
512.57	-234.32
512.778	-285.52
512.985	-459.6
513.193	257.19
513.401	324.77
513.608	-156.5
513.816	-248.66
514.024	189.61
514.231	347.3
514.439	-299.86
514.646	-269.14
514.854	220.33
515.061	283.81
515.269	-244.56
515.477	-219.99
515.684	-222.03
515.892	269.48
516.099	-396.11
516.307	-410.45
516.514	171.18
516.722	371.88
516.929	-246.61
517.136	-267.09
517.344	285.86
517.551	103.59
517.759	-260.95
517.966	-160.59
518.173	-68.44
518.381	5.29
518.588	-224.08
518.796	-320.34
519.003	261.29
519.21	-45.91
519.418	-301.9
519.625	-50
519.832	3.24
520.039	187.56
520.247	-488.27
520.454	-291.66
520.661	212.14
520.868	111.78
521.076	-217.94
521.283	-152.4
521.49	591.01
521.697	56.49
521.904	-181.07
522.112	-246.61
522.319	261.29
522.526	187.56
522.733	-326.48
522.94	-226.13
523.147	81.07
523.354	316.58
523.561	-414.54
523.768	-148.31
523.975	294.05
524.183	64.68
524.39	-152.4
524.597	-383.82
524.804	27.82
525.011	-179.03
525.218	-271.19
525.425	-353.1
525.632	392.36
525.838	-133.97
526.045	-271.19
526.252	-295.76
526.459	1105.05
526.666	900.25
526.873	-355.15
527.08	-279.38
527.287	367.78
527.494	148.65
527.701	-404.3
527.907	-332.62
528.114	189.61
528.321	-50
528.528	-199.51
528.735	-332.62
528.941	-54.1
529.148	-213.84
529.355	-164.69
529.562	-291.66
529.768	375.97
529.975	-17.24
530.182	-131.92
530.388	-287.57
530.595	277.67
530.802	-289.62
531.008	-138.07
531.215	-152.4
531.422	396.45
531.628	681.12
531.835	-107.35
532.042	-314.19
532.248	-101.2
532.455	89.26
532.661	-172.88
532.868	-351.06
533.074	33.96
533.281	234.66
533.487	-111.44
533.694	-308.05
533.9	-185.17
534.107	224.42
534.313	-349.01
534.52	-306
534.726	261.29
534.933	429.22
535.139	-406.35
535.345	-361.3
535.552	81.07
535.758	29.87
535.965	-254.8
536.171	-281.43
536.377	191.66
536.584	378.02
536.79	-371.54
536.996	-152.4
537.203	64.68
537.409	48.3
537.615	-254.8
537.821	-113.49
538.028	277.67
538.234	203.94
538.44	-308.05
538.646	-88.92
538.853	62.63
539.059	-13.14
539.265	56.49
539.471	-441.17
539.677	240.81
539.883	-60.24
540.09	-205.65
540.296	162.98
540.502	7.34
540.708	-56.15
540.914	-115.54
541.12	-320.34
541.326	197.8
541.532	29.87
541.738	-164.69
541.944	-271.19
542.15	257.19
542.356	-7
542.562	-334.67
542.768	-201.55
542.974	687.26
543.18	502.95
543.386	-250.71
543.592	-326.48
543.798	394.4
544.004	281.77
544.21	-277.33
544.415	-172.88
544.621	-0.85
544.827	302.25
545.033	-402.26
545.239	-9.05
545.445	-226.13
545.651	105.64
545.856	-357.2
546.062	-240.47
546.268	-21.33
546.474	60.59
546.679	-205.65
546.885	-211.79
547.091	-74.58
547.297	525.47
547.502	-160.59
547.708	-406.35
547.914	-136.02
548.119	216.23
548.325	-342.86
548.531	-353.1
548.736	388.26
548.942	-129.88
549.147	-234.32
549.353	-13.14
549.559	326.82
549.764	85.16
549.97	-260.95
550.175	-308.05
550.381	228.52
550.586	-160.59
550.792	-158.55
550.997	-283.47
551.203	197.8
551.408	130.22
551.614	-414.54
551.819	-189.27
552.025	400.55
552.23	492.71
552.435	-285.52
552.641	-140.12
552.846	-68.44
553.052	398.5
553.257	-144.21
553.462	-254.8
553.668	-80.72
553.873	212.14
554.078	-217.94
554.283	-326.48
554.489	79.02
554.694	1.19
554.899	-357.2
555.105	-66.39
555.31	160.94
555.515	249
555.72	-191.31
555.925	-336.72
556.131	179.37
556.336	-74.58
556.541	-316.24
556.746	-338.77
556.951	318.63
557.156	384.16
557.361	-119.64
557.567	-105.3
557.772	605.35
557.977	203.94
558.182	-219.99
558.387	-236.37
558.592	-56.15
558.797	388.26
559.002	-181.07
559.207	-152.4
559.412	50.35
559.617	441.51
559.822	-277.33
560.027	-363.34
560.232	111.78
560.437	171.18
560.642	-449.36
560.847	-279.38
561.051	-13.14
561.256	134.31
561.461	-250.71
561.666	-332.62
561.871	89.26
562.076	273.57
562.281	-240.47
562.485	-353.1
562.69	197.8
562.895	369.83
563.1	-219.99
563.305	-361.3
563.509	308.39
563.714	564.39
563.919	-254.8
564.123	-271.19
564.328	-4.95
564.533	406.69
564.737	-187.22
564.942	-238.42
565.147	427.17
565.351	507.04
565.556	-160.59
565.761	-121.68
565.965	138.41
566.17	-90.96
566.374	-213.84
566.579	-402.26
566.784	181.42
566.988	11.43
567.193	-289.62
567.397	-318.29
567.602	-234.32
567.806	46.25
568.011	-246.61
568.215	-168.79
568.42	-80.72
568.624	13.48
568.828	-340.82
569.033	-54.1
569.237	160.94
569.442	267.43
569.646	-324.43
569.85	-211.79
570.055	-15.19
570.259	126.12
570.463	-35.67
570.668	-185.17
570.872	44.2
571.076	72.87
571.281	-215.89
571.485	-174.93
571.689	97.45
571.893	158.89
572.098	-86.87
572.302	-242.51
572.506	160.94
572.71	23.72
572.914	-197.46
573.119	-250.71
573.323	412.84
573.527	369.83
573.731	-205.65
573.935	-244.56
574.139	89.26
574.343	-50
574.547	-226.13
574.751	-195.41
574.955	443.56
575.159	349.35
575.364	-310.1
575.568	-349.01
575.772	58.54
575.976	351.4
576.18	-330.58
576.383	-447.31
576.587	273.57
576.791	199.85
576.995	-394.06
577.199	-418.64
577.403	277.67
577.607	281.77
577.811	-320.34
578.015	-119.64
578.219	134.31
578.422	277.67
578.626	-205.65
578.83	-140.12
579.034	347.3
579.238	56.49
579.442	-230.23
579.645	179.37
579.849	-2.9
580.053	64.68
580.257	-246.61
580.46	-164.69
580.664	277.67
580.868	181.42
581.071	-23.38
581.275	-97.11
581.479	-244.56
581.682	150.7
581.886	-271.19
582.09	-119.64
582.293	318.63
582.497	212.14
582.7	-64.34
582.904	-312.14
583.107	99.5
583.311	-74.58
583.515	-136.02
583.718	-172.88
583.922	136.36
584.125	380.07
584.329	-273.23
584.532	11.43
584.735	445.6
584.939	193.7
585.142	-355.15
585.346	-195.41
585.549	81.07
585.753	-7
585.956	-174.93
586.159	-103.25
586.363	425.12
586.566	255.14
586.769	-320.34
586.973	-367.44
587.176	224.42
587.379	294.05
587.582	62.63
587.786	46.25
587.989	31.91
588.192	705.7
588.395	-166.74
588.599	42.15
588.802	97.45
589.005	281.77
589.208	-277.33
589.411	-103.25
589.615	253.09
589.818	445.6
590.021	-19.29
590.224	-82.77
590.427	271.53
590.63	212.14
590.833	-312.14
591.036	-232.27
591.239	27.82
591.442	-50
591.645	-27.48
591.848	-293.71
592.051	48.3
592.254	355.49
592.457	-148.31
592.66	-164.69
592.863	50.35
593.066	165.03
593.269	-244.56
593.472	-68.44
593.675	-121.68
593.878	273.57
594.081	-95.06
594.284	-320.34
594.486	230.57
594.689	101.55
594.892	-82.77
595.095	-195.41
595.298	169.13
595.5	3.24
595.703	-95.06
595.906	-99.16
596.109	441.51
596.311	281.77
596.514	-494.41
596.717	-123.73
596.92	375.97
597.122	189.61
597.325	-396.11
597.528	-219.99
597.73	361.64
597.933	97.45
598.136	-217.94
598.338	-451.41
598.541	175.27
598.743	349.35
598.946	-246.61
599.148	-193.36
599.351	386.21
599.554	316.58
599.756	-97.11
599.959	-205.65
600.161	339.11
600.363	715.94
600.566	91.31
600.768	-181.07
600.971	482.47
601.173	236.71
601.376	-211.79
601.578	-80.72
601.78	175.27
601.983	640.16
602.185	-250.71
602.388	-58.2
602.59	183.46
602.792	27.82
602.995	52.39
603.197	-156.5
603.399	304.29
603.601	152.74
603.804	-140.12
604.006	-226.13
604.208	46.25
604.41	-316.24
604.613	-74.58
604.815	-228.18
605.017	638.11
605.219	-29.52
605.421	234.66
605.623	-232.27
605.826	416.93
606.028	550.05
606.23	-262.99
606.432	-160.59
606.634	531.62
606.836	488.61
607.038	-316.24
607.24	-74.58
607.442	185.51
607.644	140.46
607.846	-33.62
608.048	-240.47
608.25	466.08
608.452	50.35
608.654	-160.59
608.856	-414.54
609.058	115.88
609.26	165.03
609.462	-70.48
609.664	-170.83
609.866	578.72
610.067	265.38
610.269	48.3
610.471	-136.02
610.673	9.39
610.875	302.25
611.077	-332.62
611.278	25.77
611.48	236.71
611.682	574.63
611.884	-115.54
612.085	-64.34
612.287	-133.97
612.489	261.29
612.69	-291.66
612.892	-121.68
613.094	318.63
613.295	214.18
613.497	-242.51
613.699	-197.46
613.9	431.27
614.102	289.96
614.304	-105.3
614.505	-336.72
614.707	52.39
614.908	148.65
615.11	-244.56
615.311	-86.87
615.513	281.77
615.714	289.96
615.916	-299.86
616.117	-17.24
616.319	29.87
616.52	314.53
616.722	-189.27
616.923	-197.46
617.124	394.4
617.326	285.86
617.527	-27.48
617.729	31.91
617.93	269.48
618.131	437.41
618.333	-144.21
618.534	-111.44
618.735	-41.81
618.937	484.52
619.138	-332.62
619.339	-254.8
619.54	357.54
619.742	93.35
619.943	-113.49
620.144	-99.16
620.345	335.01
620.546	433.32
620.748	-283.47
620.949	-93.01
621.15	251.05
621.351	220.33
621.552	-211.79
621.753	-254.8
621.954	-244.56
622.155	742.56
622.356	-195.41
622.558	-54.1
622.759	101.55
622.96	595.11
623.161	-74.58
623.362	-82.77
623.563	81.07
623.764	201.9
623.965	-99.16
624.166	72.87
624.366	48.3
624.567	177.32
624.768	-322.38
624.969	-156.5
625.17	76.97
625.371	330.92
625.572	-39.76
625.773	-230.23
625.973	347.3
626.174	302.25
626.375	-25.43
626.576	13.48
626.777	326.82
626.977	765.09
627.178	-109.4
627.379	27.82
627.58	64.68
627.78	122.02
627.981	5.29
628.182	36.01
628.382	421.03
628.583	-205.65
628.784	-160.59
628.984	58.54
629.185	384.16
629.386	261.29
629.586	-54.1
629.787	-187.22
629.987	267.43
630.188	214.18
630.388	-154.45
630.589	-39.76
630.79	734.37
630.99	169.13
631.191	-29.52
631.391	-21.33
631.591	292.01
631.792	564.39
631.992	40.11
632.193	-185.17
632.393	595.11
632.594	95.4
632.794	-82.77
632.994	58.54
633.195	134.31
633.395	257.19
633.595	-82.77
633.796	109.74
633.996	-56.15
634.196	468.13
634.397	-226.13
634.597	40.11
634.797	29.87
634.997	621.73
635.198	140.46
635.398	-185.17
635.598	294.05
635.798	535.71
635.998	378.02
636.199	-133.97
636.399	87.21
636.599	-80.72
636.799	-127.83
636.999	242.85
637.199	316.58
637.399	476.32
637.599	-76.63
637.799	42.15
637.999	103.59
638.199	529.57
638.399	-162.64
638.599	-58.2
638.799	339.11
638.999	644.26
639.199	81.07
639.399	15.53
639.599	537.76
639.799	11.43
639.999	-138.07
640.199	-168.79
640.399	265.38
640.599	373.92
640.799	25.77
640.998	187.56
641.198	427.17
641.398	240.81
641.598	66.73
641.798	-50
641.997	1170.58
642.197	199.85
642.397	33.96
642.597	-23.38
642.796	314.53
642.996	627.87
643.196	132.26
643.395	-103.25
643.595	382.12
643.795	-131.92
643.994	-31.57
644.194	105.64
644.394	300.2
644.593	275.62
644.793	-164.69
644.992	64.68
645.192	335.01
645.392	-127.83
645.591	124.07
645.791	-56.15
645.99	263.33
646.19	208.04
646.389	97.45
646.589	-33.62
646.788	359.59
646.987	378.02
647.187	222.38
647.386	105.64
647.586	162.98
647.785	361.64
647.984	-0.85
648.184	87.21
648.383	171.18
648.582	132.26
648.782	-9.05
648.981	19.63
649.18	-15.19
649.38	292.01
649.579	-45.91
649.778	-41.81
649.977	421.03
650.177	302.25
650.376	-117.59
650.575	-58.2
650.774	724.13
650.973	89.26
651.173	-209.75
651.372	48.3
651.571	236.71
651.77	482.47
651.969	19.63
652.168	74.92
652.367	-72.53
652.566	191.66
652.765	1.19
652.964	232.62
653.163	720.03
653.362	232.62
653.561	-41.81
653.76	-66.39
653.959	167.08
654.158	330.92
654.357	236.71
654.556	31.91
654.755	312.49
654.954	371.88
655.153	109.74
655.352	89.26
655.551	631.97
655.749	25.77
655.948	72.87
656.147	-7
656.346	406.69
656.545	251.05
656.743	109.74
656.942	132.26
657.141	277.67
657.34	99.5
657.538	-4.95
657.737	27.82
657.936	152.74
658.135	400.55
658.333	3.24
658.532	136.36
658.731	744.61
658.929	461.99
659.128	279.72
659.326	15.53
659.525	531.62
659.724	359.59
659.922	-158.55
660.121	-111.44
660.319	361.64
660.518	50.35
660.716	-47.96
660.915	1.19
661.113	629.92
661.312	5.29
661.51	40.11
661.709	-23.38
661.907	455.84
662.105	640.16
662.304	-4.95
662.502	130.22
662.701	560.29
662.899	146.6
663.097	386.21
663.296	-164.69
663.494	545.95
663.692	658.59
663.891	48.3
664.089	-97.11
664.287	367.78
664.485	695.46
664.684	-52.05
664.882	197.8
665.08	324.77
665.278	371.88
665.476	-97.11
665.675	345.25
665.873	789.66
666.071	607.39
666.269	-35.67
666.467	330.92
666.665	353.45
666.863	320.68
667.061	269.48
667.259	74.92
667.457	285.86
667.655	451.75
667.853	-86.87
668.051	220.33
668.249	171.18
668.447	453.8
668.645	-9.05
668.843	255.14
669.041	392.36
669.239	197.8
669.437	195.75
669.635	173.22
669.833	134.31
670.031	511.14
670.229	173.22
670.426	220.33
670.624	167.08
670.822	103.59
671.02	83.11
671.218	144.55
671.415	128.17
671.613	320.68
671.811	195.75
672.009	81.07
672.206	486.56
672.404	400.55
672.602	396.45
672.799	158.89
672.997	355.49
673.195	550.05
673.392	212.14
673.59	5.29
673.788	488.61
673.985	-95.06
674.183	197.8
674.38	81.07
674.578	474.28
674.775	240.81
674.973	23.72
675.17	15.53
675.368	720.03
675.565	363.69
675.763	56.49
675.96	-21.33
676.158	681.12
676.355	257.19
676.553	52.39
676.75	72.87
676.947	382.12
677.145	332.97
677.342	191.66
677.539	306.34
677.737	392.36
677.934	857.25
678.131	294.05
678.329	175.27
678.526	789.66
678.723	482.47
678.92	277.67
679.118	138.41
679.315	85.16
679.512	722.08
679.709	150.7
679.906	165.03
680.104	627.87
680.301	392.36
680.498	46.25
680.695	15.53
680.892	244.9
681.089	195.75
681.286	158.89
681.483	54.44
681.68	523.43
681.877	531.62
682.075	173.22
682.272	351.4
682.469	437.41
682.665	324.77
682.862	76.97
683.059	-11.09
683.256	416.93
683.453	427.17
683.65	316.58
683.847	236.71
684.044	294.05
684.241	158.89
684.438	216.23
684.635	-11.09
684.831	832.67
685.028	877.73
685.225	160.94
685.422	208.04
685.619	406.69
685.815	400.55
686.012	187.56
686.209	195.75
686.405	111.78
686.602	631.97
686.799	27.82
686.996	70.83
687.192	179.37
687.389	937.12
687.586	144.55
687.782	175.27
687.979	765.09
688.175	619.68
688.372	281.77
688.568	197.8
688.765	347.3
688.962	787.61
689.158	210.09
689.355	19.63
689.551	660.64
689.748	191.66
689.944	320.68
690.14	-4.95
690.337	582.82
690.533	300.2
690.73	449.7
690.926	251.05
691.123	517.28
691.319	457.89
691.515	175.27
691.712	328.87
691.908	617.63
692.104	482.47
692.301	208.04
692.497	66.73
692.693	679.07
692.889	703.65
693.086	253.09
693.282	23.72
693.478	351.4
693.674	799.9
693.87	216.23
694.067	76.97
694.263	441.51
694.459	425.12
694.655	251.05
694.851	263.33
695.047	640.16
695.243	644.26
695.439	349.35
695.635	212.14
695.831	591.01
696.027	490.66
696.224	249
696.42	548
696.615	822.43
696.811	523.43
697.007	44.2
697.203	220.33
697.399	634.02
697.595	707.74
697.791	199.85
697.987	302.25
698.183	203.94
698.379	271.53
698.575	224.42
698.77	279.72
698.966	613.54
699.162	711.84
699.358	277.67
699.554	236.71
699.749	523.43
699.945	629.92
700.141	249
700.337	324.77
700.532	470.18
700.728	326.82
700.924	115.88
701.119	60.59
701.315	580.77
701.511	453.8
701.706	369.83
701.902	79.02
702.097	464.04
702.293	670.88
702.489	277.67
702.684	181.42
702.88	531.62
703.075	431.27
703.271	337.06
703.466	171.18
703.662	394.4
703.857	658.59
704.053	269.48
704.248	230.57
704.443	634.02
704.639	621.73
704.834	318.63
705.03	228.52
705.225	760.99
705.42	765.09
705.616	380.07
705.811	185.51
706.006	351.4
706.202	261.29
706.397	357.54
706.592	72.87
706.787	543.91
706.983	416.93
707.178	470.18
707.373	396.45
707.568	715.94
707.763	830.62
707.959	251.05
708.154	249
708.349	535.71
708.544	574.63
708.739	629.92
708.934	152.74
709.129	693.41
709.324	777.37
709.519	214.18
709.714	122.02
709.909	681.12
710.104	683.17
710.299	265.38
710.494	320.68
710.689	648.35
710.884	554.15
711.079	421.03
711.274	584.87
711.469	601.25
711.664	625.83
711.859	304.29
712.054	402.6
712.249	634.02
712.443	767.13
712.638	240.81
712.833	285.86
713.028	494.76
713.223	490.66
713.417	599.2
713.612	361.64
713.807	705.7
714.002	1150.11
714.196	459.94
714.391	230.57
714.586	638.11
714.78	535.71
714.975	375.97
715.17	384.16
715.364	461.99
715.559	847.01
715.754	70.83
715.948	216.23
716.143	967.84
716.337	507.04
716.532	597.15
716.726	320.68
716.921	699.55
717.115	910.49
717.31	124.07
717.504	799.9
717.699	552.1
717.893	785.57
718.088	287.91
718.282	269.48
718.476	609.44
718.671	683.17
718.865	304.29
719.059	302.25
719.254	525.47
719.448	844.96
719.642	1692.82
719.837	130.22
720.031	767.13
720.225	844.96
720.419	416.93
720.614	310.44
720.808	689.31
721.002	447.65
721.196	228.52
721.39	312.49
721.585	928.92
721.779	629.92
721.973	421.03
722.167	165.03
722.361	685.22
722.555	814.24
722.749	480.42
722.943	392.36
723.137	257.19
723.331	666.78
723.525	421.03
723.719	302.25
723.913	726.18
724.107	949.4
724.301	208.04
724.495	457.89
724.689	1133.72
724.883	834.72
725.077	234.66
725.271	363.69
725.465	883.87
725.659	658.59
725.853	449.7
726.046	199.85
726.24	480.42
726.434	879.77
726.628	357.54
726.822	314.53
727.015	908.44
727.209	836.77
727.403	312.49
727.596	298.15
727.79	859.29
727.984	760.99
728.177	337.06
728.371	445.6
728.565	902.3
728.758	326.82
728.952	285.86
729.146	287.91
729.339	906.4
729.533	543.91
729.726	375.97
729.92	335.01
730.113	922.78
730.307	728.22
730.5	359.59
730.694	324.77
730.887	603.3
731.081	717.98
731.274	324.77
731.468	445.6
731.661	599.2
731.854	570.53
732.048	339.11
732.241	273.57
732.435	457.89
732.628	601.25
732.821	511.14
733.014	345.25
733.208	396.45
733.401	701.6
733.594	408.74
733.788	382.12
733.981	945.31
734.174	758.94
734.367	335.01
734.56	523.43
734.754	953.5
734.947	605.35
735.14	355.49
735.333	470.18
735.526	689.31
735.719	367.78
735.912	429.22
736.105	345.25
736.298	674.98
736.491	515.23
736.684	343.21
736.877	341.16
737.07	717.98
737.263	1088.67
737.456	437.41
737.649	330.92
737.842	541.86
738.035	658.59
738.228	478.37
738.421	572.58
738.614	855.2
738.807	869.53
739	308.39
739.192	246.95
739.385	793.76
739.578	820.38
739.771	683.17
739.964	461.99
740.156	715.94
740.349	672.93
740.542	605.35
740.735	275.62
740.927	449.7
741.12	410.79
741.313	353.45
741.505	515.23
741.698	703.65
741.891	752.8
742.083	543.91
742.276	437.41
742.468	707.74
742.661	609.44
742.854	560.29
743.046	384.16
743.239	1068.19
743.431	617.63
743.624	543.91
743.816	347.3
744.009	646.3
744.201	793.76
744.393	625.83
744.586	271.53
744.778	1068.19
744.971	654.5
745.163	611.49
745.355	615.59
745.548	701.6
745.74	625.83
745.932	513.19
746.125	375.97
746.317	1209.5
746.509	826.53
746.702	527.52
746.894	593.06
747.086	851.1
747.278	947.36
747.471	537.76
747.663	523.43
747.855	707.74
748.047	1158.3
748.239	380.07
748.431	425.12
748.623	1098.91
748.815	1117.34
749.008	427.17
749.2	343.21
749.392	842.91
749.584	898.2
749.776	525.47
749.968	674.98
750.16	1129.63
750.352	709.79
750.544	410.79
750.736	380.07
750.928	799.9
751.12	758.94
751.311	488.61
751.503	521.38
751.695	834.72
751.887	765.09
752.079	271.53
752.271	371.88
752.463	1559.7
752.654	896.16
752.846	674.98
753.038	509.09
753.23	609.44
753.421	902.3
753.613	494.76
753.805	724.13
753.997	973.98
754.188	1006.75
754.38	388.26
754.572	500.9
754.763	640.16
754.955	904.35
755.146	625.83
755.338	588.96
755.53	1012.89
755.721	695.46
755.913	339.11
756.104	392.36
756.296	699.55
756.487	867.49
756.679	371.88
756.87	550.05
757.062	668.83
757.253	838.81
757.445	441.51
757.636	697.5
757.827	750.75
758.019	1412.25
758.21	408.74
758.401	593.06
758.593	1178.78
758.784	1113.24
758.975	410.79
759.167	429.22
759.358	838.81
759.549	1010.84
759.74	476.32
759.932	470.18
760.123	978.08
760.314	582.82
760.505	666.78
760.696	617.63
760.888	1129.63
761.079	814.24
761.27	394.4
761.461	322.73
761.652	1092.76
761.843	689.31
762.034	588.96
762.225	808.09
762.416	672.93
762.607	744.61
762.798	502.95
762.989	437.41
763.18	1629.33
763.371	717.98
763.562	498.85
763.753	574.63
763.944	1109.15
764.135	1062.04
764.326	609.44
764.517	494.76
764.708	793.76
764.899	933.02
765.089	457.89
765.28	369.83
765.471	810.14
765.662	912.54
765.853	515.23
766.043	429.22
766.234	1037.47
766.425	1059.99
766.615	595.11
766.806	349.35
766.997	1117.34
767.187	810.14
767.378	466.08
767.569	310.44
767.759	949.4
767.95	787.61
768.141	621.73
768.331	435.36
768.522	785.57
768.712	949.4
768.903	564.39
769.093	472.23
769.284	1141.91
769.474	890.01
769.665	466.08
769.855	363.69
770.046	982.17
770.236	699.55
770.426	658.59
770.617	375.97
770.807	912.54
770.998	781.47
771.188	699.55
771.378	494.76
771.569	902.3
771.759	935.07
771.949	347.3
772.139	296.1
772.33	900.25
772.52	1242.26
772.71	412.84
772.9	359.59
773.09	1146.01
773.281	1129.63
773.471	533.67
773.661	548
773.851	1088.67
774.041	722.08
774.231	466.08
774.421	695.46
774.611	1193.11
774.802	875.68
774.992	613.54
775.182	580.77
775.372	818.33
775.562	1012.89
775.752	634.02
775.942	550.05
776.131	1191.06
776.321	1008.8
776.511	498.85
776.701	418.98
776.891	1201.3
777.081	470.18
777.271	670.88
777.461	507.04
777.651	1025.18
777.84	1064.09
778.03	695.46
778.22	541.86
778.41	1166.49
778.599	605.35
778.789	634.02
778.979	498.85
779.169	933.02
779.358	836.77
779.548	900.25
779.738	449.7
779.927	973.98
780.117	625.83
780.307	601.25
780.496	375.97
780.686	990.36
780.875	1297.56
781.065	492.71
781.254	566.43
781.444	935.07
781.633	789.66
781.823	459.94
782.012	513.19
782.202	625.83
782.391	908.44
782.581	449.7
782.77	763.04
782.96	1209.5
783.149	742.56
783.338	640.16
783.528	404.64
783.717	1129.63
783.906	1047.71
784.096	760.99
784.285	416.93
784.474	789.66
784.663	695.46
784.853	574.63
785.042	593.06
785.231	707.74
785.42	1094.81
785.61	617.63
785.799	433.32
785.988	687.26
786.177	861.34
786.366	519.33
786.555	826.53
786.744	1049.75
786.933	806.05
787.122	380.07
787.312	378.02
787.501	670.88
787.69	894.11
787.879	521.38
788.068	517.28
788.257	576.67
788.445	801.95
788.634	654.5
788.823	461.99
789.012	1498.26
789.201	1080.47
789.39	648.35
789.579	390.31
789.768	1006.75
789.957	822.43
790.145	531.62
790.334	249
790.523	740.51
790.712	701.6
790.9	705.7
791.089	412.84
791.278	1115.29
791.467	976.03
791.655	822.43
791.844	1037.47
792.033	742.56
792.221	804
792.41	644.26
792.599	490.66
792.787	994.46
792.976	1000.6
793.164	433.32
793.353	576.67
793.541	1113.24
793.73	1037.47
793.918	648.35
794.107	562.34
794.295	814.24
794.484	842.91
794.672	601.25
794.861	582.82
795.049	1066.14
795.238	1338.52
795.426	429.22
795.614	648.35
795.803	1004.7
795.991	1146.01
796.179	636.06
796.368	588.96
796.556	1219.74
796.744	648.35
796.932	433.32
797.121	461.99
797.309	916.64
797.497	959.64
797.685	699.55
797.874	591.01
798.062	765.09
798.25	1150.11
798.438	511.14
798.626	517.28
798.814	967.84
799.002	1313.94
799.19	847.01
799.378	634.02
799.566	1121.43
799.755	1154.2
799.943	769.18
800.131	523.43
800.318	943.26
800.506	1055.9
800.694	576.67
800.882	730.27
801.07	1125.53
801.258	896.16
801.446	629.92
801.634	588.96
801.822	933.02
802.01	820.38
802.197	586.91
802.385	730.27
802.573	1002.65
802.761	717.98
802.949	760.99
803.136	523.43
803.324	1131.67
803.512	912.54
803.699	765.09
803.887	519.33
804.075	1277.08
804.262	842.91
804.45	564.39
804.638	783.52
804.825	623.78
805.013	746.66
805.201	689.31
805.388	552.1
805.576	949.4
805.763	1289.37
805.951	720.03
806.138	887.97
806.326	1277.08
806.513	1105.05
806.701	769.18
806.888	609.44
807.075	928.92
807.263	1223.83
807.45	507.04
807.638	855.2
807.825	1367.19
808.012	1186.97
808.2	656.54
808.387	900.25
808.574	1051.8
808.761	1266.84
808.949	621.73
809.136	787.61
809.323	955.55
809.51	896.16
809.698	1004.7
809.885	914.59
810.072	1047.71
810.259	1176.73
810.446	793.76
810.633	695.46
810.82	1186.97
811.008	1320.09
811.195	873.63
811.382	818.33
811.569	844.96
811.756	586.91
811.943	826.53
812.13	797.85
812.317	957.6
812.504	894.11
812.691	914.59
812.878	857.25
813.064	1442.96
813.251	1037.47
813.438	625.83
813.625	857.25
813.812	1006.75
813.999	976.03
814.186	820.38
814.372	885.92
814.559	1156.25
814.746	1338.52
814.933	816.29
815.12	969.88
815.306	873.63
815.493	828.57
815.68	771.23
815.866	752.8
816.053	1313.94
816.24	1506.45
816.426	912.54
816.613	582.82
816.799	1174.68
816.986	1264.79
817.173	679.07
817.359	746.66
817.546	1023.13
817.732	826.53
817.919	515.23
818.105	842.91
818.292	951.45
818.478	1186.97
818.665	939.16
818.851	760.99
819.037	1662.1
819.224	1059.99
819.41	599.2
819.597	799.9
819.783	1447.06
819.969	1221.78
820.156	883.87
820.342	724.13
820.528	1797.26
820.714	1014.94
820.901	1088.67
821.087	826.53
821.273	1459.35
821.459	971.93
821.646	787.61
821.832	744.61
822.018	1041.56
822.204	1227.93
822.39	765.09
822.576	703.65
822.762	1252.5
822.948	1258.65
823.134	992.41
823.32	838.81
823.507	711.84
823.693	1080.47
823.879	1201.3
824.065	769.18
824.25	1154.2
824.436	834.72
824.622	781.47
824.808	693.41
824.994	949.4
825.18	949.4
825.366	726.18
825.552	726.18
825.738	949.4
825.923	1293.46
826.109	1103
826.295	767.13
826.481	992.41
826.667	1019.04
826.852	992.41
827.038	709.79
827.224	1289.37
827.409	1508.5
827.595	740.51
827.781	1082.52
827.966	1373.33
828.152	1309.85
828.338	865.44
828.523	642.21
828.709	867.49
828.894	1352.85
829.08	902.3
829.266	713.89
829.451	871.58
829.637	1219.74
829.822	963.74
830.008	748.7
830.193	1383.57
830.378	1381.53
830.564	908.44
830.749	693.41
830.935	1164.44
831.12	1303.7
831.305	785.57
831.491	930.97
831.676	816.29
831.861	1297.56
832.047	875.68
832.232	711.84
832.417	1457.3
832.602	1162.39
832.788	812.19
832.973	728.22
833.158	1031.32
833.343	1119.39
833.528	904.35
833.714	908.44
833.899	1309.85
834.084	1516.69
834.269	990.36
834.454	853.15
834.639	1371.29
834.824	1074.33
835.009	930.97
835.194	1031.32
835.379	1240.22
835.564	1485.97
835.749	924.83
835.934	726.18
836.119	1246.36
836.304	1035.42
836.489	777.37
836.674	1211.54
836.859	847.01
837.044	1363.09
837.228	771.23
837.413	650.4
837.598	1123.48
837.783	1326.23
837.968	890.01
838.152	697.5
838.337	720.03
838.522	1483.92
838.707	1238.17
838.891	1006.75
839.076	1236.12
839.261	1359
839.445	861.34
839.63	945.31
839.815	1533.08
839.999	1068.19
840.184	836.77
840.368	877.73
840.553	1399.96
840.737	1322.13
840.922	693.41
841.106	752.8
841.291	894.11
841.475	1176.73
841.66	869.53
841.844	918.68
842.029	1797.26
842.213	814.24
842.397	826.53
842.582	674.98
842.766	1430.68
842.951	1373.33
843.135	933.02
843.319	816.29
843.504	1244.31
843.688	1305.75
843.872	685.22
844.056	711.84
844.241	1199.26
844.425	1023.13
844.609	1090.71
844.793	687.26
844.977	1311.89
845.161	1203.35
845.346	670.88
845.53	795.81
845.714	1158.3
845.898	1451.16
846.082	687.26
846.266	869.53
846.45	1189.02
846.634	1121.43
846.818	908.44
847.002	1090.71
847.186	1252.5
847.37	894.11
847.554	838.81
847.738	973.98
847.922	1219.74
848.106	1283.22
848.29	785.57
848.473	820.38
848.657	1442.96
848.841	1100.95
849.025	967.84
849.209	775.33
849.392	1330.33
849.576	982.17
849.76	572.58
849.944	961.69
850.127	1469.59
850.311	904.35
850.495	691.36
850.678	779.42
850.862	1365.14
851.046	1516.69
851.229	1139.87
851.413	711.84
851.596	1131.67
851.78	1109.15
851.964	955.55
852.147	826.53
852.331	1836.17
852.514	1404.05
852.698	947.36
852.881	717.98
853.065	1418.39
853.248	1088.67
853.431	1023.13
853.615	1012.89
853.798	1670.29
853.982	1313.94
854.165	1068.19
854.348	867.49
854.532	959.64
854.715	1037.47
854.898	824.48
855.081	963.74
855.265	1412.25
855.448	1608.85
855.631	765.09
855.814	885.92
855.997	1285.27
856.181	1137.82
856.364	982.17
856.547	654.5
856.73	1203.35
856.913	1162.39
857.096	720.03
857.279	896.16
857.462	976.03
857.645	1379.48
857.828	943.26
858.011	1002.65
858.194	1055.9
858.377	1420.44
858.56	701.6
858.743	965.79
858.926	941.21
859.109	1330.33
859.292	904.35
859.475	713.89
859.658	1471.64
859.841	1172.63
860.023	746.66
860.206	840.86
860.389	1172.63
860.572	1402.01
860.755	879.77
860.937	830.62
861.12	1154.2
861.303	1141.91
861.486	885.92
861.668	763.04
861.851	1383.57
862.034	1172.63
862.216	994.46
862.399	826.53
862.581	1219.74
862.764	1551.51
862.947	863.39
863.129	797.85
863.312	892.06
863.494	1516.69
863.677	1180.82
863.859	728.22
864.042	1371.29
864.224	1453.2
864.406	988.32
864.589	681.12
864.771	1189.02
864.954	859.29
865.136	752.8
865.318	701.6
865.501	1375.38
865.683	763.04
865.865	808.09
866.048	881.82
866.23	1189.02
866.412	1156.25
866.594	658.59
866.777	965.79
866.959	1215.64
867.141	1000.6
867.323	1098.91
867.505	1023.13
867.687	1092.76
867.869	1072.28
868.052	916.64
868.234	793.76
868.416	1076.38
868.598	1305.75
868.78	830.62
868.962	793.76
869.144	1481.88
869.326	1328.28
869.508	793.76
869.69	662.69
869.872	969.88
870.054	1461.4
870.236	722.08
870.417	863.39
870.599	1064.09
870.781	1457.3
870.963	1033.37
871.145	760.99
871.327	918.68
871.508	1395.86
871.69	847.01
871.872	877.73
872.054	1160.34
872.235	1250.46
872.417	986.27
872.599	732.32
872.78	1455.25
872.962	1162.39
873.144	818.33
873.325	1000.6
873.507	1506.45
873.689	1244.31
873.87	820.38
874.052	871.58
874.233	1189.02
874.415	1320.09
874.596	887.97
874.778	771.23
874.959	1189.02
875.141	1373.33
875.322	935.07
875.503	894.11
875.685	1258.65
875.866	875.68
876.048	744.61
876.229	760.99
876.41	1213.59
876.592	1336.47
876.773	752.8
876.954	642.21
877.136	1561.75
877.317	1059.99
877.498	810.14
877.679	980.12
877.86	1242.26
878.042	1240.22
878.223	771.23
878.404	1240.22
878.585	1369.24
878.766	1598.61
878.947	1199.26
879.128	1088.67
879.309	1352.85
879.49	1498.26
879.672	1019.04
879.853	945.31
880.034	898.2
880.215	1156.25
880.396	1051.8
880.576	930.97
880.757	904.35
880.938	1434.77
881.119	754.85
881.3	933.02
881.481	965.79
881.662	2129.03
881.843	824.48
882.023	812.19
882.204	1139.87
882.385	1238.17
882.566	904.35
882.747	937.12
882.927	1209.5
883.108	1297.56
883.289	924.83
883.469	1180.82
883.65	1057.95
883.831	1303.7
884.011	1264.79
884.192	1029.27
884.373	1571.99
884.553	1363.09
884.734	973.98
884.914	1301.65
885.095	1899.66
885.275	1643.67
885.456	1232.02
885.636	799.9
885.817	1127.58
885.997	1225.88
886.178	822.43
886.358	1047.71
886.538	1391.77
886.719	2270.34
886.899	924.83
887.08	1180.82
887.26	1494.16
887.44	1139.87
887.621	859.29
887.801	1025.18
887.981	1789.07
888.161	1457.3
888.342	1113.24
888.522	1084.57
888.702	1614.99
888.882	1606.8
889.062	1277.08
889.242	779.42
889.423	1922.19
889.603	1469.59
889.783	1086.62
889.963	1035.42
890.143	1404.05
890.323	1567.89
890.503	1103
890.683	1205.4
890.863	1354.9
891.043	1404.05
891.223	1244.31
891.403	1334.42
891.583	1248.41
891.763	1445.01
891.943	1076.38
892.122	1012.89
892.302	1410.2
892.482	1244.31
892.662	1291.41
892.842	1109.15
893.022	1481.88
893.201	1248.41
893.381	1227.93
893.561	1195.16
893.741	1526.93
893.92	1440.92
894.1	1232.02
894.28	1178.78
894.459	1584.27
894.639	1424.53
894.819	1039.51
894.998	1299.61
895.178	1402.01
895.357	1545.36
895.537	1051.8
895.716	1029.27
895.896	1467.54
896.075	1756.3
896.255	1154.2
896.434	941.21
896.614	1690.77
896.793	1676.43
896.973	1225.88
897.152	1229.98
897.331	1445.01
897.511	1678.48
897.69	1029.27
897.87	1313.94
898.049	1623.19
898.228	1494.16
898.407	1369.24
898.587	1164.44
898.766	1207.45
898.945	1576.08
899.124	1393.81
899.304	1293.46
899.483	1629.33
899.662	1752.21
899.841	1180.82
900.02	1088.67
900.199	1772.69
900.378	1576.08
900.557	1086.62
900.737	1086.62
900.916	1537.17
901.095	1455.25
901.274	1469.59
901.453	1131.67
901.632	1223.83
901.811	1270.94
901.989	1160.34
902.168	1234.07
902.347	1596.56
902.526	1283.22
902.705	1264.79
902.884	1246.36
903.063	1797.26
903.242	1653.91
903.42	1125.53
903.599	1180.82
903.778	1643.67
903.957	1784.98
904.135	1305.75
904.314	1160.34
904.493	1375.38
904.672	1526.93
904.85	1178.78
905.029	1129.63
905.207	1500.31
905.386	2225.29
905.565	1039.51
905.743	1170.58
905.922	1369.24
906.1	1670.29
906.279	1150.11
906.457	1051.8
906.636	1389.72
906.814	1293.46
906.993	1170.58
907.171	1080.47
907.35	1621.14
907.528	1549.46
907.707	1467.54
907.885	1100.95
908.063	1827.98
908.242	1354.9
908.42	1033.37
908.598	900.25
908.777	1449.11
908.955	1371.29
909.133	1266.84
909.311	1035.42
909.49	1229.98
909.668	1361.05
909.846	1166.49
910.024	959.64
910.202	1508.5
910.38	1506.45
910.559	1016.99
910.737	1080.47
910.915	1502.36
911.093	1383.57
911.271	1072.28
911.449	1277.08
911.627	1461.4
911.805	1832.08
911.983	1084.57
912.161	1055.9
912.339	1453.2
912.517	1668.24
912.695	1270.94
912.872	1154.2
913.05	1141.91
913.228	1371.29
913.406	1103
913.584	1113.24
913.762	1531.03
913.939	1193.11
914.117	1045.66
914.295	1004.7
914.473	1512.6
914.65	1410.2
914.828	1033.37
915.006	1039.51
915.184	1086.62
915.361	1445.01
915.539	1375.38
915.716	1350.81
915.894	1526.93
916.072	1571.99
916.249	1445.01
916.427	1318.04
916.604	1068.19
916.782	1445.01
916.959	1113.24
917.137	1084.57
917.314	1377.43
917.492	1512.6
917.669	1164.44
917.847	1303.7
918.024	1373.33
918.201	1121.43
918.379	1117.34
918.556	1043.61
918.733	1586.32
918.911	1248.41
919.088	1260.7
919.265	1033.37
919.442	1438.87
919.62	1359
919.797	1125.53
919.974	957.6
920.151	1328.28
920.328	1391.77
920.506	1000.6
920.683	1143.96
920.86	1041.56
921.037	1066.14
921.214	1096.86
921.391	967.84
921.568	1395.86
921.745	1037.47
921.922	1072.28
922.099	1019.04
922.276	1459.35
922.453	1293.46
922.63	992.41
922.807	1330.33
922.984	1322.13
923.161	1123.48
923.338	1008.8
923.514	949.4
923.691	1289.37
923.868	1281.18
924.045	990.36
924.222	935.07
924.399	1326.23
924.575	1592.47
924.752	1051.8
924.929	1023.13
925.105	1293.46
925.282	1111.19
925.459	992.41
925.635	1000.6
925.812	1375.38
925.989	990.36
926.165	1103
926.342	763.04
926.518	1045.66
926.695	1197.21
926.871	941.21
927.048	973.98
927.224	1442.96
927.401	1182.87
927.577	1043.61
927.754	822.43
927.93	1438.87
928.107	1305.75
928.283	851.1
928.459	1113.24
928.636	1352.85
928.812	1129.63
928.988	881.82
929.165	738.46
929.341	1195.16
929.517	1207.45
929.693	1182.87
929.87	703.65
930.046	1260.7
930.222	1090.71
930.398	861.34
930.574	1004.7
930.751	1186.97
930.927	1051.8
931.103	937.12
931.279	986.27
931.455	894.11
931.631	1135.77
931.807	742.56
931.983	679.07
932.159	752.8
932.335	1148.06
932.511	898.2
932.687	799.9
932.863	1137.82
933.039	1191.06
933.215	717.98
933.391	732.32
933.566	1053.85
933.742	1156.25
933.918	838.81
934.094	720.03
934.27	1066.14
934.445	1039.51
934.621	908.44
934.797	754.85
934.973	1209.5
935.148	1096.86
935.324	629.92
935.5	623.78
935.675	1262.74
935.851	1074.33
936.027	826.53
936.202	799.9
936.378	1006.75
936.553	957.6
936.729	1055.9
936.904	640.16
937.08	691.36
937.255	674.98
937.431	580.77
937.606	490.66
937.782	736.42
937.957	890.01
938.133	662.69
938.308	586.91
938.483	869.53
938.659	488.61
938.834	670.88
939.009	507.04
939.185	687.26
939.36	629.92
939.535	312.49
939.71	619.68
939.886	1012.89
940.061	902.3
940.236	779.42
940.411	601.25
940.586	801.95
940.761	853.15
940.937	576.67
941.112	402.6
941.287	777.37
941.462	771.23
941.637	404.64
941.812	490.66
941.987	808.09
942.162	662.69
942.337	523.43
942.512	496.8
942.687	947.36
942.862	910.49
943.037	400.55
943.212	109.74
943.386	603.3
943.561	668.83
943.736	656.54
943.911	705.7
944.086	732.32
944.26	713.89
944.435	404.64
944.61	486.56
944.785	918.68
944.959	1193.11
945.134	529.57
945.309	375.97
945.483	394.4
945.658	883.87
945.833	191.66
946.007	312.49
946.182	1019.04
946.357	380.07
946.531	339.11
946.706	294.05
946.88	240.81
947.055	685.22
947.229	371.88
947.404	257.19
947.578	867.49
947.752	515.23
947.927	265.38
948.101	122.02
948.276	672.93
948.45	621.73
948.624	629.92
948.799	349.35
948.973	722.08
949.147	361.64
949.321	335.01
949.496	451.75
949.67	892.06
949.844	502.95
950.018	418.98
950.193	386.21
950.367	1092.76
950.541	539.81
950.715	531.62
950.889	461.99
951.063	449.7
951.237	826.53
951.411	119.98
951.585	238.76
951.759	664.74
951.933	511.14
952.107	326.82
952.281	492.71
952.455	883.87
952.629	806.05
952.803	384.16
952.977	429.22
953.151	783.52
953.325	744.61
953.499	607.39
953.672	277.67
953.846	369.83
954.02	455.84
954.194	314.53
954.368	259.24
954.541	758.94
954.715	488.61
954.889	490.66
955.062	279.72
955.236	611.49
955.41	492.71
955.583	525.47
955.757	130.22
955.93	502.95
956.104	335.01
956.278	355.49
956.451	363.69
956.625	736.42
956.798	1027.23
956.972	703.65
957.145	320.68
957.319	539.81
957.492	629.92
957.665	527.52
957.839	275.62
958.012	722.08
958.185	418.98
958.359	421.03
958.532	453.8
958.705	785.57
958.879	722.08
959.052	421.03
959.225	253.09
959.398	588.96
959.572	697.5
959.745	304.29
959.918	484.52
960.091	525.47
960.264	681.12
960.438	255.14
960.611	251.05
960.784	752.8
960.957	451.75
961.13	726.18
961.303	294.05
961.476	619.68
961.649	724.13
961.822	275.62
961.995	433.32
962.168	828.57
962.341	617.63
962.514	365.73
962.686	367.78
962.859	543.91
963.032	695.46
963.205	351.4
963.378	244.9
963.551	611.49
963.723	566.43
963.896	490.66
964.069	568.48
964.242	631.97
964.414	861.34
964.587	418.98
964.76	482.47
964.932	611.49
965.105	599.2
965.278	296.1
965.45	238.76
965.623	607.39
965.795	707.74
965.968	441.51
966.14	285.86
966.313	564.39
966.485	687.26
966.658	343.21
966.83	300.2
967.003	885.92
967.175	875.68
967.348	412.84
967.52	380.07
967.692	930.97
967.865	830.62
968.037	330.92
968.209	674.98
968.382	638.11
968.554	804
968.726	347.3
968.898	255.14
969.071	595.11
969.243	668.83
969.415	421.03
969.587	427.17
969.759	1059.99
969.932	924.83
970.104	304.29
970.276	36.01
970.448	451.75
970.62	378.02
970.792	496.8
970.964	437.41
971.136	1006.75
971.308	685.22
971.48	285.86
971.652	359.59
971.824	947.36
971.996	425.12
972.168	394.4
972.339	461.99
972.511	842.91
972.683	435.36
972.855	597.15
973.027	390.31
973.199	580.77
973.37	765.09
973.542	580.77
973.714	433.32
973.886	631.97
974.057	834.72
974.229	322.73
974.401	261.29
974.572	437.41
974.744	222.38
974.915	277.67
975.087	363.69
975.259	941.21
975.43	384.16
975.602	353.45
975.773	261.29
975.945	392.36
976.116	777.37
976.288	263.33
976.459	480.42
976.63	492.71
976.802	777.37
976.973	292.01
977.145	416.93
977.316	957.6
977.487	1006.75
977.659	369.83
977.83	335.01
978.001	953.5
978.172	580.77
978.344	253.09
978.515	337.06
978.686	421.03
978.857	1004.7
979.028	394.4
979.2	285.86
979.371	842.91
979.542	582.82
979.713	550.05
979.884	-45.91
980.055	394.4
980.226	451.75
980.397	302.25
980.568	320.68
980.739	838.81
980.91	515.23
981.081	556.19
981.252	130.22
981.423	605.35
981.594	713.89
981.765	195.75
981.936	461.99
982.106	545.95
982.277	769.18
982.448	279.72
982.619	461.99
982.79	558.24
982.96	824.48
983.131	406.69
983.302	93.35
983.472	490.66
983.643	687.26
983.814	384.16
983.984	212.14
984.155	566.43
984.326	791.71
984.496	418.98
984.667	314.53
984.837	363.69
985.008	877.73
985.178	328.87
985.349	357.54
985.519	599.2
985.69	253.09
985.86	396.45
986.031	214.18
986.201	552.1
986.371	677.02
986.542	140.46
986.712	27.82
986.882	687.26
987.053	548
987.223	269.48
987.393	466.08
987.563	527.52
987.734	685.22
987.904	548
988.074	277.67
988.244	601.25
988.414	320.68
988.585	185.51
988.755	367.78
988.925	525.47
989.095	920.73
989.265	214.18
989.435	349.35
989.605	597.15
989.775	679.07
989.945	509.09
990.115	138.41
990.285	515.23
990.455	529.57
990.625	410.79
990.795	169.13
990.965	838.81
991.134	353.45
991.304	173.22
991.474	263.33
991.644	580.77
991.814	812.19
991.984	105.64
992.153	244.9
992.323	447.65
992.493	470.18
992.662	48.3
992.832	359.59
993.002	519.33
993.171	623.78
993.341	97.45
993.511	404.64
993.68	435.36
993.85	634.02
994.019	17.58
994.189	179.37
994.358	570.53
994.528	412.84
994.697	5.29
994.867	144.55
995.036	672.93
995.206	435.36
995.375	171.18
995.544	306.34
995.714	574.63
995.883	380.07
996.052	382.12
996.222	15.53
996.391	990.36
996.56	515.23
996.73	72.87
996.899	36.01
997.068	818.33
997.237	441.51
997.406	162.98
997.576	62.63
997.745	523.43
997.914	560.29
998.083	-90.96
998.252	201.9
998.421	339.11
998.59	316.58
998.759	-25.43
998.928	-17.24
999.097	801.95
999.266	523.43
999.435	230.57
999.604	-54.1
999.773	965.79
999.942	431.27
1000.111	3.24
1000.28	-7
1000.448	322.73
1000.617	177.32
1000.786	343.21
1000.955	1.19
1001.124	548
1001.292	1055.9
1001.461	126.12
1001.63	-7
1001.798	728.22
1001.967	730.27
1002.136	-78.68
1002.304	27.82
1002.473	521.38
1002.642	507.04
1002.81	97.45
1002.979	87.21
1003.147	582.82
1003.316	1035.42
1003.484	140.46
1003.653	-52.05
1003.821	687.26
1003.99	345.25
1004.158	304.29
1004.327	158.89
1004.495	607.39
1004.663	283.81
1004.832	220.33
1005	-29.52
1005.168	552.1
1005.337	488.61
1005.505	-47.96
1005.673	318.63
1005.842	539.81
1006.01	494.76
1006.178	50.35
1006.346	97.45
1006.514	478.37
1006.683	652.45
1006.851	99.5
1007.019	-68.44
1007.187	240.81
1007.355	-82.77
1007.523	-111.44
1007.691	-105.3
1007.859	70.83
1008.027	650.4
1008.195	83.11
1008.363	15.53
1008.531	631.97
1008.699	236.71
1008.867	-107.35
1009.035	70.83
1009.203	760.99
1009.37	306.34
1009.538	109.74
1009.706	461.99
1009.874	441.51
1010.042	277.67
1010.209	-9.05
1010.377	-58.2
1010.545	650.4
1010.713	326.82
1010.88	36.01
1011.048	101.55
1011.216	269.48
1011.383	681.12
1011.551	-45.91
1011.718	-66.39
1011.886	535.71
1012.054	396.45
1012.221	64.68
1012.389	-66.39
1012.556	384.16
1012.724	830.62
1012.891	76.97
1013.058	-250.71
1013.226	423.08
1013.393	539.81
1013.561	-21.33
1013.728	-95.06
1013.895	568.48
1014.063	468.13
1014.23	-60.24
1014.397	1.19
1014.565	646.3
1014.732	246.95
1014.899	46.25
1015.066	-66.39
1015.233	423.08
1015.401	613.54
1015.568	15.53
1015.735	101.55
1015.902	285.86
1016.069	504.99
1016.236	15.53
1016.403	-58.2
1016.57	128.17
1016.737	574.63
1016.904	7.34
1017.071	-131.92
1017.238	156.84
1017.405	502.95
1017.572	-21.33
1017.739	175.27
1017.906	445.6
1018.073	627.87
1018.24	-93.01
1018.407	91.31
1018.573	584.87
1018.74	281.77
1018.907	25.77
1019.074	-224.08
1019.241	601.25
1019.407	394.4
1019.574	-17.24
1019.741	-154.45
1019.907	453.8
1020.074	511.14
1020.241	-164.69
1020.407	-80.72
1020.574	367.78
1020.74	521.38
1020.907	-66.39
1021.073	-99.16
1021.24	814.24
1021.406	670.88
1021.573	-82.77
1021.739	-107.35
1021.906	607.39
1022.072	242.85
1022.239	-52.05
1022.405	-47.96
1022.571	285.86
1022.738	253.09
1022.904	-119.64
1023.07	7.34
1023.237	347.3
1023.403	494.76
1023.569	-74.58
1023.735	1.19
1023.902	365.73
1024.068	371.88
1024.234	-168.79
1024.4	-70.48
1024.566	437.41
1024.732	492.71
1024.898	-0.85
1025.065	-170.83
1025.231	441.51
1025.397	240.81
1025.563	-4.95
1025.729	-82.77
1025.895	-90.96
1026.061	158.89
1026.227	-265.04
1026.392	-27.48
1026.558	586.91
1026.724	380.07
1026.89	-99.16
1027.056	17.58
1027.222	400.55
1027.388	267.43
1027.553	-13.14
1027.719	-156.5
1027.885	642.21
1028.051	474.28
1028.216	-301.9
1028.382	-39.76
1028.548	617.63
1028.713	265.38
1028.879	-172.88
1029.045	183.46
1029.21	652.45
1029.376	597.15
1029.541	19.63
1029.707	-9.05
1029.873	367.78
1030.038	400.55
1030.204	-35.67
1030.369	-62.29
1030.534	496.8
1030.7	208.04
1030.865	-25.43
1031.031	-78.68
1031.196	478.37
1031.361	400.55
1031.527	-107.35
1031.692	-166.74
1031.857	-82.77
1032.023	461.99
1032.188	-136.02
1032.353	-15.19
1032.518	580.77
1032.684	349.35
1032.849	-193.36
1033.014	-54.1
1033.179	459.94
1033.344	429.22
1033.509	74.92
1033.674	-105.3
1033.839	437.41
1034.004	392.36
1034.17	-54.1
1034.335	-219.99
1034.5	251.05
1034.664	162.98
1034.829	-140.12
1034.994	-90.96
1035.159	353.45
1035.324	357.54
1035.489	-80.72
1035.654	-93.01
1035.819	658.59
1035.984	330.92
1036.148	-78.68
1036.313	-27.48
1036.478	521.38
1036.643	359.59
1036.807	-146.26
1036.972	-129.88
1037.137	574.63
1037.301	402.6
1037.466	-250.71
1037.631	62.63
1037.795	578.72
1037.96	296.1
1038.124	177.32
1038.289	-97.11
1038.454	429.22
1038.618	416.93
1038.783	-74.58
1038.947	-2.9
1039.111	294.05
1039.276	146.6
1039.44	-70.48
1039.605	429.22
1039.769	236.71
1039.933	234.66
1040.098	-13.14
1040.262	117.93
1040.426	531.62
1040.591	378.02
1040.755	-123.73
1040.919	-105.3
1041.083	392.36
1041.248	230.57
1041.412	-287.57
1041.576	-146.26
1041.74	228.52
1041.904	498.85
1042.068	-195.41
1042.232	-74.58
1042.397	502.95
1042.561	378.02
1042.725	-406.35
1042.889	27.82
1043.053	437.41
1043.217	423.08
1043.381	50.35
1043.544	-297.81
1043.708	507.04
1043.872	15.53
1044.036	-308.05
1044.2	-240.47
1044.364	543.91
1044.528	609.44
1044.691	3251.32
1044.855	-203.6
1045.019	513.19
1045.183	468.13
1045.346	-4.95
1045.51	-181.07
1045.674	332.97
1045.837	404.64
1046.001	-62.29
1046.165	-107.35
1046.328	832.67
1046.492	373.92
1046.655	48.3
1046.819	-19.29
1046.983	263.33
1047.146	367.78
1047.31	-45.91
1047.473	-308.05
1047.636	302.25
1047.8	115.88
1047.963	-80.72
1048.127	-119.64
1048.29	126.12
