Data from Ink_Intensity_USB4F045381__165__00165.txt Node

Date: Mon Jul 17 11:35:24 EDT 2023
User: mmckonesweet
Spectrometer: USB4F04538
Trigger mode: 4
Integration Time (sec): 9.000000E-1
Scans to average: 1
Electric dark correction enabled: true
Nonlinearity correction enabled: false
Boxcar width: 0
XAxis mode: Wavelengths
Number of Pixels in Spectrum: 3648
>>>>>Begin Spectral Data<<<<<
345.52	-1032.18
345.736	-1032.18
345.952	-1032.18
346.168	-1009.65
346.384	-999.41
346.6	-182.27
346.816	-276.48
347.032	-180.22
347.248	319.48
347.464	-239.61
347.68	-141.31
347.896	159.74
348.112	389.11
348.328	-67.58
348.544	-40.96
348.76	-6.14
348.975	266.24
349.191	-253.95
349.407	-235.52
349.623	-18.43
349.839	-75.77
350.055	-190.46
350.27	38.91
350.486	147.45
350.702	288.76
350.918	186.37
351.133	-188.41
351.349	145.41
351.565	331.77
351.781	-245.76
351.996	-75.77
352.212	192.51
352.428	-120.83
352.644	-165.89
352.859	-245.76
353.075	288.76
353.291	40.96
353.506	-112.64
353.722	-284.67
353.938	-45.06
354.153	468.98
354.369	28.67
354.584	-247.8
354.8	243.71
355.016	-323.58
355.231	-260.09
355.447	-94.21
355.662	120.83
355.878	804.85
356.093	-288.76
356.309	-28.67
356.524	-182.27
356.74	299
356.955	-161.79
357.171	-51.2
357.386	159.74
357.602	-169.98
357.817	-8.19
358.033	-149.5
358.248	401.4
358.464	159.74
358.679	-104.45
358.895	-346.11
359.11	10.24
359.325	319.48
359.541	47.1
359.756	22.53
359.972	-335.87
360.187	169.98
360.402	-178.17
360.618	-129.02
360.833	987.12
361.048	143.36
361.264	-225.28
361.479	-53.25
361.694	-8.19
361.909	108.54
362.125	-194.56
362.34	-141.31
362.555	231.42
362.77	137.21
362.986	-268.28
363.201	-190.46
363.416	202.75
363.631	59.39
363.847	-186.37
364.062	-122.88
364.277	149.5
364.492	126.97
364.707	-204.8
364.922	-346.11
365.138	219.13
365.353	415.74
365.568	-272.38
365.783	-172.03
365.998	184.32
366.213	595.96
366.428	-221.18
366.643	38.91
366.858	155.65
367.073	198.65
367.288	-159.74
367.503	-184.32
367.718	112.64
367.933	372.73
368.148	-305.15
368.363	-10.24
368.578	57.34
368.793	505.85
369.008	-131.07
369.223	-305.15
369.438	237.56
369.653	327.68
369.868	-270.33
370.083	-245.76
370.298	118.78
370.513	323.58
370.728	73.73
370.943	-188.41
371.157	-186.37
371.372	567.29
371.587	-286.72
371.802	-323.58
372.017	100.35
372.232	475.13
372.446	-40.96
372.661	-256
372.876	176.13
373.091	100.35
373.306	-108.54
373.52	-274.43
373.735	-176.13
373.95	419.83
374.165	-157.69
374.379	-182.27
374.594	-100.35
374.809	167.93
375.023	26.62
375.238	-157.69
375.453	219.13
375.667	-323.58
375.882	-163.84
376.097	-223.23
376.311	12.29
376.526	-75.77
376.741	-256
376.955	133.12
377.17	532.47
377.384	534.52
377.599	20.48
377.813	-333.82
378.028	575.48
378.242	114.69
378.457	-61.44
378.672	-366.59
378.886	38.91
379.101	-8.19
379.315	-282.62
379.53	-137.21
379.744	149.5
379.958	147.45
380.173	-192.51
380.387	-172.03
380.602	79.87
380.816	-100.35
381.031	-116.73
381.245	-163.84
381.459	198.65
381.674	2697.17
381.888	-221.18
382.103	65.54
382.317	-159.74
382.531	489.46
382.746	-83.97
382.96	-157.69
383.174	-141.31
383.388	419.83
383.603	94.21
383.817	-276.48
384.031	137.21
384.246	466.94
384.46	-30.72
384.674	364.54
384.888	40.96
385.103	63.49
385.317	-329.72
385.531	-65.53
385.745	294.91
385.959	268.28
386.174	-296.96
386.388	-294.91
386.602	47.1
386.816	-145.41
387.03	-96.25
387.244	-108.54
387.458	73.73
387.672	366.59
387.887	-239.61
388.101	-251.9
388.315	270.33
388.529	200.7
388.743	-116.73
388.957	-368.63
389.171	358.39
389.385	-96.25
389.599	-157.69
389.813	14.34
390.027	122.88
390.241	610.29
390.455	-100.35
390.669	-79.87
390.883	-96.25
391.097	440.31
391.311	59.39
391.525	-108.54
391.738	231.42
391.952	110.59
392.166	-129.02
392.38	-204.8
392.594	182.27
392.808	354.3
393.022	-59.39
393.236	-100.35
393.449	149.5
393.663	161.79
393.877	-251.9
394.091	-104.45
394.305	-92.16
394.518	-172.03
394.732	-243.71
394.946	-167.93
395.16	497.66
395.373	178.17
395.587	-239.61
395.801	-223.23
396.015	342.01
396.228	210.94
396.442	-309.24
396.656	-352.25
396.869	270.33
397.083	417.79
397.297	-104.45
397.51	-163.84
397.724	411.64
397.938	122.88
398.151	-358.39
398.365	-292.86
398.578	194.56
398.792	327.68
399.005	-69.63
399.219	-172.03
399.433	108.54
399.646	221.18
399.86	-10.24
400.073	-18.43
400.287	292.86
400.5	-43.01
400.714	-12.29
400.927	24.58
401.141	264.19
401.354	1066.99
401.567	174.08
401.781	-243.71
401.994	264.19
402.208	661.49
402.421	-139.26
402.635	-83.97
402.848	26.62
403.061	270.33
403.275	-86.01
403.488	-247.8
403.701	432.12
403.915	362.49
404.128	-10.24
404.341	-159.74
404.555	149.5
404.768	16.38
404.981	14.34
405.195	-215.04
405.408	475.13
405.621	243.71
405.834	16.38
406.048	-155.65
406.261	358.39
406.474	415.74
406.687	-264.19
406.9	51.2
407.114	2.05
407.327	69.63
407.54	-237.56
407.753	-327.67
407.966	-174.08
408.179	249.85
408.392	-256
408.605	-329.72
408.819	137.21
409.032	159.74
409.245	-223.23
409.458	38.91
409.671	163.84
409.884	262.14
410.097	-313.34
410.31	26.62
410.523	223.23
410.736	20.48
410.949	-106.49
411.162	-172.03
411.375	380.92
411.588	276.48
411.801	45.06
412.014	-176.13
412.227	16.38
412.44	14.34
412.653	-151.55
412.865	38.91
413.078	241.66
413.291	190.46
413.504	-77.82
413.717	-178.17
413.93	206.84
414.143	-124.93
414.356	-204.8
414.568	-321.53
414.781	280.57
414.994	149.5
415.207	-149.5
415.42	-137.21
415.632	325.63
415.845	491.51
416.058	-323.58
416.271	-270.33
416.483	90.11
416.696	581.62
416.909	-264.19
417.121	-186.37
417.334	178.17
417.547	526.33
417.759	-294.91
417.972	-196.6
418.185	-112.64
418.397	288.76
418.61	-167.93
418.823	-106.49
419.035	333.82
419.248	61.44
419.46	-36.86
419.673	-26.62
419.885	172.03
420.098	22.53
420.311	-65.53
420.523	-372.73
420.736	198.65
420.948	38.91
421.161	-131.07
421.373	-376.83
421.586	153.6
421.798	-47.1
422.01	-262.14
422.223	-86.01
422.435	-139.26
422.648	174.08
422.86	-137.21
423.073	-167.93
423.285	311.29
423.497	-192.51
423.71	-212.99
423.922	-204.8
424.134	88.06
424.347	368.63
424.559	0
424.771	61.44
424.984	-10.24
425.196	126.97
425.408	-286.72
425.621	-305.15
425.833	221.18
426.045	342.01
426.257	-284.67
426.47	-198.65
426.682	24.58
426.894	157.69
427.106	-178.17
427.318	-120.83
427.531	-79.87
427.743	268.28
427.955	-196.6
428.167	262.14
428.379	141.31
428.591	2.05
428.804	-102.4
429.016	-227.32
429.228	-2.05
429.44	225.28
429.652	-10.24
429.864	-286.72
430.076	0
430.288	-22.53
430.5	-108.54
430.712	-73.73
430.924	227.32
431.136	139.26
431.348	-305.15
431.56	-126.97
431.772	90.11
431.984	-98.3
432.196	-147.45
432.408	-245.76
432.62	-75.77
432.832	161.79
433.044	67.58
433.256	-120.83
433.468	196.61
433.679	-235.52
433.891	-247.8
434.103	-26.62
434.315	309.24
434.527	208.89
434.739	-79.87
434.95	-161.79
435.162	247.8
435.374	-75.77
435.586	-198.65
435.798	-174.08
436.009	-245.76
436.221	-8.19
436.433	-165.89
436.645	-147.45
436.856	-94.21
437.068	247.8
437.28	-256
437.491	69.63
437.703	114.69
437.915	210.94
438.126	-172.03
438.338	71.68
438.55	-55.3
438.761	159.74
438.973	-180.22
439.184	-204.8
439.396	-14.34
439.608	229.37
439.819	-301.05
440.031	-180.22
440.242	225.28
440.454	167.93
440.665	-182.27
440.877	-83.97
441.088	129.02
441.3	18.43
441.511	-272.38
441.723	-260.09
441.934	120.83
442.146	145.41
442.357	-71.68
442.569	-12.29
442.78	102.4
442.991	493.56
443.203	112.64
443.414	-219.13
443.626	282.62
443.837	-86.01
444.048	-274.43
444.26	-358.39
444.471	67.58
444.682	253.95
444.894	-342.01
445.105	-360.44
445.316	264.19
445.528	163.84
445.739	-63.49
445.95	-188.41
446.161	198.65
446.373	309.24
446.584	-174.08
446.795	-182.27
447.006	194.56
447.217	368.63
447.429	-405.5
447.64	-227.32
447.851	342.01
448.062	47.1
448.273	-360.44
448.484	-217.08
448.695	202.75
448.907	-2.05
449.118	-67.58
449.329	-53.25
449.54	-30.72
449.751	-186.37
449.962	-231.42
450.173	-165.89
450.384	284.67
450.595	325.63
450.806	-149.5
451.017	-124.93
451.228	358.39
451.439	221.18
451.65	-202.75
451.861	-344.06
452.072	-225.28
452.283	14.34
452.494	30.72
452.705	-245.76
452.915	401.4
453.126	210.94
453.337	-169.98
453.548	-116.73
453.759	249.85
453.97	518.14
454.181	-65.53
454.391	-159.74
454.602	104.45
454.813	135.17
455.024	-157.69
455.235	-182.27
455.445	174.08
455.656	225.28
455.867	-59.39
456.078	-223.23
456.288	-24.58
456.499	174.08
456.71	-227.32
456.921	30.72
457.131	161.79
457.342	155.65
457.553	-200.7
457.763	-165.89
457.974	169.98
458.184	206.84
458.395	-260.09
458.606	-305.15
458.816	352.25
459.027	370.68
459.237	-47.1
459.448	-368.63
459.659	260.09
459.869	550.9
460.08	-299
460.29	6.14
460.501	421.88
460.711	-73.73
460.922	-292.86
461.132	-264.19
461.343	749.56
461.553	-221.18
461.764	-249.85
461.974	-161.79
462.184	276.48
462.395	186.37
462.605	-141.31
462.816	-272.38
463.026	36.86
463.236	325.63
463.447	-264.19
463.657	-180.22
463.867	288.76
464.078	-73.73
464.288	-135.17
464.498	-264.19
464.709	6.14
464.919	49.15
465.129	-122.88
465.339	-253.95
465.55	165.89
465.76	231.42
465.97	-157.69
466.18	-296.96
466.391	235.52
466.601	169.98
466.811	-157.69
467.021	-264.19
467.231	118.78
467.441	366.59
467.651	-192.51
467.862	-471.03
468.072	77.82
468.282	299
468.492	-206.84
468.702	-131.07
468.912	6.14
469.122	663.54
469.332	104.45
469.542	-262.14
469.752	284.67
469.962	114.69
470.172	-239.61
470.382	-237.56
470.592	165.89
470.802	284.67
471.012	-71.68
471.222	-262.14
471.432	235.52
471.642	208.89
471.852	-133.12
472.062	-327.67
472.272	-55.3
472.482	-212.99
472.691	-309.24
472.901	-342.01
473.111	-34.82
473.321	563.19
473.531	-296.96
473.741	-172.03
473.95	219.13
474.16	200.7
474.37	-149.5
474.58	-253.95
474.79	473.08
474.999	217.08
475.209	-305.15
475.419	-116.73
475.628	47.1
475.838	258.04
476.048	-106.49
476.258	-335.87
476.467	313.34
476.677	-143.36
476.886	-49.15
477.096	-141.31
477.306	-145.41
477.515	305.15
477.725	-212.99
477.935	-90.11
478.144	382.97
478.354	-53.25
478.563	-204.8
478.773	-178.17
478.982	159.74
479.192	284.67
479.401	-153.6
479.611	-331.77
479.82	-223.23
480.03	120.83
480.239	-307.2
480.449	-313.34
480.658	505.85
480.868	-165.89
481.077	-67.58
481.287	-217.08
481.496	155.65
481.705	409.59
481.915	34.82
482.124	24.58
482.333	137.21
482.543	356.35
482.752	-83.97
482.961	-327.67
483.171	231.42
483.38	-12.29
483.589	-145.41
483.799	-229.37
484.008	6.14
484.217	268.28
484.426	-264.19
484.636	-296.96
484.845	155.65
485.054	-256
485.263	71.68
485.472	-268.28
485.682	448.51
485.891	43.01
486.1	-382.97
486.309	-270.33
486.518	235.52
486.727	307.2
486.936	-339.96
487.146	-112.64
487.355	399.35
487.564	-182.27
487.773	-227.32
487.982	-180.22
488.191	-61.44
488.4	-49.15
488.609	-215.04
488.818	-256
489.027	475.13
489.236	391.16
489.445	-188.41
489.654	-288.76
489.863	360.44
490.072	55.3
490.281	12.29
490.49	-319.48
490.698	415.74
490.907	311.29
491.116	-190.46
491.325	-370.68
491.534	415.74
491.743	75.77
491.952	-153.6
492.16	-198.65
492.369	157.69
492.578	266.24
492.787	-210.94
492.996	-301.05
493.204	-149.5
493.413	532.47
493.622	-442.36
493.831	-419.83
494.039	440.31
494.248	-176.13
494.457	-256
494.665	-329.72
494.874	202.75
495.083	509.94
495.291	-165.89
495.5	-280.57
495.709	202.75
495.917	92.16
496.126	-106.49
496.335	-278.52
496.543	-30.72
496.752	133.12
496.96	-34.82
497.169	-450.55
497.377	6.14
497.586	325.63
497.794	-88.06
498.003	-477.18
498.211	36.86
498.42	395.26
498.628	-67.58
498.837	-301.05
499.045	227.32
499.254	106.49
499.462	-262.14
499.671	-225.28
499.879	485.37
500.087	296.96
500.296	-299
500.504	-188.41
500.713	51.2
500.921	546.81
501.129	-299
501.338	-276.48
501.546	131.07
501.754	71.68
501.962	-274.43
502.171	-292.86
502.379	86.01
502.587	421.88
502.795	-196.6
503.004	-180.22
503.212	-34.82
503.42	247.8
503.628	-206.84
503.837	-149.5
504.045	161.79
504.253	436.22
504.461	-210.94
504.669	-358.39
504.877	280.57
505.085	370.68
505.294	-423.93
505.502	-69.63
505.71	137.21
505.918	292.86
506.126	-288.76
506.334	-305.15
506.542	-18.43
506.75	102.4
506.958	-149.5
507.166	-180.22
507.374	26.62
507.582	432.12
507.79	-122.88
507.998	-280.57
508.206	129.02
508.414	190.46
508.622	-276.48
508.83	-231.42
509.037	362.49
509.245	-26.62
509.453	-292.86
509.661	-387.07
509.869	321.53
510.077	8.19
510.285	-116.73
510.492	-577.53
510.7	589.82
510.908	-26.62
511.116	-186.37
511.324	-256
511.531	-14.34
511.739	88.06
511.947	-88.06
512.155	43.01
512.362	198.65
512.57	-194.56
512.778	-266.24
512.985	-364.54
513.193	272.38
513.401	456.7
513.608	-206.84
513.816	-266.24
514.024	174.08
514.231	286.72
514.439	-237.56
514.646	-231.42
514.854	204.8
515.061	284.67
515.269	-258.04
515.477	-272.38
515.684	-63.49
515.892	315.39
516.099	-360.44
516.307	-350.2
516.514	280.57
516.722	468.98
516.929	-215.04
517.136	-247.8
517.344	450.55
517.551	178.17
517.759	-278.52
517.966	-268.28
518.173	-18.43
518.381	43.01
518.588	-141.31
518.796	-282.62
519.003	200.7
519.21	0
519.418	-280.57
519.625	-30.72
519.832	-26.62
520.039	114.69
520.247	-434.17
520.454	-288.76
520.661	286.72
520.868	104.45
521.076	-266.24
521.283	-198.65
521.49	595.96
521.697	108.54
521.904	-184.32
522.112	-282.62
522.319	272.38
522.526	219.13
522.733	-241.66
522.94	-280.57
523.147	47.1
523.354	329.72
523.561	-370.68
523.768	-161.79
523.975	301.05
524.183	-16.38
524.39	-212.99
524.597	-376.83
524.804	120.83
525.011	-153.6
525.218	-260.09
525.425	-268.28
525.632	407.55
525.838	-106.49
526.045	-278.52
526.252	-268.28
526.459	1114.1
526.666	888.82
526.873	-235.52
527.08	-296.96
527.287	432.12
527.494	303.1
527.701	-313.34
527.907	-323.58
528.114	172.03
528.321	86.01
528.528	-219.13
528.735	-268.28
528.941	-79.87
529.148	-53.25
529.355	-188.41
529.562	-247.8
529.768	456.7
529.975	-92.16
530.182	-221.18
530.388	-327.67
530.595	284.67
530.802	-239.61
531.008	0
531.215	-188.41
531.422	440.31
531.628	616.44
531.835	-147.45
532.042	-149.5
532.248	-100.35
532.455	92.16
532.661	-206.84
532.868	-217.08
533.074	65.54
533.281	294.91
533.487	-151.55
533.694	-344.06
533.9	-206.84
534.107	223.23
534.313	-313.34
534.52	-421.88
534.726	327.68
534.933	428.03
535.139	-303.1
535.345	-350.2
535.552	167.93
535.758	-2.05
535.965	-229.37
536.171	-294.91
536.377	204.8
536.584	362.49
536.79	-227.32
536.996	-129.02
537.203	67.58
537.409	100.35
537.615	-149.5
537.821	-57.34
538.028	262.14
538.234	167.93
538.44	-206.84
538.646	-206.84
538.853	167.93
539.059	14.34
539.265	188.41
539.471	-428.03
539.677	262.14
539.883	-40.96
540.09	-282.62
540.296	180.22
540.502	2.05
540.708	-172.03
540.914	-143.36
541.12	-235.52
541.326	215.04
541.532	47.1
541.738	-206.84
541.944	-217.08
542.15	284.67
542.356	-20.48
542.562	-280.57
542.768	-147.45
542.974	608.25
543.18	499.7
543.386	-221.18
543.592	-303.1
543.798	415.74
544.004	370.68
544.21	-215.04
544.415	-108.54
544.621	92.16
544.827	333.82
545.033	-325.63
545.239	26.62
545.445	-165.89
545.651	120.83
545.856	-258.04
546.062	-206.84
546.268	-53.25
546.474	-20.48
546.679	-172.03
546.885	-198.65
547.091	-92.16
547.297	604.15
547.502	-120.83
547.708	-428.03
547.914	-83.97
548.119	243.71
548.325	-274.43
548.531	-329.72
548.736	407.55
548.942	-81.92
549.147	-307.2
549.353	-43.01
549.559	313.34
549.764	135.17
549.97	-161.79
550.175	-202.75
550.381	190.46
550.586	-112.64
550.792	-159.74
550.997	-192.51
551.203	227.32
551.408	194.56
551.614	-354.3
551.819	-256
552.025	511.99
552.23	458.75
552.435	-286.72
552.641	-114.69
552.846	-108.54
553.052	352.25
553.257	-116.73
553.462	-190.46
553.668	-116.73
553.873	276.48
554.078	-290.81
554.283	-231.42
554.489	176.13
554.694	96.25
554.899	-296.96
555.105	-133.12
555.31	274.43
555.515	212.99
555.72	-157.69
555.925	-337.91
556.131	157.69
556.336	-59.39
556.541	-280.57
556.746	-286.72
556.951	403.45
557.156	438.27
557.361	-124.93
557.567	-129.02
557.772	583.67
557.977	161.79
558.182	-280.57
558.387	-204.8
558.592	-59.39
558.797	350.2
559.002	-145.41
559.207	-94.21
559.412	96.25
559.617	507.9
559.822	-225.28
560.027	-327.67
560.232	174.08
560.437	317.44
560.642	-321.53
560.847	-235.52
561.051	167.93
561.256	161.79
561.461	-200.7
561.666	-278.52
561.871	145.41
562.076	219.13
562.281	-180.22
562.485	-327.67
562.69	280.57
562.895	374.78
563.1	-274.43
563.305	-270.33
563.509	419.83
563.714	663.54
563.919	-243.71
564.123	-268.28
564.328	81.92
564.533	428.03
564.737	-147.45
564.942	-176.13
565.147	497.66
565.351	565.24
565.556	-118.78
565.761	-81.92
565.965	92.16
566.17	-137.21
566.374	-143.36
566.579	-356.35
566.784	122.88
566.988	-69.63
567.193	-372.73
567.397	-249.85
567.602	-260.09
567.806	61.44
568.011	-225.28
568.215	-157.69
568.42	47.1
568.624	34.82
568.828	-202.75
569.033	-59.39
569.237	223.23
569.442	202.75
569.646	-290.81
569.85	-190.46
570.055	8.19
570.259	96.25
570.463	-51.2
570.668	-243.71
570.872	88.06
571.076	67.58
571.281	-22.53
571.485	-30.72
571.689	18.43
571.893	270.33
572.098	-83.97
572.302	-186.37
572.506	190.46
572.71	110.59
572.914	-212.99
573.119	-174.08
573.323	440.31
573.527	440.31
573.731	-198.65
573.935	-198.65
574.139	153.6
574.343	-67.58
574.547	-180.22
574.751	-167.93
574.955	419.83
575.159	450.55
575.364	-278.52
575.568	-309.24
575.772	71.68
575.976	323.58
576.18	-235.52
576.383	-354.3
576.587	366.59
576.791	268.28
576.995	-372.73
577.199	-337.91
577.403	401.4
577.607	301.05
577.811	-378.87
578.015	-116.73
578.219	77.82
578.422	327.68
578.626	-106.49
578.83	-24.58
579.034	333.82
579.238	92.16
579.442	-227.32
579.645	223.23
579.849	98.3
580.053	163.84
580.257	-90.11
580.46	-92.16
580.664	364.54
580.868	208.89
581.071	22.53
581.275	-2.05
581.479	-139.26
581.682	167.93
581.886	-165.89
582.09	-184.32
582.293	239.61
582.497	264.19
582.7	18.43
582.904	-296.96
583.107	38.91
583.311	-55.3
583.515	-145.41
583.718	-141.31
583.922	253.95
584.125	518.14
584.329	-194.56
584.532	-40.96
584.735	325.63
584.939	256
585.142	-305.15
585.346	-206.84
585.549	178.17
585.753	24.58
585.956	-108.54
586.159	-63.49
586.363	411.64
586.566	286.72
586.769	-243.71
586.973	-215.04
587.176	182.27
587.379	399.35
587.582	155.65
587.786	20.48
587.989	67.58
588.192	706.55
588.395	-55.3
588.599	79.87
588.802	155.65
589.005	266.24
589.208	-194.56
589.411	-102.4
589.615	411.64
589.818	403.45
590.021	63.49
590.224	-53.25
590.427	313.34
590.63	288.76
590.833	-278.52
591.036	-217.08
591.239	73.73
591.442	-6.14
591.645	88.06
591.848	-229.37
592.051	210.94
592.254	374.78
592.457	-190.46
592.66	-137.21
592.863	102.4
593.066	206.84
593.269	-153.6
593.472	-55.3
593.675	-34.82
593.878	344.06
594.081	-49.15
594.284	-141.31
594.486	296.96
594.689	155.65
594.892	-45.06
595.095	-67.58
595.298	206.84
595.5	-92.16
595.703	-12.29
595.906	43.01
596.109	479.22
596.311	352.25
596.514	-407.55
596.717	-53.25
596.92	342.01
597.122	296.96
597.325	-303.1
597.528	-153.6
597.73	448.51
597.933	151.55
598.136	-149.5
598.338	-444.41
598.541	274.43
598.743	411.64
598.946	-137.21
599.148	-116.73
599.351	401.4
599.554	495.61
599.756	-8.19
599.959	-32.77
600.161	342.01
600.363	696.31
600.566	149.5
600.768	-92.16
600.971	548.86
601.173	303.1
601.376	-49.15
601.578	-51.2
601.78	243.71
601.983	792.56
602.185	-96.25
602.388	30.72
602.59	374.78
602.792	96.25
602.995	73.73
603.197	-73.73
603.399	329.72
603.601	253.95
603.804	-100.35
604.006	-143.36
604.208	169.98
604.41	-221.18
604.613	-2.05
604.815	-182.27
605.017	749.56
605.219	61.44
605.421	237.56
605.623	-94.21
605.826	497.66
606.028	444.41
606.23	-141.31
606.432	-116.73
606.634	585.72
606.836	511.99
607.038	-212.99
607.24	47.1
607.442	184.32
607.644	133.12
607.846	16.38
608.048	-198.65
608.25	509.94
608.452	59.39
608.654	-106.49
608.856	-276.48
609.058	124.93
609.26	327.68
609.462	12.29
609.664	32.77
609.866	663.54
610.067	329.72
610.269	61.44
610.471	-28.67
610.673	38.91
610.875	387.07
611.077	-184.32
611.278	2.05
611.48	196.61
611.682	708.6
611.884	26.62
612.085	34.82
612.287	22.53
612.489	309.24
612.69	-141.31
612.892	22.53
613.094	446.46
613.295	219.13
613.497	-141.31
613.699	-45.06
613.9	540.66
614.102	425.98
614.304	-10.24
614.505	-126.97
614.707	212.99
614.908	217.08
615.11	-278.52
615.311	32.77
615.513	376.83
615.714	432.12
615.916	-139.26
616.117	28.67
616.319	235.52
616.52	475.13
616.722	-86.01
616.923	-16.38
617.124	464.89
617.326	333.82
617.527	-8.19
617.729	266.24
617.93	350.2
618.131	385.02
618.333	-24.58
618.534	-16.38
618.735	-2.05
618.937	645.11
619.138	-192.51
619.339	-88.06
619.54	389.11
619.742	147.45
619.943	122.88
620.144	-24.58
620.345	399.35
620.546	485.37
620.748	-55.3
620.949	-6.14
621.15	333.82
621.351	227.32
621.552	-10.24
621.753	-217.08
621.954	-153.6
622.155	645.11
622.356	-198.65
622.558	51.2
622.759	202.75
622.96	690.17
623.161	16.38
623.362	12.29
623.563	219.13
623.764	192.51
623.965	-18.43
624.166	239.61
624.366	251.9
624.567	395.26
624.768	-276.48
624.969	-26.62
625.17	178.17
625.371	407.55
625.572	96.25
625.773	-108.54
625.973	499.7
626.174	346.11
626.375	108.54
626.576	12.29
626.777	364.54
626.977	772.08
627.178	-75.77
627.379	112.64
627.58	274.43
627.78	276.48
627.981	131.07
628.182	180.22
628.382	591.86
628.583	0
628.784	-116.73
628.984	157.69
629.185	415.74
629.386	380.92
629.586	18.43
629.787	-65.53
629.987	440.31
630.188	296.96
630.388	47.1
630.589	106.49
630.79	845.81
630.99	317.44
631.191	71.68
631.391	92.16
631.591	366.59
631.792	784.37
631.992	100.35
632.193	75.77
632.393	669.69
632.594	305.15
632.794	32.77
632.994	86.01
633.195	339.96
633.395	290.81
633.595	-49.15
633.796	227.32
633.996	196.61
634.196	628.73
634.397	-145.41
634.597	104.45
634.797	141.31
634.997	698.36
635.198	233.47
635.398	-34.82
635.598	329.72
635.798	583.67
635.998	444.41
636.199	-26.62
636.399	98.3
636.599	178.17
636.799	22.53
636.999	288.76
637.199	399.35
637.399	581.62
637.599	-26.62
637.799	174.08
637.999	106.49
638.199	720.89
638.399	12.29
638.599	-14.34
638.799	391.16
638.999	714.74
639.199	256
639.399	147.45
639.599	673.78
639.799	96.25
639.999	-49.15
640.199	-26.62
640.399	382.97
640.599	436.22
640.799	112.64
640.998	337.91
641.198	708.6
641.398	464.89
641.598	182.27
641.798	110.59
641.997	1196.01
642.197	333.82
642.397	169.98
642.597	67.58
642.796	583.67
642.996	548.86
643.196	182.27
643.395	36.86
643.595	434.17
643.795	-106.49
643.994	176.13
644.194	116.73
644.394	516.09
644.593	350.2
644.793	-133.12
644.992	241.66
645.192	423.93
645.392	-65.53
645.591	258.04
645.791	176.13
645.99	442.36
646.19	266.24
646.389	129.02
646.589	73.73
646.788	565.24
646.987	548.86
647.187	399.35
647.386	276.48
647.586	387.07
647.785	532.47
647.984	98.3
648.184	143.36
648.383	307.2
648.582	299
648.782	243.71
648.981	219.13
649.18	194.56
649.38	417.79
649.579	131.07
649.778	69.63
649.977	546.81
650.177	440.31
650.376	129.02
650.575	153.6
650.774	759.8
650.973	182.27
651.173	-100.35
651.372	180.22
651.571	473.08
651.77	620.53
651.969	131.07
652.168	278.52
652.367	118.78
652.566	342.01
652.765	40.96
652.964	415.74
653.163	837.62
653.362	325.63
653.561	186.37
653.76	43.01
653.959	264.19
654.158	575.48
654.357	362.49
654.556	157.69
654.755	487.42
654.954	595.96
655.153	229.37
655.352	237.56
655.551	780.28
655.749	231.42
655.948	153.6
656.147	288.76
656.346	571.38
656.545	432.12
656.743	251.9
656.942	221.18
657.141	415.74
657.34	190.46
657.538	280.57
657.737	247.8
657.936	307.2
658.135	591.86
658.333	229.37
658.532	276.48
658.731	862.19
658.929	690.17
659.128	503.8
659.326	149.5
659.525	743.41
659.724	436.22
659.922	-47.1
660.121	22.53
660.319	542.71
660.518	294.91
660.716	122.88
660.915	98.3
661.113	790.52
661.312	139.26
661.51	335.87
661.709	151.55
661.907	595.96
662.105	829.43
662.304	204.8
662.502	268.28
662.701	749.56
662.899	378.87
663.097	552.95
663.296	129.02
663.494	788.47
663.692	901.11
663.891	169.98
664.089	145.41
664.287	501.75
664.485	761.84
664.684	194.56
664.882	305.15
665.08	368.63
665.278	456.7
665.476	155.65
665.675	544.76
665.873	1017.84
666.071	747.51
666.269	299
666.467	456.7
666.665	534.52
666.863	417.79
667.061	370.68
667.259	219.13
667.457	477.18
667.655	690.17
667.853	88.06
668.051	311.29
668.249	260.09
668.447	641.01
668.645	108.54
668.843	460.79
669.041	694.26
669.239	407.55
669.437	329.72
669.635	438.27
669.833	407.55
670.031	710.65
670.229	395.26
670.426	407.55
670.624	456.7
670.822	256
671.02	270.33
671.218	358.39
671.415	313.34
671.613	518.14
671.811	442.36
672.009	288.76
672.206	804.85
672.404	522.23
672.602	514.04
672.799	329.72
672.997	636.92
673.195	757.75
673.392	471.03
673.59	194.56
673.788	714.74
673.985	98.3
674.183	413.69
674.38	311.29
674.578	796.66
674.775	385.02
674.973	174.08
675.17	227.32
675.368	808.95
675.565	665.59
675.763	323.58
675.96	321.53
676.158	825.33
676.355	528.38
676.553	262.14
676.75	296.96
676.947	600.05
677.145	473.08
677.342	452.6
677.539	370.68
677.737	526.33
677.934	989.17
678.131	430.07
678.329	309.24
678.526	978.93
678.723	645.11
678.92	413.69
679.118	325.63
679.315	301.05
679.512	849.91
679.709	368.63
679.906	399.35
680.104	841.72
680.301	587.77
680.498	284.67
680.695	276.48
680.892	425.98
681.089	434.17
681.286	493.56
681.483	178.17
681.68	743.41
681.877	772.08
682.075	376.83
682.272	645.11
682.469	636.92
682.665	503.8
682.862	276.48
683.059	286.72
683.256	593.91
683.453	653.3
683.65	473.08
683.847	378.87
684.044	489.46
684.241	403.45
684.438	563.19
684.635	329.72
684.831	1062.9
685.028	1050.61
685.225	227.32
685.422	477.18
685.619	581.62
685.815	593.91
686.012	499.7
686.209	479.22
686.405	370.68
686.602	778.23
686.799	221.18
686.996	350.2
687.192	280.57
687.389	1101.81
687.586	415.74
687.782	378.87
687.979	989.17
688.175	843.76
688.372	481.27
688.568	366.59
688.765	477.18
688.962	976.88
689.158	526.33
689.355	249.85
689.551	704.5
689.748	479.22
689.944	399.35
690.14	309.24
690.337	845.81
690.533	450.55
690.73	690.17
690.926	438.27
691.123	731.12
691.319	559.1
691.515	227.32
691.712	684.02
691.908	786.42
692.104	763.89
692.301	532.47
692.497	253.95
692.693	851.96
692.889	868.34
693.086	593.91
693.282	157.69
693.478	645.11
693.674	1099.76
693.87	413.69
694.067	356.35
694.263	835.57
694.459	671.73
694.655	626.68
694.851	559.1
695.047	720.89
695.243	841.72
695.439	628.73
695.635	346.11
695.831	829.43
696.027	743.41
696.224	393.21
696.42	817.14
696.615	1001.46
696.811	829.43
697.007	225.28
697.203	462.84
697.399	786.42
697.595	1034.22
697.791	440.31
697.987	612.34
698.183	411.64
698.379	587.77
698.575	397.31
698.77	532.47
698.966	884.72
699.162	980.98
699.358	612.34
699.554	493.56
699.749	808.95
699.945	911.35
700.141	567.29
700.337	636.92
700.532	751.6
700.728	538.62
700.924	440.31
701.119	333.82
701.315	827.38
701.511	630.77
701.706	552.95
701.902	331.77
702.097	782.32
702.293	923.63
702.489	579.58
702.684	430.07
702.88	636.92
703.075	729.08
703.271	409.59
703.466	346.11
703.662	817.14
703.857	858.1
704.053	407.55
704.248	481.27
704.443	845.81
704.639	946.16
704.834	612.34
705.03	528.38
705.225	915.44
705.42	980.98
705.616	636.92
705.811	423.93
706.006	606.2
706.202	634.87
706.397	706.55
706.592	440.31
706.787	747.51
706.983	733.17
707.178	747.51
707.373	581.62
707.568	874.48
707.763	999.41
707.959	411.64
708.154	454.65
708.349	886.77
708.544	866.29
708.739	733.17
708.934	450.55
709.129	970.74
709.324	1077.23
709.519	493.56
709.714	438.27
709.909	1056.75
710.104	897.01
710.299	481.27
710.494	661.49
710.689	897.01
710.884	866.29
711.079	608.25
711.274	870.39
711.469	851.96
711.664	931.83
711.859	542.71
712.054	661.49
712.249	989.17
712.443	1044.46
712.638	430.07
712.833	423.93
713.028	819.19
713.223	716.79
713.417	884.72
713.612	534.52
713.807	976.88
714.002	1378.28
714.196	776.18
714.391	499.7
714.586	1009.65
714.78	774.13
714.975	636.92
715.17	546.81
715.364	665.59
715.559	980.98
715.754	323.58
715.948	528.38
716.143	1226.73
716.337	843.76
716.532	800.76
716.726	509.94
716.921	989.17
717.115	1243.12
717.31	362.49
717.504	1148.91
717.699	772.08
717.893	1009.65
718.088	571.38
718.282	436.22
718.476	778.23
718.671	911.35
718.865	520.18
719.059	583.67
719.254	804.85
719.448	1157.1
719.642	1953.76
719.837	401.4
720.031	976.88
720.225	1177.58
720.419	704.5
720.614	595.96
720.808	987.12
721.002	780.28
721.196	532.47
721.39	579.58
721.585	1138.67
721.779	927.73
721.973	673.78
722.167	442.36
722.361	911.35
722.555	1130.48
722.749	528.38
722.943	567.29
723.137	634.87
723.331	950.26
723.525	620.53
723.719	632.82
723.913	1083.38
724.107	1165.29
724.301	505.85
724.495	657.4
724.689	1261.55
724.883	1159.15
725.077	493.56
725.271	616.44
725.465	1103.86
725.659	808.95
725.853	798.71
726.046	552.95
726.24	757.75
726.434	1087.47
726.628	690.17
726.822	702.45
727.015	1136.62
727.209	1052.66
727.403	749.56
727.596	550.9
727.79	1058.8
727.984	995.31
728.177	636.92
728.371	663.54
728.565	1073.14
728.758	745.46
728.952	542.71
729.146	602.1
729.339	1140.72
729.533	892.91
729.726	677.88
729.92	673.78
730.113	1148.91
730.307	1054.7
730.5	665.59
730.694	524.28
730.887	993.26
731.081	1124.33
731.274	458.75
731.468	733.17
731.661	761.84
731.854	757.75
732.048	759.8
732.241	583.67
732.435	720.89
732.628	956.4
732.821	788.47
733.014	514.04
733.208	767.99
733.401	1095.66
733.594	757.75
733.788	698.36
733.981	1275.88
734.174	995.31
734.367	710.65
734.56	919.54
734.754	1187.82
734.947	931.83
735.14	663.54
735.333	843.76
735.526	1071.09
735.719	808.95
735.912	657.4
736.105	636.92
736.298	1001.46
736.491	767.99
736.684	675.83
736.877	651.25
737.07	1021.94
737.263	1249.26
737.456	651.25
737.649	714.74
737.842	931.83
738.035	1048.56
738.228	755.7
738.421	858.1
738.614	1214.45
738.807	1161.2
739	657.4
739.192	727.03
739.385	1167.34
739.578	1079.28
739.771	935.92
739.964	731.12
740.156	1060.85
740.349	1011.7
740.542	940.02
740.735	643.06
740.927	706.55
741.12	716.79
741.313	657.4
741.505	819.19
741.698	1128.43
741.891	1153.01
742.083	948.21
742.276	751.6
742.468	985.07
742.661	909.3
742.854	759.8
743.046	774.13
743.239	1452.01
743.431	940.02
743.624	841.72
743.816	616.44
744.009	866.29
744.201	1091.57
744.393	968.69
744.586	710.65
744.778	1177.58
744.971	1013.74
745.163	856.05
745.355	933.87
745.548	1069.04
745.74	917.49
745.932	958.45
746.125	727.03
746.317	1607.66
746.509	1120.24
746.702	800.76
746.894	837.62
747.086	1128.43
747.278	1388.52
747.471	923.63
747.663	858.1
747.855	1075.18
748.047	1384.43
748.239	804.85
748.431	788.47
748.623	1406.95
748.815	1398.76
749.008	806.9
749.2	745.46
749.392	1294.32
749.584	1175.53
749.776	835.57
749.968	870.39
750.16	1400.81
750.352	968.69
750.544	790.52
750.736	745.46
750.928	1202.16
751.12	884.72
751.311	806.9
751.503	888.82
751.695	1069.04
751.887	956.4
752.079	681.97
752.271	743.41
752.463	1875.94
752.654	1218.54
752.846	925.68
753.038	935.92
753.23	974.83
753.421	1167.34
753.613	827.38
753.805	991.22
753.997	1279.98
754.188	1286.12
754.38	837.62
754.572	978.93
754.763	1071.09
754.955	1126.38
755.146	929.78
755.338	950.26
755.53	1218.54
755.721	1026.03
755.913	747.51
756.104	847.86
756.296	1005.55
756.487	1341.42
756.679	802.8
756.87	749.56
757.062	987.12
757.253	1286.12
757.445	798.71
757.636	989.17
757.827	1046.51
758.019	1720.29
758.21	847.86
758.401	804.85
758.593	1556.46
758.784	1386.47
758.975	749.56
759.167	759.8
759.358	1150.96
759.549	1366
759.74	827.38
759.932	729.08
760.123	1456.11
760.314	1005.55
760.505	944.11
760.696	796.66
760.888	1396.71
761.079	991.22
761.27	698.36
761.461	745.46
761.652	1390.57
761.843	1017.84
762.034	886.77
762.225	1093.62
762.416	1087.47
762.607	1013.74
762.798	962.55
762.989	833.52
763.18	1931.23
763.371	1066.99
763.562	792.56
763.753	780.28
763.944	1294.32
764.135	1345.52
764.326	948.21
764.517	864.24
764.708	1023.98
764.899	1341.42
765.089	847.86
765.28	737.27
765.471	1140.72
765.662	1279.98
765.853	989.17
766.043	718.84
766.234	1329.13
766.425	1366
766.615	944.11
766.806	729.08
766.997	1482.73
767.187	1144.81
767.378	817.14
767.569	702.45
767.759	1304.56
767.95	1198.06
768.141	1134.57
768.331	884.72
768.522	1105.9
768.712	1376.24
768.903	872.43
769.093	788.47
769.284	1480.68
769.474	1380.33
769.665	684.02
769.855	792.56
770.046	1394.67
770.236	1116.14
770.426	1040.37
770.617	860.15
770.807	1302.51
770.998	1064.94
771.188	1056.75
771.378	866.29
771.569	1378.28
771.759	1277.93
771.949	811
772.139	628.73
772.33	1099.76
772.52	1495.02
772.71	849.91
772.9	757.75
773.09	1531.88
773.281	1505.26
773.471	839.67
773.661	784.37
773.851	1402.86
774.041	1087.47
774.231	759.8
774.421	1079.28
774.611	1507.31
774.802	1161.2
774.992	1019.89
775.182	839.67
775.372	1122.29
775.562	1427.43
775.752	907.25
775.942	866.29
776.131	1492.97
776.321	1404.91
776.511	950.26
776.701	833.52
776.891	1320.94
777.081	894.96
777.271	948.21
777.461	890.87
777.651	1394.67
777.84	1437.67
778.03	1013.74
778.22	903.15
778.41	1515.5
778.599	1030.13
778.789	1038.32
778.979	858.1
779.169	1222.64
779.358	1282.03
779.548	1132.53
779.738	677.88
779.927	1294.32
780.117	944.11
780.307	954.35
780.496	677.88
780.686	1382.38
780.875	1638.38
781.065	909.3
781.254	983.03
781.444	1116.14
781.633	1253.36
781.823	864.24
782.012	884.72
782.202	1017.84
782.391	1187.82
782.581	825.33
782.77	1079.28
782.96	1390.57
783.149	1140.72
783.338	843.76
783.528	702.45
783.717	1236.97
783.906	1511.4
784.096	1038.32
784.285	821.24
784.474	1107.95
784.663	1054.7
784.853	983.03
785.042	931.83
785.231	1103.86
785.42	1378.28
785.61	1122.29
785.799	784.37
785.988	1079.28
786.177	1073.14
786.366	966.64
786.555	1030.13
786.744	1425.39
786.933	1251.31
787.122	841.72
787.312	876.53
787.501	1038.32
787.69	1423.34
787.879	958.45
788.068	780.28
788.257	940.02
788.445	1130.48
788.634	1099.76
788.823	770.04
789.012	1890.28
789.201	1554.41
789.39	989.17
789.579	925.68
789.768	1169.39
789.957	1236.97
790.145	964.59
790.334	700.41
790.523	1138.67
790.712	1144.81
790.9	1075.18
791.089	755.7
791.278	1390.57
791.467	1218.54
791.655	1126.38
791.844	1452.01
792.033	1171.44
792.221	1153.01
792.41	925.68
792.599	813.04
792.787	1300.46
792.976	1325.04
793.164	817.14
793.353	954.35
793.541	1382.38
793.73	1294.32
793.918	1042.42
794.107	899.06
794.295	1167.34
794.484	1130.48
794.672	1105.9
794.861	976.88
795.049	1409
795.238	1646.57
795.426	960.5
795.614	1040.37
795.803	1304.56
795.991	1611.75
796.179	960.5
796.368	919.54
796.556	1484.78
796.744	937.97
796.932	894.96
797.121	884.72
797.309	1161.2
797.497	1366
797.685	909.3
797.874	843.76
798.062	1001.46
798.25	1607.66
798.438	993.26
798.626	937.97
798.814	1277.93
799.002	1832.93
799.19	1114.1
799.378	1021.94
799.566	1447.91
799.755	1423.34
799.943	1214.45
800.131	1021.94
800.318	1370.09
800.506	1433.58
800.694	1021.94
800.882	1189.87
801.07	1513.45
801.258	1265.64
801.446	935.92
801.634	948.21
801.822	1267.69
802.01	1179.63
802.197	919.54
802.385	1071.09
802.573	1327.08
802.761	980.98
802.949	1023.98
803.136	915.44
803.324	1509.35
803.512	1167.34
803.699	1077.23
803.887	839.67
804.075	1697.77
804.262	1122.29
804.45	933.87
804.638	1132.53
804.825	1005.55
805.013	1101.81
805.201	974.83
805.388	1046.51
805.576	1265.64
805.763	1630.18
805.951	1032.18
806.138	1165.29
806.326	1744.87
806.513	1441.77
806.701	1079.28
806.888	1026.03
807.075	1423.34
807.263	1738.73
807.45	962.55
807.638	1282.03
807.825	1824.74
808.012	1552.36
808.2	1036.27
808.387	1259.5
808.574	1535.98
808.761	1730.53
808.949	1062.9
809.136	1218.54
809.323	1218.54
809.51	1271.79
809.698	1497.07
809.885	1245.17
810.072	1425.39
810.259	1468.39
810.446	1089.52
810.633	1071.09
810.82	1669.09
811.008	1603.56
811.195	1370.09
811.382	1161.2
811.569	1359.85
811.756	1144.81
811.943	1232.88
812.13	1130.48
812.317	1257.45
812.504	1320.94
812.691	1126.38
812.878	1159.15
813.064	1773.54
813.251	1366
813.438	952.31
813.625	1329.13
813.812	1363.95
813.999	1372.14
814.186	1196.01
814.372	1193.97
814.559	1372.14
814.746	1724.39
814.933	1214.45
815.12	1363.95
815.306	1302.51
815.493	1187.82
815.68	1165.29
815.866	1177.58
816.053	1648.61
816.24	1914.85
816.426	1341.42
816.613	1099.76
816.799	1601.51
816.986	1636.33
817.173	1091.57
817.359	1107.95
817.546	1431.53
817.732	1101.81
817.919	956.4
818.105	1265.64
818.292	1368.04
818.478	1423.34
818.665	1349.61
818.851	1136.62
819.037	1931.23
819.224	1533.93
819.41	1128.43
819.597	1169.39
819.783	1849.32
819.969	1587.18
820.156	1239.02
820.342	1032.18
820.528	2164.7
820.714	1492.97
820.901	1425.39
821.087	1204.21
821.273	1857.51
821.459	1425.39
821.646	1140.72
821.832	1124.33
822.018	1533.93
822.204	1490.92
822.39	1126.38
822.576	1126.38
822.762	1669.09
822.948	1609.7
823.134	1488.87
823.32	1224.69
823.507	1239.02
823.693	1521.64
823.879	1529.83
824.065	1222.64
824.25	1556.46
824.436	1206.25
824.622	1347.56
824.808	1138.67
824.994	1335.28
825.18	1155.05
825.366	1099.76
825.552	1146.86
825.738	1363.95
825.923	1720.29
826.109	1435.63
826.295	1169.39
826.481	1259.5
826.667	1325.04
826.852	1267.69
827.038	1214.45
827.224	1646.57
827.409	1884.13
827.595	1054.7
827.781	1322.99
827.966	1611.75
828.152	1656.81
828.338	1136.62
828.523	1052.66
828.709	1333.23
828.894	1800.16
829.08	1212.4
829.266	1222.64
829.451	1359.85
829.637	1687.53
829.822	1212.4
830.008	1255.4
830.193	1652.71
830.378	1828.84
830.564	1230.83
830.749	1028.08
830.935	1527.78
831.12	1650.66
831.305	1116.14
831.491	1239.02
831.676	1394.67
831.861	1712.1
832.047	1187.82
832.232	1087.47
832.417	1710.05
832.602	1409
832.788	1226.73
832.973	1054.7
833.158	1411.05
833.343	1572.84
833.528	1300.46
833.714	1316.84
833.899	1636.33
834.084	1980.39
834.269	1452.01
834.454	1284.08
834.639	1701.86
834.824	1667.05
835.009	1361.9
835.194	1431.53
835.379	1683.43
835.564	1738.73
835.749	1368.04
835.934	1196.01
836.119	1689.57
836.304	1542.12
836.489	1245.17
836.674	1460.2
836.859	1157.1
837.044	1800.16
837.228	1314.8
837.413	1066.99
837.598	1519.59
837.783	1718.25
837.968	1153.01
838.152	1120.24
838.337	1114.1
838.522	1814.5
838.707	1660.9
838.891	1513.45
839.076	1538.02
839.261	1701.86
839.445	1226.73
839.63	1374.19
839.815	1927.14
839.999	1476.59
840.184	1241.07
840.368	1441.77
840.553	1611.75
840.737	1632.23
840.922	1048.56
841.106	1183.73
841.291	1300.46
841.475	1564.65
841.66	1105.9
841.844	1286.12
842.029	2123.74
842.213	1140.72
842.397	1167.34
842.582	1083.38
842.766	1767.4
842.951	1857.51
843.135	1214.45
843.319	1198.06
843.504	1488.87
843.688	1834.98
843.872	901.11
844.056	1161.2
844.241	1611.75
844.425	1357.8
844.609	1458.15
844.793	997.36
844.977	1744.87
845.161	1624.04
845.346	1103.86
845.53	1314.8
845.714	1499.11
845.898	1875.94
846.082	1075.18
846.266	1257.45
846.45	1460.2
846.634	1595.37
846.818	1245.17
847.002	1425.39
847.186	1660.9
847.37	1185.77
847.554	1171.44
847.738	1368.04
847.922	1521.64
848.106	1636.33
848.29	1128.43
848.473	1255.4
848.657	1638.38
848.841	1488.87
849.025	1202.16
849.209	1058.8
849.392	1722.34
849.576	1423.34
849.76	913.39
849.944	1353.71
850.127	1787.88
850.311	1214.45
850.495	1128.43
850.678	1144.81
850.862	1875.94
851.046	1808.36
851.229	1433.58
851.413	1210.35
851.596	1490.92
851.78	1499.11
851.964	1398.76
852.147	1245.17
852.331	2213.85
852.514	1791.97
852.698	1413.1
852.881	1185.77
853.065	1746.92
853.248	1478.63
853.431	1378.28
853.615	1394.67
853.798	2039.78
853.982	1550.31
854.165	1333.23
854.348	1193.97
854.532	1431.53
854.715	1333.23
854.898	1286.12
855.081	1179.63
855.265	1916.9
855.448	1916.9
855.631	1230.83
855.814	1335.28
855.997	1632.23
856.181	1488.87
856.364	1251.31
856.547	1189.87
856.73	1531.88
856.913	1691.62
857.096	1193.97
857.279	1275.88
857.462	1390.57
857.645	1738.73
857.828	1390.57
858.011	1290.22
858.194	1425.39
858.377	1697.77
858.56	1132.53
858.743	1275.88
858.926	1333.23
859.109	1581.03
859.292	1204.21
859.475	1134.57
859.658	1705.96
859.841	1740.77
860.023	1140.72
860.206	1116.14
860.389	1587.18
860.572	1837.03
860.755	1140.72
860.937	1177.58
861.12	1572.84
861.303	1581.03
861.486	1253.36
861.668	1122.29
861.851	1697.77
862.034	1458.15
862.216	1384.43
862.399	964.59
862.581	1597.42
862.764	1875.94
862.947	1228.78
863.129	1202.16
863.312	1239.02
863.494	1900.52
863.677	1470.44
863.859	1036.27
864.042	1662.95
864.224	1923.04
864.406	1368.04
864.589	1038.32
864.771	1570.79
864.954	1284.08
865.136	1189.87
865.318	1103.86
865.501	1642.47
865.683	1226.73
865.865	1224.69
866.048	1198.06
866.23	1501.16
866.412	1681.38
866.594	1177.58
866.777	1300.46
866.959	1714.15
867.141	1253.36
867.323	1423.34
867.505	1290.22
867.687	1480.68
867.869	1478.63
868.052	1210.35
868.234	1136.62
868.416	1490.92
868.598	1607.66
868.78	1282.03
868.962	1060.85
869.144	1718.25
869.326	1740.77
869.508	1187.82
869.69	1140.72
869.872	1472.49
870.054	1693.67
870.236	993.26
870.417	1212.4
870.599	1472.49
870.781	1888.23
870.963	1286.12
871.145	1193.97
871.327	1224.69
871.508	1761.25
871.69	1259.5
871.872	1251.31
872.054	1421.29
872.235	1662.95
872.417	1335.28
872.599	1064.94
872.78	1902.56
872.962	1554.41
873.144	1050.61
873.325	1265.64
873.507	1902.56
873.689	1640.42
873.87	1112.05
874.052	1349.61
874.233	1488.87
874.415	1789.92
874.596	1214.45
874.778	1216.49
874.959	1581.03
875.141	1640.42
875.322	1224.69
875.503	1148.91
875.685	1673.19
875.866	1198.06
876.048	1193.97
876.229	1126.38
876.41	1480.68
876.592	1681.38
876.773	1249.26
876.954	1097.71
877.136	1820.64
877.317	1509.35
877.498	995.31
877.679	1325.04
877.86	1710.05
878.042	1548.26
878.223	1206.25
878.404	1607.66
878.585	1710.05
878.766	1947.62
878.947	1556.46
879.128	1460.2
879.309	1832.93
879.49	1779.68
879.672	1247.21
879.853	1349.61
880.034	1402.86
880.215	1480.68
880.396	1329.13
880.576	1181.68
880.757	1449.96
880.938	1933.28
881.119	1200.11
881.3	1241.07
881.481	1468.39
881.662	2465.75
881.843	1163.25
882.023	1169.39
882.204	1648.61
882.385	1656.81
882.566	1363.95
882.747	1290.22
882.927	1591.27
883.108	1630.18
883.289	1290.22
883.469	1611.75
883.65	1462.25
883.831	1705.96
884.011	1476.59
884.192	1390.57
884.373	1677.29
884.553	1761.25
884.734	1521.64
884.914	1648.61
885.095	2295.77
885.275	1974.24
885.456	1640.42
885.636	1161.2
885.817	1646.57
885.997	1556.46
886.178	1294.32
886.358	1515.5
886.538	1724.39
886.719	2764.76
886.899	1368.04
887.08	1417.19
887.26	1957.86
887.44	1398.76
887.621	1351.66
887.801	1439.72
887.981	2295.77
888.161	1869.8
888.342	1441.77
888.522	1566.7
888.702	1877.99
888.882	1947.62
889.062	1624.04
889.242	1136.62
889.423	2115.55
889.603	1847.27
889.783	1562.6
889.963	1433.58
890.143	1849.32
890.323	1978.34
890.503	1433.58
890.683	1488.87
890.863	1740.77
891.043	1925.09
891.223	1638.38
891.403	1636.33
891.583	1689.57
891.763	1845.22
891.943	1464.3
892.122	1429.48
892.302	1818.6
892.482	1757.16
892.662	1748.97
892.842	1685.48
893.022	1824.74
893.201	1603.56
893.381	1665
893.561	1513.45
893.741	1867.75
893.92	1869.8
894.1	1574.89
894.28	1535.98
894.459	2013.15
894.639	1841.12
894.819	1390.57
894.998	1654.76
895.178	1763.3
895.357	1843.17
895.537	1390.57
895.716	1409
895.896	1611.75
896.075	2234.33
896.255	1617.9
896.434	1437.67
896.614	1982.43
896.793	2166.75
896.973	1722.34
897.152	1607.66
897.331	1968.1
897.511	1894.37
897.69	1476.59
897.87	1722.34
898.049	1916.9
898.228	1746.92
898.407	1695.72
898.587	1685.48
898.766	1740.77
898.945	1900.52
899.124	1740.77
899.304	1599.46
899.483	1953.76
899.662	2258.91
899.841	1447.91
900.02	1587.18
900.199	2238.43
900.378	1898.47
900.557	1501.16
900.737	1570.79
900.916	1861.6
901.095	2107.36
901.274	1771.49
901.453	1429.48
901.632	1581.03
901.811	1681.38
901.989	1384.43
902.168	1503.21
902.347	2090.98
902.526	1689.57
902.705	1597.42
902.884	1615.85
903.063	2295.77
903.242	1943.52
903.42	1468.39
903.599	1683.43
903.778	2017.25
903.957	2244.57
904.135	1759.21
904.314	1619.94
904.493	1877.99
904.672	1841.12
904.85	1570.79
905.029	1509.35
905.207	1820.64
905.386	2492.38
905.565	1406.95
905.743	1472.49
905.922	1691.62
906.1	2103.26
906.279	1583.08
906.457	1540.07
906.636	1748.97
906.814	1791.97
906.993	1558.5
907.171	1462.25
907.35	2043.87
907.528	1959.91
907.707	1742.82
907.885	1359.85
908.063	2263.01
908.242	1652.71
908.42	1595.37
908.598	1234.93
908.777	1957.86
908.955	1619.94
909.133	1626.09
909.311	1361.9
909.49	1695.72
909.668	1751.01
909.846	1480.68
910.024	1376.24
910.202	1718.25
910.38	1943.52
910.559	1417.19
910.737	1380.33
910.915	1906.66
911.093	1896.42
911.271	1507.31
911.449	1796.07
911.627	2004.96
911.805	2365.4
911.983	1525.74
912.161	1433.58
912.339	1871.84
912.517	2070.5
912.695	1644.52
912.872	1540.07
913.05	1626.09
913.228	1923.04
913.406	1538.02
913.584	1316.84
913.762	1904.61
913.939	1642.47
914.117	1490.92
914.295	1439.72
914.473	1738.73
914.65	1906.66
914.828	1478.63
915.006	1415.15
915.184	1501.16
915.361	1888.23
915.539	1644.52
915.716	1775.59
915.894	1779.68
916.072	1943.52
916.249	1662.95
916.427	1607.66
916.604	1538.02
916.782	1861.6
916.959	1337.32
917.137	1423.34
917.314	1810.4
917.492	1898.47
917.669	1595.37
917.847	1474.54
918.024	1818.6
918.201	1566.7
918.379	1388.52
918.556	1468.39
918.733	1800.16
918.911	1558.5
919.088	1578.98
919.265	1454.06
919.442	1691.62
919.62	1693.67
919.797	1318.89
919.974	1255.4
920.151	1703.91
920.328	1611.75
920.506	1294.32
920.683	1550.31
920.86	1325.04
921.037	1423.34
921.214	1501.16
921.391	1279.98
921.568	1873.89
921.745	1501.16
921.922	1380.33
922.099	1259.5
922.276	1871.84
922.453	1699.81
922.63	1263.6
922.807	1728.49
922.984	1759.21
923.161	1466.35
923.338	1423.34
923.514	1247.21
923.691	1642.47
923.868	1769.45
924.045	1357.8
924.222	1261.55
924.399	1732.58
924.575	1783.78
924.752	1425.39
924.929	1464.3
925.105	1642.47
925.282	1402.86
925.459	1222.64
925.635	1329.13
925.812	1513.45
925.989	1480.68
926.165	1392.62
926.342	1259.5
926.518	1183.73
926.695	1589.22
926.871	1224.69
927.048	1026.03
927.224	1742.82
927.401	1527.78
927.577	1417.19
927.754	1251.31
927.93	1843.17
928.107	1595.37
928.283	1136.62
928.459	1337.32
928.636	1691.62
928.812	1417.19
928.988	1177.58
929.165	1009.65
929.341	1458.15
929.517	1499.11
929.693	1650.66
929.87	1032.18
930.046	1572.84
930.222	1370.09
930.398	1126.38
930.574	1292.27
930.751	1566.7
930.927	1331.18
931.103	1200.11
931.279	1222.64
931.455	1181.68
931.631	1386.47
931.807	1085.42
931.983	1155.05
932.159	1157.1
932.335	1531.88
932.511	1279.98
932.687	1228.78
932.863	1464.3
933.039	1329.13
933.215	1003.5
933.391	1023.98
933.566	1273.84
933.742	1466.35
933.918	1144.81
934.094	882.67
934.27	1318.89
934.445	1398.76
934.621	1079.28
934.797	974.83
934.973	1527.78
935.148	1390.57
935.324	991.22
935.5	868.34
935.675	1480.68
935.851	1288.17
936.027	956.4
936.202	972.79
936.378	1259.5
936.553	1167.34
936.729	1333.23
936.904	923.63
937.08	884.72
937.255	1007.6
937.431	874.48
937.606	667.64
937.782	940.02
937.957	1177.58
938.133	927.73
938.308	677.88
938.483	1122.29
938.659	776.18
938.834	802.8
939.009	677.88
939.185	868.34
939.36	753.65
939.535	460.79
939.71	794.61
939.886	1155.05
940.061	1116.14
940.236	944.11
940.411	772.08
940.586	972.79
940.761	1062.9
940.937	702.45
941.112	598.01
941.287	929.78
941.462	972.79
941.637	595.96
941.812	608.25
941.987	921.59
942.162	854
942.337	679.93
942.512	669.69
942.687	999.41
942.862	1017.84
943.037	446.46
943.212	380.92
943.386	729.08
943.561	786.42
943.736	755.7
943.911	913.39
944.086	915.44
944.26	925.68
944.435	565.24
944.61	694.26
944.785	1021.94
944.959	1220.59
945.134	567.29
945.309	473.08
945.483	604.15
945.658	983.03
945.833	235.52
946.007	460.79
946.182	1155.05
946.357	559.1
946.531	370.68
946.706	440.31
946.88	417.79
947.055	874.48
947.229	559.1
947.404	495.61
947.578	966.64
947.752	813.04
947.927	421.88
948.101	387.07
948.276	839.67
948.45	864.24
948.624	755.7
948.799	425.98
948.973	948.21
949.147	501.75
949.321	722.93
949.496	481.27
949.67	944.11
949.844	798.71
950.018	493.56
950.193	559.1
950.367	1357.8
950.541	704.5
950.715	542.71
950.889	710.65
951.063	663.54
951.237	880.63
951.411	299
951.585	366.59
951.759	954.35
951.933	745.46
952.107	559.1
952.281	671.73
952.455	1066.99
952.629	962.55
952.803	538.62
952.977	479.22
953.151	1011.7
953.325	827.38
953.499	708.6
953.672	460.79
953.846	569.34
954.02	727.03
954.194	538.62
954.368	462.84
954.541	856.05
954.715	700.41
954.889	567.29
955.062	548.86
955.236	763.89
955.41	669.69
955.583	657.4
955.757	251.9
955.93	702.45
956.104	581.62
956.278	495.61
956.451	557.05
956.625	845.81
956.798	1222.64
956.972	720.89
957.145	325.63
957.319	792.56
957.492	673.78
957.665	532.47
957.839	489.46
958.012	786.42
958.185	661.49
958.359	505.85
958.532	684.02
958.705	913.39
958.879	829.43
959.052	653.3
959.225	395.26
959.398	743.41
959.572	862.19
959.745	546.81
959.918	507.9
960.091	632.82
960.264	878.58
960.438	342.01
960.611	374.78
960.784	935.92
960.957	624.63
961.13	915.44
961.303	409.59
961.476	747.51
961.649	933.87
961.822	368.63
961.995	561.14
962.168	935.92
962.341	714.74
962.514	399.35
962.686	497.66
962.859	749.56
963.032	899.06
963.205	522.23
963.378	407.55
963.551	749.56
963.723	722.93
963.896	577.53
964.069	673.78
964.242	731.12
964.414	944.11
964.587	573.43
964.76	618.49
964.932	851.96
965.105	743.41
965.278	591.86
965.45	421.88
965.623	712.69
965.795	978.93
965.968	516.09
966.14	481.27
966.313	602.1
966.485	710.65
966.658	466.94
966.83	483.32
967.003	1017.84
967.175	993.26
967.348	507.9
967.52	550.9
967.692	1032.18
967.865	905.2
968.037	536.57
968.209	851.96
968.382	804.85
968.554	966.64
968.726	522.23
968.898	423.93
969.071	854
969.243	825.33
969.415	540.66
969.587	587.77
969.759	1245.17
969.932	882.67
970.104	466.94
970.276	178.17
970.448	643.06
970.62	622.58
970.792	598.01
970.964	526.33
971.136	1251.31
971.308	786.42
971.48	444.41
971.652	462.84
971.824	1058.8
971.996	692.21
972.168	518.14
972.339	548.86
972.511	911.35
972.683	667.64
972.855	630.77
973.027	614.39
973.199	778.23
973.37	817.14
973.542	587.77
973.714	620.53
973.886	669.69
974.057	882.67
974.229	419.83
974.401	495.61
974.572	579.58
974.744	321.53
974.915	454.65
975.087	505.85
975.259	985.07
975.43	532.47
975.602	464.89
975.773	344.06
975.945	499.7
976.116	784.37
976.288	374.78
976.459	630.77
976.63	675.83
976.802	782.32
976.973	518.14
977.145	612.34
977.316	1255.4
977.487	741.36
977.659	663.54
977.83	628.73
978.001	1136.62
978.172	780.28
978.344	399.35
978.515	526.33
978.686	575.48
978.857	1087.47
979.028	407.55
979.2	342.01
979.371	1044.46
979.542	784.37
979.713	604.15
979.884	122.88
980.055	571.38
980.226	620.53
980.397	489.46
980.568	360.44
980.739	933.87
980.91	624.63
981.081	632.82
981.252	411.64
981.423	860.15
981.594	862.19
981.765	403.45
981.936	616.44
982.106	659.45
982.277	972.79
982.448	352.25
982.619	636.92
982.79	548.86
982.96	817.14
983.131	497.66
983.302	274.43
983.472	587.77
983.643	690.17
983.814	579.58
983.984	425.98
984.155	641.01
984.326	890.87
984.496	604.15
984.667	425.98
984.837	487.42
985.008	1017.84
985.178	638.97
985.349	579.58
985.519	653.3
985.69	503.8
985.86	405.5
986.031	288.76
986.201	665.59
986.371	829.43
986.542	278.52
986.712	190.46
986.882	761.84
987.053	733.17
987.223	378.87
987.393	669.69
987.563	591.86
987.734	782.32
987.904	761.84
988.074	487.42
988.244	739.32
988.414	462.84
988.585	342.01
988.755	473.08
988.925	643.06
989.095	1054.7
989.265	299
989.435	446.46
989.605	759.8
989.775	767.99
989.945	727.03
990.115	278.52
990.285	690.17
990.455	774.13
990.625	415.74
990.795	401.4
990.965	911.35
991.134	385.02
991.304	251.9
991.474	329.72
991.644	700.41
991.814	1021.94
991.984	346.11
992.153	419.83
992.323	522.23
992.493	538.62
992.662	153.6
992.832	620.53
993.002	612.34
993.171	636.92
993.341	210.94
993.511	423.93
993.68	419.83
993.85	843.76
994.019	178.17
994.189	241.66
994.358	727.03
994.528	464.89
994.697	38.91
994.867	188.41
995.036	843.76
995.206	403.45
995.375	272.38
995.544	555
995.714	546.81
995.883	458.75
996.052	366.59
996.222	57.34
996.391	1032.18
996.56	643.06
996.73	159.74
996.899	59.39
997.068	880.63
997.237	563.19
997.406	215.04
997.576	118.78
997.745	624.63
997.914	634.87
998.083	67.58
998.252	280.57
998.421	585.72
998.59	456.7
998.759	157.69
998.928	141.31
999.097	903.15
999.266	661.49
999.435	432.12
999.604	159.74
999.773	1011.7
999.942	538.62
1000.111	143.36
1000.28	32.77
1000.448	333.82
1000.617	327.68
1000.786	466.94
1000.955	210.94
1001.124	638.97
1001.292	1159.15
1001.461	114.69
1001.63	180.22
1001.798	872.43
1001.967	800.76
1002.136	174.08
1002.304	149.5
1002.473	542.71
1002.642	632.82
1002.81	204.8
1002.979	247.8
1003.147	759.8
1003.316	1087.47
1003.484	223.23
1003.653	118.78
1003.821	784.37
1003.99	436.22
1004.158	253.95
1004.327	288.76
1004.495	745.46
1004.663	292.86
1004.832	294.91
1005	180.22
1005.168	679.93
1005.337	509.94
1005.505	67.58
1005.673	358.39
1005.842	600.05
1006.01	641.01
1006.178	26.62
1006.346	126.97
1006.514	634.87
1006.683	854
1006.851	96.25
1007.019	57.34
1007.187	260.09
1007.355	120.83
1007.523	20.48
1007.691	4.1
1007.859	165.89
1008.027	735.22
1008.195	120.83
1008.363	108.54
1008.531	679.93
1008.699	317.44
1008.867	51.2
1009.035	176.13
1009.203	743.41
1009.37	534.52
1009.538	135.17
1009.706	598.01
1009.874	577.53
1010.042	428.03
1010.209	-8.19
1010.377	116.73
1010.545	737.27
1010.713	550.9
1010.88	104.45
1011.048	153.6
1011.216	423.93
1011.383	767.99
1011.551	86.01
1011.718	51.2
1011.886	624.63
1012.054	407.55
1012.221	122.88
1012.389	137.21
1012.556	491.51
1012.724	899.06
1012.891	276.48
1013.058	-75.77
1013.226	593.91
1013.393	665.59
1013.561	-38.91
1013.728	-75.77
1013.895	665.59
1014.063	593.91
1014.23	32.77
1014.397	-14.34
1014.565	626.68
1014.732	346.11
1014.899	-6.14
1015.066	86.01
1015.233	407.55
1015.401	559.1
1015.568	73.73
1015.735	137.21
1015.902	507.9
1016.069	522.23
1016.236	79.87
1016.403	51.2
1016.57	147.45
1016.737	628.73
1016.904	112.64
1017.071	-2.05
1017.238	290.81
1017.405	692.21
1017.572	73.73
1017.739	174.08
1017.906	497.66
1018.073	643.06
1018.24	-43.01
1018.407	65.54
1018.573	636.92
1018.74	391.16
1018.907	116.73
1019.074	-51.2
1019.241	636.92
1019.407	397.31
1019.574	-55.3
1019.741	-120.83
1019.907	485.37
1020.074	483.32
1020.241	-190.46
1020.407	61.44
1020.574	538.62
1020.74	530.42
1020.907	139.26
1021.073	-24.58
1021.24	880.63
1021.406	772.08
1021.573	28.67
1021.739	-12.29
1021.906	657.4
1022.072	303.1
1022.239	30.72
1022.405	114.69
1022.571	403.45
1022.738	325.63
1022.904	-18.43
1023.07	124.93
1023.237	413.69
1023.403	667.64
1023.569	92.16
1023.735	73.73
1023.902	395.26
1024.068	442.36
1024.234	-114.69
1024.4	77.82
1024.566	473.08
1024.732	481.27
1024.898	0
1025.065	-122.88
1025.231	587.77
1025.397	258.04
1025.563	30.72
1025.729	-49.15
1025.895	0
1026.061	122.88
1026.227	-153.6
1026.392	16.38
1026.558	600.05
1026.724	489.46
1026.89	-112.64
1027.056	88.06
1027.222	565.24
1027.388	264.19
1027.553	-4.1
1027.719	2.05
1027.885	735.22
1028.051	514.04
1028.216	-202.75
1028.382	47.1
1028.548	493.56
1028.713	225.28
1028.879	-188.41
1029.045	73.73
1029.21	759.8
1029.376	548.86
1029.541	57.34
1029.707	-16.38
1029.873	483.32
1030.038	602.1
1030.204	-112.64
1030.369	8.19
1030.534	610.29
1030.7	206.84
1030.865	-49.15
1031.031	-63.49
1031.196	468.98
1031.361	428.03
1031.527	-73.73
1031.692	-34.82
1031.857	-63.49
1032.023	464.89
1032.188	-81.92
1032.353	77.82
1032.518	671.73
1032.684	399.35
1032.849	-176.13
1033.014	108.54
1033.179	481.27
1033.344	497.66
1033.509	172.03
1033.674	-32.77
1033.839	507.9
1034.004	538.62
1034.17	-92.16
1034.335	-133.12
1034.5	227.32
1034.664	292.86
1034.829	-30.72
1034.994	-59.39
1035.159	415.74
1035.324	360.44
1035.489	20.48
1035.654	-43.01
1035.819	585.72
1035.984	448.51
1036.148	12.29
1036.313	49.15
1036.478	579.58
1036.643	315.39
1036.807	-26.62
1036.972	-118.78
1037.137	645.11
1037.301	354.3
1037.466	-292.86
1037.631	59.39
1037.795	657.4
1037.96	366.59
1038.124	165.89
1038.289	-157.69
1038.454	585.72
1038.618	448.51
1038.783	-57.34
1038.947	73.73
1039.111	428.03
1039.276	215.04
1039.44	-137.21
1039.605	352.25
1039.769	249.85
1039.933	305.15
1040.098	79.87
1040.262	108.54
1040.426	526.33
1040.591	432.12
1040.755	-124.93
1040.919	-43.01
1041.083	540.66
1041.248	286.72
1041.412	-260.09
1041.576	-83.97
1041.74	296.96
1041.904	507.9
1042.068	-190.46
1042.232	96.25
1042.397	473.08
1042.561	389.11
1042.725	-253.95
1042.889	47.1
1043.053	448.51
1043.217	442.36
1043.381	47.1
1043.544	-169.98
1043.708	628.73
1043.872	133.12
1044.036	-331.77
1044.2	-188.41
1044.364	585.72
1044.528	673.78
1044.691	4888.5
1044.855	-143.36
1045.019	518.14
1045.183	536.57
1045.346	-51.2
1045.51	-165.89
1045.674	337.91
1045.837	456.7
1046.001	-157.69
1046.165	-133.12
1046.328	802.8
1046.492	364.54
1046.655	190.46
1046.819	-22.53
1046.983	151.55
1047.146	409.59
1047.31	-47.1
1047.473	-190.46
1047.636	235.52
1047.8	145.41
1047.963	88.06
1048.127	-53.25
1048.29	227.32
