Data from Ink_Intensity_USB4F045381__45__00045.txt Node

Date: Mon Jul 17 10:11:22 EDT 2023
User: mmckonesweet
Spectrometer: USB4F04538
Trigger mode: 4
Integration Time (sec): 9.000000E-1
Scans to average: 1
Electric dark correction enabled: true
Nonlinearity correction enabled: false
Boxcar width: 0
XAxis mode: Wavelengths
Number of Pixels in Spectrum: 3648
>>>>>Begin Spectral Data<<<<<
345.52	-1015.11
345.736	-1015.11
345.952	-1015.11
346.168	-994.63
346.384	-998.73
346.6	-140.63
346.816	-294.22
347.032	-185.68
347.248	238.25
347.464	-197.97
347.68	-152.91
347.896	176.81
348.112	373.41
348.328	-60.76
348.544	-138.58
348.76	94.89
348.975	287.4
349.191	-210.26
349.407	-150.87
349.623	27.31
349.839	-85.33
350.055	-165.2
350.27	27.31
350.486	176.81
350.702	363.17
350.918	164.52
351.133	-204.11
351.349	78.51
351.565	428.71
351.781	-253.27
351.996	-52.56
352.212	369.32
352.428	-118.1
352.644	-136.53
352.859	-253.27
353.075	246.44
353.291	-19.8
353.506	-152.91
353.722	-257.36
353.938	-64.85
354.153	397.99
354.369	70.31
354.584	-214.35
354.8	242.34
355.016	-361.81
355.231	-245.07
355.447	-93.52
355.662	148.14
355.878	783.01
356.093	-392.53
356.309	-56.66
356.524	-208.21
356.74	127.66
356.955	-167.25
357.171	-77.14
357.386	199.34
357.602	-324.94
357.817	-111.96
358.033	-187.73
358.248	340.65
358.464	55.98
358.679	-150.87
358.895	-324.94
359.11	-23.89
359.325	314.02
359.541	55.98
359.756	23.21
359.972	-314.7
360.187	125.61
360.402	-167.25
360.618	-173.39
360.833	881.31
361.048	119.46
361.264	-189.78
361.479	-75.09
361.694	6.83
361.909	152.23
362.125	-163.15
362.34	-138.58
362.555	217.77
362.77	41.64
362.986	-275.79
363.201	-224.59
363.416	109.22
363.631	39.59
363.847	-226.64
364.062	-169.3
364.277	129.7
364.492	94.89
364.707	-116.05
364.922	-378.19
365.138	228.01
365.353	371.36
365.568	-326.99
365.783	-128.34
365.998	58.03
366.213	455.33
366.428	-247.12
366.643	17.07
366.858	213.67
367.073	158.38
367.288	-189.78
367.503	-191.83
367.718	-9.56
367.933	197.29
368.148	-269.65
368.363	-91.48
368.578	10.92
368.793	389.8
369.008	-175.44
369.223	-218.45
369.438	172.71
369.653	463.52
369.868	-326.99
370.083	-273.75
370.298	90.79
370.513	348.84
370.728	-34.13
370.943	-187.73
371.157	-177.49
371.372	471.72
371.587	-298.32
371.802	-214.35
372.017	27.31
372.232	363.17
372.446	-36.18
372.661	-255.31
372.876	283.3
373.091	195.24
373.306	-54.61
373.52	-245.07
373.735	-245.07
373.95	397.99
374.165	-154.96
374.379	-101.72
374.594	-146.77
374.809	74.41
375.023	0.68
375.238	-167.25
375.453	234.15
375.667	-265.55
375.882	-179.54
376.097	-214.35
376.311	-32.08
376.526	-32.08
376.741	-206.16
376.955	101.03
377.17	549.54
377.384	498.34
377.599	-114
377.813	-298.32
378.028	635.55
378.242	209.58
378.457	-120.15
378.672	-378.19
378.886	33.45
379.101	-60.76
379.315	-343.38
379.53	-214.35
379.744	193.19
379.958	135.85
380.173	-118.1
380.387	-154.96
380.602	176.81
380.816	-134.48
381.031	-183.63
381.245	-122.2
381.459	180.9
381.674	2574.98
381.888	-224.59
382.103	60.07
382.317	-238.93
382.531	420.52
382.746	-91.48
382.96	-144.72
383.174	-167.25
383.388	412.32
383.603	74.41
383.817	-326.99
384.031	158.38
384.246	449.19
384.46	-30.04
384.674	293.54
384.888	-116.05
385.103	55.98
385.317	-290.13
385.531	-48.47
385.745	303.78
385.959	311.97
386.174	-245.07
386.388	-275.79
386.602	-27.99
386.816	-189.78
387.03	-109.91
387.244	-165.2
387.458	21.16
387.672	299.69
387.887	-263.51
388.101	-257.36
388.315	256.68
388.529	121.51
388.743	-157.01
388.957	-200.02
389.171	334.5
389.385	-230.74
389.599	-152.91
389.813	-13.65
390.027	180.9
390.241	598.69
390.455	-126.29
390.669	-140.63
390.883	-66.9
391.097	301.73
391.311	84.65
391.525	-148.82
391.738	152.23
391.952	62.12
392.166	-75.09
392.38	-236.88
392.594	268.97
392.808	342.69
393.022	-85.33
393.236	-101.72
393.449	168.62
393.663	146.09
393.877	-251.22
394.091	-116.05
394.305	-97.62
394.518	-179.54
394.732	-240.98
394.946	-195.92
395.16	449.19
395.373	58.03
395.587	-234.83
395.801	-220.5
396.015	201.38
396.228	199.34
396.442	-273.75
396.656	-396.62
396.869	375.46
397.083	471.72
397.297	-132.44
397.51	-179.54
397.724	332.45
397.938	82.6
398.151	-294.22
398.365	-261.46
398.578	246.44
398.792	262.82
399.005	-60.76
399.219	-171.35
399.433	111.27
399.646	258.73
399.86	6.83
400.073	51.88
400.287	131.75
400.5	-144.72
400.714	-109.91
400.927	-36.18
401.141	185
401.354	1110.68
401.567	250.53
401.781	-232.79
401.994	236.2
402.208	461.48
402.421	-23.89
402.635	-159.06
402.848	-19.8
403.061	354.98
403.275	-32.08
403.488	-265.55
403.701	406.18
403.915	141.99
404.128	39.59
404.341	-204.11
404.555	115.37
404.768	-40.28
404.981	-46.42
405.195	-212.31
405.408	481.96
405.621	244.39
405.834	2.73
406.048	-275.79
406.261	336.55
406.474	455.33
406.687	-261.46
406.9	-114
407.114	-27.99
407.327	41.64
407.54	-339.28
407.753	-271.7
407.966	-128.34
408.179	199.34
408.392	-257.36
408.605	-306.51
408.819	154.28
409.032	168.62
409.245	-210.26
409.458	33.45
409.671	199.34
409.884	209.58
410.097	-314.7
410.31	12.97
410.523	225.96
410.736	-34.13
410.949	-124.24
411.162	-183.63
411.375	387.75
411.588	242.34
411.801	17.07
412.014	-308.56
412.227	-23.89
412.44	-17.75
412.653	-179.54
412.865	-5.46
413.078	242.34
413.291	217.77
413.504	-105.81
413.717	-259.41
413.93	234.15
414.143	-183.63
414.356	-136.53
414.568	-378.19
414.781	178.86
414.994	66.22
415.207	-77.14
415.42	-46.42
415.632	158.38
415.845	467.62
416.058	-304.46
416.271	-298.32
416.483	82.6
416.696	492.2
416.909	-218.45
417.121	-306.51
417.334	185
417.547	453.28
417.759	-179.54
417.972	-167.25
418.185	-91.48
418.397	252.58
418.61	-159.06
418.823	-251.22
419.035	406.18
419.248	15.02
419.46	-48.47
419.673	-75.09
419.885	174.76
420.098	-38.23
420.311	-118.1
420.523	-355.66
420.736	160.42
420.948	4.78
421.161	-232.79
421.373	-365.9
421.586	72.36
421.798	-111.96
422.01	-277.84
422.223	-107.86
422.435	-126.29
422.648	174.76
422.86	-226.64
423.073	-179.54
423.285	240.3
423.497	-370
423.71	-222.55
423.922	-312.66
424.134	166.57
424.347	397.99
424.559	55.98
424.771	29.35
424.984	-79.19
425.196	47.79
425.408	-367.95
425.621	-322.9
425.833	295.59
426.045	242.34
426.257	-310.61
426.47	-279.89
426.682	101.03
426.894	78.51
427.106	-167.25
427.318	-109.91
427.531	-48.47
427.743	172.71
427.955	-191.83
428.167	258.73
428.379	111.27
428.591	-97.62
428.804	-83.28
429.016	-193.87
429.228	-93.52
429.44	74.41
429.652	-19.8
429.864	-271.7
430.076	31.4
430.288	-83.28
430.5	-101.72
430.712	-132.44
430.924	240.3
431.136	86.7
431.348	-363.86
431.56	-218.45
431.772	29.35
431.984	-97.62
432.196	-322.9
432.408	-191.83
432.62	-56.66
432.832	127.66
433.044	98.99
433.256	-165.2
433.468	178.86
433.679	-331.09
433.891	-333.14
434.103	-64.85
434.315	402.08
434.527	209.58
434.739	-38.23
434.95	-163.15
435.162	203.43
435.374	-142.68
435.586	-193.87
435.798	-195.92
436.009	-214.35
436.221	-27.99
436.433	-136.53
436.645	-150.87
436.856	-56.66
437.068	305.83
437.28	-179.54
437.491	78.51
437.703	141.99
437.915	139.94
438.126	-161.11
438.338	4.78
438.55	19.11
438.761	139.94
438.973	-234.83
439.184	-99.67
439.396	29.35
439.608	228.01
439.819	-314.7
440.031	-68.95
440.242	205.48
440.454	137.9
440.665	-159.06
440.877	-40.28
441.088	144.04
441.3	-36.18
441.511	-314.7
441.723	-220.5
441.934	74.41
442.146	-13.65
442.357	0.68
442.569	109.22
442.78	0.68
442.991	510.63
443.203	178.86
443.414	-302.42
443.626	350.89
443.837	-85.33
444.048	-257.36
444.26	-388.43
444.471	19.11
444.682	275.11
444.894	-339.28
445.105	-382.29
445.316	238.25
445.528	152.23
445.739	-60.76
445.95	-95.57
446.161	70.31
446.373	301.73
446.584	-218.45
446.795	-157.01
447.006	187.05
447.217	402.08
447.429	-331.09
447.64	-306.51
447.851	344.74
448.062	66.22
448.273	-357.71
448.484	-218.45
448.695	252.58
448.907	-75.09
449.118	-79.19
449.329	8.87
449.54	-107.86
449.751	-224.59
449.962	-165.2
450.173	-214.35
450.384	363.17
450.595	369.32
450.806	-232.79
451.017	-185.68
451.228	297.64
451.439	357.03
451.65	-283.99
451.861	-333.14
452.072	-195.92
452.283	62.12
452.494	-83.28
452.705	-240.98
452.915	385.7
453.126	137.9
453.337	-181.59
453.548	-253.27
453.759	293.54
453.97	539.3
454.181	12.97
454.391	-163.15
454.602	55.98
454.813	193.19
455.024	-126.29
455.235	-281.94
455.445	123.56
455.656	84.65
455.867	-56.66
456.078	-161.11
456.288	-107.86
456.499	111.27
456.71	-290.13
456.921	90.79
457.131	90.79
457.342	119.46
457.553	-161.11
457.763	-232.79
457.974	180.9
458.184	258.73
458.395	-288.08
458.606	-339.28
458.816	250.53
459.027	428.71
459.237	-30.04
459.448	-359.76
459.659	324.26
459.869	463.52
460.08	-288.08
460.29	-23.89
460.501	402.08
460.711	-167.25
460.922	-277.84
461.132	-214.35
461.343	701.09
461.553	-253.27
461.764	-245.07
461.974	-204.11
462.184	135.85
462.395	117.42
462.605	-150.87
462.816	-220.5
463.026	201.38
463.236	361.13
463.447	-257.36
463.657	-224.59
463.867	215.72
464.078	-62.8
464.288	-116.05
464.498	-200.02
464.709	43.69
464.919	-5.46
465.129	-114
465.339	-247.12
465.55	127.66
465.76	293.54
465.97	-116.05
466.18	-251.22
466.391	291.49
466.601	242.34
466.811	-34.13
467.021	-382.29
467.231	160.42
467.441	408.23
467.651	-52.56
467.862	-431.44
468.072	55.98
468.282	322.21
468.492	-240.98
468.702	-122.2
468.912	62.12
469.122	623.27
469.332	176.81
469.542	-193.87
469.752	209.58
469.962	178.86
470.172	-255.31
470.382	-200.02
470.592	256.68
470.802	453.28
471.012	4.78
471.222	-34.13
471.432	295.59
471.642	225.96
471.852	-114
472.062	-257.36
472.272	15.02
472.482	-173.39
472.691	-249.17
472.901	-181.59
473.111	131.75
473.321	664.22
473.531	-324.94
473.741	-52.56
473.95	207.53
474.16	211.62
474.37	-154.96
474.58	-245.07
474.79	520.87
474.999	305.83
475.209	-224.59
475.419	-204.11
475.628	37.55
475.838	443.04
476.048	-32.08
476.258	-249.17
476.467	332.45
476.677	2.73
476.886	-11.61
477.096	-101.72
477.306	-73.04
477.515	383.65
477.725	-105.81
477.935	12.97
478.144	447.14
478.354	-5.46
478.563	-32.08
478.773	-161.11
478.982	375.46
479.192	342.69
479.401	-101.72
479.611	-261.46
479.82	-85.33
480.03	127.66
480.239	-226.64
480.449	-181.59
480.658	406.18
480.868	-54.61
481.077	23.21
481.287	-101.72
481.496	254.63
481.705	488.1
481.915	133.8
482.124	127.66
482.333	209.58
482.543	465.57
482.752	31.4
482.961	-146.77
483.171	324.26
483.38	49.83
483.589	-7.51
483.799	-175.44
484.008	86.7
484.217	387.75
484.426	-50.52
484.636	-173.39
484.845	195.24
485.054	-122.2
485.263	242.34
485.472	-56.66
485.682	547.49
485.891	268.97
486.1	-243.03
486.309	-79.19
486.518	383.65
486.727	580.26
486.936	-107.86
487.146	-17.75
487.355	580.26
487.564	-99.67
487.773	-7.51
487.982	-85.33
488.191	66.22
488.4	195.24
488.609	-44.37
488.818	-25.94
489.027	719.52
489.236	514.72
489.445	-11.61
489.654	-97.62
489.863	436.9
490.072	266.92
490.281	211.62
490.49	-52.56
490.698	570.02
490.907	537.25
491.116	-48.47
491.325	-236.88
491.534	479.91
491.743	328.36
491.952	49.83
492.16	12.97
492.369	303.78
492.578	375.46
492.787	74.41
492.996	-208.21
493.204	-15.7
493.413	641.7
493.622	-243.03
493.831	-191.83
494.039	533.15
494.248	47.79
494.457	-56.66
494.665	-163.15
494.874	342.69
495.083	658.08
495.291	-15.7
495.5	-27.99
495.709	324.26
495.917	332.45
496.126	53.93
496.335	-44.37
496.543	119.46
496.752	283.3
496.96	324.26
497.169	-175.44
497.377	314.02
497.586	494.24
497.794	80.55
498.003	-230.74
498.211	170.66
498.42	588.45
498.628	103.08
498.837	-81.24
499.045	361.13
499.254	279.21
499.462	-66.9
499.671	-48.47
499.879	570.02
500.087	490.15
500.296	-77.14
500.504	-5.46
500.713	291.49
500.921	735.9
501.129	55.98
501.338	2.73
501.546	301.73
501.754	316.07
501.962	45.74
502.171	-81.24
502.379	430.76
502.587	676.51
502.795	66.22
503.004	92.84
503.212	326.31
503.42	506.53
503.628	115.37
503.837	68.27
504.045	471.72
504.253	662.18
504.461	19.11
504.669	-111.96
504.877	514.72
505.085	699.04
505.294	-107.86
505.502	262.82
505.71	406.18
505.918	553.63
506.126	-32.08
506.334	55.98
506.542	301.73
506.75	320.17
506.958	115.37
507.166	129.7
507.374	180.9
507.582	742.05
507.79	199.34
507.998	-48.47
508.206	461.48
508.414	379.56
508.622	4.78
508.83	43.69
509.037	660.13
509.245	250.53
509.453	-11.61
509.661	2.73
509.869	488.1
510.077	156.33
510.285	121.51
510.492	-208.21
510.7	963.23
510.908	193.19
511.116	107.18
511.324	72.36
511.531	230.06
511.739	369.32
511.947	287.4
512.155	350.89
512.362	342.69
512.57	-11.61
512.778	55.98
512.985	-97.62
513.193	629.41
513.401	703.14
513.608	160.42
513.816	103.08
514.024	465.57
514.231	647.84
514.439	49.83
514.646	144.04
514.854	516.77
515.061	639.65
515.269	101.03
515.477	62.12
515.684	246.44
515.892	580.26
516.099	-93.52
516.307	-73.04
516.514	541.35
516.722	807.58
516.929	115.37
517.136	92.84
517.344	678.56
517.551	443.04
517.759	152.23
517.966	178.86
518.173	293.54
518.381	441
518.588	230.06
518.796	29.35
519.003	539.3
519.21	447.14
519.418	64.17
519.625	418.47
519.832	481.96
520.039	412.32
520.247	-83.28
520.454	203.43
520.661	610.98
520.868	426.66
521.076	242.34
521.283	291.49
521.49	1016.48
521.697	516.77
521.904	234.15
522.112	178.86
522.319	551.59
522.526	553.63
522.733	107.18
522.94	115.37
523.147	449.19
523.354	610.98
523.561	-64.85
523.768	215.72
523.975	656.03
524.183	508.58
524.39	305.83
524.597	8.87
524.804	436.9
525.011	295.59
525.218	127.66
525.425	223.91
525.632	795.29
525.838	230.06
526.045	141.99
526.252	107.18
526.459	1491.6
526.666	1325.72
526.873	174.76
527.08	141.99
527.287	780.96
527.494	674.46
527.701	86.7
527.907	168.62
528.114	496.29
528.321	418.47
528.528	311.97
528.735	135.85
528.941	371.36
529.148	316.07
529.355	275.11
529.562	189.1
529.768	955.04
529.975	455.33
530.182	287.4
530.388	185
530.595	770.72
530.802	289.45
531.008	342.69
531.215	314.02
531.422	1161.88
531.628	1208.98
531.835	416.42
532.042	379.56
532.248	348.84
532.455	551.59
532.661	271.01
532.868	211.62
533.074	615.07
533.281	873.12
533.487	389.8
533.694	141.99
533.9	250.53
534.107	633.51
534.313	213.67
534.52	193.19
534.726	787.1
534.933	991.9
535.139	238.25
535.345	115.37
535.552	555.68
535.758	438.95
535.965	385.7
536.171	256.68
536.377	688.8
536.584	834.21
536.79	252.58
536.996	397.99
537.203	608.93
537.409	670.37
537.615	295.59
537.821	397.99
538.028	793.25
538.234	864.93
538.44	289.45
538.646	311.97
538.853	742.05
539.059	537.25
539.265	672.42
539.471	41.64
539.677	811.68
539.883	434.85
540.09	412.32
540.296	807.58
540.502	647.84
540.708	492.2
540.914	500.39
541.12	295.59
541.326	754.34
541.532	537.25
541.738	498.34
541.944	406.18
542.15	832.16
542.356	551.59
542.562	291.49
542.768	432.8
542.974	1249.94
543.18	1204.89
543.386	344.74
543.592	185
543.798	959.13
544.004	873.12
544.21	357.03
544.415	455.33
544.621	774.81
544.827	856.73
545.033	230.06
545.239	649.89
545.445	365.22
545.651	727.71
545.856	404.13
546.062	352.93
546.268	594.59
546.474	633.51
546.679	479.91
546.885	522.91
547.091	492.2
547.297	1206.94
547.502	549.54
547.708	289.45
547.914	475.81
548.119	836.25
548.325	330.41
548.531	254.63
548.736	1043.1
548.942	463.52
549.147	336.55
549.353	641.7
549.559	971.42
549.764	815.77
549.97	455.33
550.175	377.51
550.381	813.73
550.586	535.2
550.792	488.1
550.997	414.37
551.203	780.96
551.408	854.69
551.614	352.93
551.819	422.56
552.025	1112.73
552.23	1233.56
552.435	402.08
552.641	649.89
552.846	588.45
553.052	1024.67
553.257	510.63
553.462	490.15
553.668	617.12
553.873	930.46
554.078	508.58
554.283	365.22
554.489	780.96
554.694	778.91
554.899	393.89
555.105	596.64
555.31	924.32
555.515	926.36
555.72	563.87
555.925	402.08
556.131	967.32
556.336	619.17
556.541	492.2
556.746	414.37
556.951	1082.01
557.156	1211.03
557.361	725.66
557.567	660.13
557.772	1217.18
557.977	993.95
558.182	529.06
558.387	522.91
558.592	572.07
558.797	1131.16
559.002	660.13
559.207	666.27
559.412	828.06
559.617	1229.46
559.822	625.31
560.027	576.16
560.232	967.32
560.437	869.02
560.642	449.19
560.847	455.33
561.051	832.16
561.256	918.17
561.461	537.25
561.666	477.86
561.871	838.3
562.076	1075.87
562.281	660.13
562.485	457.38
562.69	1036.95
562.895	1061.53
563.1	586.4
563.305	584.35
563.509	1174.17
563.714	1405.59
563.919	508.58
564.123	594.59
564.328	797.34
564.533	1186.46
564.737	692.9
564.942	606.88
565.147	1200.79
565.351	1335.96
565.556	680.61
565.761	725.66
565.965	993.95
566.17	658.08
566.374	498.34
566.579	463.52
566.784	938.65
566.988	762.53
567.193	545.44
567.397	621.22
567.602	660.13
567.806	938.65
568.011	756.38
568.215	629.41
568.42	832.16
568.624	860.83
568.828	672.42
569.033	817.82
569.237	938.65
569.442	1014.43
569.646	553.63
569.85	670.37
570.055	840.35
570.259	1041.05
570.463	875.17
570.668	586.4
570.872	762.53
571.076	975.52
571.281	746.14
571.485	830.11
571.689	1008.28
571.893	1073.82
572.098	834.21
572.302	684.7
572.506	1151.64
572.71	1014.43
572.914	815.77
573.119	703.14
573.323	1335.96
573.527	1196.7
573.731	719.52
573.935	748.19
574.139	1092.25
574.343	918.17
574.547	793.25
574.751	742.05
574.955	1217.18
575.159	1247.9
575.364	631.46
575.568	653.98
575.772	912.03
575.976	1303.19
576.18	711.33
576.383	565.92
576.587	1219.22
576.791	1153.69
576.995	623.27
577.199	656.03
577.403	1223.32
577.607	1278.62
577.811	662.18
578.015	844.45
578.219	1192.6
578.422	1233.56
578.626	842.4
578.83	991.9
579.034	1333.91
579.238	1069.72
579.442	729.76
579.645	1305.24
579.849	983.71
580.053	1184.41
580.257	811.68
580.46	881.31
580.664	1333.91
580.868	1149.59
581.071	975.52
581.275	932.51
581.479	811.68
581.682	1186.46
581.886	715.42
582.09	963.23
582.293	1270.42
582.497	1270.42
582.7	1045.15
582.904	787.1
583.107	1270.42
583.311	1071.77
583.515	1049.24
583.718	1012.38
583.922	1276.57
584.125	1573.52
584.329	772.77
584.532	1039
584.735	1450.64
584.939	1268.38
585.142	703.14
585.346	815.77
585.549	1286.81
585.753	1000.09
585.956	973.47
586.159	1055.39
586.363	1546.9
586.566	1290.9
586.769	789.15
586.973	819.87
587.176	1335.96
587.379	1397.4
587.582	1258.14
587.786	1135.26
587.989	1135.26
588.192	1720.98
588.395	1000.09
588.599	1221.27
588.802	1245.85
589.005	1417.88
589.208	981.66
589.411	909.98
589.615	1493.65
589.818	1542.8
590.021	1229.46
590.224	1012.38
590.427	1434.26
590.63	1376.92
590.833	809.63
591.036	881.31
591.239	1188.5
591.442	1090.2
591.645	1206.94
591.848	1010.33
592.051	1290.9
592.254	1458.84
592.457	928.41
592.66	1082.01
592.863	1184.41
593.066	1391.25
593.269	932.51
593.472	1120.92
593.675	924.32
593.878	1462.93
594.081	1182.36
594.284	1051.29
594.486	1528.47
594.689	1401.49
594.892	1139.35
595.095	1176.22
595.298	1381.01
595.5	1168.02
595.703	1104.54
595.906	1223.32
596.109	1725.07
596.311	1653.39
596.514	848.54
596.717	1155.74
596.92	1665.68
597.122	1413.78
597.325	852.64
597.528	1012.38
597.73	1675.92
597.933	1434.26
598.136	1049.24
598.338	795.29
598.541	1462.93
598.743	1626.77
598.946	1202.84
599.148	1096.35
599.351	1610.39
599.554	1624.72
599.756	1278.62
599.959	1065.63
600.161	1600.15
600.363	1929.87
600.566	1338.01
600.768	987.8
600.971	1770.13
601.173	1637.01
601.376	1092.25
601.578	1237.66
601.78	1591.95
601.983	2011.79
602.185	1168.02
602.388	1442.45
602.59	1522.32
602.792	1284.76
602.995	1292.95
603.197	1147.55
603.399	1694.35
603.601	1600.15
603.804	1188.5
604.006	1233.56
604.208	1311.38
604.41	1129.11
604.613	1491.6
604.815	1141.4
605.017	1964.68
605.219	1372.82
605.421	1575.57
605.623	1219.22
605.826	1753.74
606.028	1858.19
606.23	1223.32
606.432	1342.1
606.634	1915.53
606.836	1786.51
607.038	1002.14
607.24	1424.02
607.442	1544.85
607.644	1528.47
607.846	1393.3
608.048	1157.78
608.25	1886.86
608.452	1331.86
608.654	1360.53
608.856	1071.77
609.058	1612.43
609.26	1659.54
609.462	1370.77
609.664	1284.76
609.866	1940.11
610.067	1673.87
610.269	1454.74
610.471	1227.42
610.673	1419.92
610.875	1665.68
611.077	1184.41
611.278	1372.82
611.48	1637.01
611.682	2009.74
611.884	1376.92
612.085	1340.05
612.287	1262.23
612.489	1583.76
612.69	1251.99
612.892	1415.83
613.094	1712.78
613.295	1700.5
613.497	1211.03
613.699	1303.19
613.9	1895.05
614.102	1927.82
614.304	1344.15
614.505	1251.99
614.707	1493.65
614.908	1622.67
615.11	1161.88
615.311	1428.12
615.513	1778.32
615.714	1718.93
615.916	1278.62
616.117	1370.77
616.319	1630.87
616.52	1862.29
616.722	1454.74
616.923	1360.53
617.124	1823.37
617.326	1794.7
617.527	1442.45
617.729	1628.82
617.93	1882.77
618.131	1864.33
618.333	1348.25
618.534	1481.36
618.735	1397.4
618.937	2065.04
619.138	1194.65
619.339	1315.48
619.54	1729.17
619.742	1573.52
619.943	1557.14
620.144	1464.98
620.345	1784.46
620.546	2003.6
620.748	1331.86
620.949	1528.47
621.15	1663.63
621.351	1647.25
621.552	1516.18
621.753	1258.14
621.954	1237.66
622.155	2122.38
622.356	1299.09
622.558	1532.56
622.759	1708.69
622.96	2110.09
623.161	1546.9
623.362	1471.12
623.563	1714.83
623.764	1686.16
623.965	1524.37
624.166	1632.91
624.366	1718.93
624.567	1723.02
624.768	1348.25
624.969	1514.13
625.17	1739.41
625.371	1948.3
625.572	1526.42
625.773	1376.92
625.973	1905.29
626.174	2017.93
626.375	1591.95
626.576	1579.67
626.777	1858.19
626.977	2314.89
627.178	1462.93
627.379	1591.95
627.58	1659.54
627.78	1843.85
627.981	1637.01
628.182	1634.96
628.382	2009.74
628.583	1467.03
628.784	1348.25
628.984	1628.82
629.185	2013.84
629.386	1976.97
629.586	1594
629.787	1651.35
629.987	1974.92
630.188	1800.85
630.388	1612.43
630.589	1577.62
630.79	2329.22
630.99	1796.75
631.191	1649.3
631.391	1639.06
631.591	1958.54
631.792	2196.11
631.992	1741.46
632.193	1686.16
632.393	2218.63
632.594	1790.61
632.794	1579.67
632.994	1782.42
633.195	1954.44
633.395	1956.49
633.595	1544.85
633.796	1809.04
633.996	1802.9
634.196	2095.75
634.397	1409.69
634.597	1690.26
634.797	1694.35
634.997	2183.82
635.198	1862.29
635.398	1602.19
635.598	1940.11
635.798	2296.46
635.998	2165.39
636.199	1573.52
636.399	1774.22
636.599	1585.81
636.799	1784.46
636.999	1893.01
637.199	2087.56
637.399	2169.48
637.599	1559.19
637.799	1845.9
637.999	1753.74
638.199	2196.11
638.399	1667.73
638.599	1610.39
638.799	2052.75
638.999	2511.49
639.199	1831.57
639.399	1837.71
639.599	2230.92
639.799	1778.32
639.999	1680.02
640.199	1684.11
640.399	1958.54
640.599	2044.56
640.799	1874.57
640.998	1874.57
641.198	2218.63
641.398	1981.07
641.598	1802.9
641.798	1878.67
641.997	2820.74
642.197	1944.2
642.397	1813.13
642.597	1733.26
642.796	2230.92
642.996	2245.26
643.196	1946.25
643.395	1671.83
643.595	2140.81
643.795	1667.73
643.994	1747.6
644.194	1804.94
644.394	2323.08
644.593	2159.24
644.793	1620.63
644.992	1931.92
645.192	2165.39
645.392	1659.54
645.591	1950.35
645.791	1880.72
645.99	2169.48
646.19	1999.5
646.389	1784.46
646.589	1827.47
646.788	2280.07
646.987	2208.39
647.187	2159.24
647.386	2081.42
647.586	2058.89
647.785	2392.71
647.984	1786.51
648.184	2034.32
648.383	2040.46
648.582	1929.87
648.782	1886.86
648.981	2081.42
649.18	1899.15
649.38	2208.39
649.579	1880.72
649.778	1733.26
649.977	2280.07
650.177	2110.09
650.376	1712.78
650.575	1720.98
650.774	2466.44
650.973	2026.12
651.173	1739.41
651.372	2028.17
651.571	2249.35
651.77	2380.42
651.969	1901.2
652.168	2005.64
652.367	1979.02
652.566	2159.24
652.765	1845.9
652.964	2226.82
653.163	2622.08
653.362	2177.67
653.561	1933.97
653.76	1946.25
653.959	2052.75
654.158	2253.45
654.357	2124.43
654.556	1901.2
654.755	2269.83
654.954	2413.19
655.153	1968.78
655.352	1972.88
655.551	2425.48
655.749	2146.95
655.948	1972.88
656.147	2071.18
656.346	2302.6
656.545	2122.38
656.743	2042.51
656.942	2157.19
657.141	2212.49
657.34	2069.13
657.538	1991.31
657.737	2022.03
657.936	2138.76
658.135	2423.43
658.333	1985.16
658.532	2202.25
658.731	2693.76
658.929	2402.95
659.128	2329.22
659.326	1905.29
659.525	2529.92
659.724	2267.78
659.922	1825.42
660.121	1806.99
660.319	2441.86
660.518	2060.94
660.716	1919.63
660.915	1925.77
661.113	2644.61
661.312	1907.34
661.51	2224.78
661.709	2011.79
661.907	2474.63
662.105	2663.04
662.304	2046.6
662.502	2153.1
662.701	2714.24
662.899	2224.78
663.097	2308.74
663.296	1936.01
663.494	2579.08
663.692	2597.51
663.891	1905.29
664.089	1999.5
664.287	2437.77
664.485	2529.92
664.684	2001.55
664.882	2122.38
665.08	2261.64
665.278	2450.05
665.476	1909.39
665.675	2411.14
665.873	2847.36
666.071	2495.11
666.269	2015.88
666.467	2237.06
666.665	2378.37
666.863	2292.36
667.061	2292.36
667.259	2134.67
667.457	2286.22
667.655	2534.02
667.853	2003.6
668.051	2097.8
668.249	2128.52
668.447	2357.89
668.645	2015.88
668.843	2382.47
669.041	2560.64
669.239	2361.99
669.437	2300.55
669.635	2257.54
669.833	2208.39
670.031	2456.2
670.229	2210.44
670.426	2310.79
670.624	2259.59
670.822	2243.21
671.02	2228.87
671.218	2261.64
671.415	2157.19
671.613	2443.91
671.811	2235.02
672.009	2204.3
672.206	2642.56
672.404	2538.12
672.602	2370.18
672.799	2210.44
672.997	2478.72
673.195	2775.68
673.392	2435.72
673.59	2095.75
673.788	2540.16
673.985	2013.84
674.183	2224.78
674.38	2194.06
674.578	2540.16
674.775	2323.08
674.973	2073.23
675.17	2103.95
675.368	2869.89
675.565	2607.75
675.763	2179.72
675.96	2241.16
676.158	2722.43
676.355	2439.81
676.553	2136.71
676.75	2243.21
676.947	2519.68
677.145	2329.22
677.342	2407.05
677.539	2290.31
677.737	2417.29
677.934	2841.22
678.131	2359.94
678.329	2206.35
678.526	2800.26
678.723	2472.58
678.92	2288.26
679.118	2310.79
679.315	2278.02
679.512	2837.12
679.709	2337.41
679.906	2247.3
680.104	2865.79
680.301	2626.18
680.498	2114.19
680.695	2183.82
680.892	2351.75
681.089	2265.74
681.286	2337.41
681.483	2132.62
681.68	2656.9
681.877	2677.38
682.075	2263.69
682.272	2517.64
682.469	2691.71
682.665	2349.7
682.862	2263.69
683.059	2024.08
683.256	2482.82
683.453	2486.92
683.65	2376.33
683.847	2331.27
684.044	2302.6
684.241	2112.14
684.438	2372.23
684.635	2265.74
684.831	2859.65
685.028	2976.38
685.225	2294.41
685.422	2357.89
685.619	2478.72
685.815	2550.4
686.012	2271.88
686.209	2292.36
686.405	2222.73
686.602	2800.26
686.799	2206.35
686.996	2036.36
687.192	2226.82
687.389	2906.75
687.586	2210.44
687.782	2335.37
687.979	2687.62
688.175	2845.31
688.372	2331.27
688.568	2294.41
688.765	2431.62
688.962	2835.07
689.158	2437.77
689.355	2224.78
689.551	2660.99
689.748	2357.89
689.944	2415.24
690.14	2089.61
690.337	2828.93
690.533	2439.81
690.73	2405
690.926	2288.26
691.123	2611.84
691.319	2372.23
691.515	2247.3
691.712	2411.14
691.908	2622.08
692.104	2706.05
692.301	2427.53
692.497	2185.87
692.693	2716.29
692.889	2677.38
693.086	2523.78
693.282	2177.67
693.478	2484.87
693.674	2931.33
693.87	2366.09
694.067	2067.08
694.263	2572.93
694.459	2409.09
694.655	2538.12
694.851	2351.75
695.047	2609.79
695.243	2652.8
695.439	2497.16
695.635	2376.33
695.831	2624.13
696.027	2585.22
696.224	2388.61
696.42	2605.7
696.615	2804.35
696.811	2632.32
697.007	2173.58
697.203	2429.57
697.399	2499.2
697.595	2865.79
697.791	2208.39
697.987	2525.83
698.183	2388.61
698.379	2318.98
698.575	2413.19
698.77	2382.47
698.966	2687.62
699.162	2759.3
699.358	2388.61
699.554	2224.78
699.749	2790.02
699.945	2818.69
700.141	2411.14
700.337	2566.79
700.532	2695.81
700.728	2421.38
700.924	2298.5
701.119	2208.39
701.315	2747.01
701.511	2402.95
701.706	2527.88
701.902	2165.39
702.097	2501.25
702.293	2744.96
702.489	2517.64
702.684	2282.12
702.88	2478.72
703.075	2515.59
703.271	2450.05
703.466	2280.07
703.662	2384.52
703.857	2609.79
704.053	2224.78
704.248	2235.02
704.443	2777.73
704.639	2667.14
704.834	2402.95
705.03	2312.84
705.225	2683.52
705.42	2833.02
705.616	2458.25
705.811	2249.35
706.006	2595.46
706.202	2519.68
706.397	2409.09
706.592	2108.04
706.787	2613.89
706.983	2652.8
707.178	2611.84
707.373	2435.72
707.568	2884.22
707.763	2787.97
707.959	2312.84
708.154	2278.02
708.349	2785.92
708.544	2675.33
708.739	2644.61
708.934	2290.31
709.129	2790.02
709.324	2691.71
709.519	2290.31
709.714	2292.36
709.909	2845.31
710.104	2624.13
710.299	2445.96
710.494	2470.53
710.689	2790.02
710.884	2628.23
711.079	2531.97
711.274	2677.38
711.469	2806.4
711.664	2699.91
711.859	2402.95
712.054	2570.88
712.249	2802.3
712.443	2937.47
712.638	2337.41
712.833	2359.94
713.028	2656.9
713.223	2566.79
713.417	2732.67
713.612	2380.42
713.807	2658.95
714.002	3170.94
714.196	2579.08
714.391	2333.32
714.586	2753.15
714.78	2691.71
714.975	2445.96
715.17	2343.56
715.364	2628.23
715.559	2884.22
715.754	2161.29
715.948	2491.01
716.143	2929.28
716.337	2591.36
716.532	2644.61
716.726	2259.59
716.921	2839.17
717.115	3084.92
717.31	2378.37
717.504	2839.17
717.699	2593.41
717.893	2724.48
718.088	2263.69
718.282	2271.88
718.476	2769.54
718.671	2765.44
718.865	2372.23
719.059	2409.09
719.254	2478.72
719.448	2998.91
719.642	3654.26
719.837	2134.67
720.031	2777.73
720.225	2859.65
720.419	2523.78
720.614	2337.41
720.808	2884.22
721.002	2523.78
721.196	2298.5
721.39	2314.89
721.585	2945.66
721.779	2800.26
721.973	2493.06
722.167	2288.26
722.361	2704
722.555	2871.93
722.749	2433.67
722.943	2183.82
723.137	2198.15
723.331	2624.13
723.525	2466.44
723.719	2425.48
723.913	2769.54
724.107	3007.1
724.301	2263.69
724.495	2415.24
724.689	2841.22
724.883	2957.95
725.077	2321.03
725.271	2343.56
725.465	2800.26
725.659	2552.45
725.853	2462.34
726.046	2259.59
726.24	2536.07
726.434	2775.68
726.628	2415.24
726.822	2448.01
727.015	2966.14
727.209	2841.22
727.403	2439.81
727.596	2275.98
727.79	2732.67
727.984	2790.02
728.177	2523.78
728.371	2511.49
728.565	2851.46
728.758	2357.89
728.952	2335.37
729.146	2368.13
729.339	2880.13
729.533	2478.72
729.726	2376.33
729.92	2445.96
730.113	2869.89
730.307	2783.87
730.5	2462.34
730.694	2421.38
730.887	2554.5
731.081	2890.37
731.274	2495.11
731.468	2384.52
731.661	2564.74
731.854	2632.32
732.048	2515.59
732.241	2198.15
732.435	2638.47
732.628	2669.19
732.821	2568.84
733.014	2454.15
733.208	2378.37
733.401	2830.98
733.594	2441.86
733.788	2376.33
733.981	2861.69
734.174	2796.16
734.367	2368.13
734.56	2464.39
734.754	2810.5
734.947	2654.85
735.14	2462.34
735.333	2431.62
735.526	2859.65
735.719	2488.96
735.912	2357.89
736.105	2411.14
736.298	2613.89
736.491	2599.55
736.684	2316.94
736.877	2423.43
737.07	2818.69
737.263	3019.39
737.456	2431.62
737.649	2433.67
737.842	2658.95
738.035	2642.56
738.228	2458.25
738.421	2529.92
738.614	3062.4
738.807	2914.94
739	2290.31
739.192	2290.31
739.385	2802.3
739.578	2894.46
739.771	2822.78
739.964	2488.96
740.156	2767.49
740.349	2609.79
740.542	2564.74
740.735	2288.26
740.927	2343.56
741.12	2456.2
741.313	2507.4
741.505	2513.54
741.698	2624.13
741.891	2790.02
742.083	2695.81
742.276	2568.84
742.468	2695.81
742.661	2677.38
742.854	2503.3
743.046	2376.33
743.239	3000.96
743.431	2749.06
743.624	2595.46
743.816	2253.45
744.009	2697.86
744.201	2839.17
744.393	2708.1
744.586	2435.72
744.778	3007.1
744.971	2646.66
745.163	2476.68
745.355	2495.11
745.548	2644.61
745.74	2587.27
745.932	2611.84
746.125	2474.63
746.317	3396.21
746.509	2716.29
746.702	2609.79
746.894	2511.49
747.086	2675.33
747.278	3023.48
747.471	2622.08
747.663	2656.9
747.855	2777.73
748.047	3093.12
748.239	2460.29
748.431	2310.79
748.623	3031.68
748.815	3129.98
749.008	2366.09
749.2	2308.74
749.392	2804.35
749.584	2755.2
749.776	2501.25
749.968	2585.22
750.16	3148.41
750.352	2720.39
750.544	2491.01
750.736	2454.15
750.928	2822.78
751.12	2884.22
751.311	2597.51
751.503	2691.71
751.695	3046.01
751.887	2663.04
752.079	2275.98
752.271	2503.3
752.463	3555.96
752.654	2949.76
752.846	2519.68
753.038	2562.69
753.23	2536.07
753.421	2865.79
753.613	2503.3
753.805	2617.99
753.997	2966.14
754.188	2898.56
754.38	2407.05
754.572	2411.14
754.763	2622.08
754.955	2914.94
755.146	2470.53
755.338	2552.45
755.53	2757.25
755.721	2599.55
755.913	2286.22
756.104	2357.89
756.296	2601.6
756.487	2773.63
756.679	2390.66
756.87	2568.84
757.062	2634.37
757.253	2916.99
757.445	2499.2
757.636	2796.16
757.827	2830.98
758.019	3230.33
758.21	2323.08
758.401	2415.24
758.593	3228.28
758.784	2927.23
758.975	2286.22
759.167	2415.24
759.358	2589.32
759.549	2960
759.74	2511.49
759.932	2382.47
760.123	3062.4
760.314	2695.81
760.505	2564.74
760.696	2441.86
760.888	3121.79
761.079	2628.23
761.27	2343.56
761.461	2370.18
761.652	3023.48
761.843	2609.79
762.034	2441.86
762.225	2704
762.416	2650.75
762.607	2671.23
762.798	2466.44
762.989	2265.74
763.18	3340.92
763.371	2650.75
763.562	2419.33
763.753	2480.77
763.944	2876.03
764.135	2931.33
764.326	2564.74
764.517	2361.99
764.708	2724.48
764.899	2706.05
765.089	2402.95
765.28	2228.87
765.471	2693.76
765.662	2685.57
765.853	2349.7
766.043	2265.74
766.234	2900.61
766.425	2839.17
766.615	2548.36
766.806	2325.13
766.997	2923.13
767.187	2689.67
767.378	2345.61
767.569	2200.2
767.759	2896.51
767.95	2792.06
768.141	2521.73
768.331	2407.05
768.522	2617.99
768.712	2736.77
768.903	2378.37
769.093	2269.83
769.284	3011.2
769.474	2572.93
769.665	2282.12
769.855	2130.57
770.046	2683.52
770.236	2519.68
770.426	2513.54
770.617	2171.53
770.807	2624.13
770.998	2540.16
771.188	2486.92
771.378	2243.21
771.569	2765.44
771.759	2712.19
771.949	2210.44
772.139	2173.58
772.33	2697.86
772.52	2904.7
772.71	2380.42
772.9	2376.33
773.09	2970.24
773.281	2976.38
773.471	2343.56
773.661	2286.22
773.851	2769.54
774.041	2419.33
774.231	2284.17
774.421	2484.87
774.611	2855.55
774.802	2749.06
774.992	2515.59
775.182	2296.46
775.372	2478.72
775.562	2843.26
775.752	2359.94
775.942	2341.51
776.131	2933.37
776.321	2679.43
776.511	2304.65
776.701	2175.63
776.891	2767.49
777.081	2499.2
777.271	2409.09
777.461	2294.41
777.651	2697.86
777.84	2679.43
778.03	2312.84
778.22	2382.47
778.41	2960
778.599	2349.7
778.789	2519.68
778.979	2232.97
779.169	2493.06
779.358	2482.82
779.548	2695.81
779.738	2239.11
779.927	2628.23
780.117	2310.79
780.307	2251.4
780.496	2208.39
780.686	2724.48
780.875	2982.53
781.065	2318.98
781.254	2278.02
781.444	2431.62
781.633	2568.84
781.823	2171.53
782.012	2239.11
782.202	2429.57
782.391	2617.99
782.581	2298.5
782.77	2495.11
782.96	2691.71
783.149	2527.88
783.338	2175.63
783.528	1981.07
783.717	2763.39
783.906	2781.82
784.096	2501.25
784.285	2214.54
784.474	2382.47
784.663	2448.01
784.853	2257.54
785.042	2253.45
785.231	2495.11
785.42	2781.82
785.61	2421.38
785.799	2187.91
785.988	2351.75
786.177	2374.28
786.366	2218.63
786.555	2501.25
786.744	2767.49
786.933	2550.4
787.122	2060.94
787.312	2056.84
787.501	2355.85
787.69	2536.07
787.879	2284.17
788.068	2171.53
788.257	2157.19
788.445	2325.13
788.634	2192.01
788.823	2089.61
789.012	3252.86
789.201	2728.58
789.39	2372.23
789.579	2073.23
789.768	2405
789.957	2386.57
790.145	2257.54
790.334	1915.53
790.523	2437.77
790.712	2366.09
790.9	2263.69
791.089	2044.56
791.278	2644.61
791.467	2521.73
791.655	2392.71
791.844	2630.27
792.033	2179.72
792.221	2300.55
792.41	2288.26
792.599	2048.65
792.787	2765.44
792.976	2622.08
793.164	2073.23
793.353	2167.43
793.541	2650.75
793.73	2593.41
793.918	2114.19
794.107	2138.76
794.295	2478.72
794.484	2400.9
794.672	2204.3
794.861	2196.11
795.049	2634.37
795.238	2824.83
795.426	2155.15
795.614	2359.94
795.803	2536.07
795.991	2843.26
796.179	2255.5
796.368	2067.08
796.556	2749.06
796.744	2208.39
796.932	2179.72
797.121	2040.46
797.309	2450.05
797.497	2658.95
797.685	2118.28
797.874	2134.67
798.062	2380.42
798.25	2763.39
798.438	2146.95
798.626	2249.35
798.814	2525.83
799.002	3043.96
799.19	2292.36
799.378	2228.87
799.566	2636.42
799.755	2798.21
799.943	2286.22
800.131	2179.72
800.318	2437.77
800.506	2486.92
800.694	2136.71
800.882	2402.95
801.07	2810.5
801.258	2323.08
801.446	2183.82
801.634	2085.51
801.822	2429.57
802.01	2552.45
802.197	2183.82
802.385	2349.7
802.573	2400.9
802.761	2314.89
802.949	2204.3
803.136	2138.76
803.324	2800.26
803.512	2577.03
803.699	2294.41
803.887	2114.19
804.075	2820.74
804.262	2435.72
804.45	2093.71
804.638	2378.37
804.825	2398.85
805.013	2275.98
805.201	2183.82
805.388	2257.54
805.576	2482.82
805.763	2912.89
805.951	2329.22
806.138	2439.81
806.326	2886.27
806.513	2691.71
806.701	2241.16
806.888	2101.9
807.075	2667.14
807.263	3082.88
807.45	2093.71
807.638	2472.58
807.825	3023.48
808.012	2876.03
808.2	2345.61
808.387	2531.97
808.574	2601.6
808.761	2867.84
808.949	2243.21
809.136	2415.24
809.323	2439.81
809.51	2419.33
809.698	2536.07
809.885	2493.06
810.072	2687.62
810.259	2763.39
810.446	2337.41
810.633	2194.06
810.82	2847.36
811.008	2914.94
811.195	2421.38
811.382	2325.13
811.569	2562.69
811.756	2308.74
811.943	2364.04
812.13	2294.41
812.317	2529.92
812.504	2386.57
812.691	2423.43
812.878	2433.67
813.064	2757.25
813.251	2548.36
813.438	2325.13
813.625	2615.94
813.812	2574.98
813.999	2488.96
814.186	2478.72
814.372	2325.13
814.559	2628.23
814.746	3029.63
814.933	2308.74
815.12	2589.32
815.306	2470.53
815.493	2407.05
815.68	2286.22
815.866	2372.23
816.053	2978.43
816.24	3113.6
816.426	2509.44
816.613	2249.35
816.799	2826.88
816.986	2871.93
817.173	2284.17
817.359	2255.5
817.546	2753.15
817.732	2361.99
817.919	2077.32
818.105	2560.64
818.292	2515.59
818.478	2593.41
818.665	2613.89
818.851	2335.37
819.037	3080.83
819.224	2728.58
819.41	2253.45
819.597	2462.34
819.783	3052.16
819.969	2781.82
820.156	2458.25
820.342	2286.22
820.528	3234.43
820.714	2468.48
820.901	2704
821.087	2353.8
821.273	2996.86
821.459	2454.15
821.646	2310.79
821.832	2220.68
822.018	2699.91
822.204	2708.1
822.39	2300.55
822.576	2323.08
822.762	2847.36
822.948	2634.37
823.134	2425.48
823.32	2228.87
823.507	2269.83
823.693	2718.34
823.879	2728.58
824.065	2364.04
824.25	2683.52
824.436	2386.57
824.622	2280.07
824.808	2382.47
824.994	2427.53
825.18	2294.41
825.366	2224.78
825.552	2380.42
825.738	2615.94
825.923	2865.79
826.109	2542.21
826.295	2294.41
826.481	2513.54
826.667	2634.37
826.852	2458.25
827.038	2157.19
827.224	2759.3
827.409	3078.78
827.595	2146.95
827.781	2503.3
827.966	2972.29
828.152	2738.82
828.338	2445.96
828.523	2318.98
828.709	2384.52
828.894	2765.44
829.08	2251.4
829.266	2394.76
829.451	2368.13
829.637	2695.81
829.822	2417.29
830.008	2323.08
830.193	2888.32
830.378	2908.8
830.564	2339.46
830.749	2302.6
830.935	2642.56
831.12	2798.21
831.305	2241.16
831.491	2308.74
831.676	2314.89
831.861	2712.19
832.047	2314.89
832.232	2159.24
832.417	2812.54
832.602	2667.14
832.788	2149
832.973	2267.78
833.158	2552.45
833.343	2521.73
833.528	2405
833.714	2425.48
833.899	2646.66
834.084	2945.66
834.269	2423.43
834.454	2405
834.639	2808.45
834.824	2603.65
835.009	2361.99
835.194	2429.57
835.379	2611.84
835.564	2720.39
835.749	2400.9
835.934	2144.91
836.119	2624.13
836.304	2595.46
836.489	2251.4
836.674	2581.12
836.859	2302.6
837.044	2859.65
837.228	2237.06
837.413	2112.14
837.598	2515.59
837.783	2790.02
837.968	2206.35
838.152	2019.98
838.337	2058.89
838.522	2712.19
838.707	2658.95
838.891	2486.92
839.076	2562.69
839.261	2718.34
839.445	2130.57
839.63	2316.94
839.815	2738.82
839.999	2278.02
840.184	2034.32
840.368	2108.04
840.553	2693.76
840.737	2650.75
840.922	2087.56
841.106	2181.77
841.291	2220.68
841.475	2503.3
841.66	2177.67
841.844	2216.58
842.029	3209.85
842.213	2226.82
842.397	2271.88
842.582	2062.99
842.766	2660.99
842.951	2568.84
843.135	2179.72
843.319	2224.78
843.504	2466.44
843.688	2671.23
843.872	2175.63
844.056	2019.98
844.241	2642.56
844.425	2292.36
844.609	2398.85
844.793	2028.17
844.977	2673.28
845.161	2460.29
845.346	2036.36
845.53	2089.61
845.714	2329.22
845.898	2824.83
846.082	1868.43
846.266	2108.04
846.45	2407.05
846.634	2269.83
846.818	2175.63
847.002	2192.01
847.186	2515.59
847.37	2126.47
847.554	2022.03
847.738	2243.21
847.922	2548.36
848.106	2556.55
848.29	2019.98
848.473	2097.8
848.657	2431.62
848.841	2261.64
849.025	2073.23
849.209	1966.73
849.392	2538.12
849.576	2294.41
849.76	1862.29
849.944	2284.17
850.127	2654.85
850.311	2073.23
850.495	1931.92
850.678	2118.28
850.862	2581.12
851.046	2792.06
851.229	2243.21
851.413	1925.77
851.596	2386.57
851.78	2278.02
851.964	2189.96
852.147	2019.98
852.331	2955.9
852.514	2499.2
852.698	2146.95
852.881	1999.5
853.065	2531.97
853.248	2267.78
853.431	2251.4
853.615	2206.35
853.798	2757.25
853.982	2474.63
854.165	2167.43
854.348	2044.56
854.532	2189.96
854.715	2253.45
854.898	2112.14
855.081	2249.35
855.265	2556.55
855.448	2660.99
855.631	2048.65
855.814	2210.44
855.997	2636.42
856.181	2243.21
856.364	1989.26
856.547	2007.69
856.73	2400.9
856.913	2306.7
857.096	1915.53
857.279	2222.73
857.462	2028.17
857.645	2624.13
857.828	2165.39
858.011	2159.24
858.194	2153.1
858.377	2525.83
858.56	1893.01
858.743	1987.21
858.926	2050.7
859.109	2308.74
859.292	1884.81
859.475	1954.44
859.658	2646.66
859.841	2355.85
860.023	1737.36
860.206	1954.44
860.389	2312.84
860.572	2564.74
860.755	2151.05
860.937	2007.69
861.12	2122.38
861.303	2151.05
861.486	2077.32
861.668	2038.41
861.851	2441.86
862.034	2341.51
862.216	2085.51
862.399	1837.71
862.581	2325.13
862.764	2638.47
862.947	2022.03
863.129	1923.73
863.312	1833.61
863.494	2400.9
863.677	2189.96
863.859	1796.75
864.042	2353.8
864.224	2622.08
864.406	2003.6
864.589	1712.78
864.771	2275.98
864.954	1995.4
865.136	1888.91
865.318	1745.55
865.501	2300.55
865.683	1786.51
865.865	1913.49
866.048	1979.02
866.23	2165.39
866.412	2124.43
866.594	1735.31
866.777	1944.2
866.959	2333.32
867.141	1946.25
867.323	2212.49
867.505	2095.75
867.687	2112.14
867.869	2181.77
868.052	2032.27
868.234	1839.76
868.416	2200.2
868.598	2267.78
868.78	1761.94
868.962	1796.75
869.144	2396.81
869.326	2310.79
869.508	1981.07
869.69	1815.18
869.872	2110.09
870.054	2484.87
870.236	1835.66
870.417	1751.7
870.599	2179.72
870.781	2615.94
870.963	2114.19
871.145	1782.42
871.327	1923.73
871.508	2280.07
871.69	1933.97
871.872	1880.72
872.054	2198.15
872.235	2327.18
872.417	1960.59
872.599	1673.87
872.78	2554.5
872.962	2241.16
873.144	1798.8
873.325	1995.4
873.507	2558.6
873.689	2257.54
873.87	1919.63
874.052	1964.68
874.233	2140.81
874.415	2417.29
874.596	1852.05
874.778	1921.68
874.959	2169.48
875.141	2306.7
875.322	1854.09
875.503	1850
875.685	2173.58
875.866	1788.56
876.048	1778.32
876.229	1800.85
876.41	2112.14
876.592	2200.2
876.773	1821.33
876.954	1819.28
877.136	2470.53
877.317	2097.8
877.498	1729.17
877.679	1886.86
877.86	2196.11
878.042	2300.55
878.223	1852.05
878.404	2146.95
878.585	2361.99
878.766	2585.22
878.947	2134.67
879.128	2189.96
879.309	2407.05
879.49	2413.19
879.672	2108.04
879.853	2056.84
880.034	1966.73
880.215	2032.27
880.396	2032.27
880.576	1942.16
880.757	2071.18
880.938	2433.67
881.119	1856.14
881.3	1938.06
881.481	2034.32
881.662	2960
881.843	1802.9
882.023	1868.43
882.204	2220.68
882.385	2167.43
882.566	1868.43
882.747	1874.57
882.927	2079.37
883.108	2245.26
883.289	1802.9
883.469	2136.71
883.65	2024.08
883.831	2273.93
884.011	1995.4
884.192	1925.77
884.373	2460.29
884.553	2417.29
884.734	2103.95
884.914	2292.36
885.095	3060.35
885.275	2701.95
885.456	2241.16
885.636	1843.85
885.817	2101.9
885.997	2226.82
886.178	1915.53
886.358	2024.08
886.538	2361.99
886.719	3183.23
886.899	2118.28
887.08	2163.34
887.26	2640.51
887.44	2108.04
887.621	1884.81
887.801	2095.75
887.981	2751.1
888.161	2491.01
888.342	2032.27
888.522	2011.79
888.702	2538.12
888.882	2538.12
889.062	2116.23
889.242	1884.81
889.423	2617.99
889.603	2413.19
889.783	2118.28
889.963	2206.35
890.143	2497.16
890.323	2523.78
890.503	2024.08
890.683	2138.76
890.863	2376.33
891.043	2515.59
891.223	2253.45
891.403	2226.82
891.583	2331.27
891.763	2450.05
891.943	2216.58
892.122	2128.52
892.302	2378.37
892.482	2300.55
892.662	2226.82
892.842	2140.81
893.022	2480.77
893.201	2353.8
893.381	2335.37
893.561	2194.06
893.741	2587.27
893.92	2439.81
894.1	2243.21
894.28	2286.22
894.459	2525.83
894.639	2491.01
894.819	2161.29
894.998	2259.59
895.178	2521.73
895.357	2519.68
895.537	2134.67
895.716	1974.92
895.896	2241.16
896.075	2812.54
896.255	2052.75
896.434	1850
896.614	2540.16
896.793	2775.68
896.973	2177.67
897.152	2183.82
897.331	2531.97
897.511	2611.84
897.69	1989.26
897.87	2185.87
898.049	2482.82
898.228	2423.43
898.407	2398.85
898.587	2241.16
898.766	2212.49
898.945	2626.18
899.124	2300.55
899.304	2273.93
899.483	2511.49
899.662	2826.88
899.841	2167.43
900.02	2198.15
900.199	2787.97
900.378	2478.72
900.557	2118.28
900.737	1979.02
900.916	2544.26
901.095	2634.37
901.274	2380.42
901.453	1981.07
901.632	2169.48
901.811	2210.44
901.989	2146.95
902.168	2120.33
902.347	2536.07
902.526	2230.92
902.705	2175.63
902.884	2212.49
903.063	2519.68
903.242	2630.27
903.42	1972.88
903.599	2167.43
903.778	2476.68
903.957	2792.06
904.135	2198.15
904.314	2253.45
904.493	2493.06
904.672	2456.2
904.85	2228.87
905.029	2159.24
905.207	2331.27
905.386	3070.59
905.565	2120.33
905.743	2097.8
905.922	2265.74
906.1	2558.6
906.279	2110.09
906.457	2067.08
906.636	2263.69
906.814	2312.84
906.993	2134.67
907.171	1970.83
907.35	2452.1
907.528	2538.12
907.707	2323.08
907.885	1979.02
908.063	2691.71
908.242	2282.12
908.42	2126.47
908.598	1899.15
908.777	2458.25
908.955	2280.07
909.133	2095.75
909.311	1913.49
909.49	2255.5
909.668	2312.84
909.846	2101.9
910.024	1821.33
910.202	2259.59
910.38	2417.29
910.559	1802.9
910.737	1962.64
910.915	2226.82
911.093	2335.37
911.271	1997.45
911.449	2142.86
911.627	2384.52
911.805	2665.09
911.983	1962.64
912.161	1798.8
912.339	2372.23
912.517	2437.77
912.695	2032.27
912.872	1954.44
913.05	2007.69
913.228	2407.05
913.406	1911.44
913.584	1852.05
913.762	2384.52
913.939	1940.11
914.117	1835.66
914.295	1686.16
914.473	2413.19
914.65	2179.72
914.828	1913.49
915.006	1878.67
915.184	1788.56
915.361	2200.2
915.539	1968.78
915.716	1970.83
915.894	2261.64
916.072	2351.75
916.249	2069.13
916.427	2118.28
916.604	2007.69
916.782	2292.36
916.959	1704.59
917.137	1684.11
917.314	2153.1
917.492	2347.65
917.669	2001.55
917.847	1804.94
918.024	2157.19
918.201	1839.76
918.379	1911.44
918.556	1856.14
918.733	2300.55
918.911	2177.67
919.088	1991.31
919.265	1800.85
919.442	2120.33
919.62	1974.92
919.797	1747.6
919.974	1684.11
920.151	2024.08
920.328	2034.32
920.506	1811.09
920.683	1989.26
920.86	1868.43
921.037	1864.33
921.214	1950.35
921.391	1864.33
921.568	2126.47
921.745	1778.32
921.922	1843.85
922.099	1669.78
922.276	2290.31
922.453	2050.7
922.63	1706.64
922.807	2044.56
922.984	2128.52
923.161	1811.09
923.338	1739.41
923.514	1587.86
923.691	1917.58
923.868	2134.67
924.045	1677.97
924.222	1667.73
924.399	2028.17
924.575	2108.04
924.752	1725.07
924.929	1788.56
925.105	2015.88
925.282	1784.46
925.459	1647.25
925.635	1718.93
925.812	1897.1
925.989	1739.41
926.165	1757.84
926.342	1391.25
926.518	1424.02
926.695	1751.7
926.871	1594
927.048	1426.07
927.224	2011.79
927.401	1763.98
927.577	1677.97
927.754	1338.01
927.93	1899.15
928.107	2011.79
928.283	1526.42
928.459	1731.22
928.636	1958.54
928.812	1733.26
928.988	1426.07
929.165	1319.57
929.341	1737.36
929.517	1776.27
929.693	1725.07
929.87	1280.66
930.046	2003.6
930.222	1606.29
930.398	1458.84
930.574	1659.54
930.751	1755.79
930.927	1575.57
931.103	1524.37
931.279	1469.08
931.455	1532.56
931.631	1710.74
931.807	1362.58
931.983	1358.49
932.159	1303.19
932.335	1649.3
932.511	1348.25
932.687	1350.29
932.863	1616.53
933.039	1585.81
933.215	1229.46
933.391	1153.69
933.566	1561.23
933.742	1667.73
933.918	1405.59
934.094	1133.21
934.27	1569.43
934.445	1569.43
934.621	1403.54
934.797	1303.19
934.973	1802.9
935.148	1634.96
935.324	1245.85
935.5	967.32
935.675	1680.02
935.851	1462.93
936.027	1241.75
936.202	1172.12
936.378	1598.1
936.553	1292.95
936.729	1630.87
936.904	1143.45
937.08	1096.35
937.255	1159.83
937.431	1000.09
937.606	889.5
937.782	1262.23
937.957	1151.64
938.133	1069.72
938.308	916.12
938.483	1184.41
938.659	989.85
938.834	989.85
939.009	834.21
939.185	973.47
939.36	955.04
939.535	608.93
939.71	955.04
939.886	1292.95
940.061	1196.7
940.236	957.08
940.411	873.12
940.586	1122.97
940.761	1161.88
940.937	768.67
941.112	729.76
941.287	1012.38
941.462	1092.25
941.637	520.87
941.812	733.86
941.987	1041.05
942.162	979.61
942.337	748.19
942.512	768.67
942.687	1180.31
942.862	1184.41
943.037	545.44
943.212	418.47
943.386	778.91
943.561	944.8
943.736	885.41
943.911	952.99
944.086	1016.48
944.26	946.84
944.435	709.28
944.61	760.48
944.785	1182.36
944.959	1288.86
945.134	662.18
945.309	594.59
945.483	735.9
945.658	1161.88
945.833	551.59
946.007	549.54
946.182	1270.42
946.357	713.38
946.531	561.83
946.706	590.5
946.88	420.52
947.055	938.65
947.229	592.55
947.404	479.91
947.578	1110.68
947.752	647.84
947.927	455.33
948.101	410.28
948.276	914.08
948.45	928.41
948.624	787.1
948.799	529.06
948.973	838.3
949.147	627.36
949.321	717.47
949.496	635.55
949.67	1084.06
949.844	811.68
950.018	606.88
950.193	733.86
950.367	1254.04
950.541	762.53
950.715	766.62
950.889	828.06
951.063	764.57
951.237	1090.2
951.411	381.6
951.585	484
951.759	961.18
951.933	787.1
952.107	559.78
952.281	746.14
952.455	1127.07
952.629	989.85
952.803	625.31
952.977	631.46
953.151	983.71
953.325	959.13
953.499	811.68
953.672	576.16
953.846	549.54
954.02	760.48
954.194	660.13
954.368	572.07
954.541	1008.28
954.715	715.42
954.889	762.53
955.062	608.93
955.236	852.64
955.41	680.61
955.583	766.62
955.757	467.62
955.93	731.81
956.104	561.83
956.278	627.36
956.451	602.79
956.625	914.08
956.798	1217.18
956.972	899.74
957.145	488.1
957.319	758.43
957.492	754.34
957.665	828.06
957.839	570.02
958.012	905.88
958.185	733.86
958.359	596.64
958.532	785.05
958.705	952.99
958.879	866.97
959.052	633.51
959.225	428.71
959.398	834.21
959.572	852.64
959.745	596.64
959.918	602.79
960.091	764.57
960.264	938.65
960.438	537.25
960.611	473.76
960.784	895.64
960.957	594.59
961.13	903.84
961.303	506.53
961.476	756.38
961.649	1039
961.822	481.96
961.995	604.83
962.168	991.9
962.341	768.67
962.514	658.08
962.686	565.92
962.859	877.21
963.032	952.99
963.205	582.31
963.378	404.13
963.551	932.51
963.723	774.81
963.896	723.62
964.069	737.95
964.242	770.72
964.414	963.23
964.587	684.7
964.76	645.79
964.932	815.77
965.105	737.95
965.278	584.35
965.45	496.29
965.623	803.49
965.795	938.65
965.968	582.31
966.14	588.45
966.313	762.53
966.485	787.1
966.658	608.93
966.83	492.2
967.003	979.61
967.175	971.42
967.348	551.59
967.52	633.51
967.692	1114.78
967.865	989.85
968.037	684.7
968.209	866.97
968.382	832.16
968.554	938.65
968.726	668.32
968.898	567.97
969.071	873.12
969.243	881.31
969.415	623.27
969.587	645.79
969.759	1163.93
969.932	942.75
970.104	557.73
970.276	318.12
970.448	653.98
970.62	723.62
970.792	649.89
970.964	461.48
971.136	1233.56
971.308	918.17
971.48	557.73
971.652	461.48
971.824	1131.16
971.996	682.66
972.168	574.11
972.339	610.98
972.511	983.71
972.683	696.99
972.855	742.05
973.027	565.92
973.199	819.87
973.37	979.61
973.542	735.9
973.714	629.41
973.886	727.71
974.057	928.41
974.229	520.87
974.401	479.91
974.572	484
974.744	205.48
974.915	402.08
975.087	438.95
975.259	1071.77
975.43	721.57
975.602	459.43
975.773	424.61
975.945	592.55
976.116	844.45
976.288	441
976.459	692.9
976.63	627.36
976.802	887.45
976.973	527.01
977.145	662.18
977.316	1145.5
977.487	1102.49
977.659	615.07
977.83	543.39
978.001	1188.5
978.172	811.68
978.344	340.65
978.515	504.48
978.686	529.06
978.857	1057.43
979.028	475.81
979.2	449.19
979.371	963.23
979.542	774.81
979.713	682.66
979.884	58.03
980.055	438.95
980.226	627.36
980.397	350.89
980.568	373.41
980.739	1020.57
980.91	551.59
981.081	602.79
981.252	451.24
981.423	928.41
981.594	944.8
981.765	348.84
981.936	555.68
982.106	672.42
982.277	1018.52
982.448	406.18
982.619	545.44
982.79	651.94
982.96	950.94
983.131	598.69
983.302	301.73
983.472	645.79
983.643	801.44
983.814	631.46
983.984	322.21
984.155	645.79
984.326	926.36
984.496	561.83
984.667	520.87
984.837	598.69
985.008	983.71
985.178	598.69
985.349	524.96
985.519	602.79
985.69	518.82
985.86	561.83
986.031	316.07
986.201	774.81
986.371	807.58
986.542	330.41
986.712	289.45
986.882	922.27
987.053	744.1
987.223	357.03
987.393	449.19
987.563	551.59
987.734	815.77
987.904	742.05
988.074	420.52
988.244	717.47
988.414	467.62
988.585	361.13
988.755	500.39
988.925	608.93
989.095	1053.34
989.265	295.59
989.435	438.95
989.605	715.42
989.775	823.97
989.945	662.18
990.115	232.1
990.285	600.74
990.455	627.36
990.625	496.29
990.795	359.08
990.965	979.61
991.134	457.38
991.304	340.65
991.474	320.17
991.644	711.33
991.814	1057.43
991.984	307.88
992.153	328.36
992.323	543.39
992.493	635.55
992.662	137.9
992.832	498.34
993.002	590.5
993.171	709.28
993.341	207.53
993.511	520.87
993.68	457.38
993.85	721.57
994.019	289.45
994.189	207.53
994.358	668.32
994.528	516.77
994.697	88.75
994.867	223.91
995.036	746.14
995.206	479.91
995.375	197.29
995.544	518.82
995.714	602.79
995.883	402.08
996.052	475.81
996.222	144.04
996.391	1104.54
996.56	615.07
996.73	242.34
996.899	168.62
997.068	881.31
997.237	590.5
997.406	201.38
997.576	197.29
997.745	559.78
997.914	594.59
998.083	103.08
998.252	373.41
998.421	596.64
998.59	469.67
998.759	127.66
998.928	94.89
999.097	721.57
999.266	584.35
999.435	334.5
999.604	-27.99
999.773	1036.95
999.942	486.05
1000.111	109.22
1000.28	86.7
1000.448	285.35
1000.617	279.21
1000.786	354.98
1000.955	201.38
1001.124	572.07
1001.292	1231.51
1001.461	170.66
1001.63	101.03
1001.798	930.46
1001.967	750.24
1002.136	131.75
1002.304	154.28
1002.473	490.15
1002.642	512.67
1002.81	264.87
1002.979	217.77
1003.147	662.18
1003.316	1069.72
1003.484	162.47
1003.653	150.18
1003.821	797.34
1003.99	463.52
1004.158	367.27
1004.327	244.39
1004.495	615.07
1004.663	324.26
1004.832	332.45
1005	105.13
1005.168	527.01
1005.337	588.45
1005.505	62.12
1005.673	348.84
1005.842	631.46
1006.01	701.09
1006.178	119.46
1006.346	127.66
1006.514	639.65
1006.683	787.1
1006.851	96.94
1007.019	-15.7
1007.187	221.86
1007.355	-19.8
1007.523	-30.04
1007.691	2.73
1007.859	146.09
1008.027	746.14
1008.195	78.51
1008.363	31.4
1008.531	645.79
1008.699	291.49
1008.867	12.97
1009.035	176.81
1009.203	830.11
1009.37	391.84
1009.538	205.48
1009.706	596.64
1009.874	547.49
1010.042	471.72
1010.209	-1.37
1010.377	58.03
1010.545	672.42
1010.713	471.72
1010.88	33.45
1011.048	90.79
1011.216	377.51
1011.383	737.95
1011.551	37.55
1011.718	90.79
1011.886	692.9
1012.054	514.72
1012.221	156.33
1012.389	29.35
1012.556	369.32
1012.724	836.25
1012.891	187.05
1013.058	-71
1013.226	602.79
1013.393	633.51
1013.561	-19.8
1013.728	-25.94
1013.895	572.07
1014.063	539.3
1014.23	-44.37
1014.397	37.55
1014.565	656.03
1014.732	283.3
1014.899	55.98
1015.066	-13.65
1015.233	455.33
1015.401	547.49
1015.568	146.09
1015.735	158.38
1015.902	449.19
1016.069	320.17
1016.236	53.93
1016.403	21.16
1016.57	283.3
1016.737	522.91
1016.904	25.26
1017.071	-118.1
1017.238	219.82
1017.405	656.03
1017.572	39.59
1017.739	254.63
1017.906	615.07
1018.073	543.39
1018.24	-3.41
1018.407	113.32
1018.573	662.18
1018.74	238.25
1018.907	90.79
1019.074	8.87
1019.241	635.55
1019.407	426.66
1019.574	-3.41
1019.741	-68.95
1019.907	418.47
1020.074	549.54
1020.241	-159.06
1020.407	6.83
1020.574	512.67
1020.74	563.87
1020.907	39.59
1021.073	-46.42
1021.24	879.26
1021.406	760.48
1021.573	-105.81
1021.739	23.21
1021.906	547.49
1022.072	332.45
1022.239	-17.75
1022.405	29.35
1022.571	375.46
1022.738	238.25
1022.904	-17.75
1023.07	-32.08
1023.237	336.55
1023.403	572.07
1023.569	45.74
1023.735	-1.37
1023.902	371.36
1024.068	418.47
1024.234	-99.67
1024.4	-11.61
1024.566	393.89
1024.732	580.26
1024.898	60.07
1025.065	-99.67
1025.231	529.06
1025.397	172.71
1025.563	74.41
1025.729	-138.58
1025.895	21.16
1026.061	168.62
1026.227	-232.79
1026.392	-75.09
1026.558	561.83
1026.724	522.91
1026.89	6.83
1027.056	12.97
1027.222	410.28
1027.388	285.35
1027.553	-15.7
1027.719	-120.15
1027.885	758.43
1028.051	465.57
1028.216	-181.59
1028.382	27.31
1028.548	545.44
1028.713	268.97
1028.879	-134.48
1029.045	156.33
1029.21	649.89
1029.376	512.67
1029.541	55.98
1029.707	-40.28
1029.873	459.43
1030.038	572.07
1030.204	17.07
1030.369	76.46
1030.534	588.45
1030.7	172.71
1030.865	25.26
1031.031	-146.77
1031.196	400.04
1031.361	371.36
1031.527	-130.39
1031.692	-15.7
1031.857	17.07
1032.023	467.62
1032.188	-167.25
1032.353	-11.61
1032.518	711.33
1032.684	311.97
1032.849	-148.82
1033.014	-11.61
1033.179	529.06
1033.344	430.76
1033.509	-32.08
1033.674	-95.57
1033.839	471.72
1034.004	457.38
1034.17	-32.08
1034.335	-148.82
1034.5	307.88
1034.664	115.37
1034.829	-136.53
1034.994	66.22
1035.159	369.32
1035.324	359.08
1035.489	-1.37
1035.654	-140.63
1035.819	551.59
1035.984	371.36
1036.148	-11.61
1036.313	-36.18
1036.478	561.83
1036.643	205.48
1036.807	-126.29
1036.972	-99.67
1037.137	688.8
1037.301	381.6
1037.466	-169.3
1037.631	-81.24
1037.795	531.11
1037.96	402.08
1038.124	51.88
1038.289	-126.29
1038.454	418.47
1038.618	471.72
1038.783	12.97
1038.947	82.6
1039.111	328.36
1039.276	289.45
1039.44	-105.81
1039.605	410.28
1039.769	164.52
1039.933	336.55
1040.098	-19.8
1040.262	78.51
1040.426	520.87
1040.591	496.29
1040.755	-150.87
1040.919	-48.47
1041.083	336.55
1041.248	271.01
1041.412	-255.31
1041.576	-179.54
1041.74	221.86
1041.904	453.28
1042.068	-91.48
1042.232	-48.47
1042.397	465.57
1042.561	373.41
1042.725	-265.55
1042.889	94.89
1043.053	451.24
1043.217	438.95
1043.381	131.75
1043.544	-175.44
1043.708	469.67
1043.872	45.74
1044.036	-351.57
1044.2	-101.72
1044.364	475.81
1044.528	576.16
1044.691	3019.39
1044.855	-202.07
1045.019	508.58
1045.183	465.57
1045.346	-64.85
1045.51	-179.54
1045.674	289.45
1045.837	426.66
1046.001	-120.15
1046.165	-159.06
1046.328	852.64
1046.492	393.89
1046.655	64.17
1046.819	-11.61
1046.983	160.42
1047.146	410.28
1047.31	-54.61
1047.473	-255.31
1047.636	207.53
1047.8	53.93
1047.963	-48.47
1048.127	-124.24
1048.29	84.65
