Data from Ink_Intensity_USB4F045381__187__00187.txt Node

Date: Mon Jul 17 11:43:52 EDT 2023
User: mmckonesweet
Spectrometer: USB4F04538
Trigger mode: 4
Integration Time (sec): 9.000000E-1
Scans to average: 1
Electric dark correction enabled: true
Nonlinearity correction enabled: false
Boxcar width: 0
XAxis mode: Wavelengths
Number of Pixels in Spectrum: 3648
>>>>>Begin Spectral Data<<<<<
345.52	-989.51
345.736	-989.51
345.952	-989.51
346.168	-1044.81
346.384	-1024.33
346.6	-213.33
346.816	-237.91
347.032	-141.65
347.248	253.61
347.464	-178.51
347.68	-78.16
347.896	136.87
348.112	343.72
348.328	-78.16
348.544	-51.54
348.76	28.33
348.975	216.74
349.191	-237.91
349.407	-205.14
349.623	-22.87
349.839	-65.88
350.055	-106.84
350.27	-61.78
350.486	134.82
350.702	368.29
350.918	208.55
351.133	-258.39
351.349	169.64
351.565	276.13
351.781	-262.48
351.996	-86.36
352.212	298.66
352.428	-162.13
352.644	-225.62
352.859	-289.1
353.075	319.14
353.291	151.21
353.506	-131.41
353.722	-254.29
353.938	-143.7
354.153	360.1
354.369	97.96
354.584	-158.03
354.8	347.81
355.016	-299.34
355.231	-225.62
355.447	-63.83
355.662	20.14
355.878	861.85
356.093	-328.02
356.309	-94.55
356.524	-211.28
356.74	190.12
356.955	-178.51
357.171	-65.88
357.386	226.98
357.602	-192.85
357.817	-69.97
358.033	-160.08
358.248	390.82
358.464	85.67
358.679	-133.46
358.895	-387.41
359.11	32.43
359.325	286.37
359.541	-33.11
359.756	7.85
359.972	-266.58
360.187	175.78
360.402	-225.62
360.618	-221.52
360.833	921.24
361.048	102.06
361.264	-117.08
361.479	-14.68
361.694	7.85
361.909	159.4
362.125	-168.27
362.34	-96.6
362.555	233.13
362.77	18.09
362.986	-268.63
363.201	-121.17
363.416	206.5
363.631	16.04
363.847	-184.66
364.062	-194.9
364.277	122.54
364.492	183.98
364.707	-221.52
364.922	-397.65
365.138	206.5
365.353	356.01
365.568	-264.53
365.783	-123.22
365.998	18.09
366.213	605.86
366.428	-205.14
366.643	11.95
366.858	290.47
367.073	159.4
367.288	-115.03
367.503	-264.53
367.718	188.07
367.933	442.02
368.148	-332.11
368.363	-63.83
368.578	7.85
368.793	364.2
369.008	-147.8
369.223	-252.24
369.438	167.59
369.653	419.49
369.868	-237.91
370.083	-235.86
370.298	134.82
370.513	339.62
370.728	-49.49
370.943	-209.23
371.157	-133.46
371.372	497.32
371.587	-266.58
371.802	-262.48
372.017	36.52
372.232	442.02
372.446	-59.73
372.661	-297.3
372.876	265.89
373.091	183.98
373.306	-145.75
373.52	-217.43
373.735	-246.1
373.95	429.73
374.165	-90.45
374.379	-209.23
374.594	-139.6
374.809	59.05
375.023	28.33
375.238	-246.1
375.453	269.99
375.667	-303.44
375.882	-162.13
376.097	-264.53
376.311	57
376.526	-12.63
376.741	-233.81
376.955	106.15
377.17	532.13
377.384	560.8
377.599	-86.36
377.813	-278.87
378.028	612
378.242	224.94
378.457	-112.98
378.672	-358.74
378.886	95.91
379.101	-20.82
379.315	-319.82
379.53	-125.27
379.744	284.33
379.958	143.02
380.173	-178.51
380.387	-178.51
380.602	65.19
380.816	-160.08
381.031	-166.23
381.245	-190.8
381.459	175.78
381.674	2639.49
381.888	-219.47
382.103	128.68
382.317	-198.99
382.531	421.54
382.746	-84.31
382.96	-223.57
383.174	-78.16
383.388	460.45
383.603	7.85
383.817	-299.34
384.031	63.15
384.246	429.73
384.46	5.8
384.674	290.47
384.888	48.81
385.103	67.24
385.317	-323.92
385.531	26.28
385.745	351.91
385.959	380.58
386.174	-203.09
386.388	-242
386.602	65.19
386.816	-221.52
387.03	-125.27
387.244	-108.88
387.458	71.34
387.672	386.72
387.887	-250.19
388.101	-213.33
388.315	358.05
388.529	89.77
388.743	-176.47
388.957	-178.51
389.171	263.85
389.385	-188.75
389.599	-127.32
389.813	161.45
390.027	157.35
390.241	605.86
390.455	-135.51
390.669	-147.8
390.883	-82.26
391.097	372.39
391.311	46.76
391.525	-155.99
391.738	175.78
391.952	220.84
392.166	-29.01
392.38	-229.71
392.594	261.8
392.808	300.71
393.022	-74.07
393.236	-129.36
393.449	167.59
393.663	108.2
393.877	-268.63
394.091	-123.22
394.305	-53.59
394.518	-137.56
394.732	-266.58
394.946	-174.42
395.16	507.55
395.373	114.34
395.587	-282.96
395.801	-180.56
396.015	296.61
396.228	208.55
396.442	-262.48
396.656	-348.5
396.869	364.2
397.083	497.32
397.297	-37.2
397.51	-69.97
397.724	454.31
397.938	163.5
398.151	-289.1
398.365	-266.58
398.578	157.35
398.792	243.37
399.005	-49.49
399.219	-135.51
399.433	112.3
399.646	226.98
399.86	-121.17
400.073	-8.53
400.287	95.91
400.5	-80.21
400.714	-29.01
400.927	-47.44
401.141	183.98
401.354	1138.33
401.567	216.74
401.781	-278.87
401.994	298.66
402.208	609.95
402.421	-123.22
402.635	-141.65
402.848	112.3
403.061	210.6
403.275	-24.92
403.488	-227.67
403.701	433.83
403.915	255.65
404.128	24.23
404.341	-110.93
404.555	216.74
404.768	-10.58
404.981	57
405.195	-164.18
405.408	386.72
405.621	245.41
405.834	32.43
406.048	-231.76
406.261	394.92
406.474	431.78
406.687	-237.91
406.9	-78.16
407.114	-10.58
407.327	138.92
407.54	-293.2
407.753	-332.11
407.966	-147.8
408.179	200.36
408.392	-160.08
408.605	-342.35
408.819	229.03
409.032	138.92
409.245	-225.62
409.458	16.04
409.671	181.93
409.884	216.74
410.097	-248.15
410.31	67.24
410.523	147.11
410.736	36.52
410.949	-155.99
411.162	-151.89
411.375	433.83
411.588	315.05
411.801	24.23
412.014	-184.66
412.227	28.33
412.44	5.8
412.653	-147.8
412.865	-0.34
413.078	237.22
413.291	179.88
413.504	-100.69
413.717	-225.62
413.93	249.51
414.143	-184.66
414.356	-160.08
414.568	-311.63
414.781	216.74
414.994	83.63
415.207	-86.36
415.42	-100.69
415.632	226.98
415.845	478.88
416.058	-270.67
416.271	-188.75
416.483	73.39
416.696	491.17
416.909	-174.42
417.121	-239.95
417.334	171.69
417.547	478.88
417.759	-209.23
417.972	-217.43
418.185	3.75
418.397	255.65
418.61	-178.51
418.823	-266.58
419.035	472.74
419.248	75.43
419.46	-164.18
419.673	-84.31
419.885	186.02
420.098	42.67
420.311	-182.61
420.523	-334.16
420.736	263.85
420.948	69.29
421.161	-201.04
421.373	-340.3
421.586	143.02
421.798	-76.12
422.01	-377.17
422.223	-137.56
422.435	-67.92
422.648	231.08
422.86	-137.56
423.073	-219.47
423.285	265.89
423.497	-192.85
423.71	-258.39
423.922	-174.42
424.134	159.4
424.347	362.15
424.559	-45.4
424.771	138.92
424.984	-26.96
425.196	169.64
425.408	-358.74
425.621	-373.07
425.833	249.51
426.045	413.35
426.257	-215.38
426.47	-207.19
426.682	212.65
426.894	175.78
427.106	-112.98
427.318	-135.51
427.531	-94.55
427.743	196.26
427.955	-201.04
428.167	259.75
428.379	161.45
428.591	-33.11
428.804	-86.36
429.016	-254.29
429.228	-49.49
429.44	198.31
429.652	-41.3
429.864	-332.11
430.076	-10.58
430.288	-61.78
430.5	-151.89
430.712	-82.26
430.924	327.33
431.136	32.43
431.348	-313.68
431.56	-174.42
431.772	-0.34
431.984	-22.87
432.196	-258.39
432.408	-182.61
432.62	61.1
432.832	102.06
433.044	44.71
433.256	-110.93
433.468	208.55
433.679	-274.77
433.891	-213.33
434.103	11.95
434.315	364.2
434.527	247.46
434.739	-129.36
434.95	-135.51
435.162	196.26
435.374	-129.36
435.586	-198.99
435.798	-162.13
436.009	-242
436.221	-82.26
436.433	-274.77
436.645	-78.16
436.856	-86.36
437.068	263.85
437.28	-186.71
437.491	22.19
437.703	106.15
437.915	132.78
438.126	-121.17
438.338	102.06
438.55	24.23
438.761	276.13
438.973	-145.75
439.184	-145.75
439.396	-24.92
439.608	208.55
439.819	-282.96
440.031	-22.87
440.242	157.35
440.454	208.55
440.665	-141.65
440.877	-90.45
441.088	183.98
441.3	11.95
441.511	-416.08
441.723	-242
441.934	192.17
442.146	-0.34
442.357	-24.92
442.569	110.25
442.78	102.06
442.991	480.93
443.203	-8.53
443.414	-285.01
443.626	284.33
443.837	-108.88
444.048	-221.52
444.26	-338.26
444.471	87.72
444.682	196.26
444.894	-418.13
445.105	-325.97
445.316	261.8
445.528	128.68
445.739	-98.64
445.95	-59.73
446.161	108.2
446.373	294.57
446.584	-158.03
446.795	-209.23
447.006	181.93
447.217	378.53
447.429	-354.64
447.64	-242
447.851	343.72
448.062	63.15
448.273	-375.12
448.484	-155.99
448.695	216.74
448.907	-37.2
449.118	-94.55
449.329	48.81
449.54	-117.08
449.751	-155.99
449.962	-176.47
450.173	-188.75
450.384	267.94
450.595	304.81
450.806	-201.04
451.017	-213.33
451.228	306.85
451.439	317.09
451.65	-233.81
451.861	-373.07
452.072	-194.9
452.283	20.14
452.494	-41.3
452.705	-237.91
452.915	448.16
453.126	181.93
453.337	-133.46
453.548	-153.94
453.759	267.94
453.97	493.22
454.181	-24.92
454.391	-266.58
454.602	120.49
454.813	179.88
455.024	-209.23
455.235	-256.34
455.445	147.11
455.656	278.18
455.867	-24.92
456.078	-207.19
456.288	-86.36
456.499	106.15
456.71	-348.5
456.921	28.33
457.131	114.34
457.342	65.19
457.553	-192.85
457.763	-246.1
457.974	186.02
458.184	282.28
458.395	-321.87
458.606	-246.1
458.816	315.05
459.027	493.22
459.237	-129.36
459.448	-373.07
459.659	280.23
459.869	585.38
460.08	-348.5
460.29	-84.31
460.501	446.12
460.711	-57.68
460.922	-356.69
461.132	-219.47
461.343	724.64
461.553	-303.44
461.764	-250.19
461.974	-194.9
462.184	198.31
462.395	54.95
462.605	-258.39
462.816	-262.48
463.026	18.09
463.236	384.68
463.447	-237.91
463.657	-272.72
463.867	274.09
464.078	34.47
464.288	-182.61
464.498	-229.71
464.709	95.91
464.919	-57.68
465.129	-254.29
465.339	-315.73
465.55	153.26
465.76	159.4
465.97	-176.47
466.18	-276.82
466.391	196.26
466.601	143.02
466.811	-123.22
467.021	-256.34
467.231	138.92
467.441	331.43
467.651	-174.42
467.862	-440.65
468.072	-51.54
468.282	360.1
468.492	-223.57
468.702	-237.91
468.912	11.95
469.122	595.62
469.332	83.63
469.542	-246.1
469.752	200.36
469.962	143.02
470.172	-358.74
470.382	-291.15
470.592	315.05
470.802	358.05
471.012	-51.54
471.222	-231.76
471.432	337.57
471.642	198.31
471.852	-96.6
472.062	-338.26
472.272	-22.87
472.482	-172.37
472.691	-282.96
472.901	-334.16
473.111	69.29
473.321	564.9
473.531	-360.78
473.741	-155.99
473.95	114.34
474.16	177.83
474.37	-188.75
474.58	-332.11
474.79	480.93
474.999	261.8
475.209	-287.06
475.419	-297.3
475.628	-61.78
475.838	331.43
476.048	-176.47
476.258	-274.77
476.467	292.52
476.677	-115.03
476.886	-65.88
477.096	-184.66
477.306	-217.43
477.515	265.89
477.725	-106.84
477.935	-170.32
478.144	392.87
478.354	-45.4
478.563	-229.71
478.773	-256.34
478.982	218.79
479.192	310.95
479.401	-119.12
479.611	-315.73
479.82	-119.12
480.03	50.86
480.239	-266.58
480.449	-309.58
480.658	454.31
480.868	-139.6
481.077	-78.16
481.287	-151.89
481.496	169.64
481.705	315.05
481.915	95.91
482.124	9.9
482.333	1.71
482.543	296.61
482.752	-158.03
482.961	-287.06
483.171	116.39
483.38	30.38
483.589	-229.71
483.799	-266.58
484.008	-8.53
484.217	237.22
484.426	-299.34
484.636	-330.06
484.845	183.98
485.054	-282.96
485.263	102.06
485.472	-313.68
485.682	421.54
485.891	118.44
486.1	-379.22
486.309	-203.09
486.518	124.58
486.727	304.81
486.936	-258.39
487.146	-98.64
487.355	376.48
487.564	-172.37
487.773	-196.95
487.982	-209.23
488.191	-51.54
488.4	3.75
488.609	-272.72
488.818	-258.39
489.027	554.66
489.236	372.39
489.445	-164.18
489.654	-219.47
489.863	249.51
490.072	210.6
490.281	181.93
490.49	-215.38
490.698	413.35
490.907	411.3
491.116	-194.9
491.325	-291.15
491.534	446.12
491.743	97.96
491.952	-112.98
492.16	-184.66
492.369	231.08
492.578	263.85
492.787	-225.62
492.996	-352.59
493.204	-24.92
493.413	337.57
493.622	-328.02
493.831	-403.79
494.039	384.68
494.248	-256.34
494.457	-321.87
494.665	-364.88
494.874	204.46
495.083	503.46
495.291	-110.93
495.5	-289.1
495.709	263.85
495.917	91.82
496.126	-164.18
496.335	-280.91
496.543	5.8
496.752	143.02
496.96	36.52
497.169	-446.8
497.377	93.87
497.586	249.51
497.794	-153.94
498.003	-422.22
498.211	32.43
498.42	409.25
498.628	-170.32
498.837	-330.06
499.045	196.26
499.254	89.77
499.462	-293.2
499.671	-248.15
499.879	476.84
500.087	233.13
500.296	-264.53
500.504	-229.71
500.713	192.17
500.921	605.86
501.129	-217.43
501.338	-260.43
501.546	134.82
501.754	38.57
501.962	-158.03
502.171	-344.4
502.379	89.77
502.587	470.69
502.795	-172.37
503.004	-248.15
503.212	-41.3
503.42	269.99
503.628	-272.72
503.837	-106.84
504.045	231.08
504.253	560.8
504.461	-207.19
504.669	-475.47
504.877	165.54
505.085	343.72
505.294	-414.03
505.502	-29.01
505.71	157.35
505.918	235.18
506.126	-282.96
506.334	-196.95
506.542	9.9
506.75	95.91
506.958	-184.66
507.166	-192.85
507.374	-43.35
507.582	466.6
507.79	-135.51
507.998	-332.11
508.206	100.01
508.414	192.17
508.622	-287.06
508.83	-233.81
509.037	495.27
509.245	-20.82
509.453	-289.1
509.661	-309.58
509.869	204.46
510.077	-12.63
510.285	-139.6
510.492	-438.61
510.7	601.76
510.908	13.99
511.116	-166.23
511.324	-262.48
511.531	5.8
511.739	128.68
511.947	-100.69
512.155	11.95
512.362	93.87
512.57	-207.19
512.778	-297.3
512.985	-330.06
513.193	327.33
513.401	370.34
513.608	-186.71
513.816	-233.81
514.024	122.54
514.231	302.76
514.439	-258.39
514.646	-188.75
514.854	159.4
515.061	253.61
515.269	-274.77
515.477	-299.34
515.684	-184.66
515.892	298.66
516.099	-303.44
516.307	-411.98
516.514	61.1
516.722	487.08
516.929	-172.37
517.136	-289.1
517.344	474.79
517.551	143.02
517.759	-264.53
517.966	-246.1
518.173	-43.35
518.381	3.75
518.588	-110.93
518.796	-330.06
519.003	233.13
519.21	26.28
519.418	-305.49
519.625	67.24
519.832	93.87
520.039	120.49
520.247	-354.64
520.454	-274.77
520.661	292.52
520.868	167.59
521.076	-164.18
521.283	-196.95
521.49	593.57
521.697	114.34
521.904	-215.38
522.112	-323.92
522.319	265.89
522.526	67.24
522.733	-373.07
522.94	-305.49
523.147	81.58
523.354	313
523.561	-393.55
523.768	-215.38
523.975	261.8
524.183	16.04
524.39	-184.66
524.597	-346.45
524.804	118.44
525.011	-74.07
525.218	-250.19
525.425	-285.01
525.632	380.58
525.838	-98.64
526.045	-233.81
526.252	-287.06
526.459	1144.47
526.666	884.38
526.873	-307.54
527.08	-336.21
527.287	437.92
527.494	222.89
527.701	-323.92
527.907	-364.88
528.114	136.87
528.321	22.19
528.528	-258.39
528.735	-287.06
528.941	-69.97
529.148	-69.97
529.355	-141.65
529.562	-330.06
529.768	407.2
529.975	-98.64
530.182	-235.86
530.388	-311.63
530.595	263.85
530.802	-233.81
531.008	-133.46
531.215	-209.23
531.422	491.17
531.628	792.22
531.835	-225.62
532.042	-102.74
532.248	-143.7
532.455	85.67
532.661	-182.61
532.868	-264.53
533.074	145.06
533.281	339.62
533.487	-186.71
533.694	-336.21
533.9	-127.32
534.107	224.94
534.313	-340.3
534.52	-364.88
534.726	288.42
534.933	552.61
535.139	-303.44
535.345	-299.34
535.552	179.88
535.758	-29.01
535.965	-211.28
536.171	-295.25
536.377	183.98
536.584	382.63
536.79	-282.96
536.996	-205.14
537.203	106.15
537.409	153.26
537.615	-270.67
537.821	-141.65
538.028	261.8
538.234	255.65
538.44	-201.04
538.646	-137.56
538.853	220.84
539.059	-29.01
539.265	112.3
539.471	-461.13
539.677	366.25
539.883	40.62
540.09	-198.99
540.296	161.45
540.502	28.33
540.708	-63.83
540.914	-106.84
541.12	-223.57
541.326	192.17
541.532	40.62
541.738	-209.23
541.944	-155.99
542.15	306.85
542.356	54.95
542.562	-250.19
542.768	-119.12
542.974	612
543.18	556.71
543.386	-311.63
543.592	-391.5
543.798	358.05
544.004	276.13
544.21	-266.58
544.415	-205.14
544.621	126.63
544.827	202.41
545.033	-485.71
545.239	-35.16
545.445	-158.03
545.651	153.26
545.856	-309.58
546.062	-188.75
546.268	-65.88
546.474	-31.06
546.679	-287.06
546.885	-172.37
547.091	-65.88
547.297	495.27
547.502	-221.52
547.708	-334.16
547.914	-96.6
548.119	126.63
548.325	-309.58
548.531	-323.92
548.736	376.48
548.942	-160.08
549.147	-315.73
549.353	-69.97
549.559	313
549.764	110.25
549.97	-186.71
550.175	-198.99
550.381	231.08
550.586	-63.83
550.792	-233.81
550.997	-229.71
551.203	140.97
551.408	235.18
551.614	-426.32
551.819	-246.1
552.025	468.64
552.23	548.51
552.435	-342.35
552.641	-168.27
552.846	-119.12
553.052	247.46
553.257	-176.47
553.462	-235.86
553.668	-104.79
553.873	339.62
554.078	-319.82
554.283	-254.29
554.489	65.19
554.694	112.3
554.899	-356.69
555.105	-90.45
555.31	200.36
555.515	196.26
555.72	-205.14
555.925	-354.64
556.131	186.02
556.336	-67.92
556.541	-295.25
556.746	-328.02
556.951	265.89
557.156	407.2
557.361	-92.5
557.567	-166.23
557.772	544.42
557.977	222.89
558.182	-242
558.387	-221.52
558.592	-153.94
558.797	376.48
559.002	-188.75
559.207	-180.56
559.412	-4.44
559.617	493.22
559.822	-266.58
560.027	-262.48
560.232	122.54
560.437	261.8
560.642	-475.47
560.847	-289.1
561.051	65.19
561.256	120.49
561.461	-205.14
561.666	-373.07
561.871	30.38
562.076	274.09
562.281	-229.71
562.485	-424.27
562.69	179.88
562.895	272.04
563.1	-252.24
563.305	-272.72
563.509	341.67
563.714	523.94
563.919	-319.82
564.123	-280.91
564.328	11.95
564.533	298.66
564.737	-151.89
564.942	-242
565.147	458.4
565.351	603.81
565.556	-139.6
565.761	-170.32
565.965	97.96
566.17	-100.69
566.374	-244.05
566.579	-387.41
566.784	155.3
566.988	-39.25
567.193	-430.41
567.397	-221.52
567.602	-303.44
567.806	-33.11
568.011	-307.54
568.215	-258.39
568.42	-8.53
568.624	-12.63
568.828	-227.67
569.033	-24.92
569.237	145.06
569.442	157.35
569.646	-373.07
569.85	-346.45
570.055	34.47
570.259	130.73
570.463	-59.73
570.668	-242
570.872	30.38
571.076	7.85
571.281	-112.98
571.485	-147.8
571.689	20.14
571.893	175.78
572.098	-160.08
572.302	-221.52
572.506	110.25
572.71	110.25
572.914	-242
573.119	-182.61
573.323	351.91
573.527	280.23
573.731	-258.39
573.935	-248.15
574.139	153.26
574.343	-143.7
574.547	-209.23
574.751	-201.04
574.955	349.86
575.159	335.53
575.364	-237.91
575.568	-305.49
575.772	3.75
575.976	263.85
576.18	-293.2
576.383	-467.28
576.587	302.76
576.791	159.4
576.995	-399.7
577.199	-446.8
577.403	272.04
577.607	356.01
577.811	-356.69
578.015	-121.17
578.219	95.91
578.422	198.31
578.626	-194.9
578.83	-49.49
579.034	417.44
579.238	147.11
579.442	-323.92
579.645	67.24
579.849	20.14
580.053	138.92
580.257	-190.8
580.46	-233.81
580.664	161.45
580.868	233.13
581.071	-106.84
581.275	-67.92
581.479	-246.1
581.682	257.7
581.886	-301.39
582.09	-127.32
582.293	276.13
582.497	280.23
582.7	20.14
582.904	-248.15
583.107	106.15
583.311	-0.34
583.515	-180.56
583.718	-192.85
583.922	183.98
584.125	501.41
584.329	-270.67
584.532	-160.08
584.735	364.2
584.939	224.94
585.142	-334.16
585.346	-252.24
585.549	130.73
585.753	-94.55
585.956	-158.03
586.159	-98.64
586.363	528.03
586.566	253.61
586.769	-358.74
586.973	-272.72
587.176	173.74
587.379	274.09
587.582	38.57
587.786	11.95
587.989	11.95
588.192	736.93
588.395	-74.07
588.599	1.71
588.802	155.3
589.005	202.41
589.208	-182.61
589.411	-262.48
589.615	276.13
589.818	401.06
590.021	52.91
590.224	-69.97
590.427	272.04
590.63	284.33
590.833	-395.6
591.036	-270.67
591.239	40.62
591.442	-65.88
591.645	-12.63
591.848	-270.67
592.051	110.25
592.254	261.8
592.457	-282.96
592.66	-196.95
592.863	-20.82
593.066	163.5
593.269	-235.86
593.472	-147.8
593.675	-182.61
593.878	313
594.081	-153.94
594.284	-227.67
594.486	208.55
594.689	81.58
594.892	-112.98
595.095	-215.38
595.298	149.16
595.5	-22.87
595.703	-106.84
595.906	-45.4
596.109	368.29
596.311	296.61
596.514	-454.99
596.717	-207.19
596.92	376.48
597.122	265.89
597.325	-373.07
597.528	-174.42
597.73	380.58
597.933	91.82
598.136	-233.81
598.338	-479.57
598.541	188.07
598.743	294.57
598.946	-176.47
599.148	-246.1
599.351	261.8
599.554	325.29
599.756	-74.07
599.959	-205.14
600.161	368.29
600.363	640.67
600.566	-0.34
600.768	-201.04
600.971	442.02
601.173	171.69
601.376	-192.85
601.578	-178.51
601.78	167.59
601.983	595.62
602.185	-325.97
602.388	-65.88
602.59	196.26
602.792	-55.64
602.995	9.9
603.197	-176.47
603.399	267.94
603.601	173.74
603.804	-186.71
604.006	-217.43
604.208	32.43
604.41	-344.4
604.613	-2.39
604.815	-231.76
605.017	552.61
605.219	-69.97
605.421	130.73
605.623	-196.95
605.826	519.84
606.028	435.88
606.23	-203.09
606.432	-164.18
606.634	474.79
606.836	413.35
607.038	-315.73
607.24	-94.55
607.442	114.34
607.644	134.82
607.846	-76.12
608.048	-217.43
608.25	380.58
608.452	-22.87
608.654	-184.66
608.856	-307.54
609.058	16.04
609.26	171.69
609.462	-184.66
609.664	-196.95
609.866	566.95
610.067	220.84
610.269	-12.63
610.471	-147.8
610.673	-35.16
610.875	202.41
611.077	-313.68
611.278	-6.49
611.48	118.44
611.682	472.74
611.884	-92.5
612.085	-86.36
612.287	-166.23
612.489	276.13
612.69	-348.5
612.892	-127.32
613.094	300.71
613.295	247.46
613.497	-289.1
613.699	-135.51
613.9	407.2
614.102	335.53
614.304	-104.79
614.505	-436.56
614.707	126.63
614.908	91.82
615.11	-307.54
615.311	-100.69
615.513	317.09
615.714	319.14
615.916	-323.92
616.117	-151.89
616.319	30.38
616.52	292.52
616.722	-227.67
616.923	-266.58
617.124	349.86
617.326	331.43
617.527	3.75
617.729	-45.4
617.93	286.37
618.131	224.94
618.333	-121.17
618.534	-92.5
618.735	-16.73
618.937	462.5
619.138	-338.26
619.339	-299.34
619.54	272.04
619.742	52.91
619.943	-35.16
620.144	-102.74
620.345	261.8
620.546	335.53
620.748	-256.34
620.949	-158.03
621.15	126.63
621.351	175.78
621.552	-151.89
621.753	-442.7
621.954	-188.75
622.155	546.47
622.356	-221.52
622.558	-12.63
622.759	20.14
622.96	620.19
623.161	-121.17
623.362	-160.08
623.563	147.11
623.764	167.59
623.965	-225.62
624.166	-4.44
624.366	26.28
624.567	200.36
624.768	-418.13
624.969	-176.47
625.17	38.57
625.371	306.85
625.572	-43.35
625.773	-250.19
625.973	276.13
626.174	327.33
626.375	-59.73
626.576	16.04
626.777	243.37
626.977	595.62
627.178	-166.23
627.379	-127.32
627.58	65.19
627.78	233.13
627.981	-61.78
628.182	5.8
628.382	358.05
628.583	-219.47
628.784	-258.39
628.984	-4.44
629.185	290.47
629.386	325.29
629.586	-129.36
629.787	-299.34
629.987	216.74
630.188	204.46
630.388	-162.13
630.589	34.47
630.79	763.55
630.99	188.07
631.191	-123.22
631.391	-26.96
631.591	243.37
631.792	525.99
631.992	-24.92
632.193	-115.03
632.393	532.13
632.594	134.82
632.794	-168.27
632.994	-20.82
633.195	102.06
633.395	206.5
633.595	-139.6
633.796	34.47
633.996	-96.6
634.196	450.21
634.397	-307.54
634.597	-4.44
634.797	-108.88
634.997	442.02
635.198	77.48
635.398	-225.62
635.598	147.11
635.798	472.74
635.998	288.42
636.199	-174.42
636.399	-12.63
636.599	61.1
636.799	-135.51
636.999	89.77
637.199	210.6
637.399	341.67
637.599	-158.03
637.799	-16.73
637.999	-61.78
638.199	507.55
638.399	-192.85
638.599	-151.89
638.799	276.13
638.999	632.48
639.199	57
639.399	-16.73
639.599	497.32
639.799	-102.74
639.999	-188.75
640.199	-287.06
640.399	208.55
640.599	136.87
640.799	-84.31
640.998	-16.73
641.198	497.32
641.398	220.84
641.598	-84.31
641.798	-55.64
641.997	1095.32
642.197	157.35
642.397	-29.01
642.597	-123.22
642.796	220.84
642.996	485.03
643.196	24.23
643.395	-184.66
643.595	263.85
643.795	-231.76
643.994	-78.16
644.194	20.14
644.394	333.48
644.593	134.82
644.793	-342.35
644.992	-39.25
645.192	231.08
645.392	-264.53
645.591	63.15
645.791	-4.44
645.99	167.59
646.19	87.72
646.389	-22.87
646.589	-76.12
646.788	321.19
646.987	212.65
647.187	114.34
647.386	20.14
647.586	167.59
647.785	431.78
647.984	-121.17
648.184	-18.77
648.383	-0.34
648.582	75.43
648.782	-26.96
648.981	30.38
649.18	-76.12
649.38	212.65
649.579	-123.22
649.778	-135.51
649.977	220.84
650.177	206.5
650.376	-168.27
650.575	-168.27
650.774	485.03
650.973	1.71
651.173	-178.51
651.372	-51.54
651.571	298.66
651.77	392.87
651.969	-80.21
652.168	20.14
652.367	-106.84
652.566	136.87
652.765	-106.84
652.964	147.11
653.163	628.39
653.362	69.29
653.561	-67.92
653.76	-80.21
653.959	3.75
654.158	333.48
654.357	112.3
654.556	-55.64
654.755	239.27
654.954	333.48
655.153	-102.74
655.352	-45.4
655.551	392.87
655.749	-12.63
655.948	7.85
656.147	52.91
656.346	229.03
656.545	102.06
656.743	44.71
656.942	3.75
657.141	200.36
657.34	145.06
657.538	-31.06
657.737	-78.16
657.936	30.38
658.135	341.67
658.333	-76.12
658.532	69.29
658.731	577.19
658.929	433.83
659.128	194.22
659.326	-127.32
659.525	542.37
659.724	190.12
659.922	-270.67
660.121	-164.18
660.319	298.66
660.518	-94.55
660.716	-104.79
660.915	-76.12
661.113	454.31
661.312	-166.23
661.51	87.72
661.709	-92.5
661.907	345.77
662.105	568.99
662.304	-26.96
662.502	-12.63
662.701	472.74
662.899	75.43
663.097	237.22
663.296	-209.23
663.494	382.63
663.692	503.46
663.891	-170.32
664.089	-80.21
664.287	282.28
664.485	523.94
664.684	-43.35
664.882	1.71
665.08	138.92
665.278	183.98
665.476	-215.38
665.675	194.22
665.873	607.91
666.071	538.27
666.269	-153.94
666.467	206.5
666.665	114.34
666.863	155.3
667.061	13.99
667.259	-35.16
667.457	130.73
667.655	388.77
667.853	-164.18
668.051	52.91
668.249	-18.77
668.447	272.04
668.645	-215.38
668.843	159.4
669.041	319.14
669.239	85.67
669.437	40.62
669.635	93.87
669.833	26.28
670.031	360.1
670.229	91.82
670.426	7.85
670.624	73.39
670.822	-6.49
671.02	-53.59
671.218	26.28
671.415	-41.3
671.613	259.75
671.811	91.82
672.009	-78.16
672.206	384.68
672.404	272.04
672.602	108.2
672.799	36.52
672.997	310.95
673.195	431.78
673.392	122.54
673.59	-78.16
673.788	401.06
673.985	-260.43
674.183	97.96
674.38	-61.78
674.578	442.02
674.775	-0.34
674.973	-90.45
675.17	-45.4
675.368	528.03
675.565	437.92
675.763	-86.36
675.96	-12.63
676.158	501.41
676.355	163.5
676.553	-8.53
676.75	18.09
676.947	151.21
677.145	114.34
677.342	145.06
677.539	118.44
677.737	171.69
677.934	700.06
678.131	163.5
678.329	-26.96
678.526	556.71
678.723	390.82
678.92	65.19
679.118	-0.34
679.315	22.19
679.512	595.62
679.709	-29.01
679.906	-4.44
680.104	503.46
680.301	290.47
680.498	-131.41
680.695	-74.07
680.892	177.83
681.089	116.39
681.286	63.15
681.483	-174.42
681.68	339.62
681.877	370.34
682.075	-26.96
682.272	183.98
682.469	319.14
682.665	163.5
682.862	-88.4
683.059	-190.8
683.256	280.23
683.453	280.23
683.65	46.76
683.847	7.85
684.044	220.84
684.241	-106.84
684.438	100.01
684.635	-139.6
684.831	665.25
685.028	767.65
685.225	-59.73
685.422	120.49
685.619	216.74
685.815	214.7
686.012	110.25
686.209	40.62
686.405	7.85
686.602	413.35
686.799	-123.22
686.996	-49.49
687.192	18.09
687.389	646.82
687.586	-57.68
687.782	24.23
687.979	657.06
688.175	513.7
688.372	118.44
688.568	-8.53
688.765	93.87
688.962	532.13
689.158	181.93
689.355	-196.95
689.551	480.93
689.748	11.95
689.944	155.3
690.14	-45.4
690.337	532.13
690.533	81.58
690.73	210.6
690.926	143.02
691.123	302.76
691.319	241.32
691.515	-123.22
691.712	321.19
691.908	358.05
692.104	308.9
692.301	226.98
692.497	-35.16
692.693	446.12
692.889	470.69
693.086	233.13
693.282	-158.03
693.478	257.7
693.674	622.24
693.87	61.1
694.067	-158.03
694.263	335.53
694.459	224.94
694.655	83.63
694.851	73.39
695.047	335.53
695.243	349.86
695.439	145.06
695.635	-53.59
695.831	431.78
696.027	405.16
696.224	38.57
696.42	376.48
696.615	661.15
696.811	489.12
697.007	-67.92
697.203	5.8
697.399	437.92
697.595	546.47
697.791	-74.07
697.987	175.78
698.183	-45.4
698.379	44.71
698.575	134.82
698.77	265.89
698.966	433.83
699.162	452.26
699.358	24.23
699.554	22.19
699.749	439.97
699.945	456.36
700.141	175.78
700.337	114.34
700.532	251.56
700.728	128.68
700.924	9.9
701.119	-90.45
701.315	448.16
701.511	315.05
701.706	91.82
701.902	-110.93
702.097	339.62
702.293	472.74
702.489	79.53
702.684	93.87
702.88	263.85
703.075	233.13
703.271	116.39
703.466	-110.93
703.662	347.81
703.857	415.4
704.053	24.23
704.248	42.67
704.443	439.97
704.639	534.18
704.834	93.87
705.03	138.92
705.225	493.22
705.42	583.33
705.616	175.78
705.811	-49.49
706.006	165.54
706.202	216.74
706.397	216.74
706.592	-24.92
706.787	405.16
706.983	310.95
707.178	239.27
707.373	118.44
707.568	405.16
707.763	622.24
707.959	71.34
708.154	52.91
708.349	421.54
708.544	380.58
708.739	259.75
708.934	-2.39
709.129	472.74
709.324	587.43
709.519	-8.53
709.714	-26.96
709.909	634.53
710.104	462.5
710.299	32.43
710.494	118.44
710.689	464.55
710.884	298.66
711.079	188.07
711.274	296.61
711.469	417.44
711.664	376.48
711.859	-49.49
712.054	202.41
712.249	525.99
712.443	568.99
712.638	-80.21
712.833	54.95
713.028	269.99
713.223	294.57
713.417	339.62
713.612	136.87
713.807	497.32
714.002	972.44
714.196	247.46
714.391	118.44
714.586	564.9
714.78	358.05
714.975	44.71
715.17	85.67
715.364	210.6
715.559	540.32
715.754	-65.88
715.948	-45.4
716.143	827.04
716.337	388.77
716.532	382.63
716.726	136.87
716.921	482.98
717.115	777.89
717.31	11.95
717.504	560.8
717.699	161.45
717.893	593.57
718.088	-59.73
718.282	-45.4
718.476	427.68
718.671	437.92
718.865	87.72
719.059	208.55
719.254	345.77
719.448	724.64
719.642	1480.34
719.837	-39.25
720.031	554.66
720.225	659.1
720.419	226.98
720.614	128.68
720.808	480.93
721.002	267.94
721.196	73.39
721.39	118.44
721.585	673.44
721.779	396.96
721.973	93.87
722.167	-82.26
722.361	364.2
722.555	638.62
722.749	175.78
722.943	44.71
723.137	120.49
723.331	472.74
723.525	192.17
723.719	71.34
723.913	489.12
724.107	788.13
724.301	-24.92
724.495	114.34
724.689	790.17
724.883	632.48
725.077	165.54
725.271	153.26
725.465	612
725.659	386.72
725.853	177.83
726.046	22.19
726.24	222.89
726.434	650.91
726.628	110.25
726.822	155.3
727.015	669.34
727.209	585.38
727.403	226.98
727.596	57
727.79	638.62
727.984	589.47
728.177	120.49
728.371	245.41
728.565	628.39
728.758	95.91
728.952	138.92
729.146	175.78
729.339	573.09
729.533	347.81
729.726	183.98
729.92	79.53
730.113	657.06
730.307	349.86
730.5	194.22
730.694	73.39
730.887	272.04
731.081	489.12
731.274	57
731.468	169.64
731.661	413.35
731.854	284.33
732.048	79.53
732.241	87.72
732.435	265.89
732.628	399.01
732.821	177.83
733.014	9.9
733.208	155.3
733.401	523.94
733.594	220.84
733.788	93.87
733.981	677.54
734.174	487.08
734.367	65.19
734.56	251.56
734.754	659.1
734.947	394.92
735.14	77.48
735.333	177.83
735.526	523.94
735.719	284.33
735.912	75.43
736.105	95.91
736.298	450.21
736.491	339.62
736.684	114.34
736.877	159.4
737.07	470.69
737.263	675.49
737.456	167.59
737.649	40.62
737.842	341.67
738.035	419.49
738.228	159.4
738.421	388.77
738.614	673.44
738.807	528.03
739	13.99
739.192	93.87
739.385	519.84
739.578	552.61
739.771	423.59
739.964	157.35
740.156	487.08
740.349	474.79
740.542	405.16
740.735	85.67
740.927	179.88
741.12	245.41
741.313	30.38
741.505	315.05
741.698	513.7
741.891	566.95
742.083	296.61
742.276	265.89
742.468	386.72
742.661	399.01
742.854	253.61
743.046	290.47
743.239	806.56
743.431	349.86
743.624	204.46
743.816	81.58
744.009	280.23
744.201	538.27
744.393	446.12
744.586	-2.39
744.778	734.88
744.971	310.95
745.163	261.8
745.355	243.37
745.548	446.12
745.74	343.72
745.932	249.51
746.125	210.6
746.317	923.29
746.509	507.55
746.702	212.65
746.894	349.86
747.086	550.56
747.278	781.98
747.471	331.43
747.663	249.51
747.855	358.05
748.047	812.7
748.239	151.21
748.431	151.21
748.623	837.28
748.815	808.61
749.008	143.02
749.2	124.58
749.392	644.77
749.584	601.76
749.776	253.61
749.968	253.61
750.16	855.71
750.352	360.1
750.544	269.99
750.736	118.44
750.928	466.6
751.12	540.32
751.311	216.74
751.503	267.94
751.695	497.32
751.887	464.55
752.079	5.8
752.271	241.32
752.463	1253.02
752.654	585.38
752.846	290.47
753.038	253.61
753.23	306.85
753.421	607.91
753.613	143.02
753.805	476.84
753.997	759.46
754.188	679.58
754.38	243.37
754.572	265.89
754.763	419.49
754.955	603.81
755.146	274.09
755.338	296.61
755.53	640.67
755.721	448.16
755.913	108.2
756.104	138.92
756.296	446.12
756.487	661.15
756.679	110.25
756.87	235.18
757.062	362.15
757.253	589.47
757.445	212.65
757.636	253.61
757.827	468.64
758.019	1152.67
758.21	165.54
758.401	226.98
758.593	974.49
758.784	765.6
758.975	57
759.167	149.16
759.358	556.71
759.549	755.36
759.74	220.84
759.932	163.5
760.123	806.56
760.314	450.21
760.505	310.95
760.696	194.22
760.888	956.06
761.079	390.82
761.27	126.63
761.461	85.67
761.652	921.24
761.843	444.07
762.034	276.13
762.225	540.32
762.416	462.5
762.607	540.32
762.798	233.13
762.989	216.74
763.18	1304.21
763.371	411.3
763.562	202.41
763.753	294.57
763.944	681.63
764.135	747.17
764.326	429.73
764.517	267.94
764.708	515.75
764.899	687.78
765.089	229.03
765.28	136.87
765.471	493.22
765.662	685.73
765.853	349.86
766.043	140.97
766.234	689.82
766.425	788.13
766.615	239.27
766.806	108.2
766.997	882.33
767.187	583.33
767.378	202.41
767.569	147.11
767.759	609.95
767.95	601.76
768.141	413.35
768.331	155.3
768.522	620.19
768.712	728.74
768.903	155.3
769.093	134.82
769.284	898.72
769.474	626.34
769.665	104.11
769.855	67.24
770.046	677.54
770.236	489.12
770.426	390.82
770.617	159.4
770.807	640.67
770.998	425.64
771.188	470.69
771.378	110.25
771.569	659.1
771.759	642.72
771.949	87.72
772.139	-41.3
772.33	556.71
772.52	806.56
772.71	208.55
772.9	89.77
773.09	880.29
773.281	804.51
773.471	95.91
773.661	226.98
773.851	833.18
774.041	421.54
774.231	177.83
774.421	454.31
774.611	913.05
774.802	626.34
774.992	321.19
775.182	183.98
775.372	503.46
775.562	716.45
775.752	321.19
775.942	249.51
776.131	845.47
776.321	712.35
776.511	192.17
776.701	110.25
776.891	888.48
777.081	308.9
777.271	362.15
777.461	200.36
777.651	691.87
777.84	837.28
778.03	429.73
778.22	304.81
778.41	841.37
778.599	419.49
778.789	382.63
778.979	208.55
779.169	632.48
779.358	507.55
779.548	523.94
779.738	169.64
779.927	597.67
780.117	278.18
780.307	231.08
780.496	-26.96
780.686	626.34
780.875	949.92
781.065	183.98
781.254	212.65
781.444	614.05
781.633	612
781.823	192.17
782.012	274.09
782.202	472.74
782.391	528.03
782.581	155.3
782.77	356.01
782.96	728.74
783.149	517.79
783.338	341.67
783.528	3.75
783.717	765.6
783.906	900.76
784.096	374.44
784.285	192.17
784.474	525.99
784.663	401.06
784.853	288.42
785.042	257.7
785.231	442.02
785.42	704.16
785.61	313
785.799	241.32
785.988	458.4
786.177	544.42
786.366	335.53
786.555	499.36
786.744	763.55
786.933	577.19
787.122	179.88
787.312	153.26
787.501	327.33
787.69	683.68
787.879	257.7
788.068	321.19
788.257	218.79
788.445	372.39
788.634	396.96
788.823	200.36
789.012	1107.61
789.201	851.61
789.39	392.87
789.579	237.22
789.768	501.41
789.957	517.79
790.145	298.66
790.334	9.9
790.523	528.03
790.712	515.75
790.9	356.01
791.089	147.11
791.278	730.78
791.467	589.47
791.655	568.99
791.844	790.17
792.033	413.35
792.221	417.44
792.41	364.2
792.599	118.44
792.787	671.39
792.976	722.59
793.164	323.24
793.353	272.04
793.541	765.6
793.73	712.35
793.918	278.18
794.107	278.18
794.295	476.84
794.484	472.74
794.672	343.72
794.861	272.04
795.049	749.22
795.238	958.11
795.426	249.51
795.614	269.99
795.803	652.96
795.991	925.34
796.179	298.66
796.368	306.85
796.556	906.91
796.744	396.96
796.932	206.5
797.121	255.65
797.309	566.95
797.497	798.37
797.685	384.68
797.874	269.99
798.062	507.55
798.25	913.05
798.438	177.83
798.626	265.89
798.814	663.2
799.002	1119.9
799.19	458.4
799.378	327.33
799.566	767.65
799.755	855.71
799.943	478.88
800.131	315.05
800.318	591.52
800.506	669.34
800.694	245.41
800.882	413.35
801.07	902.81
801.258	669.34
801.446	249.51
801.634	331.43
801.822	663.2
802.01	552.61
802.197	226.98
802.385	433.83
802.573	630.43
802.761	388.77
802.949	429.73
803.136	259.75
803.324	913.05
803.512	601.76
803.699	456.36
803.887	110.25
804.075	978.59
804.262	421.54
804.45	259.75
804.638	550.56
804.825	403.11
805.013	446.12
805.201	274.09
805.388	155.3
805.576	616.1
805.763	964.25
805.951	358.05
806.138	460.45
806.326	1101.47
806.513	761.5
806.701	392.87
806.888	335.53
807.075	650.91
807.263	1111.71
807.45	210.6
807.638	564.9
807.825	1060.51
808.012	841.37
808.2	437.92
808.387	589.47
808.574	798.37
808.761	999.07
808.949	315.05
809.136	409.25
809.323	712.35
809.51	415.4
809.698	650.91
809.885	497.32
810.072	708.26
810.259	835.23
810.446	362.15
810.633	343.72
810.82	818.85
811.008	929.44
811.195	532.13
811.382	306.85
811.569	622.24
811.756	360.1
811.943	425.64
812.13	300.71
812.317	564.9
812.504	487.08
812.691	458.4
812.878	538.27
813.064	917.15
813.251	636.58
813.438	224.94
813.625	505.51
813.812	564.9
813.999	579.23
814.186	380.58
814.372	415.4
814.559	738.98
814.746	1046.17
814.933	454.31
815.12	546.47
815.306	497.32
815.493	552.61
815.68	401.06
815.866	382.63
816.053	1050.27
816.24	1205.91
816.426	462.5
816.613	247.46
816.799	876.19
816.986	1007.26
817.173	278.18
817.359	405.16
817.546	763.55
817.732	331.43
817.919	120.49
818.105	618.15
818.292	618.15
818.478	687.78
818.665	618.15
818.851	292.52
819.037	1068.7
819.224	599.71
819.41	394.92
819.597	405.16
819.783	1101.47
819.969	845.47
820.156	413.35
820.342	325.29
820.528	1429.14
820.714	655.01
820.901	677.54
821.087	439.97
821.273	1060.51
821.459	622.24
821.646	454.31
821.832	347.81
822.018	677.54
822.204	732.83
822.39	384.68
822.576	331.43
822.762	792.22
822.948	652.96
823.134	558.75
823.32	376.48
823.507	466.6
823.693	841.37
823.879	792.22
824.065	407.2
824.25	888.48
824.436	564.9
824.622	368.29
824.808	321.19
824.994	544.42
825.18	532.13
825.366	341.67
825.552	396.96
825.738	673.44
825.923	843.42
826.109	614.05
826.295	362.15
826.481	521.89
826.667	601.76
826.852	513.7
827.038	313
827.224	937.63
827.409	1154.71
827.595	302.76
827.781	738.98
827.966	861.85
828.152	904.86
828.338	601.76
828.523	290.47
828.709	464.55
828.894	1070.75
829.08	466.6
829.266	401.06
829.451	562.85
829.637	790.17
829.822	581.28
830.008	407.2
830.193	859.81
830.378	1062.55
830.564	546.47
830.749	358.05
830.935	833.18
831.12	931.48
831.305	337.57
831.491	528.03
831.676	394.92
831.861	960.16
832.047	550.56
832.232	319.14
832.417	1007.26
832.602	743.07
832.788	343.72
832.973	362.15
833.158	693.92
833.343	650.91
833.528	556.71
833.714	546.47
833.899	941.72
834.084	1105.56
834.269	761.5
834.454	540.32
834.639	956.06
834.824	708.26
835.009	536.23
835.194	655.01
835.379	833.18
835.564	1197.72
835.749	640.67
835.934	380.58
836.119	859.81
836.304	710.3
836.489	474.79
836.674	759.46
836.859	564.9
837.044	1085.08
837.228	571.04
837.413	345.77
837.598	851.61
837.783	827.04
837.968	468.64
838.152	421.54
838.337	390.82
838.522	1158.81
838.707	908.96
838.891	618.15
839.076	876.19
839.261	992.92
839.445	521.89
839.63	583.33
839.815	1222.3
839.999	691.87
840.184	487.08
840.368	556.71
840.553	974.49
840.737	1033.88
840.922	456.36
841.106	392.87
841.291	482.98
841.475	868
841.66	478.88
841.844	493.22
842.029	1521.3
842.213	462.5
842.397	478.88
842.582	333.48
842.766	1046.17
842.951	960.16
843.135	511.65
843.319	546.47
843.504	761.5
843.688	980.64
843.872	261.8
844.056	427.68
844.241	1031.83
844.425	687.78
844.609	738.98
844.793	229.03
844.977	927.39
845.161	868
845.346	384.68
845.53	552.61
845.714	687.78
845.898	1140.38
846.082	386.72
846.266	411.3
846.45	751.26
846.634	749.22
846.818	523.94
847.002	591.52
847.186	919.2
847.37	474.79
847.554	407.2
847.738	599.71
847.922	759.46
848.106	824.99
848.29	407.2
848.473	466.6
848.657	984.73
848.841	681.63
849.025	550.56
849.209	323.24
849.392	911
849.576	693.92
849.76	216.74
849.944	614.05
850.127	1085.08
850.311	493.22
850.495	405.16
850.678	351.91
850.862	1060.51
851.046	1140.38
851.229	702.11
851.413	433.83
851.596	755.36
851.78	812.7
851.964	691.87
852.147	560.8
852.331	1466
852.514	1068.7
852.698	646.82
852.881	374.44
853.065	964.25
853.248	722.59
853.431	642.72
853.615	591.52
853.798	1382.04
853.982	833.18
854.165	618.15
854.348	499.36
854.532	583.33
854.715	630.43
854.898	532.13
855.081	599.71
855.265	1064.6
855.448	1191.58
855.631	458.4
855.814	538.27
855.997	1068.7
856.181	884.38
856.364	515.75
856.547	358.05
856.73	880.29
856.913	839.33
857.096	472.74
857.279	556.71
857.462	618.15
857.645	947.87
857.828	657.06
858.011	642.72
858.194	638.62
858.377	986.78
858.56	401.06
858.743	550.56
858.926	644.77
859.109	984.73
859.292	499.36
859.475	462.5
859.658	1035.93
859.841	941.72
860.023	376.48
860.206	349.86
860.389	824.99
860.572	1164.95
860.755	593.57
860.937	548.51
861.12	847.52
861.303	700.06
861.486	517.79
861.668	353.96
861.851	951.96
862.034	855.71
862.216	655.01
862.399	351.91
862.581	939.68
862.764	1203.86
862.947	587.43
863.129	534.18
863.312	521.89
863.494	1189.53
863.677	880.29
863.859	351.91
864.042	1029.79
864.224	1144.47
864.406	685.73
864.589	364.2
864.771	978.59
864.954	482.98
865.136	536.23
865.318	298.66
865.501	956.06
865.683	374.44
865.865	521.89
866.048	515.75
866.23	794.27
866.412	863.9
866.594	353.96
866.777	573.09
866.959	929.44
867.141	616.1
867.323	853.66
867.505	630.43
867.687	804.51
867.869	771.74
868.052	573.09
868.234	421.54
868.416	863.9
868.598	1009.31
868.78	581.28
868.962	372.39
869.144	1023.64
869.326	962.2
869.508	501.41
869.69	343.72
869.872	632.48
870.054	1138.33
870.236	327.33
870.417	446.12
870.599	732.83
870.781	1160.86
870.963	781.98
871.145	478.88
871.327	480.93
871.508	1056.41
871.69	495.27
871.872	513.7
872.054	800.41
872.235	929.44
872.417	601.76
872.599	460.45
872.78	1199.77
872.962	777.89
873.144	413.35
873.325	575.14
873.507	1187.48
873.689	888.48
873.87	396.96
874.052	540.32
874.233	743.07
874.415	1052.31
874.596	519.84
874.778	403.11
874.959	863.9
875.141	1080.99
875.322	583.33
875.503	433.83
875.685	994.97
875.866	437.92
876.048	515.75
876.229	360.1
876.41	763.55
876.592	898.72
876.773	642.72
876.954	452.26
877.136	1134.23
877.317	761.5
877.498	351.91
877.679	577.19
877.86	992.92
878.042	753.31
878.223	462.5
878.404	814.75
878.585	954.01
878.766	1218.2
878.947	802.46
879.128	685.73
879.309	990.88
879.49	1013.4
879.672	691.87
879.853	599.71
880.034	605.86
880.215	710.3
880.396	618.15
880.576	466.6
880.757	585.38
880.938	1072.79
881.119	544.42
881.3	548.51
881.481	630.43
881.662	1664.66
881.843	487.08
882.023	372.39
882.204	886.43
882.385	761.5
882.566	470.69
882.747	489.12
882.927	804.51
883.108	814.75
883.289	564.9
883.469	687.78
883.65	769.69
883.831	831.13
884.011	767.65
884.192	589.47
884.373	1181.34
884.553	956.06
884.734	702.11
884.914	900.76
885.095	1486.48
885.275	1285.78
885.456	966.3
885.636	419.49
885.817	810.65
885.997	800.41
886.178	568.99
886.358	689.82
886.538	964.25
886.719	1822.35
886.899	593.57
887.08	659.1
887.26	1244.82
887.44	679.58
887.621	540.32
887.801	741.02
887.981	1453.72
888.161	1097.37
888.342	773.79
888.522	700.06
888.702	1105.56
888.882	1207.96
889.062	693.92
889.242	399.01
889.423	1257.11
889.603	986.78
889.783	802.46
889.963	642.72
890.143	1011.36
890.323	1146.52
890.503	700.06
890.683	659.1
890.863	1019.55
891.043	978.59
891.223	761.5
891.403	878.24
891.583	874.14
891.763	986.78
891.943	804.51
892.122	665.25
892.302	984.73
892.482	835.23
892.662	800.41
892.842	824.99
893.022	1080.99
893.201	767.65
893.381	837.28
893.561	775.84
893.741	1142.43
893.92	1093.27
894.1	716.45
894.28	865.95
894.459	1156.76
894.639	1058.46
894.819	648.86
894.998	679.58
895.178	1064.6
895.357	1097.37
895.537	614.05
895.716	519.84
895.896	997.02
896.075	1238.68
896.255	749.22
896.434	589.47
896.614	1150.62
896.793	1296.02
896.973	878.24
897.152	849.57
897.331	1099.42
897.511	1060.51
897.69	558.75
897.87	728.74
898.049	1183.38
898.228	1040.03
898.407	1017.5
898.587	976.54
898.766	818.85
898.945	1291.93
899.124	1003.16
899.304	812.7
899.483	1068.7
899.662	1443.48
899.841	685.73
900.02	677.54
900.199	1160.86
900.378	1212.06
900.557	738.98
900.737	620.19
900.916	1148.57
901.095	1218.2
901.274	1040.03
901.453	626.34
901.632	800.41
901.811	779.93
901.989	683.68
902.168	648.86
902.347	1173.14
902.526	859.81
902.705	814.75
902.884	765.6
903.063	1306.26
903.242	1363.61
903.42	745.12
903.599	904.86
903.778	1230.49
903.957	1369.75
904.135	851.61
904.314	863.9
904.493	1154.71
904.672	1085.08
904.85	712.35
905.029	734.88
905.207	1101.47
905.386	1713.81
905.565	648.86
905.743	638.62
905.922	820.89
906.1	1232.54
906.279	566.95
906.457	638.62
906.636	933.53
906.814	929.44
906.993	829.09
907.171	738.98
907.35	1214.1
907.528	1218.2
907.707	886.43
907.885	716.45
908.063	1388.18
908.242	886.43
908.42	790.17
908.598	544.42
908.777	1203.86
908.955	861.85
909.133	1011.36
909.311	579.23
909.49	958.11
909.668	999.07
909.846	732.83
910.024	593.57
910.202	1066.65
910.38	1091.23
910.559	560.8
910.737	607.91
910.915	1177.24
911.093	1029.79
911.271	802.46
911.449	908.96
911.627	1171.1
911.805	1457.81
911.983	743.07
912.161	798.37
912.339	1044.12
912.517	1287.83
912.695	833.18
912.872	779.93
913.05	759.46
913.228	1066.65
913.406	706.21
913.584	724.64
913.762	1128.09
913.939	773.79
914.117	665.25
914.295	626.34
914.473	1091.23
914.65	1031.83
914.828	769.69
915.006	749.22
915.184	755.36
915.361	1035.93
915.539	902.81
915.716	994.97
915.894	1054.36
916.072	1232.54
916.249	896.67
916.427	915.1
916.604	710.3
916.782	1027.74
916.959	624.29
917.137	726.69
917.314	1044.12
917.492	1212.06
917.669	806.56
917.847	798.37
918.024	1066.65
918.201	763.55
918.379	773.79
918.556	749.22
918.733	1142.43
918.911	904.86
919.088	978.59
919.265	745.12
919.442	949.92
919.62	970.4
919.797	620.19
919.974	523.94
920.151	1019.55
920.328	935.58
920.506	681.63
920.683	878.24
920.86	714.4
921.037	759.46
921.214	749.22
921.391	628.39
921.568	1187.48
921.745	788.13
921.922	706.21
922.099	620.19
922.276	1242.78
922.453	1050.27
922.63	630.43
922.807	1013.4
922.984	997.02
923.161	829.09
923.338	802.46
923.514	626.34
923.691	921.24
923.868	1060.51
924.045	784.03
924.222	546.47
924.399	999.07
924.575	1091.23
924.752	781.98
924.929	741.02
925.105	1072.79
925.282	808.61
925.459	638.62
925.635	669.34
925.812	986.78
925.989	822.94
926.165	837.28
926.342	497.32
926.518	667.3
926.695	951.96
926.871	644.77
927.048	489.12
927.224	1068.7
927.401	921.24
927.577	632.48
927.754	505.51
927.93	1205.91
928.107	1115.8
928.283	525.99
928.459	767.65
928.636	964.25
928.812	763.55
928.988	589.47
929.165	536.23
929.341	863.9
929.517	839.33
929.693	958.11
929.87	462.5
930.046	970.4
930.222	749.22
930.398	616.1
930.574	708.26
930.751	880.29
930.927	732.83
931.103	736.93
931.279	644.77
931.455	614.05
931.631	886.43
931.807	503.46
931.983	390.82
932.159	530.08
932.335	931.48
932.511	689.82
932.687	499.36
932.863	964.25
933.039	908.96
933.215	480.93
933.391	425.64
933.566	884.38
933.742	896.67
933.918	564.9
934.094	421.54
934.27	855.71
934.445	847.52
934.621	706.21
934.797	454.31
934.973	1076.89
935.148	829.09
935.324	388.77
935.5	356.01
935.675	1056.41
935.851	851.61
936.027	480.93
936.202	513.7
936.378	800.41
936.553	605.86
936.729	874.14
936.904	339.62
937.08	464.55
937.255	478.88
937.431	401.06
937.606	356.01
937.782	597.67
937.957	732.83
938.133	474.79
938.308	243.37
938.483	568.99
938.659	433.83
938.834	462.5
939.009	255.65
939.185	556.71
939.36	435.88
939.535	155.3
939.71	417.44
939.886	880.29
940.061	702.11
940.236	564.9
940.411	372.39
940.586	650.91
940.761	796.32
940.937	325.29
941.112	220.84
941.287	603.81
941.462	577.19
941.637	149.16
941.812	290.47
941.987	622.24
942.162	560.8
942.337	380.58
942.512	313
942.687	724.64
942.862	626.34
943.037	253.61
943.212	40.62
943.386	446.12
943.561	636.58
943.736	466.6
943.911	554.66
944.086	540.32
944.26	620.19
944.435	269.99
944.61	392.87
944.785	812.7
944.959	1019.55
945.134	341.67
945.309	267.94
945.483	384.68
945.658	841.37
945.833	-47.44
946.007	57
946.182	814.75
946.357	233.13
946.531	194.22
946.706	206.5
946.88	46.76
947.055	499.36
947.229	165.54
947.404	77.48
947.578	773.79
947.752	349.86
947.927	194.22
948.101	97.96
948.276	556.71
948.45	507.55
948.624	462.5
948.799	267.94
948.973	622.24
949.147	265.89
949.321	280.23
949.496	356.01
949.67	786.08
949.844	390.82
950.018	226.98
950.193	261.8
950.367	1052.31
950.541	378.53
950.715	310.95
950.889	341.67
951.063	390.82
951.237	636.58
951.411	73.39
951.585	50.86
951.759	564.9
951.933	380.58
952.107	140.97
952.281	392.87
952.455	878.24
952.629	689.82
952.803	147.11
952.977	192.17
953.151	685.73
953.325	564.9
953.499	345.77
953.672	57
953.846	343.72
954.02	396.96
954.194	220.84
954.368	186.02
954.541	595.62
954.715	263.85
954.889	325.29
955.062	179.88
955.236	384.68
955.41	392.87
955.583	390.82
955.757	112.3
955.93	450.21
956.104	183.98
956.278	192.17
956.451	210.6
956.625	630.43
956.798	908.96
956.972	566.95
957.145	24.23
957.319	495.27
957.492	366.25
957.665	407.2
957.839	138.92
958.012	612
958.185	405.16
958.359	216.74
958.532	356.01
958.705	683.68
958.879	544.42
959.052	343.72
959.225	22.19
959.398	452.26
959.572	501.41
959.745	126.63
959.918	319.14
960.091	292.52
960.264	538.27
960.438	159.4
960.611	130.73
960.784	736.93
960.957	325.29
961.13	702.11
961.303	175.78
961.476	491.17
961.649	681.63
961.822	155.3
961.995	181.93
962.168	593.57
962.341	429.73
962.514	226.98
962.686	167.59
962.859	519.84
963.032	605.86
963.205	183.98
963.378	46.76
963.551	568.99
963.723	476.84
963.896	292.52
964.069	366.25
964.242	456.36
964.414	622.24
964.587	306.85
964.76	237.22
964.932	452.26
965.105	427.68
965.278	208.55
965.45	218.79
965.623	396.96
965.795	548.51
965.968	278.18
966.14	220.84
966.313	378.53
966.485	435.88
966.658	226.98
966.83	175.78
967.003	691.87
967.175	630.43
967.348	167.59
967.52	319.14
967.692	812.7
967.865	607.91
968.037	323.24
968.209	446.12
968.382	433.83
968.554	568.99
968.726	212.65
968.898	165.54
969.071	571.04
969.243	626.34
969.415	290.47
969.587	286.37
969.759	945.82
969.932	702.11
970.104	292.52
970.276	5.8
970.448	349.86
970.62	331.43
970.792	399.01
970.964	235.18
971.136	915.1
971.308	648.86
971.48	77.48
971.652	229.03
971.824	835.23
971.996	446.12
972.168	276.13
972.339	310.95
972.511	710.3
972.683	300.71
972.855	464.55
973.027	267.94
973.199	497.32
973.37	636.58
973.542	407.2
973.714	401.06
973.886	372.39
974.057	687.78
974.229	190.12
974.401	231.08
974.572	229.03
974.744	61.1
974.915	143.02
975.087	102.06
975.259	884.38
975.43	323.24
975.602	249.51
975.773	130.73
975.945	241.32
976.116	583.33
976.288	11.95
976.459	392.87
976.63	380.58
976.802	546.47
976.973	112.3
977.145	290.47
977.316	855.71
977.487	827.04
977.659	351.91
977.83	276.13
978.001	880.29
978.172	487.08
978.344	136.87
978.515	175.78
978.686	353.96
978.857	788.13
979.028	206.5
979.2	126.63
979.371	695.97
979.542	388.77
979.713	466.6
979.884	-78.16
980.055	315.05
980.226	384.68
980.397	151.21
980.568	114.34
980.739	624.29
980.91	349.86
981.081	351.91
981.252	196.26
981.423	558.75
981.594	675.49
981.765	145.06
981.936	284.33
982.106	560.8
982.277	870.05
982.448	120.49
982.619	392.87
982.79	331.43
982.96	626.34
983.131	247.46
983.302	3.75
983.472	345.77
983.643	599.71
983.814	267.94
983.984	65.19
984.155	476.84
984.326	736.93
984.496	284.33
984.667	239.27
984.837	286.37
985.008	718.5
985.178	308.9
985.349	243.37
985.519	358.05
985.69	253.61
985.86	235.18
986.031	73.39
986.201	482.98
986.371	573.09
986.542	-20.82
986.712	22.19
986.882	579.23
987.053	583.33
987.223	153.26
987.393	378.53
987.563	294.57
987.734	585.38
987.904	493.22
988.074	245.41
988.244	489.12
988.414	290.47
988.585	116.39
988.755	296.61
988.925	437.92
989.095	749.22
989.265	130.73
989.435	112.3
989.605	605.86
989.775	487.08
989.945	493.22
990.115	128.68
990.285	356.01
990.455	478.88
990.625	263.85
990.795	106.15
990.965	736.93
991.134	257.7
991.304	186.02
991.474	42.67
991.644	532.13
991.814	833.18
991.984	71.34
992.153	147.11
992.323	284.33
992.493	454.31
992.662	-45.4
992.832	292.52
993.002	421.54
993.171	464.55
993.341	-29.01
993.511	286.37
993.68	267.94
993.85	540.32
994.019	16.04
994.189	11.95
994.358	386.72
994.528	267.94
994.697	-174.42
994.867	91.82
995.036	579.23
995.206	374.44
995.375	118.44
995.544	257.7
995.714	409.25
995.883	356.01
996.052	216.74
996.222	-223.57
996.391	843.42
996.56	452.26
996.73	3.75
996.899	-45.4
997.068	777.89
997.237	421.54
997.406	73.39
997.576	-4.44
997.745	470.69
997.914	423.59
998.083	-112.98
998.252	44.71
998.421	388.77
998.59	190.12
998.759	-39.25
998.928	-84.31
999.097	736.93
999.266	458.4
999.435	253.61
999.604	-49.49
999.773	898.72
999.942	282.28
1000.111	-213.33
1000.28	-86.36
1000.448	93.87
1000.617	44.71
1000.786	253.61
1000.955	-94.55
1001.124	435.88
1001.292	980.64
1001.461	-29.01
1001.63	-16.73
1001.798	675.49
1001.967	650.91
1002.136	-22.87
1002.304	-29.01
1002.473	446.12
1002.642	317.09
1002.81	48.81
1002.979	-6.49
1003.147	485.03
1003.316	863.9
1003.484	-49.49
1003.653	-41.3
1003.821	640.67
1003.99	366.25
1004.158	206.5
1004.327	114.34
1004.495	448.16
1004.663	200.36
1004.832	157.35
1005	-55.64
1005.168	458.4
1005.337	452.26
1005.505	-153.94
1005.673	169.64
1005.842	499.36
1006.01	487.08
1006.178	-94.55
1006.346	-35.16
1006.514	356.01
1006.683	589.47
1006.851	-72.02
1007.019	-184.66
1007.187	120.49
1007.355	-61.78
1007.523	-170.32
1007.691	-104.79
1007.859	28.33
1008.027	585.38
1008.195	52.91
1008.363	-172.37
1008.531	439.97
1008.699	118.44
1008.867	-178.51
1009.035	-57.68
1009.203	657.06
1009.37	358.05
1009.538	32.43
1009.706	399.01
1009.874	282.28
1010.042	261.8
1010.209	-26.96
1010.377	-119.12
1010.545	579.23
1010.713	335.53
1010.88	-162.13
1011.048	-2.39
1011.216	267.94
1011.383	663.2
1011.551	-20.82
1011.718	-37.2
1011.886	548.51
1012.054	337.57
1012.221	-78.16
1012.389	-63.83
1012.556	274.09
1012.724	663.2
1012.891	65.19
1013.058	-209.23
1013.226	431.78
1013.393	425.64
1013.561	-147.8
1013.728	-190.8
1013.895	505.51
1014.063	386.72
1014.23	-127.32
1014.397	-106.84
1014.565	538.27
1014.732	239.27
1014.899	-117.08
1015.066	-110.93
1015.233	249.51
1015.401	431.78
1015.568	-45.4
1015.735	63.15
1015.902	331.43
1016.069	380.58
1016.236	-31.06
1016.403	-135.51
1016.57	71.34
1016.737	534.18
1016.904	-78.16
1017.071	-160.08
1017.238	177.83
1017.405	466.6
1017.572	-53.59
1017.739	194.22
1017.906	478.88
1018.073	495.27
1018.24	-174.42
1018.407	-4.44
1018.573	532.13
1018.74	259.75
1018.907	-14.68
1019.074	-160.08
1019.241	485.03
1019.407	294.57
1019.574	-143.7
1019.741	-223.57
1019.907	335.53
1020.074	376.48
1020.241	-379.22
1020.407	-106.84
1020.574	446.12
1020.74	425.64
1020.907	-76.12
1021.073	-201.04
1021.24	716.45
1021.406	519.84
1021.573	-123.22
1021.739	-198.99
1021.906	417.44
1022.072	210.6
1022.239	-100.69
1022.405	-14.68
1022.571	229.03
1022.738	32.43
1022.904	-180.56
1023.07	-20.82
1023.237	272.04
1023.403	521.89
1023.569	-100.69
1023.735	24.23
1023.902	358.05
1024.068	388.77
1024.234	-143.7
1024.4	-106.84
1024.566	360.1
1024.732	437.92
1024.898	-119.12
1025.065	-252.24
1025.231	515.75
1025.397	165.54
1025.563	-164.18
1025.729	-203.09
1025.895	-125.27
1026.061	-8.53
1026.227	-319.82
1026.392	-45.4
1026.558	536.23
1026.724	315.05
1026.89	-188.75
1027.056	-8.53
1027.222	290.47
1027.388	155.3
1027.553	-153.94
1027.719	-188.75
1027.885	659.1
1028.051	413.35
1028.216	-242
1028.382	-69.97
1028.548	534.18
1028.713	118.44
1028.879	-229.71
1029.045	69.29
1029.21	593.57
1029.376	528.03
1029.541	52.91
1029.707	-47.44
1029.873	386.72
1030.038	470.69
1030.204	-143.7
1030.369	-29.01
1030.534	525.99
1030.7	267.94
1030.865	-72.02
1031.031	-143.7
1031.196	321.19
1031.361	206.5
1031.527	-82.26
1031.692	-127.32
1031.857	-61.78
1032.023	482.98
1032.188	-201.04
1032.353	-174.42
1032.518	638.62
1032.684	356.01
1032.849	-252.24
1033.014	-0.34
1033.179	433.83
1033.344	411.3
1033.509	-74.07
1033.674	-192.85
1033.839	446.12
1034.004	415.4
1034.17	-96.6
1034.335	-221.52
1034.5	241.32
1034.664	120.49
1034.829	-166.23
1034.994	-131.41
1035.159	290.47
1035.324	321.19
1035.489	-102.74
1035.654	-188.75
1035.819	575.14
1035.984	347.81
1036.148	-65.88
1036.313	-82.26
1036.478	491.17
1036.643	233.13
1036.807	-123.22
1036.972	-196.95
1037.137	622.24
1037.301	317.09
1037.466	-305.49
1037.631	11.95
1037.795	544.42
1037.96	317.09
1038.124	30.38
1038.289	-205.14
1038.454	374.44
1038.618	399.01
1038.783	-69.97
1038.947	-80.21
1039.111	261.8
1039.276	114.34
1039.44	-57.68
1039.605	343.72
1039.769	200.36
1039.933	333.48
1040.098	-37.2
1040.262	85.67
1040.426	442.02
1040.591	425.64
1040.755	-172.37
1040.919	-125.27
1041.083	382.63
1041.248	325.29
1041.412	-246.1
1041.576	-168.27
1041.74	210.6
1041.904	499.36
1042.068	-235.86
1042.232	-37.2
1042.397	534.18
1042.561	384.68
1042.725	-285.01
1042.889	-26.96
1043.053	378.53
1043.217	364.2
1043.381	-2.39
1043.544	-209.23
1043.708	485.03
1043.872	61.1
1044.036	-307.54
1044.2	-164.18
1044.364	538.27
1044.528	650.91
1044.691	4666.98
1044.855	-201.04
1045.019	462.5
1045.183	433.83
1045.346	-78.16
1045.51	-242
1045.674	345.77
1045.837	433.83
1046.001	-82.26
1046.165	-131.41
1046.328	786.08
1046.492	302.76
1046.655	-4.44
1046.819	-33.11
1046.983	110.25
1047.146	407.2
1047.31	48.81
1047.473	-282.96
1047.636	233.13
1047.8	87.72
1047.963	-94.55
1048.127	-121.17
1048.29	79.53
