Data from Ink_Intensity_USB4F045381__140__00140.txt Node

Date: Mon Jul 17 11:23:07 EDT 2023
User: mmckonesweet
Spectrometer: USB4F04538
Trigger mode: 4
Integration Time (sec): 9.000000E-1
Scans to average: 1
Electric dark correction enabled: true
Nonlinearity correction enabled: false
Boxcar width: 0
XAxis mode: Wavelengths
Number of Pixels in Spectrum: 3648
>>>>>Begin Spectral Data<<<<<
345.52	-984.73
345.736	-984.73
345.952	-984.73
346.168	-986.78
346.384	-1003.16
346.6	-108.2
346.816	-267.94
347.032	-202.41
347.248	201.04
347.464	-222.89
347.68	-114.34
347.896	26.96
348.112	383.31
348.328	-18.09
348.544	-36.52
348.76	69.97
348.975	289.1
349.191	-183.98
349.407	-222.89
349.623	-22.19
349.839	-40.62
350.055	-157.35
350.27	74.07
350.486	174.42
350.702	321.87
350.918	190.8
351.133	-214.7
351.349	155.99
351.565	352.59
351.781	-290.47
351.996	12.63
352.212	321.87
352.428	-83.63
352.644	-181.93
352.859	-198.31
353.075	305.49
353.291	149.84
353.506	-214.7
353.722	-263.85
353.938	-48.81
354.153	465.23
354.369	63.83
354.584	-136.87
354.8	272.72
355.016	-243.37
355.231	-192.17
355.447	-7.85
355.662	166.23
355.878	803.15
356.093	-423.59
356.309	-30.38
356.524	-222.89
356.74	221.52
356.955	-198.31
357.171	-3.75
357.386	225.62
357.602	-249.51
357.817	-34.47
358.033	-196.26
358.248	368.98
358.464	176.47
358.679	-181.93
358.895	-374.44
359.11	26.96
359.325	219.47
359.541	59.73
359.756	-1.71
359.972	-298.66
360.187	192.85
360.402	-263.85
360.618	-173.74
360.833	1022.28
361.048	182.61
361.264	-179.88
361.479	18.77
361.694	12.63
361.909	141.65
362.125	-177.83
362.34	-128.68
362.555	225.62
362.77	26.96
362.986	-292.52
363.201	-138.92
363.416	172.37
363.631	63.83
363.847	-210.6
364.062	-222.89
364.277	270.67
364.492	26.96
364.707	-161.45
364.922	-347.81
365.138	336.21
365.353	362.83
365.568	-245.41
365.783	-159.4
365.998	92.5
366.213	530.77
366.428	-198.31
366.643	39.25
366.858	213.33
367.073	223.57
367.288	-151.21
367.503	-229.03
367.718	82.26
367.933	311.63
368.148	-267.94
368.363	-106.15
368.578	-36.52
368.793	387.41
369.008	-100.01
369.223	-224.94
369.438	209.23
369.653	389.46
369.868	-308.9
370.083	-192.17
370.298	74.07
370.513	387.41
370.728	14.68
370.943	-220.84
371.157	-143.02
371.372	518.48
371.587	-243.37
371.802	-288.42
372.017	51.54
372.232	454.99
372.446	-52.91
372.661	-290.47
372.876	209.23
373.091	223.57
373.306	-112.3
373.52	-267.94
373.735	-206.5
373.95	571.72
374.165	-278.18
374.379	-153.26
374.594	-95.91
374.809	53.59
375.023	72.02
375.238	-216.74
375.453	223.57
375.667	-313
375.882	-85.67
376.097	-243.37
376.311	12.63
376.526	131.41
376.741	-251.56
376.955	84.31
377.17	547.15
377.384	528.72
377.599	-42.67
377.813	-325.29
378.028	575.82
378.242	237.91
378.457	-93.87
378.672	-358.05
378.886	47.44
379.101	31.06
379.315	-376.48
379.53	-128.68
379.744	133.46
379.958	139.6
380.173	-183.98
380.387	-143.02
380.602	172.37
380.816	-145.06
381.031	-169.64
381.245	-167.59
381.459	221.52
381.674	2595.12
381.888	-216.74
382.103	88.4
382.317	-132.78
382.531	520.53
382.746	-151.21
382.96	-190.12
383.174	-208.55
383.388	428.37
383.603	-34.47
383.817	-267.94
384.031	162.13
384.246	428.37
384.46	-20.14
384.674	338.26
384.888	-30.38
385.103	92.5
385.317	-265.89
385.531	-34.47
385.745	399.7
385.959	346.45
386.174	-218.79
386.388	-245.41
386.602	2.39
386.816	-151.21
387.03	-157.35
387.244	-104.11
387.458	80.21
387.672	291.15
387.887	-265.89
388.101	-288.42
388.315	272.72
388.529	192.85
388.743	-235.18
388.957	-259.75
389.171	321.87
389.385	-192.17
389.599	-226.98
389.813	102.74
390.027	112.98
390.241	653.64
390.455	-134.82
390.669	-157.35
390.883	-130.73
391.097	399.7
391.311	-30.38
391.525	-233.13
391.738	301.39
391.952	155.99
392.166	10.58
392.38	-304.81
392.594	340.3
392.808	264.53
393.022	-112.3
393.236	-128.68
393.449	266.58
393.663	227.67
393.877	-290.47
394.091	-59.05
394.305	-54.95
394.518	-157.35
394.732	-274.09
394.946	-173.74
395.16	387.41
395.373	100.69
395.587	-276.13
395.801	-190.12
396.015	293.2
396.228	248.15
396.442	-284.33
396.656	-333.48
396.869	231.76
397.083	379.22
397.297	-102.06
397.51	-151.21
397.724	379.22
397.938	117.08
398.151	-362.15
398.365	-364.2
398.578	258.39
398.792	383.31
399.005	-87.72
399.219	-181.93
399.433	96.6
399.646	176.47
399.86	-13.99
400.073	-30.38
400.287	176.47
400.5	-50.86
400.714	-59.05
400.927	-87.72
401.141	313.68
401.354	1071.43
401.567	190.8
401.781	-341.67
401.994	176.47
402.208	532.81
402.421	-159.4
402.635	-136.87
402.848	-9.9
403.061	305.49
403.275	-89.77
403.488	-249.51
403.701	405.84
403.915	223.57
404.128	12.63
404.341	-114.34
404.555	158.03
404.768	26.96
404.981	76.12
405.195	-220.84
405.408	432.46
405.621	248.15
405.834	29.01
406.048	-188.07
406.261	346.45
406.474	438.61
406.687	-128.68
406.9	-61.1
407.114	31.06
407.327	176.47
407.54	-274.09
407.753	-368.29
407.966	-128.68
408.179	264.53
408.392	-257.7
408.605	-382.63
408.819	104.79
409.032	145.75
409.245	-233.13
409.458	18.77
409.671	182.61
409.884	252.24
410.097	-304.81
410.31	-9.9
410.523	252.24
410.736	24.92
410.949	-102.06
411.162	-87.72
411.375	379.22
411.588	280.91
411.801	74.07
412.014	-298.66
412.227	49.49
412.44	-50.86
412.653	-243.37
412.865	-13.99
413.078	264.53
413.291	198.99
413.504	-110.25
413.717	-161.45
413.93	145.75
414.143	-155.3
414.356	-167.59
414.568	-405.16
414.781	260.43
414.994	182.61
415.207	-112.3
415.42	-155.3
415.632	233.81
415.845	485.71
416.058	-315.05
416.271	-274.09
416.483	72.02
416.696	512.33
416.909	-104.11
417.121	-210.6
417.334	194.9
417.547	561.48
417.759	-214.7
417.972	-308.9
418.185	-128.68
418.397	192.85
418.61	-218.79
418.823	-169.64
419.035	411.98
419.248	33.11
419.46	-65.19
419.673	-63.15
419.885	196.95
420.098	-13.99
420.311	-120.49
420.523	-378.53
420.736	139.6
420.948	45.4
421.161	-175.78
421.373	-433.83
421.586	63.83
421.798	-46.76
422.01	-353.96
422.223	-26.28
422.435	-97.96
422.648	108.88
422.86	-145.06
423.073	-237.22
423.285	276.82
423.497	-229.03
423.71	-204.46
423.922	-200.36
424.134	104.79
424.347	366.93
424.559	-9.9
424.771	98.64
424.984	10.58
425.196	174.42
425.408	-376.48
425.621	-290.47
425.833	280.91
426.045	280.91
426.257	-333.48
426.47	-167.59
426.682	186.71
426.894	129.36
427.106	-222.89
427.318	-132.78
427.531	-136.87
427.743	237.91
427.955	-173.74
428.167	235.86
428.379	164.18
428.591	-13.99
428.804	-93.87
429.016	-294.57
429.228	-30.38
429.44	151.89
429.652	-63.15
429.864	-321.19
430.076	-20.14
430.288	2.39
430.5	-83.63
430.712	-85.67
430.924	307.54
431.136	49.49
431.348	-396.96
431.56	-171.69
431.772	-44.71
431.984	-83.63
432.196	-200.36
432.408	-181.93
432.62	-108.2
432.832	51.54
433.044	-3.75
433.256	-114.34
433.468	172.37
433.679	-233.13
433.891	-345.77
434.103	-13.99
434.315	315.73
434.527	223.57
434.739	-46.76
434.95	-210.6
435.162	264.53
435.374	-52.91
435.586	-140.97
435.798	-229.03
436.009	-282.28
436.221	-18.09
436.433	-235.18
436.645	-147.11
436.856	-81.58
437.068	395.6
437.28	-229.03
437.491	166.23
437.703	80.21
437.915	110.93
438.126	-204.46
438.338	39.25
438.55	33.11
438.761	160.08
438.973	-206.5
439.184	-222.89
439.396	82.26
439.608	160.08
439.819	-356.01
440.031	-79.53
440.242	194.9
440.454	151.89
440.665	-161.45
440.877	-85.67
441.088	102.74
441.3	-67.24
441.511	-241.32
441.723	-263.85
441.934	119.12
442.146	18.77
442.357	-77.48
442.569	61.78
442.78	104.79
442.991	452.94
443.203	108.88
443.414	-313
443.626	440.65
443.837	-124.58
444.048	-272.04
444.26	-351.91
444.471	45.4
444.682	209.23
444.894	-349.86
445.105	-376.48
445.316	248.15
445.528	280.91
445.739	-91.82
445.95	-145.06
446.161	168.27
446.373	213.33
446.584	-136.87
446.795	-122.54
447.006	190.8
447.217	475.47
447.429	-388.77
447.64	-241.32
447.851	375.12
448.062	0.34
448.273	-413.35
448.484	-263.85
448.695	184.66
448.907	26.96
449.118	-171.69
449.329	-18.09
449.54	-108.2
449.751	-175.78
449.962	-233.13
450.173	-251.56
450.384	178.51
450.595	268.63
450.806	-247.46
451.017	-151.21
451.228	366.93
451.439	272.72
451.65	-202.41
451.861	-403.11
452.072	-286.37
452.283	84.31
452.494	-95.91
452.705	-198.31
452.915	440.65
453.126	141.65
453.337	-206.5
453.548	-280.23
453.759	231.76
453.97	504.14
454.181	63.83
454.391	-190.12
454.602	143.7
454.813	186.71
455.024	-128.68
455.235	-204.46
455.445	125.27
455.656	135.51
455.867	-87.72
456.078	-224.94
456.288	-30.38
456.499	143.7
456.71	-284.33
456.921	18.77
457.131	182.61
457.342	33.11
457.553	-118.44
457.763	-247.46
457.974	211.28
458.184	196.95
458.395	-294.57
458.606	-335.53
458.816	289.1
459.027	463.18
459.237	-28.33
459.448	-405.16
459.659	354.64
459.869	596.3
460.08	-394.92
460.29	-46.76
460.501	524.62
460.711	-102.06
460.922	-349.86
461.132	-265.89
461.343	725.32
461.553	-194.22
461.764	-296.61
461.974	-257.7
462.184	272.72
462.395	141.65
462.605	-145.06
462.816	-267.94
463.026	74.07
463.236	377.17
463.447	-302.76
463.657	-327.33
463.867	285.01
464.078	-65.19
464.288	-194.22
464.498	-265.89
464.709	67.92
464.919	-69.29
465.129	-145.06
465.339	-308.9
465.55	196.95
465.76	227.67
465.97	-237.22
466.18	-175.78
466.391	346.45
466.601	162.13
466.811	-136.87
467.021	-278.18
467.231	100.69
467.441	317.78
467.651	-145.06
467.862	-431.78
468.072	-34.47
468.282	397.65
468.492	-212.65
468.702	-151.21
468.912	84.31
469.122	608.59
469.332	51.54
469.542	-292.52
469.752	309.58
469.962	35.16
470.172	-255.65
470.382	-302.76
470.592	203.09
470.802	346.45
471.012	-87.72
471.222	-235.18
471.432	252.24
471.642	248.15
471.852	-106.15
472.062	-349.86
472.272	-7.85
472.482	-235.18
472.691	-337.57
472.901	-329.38
473.111	133.46
473.321	686.41
473.531	-247.46
473.741	-132.78
473.95	141.65
474.16	317.78
474.37	-83.63
474.58	-448.16
474.79	428.37
474.999	137.56
475.209	-288.42
475.419	-278.18
475.628	0.34
475.838	295.25
476.048	-153.26
476.258	-313
476.467	244.05
476.677	-112.3
476.886	-13.99
477.096	-140.97
477.306	-143.02
477.515	330.06
477.725	-122.54
477.935	-132.78
478.144	334.16
478.354	-102.06
478.563	-161.45
478.773	-210.6
478.982	319.82
479.192	301.39
479.401	-126.63
479.611	-267.94
479.82	-120.49
480.03	72.02
480.239	-222.89
480.449	-339.62
480.658	446.8
480.868	-73.39
481.077	-100.01
481.287	-222.89
481.496	201.04
481.705	436.56
481.915	45.4
482.124	14.68
482.333	72.02
482.543	461.13
482.752	-140.97
482.961	-243.37
483.171	147.8
483.38	18.77
483.589	-171.69
483.799	-300.71
484.008	-34.47
484.217	276.82
484.426	-198.31
484.636	-298.66
484.845	88.4
485.054	-210.6
485.263	76.12
485.472	-231.08
485.682	446.8
485.891	51.54
486.1	-331.43
486.309	-235.18
486.518	133.46
486.727	383.31
486.936	-280.23
487.146	-97.96
487.355	416.08
487.564	-194.22
487.773	-216.74
487.982	-214.7
488.191	-87.72
488.4	76.12
488.609	-149.16
488.818	-120.49
489.027	610.64
489.236	328.02
489.445	-247.46
489.654	-255.65
489.863	266.58
490.072	76.12
490.281	186.71
490.49	-124.58
490.698	405.84
490.907	467.28
491.116	-46.76
491.325	-390.82
491.534	479.57
491.743	110.93
491.952	-93.87
492.16	-116.39
492.369	307.54
492.578	297.3
492.787	-165.54
492.996	-276.13
493.204	-61.1
493.413	577.87
493.622	-349.86
493.831	-315.05
494.039	366.93
494.248	-202.41
494.457	-226.98
494.665	-372.39
494.874	190.8
495.083	473.42
495.291	-120.49
495.5	-214.7
495.709	262.48
495.917	115.03
496.126	-186.02
496.335	-255.65
496.543	-11.95
496.752	78.16
496.96	88.4
497.169	-337.57
497.377	121.17
497.586	375.12
497.794	-106.15
498.003	-364.2
498.211	4.44
498.42	452.94
498.628	-188.07
498.837	-263.85
499.045	188.75
499.254	186.71
499.462	-222.89
499.671	-210.6
499.879	498
500.087	278.87
500.296	-243.37
500.504	-192.17
500.713	119.12
500.921	592.2
501.129	-313
501.338	-106.15
501.546	112.98
501.754	166.23
501.962	-177.83
502.171	-243.37
502.379	192.85
502.587	452.94
502.795	-173.74
503.004	-163.5
503.212	119.12
503.42	383.31
503.628	-188.07
503.837	-112.3
504.045	258.39
504.253	479.57
504.461	-259.75
504.669	-421.54
504.877	252.24
505.085	471.37
505.294	-384.68
505.502	-3.75
505.71	135.51
505.918	244.05
506.126	-259.75
506.334	-255.65
506.542	94.55
506.75	162.13
506.958	-44.71
507.166	-124.58
507.374	24.92
507.582	575.82
507.79	-36.52
507.998	-222.89
508.206	186.71
508.414	186.71
508.622	-235.18
508.83	-61.1
509.037	581.96
509.245	41.3
509.453	-257.7
509.661	-323.24
509.869	272.72
510.077	84.31
510.285	-30.38
510.492	-462.5
510.7	682.31
510.908	33.11
511.116	-206.5
511.324	-175.78
511.531	84.31
511.739	147.8
511.947	12.63
512.155	153.94
512.362	139.6
512.57	-202.41
512.778	-249.51
512.985	-341.67
513.193	334.16
513.401	430.41
513.608	-177.83
513.816	-159.4
514.024	211.28
514.231	346.45
514.439	-214.7
514.646	-245.41
514.854	289.1
515.061	323.92
515.269	-222.89
515.477	-87.72
515.684	-106.15
515.892	311.63
516.099	-313
516.307	-300.71
516.514	276.82
516.722	502.09
516.929	-91.82
517.136	-284.33
517.344	467.28
517.551	239.95
517.759	-229.03
517.966	-63.15
518.173	92.5
518.381	127.32
518.588	-112.3
518.796	-216.74
519.003	266.58
519.21	53.59
519.418	-243.37
519.625	151.89
519.832	104.79
520.039	158.03
520.247	-294.57
520.454	-181.93
520.661	342.35
520.868	215.38
521.076	-124.58
521.283	-132.78
521.49	782.67
521.697	223.57
521.904	-102.06
522.112	-136.87
522.319	293.2
522.526	268.63
522.733	-194.22
522.94	-181.93
523.147	227.67
523.354	315.73
523.561	-308.9
523.768	-81.58
523.975	493.9
524.183	205.14
524.39	-57
524.597	-304.81
524.804	123.22
525.011	-44.71
525.218	-233.13
525.425	-138.92
525.632	508.24
525.838	-18.09
526.045	-165.54
526.252	-181.93
526.459	1108.29
526.666	932.17
526.873	-218.79
527.08	-153.26
527.287	567.63
527.494	313.68
527.701	-282.28
527.907	-235.18
528.114	256.34
528.321	139.6
528.528	-100.01
528.735	-89.77
528.941	18.77
529.148	106.84
529.355	-38.57
529.562	-87.72
529.768	651.6
529.975	80.21
530.182	-192.17
530.388	-214.7
530.595	440.65
530.802	-44.71
531.008	-1.71
531.215	-89.77
531.422	575.82
531.628	862.54
531.835	-16.04
532.042	-42.67
532.248	22.87
532.455	166.23
532.661	-42.67
532.868	-97.96
533.074	162.13
533.281	387.41
533.487	-28.33
533.694	-171.69
533.9	-30.38
534.107	350.54
534.313	-202.41
534.52	-231.08
534.726	371.02
534.933	643.4
535.139	-235.18
535.345	-196.26
535.552	354.64
535.758	225.62
535.965	2.39
536.171	-71.34
536.377	414.03
536.584	471.37
536.79	-104.11
536.996	-36.52
537.203	246.1
537.409	307.54
537.615	-59.05
537.821	53.59
538.028	467.28
538.234	391.5
538.44	-38.57
538.646	80.21
538.853	270.67
539.059	254.29
539.265	344.4
539.471	-267.94
539.677	461.13
539.883	203.09
540.09	-145.06
540.296	407.89
540.502	293.2
540.708	-67.24
540.914	74.07
541.12	-93.87
541.326	395.6
541.532	213.33
541.738	29.01
541.944	-30.38
542.15	428.37
542.356	196.95
542.562	-165.54
542.768	20.82
542.974	811.34
543.18	737.61
543.386	-91.82
543.592	-286.37
543.798	622.92
544.004	385.36
544.21	-71.34
544.415	-9.9
544.621	297.3
544.827	489.81
545.033	-198.31
545.239	170.32
545.445	-87.72
545.651	403.79
545.856	-28.33
546.062	-85.67
546.268	63.83
546.474	184.66
546.679	-38.57
546.885	8.53
547.091	94.55
547.297	680.27
547.502	63.83
547.708	-171.69
547.914	59.73
548.119	541.01
548.325	-194.22
548.531	-79.53
548.736	612.68
548.942	129.36
549.147	-134.82
549.353	258.39
549.559	520.53
549.764	401.74
549.97	-13.99
550.175	-38.57
550.381	493.9
550.586	182.61
550.792	-24.23
550.997	-59.05
551.203	387.41
551.408	391.5
551.614	-22.19
551.819	-61.1
552.025	698.7
552.23	747.85
552.435	-157.35
552.641	176.47
552.846	51.54
553.052	526.67
553.257	112.98
553.462	-26.28
553.668	201.04
553.873	506.19
554.078	-61.1
554.283	-42.67
554.489	375.12
554.694	313.68
554.899	-13.99
555.105	182.61
555.31	420.17
555.515	553.29
555.72	135.51
555.925	-42.67
556.131	446.8
556.336	135.51
556.541	4.44
556.746	-138.92
556.951	678.22
557.156	753.99
557.361	168.27
557.567	149.84
557.772	846.15
557.977	524.62
558.182	-42.67
558.387	6.49
558.592	143.7
558.797	569.68
559.002	141.65
559.207	244.05
559.412	301.39
559.617	747.85
559.822	35.16
560.027	-59.05
560.232	473.42
560.437	463.18
560.642	-93.87
560.847	-59.05
561.051	403.79
561.256	430.41
561.461	145.75
561.666	-120.49
561.871	342.35
562.076	547.15
562.281	92.5
562.485	-28.33
562.69	516.43
562.895	604.49
563.1	158.03
563.305	22.87
563.509	608.59
563.714	954.69
563.919	-18.09
564.123	129.36
564.328	274.77
564.533	739.66
564.737	172.37
564.942	59.73
565.147	684.36
565.351	897.35
565.556	162.13
565.761	153.94
565.965	444.75
566.17	239.95
566.374	162.13
566.579	49.49
566.784	524.62
566.988	264.53
567.193	-36.52
567.397	16.73
567.602	131.41
567.806	291.15
568.011	100.69
568.215	153.94
568.42	352.59
568.624	407.89
568.828	59.73
569.033	231.76
569.237	526.67
569.442	518.48
569.646	69.97
569.85	72.02
570.055	311.63
570.259	379.22
570.463	364.88
570.668	84.31
570.872	424.27
571.076	438.61
571.281	303.44
571.485	242
571.689	487.76
571.893	618.83
572.098	313.68
572.302	186.71
572.506	557.39
572.71	432.46
572.914	170.32
573.119	88.4
573.323	780.62
573.527	698.7
573.731	192.85
573.935	104.79
574.139	510.29
574.343	254.29
574.547	158.03
574.751	174.42
574.955	743.75
575.159	633.16
575.364	115.03
575.568	84.31
575.772	444.75
575.976	801.1
576.18	110.93
576.383	0.34
576.587	694.6
576.791	637.26
576.995	14.68
577.199	31.06
577.403	829.77
577.607	706.89
577.811	86.36
578.015	317.78
578.219	579.92
578.422	602.44
578.626	242
578.83	360.78
579.034	635.21
579.238	526.67
579.442	121.17
579.645	551.24
579.849	438.61
580.053	545.1
580.257	297.3
580.46	332.11
580.664	751.95
580.868	684.36
581.071	438.61
581.275	268.63
581.479	235.86
581.682	653.64
581.886	221.52
582.09	285.01
582.293	710.99
582.497	784.71
582.7	465.23
582.904	201.04
583.107	498
583.311	479.57
583.515	334.16
583.718	188.75
583.922	682.31
584.125	887.11
584.329	270.67
584.532	368.98
584.735	862.54
584.939	645.45
585.142	184.66
585.346	207.19
585.549	719.18
585.753	436.56
585.956	346.45
586.159	424.27
586.363	1005.89
586.566	713.03
586.769	227.67
586.973	233.81
587.176	688.46
587.379	831.82
587.582	678.22
587.786	526.67
587.989	561.48
588.192	1210.69
588.395	473.42
588.599	661.84
588.802	678.22
589.005	842.06
589.208	350.54
589.411	350.54
589.615	858.44
589.818	995.65
590.021	596.3
590.224	430.41
590.427	715.08
590.63	817.48
590.833	188.75
591.036	278.87
591.239	518.48
591.442	536.91
591.645	629.07
591.848	383.31
592.051	670.03
592.254	878.92
592.457	440.65
592.66	454.99
592.863	561.48
593.066	768.33
593.269	368.98
593.472	465.23
593.675	481.61
593.878	821.58
594.081	504.14
594.284	274.77
594.486	753.99
594.689	739.66
594.892	573.77
595.095	471.37
595.298	776.52
595.5	608.59
595.703	469.33
595.906	567.63
596.109	1030.47
596.311	987.46
596.514	219.47
596.717	469.33
596.92	977.22
597.122	797
597.325	198.99
597.528	387.41
597.73	1024.33
597.933	719.18
598.136	375.12
598.338	227.67
598.541	862.54
598.743	1003.85
598.946	411.98
599.148	526.67
599.351	932.17
599.554	964.93
599.756	698.7
599.959	581.96
600.161	1071.43
600.363	1386.82
600.566	764.23
600.768	452.94
600.971	1169.73
601.173	952.65
601.376	426.32
601.578	559.44
601.78	850.25
601.983	1304.9
602.185	448.85
602.388	686.41
602.59	823.62
602.792	733.51
602.995	684.36
603.197	528.72
603.399	1073.48
603.601	905.54
603.804	500.05
604.006	622.92
604.208	780.62
604.41	395.6
604.613	708.94
604.815	485.71
605.017	1419.58
605.219	706.89
605.421	889.16
605.623	512.33
605.826	1222.98
606.028	1157.44
606.23	516.43
606.432	532.81
606.634	1206.59
606.836	1198.4
607.038	510.29
607.24	694.6
607.442	930.12
607.644	803.15
607.846	753.99
608.048	514.38
608.25	1208.64
608.452	723.27
608.654	624.97
608.856	405.84
609.058	850.25
609.26	944.45
609.462	721.23
609.664	719.18
609.866	1286.47
610.067	1081.67
610.269	782.67
610.471	579.92
610.673	840.01
610.875	1173.83
611.077	530.77
611.278	792.91
611.48	942.41
611.682	1298.75
611.884	784.71
612.085	745.8
612.287	725.32
612.489	1061.19
612.69	461.13
612.892	762.19
613.094	1243.46
613.295	1130.82
613.497	629.07
613.699	733.51
613.9	1270.08
614.102	1214.79
614.304	733.51
614.505	643.4
614.707	919.88
614.908	993.61
615.11	600.4
615.311	817.48
615.513	1194.31
615.714	1184.07
615.916	610.64
616.117	770.38
616.319	928.07
616.52	1222.98
616.722	643.4
616.923	715.08
617.124	1317.19
617.326	1204.55
617.527	848.2
617.729	1087.81
617.93	1206.59
618.131	1251.65
618.333	753.99
618.534	821.58
618.735	956.74
618.937	1456.45
619.138	639.31
619.339	706.89
619.54	1190.21
619.742	1050.95
619.943	932.17
620.144	864.58
620.345	1237.31
620.546	1356.1
620.748	710.99
620.949	780.62
621.15	1112.39
621.351	1126.72
621.552	864.58
621.753	665.93
621.954	702.79
622.155	1583.42
622.356	741.71
622.558	885.06
622.759	1182.02
622.96	1476.93
623.161	850.25
623.362	788.81
623.563	1014.09
623.764	1077.57
623.965	801.1
624.166	1026.37
624.366	1098.05
624.567	1145.16
624.768	465.23
624.969	731.47
625.17	1044.81
625.371	1167.68
625.572	977.22
625.773	753.99
625.973	1376.58
626.174	1386.82
626.375	960.84
626.576	960.84
626.777	1341.76
626.977	1702.2
627.178	809.29
627.379	1020.23
627.58	1161.54
627.78	1220.93
627.981	950.6
628.182	1009.99
628.382	1349.95
628.583	809.29
628.784	780.62
628.984	954.69
629.185	1280.32
629.386	1405.25
629.586	1057.09
629.787	780.62
629.987	1376.58
630.188	1331.52
630.388	964.93
630.589	1083.72
630.79	1855.8
630.99	1237.31
631.191	962.89
631.391	1046.85
631.591	1362.24
631.792	1544.51
631.992	1132.87
632.193	1026.37
632.393	1620.28
632.594	1335.62
632.794	950.6
632.994	1165.64
633.195	1276.23
633.395	1251.65
633.595	997.7
633.796	1239.36
633.996	1110.34
634.196	1583.42
634.397	903.5
634.597	1071.43
634.797	1163.59
634.997	1694.01
635.198	1261.89
635.398	850.25
635.598	1358.14
635.798	1732.92
635.998	1501.5
636.199	923.98
636.399	1214.79
636.599	1077.57
636.799	1030.47
636.999	1255.75
637.199	1304.9
637.399	1589.57
637.599	985.41
637.799	1198.4
637.999	1210.69
638.199	1732.92
638.399	954.69
638.599	1075.52
638.799	1413.44
638.999	1868.09
639.199	1290.56
639.399	1220.93
639.599	1800.51
639.799	1104.2
639.999	1100.1
640.199	1026.37
640.399	1442.11
640.599	1653.05
640.799	1175.88
640.998	1448.26
641.198	1704.25
641.398	1550.65
641.598	1280.32
641.798	1204.55
641.997	2304.31
642.197	1388.86
642.397	1395.01
642.597	1149.25
642.796	1653.05
642.996	1698.11
643.196	1308.99
643.395	969.03
643.595	1511.74
643.795	1073.48
643.994	1190.21
644.194	1261.89
644.394	1757.5
644.593	1415.49
644.793	1024.33
644.992	1313.09
645.192	1497.41
645.392	1114.44
645.591	1308.99
645.791	1208.64
645.99	1691.96
646.19	1382.72
646.389	1333.57
646.589	1253.7
646.788	1593.66
646.987	1646.91
647.187	1458.5
647.386	1493.31
647.586	1558.85
647.785	1669.44
647.984	1288.51
648.184	1440.06
648.383	1354.05
648.582	1255.75
648.782	1378.62
648.981	1478.97
649.18	1374.53
649.38	1636.67
649.579	1290.56
649.778	1204.55
649.977	1700.16
650.177	1616.19
650.376	1096
650.575	1308.99
650.774	1990.97
650.973	1472.83
651.173	1165.64
651.372	1409.34
651.571	1653.05
651.77	1845.56
651.969	1456.45
652.168	1485.12
652.367	1368.38
652.566	1661.24
652.765	1382.72
652.964	1730.87
653.163	2150.71
653.362	1632.57
653.561	1376.58
653.76	1464.64
653.959	1532.22
654.158	1872.18
654.357	1540.41
654.556	1298.75
654.755	1818.94
654.954	1890.62
655.153	1501.5
655.352	1544.51
655.551	1904.95
655.749	1433.92
655.948	1558.85
656.147	1585.47
656.346	1804.6
656.545	1683.77
656.743	1624.38
656.942	1474.88
657.141	1845.56
657.34	1528.13
657.538	1564.99
657.737	1550.65
657.936	1560.89
658.135	1847.61
658.333	1431.87
658.532	1651
658.731	2144.56
658.929	1964.34
659.128	1880.38
659.326	1456.45
659.525	2087.22
659.724	1747.26
659.922	1290.56
660.121	1448.26
660.319	1794.36
660.518	1575.23
660.716	1450.3
660.915	1603.9
661.113	2083.13
661.312	1550.65
661.51	1616.19
661.709	1489.21
661.907	1945.91
662.105	2208.05
662.304	1544.51
662.502	1671.48
662.701	2081.08
662.899	1849.66
663.097	1980.73
663.296	1421.63
663.494	2158.9
663.692	2224.44
663.891	1382.72
664.089	1550.65
664.287	1993.01
664.485	2283.83
664.684	1462.59
664.882	1749.31
665.08	1818.94
665.278	1968.44
665.476	1562.94
665.675	1911.1
665.873	2337.07
666.071	2265.39
666.269	1632.57
666.467	1984.82
666.665	1896.76
666.863	1812.79
667.061	1792.31
667.259	1743.16
667.457	1980.73
667.655	2115.89
667.853	1497.41
668.051	1814.84
668.249	1673.53
668.447	2154.8
668.645	1579.33
668.843	1964.34
669.041	2148.66
669.239	1788.22
669.437	1837.37
669.635	1804.6
669.833	1870.14
670.031	2255.15
670.229	1800.51
670.426	1855.8
670.624	1974.58
670.822	1722.68
671.02	1741.11
671.218	1894.71
671.415	1747.26
671.613	2101.56
671.811	1984.82
672.009	1886.52
672.206	2150.71
672.404	1945.91
672.602	2105.65
672.799	1847.61
672.997	2185.52
673.195	2380.08
673.392	1988.92
673.59	1763.64
673.788	2283.83
673.985	1452.35
674.183	1880.38
674.38	1888.57
674.578	2206
674.775	1902.9
674.973	1751.35
675.17	1751.35
675.368	2312.5
675.565	2304.31
675.763	1741.11
675.96	1743.16
676.158	2453.81
676.355	2107.7
676.553	1884.47
676.75	1792.31
676.947	2150.71
677.145	2029.88
677.342	2054.45
677.539	1935.67
677.737	2140.47
677.934	2601.26
678.131	2058.55
678.329	1802.55
678.526	2578.73
678.723	2208.05
678.92	1952.06
679.118	1943.86
679.315	1900.86
679.512	2314.55
679.709	1962.3
679.906	2003.25
680.104	2359.6
680.301	2300.21
680.498	1782.07
680.695	1907
680.892	1950.01
681.089	2019.64
681.286	2068.79
681.483	1765.69
681.68	2283.83
681.877	2459.95
682.075	2025.78
682.272	2208.05
682.469	2304.31
682.665	2079.03
682.862	1800.51
683.059	1694.01
683.256	2277.68
683.453	2203.96
683.65	2001.21
683.847	1962.3
684.044	2142.52
684.241	1931.58
684.438	2193.72
684.635	1804.6
684.831	2623.79
685.028	2711.85
685.225	2001.21
685.422	2206
685.619	2091.32
685.815	2298.16
686.012	2115.89
686.209	1995.06
686.405	1866.04
686.602	2505.01
686.799	1796.41
686.996	1954.1
687.192	2011.45
687.389	2646.32
687.586	1997.11
687.782	2156.85
687.979	2566.45
688.175	2423.09
688.372	2081.08
688.568	2040.12
688.765	2087.22
688.962	2558.25
689.158	2113.85
689.355	1945.91
689.551	2521.39
689.748	2138.42
689.944	2267.44
690.14	1849.66
690.337	2375.99
690.533	2126.13
690.73	2355.51
690.926	2171.19
691.123	2439.47
691.319	2308.4
691.515	1894.71
691.712	2165.04
691.908	2470.19
692.104	2281.78
692.301	2154.8
692.497	2089.27
692.693	2537.77
692.889	2599.21
693.086	2302.26
693.282	1929.53
693.478	2386.22
693.674	2744.62
693.87	2140.47
694.067	1921.34
694.263	2476.34
694.459	2339.12
694.655	2441.52
694.851	2296.11
695.047	2509.1
695.243	2500.91
695.439	2369.84
695.635	2152.76
695.831	2306.35
696.027	2402.61
696.224	2140.47
696.42	2427.18
696.615	2695.47
696.811	2588.97
697.007	2087.22
697.203	2310.45
697.399	2550.06
697.595	2670.89
697.791	2126.13
697.987	2314.55
698.183	2175.28
698.379	2218.29
698.575	2218.29
698.77	2197.81
698.966	2650.41
699.162	2773.29
699.358	2238.77
699.554	2177.33
699.749	2513.2
699.945	2627.89
700.141	2363.7
700.337	2421.04
700.532	2365.75
700.728	2160.95
700.924	2226.48
701.119	2101.56
701.315	2591.02
701.511	2394.42
701.706	2416.94
701.902	2038.07
702.097	2494.77
702.293	2648.36
702.489	2320.69
702.684	2185.52
702.88	2517.29
703.075	2347.31
703.271	2273.59
703.466	2083.13
703.662	2527.53
703.857	2636.08
704.053	2271.54
704.248	2257.2
704.443	2611.5
704.639	2525.49
704.834	2283.83
705.03	2289.97
705.225	2758.96
705.42	2763.05
705.616	2416.94
705.811	2244.92
706.006	2576.69
706.202	2468.14
706.397	2427.18
706.592	2335.03
706.787	2525.49
706.983	2566.45
707.178	2660.65
707.373	2396.46
707.568	2791.72
707.763	2660.65
707.959	2263.35
708.154	2361.65
708.349	2640.17
708.544	2652.46
708.739	2556.21
708.934	2316.59
709.129	2720.04
709.324	2775.34
709.519	2271.54
709.714	2328.88
709.909	2959.66
710.104	2713.9
710.299	2337.07
710.494	2443.57
710.689	2611.5
710.884	2693.42
711.079	2421.04
711.274	2634.03
711.469	2674.99
711.664	2623.79
711.859	2435.38
712.054	2736.43
712.249	2732.33
712.443	2767.15
712.638	2201.91
712.833	2353.46
713.028	2525.49
713.223	2591.02
713.417	2804.01
713.612	2408.75
713.807	2935.08
714.002	3205.41
714.196	2640.17
714.391	2308.4
714.586	2830.63
714.78	2724.14
714.975	2488.62
715.17	2496.82
715.364	2765.1
715.559	2824.49
715.754	2070.84
715.948	2267.44
716.143	3094.82
716.337	2814.25
716.532	2791.72
716.726	2369.84
716.921	2797.87
717.115	3152.17
717.31	2328.88
717.504	2912.55
717.699	2545.97
717.893	2869.55
718.088	2351.41
718.282	2384.18
718.476	2744.62
718.671	2943.27
718.865	2406.7
719.059	2517.29
719.254	2740.52
719.448	3098.92
719.642	3770.65
719.837	2273.59
720.031	3008.81
720.225	2877.74
720.419	2670.89
720.614	2455.86
720.808	2935.08
721.002	2558.25
721.196	2472.24
721.39	2494.77
721.585	2885.93
721.779	2851.11
721.973	2492.72
722.167	2322.74
722.361	2814.25
722.555	2961.7
722.749	2521.39
722.943	2537.77
723.137	2435.38
723.331	2789.67
723.525	2552.11
723.719	2601.26
723.913	2971.94
724.107	3057.96
724.301	2505.01
724.495	2658.6
724.689	3352.87
724.883	3074.34
725.077	2541.87
725.271	2474.29
725.465	3119.4
725.659	2797.87
725.853	2709.8
726.046	2380.08
726.24	2595.12
726.434	2953.51
726.628	2642.22
726.822	2507.06
727.015	3266.85
727.209	3041.57
727.403	2545.97
727.596	2296.11
727.79	2978.09
727.984	3049.77
728.177	2529.58
728.371	2767.15
728.565	3076.39
728.758	2652.46
728.952	2521.39
729.146	2521.39
729.339	3205.41
729.533	2838.83
729.726	2634.03
729.92	2437.42
730.113	3295.52
730.307	3002.66
730.5	2623.79
730.694	2521.39
730.887	2709.8
731.081	3125.54
731.274	2554.16
731.468	2611.5
731.661	2730.28
731.854	2693.42
732.048	2595.12
732.241	2478.38
732.435	2711.85
732.628	2912.55
732.821	2660.65
733.014	2552.11
733.208	2681.13
733.401	3143.97
733.594	2591.02
733.788	2578.73
733.981	3346.72
734.174	2947.37
734.367	2670.89
734.56	2801.96
734.754	3246.37
734.947	2988.33
735.14	2711.85
735.333	2754.86
735.526	3041.57
735.719	2740.52
735.912	2681.13
736.105	2623.79
736.298	3000.62
736.491	2808.11
736.684	2666.8
736.877	2740.52
737.07	2984.23
737.263	3424.55
737.456	2738.48
737.649	2537.77
737.842	2863.4
738.035	3043.62
738.228	2779.43
738.421	2779.43
738.614	3205.41
738.807	3209.51
739	2500.91
739.192	2638.13
739.385	3033.38
739.578	3057.96
739.771	2984.23
739.964	2683.18
740.156	3176.74
740.349	3019.05
740.542	2935.08
740.735	2603.31
740.927	2777.39
741.12	2824.49
741.313	2636.08
741.505	3000.62
741.698	3197.22
741.891	3141.93
742.083	3012.9
742.276	2857.26
742.468	3021.1
742.661	3045.67
742.854	2781.48
743.046	2795.82
743.239	3414.31
743.431	2928.94
743.624	2799.91
743.816	2584.88
744.009	3039.53
744.201	3154.21
744.393	3004.71
744.586	2767.15
744.778	3412.26
744.971	3062.05
745.163	2928.94
745.355	3037.48
745.548	3008.81
745.74	2840.87
745.932	2971.94
746.125	2894.12
746.317	3643.68
746.509	3019.05
746.702	2783.53
746.894	2939.18
747.086	3033.38
747.278	3356.96
747.471	2982.18
747.663	2978.09
747.855	3060.01
748.047	3459.36
748.239	2775.34
748.431	2865.45
748.623	3451.17
748.815	3451.17
749.008	2806.06
749.2	2779.43
749.392	3344.67
749.584	3242.28
749.776	2976.04
749.968	3057.96
750.16	3643.68
750.352	3076.39
750.544	3045.67
750.736	2771.24
750.928	3354.91
751.12	3260.71
751.311	2859.31
751.503	2969.9
751.695	3238.18
751.887	3174.69
752.079	2847.02
752.271	2914.6
752.463	3987.74
752.654	3485.98
752.846	3066.15
753.038	2863.4
753.23	3021.1
753.421	3389.73
753.613	2924.84
753.805	3037.48
753.997	3410.21
754.188	3320.1
754.38	2918.7
754.572	3023.14
754.763	3115.3
754.955	3387.68
755.146	3023.14
755.338	3000.62
755.53	3395.87
755.721	3143.97
755.913	2881.83
756.104	2887.98
756.296	3057.96
756.487	3270.95
756.679	2941.22
756.87	2955.56
757.062	3025.19
757.253	3211.56
757.445	2912.55
757.636	3062.05
757.827	3229.99
758.019	3746.08
758.21	2922.79
758.401	2816.3
758.593	3709.21
758.784	3465.5
758.975	2777.39
759.167	2783.53
759.358	3205.41
759.549	3383.59
759.74	3070.25
759.932	2885.93
760.123	3531.04
760.314	3010.86
760.505	3137.83
760.696	2955.56
760.888	3705.12
761.079	3103.01
761.27	2992.42
761.461	2750.76
761.652	3580.19
761.843	3217.7
762.034	2916.65
762.225	3260.71
762.416	3254.56
762.607	3234.08
762.798	3023.14
762.989	2894.12
763.18	4139.29
763.371	3072.29
763.562	2955.56
763.753	2980.14
763.944	3361.06
764.135	3451.17
764.326	3244.32
764.517	3043.62
764.708	3227.94
764.899	3311.91
765.089	2740.52
765.28	2785.58
765.471	3264.8
765.662	3379.49
765.853	3131.69
766.043	2648.36
766.234	3518.75
766.425	3361.06
766.615	2959.66
766.806	2808.11
766.997	3582.24
767.187	3256.61
767.378	2988.33
767.569	2871.59
767.759	3373.35
767.95	3356.96
768.141	3117.35
768.331	2951.46
768.522	3096.87
768.712	3662.11
768.903	2978.09
769.093	2912.55
769.284	3578.14
769.474	3258.66
769.665	2799.91
769.855	2804.01
770.046	3459.36
770.236	3266.85
770.426	3189.03
770.617	3019.05
770.807	3397.92
770.998	3168.55
771.188	3082.53
771.378	3014.95
771.569	3402.02
771.759	3313.95
771.949	2836.78
772.139	2722.09
772.33	3297.57
772.52	3471.65
772.71	3006.76
772.9	2808.11
773.09	3592.48
773.281	3545.38
773.471	2894.12
773.661	2959.66
773.851	3332.39
774.041	3180.84
774.231	3021.1
774.421	3033.38
774.611	3660.06
774.802	3223.84
774.992	2965.8
775.182	2943.27
775.372	3178.79
775.562	3354.91
775.752	2963.75
775.942	3004.71
776.131	3526.94
776.321	3395.87
776.511	2961.7
776.701	2806.06
776.891	3434.78
777.081	2963.75
777.271	3066.15
777.461	2875.69
777.651	3430.69
777.84	3569.95
778.03	3045.67
778.22	2928.94
778.41	3533.09
778.599	3049.77
778.789	3100.97
778.979	2898.22
779.169	3291.43
779.358	3227.94
779.548	3262.76
779.738	2910.5
779.927	3266.85
780.117	3029.29
780.307	3117.35
780.496	2621.74
780.686	3318.05
780.875	3746.08
781.065	2951.46
781.254	2955.56
781.444	3344.67
781.633	3264.8
781.823	2816.3
782.012	2973.99
782.202	3199.27
782.391	3279.14
782.581	2861.35
782.77	3275.04
782.96	3473.7
783.149	3275.04
783.338	2920.74
783.528	2730.28
783.717	3508.51
783.906	3551.52
784.096	3066.15
784.285	2859.31
784.474	3293.48
784.663	3057.96
784.853	2914.6
785.042	3057.96
785.231	3053.86
785.42	3512.61
785.61	2865.45
785.799	2838.83
785.988	3152.17
786.177	3191.08
786.366	3090.73
786.555	3213.6
786.744	3514.66
786.933	3148.07
787.122	2951.46
787.312	2820.39
787.501	3107.11
787.69	3344.67
787.879	2937.13
788.068	2795.82
788.257	3029.29
788.445	3168.55
788.634	3002.66
788.823	2996.52
789.012	3739.93
789.201	3631.39
789.39	3100.97
789.579	2775.34
789.768	3289.38
789.957	3215.65
790.145	2969.9
790.334	2871.59
790.523	3168.55
790.712	3207.46
790.9	3029.29
791.089	2767.15
791.278	3422.5
791.467	3322.15
791.655	3275.04
791.844	3356.96
792.033	3207.46
792.221	3236.13
792.41	3064.1
792.599	2847.02
792.787	3512.61
792.976	3340.58
793.164	2828.59
793.353	3035.43
793.541	3281.19
793.73	3387.68
793.918	3133.73
794.107	2988.33
794.295	3307.81
794.484	3266.85
794.672	2906.41
794.861	3023.14
795.049	3506.46
795.238	3606.81
795.426	2984.23
795.614	3035.43
795.803	3262.76
795.991	3596.57
796.179	2844.97
796.368	2928.94
796.556	3408.16
796.744	3184.93
796.932	2890.03
797.121	2834.73
797.309	3217.7
797.497	3467.55
797.685	3037.48
797.874	3107.11
798.062	3092.77
798.25	3698.97
798.438	3080.49
798.626	2928.94
798.814	3457.31
799.002	3707.16
799.19	3068.2
799.378	3154.21
799.566	3682.59
799.755	3492.13
799.943	3254.56
800.131	2973.99
800.318	3404.07
800.506	3483.94
800.694	2939.18
800.882	3234.08
801.07	3684.64
801.258	3242.28
801.446	3072.29
801.634	3029.29
801.822	3365.15
802.01	3338.53
802.197	3051.81
802.385	3111.21
802.573	3494.18
802.761	3141.93
802.949	3062.05
803.136	2836.78
803.324	3696.92
803.512	3305.76
803.699	3291.43
803.887	2873.64
804.075	3676.45
804.262	3293.48
804.45	3105.06
804.638	3248.42
804.825	3256.61
805.013	3301.67
805.201	3250.47
805.388	3105.06
805.576	3397.92
805.763	3871
805.951	3111.21
806.138	3279.14
806.326	3954.97
806.513	3664.16
806.701	3283.24
806.888	3012.9
807.075	3612.96
807.263	4061.46
807.45	3184.93
807.638	3412.26
807.825	3856.67
808.012	3723.55
808.2	3238.18
808.387	3582.24
808.574	3676.45
808.761	3916.06
808.949	3195.17
809.136	3365.15
809.323	3240.23
809.51	3426.59
809.698	3668.25
809.885	3342.63
810.072	3627.29
810.259	3787.04
810.446	3418.4
810.633	3221.8
810.82	3864.86
811.008	3950.87
811.195	3485.98
811.382	3442.98
811.569	3428.64
811.756	3305.76
811.943	3359.01
812.13	3430.69
812.317	3508.51
812.504	3420.45
812.691	3428.64
812.878	3426.59
813.064	3997.98
813.251	3629.34
813.438	3217.7
813.625	3469.6
813.812	3617.05
813.999	3578.14
814.186	3344.67
814.372	3602.72
814.559	3739.93
814.746	3967.26
814.933	3459.36
815.12	3528.99
815.306	3453.22
815.493	3410.21
815.68	3328.29
815.866	3352.87
816.053	3954.97
816.24	4139.29
816.426	3481.89
816.613	3264.8
816.799	3922.2
816.986	4002.07
817.173	3463.46
817.359	3451.17
817.546	3627.29
817.732	3408.16
817.919	3100.97
818.105	3522.85
818.292	3682.59
818.478	3840.28
818.665	3510.56
818.851	3488.03
819.037	4219.16
819.224	3631.39
819.41	3242.28
819.597	3311.91
819.783	4063.51
819.969	3821.85
820.156	3447.07
820.342	3270.95
820.528	4565.26
820.714	3498.27
820.901	3660.06
821.087	3471.65
821.273	4137.24
821.459	3647.77
821.646	3348.77
821.832	3252.52
822.018	3686.69
822.204	3748.12
822.39	3531.04
822.576	3326.24
822.762	3864.86
822.948	3746.08
823.134	3590.43
823.32	3389.73
823.507	3557.66
823.693	3744.03
823.879	3924.25
824.065	3307.81
824.25	3696.92
824.436	3459.36
824.622	3426.59
824.808	3252.52
824.994	3635.49
825.18	3543.33
825.366	3451.17
825.552	3440.93
825.738	3692.83
825.923	3934.49
826.109	3565.85
826.295	3445.02
826.481	3502.37
826.667	3623.2
826.852	3655.97
827.038	3330.34
827.224	3979.54
827.409	4120.85
827.595	3414.31
827.781	3696.92
827.966	3922.2
828.152	3832.09
828.338	3498.27
828.523	3344.67
828.709	3514.66
828.894	3979.54
829.08	3352.87
829.266	3352.87
829.451	3574.05
829.637	3754.27
829.822	3483.94
830.008	3397.92
830.193	3877.15
830.378	3875.1
830.564	3354.91
830.749	3133.73
830.935	3885.34
831.12	3748.12
831.305	3336.48
831.491	3361.06
831.676	3424.55
831.861	3770.65
832.047	3438.88
832.232	3229.99
832.417	3897.63
832.602	3602.72
832.788	3209.51
832.973	3303.71
833.158	3717.4
833.343	3678.49
833.528	3455.26
833.714	3533.09
833.899	3903.77
834.084	4184.34
834.269	3670.3
834.454	3485.98
834.639	3854.62
834.824	3635.49
835.009	3567.9
835.194	3701.02
835.379	3866.91
835.564	4127
835.749	3463.46
835.934	3334.43
836.119	3774.75
836.304	3645.73
836.489	3383.59
836.674	3772.7
836.859	3504.42
837.044	4065.56
837.228	3393.83
837.413	3223.84
837.598	3793.18
837.783	3952.92
837.968	3492.13
838.152	3221.8
838.337	3344.67
838.522	3983.64
838.707	3905.82
838.891	3590.43
839.076	3709.21
839.261	3991.83
839.445	3402.02
839.63	3516.7
839.815	4129.05
839.999	3647.77
840.184	3354.91
840.368	3260.71
840.553	3858.71
840.737	3754.27
840.922	3191.08
841.106	3365.15
841.291	3354.91
841.475	3727.64
841.66	3232.04
841.844	3234.08
842.029	4382.99
842.213	3322.15
842.397	3332.39
842.582	3240.23
842.766	3922.2
842.951	3772.7
843.135	3299.62
843.319	3381.54
843.504	3625.25
843.688	3815.71
843.872	3225.89
844.056	3295.52
844.241	3733.79
844.425	3361.06
844.609	3479.84
844.793	3135.78
844.977	3787.04
845.161	3832.09
845.346	3193.12
845.53	3330.34
845.714	3594.53
845.898	3969.3
846.082	3201.32
846.266	3238.18
846.45	3606.81
846.634	3670.3
846.818	3248.42
847.002	3471.65
847.186	3713.31
847.37	3471.65
847.554	3258.66
847.738	3528.99
847.922	3737.88
848.106	3668.25
848.29	3193.12
848.473	3338.53
848.657	3803.42
848.841	3518.75
849.025	3287.33
849.209	3090.73
849.392	3725.6
849.576	3492.13
849.76	3307.81
849.944	3381.54
850.127	3885.34
850.311	3291.43
850.495	3111.21
850.678	3117.35
850.862	3703.07
851.046	3946.78
851.229	3561.76
851.413	3084.58
851.596	3494.18
851.78	3555.62
851.964	3488.03
852.147	3307.81
852.331	4354.32
852.514	3934.49
852.698	3377.44
852.881	3160.36
853.065	3737.88
853.248	3565.85
853.431	3475.74
853.615	3299.62
853.798	4215.06
853.982	3660.06
854.165	3328.29
854.348	3338.53
854.532	3191.08
854.715	3453.22
854.898	3334.43
855.081	3238.18
855.265	3885.34
855.448	3922.2
855.631	3184.93
855.814	3121.45
855.997	3623.2
856.181	3336.48
856.364	3412.26
856.547	3010.86
856.73	3479.84
856.913	3582.24
857.096	3205.41
857.279	3211.56
857.462	3535.14
857.645	3881.24
857.828	3381.54
858.011	3436.83
858.194	3365.15
858.377	3696.92
858.56	3082.53
858.743	3215.65
858.926	3361.06
859.109	3588.38
859.292	3221.8
859.475	3025.19
859.658	3758.36
859.841	3617.05
860.023	3275.04
860.206	3232.04
860.389	3653.92
860.572	3698.97
860.755	3330.34
860.937	3123.49
861.12	3336.48
861.303	3402.02
861.486	3361.06
861.668	3008.81
861.851	3490.08
862.034	3598.62
862.216	3344.67
862.399	3037.48
862.581	3438.88
862.764	3754.27
862.947	3309.86
863.129	3017
863.312	3125.54
863.494	3672.35
863.677	3422.5
863.859	3035.43
864.042	3713.31
864.224	3705.12
864.406	3098.92
864.589	2978.09
864.771	3457.31
864.954	3182.88
865.136	3000.62
865.318	2814.25
865.501	3469.6
865.683	2986.28
865.865	3062.05
866.048	3123.49
866.23	3430.69
866.412	3375.39
866.594	2984.23
866.777	3103.01
866.959	3684.64
867.141	3229.99
867.323	3367.2
867.505	3283.24
867.687	3465.5
867.869	3404.07
868.052	2967.85
868.234	2951.46
868.416	3397.92
868.598	3469.6
868.78	3131.69
868.962	2965.8
869.144	3627.29
869.326	3623.2
869.508	3082.53
869.69	3070.25
869.872	3227.94
870.054	3721.5
870.236	2969.9
870.417	3074.34
870.599	3326.24
870.781	3899.67
870.963	3217.7
871.145	3088.68
871.327	3060.01
871.508	3746.08
871.69	2928.94
871.872	3127.59
872.054	3330.34
872.235	3545.38
872.417	3254.56
872.599	2990.38
872.78	3664.16
872.962	3473.7
873.144	3027.24
873.325	3160.36
873.507	3660.06
873.689	3531.04
873.87	3033.38
874.052	3301.67
874.233	3389.73
874.415	3692.83
874.596	3203.36
874.778	3103.01
874.959	3424.55
875.141	3707.16
875.322	3229.99
875.503	3090.73
875.685	3567.9
875.866	3039.53
876.048	2959.66
876.229	2988.33
876.41	3492.13
876.592	3451.17
876.773	3160.36
876.954	2910.5
877.136	3705.12
877.317	3293.48
877.498	3049.77
877.679	3232.04
877.86	3592.48
878.042	3520.8
878.223	3074.34
878.404	3447.07
878.585	3492.13
878.766	3848.47
878.947	3537.18
879.128	3381.54
879.309	3643.68
879.49	3627.29
879.672	3277.09
879.853	3295.52
880.034	3234.08
880.215	3627.29
880.396	3207.46
880.576	3258.66
880.757	3336.48
880.938	4026.65
881.119	3291.43
881.3	3152.17
881.481	3373.35
881.662	4507.92
881.843	3227.94
882.023	3166.5
882.204	3698.97
882.385	3627.29
882.566	3344.67
882.747	3457.31
882.927	3549.47
883.108	3891.48
883.289	3285.28
883.469	3651.87
883.65	3696.92
883.831	3557.66
884.011	3602.72
884.192	3295.52
884.373	3989.78
884.553	3680.54
884.734	3713.31
884.914	3766.56
885.095	4321.56
885.275	4049.18
885.456	3725.6
885.636	3336.48
885.817	3528.99
885.997	3905.82
886.178	3348.77
886.358	3574.05
886.538	3744.03
886.719	4661.52
886.899	3313.95
887.08	3526.94
887.26	4096.28
887.44	3467.55
887.621	3463.46
887.801	3649.82
887.981	4321.56
888.161	4024.6
888.342	3541.28
888.522	3793.18
888.702	4008.22
888.882	4075.8
889.062	3705.12
889.242	3289.38
889.423	4184.34
889.603	3787.04
889.783	3737.88
889.963	3561.76
890.143	4049.18
890.323	4016.41
890.503	3512.61
890.683	3619.1
890.863	3746.08
891.043	3852.57
891.223	3803.42
891.403	3754.27
891.583	3954.97
891.763	3852.57
891.943	3881.24
892.122	3696.92
892.302	3973.4
892.482	3938.59
892.662	3717.4
892.842	3696.92
893.022	4034.84
893.201	3653.92
893.381	3860.76
893.561	3610.91
893.741	4100.37
893.92	4010.26
894.1	3789.08
894.28	3795.23
894.459	3965.21
894.639	4075.8
894.819	3719.45
894.998	3832.09
895.178	4004.12
895.357	4184.34
895.537	3655.97
895.716	3418.4
895.896	3950.87
896.075	4223.25
896.255	3723.55
896.434	3580.19
896.614	4149.53
896.793	4184.34
896.973	3750.17
897.152	3713.31
897.331	4028.7
897.511	4262.16
897.69	3516.7
897.87	3744.03
898.049	4133.14
898.228	4014.36
898.407	3946.78
898.587	3856.67
898.766	3721.5
898.945	4188.44
899.124	3873.05
899.304	3780.89
899.483	3975.45
899.662	4344.08
899.841	3518.75
900.02	3569.95
900.199	4268.31
900.378	3983.64
900.557	3688.73
900.737	3463.46
900.916	4059.42
901.095	4253.97
901.274	3954.97
901.453	3528.99
901.632	3741.98
901.811	3631.39
901.989	3567.9
902.168	3586.33
902.347	4049.18
902.526	3952.92
902.705	3768.6
902.884	3676.45
903.063	4319.51
903.242	4221.2
903.42	3623.2
903.599	3715.36
903.778	4159.77
903.957	4290.84
904.135	3848.47
904.314	3758.36
904.493	4032.79
904.672	4020.5
904.85	3557.66
905.029	3598.62
905.207	3987.74
905.386	4749.58
905.565	3559.71
905.743	3572
905.922	3729.69
906.1	4108.57
906.279	3524.9
906.457	3483.94
906.636	3784.99
906.814	3899.67
906.993	3621.15
907.171	3483.94
907.35	4040.98
907.528	4139.29
907.707	3844.38
907.885	3592.48
908.063	4131.09
908.242	3612.96
908.42	3541.28
908.598	3264.8
908.777	3946.78
908.955	3813.66
909.133	3717.4
909.311	3332.39
909.49	3809.56
909.668	3868.95
909.846	3574.05
910.024	3412.26
910.202	3758.36
910.38	3782.94
910.559	3410.21
910.737	3422.5
910.915	3748.12
911.093	3787.04
911.271	3580.19
911.449	3701.02
911.627	3885.34
911.805	4247.83
911.983	3406.11
912.161	3475.74
912.339	3750.17
912.517	3907.87
912.695	3617.05
912.872	3658.01
913.05	3606.81
913.228	3887.39
913.406	3352.87
913.584	3354.91
913.762	3868.95
913.939	3459.36
914.117	3352.87
914.295	3332.39
914.473	3780.89
914.65	3758.36
914.828	3498.27
915.006	3199.27
915.184	3402.02
915.361	3627.29
915.539	3434.78
915.716	3655.97
915.894	3782.94
916.072	3721.5
916.249	3379.49
916.427	3492.13
916.604	3322.15
916.782	3676.45
916.959	3082.53
917.137	3266.85
917.314	3557.66
917.492	3676.45
917.669	3479.84
917.847	3346.72
918.024	3555.62
918.201	3414.31
918.379	3375.39
918.556	3246.37
918.733	3698.97
918.911	3547.42
919.088	3516.7
919.265	3281.19
919.442	3545.38
919.62	3453.22
919.797	3066.15
919.974	3010.86
920.151	3475.74
920.328	3428.64
920.506	3111.21
920.683	3254.56
920.86	3229.99
921.037	3369.25
921.214	3240.23
921.391	3162.41
921.568	3635.49
921.745	3168.55
921.922	3176.74
922.099	3035.43
922.276	3637.53
922.453	3406.11
922.63	3008.81
922.807	3485.98
922.984	3336.48
923.161	3186.98
923.338	3074.34
923.514	2959.66
923.691	3340.58
923.868	3522.85
924.045	3029.29
924.222	2963.75
924.399	3340.58
924.575	3565.85
924.752	3100.97
924.929	3180.84
925.105	3373.35
925.282	3137.83
925.459	2969.9
925.635	3021.1
925.812	3316
925.989	3051.81
926.165	3129.64
926.342	2732.33
926.518	2988.33
926.695	3139.88
926.871	2918.7
927.048	2648.36
927.224	3361.06
927.401	3062.05
927.577	3002.66
927.754	2689.32
927.93	3277.09
928.107	3229.99
928.283	2705.71
928.459	2953.51
928.636	3283.24
928.812	2953.51
928.988	2713.9
929.165	2664.75
929.341	2881.83
929.517	3060.01
929.693	3090.73
929.87	2584.88
930.046	3090.73
930.222	2992.42
930.398	2607.41
930.574	2836.78
930.751	2973.99
930.927	2836.78
931.103	2779.43
931.279	2750.76
931.455	2691.37
931.631	2988.33
931.807	2435.38
931.983	2599.21
932.159	2529.58
932.335	2908.46
932.511	2609.45
932.687	2548.01
932.863	2933.03
933.039	2748.72
933.215	2337.07
933.391	2396.46
933.566	2560.3
933.742	2640.17
933.918	2484.53
934.094	2160.95
934.27	2666.8
934.445	2658.6
934.621	2578.73
934.797	2361.65
934.973	2842.92
935.148	2726.19
935.324	2222.39
935.5	2011.45
935.675	2707.76
935.851	2478.38
936.027	2144.56
936.202	2277.68
936.378	2441.52
936.553	2382.13
936.729	2523.44
936.904	2042.17
937.08	2005.3
937.255	2066.74
937.431	1943.86
937.606	1747.26
937.782	2070.84
937.957	2117.94
938.133	1990.97
938.308	1698.11
938.483	2060.6
938.659	1806.65
938.834	1831.23
939.009	1610.04
939.185	1739.07
939.36	1780.03
939.535	1354.05
939.71	1726.78
939.886	2029.88
940.061	1923.38
940.236	1792.31
940.411	1542.46
940.586	1898.81
940.761	1888.57
940.937	1538.37
941.112	1352
941.287	1716.54
941.462	1714.49
941.637	1345.86
941.812	1374.53
941.987	1808.7
942.162	1632.57
942.337	1468.73
942.512	1356.1
942.687	1935.67
942.862	1816.89
943.037	1196.36
943.212	981.32
943.386	1513.79
943.561	1605.95
943.736	1468.73
943.911	1689.92
944.086	1556.8
944.26	1681.72
944.435	1337.66
944.61	1485.12
944.785	1917.24
944.959	1968.44
945.134	1343.81
945.309	1200.45
945.483	1270.08
945.658	1780.03
945.833	948.55
946.007	1096
946.182	1818.94
946.357	1206.59
946.531	1206.59
946.706	1167.68
946.88	1308.99
947.055	1556.8
947.229	1304.9
947.404	1165.64
947.578	1718.59
947.752	1378.62
947.927	1159.49
948.101	1112.39
948.276	1560.89
948.45	1560.89
948.624	1454.4
948.799	1169.73
948.973	1564.99
949.147	1141.06
949.321	1321.28
949.496	1282.37
949.67	1806.65
949.844	1534.27
950.018	1300.8
950.193	1218.88
950.367	1964.34
950.541	1419.58
950.715	1444.16
950.889	1454.4
951.063	1438.02
951.237	1636.67
951.411	1055.05
951.585	1136.96
951.759	1431.87
951.933	1444.16
952.107	1356.1
952.281	1356.1
952.455	1861.94
952.629	1687.87
952.803	1290.56
952.977	1268.03
953.151	1612.09
953.325	1603.9
953.499	1323.33
953.672	1067.33
953.846	1313.09
954.02	1411.39
954.194	1167.68
954.368	1167.68
954.541	1804.6
954.715	1317.19
954.889	1435.97
955.062	1050.95
955.236	1427.78
955.41	1366.34
955.583	1560.89
955.757	1159.49
955.93	1390.91
956.104	1282.37
956.278	1257.79
956.451	1255.75
956.625	1548.61
956.798	2083.13
956.972	1440.06
957.145	1096
957.319	1431.87
957.492	1368.38
957.665	1333.57
957.839	1202.5
958.012	1569.09
958.185	1356.1
958.359	1220.93
958.532	1321.28
958.705	1634.62
958.879	1546.56
959.052	1335.62
959.225	1003.85
959.398	1466.69
959.572	1509.69
959.745	1296.71
959.918	1177.92
960.091	1481.02
960.264	1468.73
960.438	1204.55
960.611	1202.5
960.784	1646.91
960.957	1292.61
961.13	1642.81
961.303	1161.54
961.476	1431.87
961.649	1734.97
961.822	1075.52
961.995	1208.64
962.168	1483.07
962.341	1454.4
962.514	1188.16
962.686	1147.2
962.859	1552.7
963.032	1456.45
963.205	1153.35
963.378	926.02
963.551	1608
963.723	1493.31
963.896	1349.95
964.069	1343.81
964.242	1472.83
964.414	1673.53
964.587	1296.71
964.76	1329.47
964.932	1493.31
965.105	1491.26
965.278	1167.68
965.45	1077.57
965.623	1489.21
965.795	1595.71
965.968	1136.96
966.14	1165.64
966.313	1395.01
966.485	1456.45
966.658	1261.89
966.83	1030.47
967.003	1638.72
967.175	1558.85
967.348	1155.4
967.52	1306.95
967.692	1863.99
967.865	1571.13
968.037	1235.27
968.209	1444.16
968.382	1403.2
968.554	1491.26
968.726	1206.59
968.898	1169.73
969.071	1456.45
969.243	1505.6
969.415	1198.4
969.587	1229.12
969.759	1978.68
969.932	1601.85
970.104	1210.69
970.276	895.3
970.448	1431.87
970.62	1182.02
970.792	1292.61
970.964	1241.41
971.136	1894.71
971.308	1560.89
971.48	1151.3
971.652	1096
971.824	1743.16
971.996	1323.33
972.168	1198.4
972.339	1112.39
972.511	1702.2
972.683	1315.14
972.855	1345.86
973.027	1200.45
973.199	1450.3
973.37	1511.74
973.542	1282.37
973.714	1227.07
973.886	1345.86
974.057	1595.71
974.229	1063.24
974.401	1132.87
974.572	1112.39
974.744	862.54
974.915	973.13
975.087	997.7
975.259	1644.86
975.43	1194.31
975.602	1165.64
975.773	1030.47
975.945	1136.96
976.116	1421.63
976.288	1136.96
976.459	1280.32
976.63	1225.03
976.802	1554.75
976.973	1059.14
977.145	1229.12
977.316	1759.55
977.487	1659.2
977.659	1247.55
977.83	1014.09
978.001	1646.91
978.172	1329.47
978.344	969.03
978.515	1079.62
978.686	1147.2
978.857	1669.44
979.028	1073.48
979.2	895.3
979.371	1536.32
979.542	1354.05
979.713	1268.03
979.884	592.2
980.055	1161.54
980.226	1141.06
980.397	1018.18
980.568	917.83
980.739	1411.39
980.91	1167.68
981.081	1206.59
981.252	1042.76
981.423	1427.78
981.594	1472.83
981.765	1040.71
981.936	1218.88
982.106	1265.99
982.277	1505.6
982.448	911.69
982.619	1155.4
982.79	1136.96
982.96	1448.26
983.131	1022.28
983.302	768.33
983.472	1116.48
983.643	1390.91
983.814	1108.29
983.984	921.93
984.155	1239.36
984.326	1435.97
984.496	1118.53
984.667	1042.76
984.837	1079.62
985.008	1446.21
985.178	1186.12
985.349	1022.28
985.519	1128.77
985.69	1016.13
985.86	1014.09
986.031	938.31
986.201	1325.38
986.371	1313.09
986.542	934.22
986.712	663.88
986.882	1456.45
987.053	1237.31
987.223	891.21
987.393	1087.81
987.563	1050.95
987.734	1403.2
987.904	1282.37
988.074	936.26
988.244	1270.08
988.414	1069.38
988.585	805.19
988.755	1106.24
988.925	1132.87
989.095	1587.52
989.265	883.02
989.435	981.32
989.605	1339.71
989.775	1349.95
989.945	1124.68
990.115	825.67
990.285	1198.4
990.455	1225.03
990.625	893.26
990.795	919.88
990.965	1415.49
991.134	1073.48
991.304	813.38
991.474	930.12
991.644	1159.49
991.814	1528.13
991.984	760.14
992.153	887.11
992.323	1083.72
992.493	1245.51
992.662	655.69
992.832	928.07
993.002	1108.29
993.171	1210.69
993.341	753.99
993.511	969.03
993.68	950.6
993.85	1321.28
994.019	649.55
994.189	698.7
994.358	1192.26
994.528	1061.19
994.697	565.58
994.867	653.64
995.036	1311.04
995.206	1083.72
995.375	768.33
995.544	866.63
995.714	1069.38
995.883	1108.29
996.052	1061.19
996.222	524.62
996.391	1599.8
996.56	1255.75
996.73	620.88
996.899	653.64
997.068	1489.21
997.237	1108.29
997.406	606.54
997.576	561.48
997.745	993.61
997.914	1089.86
998.083	559.44
998.252	745.8
998.421	1087.81
998.59	805.19
998.759	604.49
998.928	436.56
999.097	1218.88
999.266	1093.96
999.435	866.63
999.604	532.81
999.773	1390.91
999.942	1032.52
1000.111	557.39
1000.28	442.7
1000.448	840.01
1000.617	686.41
1000.786	868.68
1000.955	481.61
1001.124	958.79
1001.292	1569.09
1001.461	663.88
1001.63	684.36
1001.798	1313.09
1001.967	1227.07
1002.136	504.14
1002.304	627.02
1002.473	991.56
1002.642	1014.09
1002.81	661.84
1002.979	491.85
1003.147	1108.29
1003.316	1519.93
1003.484	645.45
1003.653	567.63
1003.821	1208.64
1003.99	833.86
1004.158	731.47
1004.327	764.23
1004.495	1091.91
1004.663	723.27
1004.832	782.67
1005	483.66
1005.168	1059.14
1005.337	975.17
1005.505	479.57
1005.673	753.99
1005.842	1009.99
1006.01	1022.28
1006.178	538.96
1006.346	594.25
1006.514	1042.76
1006.683	1128.77
1006.851	655.69
1007.019	405.84
1007.187	758.09
1007.355	512.33
1007.523	389.46
1007.691	502.09
1007.859	541.01
1008.027	1175.88
1008.195	477.52
1008.363	366.93
1008.531	1055.05
1008.699	735.56
1008.867	420.17
1009.035	584.01
1009.203	1149.25
1009.37	885.06
1009.538	702.79
1009.706	946.5
1009.874	885.06
1010.042	760.14
1010.209	500.05
1010.377	457.04
1010.545	973.13
1010.713	895.3
1010.88	375.12
1011.048	586.06
1011.216	743.75
1011.383	1186.12
1011.551	516.43
1011.718	375.12
1011.886	1053
1012.054	835.91
1012.221	430.41
1012.389	418.13
1012.556	760.14
1012.724	1286.47
1012.891	604.49
1013.058	250.19
1013.226	981.32
1013.393	956.74
1013.561	280.91
1013.728	309.58
1013.895	1055.05
1014.063	864.58
1014.23	289.1
1014.397	336.21
1014.565	1012.04
1014.732	694.6
1014.899	360.78
1015.066	278.87
1015.233	788.81
1015.401	923.98
1015.568	432.46
1015.735	485.71
1015.902	751.95
1016.069	895.3
1016.236	391.5
1016.403	299.34
1016.57	532.81
1016.737	946.5
1016.904	434.51
1017.071	321.87
1017.238	637.26
1017.405	958.79
1017.572	366.93
1017.739	680.27
1017.906	774.47
1018.073	989.51
1018.24	297.3
1018.407	545.1
1018.573	938.31
1018.74	684.36
1018.907	473.42
1019.074	289.1
1019.241	870.73
1019.407	700.75
1019.574	342.35
1019.741	299.34
1019.907	794.95
1020.074	856.39
1020.241	141.65
1020.407	252.24
1020.574	874.82
1020.74	872.78
1020.907	348.5
1021.073	301.39
1021.24	1204.55
1021.406	1024.33
1021.573	170.32
1021.739	301.39
1021.906	874.82
1022.072	672.08
1022.239	258.39
1022.405	313.68
1022.571	608.59
1022.738	493.9
1022.904	256.34
1023.07	373.07
1023.237	682.31
1023.403	942.41
1023.569	317.78
1023.735	334.16
1023.902	735.56
1024.068	739.66
1024.234	207.19
1024.4	342.35
1024.566	704.84
1024.732	858.44
1024.898	289.1
1025.065	133.46
1025.231	928.07
1025.397	459.09
1025.563	328.02
1025.729	172.37
1025.895	227.67
1026.061	440.65
1026.227	51.54
1026.392	207.19
1026.558	797
1026.724	770.38
1026.89	239.95
1027.056	280.91
1027.222	794.95
1027.388	506.19
1027.553	254.29
1027.719	182.61
1027.885	1055.05
1028.051	756.04
1028.216	20.82
1028.382	207.19
1028.548	764.23
1028.713	528.72
1028.879	168.27
1029.045	346.45
1029.21	856.39
1029.376	952.65
1029.541	244.05
1029.707	336.21
1029.873	678.22
1030.038	823.62
1030.204	153.94
1030.369	293.2
1030.534	717.13
1030.7	498
1030.865	239.95
1031.031	92.5
1031.196	653.64
1031.361	584.01
1031.527	209.23
1031.692	119.12
1031.857	149.84
1032.023	727.37
1032.188	129.36
1032.353	192.85
1032.518	934.22
1032.684	684.36
1032.849	55.64
1033.014	151.89
1033.179	772.43
1033.344	706.89
1033.509	258.39
1033.674	225.62
1033.839	772.43
1034.004	686.41
1034.17	203.09
1034.335	90.45
1034.5	469.33
1034.664	418.13
1034.829	96.6
1034.994	252.24
1035.159	616.78
1035.324	633.16
1035.489	207.19
1035.654	108.88
1035.819	860.49
1035.984	586.06
1036.148	209.23
1036.313	198.99
1036.478	776.52
1036.643	561.48
1036.807	168.27
1036.972	53.59
1037.137	776.52
1037.301	594.25
1037.466	39.25
1037.631	260.43
1037.795	803.15
1037.96	514.38
1038.124	233.81
1038.289	92.5
1038.454	629.07
1038.618	653.64
1038.783	117.08
1038.947	166.23
1039.111	557.39
1039.276	399.7
1039.44	84.31
1039.605	565.58
1039.769	426.32
1039.933	571.72
1040.098	215.38
1040.262	325.97
1040.426	723.27
1040.591	665.93
1040.755	112.98
1040.919	121.17
1041.083	551.24
1041.248	448.85
1041.412	61.78
1041.576	26.96
1041.74	399.7
1041.904	682.31
1042.068	29.01
1042.232	205.14
1042.397	706.89
1042.561	551.24
1042.725	-69.29
1042.889	256.34
1043.053	678.22
1043.217	645.45
1043.381	182.61
1043.544	-1.71
1043.708	825.67
1043.872	215.38
1044.036	-194.22
1044.2	41.3
1044.364	751.95
1044.528	866.63
1044.691	1540.41
1044.855	-44.71
1045.019	633.16
1045.183	600.4
1045.346	215.38
1045.51	-13.99
1045.674	520.53
1045.837	641.36
1046.001	72.02
1046.165	-36.52
1046.328	1077.57
1046.492	620.88
1046.655	268.63
1046.819	123.22
1046.983	289.1
1047.146	471.37
1047.31	153.94
1047.473	-57
1047.636	469.33
1047.8	311.63
1047.963	115.03
1048.127	-30.38
1048.29	299.34
