Data from Ink_Intensity_USB4F045381__44__00044.txt Node

Date: Mon Jul 17 09:56:11 EDT 2023
User: mmckonesweet
Spectrometer: USB4F04538
Trigger mode: 4
Integration Time (sec): 9.000000E-1
Scans to average: 1
Electric dark correction enabled: true
Nonlinearity correction enabled: false
Boxcar width: 0
XAxis mode: Wavelengths
Number of Pixels in Spectrum: 3648
>>>>>Begin Spectral Data<<<<<
345.52	-943.77
345.736	-943.77
345.952	-943.77
346.168	-1003.16
346.384	-962.2
346.6	-91.82
346.816	-237.22
347.032	-186.02
347.248	295.25
347.464	-132.78
347.68	-155.3
347.896	69.97
348.112	399.7
348.328	-42.67
348.544	-132.78
348.76	31.06
348.975	182.61
349.191	-171.69
349.407	-136.87
349.623	8.53
349.839	37.2
350.055	-100.01
350.27	39.25
350.486	225.62
350.702	409.94
350.918	186.71
351.133	-114.34
351.349	110.93
351.565	285.01
351.781	-190.12
351.996	57.68
352.212	272.72
352.428	-206.5
352.644	-200.36
352.859	-226.98
353.075	321.87
353.291	8.53
353.506	-69.29
353.722	-224.94
353.938	-57
354.153	422.22
354.369	100.69
354.584	-149.16
354.8	242
355.016	-319.14
355.231	-274.09
355.447	14.68
355.662	108.88
355.878	876.87
356.093	-292.52
356.309	-22.19
356.524	-161.45
356.74	252.24
356.955	-171.69
357.171	-59.05
357.386	133.46
357.602	-276.13
357.817	-89.77
358.033	-206.5
358.248	325.97
358.464	155.99
358.679	-106.15
358.895	-263.85
359.11	-9.9
359.325	303.44
359.541	233.81
359.756	-11.95
359.972	-280.23
360.187	74.07
360.402	-143.02
360.618	-153.26
360.833	854.34
361.048	141.65
361.264	-243.37
361.479	-77.48
361.694	39.25
361.909	178.51
362.125	-163.5
362.34	-30.38
362.555	282.96
362.77	24.92
362.986	-194.22
363.201	-108.2
363.416	184.66
363.631	-59.05
363.847	-231.08
364.062	-173.74
364.277	108.88
364.492	96.6
364.707	-106.15
364.922	-396.96
365.138	233.81
365.353	278.87
365.568	-231.08
365.783	-85.67
365.998	69.97
366.213	475.47
366.428	-186.02
366.643	104.79
366.858	309.58
367.073	276.82
367.288	-71.34
367.503	-261.8
367.718	102.74
367.933	334.16
368.148	-253.61
368.363	-132.78
368.578	-75.43
368.793	459.09
369.008	-114.34
369.223	-224.94
369.438	264.53
369.653	344.4
369.868	-282.28
370.083	-190.12
370.298	94.55
370.513	325.97
370.728	51.54
370.943	-210.6
371.157	-124.58
371.372	508.24
371.587	-300.71
371.802	-222.89
372.017	-16.04
372.232	428.37
372.446	-89.77
372.661	-218.79
372.876	225.62
373.091	133.46
373.306	-161.45
373.52	-165.54
373.735	-220.84
373.95	317.78
374.165	-87.72
374.379	-149.16
374.594	-143.02
374.809	43.35
375.023	39.25
375.238	-231.08
375.453	246.1
375.667	-274.09
375.882	-138.92
376.097	-130.73
376.311	100.69
376.526	4.44
376.741	-265.89
376.955	172.37
377.17	555.34
377.384	485.71
377.599	-77.48
377.813	-239.27
378.028	610.64
378.242	137.56
378.457	-61.1
378.672	-276.13
378.886	119.12
379.101	-114.34
379.315	-306.85
379.53	-75.43
379.744	90.45
379.958	137.56
380.173	-130.73
380.387	-224.94
380.602	166.23
380.816	-179.88
381.031	-157.35
381.245	-69.29
381.459	239.95
381.674	2527.53
381.888	-140.97
382.103	37.2
382.317	-163.5
382.531	538.96
382.746	-44.71
382.96	-161.45
383.174	-122.54
383.388	405.84
383.603	86.36
383.817	-210.6
384.031	170.32
384.246	393.55
384.46	0.34
384.674	280.91
384.888	65.88
385.103	67.92
385.317	-161.45
385.531	-75.43
385.745	268.63
385.959	303.44
386.174	-194.22
386.388	-235.18
386.602	29.01
386.816	-124.58
387.03	-93.87
387.244	-91.82
387.458	20.82
387.672	387.41
387.887	-255.65
388.101	-300.71
388.315	381.26
388.529	49.49
388.743	-118.44
388.957	-292.52
389.171	268.63
389.385	-114.34
389.599	-63.15
389.813	53.59
390.027	164.18
390.241	674.12
390.455	-114.34
390.669	-124.58
390.883	-95.91
391.097	252.24
391.311	86.36
391.525	-59.05
391.738	178.51
391.952	205.14
392.166	-85.67
392.38	-226.98
392.594	166.23
392.808	297.3
393.022	-36.52
393.236	-75.43
393.449	231.76
393.663	158.03
393.877	-282.28
394.091	-120.49
394.305	-122.54
394.518	-95.91
394.732	-333.48
394.946	-71.34
395.16	450.89
395.373	102.74
395.587	-212.65
395.801	-165.54
396.015	252.24
396.228	215.38
396.442	-196.26
396.656	-255.65
396.869	371.02
397.083	360.78
397.297	-69.29
397.51	-112.3
397.724	420.17
397.938	127.32
398.151	-253.61
398.365	-251.56
398.578	133.46
398.792	334.16
399.005	-89.77
399.219	-67.24
399.433	139.6
399.646	223.57
399.86	-18.09
400.073	-32.43
400.287	252.24
400.5	-54.95
400.714	26.96
400.927	-77.48
401.141	215.38
401.354	1022.28
401.567	108.88
401.781	-188.07
401.994	360.78
402.208	624.97
402.421	-67.24
402.635	-97.96
402.848	6.49
403.061	231.76
403.275	10.58
403.488	-171.69
403.701	522.57
403.915	217.43
404.128	-20.14
404.341	-118.44
404.555	188.75
404.768	-1.71
404.981	39.25
405.195	-163.5
405.408	477.52
405.621	188.75
405.834	-44.71
406.048	-243.37
406.261	315.73
406.474	491.85
406.687	-253.61
406.9	41.3
407.114	39.25
407.327	125.27
407.54	-274.09
407.753	-272.04
407.966	-118.44
408.179	268.63
408.392	-190.12
408.605	-263.85
408.819	174.42
409.032	217.43
409.245	-192.17
409.458	-7.85
409.671	278.87
409.884	110.93
410.097	-216.74
410.31	43.35
410.523	117.08
410.736	-46.76
410.949	-3.75
411.162	-118.44
411.375	422.22
411.588	340.3
411.801	59.73
412.014	-128.68
412.227	72.02
412.44	-5.8
412.653	-186.02
412.865	-22.19
413.078	264.53
413.291	301.39
413.504	-22.19
413.717	-134.82
413.93	184.66
414.143	-106.15
414.356	-65.19
414.568	-347.81
414.781	293.2
414.994	145.75
415.207	-157.35
415.42	-153.26
415.632	264.53
415.845	508.24
416.058	-337.57
416.271	-188.07
416.483	22.87
416.696	508.24
416.909	-210.6
417.121	-157.35
417.334	178.51
417.547	467.28
417.759	-132.78
417.972	-190.12
418.185	-87.72
418.397	213.33
418.61	-183.98
418.823	-177.83
419.035	381.26
419.248	20.82
419.46	-1.71
419.673	-22.19
419.885	266.58
420.098	-44.71
420.311	-204.46
420.523	-313
420.736	231.76
420.948	47.44
421.161	-204.46
421.373	-276.13
421.586	78.16
421.798	-149.16
422.01	-259.75
422.223	-132.78
422.435	-77.48
422.648	237.91
422.86	-108.2
423.073	-157.35
423.285	385.36
423.497	-151.21
423.71	-155.3
423.922	-237.22
424.134	90.45
424.347	362.83
424.559	-63.15
424.771	90.45
424.984	-81.58
425.196	182.61
425.408	-321.19
425.621	-231.08
425.833	321.87
426.045	309.58
426.257	-261.8
426.47	-100.01
426.682	211.28
426.894	106.84
427.106	-89.77
427.318	-159.4
427.531	-83.63
427.743	231.76
427.955	-102.06
428.167	248.15
428.379	227.67
428.591	-9.9
428.804	-26.28
429.016	-140.97
429.228	6.49
429.44	88.4
429.652	39.25
429.864	-259.75
430.076	-63.15
430.288	-100.01
430.5	-81.58
430.712	-114.34
430.924	303.44
431.136	47.44
431.348	-382.63
431.56	-151.21
431.772	18.77
431.984	-65.19
432.196	-110.25
432.408	-216.74
432.62	-18.09
432.832	141.65
433.044	67.92
433.256	-22.19
433.468	231.76
433.679	-218.79
433.891	-243.37
434.103	63.83
434.315	364.88
434.527	219.47
434.739	-34.47
434.95	-108.2
435.162	328.02
435.374	-16.04
435.586	-136.87
435.798	-132.78
436.009	-263.85
436.221	8.53
436.433	-284.33
436.645	-24.23
436.856	-79.53
437.068	325.97
437.28	-220.84
437.491	69.97
437.703	106.84
437.915	135.51
438.126	-89.77
438.338	-5.8
438.55	16.73
438.761	149.84
438.973	-97.96
439.184	-175.78
439.396	76.12
439.608	219.47
439.819	-179.88
440.031	-3.75
440.242	229.71
440.454	194.9
440.665	-130.73
440.877	-30.38
441.088	110.93
441.3	-89.77
441.511	-214.7
441.723	-179.88
441.934	211.28
442.146	59.73
442.357	-59.05
442.569	98.64
442.78	22.87
442.991	358.74
443.203	47.44
443.414	-298.66
443.626	397.65
443.837	-122.54
444.048	-214.7
444.26	-245.41
444.471	-75.43
444.682	262.48
444.894	-327.33
445.105	-253.61
445.316	260.43
445.528	104.79
445.739	-79.53
445.95	-122.54
446.161	162.13
446.373	340.3
446.584	-157.35
446.795	-110.25
447.006	166.23
447.217	457.04
447.429	-333.48
447.64	-231.08
447.851	242
448.062	119.12
448.273	-341.67
448.484	-145.06
448.695	176.47
448.907	49.49
449.118	-104.11
449.329	-63.15
449.54	-83.63
449.751	-173.74
449.962	-91.82
450.173	-165.54
450.384	190.8
450.595	325.97
450.806	-241.32
451.017	-161.45
451.228	338.26
451.439	256.34
451.65	-175.78
451.861	-310.95
452.072	-149.16
452.283	-9.9
452.494	2.39
452.705	-194.22
452.915	379.22
453.126	139.6
453.337	-140.97
453.548	-216.74
453.759	235.86
453.97	541.01
454.181	26.96
454.391	-181.93
454.602	41.3
454.813	149.84
455.024	-85.67
455.235	-263.85
455.445	72.02
455.656	127.32
455.867	-73.39
456.078	-169.64
456.288	31.06
456.499	98.64
456.71	-194.22
456.921	151.89
457.131	88.4
457.342	57.68
457.553	-71.34
457.763	-138.92
457.974	276.82
458.184	188.75
458.395	-214.7
458.606	-222.89
458.816	381.26
459.027	364.88
459.237	-65.19
459.448	-388.77
459.659	354.64
459.869	491.85
460.08	-310.95
460.29	-77.48
460.501	500.05
460.711	-57
460.922	-280.23
461.132	-235.18
461.343	778.57
461.553	-282.28
461.764	-220.84
461.974	-196.26
462.184	190.8
462.395	69.97
462.605	-104.11
462.816	-132.78
463.026	104.79
463.236	303.44
463.447	-292.52
463.657	-167.59
463.867	223.57
464.078	-30.38
464.288	-151.21
464.498	-265.89
464.709	24.92
464.919	8.53
465.129	-93.87
465.339	-243.37
465.55	100.69
465.76	182.61
465.97	-114.34
466.18	-198.31
466.391	291.15
466.601	178.51
466.811	-145.06
467.021	-313
467.231	127.32
467.441	289.1
467.651	-145.06
467.862	-388.77
468.072	0.34
468.282	272.72
468.492	-120.49
468.702	-175.78
468.912	20.82
469.122	541.01
469.332	67.92
469.542	-255.65
469.752	162.13
469.962	69.97
470.172	-276.13
470.382	-206.5
470.592	196.95
470.802	411.98
471.012	-38.57
471.222	-253.61
471.432	299.34
471.642	180.56
471.852	-36.52
472.062	-245.41
472.272	-30.38
472.482	-294.57
472.691	-208.55
472.901	-276.13
473.111	127.32
473.321	557.39
473.531	-237.22
473.741	-95.91
473.95	205.14
474.16	237.91
474.37	-132.78
474.58	-296.61
474.79	459.09
474.999	270.67
475.209	-327.33
475.419	-167.59
475.628	-69.29
475.838	352.59
476.048	-196.26
476.258	-337.57
476.467	305.49
476.677	-65.19
476.886	-18.09
477.096	-95.91
477.306	-79.53
477.515	362.83
477.725	-130.73
477.935	-126.63
478.144	313.68
478.354	-132.78
478.563	-130.73
478.773	-206.5
478.982	82.26
479.192	309.58
479.401	-75.43
479.611	-245.41
479.82	-108.2
480.03	86.36
480.239	-259.75
480.449	-210.6
480.658	450.89
480.868	-95.91
481.077	-198.31
481.287	-159.4
481.496	137.56
481.705	328.02
481.915	55.64
482.124	-20.14
482.333	172.37
482.543	373.07
482.752	-181.93
482.961	-243.37
483.171	215.38
483.38	65.88
483.589	-181.93
483.799	-269.99
484.008	-59.05
484.217	307.54
484.426	-28.33
484.636	-263.85
484.845	94.55
485.054	-132.78
485.263	43.35
485.472	-210.6
485.682	438.61
485.891	82.26
486.1	-308.9
486.309	-155.3
486.518	74.07
486.727	362.83
486.936	-274.09
487.146	-67.24
487.355	416.08
487.564	-120.49
487.773	-188.07
487.982	-192.17
488.191	-95.91
488.4	12.63
488.609	-214.7
488.818	-181.93
489.027	608.59
489.236	317.78
489.445	-169.64
489.654	-247.46
489.863	268.63
490.072	88.4
490.281	104.79
490.49	-226.98
490.698	360.78
490.907	346.45
491.116	-130.73
491.325	-331.43
491.534	383.31
491.743	47.44
491.952	-169.64
492.16	-222.89
492.369	123.22
492.578	293.2
492.787	-95.91
492.996	-257.7
493.204	-93.87
493.413	475.47
493.622	-368.29
493.831	-327.33
494.039	317.78
494.248	-118.44
494.457	-257.7
494.665	-284.33
494.874	205.14
495.083	424.27
495.291	-196.26
495.5	-255.65
495.709	237.91
495.917	135.51
496.126	-138.92
496.335	-175.78
496.543	-91.82
496.752	98.64
496.96	26.96
497.169	-284.33
497.377	-22.19
497.586	309.58
497.794	-114.34
498.003	-358.05
498.211	76.12
498.42	424.27
498.628	-89.77
498.837	-284.33
499.045	190.8
499.254	121.17
499.462	-206.5
499.671	-257.7
499.879	457.04
500.087	246.1
500.296	-216.74
500.504	-157.35
500.713	121.17
500.921	586.06
501.129	-177.83
501.338	-132.78
501.546	117.08
501.754	72.02
501.962	-124.58
502.171	-272.04
502.379	147.8
502.587	469.33
502.795	-134.82
503.004	-222.89
503.212	33.11
503.42	342.35
503.628	-286.37
503.837	-118.44
504.045	186.71
504.253	399.7
504.461	-261.8
504.669	-390.82
504.877	100.69
505.085	405.84
505.294	-382.63
505.502	-34.47
505.71	35.16
505.918	225.62
506.126	-280.23
506.334	-294.57
506.542	-1.71
506.75	137.56
506.958	-93.87
507.166	-67.24
507.374	51.54
507.582	473.42
507.79	-153.26
507.998	-310.95
508.206	92.5
508.414	176.47
508.622	-196.26
508.83	-130.73
509.037	334.16
509.245	-48.81
509.453	-214.7
509.661	-181.93
509.869	121.17
510.077	63.83
510.285	-9.9
510.492	-366.25
510.7	670.03
510.908	-50.86
511.116	-124.58
511.324	-257.7
511.531	8.53
511.739	100.69
511.947	-89.77
512.155	98.64
512.362	47.44
512.57	-169.64
512.778	-253.61
512.985	-358.05
513.193	268.63
513.401	379.22
513.608	-167.59
513.816	-196.26
514.024	86.36
514.231	315.73
514.439	-145.06
514.646	-169.64
514.854	264.53
515.061	291.15
515.269	-235.18
515.477	-143.02
515.684	-155.3
515.892	262.48
516.099	-290.47
516.307	-343.72
516.514	186.71
516.722	446.8
516.929	-132.78
517.136	-220.84
517.344	321.87
517.551	131.41
517.759	-208.55
517.966	-179.88
518.173	-89.77
518.381	133.46
518.588	-46.76
518.796	-222.89
519.003	176.47
519.21	35.16
519.418	-212.65
519.625	-11.95
519.832	84.31
520.039	137.56
520.247	-390.82
520.454	-186.02
520.661	205.14
520.868	143.7
521.076	-173.74
521.283	-153.26
521.49	571.72
521.697	121.17
521.904	-161.45
522.112	-177.83
522.319	266.58
522.526	135.51
522.733	-298.66
522.94	-282.28
523.147	-11.95
523.354	293.2
523.561	-267.94
523.768	-190.12
523.975	266.58
524.183	121.17
524.39	-57
524.597	-267.94
524.804	108.88
525.011	-143.02
525.218	-280.23
525.425	-231.08
525.632	364.88
525.838	-91.82
526.045	-192.17
526.252	-237.22
526.459	1016.13
526.666	710.99
526.873	-210.6
527.08	-243.37
527.287	364.88
527.494	242
527.701	-308.9
527.907	-216.74
528.114	160.08
528.321	-59.05
528.528	-173.74
528.735	-204.46
528.941	-120.49
529.148	-69.29
529.355	-110.25
529.562	-251.56
529.768	409.94
529.975	-81.58
530.182	-198.31
530.388	-192.17
530.595	319.82
530.802	-181.93
531.008	-126.63
531.215	-177.83
531.422	715.08
531.628	790.86
531.835	-79.53
532.042	-130.73
532.248	-18.09
532.455	96.6
532.661	-138.92
532.868	-278.18
533.074	18.77
533.281	264.53
533.487	-188.07
533.694	-218.79
533.9	-177.83
534.107	227.67
534.313	-259.75
534.52	-259.75
534.726	334.16
534.933	463.18
535.139	-296.61
535.345	-296.61
535.552	72.02
535.758	-44.71
535.965	-167.59
536.171	-251.56
536.377	254.29
536.584	414.03
536.79	-188.07
536.996	-143.02
537.203	92.5
537.409	217.43
537.615	-138.92
537.821	-102.06
538.028	227.67
538.234	252.24
538.44	-194.22
538.646	-79.53
538.853	311.63
539.059	16.73
539.265	205.14
539.471	-448.16
539.677	178.51
539.883	-52.91
540.09	-190.12
540.296	158.03
540.502	-7.85
540.708	-71.34
540.914	-28.33
541.12	-177.83
541.326	174.42
541.532	-22.19
541.738	-161.45
541.944	-169.64
542.15	301.39
542.356	94.55
542.562	-171.69
542.768	-114.34
542.974	590.16
543.18	440.65
543.386	-177.83
543.592	-321.19
543.798	330.06
544.004	330.06
544.21	-247.46
544.415	-179.88
544.621	59.73
544.827	274.77
545.033	-267.94
545.239	-52.91
545.445	-151.21
545.651	98.64
545.856	-343.72
546.062	-249.51
546.268	-5.8
546.474	8.53
546.679	-167.59
546.885	-140.97
547.091	-30.38
547.297	534.86
547.502	-93.87
547.708	-292.52
547.914	-63.15
548.119	205.14
548.325	-259.75
548.531	-249.51
548.736	430.41
548.942	-93.87
549.147	-245.41
549.353	-42.67
549.559	285.01
549.764	225.62
549.97	-138.92
550.175	-263.85
550.381	192.85
550.586	-9.9
550.792	-75.43
550.997	-208.55
551.203	190.8
551.408	149.84
551.614	-319.14
551.819	-267.94
552.025	467.28
552.23	534.86
552.435	-304.81
552.641	24.92
552.846	-161.45
553.052	317.78
553.257	-140.97
553.462	-118.44
553.668	-167.59
553.873	297.3
554.078	-220.84
554.283	-337.57
554.489	155.99
554.694	29.01
554.899	-286.37
555.105	29.01
555.31	133.46
555.515	256.34
555.72	-122.54
555.925	-265.89
556.131	188.75
556.336	-13.99
556.541	-200.36
556.746	-317.09
556.951	348.5
557.156	407.89
557.361	-67.24
557.567	-126.63
557.772	524.62
557.977	262.48
558.182	-231.08
558.387	-173.74
558.592	18.77
558.797	348.5
559.002	-71.34
559.207	-63.15
559.412	160.08
559.617	481.61
559.822	-163.5
560.027	-255.65
560.232	151.89
560.437	239.95
560.642	-300.71
560.847	-245.41
561.051	151.89
561.256	26.96
561.461	-126.63
561.666	-315.05
561.871	90.45
562.076	266.58
562.281	-124.58
562.485	-249.51
562.69	178.51
562.895	391.5
563.1	-179.88
563.305	-265.89
563.509	377.17
563.714	596.3
563.919	-353.96
564.123	-274.09
564.328	2.39
564.533	332.11
564.737	-97.96
564.942	-169.64
565.147	399.7
565.351	600.4
565.556	-122.54
565.761	-50.86
565.965	65.88
566.17	-102.06
566.374	-171.69
566.579	-216.74
566.784	92.5
566.988	-13.99
567.193	-345.77
567.397	-202.41
567.602	-175.78
567.806	51.54
568.011	-202.41
568.215	-171.69
568.42	4.44
568.624	2.39
568.828	-147.11
569.033	-79.53
569.237	266.58
569.442	209.23
569.646	-325.29
569.85	-196.26
570.055	106.84
570.259	119.12
570.463	16.73
570.668	-95.91
570.872	33.11
571.076	16.73
571.281	-100.01
571.485	-102.06
571.689	96.6
571.893	227.67
572.098	-5.8
572.302	-204.46
572.506	237.91
572.71	35.16
572.914	-67.24
573.119	-183.98
573.323	387.41
573.527	276.82
573.731	-167.59
573.935	-190.12
574.139	121.17
574.343	-108.2
574.547	-177.83
574.751	-75.43
574.955	364.88
575.159	360.78
575.364	-136.87
575.568	-200.36
575.772	31.06
575.976	403.79
576.18	-257.7
576.383	-300.71
576.587	387.41
576.791	190.8
576.995	-327.33
577.199	-356.01
577.403	338.26
577.607	391.5
577.811	-388.77
578.015	-71.34
578.219	153.94
578.422	274.77
578.626	-93.87
578.83	-95.91
579.034	342.35
579.238	31.06
579.442	-206.5
579.645	196.95
579.849	76.12
580.053	106.84
580.257	-190.12
580.46	-149.16
580.664	252.24
580.868	151.89
581.071	18.77
581.275	-143.02
581.479	-243.37
581.682	194.9
581.886	-198.31
582.09	-87.72
582.293	178.51
582.497	256.34
582.7	59.73
582.904	-181.93
583.107	100.69
583.311	39.25
583.515	-67.24
583.718	-79.53
583.922	276.82
584.125	581.96
584.329	-226.98
584.532	-67.24
584.735	368.98
584.939	160.08
585.142	-321.19
585.346	-196.26
585.549	158.03
585.753	-77.48
585.956	-69.29
586.159	-30.38
586.363	452.94
586.566	153.94
586.769	-274.09
586.973	-269.99
587.176	211.28
587.379	362.83
587.582	196.95
587.786	-30.38
587.989	59.73
588.192	641.36
588.395	-112.3
588.599	121.17
588.802	215.38
589.005	311.63
589.208	-153.26
589.411	-181.93
589.615	358.74
589.818	489.81
590.021	16.73
590.224	-112.3
590.427	239.95
590.63	227.67
590.833	-304.81
591.036	-138.92
591.239	-24.23
591.442	-16.04
591.645	24.92
591.848	-81.58
592.051	133.46
592.254	264.53
592.457	-153.26
592.66	-7.85
592.863	41.3
593.066	178.51
593.269	-147.11
593.472	-63.15
593.675	-128.68
593.878	328.02
594.081	-57
594.284	-183.98
594.486	196.95
594.689	82.26
594.892	-30.38
595.095	-155.3
595.298	242
595.5	-67.24
595.703	-34.47
595.906	39.25
596.109	383.31
596.311	348.5
596.514	-446.12
596.717	-71.34
596.92	348.5
597.122	108.88
597.325	-274.09
597.528	-161.45
597.73	360.78
597.933	178.51
598.136	-157.35
598.338	-386.72
598.541	254.29
598.743	295.25
598.946	-177.83
599.148	-89.77
599.351	354.64
599.554	319.82
599.756	-42.67
599.959	-169.64
600.161	313.68
600.363	692.55
600.566	35.16
600.768	-89.77
600.971	534.86
601.173	334.16
601.376	-95.91
601.578	-67.24
601.78	186.71
601.983	670.03
602.185	-140.97
602.388	-13.99
602.59	221.52
602.792	51.54
602.995	88.4
603.197	-198.31
603.399	198.99
603.601	153.94
603.804	-122.54
604.006	-112.3
604.208	45.4
604.41	-284.33
604.613	47.44
604.815	-149.16
605.017	741.71
605.219	12.63
605.421	219.47
605.623	-75.43
605.826	454.99
606.028	469.33
606.23	-134.82
606.432	-151.21
606.634	563.53
606.836	522.57
607.038	-231.08
607.24	127.32
607.442	135.51
607.644	131.41
607.846	-24.23
608.048	-157.35
608.25	387.41
608.452	-3.75
608.654	-38.57
608.856	-337.57
609.058	6.49
609.26	178.51
609.462	-63.15
609.664	-120.49
609.866	569.68
610.067	366.93
610.269	90.45
610.471	-104.11
610.673	84.31
610.875	268.63
611.077	-267.94
611.278	63.83
611.48	92.5
611.682	575.82
611.884	51.54
612.085	-48.81
612.287	29.01
612.489	268.63
612.69	-259.75
612.892	4.44
613.094	446.8
613.295	313.68
613.497	-214.7
613.699	-91.82
613.9	469.33
614.102	330.06
614.304	-95.91
614.505	-259.75
614.707	90.45
614.908	194.9
615.11	-222.89
615.311	-34.47
615.513	364.88
615.714	379.22
615.916	-210.6
616.117	-9.9
616.319	72.02
616.52	381.26
616.722	-32.43
616.923	-132.78
617.124	311.63
617.326	295.25
617.527	-30.38
617.729	160.08
617.93	375.12
618.131	270.67
618.333	-75.43
618.534	-40.62
618.735	-34.47
618.937	448.85
619.138	-235.18
619.339	-179.88
619.54	194.9
619.742	78.16
619.943	65.88
620.144	12.63
620.345	266.58
620.546	319.82
620.748	-132.78
620.949	-91.82
621.15	186.71
621.351	225.62
621.552	6.49
621.753	-288.42
621.954	-173.74
622.155	573.77
622.356	-157.35
622.558	12.63
622.759	110.93
622.96	571.72
623.161	-71.34
623.362	2.39
623.563	151.89
623.764	235.86
623.965	16.73
624.166	96.6
624.366	106.84
624.567	235.86
624.768	-401.06
624.969	-67.24
625.17	76.12
625.371	278.87
625.572	18.77
625.773	-147.11
625.973	342.35
626.174	289.1
626.375	33.11
626.576	49.49
626.777	194.9
626.977	715.08
627.178	-50.86
627.379	-13.99
627.58	104.79
627.78	178.51
627.981	33.11
628.182	26.96
628.382	457.04
628.583	-145.06
628.784	-212.65
628.984	31.06
629.185	325.97
629.386	307.54
629.586	-128.68
629.787	-108.2
629.987	328.02
630.188	227.67
630.388	-75.43
630.589	-22.19
630.79	792.91
630.99	147.8
631.191	63.83
631.391	47.44
631.591	366.93
631.792	518.48
631.992	98.64
632.193	-13.99
632.393	549.2
632.594	180.56
632.794	-63.15
632.994	35.16
633.195	211.28
633.395	262.48
633.595	-130.73
633.796	205.14
633.996	4.44
634.196	510.29
634.397	-206.5
634.597	22.87
634.797	-16.04
634.997	502.09
635.198	164.18
635.398	-173.74
635.598	248.15
635.798	565.58
635.998	352.59
636.199	-128.68
636.399	51.54
636.599	-67.24
636.799	-42.67
636.999	231.76
637.199	297.3
637.399	469.33
637.599	-67.24
637.799	65.88
637.999	10.58
638.199	651.6
638.399	-89.77
638.599	-18.09
638.799	315.73
638.999	631.12
639.199	49.49
639.399	33.11
639.599	588.11
639.799	-46.76
639.999	-118.44
640.199	-112.3
640.399	264.53
640.599	272.72
640.799	18.77
640.998	149.84
641.198	538.96
641.398	360.78
641.598	51.54
641.798	-30.38
641.997	1007.94
642.197	201.04
642.397	65.88
642.597	43.35
642.796	356.69
642.996	590.16
643.196	121.17
643.395	-120.49
643.595	280.91
643.795	-175.78
643.994	-20.14
644.194	49.49
644.394	368.98
644.593	256.34
644.793	-196.26
644.992	100.69
645.192	328.02
645.392	-233.13
645.591	96.6
645.791	-24.23
645.99	276.82
646.19	133.46
646.389	37.2
646.589	-38.57
646.788	407.89
646.987	405.84
647.187	207.19
647.386	229.71
647.586	203.09
647.785	416.08
647.984	35.16
648.184	47.44
648.383	104.79
648.582	115.03
648.782	12.63
648.981	37.2
649.18	84.31
649.38	258.39
649.579	-38.57
649.778	-26.28
649.977	342.35
650.177	346.45
650.376	-120.49
650.575	-44.71
650.774	571.72
650.973	57.68
651.173	-186.02
651.372	-22.19
651.571	145.75
651.77	463.18
651.969	14.68
652.168	65.88
652.367	20.82
652.566	317.78
652.765	4.44
652.964	123.22
653.163	684.36
653.362	184.66
653.561	-75.43
653.76	0.34
653.959	186.71
654.158	285.01
654.357	223.57
654.556	29.01
654.755	375.12
654.954	338.26
655.153	26.96
655.352	92.5
655.551	559.44
655.749	31.06
655.948	76.12
656.147	88.4
656.346	309.58
656.545	108.88
656.743	115.03
656.942	112.98
657.141	229.71
657.34	43.35
657.538	65.88
657.737	-9.9
657.936	153.94
658.135	434.51
658.333	-108.2
658.532	98.64
658.731	694.6
658.929	448.85
659.128	303.44
659.326	-44.71
659.525	526.67
659.724	194.9
659.922	-153.26
660.121	-102.06
660.319	379.22
660.518	16.73
660.716	-67.24
660.915	-48.81
661.113	547.15
661.312	-34.47
661.51	139.6
661.709	-30.38
661.907	330.06
662.105	563.53
662.304	-46.76
662.502	43.35
662.701	543.05
662.899	155.99
663.097	276.82
663.296	-114.34
663.494	459.09
663.692	559.44
663.891	-52.91
664.089	-9.9
664.287	246.1
664.485	567.63
664.684	-7.85
664.882	63.83
665.08	203.09
665.278	194.9
665.476	-149.16
665.675	293.2
665.873	686.41
666.071	430.41
666.269	18.77
666.467	328.02
666.665	309.58
666.863	196.95
667.061	211.28
667.259	16.73
667.457	184.66
667.655	381.26
667.853	-104.11
668.051	145.75
668.249	69.97
668.447	354.64
668.645	-38.57
668.843	233.81
669.041	356.69
669.239	151.89
669.437	131.41
669.635	104.79
669.833	119.12
670.031	422.22
670.229	190.8
670.426	137.56
670.624	96.6
670.822	61.78
671.02	119.12
671.218	115.03
671.415	-11.95
671.613	395.6
671.811	198.99
672.009	14.68
672.206	416.08
672.404	317.78
672.602	229.71
672.799	100.69
672.997	248.15
673.195	577.87
673.392	213.33
673.59	-1.71
673.788	356.69
673.985	-157.35
674.183	176.47
674.38	45.4
674.578	411.98
674.775	137.56
674.973	-59.05
675.17	-1.71
675.368	665.93
675.565	475.47
675.763	-44.71
675.96	0.34
676.158	518.48
676.355	217.43
676.553	26.96
676.75	67.92
676.947	254.29
677.145	239.95
677.342	215.38
677.539	254.29
677.737	235.86
677.934	739.66
678.131	221.52
678.329	16.73
678.526	620.88
678.723	352.59
678.92	160.08
679.118	22.87
679.315	-46.76
679.512	584.01
679.709	67.92
679.906	88.4
680.104	522.57
680.301	235.86
680.498	-122.54
680.695	-100.01
680.892	162.13
681.089	110.93
681.286	198.99
681.483	-38.57
681.68	399.7
681.877	481.61
682.075	88.4
682.272	227.67
682.469	317.78
682.665	155.99
682.862	-54.95
683.059	-67.24
683.256	272.72
683.453	307.54
683.65	53.59
683.847	147.8
684.044	186.71
684.241	139.6
684.438	164.18
684.635	69.97
684.831	786.76
685.028	758.09
685.225	57.68
685.422	268.63
685.619	221.52
685.815	239.95
686.012	174.42
686.209	123.22
686.405	-52.91
686.602	567.63
686.799	24.92
686.996	-42.67
687.192	31.06
687.389	717.13
687.586	-1.71
687.782	129.36
687.979	602.44
688.175	532.81
688.372	133.46
688.568	-5.8
688.765	123.22
688.962	637.26
689.158	244.05
689.355	-120.49
689.551	434.51
689.748	98.64
689.944	172.37
690.14	-120.49
690.337	475.47
690.533	106.84
690.73	264.53
690.926	51.54
691.123	409.94
691.319	231.76
691.515	-32.43
691.712	248.15
691.908	375.12
692.104	328.02
692.301	248.15
692.497	-40.62
692.693	502.09
692.889	471.37
693.086	338.26
693.282	-34.47
693.478	301.39
693.674	655.69
693.87	147.8
694.067	-54.95
694.263	332.11
694.459	174.42
694.655	246.1
694.851	160.08
695.047	366.93
695.243	391.5
695.439	256.34
695.635	78.16
695.831	457.04
696.027	311.63
696.224	-11.95
696.42	360.78
696.615	610.64
696.811	317.78
697.007	63.83
697.203	65.88
697.399	448.85
697.595	659.79
697.791	57.68
697.987	237.91
698.183	18.77
698.379	84.31
698.575	145.75
698.77	133.46
698.966	434.51
699.162	631.12
699.358	186.71
699.554	110.93
699.749	469.33
699.945	510.29
700.141	112.98
700.337	274.77
700.532	198.99
700.728	145.75
700.924	14.68
701.119	-75.43
701.315	383.31
701.511	223.57
701.706	129.36
701.902	-46.76
702.097	268.63
702.293	422.22
702.489	172.37
702.684	149.84
702.88	248.15
703.075	198.99
703.271	235.86
703.466	-75.43
703.662	299.34
703.857	504.14
704.053	100.69
704.248	26.96
704.443	432.46
704.639	383.31
704.834	88.4
705.03	129.36
705.225	442.7
705.42	504.14
705.616	121.17
705.811	41.3
706.006	227.67
706.202	176.47
706.397	211.28
706.592	59.73
706.787	391.5
706.983	299.34
707.178	368.98
707.373	178.51
707.568	500.05
707.763	522.57
707.959	55.64
708.154	72.02
708.349	315.73
708.544	420.17
708.739	248.15
708.934	55.64
709.129	418.13
709.324	526.67
709.519	6.49
709.714	65.88
709.909	538.96
710.104	424.27
710.299	162.13
710.494	166.23
710.689	448.85
710.884	317.78
711.079	104.79
711.274	330.06
711.469	391.5
711.664	401.74
711.859	94.55
712.054	237.91
712.249	493.9
712.443	596.3
712.638	12.63
712.833	29.01
713.028	299.34
713.223	276.82
713.417	338.26
713.612	102.74
713.807	461.13
714.002	823.62
714.196	319.82
714.391	63.83
714.586	520.53
714.78	350.54
714.975	168.27
715.17	16.73
715.364	196.95
715.559	516.43
715.754	-153.26
715.948	80.21
716.143	825.67
716.337	416.08
716.532	368.98
716.726	39.25
716.921	522.57
717.115	661.84
717.31	-5.8
717.504	610.64
717.699	194.9
717.893	528.72
718.088	43.35
718.282	-63.15
718.476	383.31
718.671	485.71
718.865	215.38
719.059	104.79
719.254	325.97
719.448	672.08
719.642	371.02
719.837	-100.01
720.031	541.01
720.225	618.83
720.419	166.23
720.614	45.4
720.808	510.29
721.002	176.47
721.196	20.82
721.39	80.21
721.585	700.75
721.779	364.88
721.973	201.04
722.167	-57
722.361	344.4
722.555	508.24
722.749	108.88
722.943	176.47
723.137	67.92
723.331	350.54
723.525	119.12
723.719	96.6
723.913	489.81
724.107	602.44
724.301	35.16
724.495	201.04
724.689	745.8
724.883	643.4
725.077	117.08
725.271	182.61
725.465	627.02
725.659	362.83
725.853	227.67
726.046	-57
726.24	121.17
726.434	559.44
726.628	72.02
726.822	227.67
727.015	604.49
727.209	581.96
727.403	172.37
727.596	-38.57
727.79	432.46
727.984	561.48
728.177	67.92
728.371	239.95
728.565	510.29
728.758	76.12
728.952	67.92
729.146	96.6
729.339	620.88
729.533	248.15
729.726	141.65
729.92	84.31
730.113	637.26
730.307	334.16
730.5	176.47
730.694	59.73
730.887	268.63
731.081	516.43
731.274	-46.76
731.468	160.08
731.661	276.82
731.854	182.61
732.048	129.36
732.241	51.54
732.435	190.8
732.628	364.88
732.821	192.85
733.014	0.34
733.208	172.37
733.401	502.09
733.594	119.12
733.788	86.36
733.981	710.99
734.174	278.87
734.367	108.88
734.56	215.38
734.754	469.33
734.947	336.21
735.14	108.88
735.333	180.56
735.526	436.56
735.719	98.64
735.912	-24.23
736.105	6.49
736.298	393.55
736.491	276.82
736.684	102.74
736.877	166.23
737.07	409.94
737.263	598.35
737.456	104.79
737.649	-73.39
737.842	162.13
738.035	383.31
738.228	162.13
738.421	264.53
738.614	637.26
738.807	526.67
739	-11.95
739.192	14.68
739.385	448.85
739.578	444.75
739.771	381.26
739.964	133.46
740.156	340.3
740.349	344.4
740.542	291.15
740.735	-24.23
740.927	0.34
741.12	172.37
741.313	49.49
741.505	235.86
741.698	381.26
741.891	520.53
742.083	272.72
742.276	129.36
742.468	354.64
742.661	334.16
742.854	100.69
743.046	117.08
743.239	792.91
743.431	211.28
743.624	192.85
743.816	-63.15
744.009	285.01
744.201	524.62
744.393	356.69
744.586	-22.19
744.778	641.36
744.971	274.77
745.163	280.91
745.355	250.19
745.548	309.58
745.74	262.48
745.932	276.82
746.125	39.25
746.317	801.1
746.509	391.5
746.702	51.54
746.894	282.96
747.086	444.75
747.278	670.03
747.471	305.49
747.663	287.06
747.855	450.89
748.047	647.5
748.239	96.6
748.431	65.88
748.623	743.75
748.815	782.67
749.008	80.21
749.2	41.3
749.392	475.47
749.584	426.32
749.776	225.62
749.968	196.95
750.16	850.25
750.352	213.33
750.544	198.99
750.736	41.3
750.928	414.03
751.12	436.56
751.311	127.32
751.503	254.29
751.695	487.76
751.887	336.21
752.079	-36.52
752.271	65.88
752.463	1096
752.654	446.8
752.846	248.15
753.038	180.56
753.23	268.63
753.421	500.05
753.613	229.71
753.805	444.75
753.997	516.43
754.188	579.92
754.38	110.93
754.572	139.6
754.763	285.01
754.955	368.98
755.146	305.49
755.338	258.39
755.53	434.51
755.721	244.05
755.913	6.49
756.104	65.88
756.296	217.43
756.487	452.94
756.679	16.73
756.87	115.03
757.062	291.15
757.253	469.33
757.445	178.51
757.636	223.57
757.827	299.34
758.019	1005.89
758.21	-1.71
758.401	162.13
758.593	745.8
758.784	684.36
758.975	4.44
759.167	16.73
759.358	387.41
759.549	596.3
759.74	137.56
759.932	88.4
760.123	727.37
760.314	207.19
760.505	250.19
760.696	133.46
760.888	813.38
761.079	338.26
761.27	76.12
761.461	-77.48
761.652	727.37
761.843	368.98
762.034	149.84
762.225	432.46
762.416	358.74
762.607	362.83
762.798	145.75
762.989	22.87
763.18	1143.11
763.371	244.05
763.562	188.75
763.753	201.04
763.944	586.06
764.135	622.92
764.326	198.99
764.517	112.98
764.708	395.6
764.899	512.33
765.089	78.16
765.28	-18.09
765.471	481.61
765.662	422.22
765.853	233.81
766.043	-85.67
766.234	643.4
766.425	608.59
766.615	155.99
766.806	20.82
766.997	612.68
767.187	375.12
767.378	78.16
767.569	22.87
767.759	430.41
767.95	469.33
768.141	336.21
768.331	29.01
768.522	321.87
768.712	563.53
768.903	67.92
769.093	80.21
769.284	780.62
769.474	444.75
769.665	12.63
769.855	-54.95
770.046	422.22
770.236	242
770.426	313.68
770.617	14.68
770.807	450.89
770.998	176.47
771.188	268.63
771.378	67.92
771.569	422.22
771.759	469.33
771.949	51.54
772.139	-95.91
772.33	469.33
772.52	756.04
772.71	16.73
772.9	-9.9
773.09	831.82
773.281	702.79
773.471	84.31
773.661	57.68
773.851	596.3
774.041	266.58
774.231	-7.85
774.421	258.39
774.611	678.22
774.802	360.78
774.992	205.14
775.182	8.53
775.372	270.67
775.562	516.43
775.752	131.41
775.942	102.74
776.131	543.05
776.321	465.23
776.511	104.79
776.701	61.78
776.891	569.68
777.081	82.26
777.271	186.71
777.461	55.64
777.651	502.09
777.84	631.12
778.03	276.82
778.22	192.85
778.41	581.96
778.599	100.69
778.789	102.74
778.979	55.64
779.169	448.85
779.358	287.06
779.548	416.08
779.738	45.4
779.927	395.6
780.117	139.6
780.307	129.36
780.496	-136.87
780.686	469.33
780.875	719.18
781.065	39.25
781.254	102.74
781.444	325.97
781.633	418.13
781.823	127.32
782.012	84.31
782.202	274.77
782.391	305.49
782.581	-22.19
782.77	289.1
782.96	457.04
783.149	272.72
783.338	96.6
783.528	-83.63
783.717	448.85
783.906	469.33
784.096	278.87
784.285	41.3
784.474	305.49
784.663	172.37
784.853	239.95
785.042	160.08
785.231	264.53
785.42	577.87
785.61	201.04
785.799	92.5
785.988	244.05
786.177	293.2
786.366	221.52
786.555	260.43
786.744	561.48
786.933	293.2
787.122	0.34
787.312	0.34
787.501	139.6
787.69	377.17
787.879	127.32
788.068	33.11
788.257	90.45
788.445	217.43
788.634	168.27
788.823	20.82
789.012	954.69
789.201	684.36
789.39	237.91
789.579	88.4
789.768	250.19
789.957	440.65
790.145	119.12
790.334	-114.34
790.523	190.8
790.712	262.48
790.9	143.7
791.089	-26.28
791.278	536.91
791.467	395.6
791.655	328.02
791.844	567.63
792.033	221.52
792.221	221.52
792.41	141.65
792.599	-18.09
792.787	508.24
792.976	487.76
793.164	10.58
793.353	59.73
793.541	520.53
793.73	561.48
793.918	43.35
794.107	53.59
794.295	248.15
794.484	280.91
794.672	135.51
794.861	137.56
795.049	465.23
795.238	749.9
795.426	-75.43
795.614	143.7
795.803	416.08
795.991	614.73
796.179	106.84
796.368	78.16
796.556	641.36
796.744	125.27
796.932	119.12
797.121	102.74
797.309	309.58
797.497	579.92
797.685	178.51
797.874	67.92
798.062	178.51
798.25	596.3
798.438	-34.47
798.626	20.82
798.814	536.91
799.002	835.91
799.19	211.28
799.378	129.36
799.566	657.74
799.755	731.47
799.943	268.63
800.131	49.49
800.318	411.98
800.506	422.22
800.694	86.36
800.882	168.27
801.07	653.64
801.258	201.04
801.446	84.31
801.634	207.19
801.822	256.34
802.01	285.01
802.197	59.73
802.385	237.91
802.573	368.98
802.761	117.08
802.949	166.23
803.136	35.16
803.324	581.96
803.512	368.98
803.699	139.6
803.887	-91.82
804.075	682.31
804.262	201.04
804.45	-110.25
804.638	190.8
804.825	108.88
805.013	153.94
805.201	153.94
805.388	8.53
805.576	227.67
805.763	770.38
805.951	80.21
806.138	297.3
806.326	829.77
806.513	411.98
806.701	143.7
806.888	6.49
807.075	411.98
807.263	788.81
807.45	-57
807.638	299.34
807.825	756.04
808.012	590.16
808.2	92.5
808.387	309.58
808.574	407.89
808.761	602.44
808.949	10.58
809.136	115.03
809.323	342.35
809.51	194.9
809.698	418.13
809.885	321.87
810.072	481.61
810.259	649.55
810.446	84.31
810.633	74.07
810.82	565.58
811.008	622.92
811.195	143.7
811.382	158.03
811.569	325.97
811.756	53.59
811.943	108.88
812.13	145.75
812.317	262.48
812.504	213.33
812.691	225.62
812.878	149.84
813.064	635.21
813.251	401.74
813.438	-9.9
813.625	235.86
813.812	221.52
813.999	205.14
814.186	166.23
814.372	172.37
814.559	387.41
814.746	592.2
814.933	133.46
815.12	282.96
815.306	250.19
815.493	198.99
815.68	67.92
815.866	262.48
816.053	676.17
816.24	825.67
816.426	192.85
816.613	4.44
816.799	528.72
816.986	565.58
817.173	117.08
817.359	141.65
817.546	403.79
817.732	49.49
817.919	-63.15
818.105	176.47
818.292	235.86
818.478	454.99
818.665	192.85
818.851	63.83
819.037	878.92
819.224	319.82
819.41	37.2
819.597	8.53
819.783	719.18
819.969	553.29
820.156	172.37
820.342	-22.19
820.528	969.03
820.714	332.11
820.901	371.02
821.087	172.37
821.273	764.23
821.459	264.53
821.646	-18.09
821.832	39.25
822.018	303.44
822.204	272.72
822.39	133.46
822.576	125.27
822.762	409.94
822.948	383.31
823.134	307.54
823.32	127.32
823.507	78.16
823.693	454.99
823.879	493.9
824.065	63.83
824.25	336.21
824.436	96.6
824.622	158.03
824.808	-44.71
824.994	176.47
825.18	190.8
825.366	-24.23
825.552	98.64
825.738	203.09
825.923	604.49
826.109	428.37
826.295	61.78
826.481	96.6
826.667	287.06
826.852	285.01
827.038	43.35
827.224	516.43
827.409	731.47
827.595	-46.76
827.781	291.15
827.966	512.33
828.152	536.91
828.338	151.89
828.523	59.73
828.709	168.27
828.894	620.88
829.08	207.19
829.266	86.36
829.451	246.1
829.637	467.28
829.822	274.77
830.008	12.63
830.193	563.53
830.378	682.31
830.564	153.94
830.749	59.73
830.935	493.9
831.12	500.05
831.305	80.21
831.491	149.84
831.676	143.7
831.861	500.05
832.047	47.44
832.232	39.25
832.417	633.16
832.602	328.02
832.788	92.5
832.973	-9.9
833.158	350.54
833.343	272.72
833.528	227.67
833.714	176.47
833.899	493.9
834.084	792.91
834.269	262.48
834.454	188.75
834.639	565.58
834.824	352.59
835.009	340.3
835.194	321.87
835.379	532.81
835.564	813.38
835.749	280.91
835.934	65.88
836.119	565.58
836.304	321.87
836.489	88.4
836.674	285.01
836.859	84.31
837.044	633.16
837.228	160.08
837.413	119.12
837.598	452.94
837.783	551.24
837.968	170.32
838.152	-20.14
838.337	-42.67
838.522	649.55
838.707	592.2
838.891	309.58
839.076	481.61
839.261	614.73
839.445	246.1
839.63	223.57
839.815	698.7
839.999	354.64
840.184	33.11
840.368	72.02
840.553	571.72
840.737	584.01
840.922	76.12
841.106	37.2
841.291	18.77
841.475	399.7
841.66	59.73
841.844	141.65
842.029	1034.57
842.213	37.2
842.397	84.31
842.582	-57
842.766	657.74
842.951	590.16
843.135	135.51
843.319	174.42
843.504	332.11
843.688	606.54
843.872	0.34
844.056	6.49
844.241	438.61
844.425	248.15
844.609	422.22
844.793	-40.62
844.977	575.82
845.161	436.56
845.346	80.21
845.53	100.69
845.714	334.16
845.898	684.36
846.082	-1.71
846.266	100.69
846.45	393.55
846.634	354.64
846.818	115.03
847.002	203.09
847.186	561.48
847.37	162.13
847.554	-3.75
847.738	256.34
847.922	459.09
848.106	430.41
848.29	63.83
848.473	76.12
848.657	586.06
848.841	239.95
849.025	182.61
849.209	-34.47
849.392	502.09
849.576	338.26
849.76	-155.3
849.944	330.06
850.127	663.88
850.311	184.66
850.495	-18.09
850.678	-128.68
850.862	604.49
851.046	553.29
851.229	285.01
851.413	92.5
851.596	346.45
851.78	264.53
851.964	252.24
852.147	119.12
852.331	1022.28
852.514	581.96
852.698	166.23
852.881	-34.47
853.065	471.37
853.248	246.1
853.431	256.34
853.615	196.95
853.798	958.79
853.982	371.02
854.165	291.15
854.348	117.08
854.532	90.45
854.715	239.95
854.898	131.41
855.081	149.84
855.265	741.71
855.448	688.46
855.631	72.02
855.814	119.12
855.997	575.82
856.181	219.47
856.364	196.95
856.547	16.73
856.73	479.57
856.913	401.74
857.096	-30.38
857.279	196.95
857.462	266.58
857.645	637.26
857.828	282.96
858.011	190.8
858.194	242
858.377	571.72
858.56	2.39
858.743	282.96
858.926	205.14
859.109	424.27
859.292	53.59
859.475	-11.95
859.658	696.65
859.841	485.71
860.023	-22.19
860.206	-48.81
860.389	407.89
860.572	559.44
860.755	166.23
860.937	174.42
861.12	237.91
861.303	344.4
861.486	170.32
861.668	147.8
861.851	622.92
862.034	428.37
862.216	272.72
862.399	-26.28
862.581	489.81
862.764	758.09
862.947	250.19
863.129	131.41
863.312	57.68
863.494	692.55
863.677	446.8
863.859	-3.75
864.042	514.38
864.224	735.56
864.406	274.77
864.589	-83.63
864.771	549.2
864.954	158.03
865.136	192.85
865.318	-38.57
865.501	514.38
865.683	-16.04
865.865	174.42
866.048	170.32
866.23	440.65
866.412	278.87
866.594	2.39
866.777	211.28
866.959	549.2
867.141	221.52
867.323	430.41
867.505	299.34
867.687	330.06
867.869	223.57
868.052	158.03
868.234	39.25
868.416	301.39
868.598	504.14
868.78	86.36
868.962	49.49
869.144	551.24
869.326	508.24
869.508	108.88
869.69	24.92
869.872	180.56
870.054	604.49
870.236	22.87
870.417	29.01
870.599	274.77
870.781	735.56
870.963	162.13
871.145	26.96
871.327	100.69
871.508	571.72
871.69	158.03
871.872	117.08
872.054	313.68
872.235	500.05
872.417	143.7
872.599	121.17
872.78	684.36
872.962	424.27
873.144	22.87
873.325	155.99
873.507	760.14
873.689	428.37
873.87	67.92
874.052	209.23
874.233	373.07
874.415	518.48
874.596	151.89
874.778	-26.28
874.959	385.36
875.141	590.16
875.322	192.85
875.503	14.68
875.685	526.67
875.866	-108.2
876.048	51.54
876.229	31.06
876.41	301.39
876.592	438.61
876.773	100.69
876.954	-7.85
877.136	565.58
877.317	211.28
877.498	14.68
877.679	235.86
877.86	473.42
878.042	299.34
878.223	14.68
878.404	336.21
878.585	524.62
878.766	696.65
878.947	461.13
879.128	289.1
879.309	461.13
879.49	543.05
879.672	184.66
879.853	147.8
880.034	155.99
880.215	209.23
880.396	287.06
880.576	96.6
880.757	51.54
880.938	614.73
881.119	24.92
881.3	139.6
881.481	184.66
881.662	1122.63
881.843	6.49
882.023	-50.86
882.204	444.75
882.385	303.44
882.566	76.12
882.747	63.83
882.927	246.1
883.108	442.7
883.289	78.16
883.469	299.34
883.65	254.29
883.831	319.82
884.011	215.38
884.192	121.17
884.373	606.54
884.553	489.81
884.734	225.62
884.914	371.02
885.095	893.26
885.275	674.12
885.456	426.32
885.636	-79.53
885.817	293.2
885.997	330.06
886.178	-26.28
886.358	186.71
886.538	348.5
886.719	1276.23
886.899	59.73
887.08	178.51
887.26	575.82
887.44	184.66
887.621	-5.8
887.801	244.05
887.981	837.96
888.161	590.16
888.342	141.65
888.522	182.61
888.702	500.05
888.882	590.16
889.062	299.34
889.242	-75.43
889.423	729.42
889.603	502.09
889.783	262.48
889.963	57.68
890.143	555.34
890.323	526.67
890.503	141.65
890.683	104.79
890.863	389.46
891.043	448.85
891.223	301.39
891.403	330.06
891.583	313.68
891.763	383.31
891.943	141.65
892.122	39.25
892.302	328.02
892.482	268.63
892.662	231.76
892.842	151.89
893.022	477.52
893.201	162.13
893.381	307.54
893.561	190.8
893.741	571.72
893.92	469.33
894.1	280.91
894.28	282.96
894.459	524.62
894.639	473.42
894.819	129.36
894.998	291.15
895.178	358.74
895.357	520.53
895.537	96.6
895.716	6.49
895.896	305.49
896.075	551.24
896.255	143.7
896.434	-136.87
896.614	536.91
896.793	784.71
896.973	153.94
897.152	262.48
897.331	520.53
897.511	493.9
897.69	29.01
897.87	237.91
898.049	584.01
898.228	371.02
898.407	405.84
898.587	303.44
898.766	315.73
898.945	479.57
899.124	409.94
899.304	235.86
899.483	424.27
899.662	692.55
899.841	121.17
900.02	194.9
900.199	698.7
900.378	498
900.557	78.16
900.737	61.78
900.916	442.7
901.095	698.7
901.274	397.65
901.453	4.44
901.632	235.86
901.811	133.46
901.989	151.89
902.168	125.27
902.347	565.58
902.526	301.39
902.705	94.55
902.884	293.2
903.063	575.82
903.242	612.68
903.42	45.4
903.599	215.38
903.778	596.3
903.957	725.32
904.135	299.34
904.314	217.43
904.493	317.78
904.672	543.05
904.85	125.27
905.029	141.65
905.207	448.85
905.386	1126.72
905.565	76.12
905.743	178.51
905.922	188.75
906.1	643.4
906.279	121.17
906.457	82.26
906.636	289.1
906.814	303.44
906.993	145.75
907.171	98.64
907.35	610.64
907.528	569.68
907.707	379.22
907.885	102.74
908.063	840.01
908.242	115.03
908.42	170.32
908.598	22.87
908.777	569.68
908.955	203.09
909.133	252.24
909.311	94.55
909.49	305.49
909.668	385.36
909.846	221.52
910.024	18.77
910.202	356.69
910.38	473.42
910.559	37.2
910.737	72.02
910.915	442.7
911.093	387.41
911.271	188.75
911.449	373.07
911.627	534.86
911.805	854.34
911.983	145.75
912.161	143.7
912.339	469.33
912.517	641.36
912.695	317.78
912.872	198.99
913.05	129.36
913.228	438.61
913.406	209.23
913.584	158.03
913.762	532.81
913.939	248.15
914.117	133.46
914.295	10.58
914.473	493.9
914.65	508.24
914.828	145.75
915.006	145.75
915.184	69.97
915.361	401.74
915.539	336.21
915.716	356.69
915.894	420.17
916.072	559.44
916.249	325.97
916.427	276.82
916.604	166.23
916.782	426.32
916.959	121.17
917.137	211.28
917.314	530.77
917.492	436.56
917.669	332.11
917.847	164.18
918.024	471.37
918.201	172.37
918.379	135.51
918.556	198.99
918.733	604.49
918.911	282.96
919.088	301.39
919.265	133.46
919.442	375.12
919.62	172.37
919.797	41.3
919.974	45.4
920.151	397.65
920.328	395.6
920.506	221.52
920.683	305.49
920.86	110.93
921.037	219.47
921.214	225.62
921.391	117.08
921.568	577.87
921.745	190.8
921.922	221.52
922.099	82.26
922.276	657.74
922.453	432.46
922.63	94.55
922.807	448.85
922.984	411.98
923.161	287.06
923.338	170.32
923.514	112.98
923.691	383.31
923.868	438.61
924.045	139.6
924.222	45.4
924.399	407.89
924.575	602.44
924.752	268.63
924.929	291.15
925.105	516.43
925.282	198.99
925.459	205.14
925.635	182.61
925.812	319.82
925.989	141.65
926.165	254.29
926.342	10.58
926.518	180.56
926.695	360.78
926.871	131.41
927.048	8.53
927.224	469.33
927.401	268.63
927.577	239.95
927.754	74.07
927.93	594.25
928.107	483.66
928.283	125.27
928.459	231.76
928.636	407.89
928.812	198.99
928.988	135.51
929.165	-36.52
929.341	268.63
929.517	377.17
929.693	422.22
929.87	-38.57
930.046	524.62
930.222	272.72
930.398	117.08
930.574	301.39
930.751	321.87
930.927	211.28
931.103	207.19
931.279	133.46
931.455	41.3
931.631	368.98
931.807	-67.24
931.983	-11.95
932.159	94.55
932.335	379.22
932.511	135.51
932.687	102.74
932.863	371.02
933.039	338.26
933.215	57.68
933.391	-32.43
933.566	268.63
933.742	340.3
933.918	221.52
934.094	-38.57
934.27	340.3
934.445	289.1
934.621	188.75
934.797	106.84
934.973	614.73
935.148	528.72
935.324	102.74
935.5	-67.24
935.675	567.63
935.851	336.21
936.027	98.64
936.202	196.95
936.378	444.75
936.553	217.43
936.729	498
936.904	-3.75
937.08	104.79
937.255	104.79
937.431	10.58
937.606	-20.14
937.782	219.47
937.957	301.39
938.133	198.99
938.308	-1.71
938.483	207.19
938.659	63.83
938.834	129.36
939.009	-16.04
939.185	242
939.36	51.54
939.535	-165.54
939.71	170.32
939.886	407.89
940.061	354.64
940.236	229.71
940.411	47.44
940.586	399.7
940.761	395.6
940.937	78.16
941.112	22.87
941.287	348.5
941.462	274.77
941.637	-59.05
941.812	43.35
941.987	377.17
942.162	227.67
942.337	123.22
942.512	4.44
942.687	465.23
942.862	301.39
943.037	-13.99
943.212	-245.41
943.386	96.6
943.561	362.83
943.736	174.42
943.911	301.39
944.086	381.26
944.26	280.91
944.435	-22.19
944.61	153.94
944.785	526.67
944.959	624.97
945.134	102.74
945.309	-24.23
945.483	82.26
945.658	434.51
945.833	-222.89
946.007	-136.87
946.182	555.34
946.357	-73.39
946.531	-85.67
946.706	-108.2
946.88	-128.68
947.055	282.96
947.229	20.82
947.404	-104.11
947.578	432.46
947.752	121.17
947.927	-79.53
948.101	-167.59
948.276	205.14
948.45	280.91
948.624	153.94
948.799	-83.63
948.973	315.73
949.147	-34.47
949.321	2.39
949.496	-46.76
949.67	448.85
949.844	76.12
950.018	63.83
950.193	-89.77
950.367	731.47
950.541	108.88
950.715	139.6
950.889	131.41
951.063	203.09
951.237	323.92
951.411	-177.83
951.585	-284.33
951.759	231.76
951.933	170.32
952.107	-108.2
952.281	59.73
952.455	541.01
952.629	444.75
952.803	-163.5
952.977	-65.19
953.151	354.64
953.325	350.54
953.499	143.7
953.672	-120.49
953.846	-81.58
954.02	158.03
954.194	-145.06
954.368	-38.57
954.541	295.25
954.715	94.55
954.889	108.88
955.062	-89.77
955.236	88.4
955.41	57.68
955.583	174.42
955.757	-91.82
955.93	96.6
956.104	-116.39
956.278	-26.28
956.451	-5.8
956.625	227.67
956.798	563.53
956.972	178.51
957.145	-124.58
957.319	125.27
957.492	18.77
957.665	108.88
957.839	-5.8
958.012	266.58
958.185	92.5
958.359	53.59
958.532	129.36
958.705	407.89
958.879	295.25
959.052	45.4
959.225	-239.27
959.398	80.21
959.572	313.68
959.745	-73.39
959.918	-24.23
960.091	102.74
960.264	295.25
960.438	-147.11
960.611	-87.72
960.784	334.16
960.957	49.49
961.13	375.12
961.303	-97.96
961.476	84.31
961.649	323.92
961.822	-161.45
961.995	47.44
962.168	360.78
962.341	264.53
962.514	12.63
962.686	-26.28
962.859	274.77
963.032	264.53
963.205	-57
963.378	-161.45
963.551	362.83
963.723	260.43
963.896	10.58
964.069	166.23
964.242	151.89
964.414	416.08
964.587	41.3
964.76	61.78
964.932	278.87
965.105	82.26
965.278	4.44
965.45	-89.77
965.623	188.75
965.795	346.45
965.968	-22.19
966.14	-32.43
966.313	190.8
966.485	250.19
966.658	26.96
966.83	-132.78
967.003	428.37
967.175	426.32
967.348	8.53
967.52	-1.71
967.692	465.23
967.865	285.01
968.037	-22.19
968.209	182.61
968.382	98.64
968.554	328.02
968.726	24.92
968.898	6.49
969.071	162.13
969.243	358.74
969.415	4.44
969.587	33.11
969.759	686.41
969.932	379.22
970.104	125.27
970.276	-229.03
970.448	110.93
970.62	49.49
970.792	78.16
970.964	-16.04
971.136	653.64
971.308	264.53
971.48	-20.14
971.652	-57
971.824	534.86
971.996	127.32
972.168	43.35
972.339	24.92
972.511	393.55
972.683	106.84
972.855	100.69
973.027	-16.04
973.199	211.28
973.37	256.34
973.542	121.17
973.714	59.73
973.886	211.28
974.057	457.04
974.229	-83.63
974.401	-116.39
974.572	-52.91
974.744	-210.6
974.915	-138.92
975.087	-89.77
975.259	459.09
975.43	90.45
975.602	2.39
975.773	-145.06
975.945	6.49
976.116	309.58
976.288	-136.87
976.459	164.18
976.63	164.18
976.802	330.06
976.973	18.77
977.145	108.88
977.316	649.55
977.487	514.38
977.659	121.17
977.83	8.53
978.001	534.86
978.172	321.87
978.344	-143.02
978.515	69.97
978.686	69.97
978.857	545.1
979.028	31.06
979.2	-130.73
979.371	481.61
979.542	317.78
979.713	59.73
979.884	-417.44
980.055	63.83
980.226	80.21
980.397	-1.71
980.568	-177.83
980.739	344.4
980.91	155.99
981.081	151.89
981.252	-93.87
981.423	414.03
981.594	459.09
981.765	-120.49
981.936	45.4
982.106	180.56
982.277	446.8
982.448	-5.8
982.619	123.22
982.79	78.16
982.96	416.08
983.131	-7.85
983.302	-210.6
983.472	92.5
983.643	338.26
983.814	84.31
983.984	-40.62
984.155	94.55
984.326	360.78
984.496	-18.09
984.667	-59.05
984.837	55.64
985.008	432.46
985.178	143.7
985.349	-40.62
985.519	174.42
985.69	24.92
985.86	37.2
986.031	-118.44
986.201	213.33
986.371	233.81
986.542	-102.06
986.712	-247.46
986.882	274.77
987.053	268.63
987.223	-161.45
987.393	72.02
987.563	47.44
987.734	248.15
987.904	207.19
988.074	-75.43
988.244	231.76
988.414	47.44
988.585	-65.19
988.755	-1.71
988.925	160.08
989.095	526.67
989.265	12.63
989.435	2.39
989.605	289.1
989.775	356.69
989.945	227.67
990.115	-108.2
990.285	170.32
990.455	198.99
990.625	-89.77
990.795	-112.3
990.965	500.05
991.134	-22.19
991.304	-104.11
991.474	-57
991.644	233.81
991.814	461.13
991.984	-89.77
992.153	-112.3
992.323	108.88
992.493	145.75
992.662	-353.96
992.832	119.12
993.002	223.57
993.171	172.37
993.341	-210.6
993.511	100.69
993.68	-7.85
993.85	321.87
994.019	-241.32
994.189	-190.12
994.358	166.23
994.528	35.16
994.697	-292.52
994.867	-157.35
995.036	348.5
995.206	76.12
995.375	-145.06
995.544	18.77
995.714	233.81
995.883	53.59
996.052	57.68
996.222	-253.61
996.391	610.64
996.56	198.99
996.73	-224.94
996.899	-186.02
997.068	504.14
997.237	168.27
997.406	-120.49
997.576	-265.89
997.745	178.51
997.914	190.8
998.083	-284.33
998.252	-218.79
998.421	110.93
998.59	-3.75
998.759	-198.31
998.928	-222.89
999.097	385.36
999.266	164.18
999.435	-13.99
999.604	-278.18
999.773	555.34
999.942	80.21
1000.111	-259.75
1000.28	-313
1000.448	-130.73
1000.617	-65.19
1000.786	39.25
1000.955	-255.65
1001.124	104.79
1001.292	764.23
1001.461	-247.46
1001.63	-145.06
1001.798	493.9
1001.967	442.7
1002.136	-272.04
1002.304	-151.21
1002.473	145.75
1002.642	264.53
1002.81	-188.07
1002.979	-231.08
1003.147	278.87
1003.316	745.8
1003.484	-202.41
1003.653	-237.22
1003.821	399.7
1003.99	47.44
1004.158	-75.43
1004.327	-38.57
1004.495	209.23
1004.663	-83.63
1004.832	-11.95
1005	-263.85
1005.168	317.78
1005.337	190.8
1005.505	-319.14
1005.673	22.87
1005.842	164.18
1006.01	242
1006.178	-110.25
1006.346	-261.8
1006.514	260.43
1006.683	319.82
1006.851	-183.98
1007.019	-362.15
1007.187	-104.11
1007.355	-298.66
1007.523	-341.67
1007.691	-319.14
1007.859	-214.7
1008.027	334.16
1008.195	-138.92
1008.363	-269.99
1008.531	321.87
1008.699	-71.34
1008.867	-347.81
1009.035	-157.35
1009.203	233.81
1009.37	117.08
1009.538	-181.93
1009.706	225.62
1009.874	131.41
1010.042	-5.8
1010.209	-245.41
1010.377	-245.41
1010.545	270.67
1010.713	53.59
1010.88	-274.09
1011.048	-181.93
1011.216	-7.85
1011.383	414.03
1011.551	-206.5
1011.718	-292.52
1011.886	303.44
1012.054	6.49
1012.221	-231.08
1012.389	-177.83
1012.556	100.69
1012.724	471.37
1012.891	-132.78
1013.058	-396.96
1013.226	264.53
1013.393	287.06
1013.561	-388.77
1013.728	-280.23
1013.895	346.45
1014.063	207.19
1014.23	-300.71
1014.397	-257.7
1014.565	258.39
1014.732	94.55
1014.899	-220.84
1015.066	-323.24
1015.233	100.69
1015.401	309.58
1015.568	-163.5
1015.735	-69.29
1015.902	127.32
1016.069	215.38
1016.236	-210.6
1016.403	-233.13
1016.57	-46.76
1016.737	160.08
1016.904	-138.92
1017.071	-265.89
1017.238	-16.04
1017.405	264.53
1017.572	-218.79
1017.739	39.25
1017.906	192.85
1018.073	231.76
1018.24	-286.37
1018.407	-112.3
1018.573	391.5
1018.74	57.68
1018.907	-276.13
1019.074	-294.57
1019.241	303.44
1019.407	170.32
1019.574	-196.26
1019.741	-302.76
1019.907	194.9
1020.074	287.06
1020.241	-378.53
1020.407	-231.08
1020.574	305.49
1020.74	203.09
1020.907	-186.02
1021.073	-304.81
1021.24	553.29
1021.406	547.15
1021.573	-249.51
1021.739	-177.83
1021.906	354.64
1022.072	151.89
1022.239	-181.93
1022.405	-181.93
1022.571	164.18
1022.738	-40.62
1022.904	-231.08
1023.07	-233.13
1023.237	198.99
1023.403	293.2
1023.569	-190.12
1023.735	-222.89
1023.902	182.61
1024.068	141.65
1024.234	-286.37
1024.4	-214.7
1024.566	211.28
1024.732	328.02
1024.898	-192.17
1025.065	-321.19
1025.231	309.58
1025.397	131.41
1025.563	-132.78
1025.729	-272.04
1025.895	-241.32
1026.061	-59.05
1026.227	-425.64
1026.392	-229.03
1026.558	366.93
1026.724	190.8
1026.89	-220.84
1027.056	-200.36
1027.222	268.63
1027.388	37.2
1027.553	-206.5
1027.719	-272.04
1027.885	424.27
1028.051	262.48
1028.216	-392.87
1028.382	-243.37
1028.548	254.29
1028.713	-28.33
1028.879	-321.19
1029.045	-97.96
1029.21	457.04
1029.376	360.78
1029.541	-143.02
1029.707	-194.22
1029.873	293.2
1030.038	287.06
1030.204	-321.19
1030.369	-196.26
1030.534	373.07
1030.7	129.36
1030.865	-222.89
1031.031	-282.28
1031.196	227.67
1031.361	117.08
1031.527	-269.99
1031.692	-284.33
1031.857	-263.85
1032.023	225.62
1032.188	-284.33
1032.353	-208.55
1032.518	530.77
1032.684	172.37
1032.849	-294.57
1033.014	-202.41
1033.179	254.29
1033.344	182.61
1033.509	-149.16
1033.674	-251.56
1033.839	219.47
1034.004	297.3
1034.17	-241.32
1034.335	-296.61
1034.5	69.97
1034.664	2.39
1034.829	-157.35
1034.994	-175.78
1035.159	223.57
1035.324	141.65
1035.489	-145.06
1035.654	-124.58
1035.819	366.93
1035.984	198.99
1036.148	-214.7
1036.313	-214.7
1036.478	397.65
1036.643	176.47
1036.807	-149.16
1036.972	-294.57
1037.137	409.94
1037.301	244.05
1037.466	-372.39
1037.631	-130.73
1037.795	461.13
1037.96	196.95
1038.124	41.3
1038.289	-272.04
1038.454	356.69
1038.618	285.01
1038.783	-263.85
1038.947	-77.48
1039.111	180.56
1039.276	131.41
1039.44	-198.31
1039.605	213.33
1039.769	59.73
1039.933	115.03
1040.098	-20.14
1040.262	63.83
1040.426	387.41
1040.591	371.02
1040.755	-220.84
1040.919	-177.83
1041.083	289.1
1041.248	86.36
1041.412	-327.33
1041.576	-220.84
1041.74	98.64
1041.904	405.84
1042.068	-255.65
1042.232	-89.77
1042.397	375.12
1042.561	299.34
1042.725	-407.2
1042.889	-30.38
1043.053	420.17
1043.217	364.88
1043.381	14.68
1043.544	-317.09
1043.708	450.89
1043.872	-54.95
1044.036	-358.05
1044.2	-278.18
1044.364	459.09
1044.528	534.86
1044.691	2728.24
1044.855	-294.57
1045.019	409.94
1045.183	321.87
1045.346	-112.3
1045.51	-200.36
1045.674	162.13
1045.837	315.73
1046.001	-226.98
1046.165	-286.37
1046.328	741.71
1046.492	338.26
1046.655	-1.71
1046.819	-75.43
1046.983	63.83
1047.146	297.3
1047.31	-186.02
1047.473	-323.24
1047.636	160.08
1047.8	22.87
1047.963	-167.59
1048.127	-167.59
1048.29	37.2
