Data from Ink_Intensity_USB4F045381__115__00115.txt Node

Date: Mon Jul 17 11:09:40 EDT 2023
User: mmckonesweet
Spectrometer: USB4F04538
Trigger mode: 4
Integration Time (sec): 9.000000E-1
Scans to average: 1
Electric dark correction enabled: true
Nonlinearity correction enabled: false
Boxcar width: 0
XAxis mode: Wavelengths
Number of Pixels in Spectrum: 3648
>>>>>Begin Spectral Data<<<<<
345.52	-942.58
345.736	-942.58
345.952	-942.58
346.168	-965.11
346.384	-1004.02
346.6	-121.34
346.816	-209.4
347.032	-223.74
347.248	185.85
347.464	-236.03
347.68	-96.77
347.896	93.69
348.112	376.31
348.328	-64
348.544	-123.39
348.76	118.27
348.975	300.54
349.191	-223.74
349.407	-186.88
349.623	-0.51
349.839	-43.52
350.055	-117.25
350.27	38.4
350.486	255.48
350.702	368.12
350.918	196.09
351.133	-186.88
351.349	222.72
351.565	388.6
351.781	-236.03
351.996	73.21
352.212	333.31
352.428	-102.91
352.644	-178.69
352.859	-209.4
353.075	337.4
353.291	54.78
353.506	-88.57
353.722	-276.99
353.938	-12.8
354.153	407.03
354.369	210.43
354.584	-160.25
354.8	165.37
355.016	-317.95
355.231	-176.64
355.447	-55.81
355.662	110.08
355.878	857.59
356.093	-268.8
356.309	-59.9
356.524	-240.12
356.74	273.92
356.955	-182.78
357.171	-94.72
357.386	148.99
357.602	-207.36
357.817	-51.71
358.033	-238.08
358.248	380.41
358.464	235
358.679	-141.82
358.895	-293.37
359.11	-33.28
359.325	249.34
359.541	13.82
359.756	42.5
359.972	-320
360.187	296.44
360.402	-215.55
360.618	-166.4
360.833	1029.62
361.048	210.43
361.264	-236.03
361.479	30.21
361.694	-68.09
361.909	214.52
362.125	-137.73
362.34	-127.49
362.555	288.25
362.77	116.22
362.986	-285.18
363.201	-201.21
363.416	124.41
363.631	5.63
363.847	-246.27
364.062	-184.83
364.277	210.43
364.492	71.17
364.707	-152.06
364.922	-375.29
365.138	296.44
365.353	331.26
365.568	-195.07
365.783	-184.83
365.998	13.82
366.213	574.97
366.428	-215.55
366.643	60.93
366.858	325.12
367.073	226.81
367.288	-102.91
367.503	-268.8
367.718	128.51
367.933	353.79
368.148	-303.61
368.363	-25.09
368.578	5.63
368.793	411.13
369.008	-164.35
369.223	-223.74
369.438	257.53
369.653	339.45
369.868	-182.78
370.083	-162.3
370.298	142.85
370.513	343.55
370.728	140.8
370.943	-268.8
371.157	-160.25
371.372	550.39
371.587	-330.23
371.802	-252.41
372.017	132.61
372.232	491
372.446	-96.77
372.661	-160.25
372.876	278.01
373.091	222.72
373.306	-43.52
373.52	-168.45
373.735	-147.97
373.95	464.38
374.165	-94.72
374.379	-107.01
374.594	-72.19
374.809	34.3
375.023	-14.85
375.238	-199.16
375.453	267.77
375.667	-211.45
375.882	-135.68
376.097	-117.25
376.311	40.45
376.526	56.83
376.741	-211.45
376.955	157.18
377.17	570.87
377.384	511.48
377.599	-35.33
377.813	-260.6
378.028	691.7
378.242	228.86
378.457	-86.53
378.672	-367.1
378.886	159.23
379.101	67.07
379.315	-281.08
379.53	-193.02
379.744	157.18
379.958	273.92
380.173	-88.57
380.387	-236.03
380.602	192
380.816	-102.91
381.031	-199.16
381.245	-145.92
381.459	255.48
381.674	2776.53
381.888	-178.69
382.103	73.21
382.317	-150.01
382.531	478.71
382.746	-82.43
382.96	-131.58
383.174	-74.24
383.388	398.84
383.603	11.78
383.817	-205.31
384.031	142.85
384.246	476.66
384.46	-59.9
384.674	304.64
384.888	73.21
385.103	75.26
385.317	-244.22
385.531	-49.66
385.745	361.98
385.959	271.87
386.174	-240.12
386.388	-195.07
386.602	67.07
386.816	-72.19
387.03	-59.9
387.244	-139.77
387.458	120.32
387.672	382.46
387.887	-252.41
388.101	-293.37
388.315	386.55
388.529	103.93
388.743	-162.3
388.957	-268.8
389.171	316.92
389.385	-184.83
389.599	-125.44
389.813	-6.66
390.027	218.62
390.241	593.4
390.455	-14.85
390.669	-113.15
390.883	-29.18
391.097	421.37
391.311	132.61
391.525	-100.86
391.738	253.44
391.952	194.05
392.166	-80.38
392.38	-227.84
392.594	286.2
392.808	314.88
393.022	-53.76
393.236	-104.96
393.449	259.58
393.663	185.85
393.877	-295.42
394.091	-119.29
394.305	-74.24
394.518	-39.42
394.732	-166.4
394.946	-195.07
395.16	474.62
395.373	163.33
395.587	-154.11
395.801	-150.01
396.015	321.02
396.228	253.44
396.442	-240.12
396.656	-268.8
396.869	353.79
397.083	413.18
397.297	-82.43
397.51	-182.78
397.724	419.32
397.938	198.14
398.151	-326.14
398.365	-238.08
398.578	304.64
398.792	400.89
399.005	71.17
399.219	-96.77
399.433	189.95
399.646	265.72
399.86	38.4
400.073	22.02
400.287	255.48
400.5	9.73
400.714	-29.18
400.927	-37.38
401.141	200.19
401.354	1050.1
401.567	210.43
401.781	-147.97
401.994	314.88
402.208	542.2
402.421	-150.01
402.635	-78.33
402.848	60.93
403.061	265.72
403.275	30.21
403.488	-229.88
403.701	521.72
403.915	306.68
404.128	-14.85
404.341	-199.16
404.555	108.03
404.768	95.74
404.981	-18.94
405.195	-190.97
405.408	484.86
405.621	255.48
405.834	5.63
406.048	-195.07
406.261	378.36
406.474	431.61
406.687	-158.21
406.9	-86.53
407.114	112.13
407.327	271.87
407.54	-231.93
407.753	-229.88
407.966	-90.62
408.179	271.87
408.392	-190.97
408.605	-375.29
408.819	183.81
409.032	212.48
409.245	-154.11
409.458	19.97
409.671	321.02
409.884	265.72
410.097	-309.76
410.31	-4.61
410.523	241.15
410.736	5.63
410.949	-72.19
411.162	-174.59
411.375	431.61
411.588	439.8
411.801	46.59
412.014	-178.69
412.227	136.7
412.44	-4.61
412.653	-172.54
412.865	42.5
413.078	230.91
413.291	284.16
413.504	-47.62
413.717	-117.25
413.93	239.1
414.143	-82.43
414.356	-84.48
414.568	-258.56
414.781	255.48
414.994	108.03
415.207	34.3
415.42	-80.38
415.632	245.24
415.845	460.28
416.058	-242.17
416.271	-242.17
416.483	136.7
416.696	550.39
416.909	-236.03
417.121	-227.84
417.334	239.1
417.547	486.9
417.759	-170.49
417.972	-150.01
418.185	-2.56
418.397	290.3
418.61	-51.71
418.823	-96.77
419.035	454.14
419.248	85.5
419.46	-90.62
419.673	-31.23
419.885	192
420.098	77.31
420.311	-150.01
420.523	-377.34
420.736	194.05
420.948	30.21
421.161	-135.68
421.373	-340.47
421.586	99.84
421.798	-20.99
422.01	-281.08
422.223	-23.04
422.435	-25.09
422.648	226.81
422.86	-154.11
423.073	-111.1
423.285	435.71
423.497	-203.26
423.71	-182.78
423.922	-119.29
424.134	157.18
424.347	456.19
424.559	65.02
424.771	144.89
424.984	1.54
425.196	214.52
425.408	-315.9
425.621	-199.16
425.833	314.88
426.045	364.03
426.257	-236.03
426.47	-96.77
426.682	224.76
426.894	232.96
427.106	-172.54
427.318	-102.91
427.531	-70.14
427.743	251.39
427.955	-156.16
428.167	292.35
428.379	183.81
428.591	-45.57
428.804	-37.38
429.016	-125.44
429.228	13.82
429.44	278.01
429.652	79.36
429.864	-231.93
430.076	46.59
430.288	-59.9
430.5	-45.57
430.712	-35.33
430.924	396.79
431.136	177.66
431.348	-293.37
431.56	-143.87
431.772	81.41
431.984	50.69
432.196	-219.64
432.408	-168.45
432.62	-94.72
432.832	148.99
433.044	122.37
433.256	3.58
433.468	189.95
433.679	-125.44
433.891	-231.93
434.103	-0.51
434.315	378.36
434.527	296.44
434.739	-104.96
434.95	-102.91
435.162	327.16
435.374	58.88
435.586	-133.63
435.798	-121.34
436.009	-160.25
436.221	7.68
436.433	-88.57
436.645	-59.9
436.856	-45.57
437.068	439.8
437.28	-242.17
437.491	130.56
437.703	95.74
437.915	116.22
438.126	-133.63
438.338	130.56
438.55	36.35
438.761	267.77
438.973	-64
439.184	-150.01
439.396	179.71
439.608	323.07
439.819	-215.55
440.031	-27.14
440.242	271.87
440.454	302.59
440.665	-152.06
440.877	-12.8
441.088	292.35
441.3	3.58
441.511	-279.04
441.723	-141.82
441.934	208.38
442.146	144.89
442.357	40.45
442.569	75.26
442.78	81.41
442.991	558.58
443.203	153.09
443.414	-262.65
443.626	409.08
443.837	-121.34
444.048	-236.03
444.26	-211.45
444.471	146.94
444.682	304.64
444.894	-334.33
445.105	-211.45
445.316	327.16
445.528	255.48
445.739	-6.66
445.95	-115.2
446.161	206.33
446.373	294.4
446.584	-102.91
446.795	-104.96
447.006	185.85
447.217	505.34
447.429	-303.61
447.64	-176.64
447.851	435.71
448.062	183.81
448.273	-406.01
448.484	-164.35
448.695	214.52
448.907	1.54
449.118	13.82
449.329	13.82
449.54	-55.81
449.751	-121.34
449.962	-186.88
450.173	-150.01
450.384	462.33
450.595	452.09
450.806	-109.05
451.017	-123.39
451.228	429.56
451.439	376.31
451.65	-141.82
451.861	-340.47
452.072	-145.92
452.283	105.98
452.494	42.5
452.705	-125.44
452.915	484.86
453.126	243.2
453.337	-41.47
453.548	-170.49
453.759	384.51
453.97	658.93
454.181	67.07
454.391	-129.53
454.602	112.13
454.813	245.24
455.024	-66.05
455.235	-170.49
455.445	175.61
455.656	247.29
455.867	-6.66
456.078	-141.82
456.288	95.74
456.499	232.96
456.71	-162.3
456.921	144.89
457.131	247.29
457.342	212.48
457.553	-96.77
457.763	-55.81
457.974	210.43
458.184	329.21
458.395	-217.6
458.606	-250.36
458.816	433.66
459.027	613.88
459.237	71.17
459.448	-272.89
459.659	409.08
459.869	738.8
460.08	-330.23
460.29	17.92
460.501	609.78
460.711	-51.71
460.922	-244.22
461.132	-135.68
461.343	763.38
461.553	-195.07
461.764	-129.53
461.974	-100.86
462.184	280.06
462.395	222.72
462.605	-133.63
462.816	-104.96
463.026	144.89
463.236	404.99
463.447	-170.49
463.657	-96.77
463.867	216.57
464.078	22.02
464.288	-123.39
464.498	-8.7
464.709	194.05
464.919	85.5
465.129	48.64
465.339	-135.68
465.55	165.37
465.76	343.55
465.97	-125.44
466.18	-154.11
466.391	333.31
466.601	206.33
466.811	17.92
467.021	-100.86
467.231	228.86
467.441	421.37
467.651	-59.9
467.862	-326.14
468.072	161.28
468.282	413.18
468.492	-117.25
468.702	-23.04
468.912	226.81
469.122	734.71
469.332	226.81
469.542	-184.83
469.752	327.16
469.962	249.34
470.172	-137.73
470.382	-98.81
470.592	357.88
470.802	493.05
471.012	30.21
471.222	-92.67
471.432	472.57
471.642	345.59
471.852	40.45
472.062	-152.06
472.272	237.05
472.482	-37.38
472.691	-203.26
472.901	-207.36
473.111	224.76
473.321	738.8
473.531	-170.49
473.741	32.26
473.95	290.3
474.16	316.92
474.37	58.88
474.58	-141.82
474.79	667.13
474.999	396.79
475.209	-94.72
475.419	-4.61
475.628	79.36
475.838	415.23
476.048	40.45
476.258	-137.73
476.467	476.66
476.677	169.47
476.886	167.42
477.096	75.26
477.306	36.35
477.515	628.21
477.725	3.58
477.935	110.08
478.144	548.34
478.354	189.95
478.563	56.83
478.773	-4.61
478.982	458.23
479.192	540.15
479.401	105.98
479.611	-55.81
479.82	38.4
480.03	409.08
480.239	-82.43
480.449	-90.62
480.658	642.55
480.868	105.98
481.077	136.7
481.287	26.11
481.496	370.17
481.705	628.21
481.915	271.87
482.124	308.73
482.333	333.31
482.543	722.42
482.752	87.55
482.961	36.35
483.171	468.47
483.38	314.88
483.589	85.5
483.799	62.98
484.008	261.63
484.217	513.53
484.426	52.74
484.636	-70.14
484.845	407.03
485.054	67.07
485.263	364.03
485.472	108.03
485.682	734.71
485.891	353.79
486.1	-20.99
486.309	87.55
486.518	460.28
486.727	738.8
486.936	48.64
487.146	282.11
487.355	749.04
487.564	208.38
487.773	124.41
487.982	155.13
488.191	271.87
488.4	454.14
488.609	126.46
488.818	83.45
489.027	986.61
489.236	732.66
489.445	228.86
489.654	126.46
489.863	716.28
490.072	591.35
490.281	493.05
490.49	200.19
490.698	767.48
490.907	763.38
491.116	232.96
491.325	9.73
491.534	755.19
491.743	517.62
491.952	312.83
492.16	288.25
492.369	626.17
492.578	630.26
492.787	308.73
492.996	93.69
493.204	345.59
493.413	1041.9
493.622	62.98
493.831	48.64
494.039	886.26
494.248	226.81
494.457	329.21
494.665	91.65
494.874	699.89
495.083	1009.14
495.291	292.35
495.5	220.67
495.709	742.9
495.917	599.54
496.126	468.47
496.335	206.33
496.543	386.55
496.752	601.59
496.96	554.49
497.169	181.76
497.377	632.31
497.586	796.15
497.794	347.64
498.003	148.99
498.211	507.38
498.42	984.56
498.628	388.6
498.837	192
499.045	744.95
499.254	654.84
499.462	396.79
499.671	247.29
499.879	1078.77
500.087	837.11
500.296	327.16
500.504	298.49
500.713	738.8
500.921	1164.78
501.129	290.3
501.338	398.84
501.546	726.52
501.754	646.65
501.962	505.34
502.171	249.34
502.379	775.67
502.587	998.9
502.795	476.66
503.004	456.19
503.212	654.84
503.42	931.31
503.628	495.1
503.837	562.68
504.045	818.68
504.253	1179.12
504.461	353.79
504.669	224.76
504.877	876.02
505.085	1134.06
505.294	288.25
505.502	652.79
505.71	822.77
505.918	931.31
506.126	402.94
506.334	435.71
506.542	783.86
506.75	861.68
506.958	658.93
507.166	542.2
507.374	642.55
507.582	1230.32
507.79	626.17
507.998	404.99
508.206	828.92
508.414	820.72
508.622	417.27
508.83	495.1
509.037	1220.08
509.245	679.41
509.453	419.32
509.661	378.36
509.869	982.51
510.077	685.56
510.285	622.07
510.492	226.81
510.7	1431.02
510.908	652.79
511.116	570.87
511.324	593.4
511.531	773.62
511.739	1037.81
511.947	732.66
512.155	947.7
512.362	892.4
512.57	646.65
512.778	497.14
512.985	454.14
513.193	1142.25
513.401	1201.65
513.608	691.7
513.816	562.68
514.024	1140.21
514.231	1228.27
514.439	585.21
514.646	648.69
514.854	1183.21
515.061	1197.55
515.269	691.7
515.477	554.49
515.684	673.27
515.892	1205.74
516.099	534.01
516.307	552.44
516.514	1039.86
516.722	1377.77
516.929	681.46
517.136	591.35
517.344	1283.56
517.551	1103.34
517.759	642.55
517.966	783.86
518.173	863.73
518.381	906.74
518.588	685.56
518.796	652.79
519.003	1125.87
519.21	939.51
519.418	726.52
519.625	984.56
519.832	914.93
520.039	1054.19
520.247	542.2
520.454	779.76
520.661	1324.52
520.868	1203.69
521.076	839.16
521.283	785.91
521.49	1656.29
521.697	1162.73
521.904	734.71
522.112	783.86
522.319	1299.95
522.526	1205.74
522.733	855.54
522.94	734.71
523.147	1148.4
523.354	1297.9
523.561	654.84
523.768	882.16
523.975	1377.77
524.183	1183.21
524.39	972.27
524.597	720.37
524.804	1115.63
525.011	1000.94
525.218	792.05
525.425	994.8
525.632	1596.9
525.838	951.79
526.045	953.84
526.252	722.42
526.459	2254.3
526.666	1967.59
526.873	814.58
527.08	828.92
527.287	1531.37
527.494	1410.54
527.701	857.59
527.907	833.01
528.114	1349.1
528.321	1103.34
528.528	1052.14
528.735	1046
528.941	1156.59
529.148	1074.67
529.355	1086.96
529.562	906.74
529.768	1639.91
529.975	1181.17
530.182	988.66
530.388	1025.52
530.595	1674.73
530.802	990.7
531.008	1062.38
531.215	982.51
531.422	1854.95
531.628	2141.66
531.835	1027.57
532.042	1220.08
532.248	1281.52
532.455	1449.45
532.661	1158.64
532.868	978.42
533.074	1463.79
533.281	1633.77
533.487	1156.59
533.694	1089.01
533.9	1156.59
534.107	1529.32
534.313	1068.53
534.52	988.66
534.726	1592.81
534.933	1811.94
535.139	1033.71
535.345	1086.96
535.552	1471.98
535.758	1471.98
535.965	1218.03
536.171	1113.58
536.377	1824.23
536.584	1889.76
536.79	1273.32
536.996	1334.76
537.203	1701.35
537.409	1578.47
537.615	1306.09
537.821	1373.68
538.028	1809.89
538.234	1644.01
538.44	1238.51
538.646	1234.41
538.853	1656.29
539.059	1467.88
539.265	1570.28
539.471	1054.19
539.677	1770.98
539.883	1510.89
540.09	1211.89
540.296	1660.39
540.502	1619.43
540.708	1486.31
540.914	1562.09
541.12	1277.42
541.326	1869.28
541.532	1664.49
541.738	1486.31
541.944	1482.22
542.15	1908.19
542.356	1680.87
542.562	1263.08
542.768	1525.22
542.974	2242.01
543.18	2104.8
543.386	1361.39
543.592	1166.83
543.798	2094.56
544.004	2041.31
544.21	1377.77
544.415	1555.94
544.621	1721.83
544.827	2092.51
545.033	1453.55
545.239	1744.36
545.445	1668.58
545.651	1918.43
545.856	1504.75
546.062	1609.19
546.268	1719.78
546.474	1893.86
546.679	1521.13
546.885	1564.14
547.091	1750.5
547.297	2418.14
547.502	1564.14
547.708	1455.59
547.914	1676.77
548.119	2082.27
548.325	1537.51
548.531	1467.88
548.736	2192.86
548.942	1615.34
549.147	1527.27
549.353	1828.32
549.559	2317.79
549.764	1934.82
549.97	1611.24
550.175	1639.91
550.381	2172.38
550.586	1754.6
550.792	1703.4
550.997	1695.21
551.203	2072.03
551.408	2098.66
551.614	1670.63
551.819	1629.67
552.025	2485.72
552.23	2459.1
552.435	1680.87
552.641	1797.6
552.846	1943.01
553.052	2330.08
553.257	1803.75
553.462	1707.49
553.668	1920.48
553.873	2401.76
554.078	1664.49
554.283	1807.84
554.489	2254.3
554.694	2002.4
554.899	1869.28
555.105	2078.18
555.31	2323.93
555.515	2289.12
555.72	1869.28
555.925	1803.75
556.131	2483.67
556.336	2162.14
556.541	1871.33
556.746	1666.53
556.951	2532.83
557.156	2639.32
557.361	1934.82
557.567	2098.66
557.772	2696.66
557.977	2350.56
558.182	1779.17
558.387	1871.33
558.592	2129.38
558.797	2618.84
559.002	2082.27
559.207	2209.25
559.412	2242.01
559.617	2725.33
559.822	1936.87
560.027	2053.6
560.232	2409.95
560.437	2543.07
560.642	1916.39
560.847	1916.39
561.051	2297.31
561.256	2459.1
561.461	2106.85
561.666	1983.97
561.871	2381.28
562.076	2487.77
562.281	2139.62
562.485	2047.46
562.69	2655.7
562.895	2641.37
563.1	2086.37
563.305	2092.51
563.509	2690.52
563.714	2995.67
563.919	2123.23
564.123	2213.34
564.328	2483.67
564.533	2840.02
564.737	2143.71
564.942	2203.1
565.147	2985.43
565.351	2985.43
565.556	2266.59
565.761	2231.77
565.965	2635.22
566.17	2313.69
566.374	2215.39
566.579	2067.94
566.784	2657.75
566.988	2448.86
567.193	2106.85
567.397	2119.14
567.602	2325.98
567.806	2557.4
568.011	2397.66
568.215	2272.73
568.42	2528.73
568.624	2545.11
568.828	2346.46
569.033	2549.21
569.237	2866.64
569.442	2883.03
569.646	2178.53
569.85	2436.57
570.055	2606.55
570.259	2694.61
570.463	2610.65
570.668	2530.78
570.872	2688.47
571.076	2702.81
571.281	2670.04
571.485	2516.44
571.689	2850.26
571.893	2987.47
572.098	2520.54
572.302	2477.53
572.506	3018.19
572.71	2756.05
572.914	2711
573.119	2448.86
573.323	3093.97
573.527	3179.98
573.731	2543.07
573.935	2418.14
574.139	2840.02
574.343	2588.12
574.547	2575.83
574.751	2590.17
574.955	3237.33
575.159	3136.98
575.364	2520.54
575.568	2536.92
575.772	2893.27
575.976	3210.7
576.18	2551.26
576.383	2563.54
576.587	3257.81
576.791	3126.74
576.995	2487.77
577.199	2508.25
577.403	3139.02
577.607	3339.73
577.811	2635.22
578.015	2846.16
578.219	2969.04
578.422	3186.13
578.626	2897.36
578.83	3001.81
579.034	3241.42
579.238	3145.17
579.442	2696.66
579.645	3304.91
579.849	3089.87
580.053	3188.18
580.257	2831.83
580.46	2854.36
580.664	3378.64
580.868	3368.4
581.071	3081.68
581.275	2876.88
581.479	2846.16
581.682	3319.25
581.886	2928.08
582.09	3022.29
582.293	3386.83
582.497	3331.53
582.7	3208.66
582.904	2934.23
583.107	3335.63
583.311	3282.38
583.515	3132.88
583.718	3128.78
583.922	3360.2
584.125	3769.8
584.329	2938.32
584.532	3210.7
584.735	3610.06
584.939	3593.67
585.142	2811.35
585.346	2907.6
585.549	3597.77
585.753	3220.94
585.956	3141.07
586.159	3266
586.363	3757.51
586.566	3560.91
586.769	3042.77
586.973	2987.47
587.176	3655.11
587.379	3808.71
587.582	3431.88
587.786	3390.92
587.989	3474.89
588.192	4066.75
588.395	3458.51
588.599	3493.32
588.802	3679.69
589.005	3718.6
589.208	3442.12
589.411	3327.44
589.615	3702.22
589.818	3825.09
590.021	3610.06
590.224	3556.81
590.427	3851.72
590.63	3810.76
590.833	3243.47
591.036	3427.79
591.239	3710.41
591.442	3528.14
591.645	3679.69
591.848	3309.01
592.051	3935.68
592.254	4023.75
592.457	3380.68
592.66	3491.27
592.863	3673.54
593.066	3763.65
593.269	3421.64
593.472	3610.06
593.675	3665.35
593.878	4070.85
594.081	3667.4
594.284	3478.99
594.486	3890.63
594.689	3816.9
594.892	3622.34
595.095	3513.8
595.298	3853.77
595.5	3749.32
595.703	3839.43
595.906	3847.62
596.109	4220.35
596.311	4171.2
596.514	3478.99
596.717	3718.6
596.92	4253.12
597.122	4146.62
597.325	3407.31
597.528	3677.64
597.73	4402.62
597.933	4056.51
598.136	3679.69
598.338	3579.34
598.541	4308.41
598.743	4394.43
598.946	3734.98
599.148	3888.58
599.351	4404.67
599.554	4304.32
599.756	4085.19
599.959	3796.42
600.161	4519.36
600.363	4715.96
600.566	4238.78
600.768	3870.15
600.971	4574.65
601.173	4478.4
601.376	4003.27
601.578	4120
601.78	4230.59
601.983	4795.83
602.185	3843.53
602.388	4224.45
602.59	4455.87
602.792	4294.08
602.995	4220.35
603.197	3988.93
603.399	4437.44
603.601	4539.83
603.804	4101.57
604.006	4005.31
604.208	4257.22
604.41	4052.42
604.613	4347.33
604.815	4070.85
605.017	4890.04
605.219	4312.51
605.421	4455.87
605.623	4230.59
605.826	4824.5
606.028	4818.36
606.23	4214.21
606.432	4230.59
606.634	4791.73
606.836	4648.38
607.038	4126.15
607.24	4419
607.442	4578.75
607.644	4588.99
607.846	4486.59
608.048	4163.01
608.25	4732.34
608.452	4349.37
608.654	4339.13
608.856	3974.6
609.058	4521.4
609.26	4650.43
609.462	4412.86
609.664	4355.52
609.866	5066.16
610.067	4781.5
610.269	4568.51
610.471	4273.6
610.673	4466.11
610.875	4836.79
611.077	4298.17
611.278	4484.54
611.48	4736.44
611.682	5131.7
611.884	4552.12
612.085	4351.42
612.287	4629.95
612.489	4838.84
612.69	4445.63
612.892	4500.92
613.094	4955.57
613.295	4935.09
613.497	4353.47
613.699	4523.45
613.9	5051.83
614.102	5199.28
614.304	4670.9
614.505	4318.65
614.707	4832.69
614.908	4836.79
615.11	4345.28
615.311	4638.14
615.513	5053.87
615.714	5234.1
615.916	4515.26
616.117	4683.19
616.319	4912.57
616.52	5164.47
616.722	4627.9
616.923	4580.79
617.124	5311.92
617.326	5053.87
617.527	4826.55
617.729	4834.74
617.93	5213.62
618.131	5131.7
618.333	4722.1
618.534	4765.11
618.735	4806.07
618.937	5346.73
619.138	4771.26
619.339	4580.79
619.54	5139.89
619.742	4914.61
619.943	4916.66
620.144	4785.59
620.345	5246.38
620.546	5313.97
620.748	4806.07
620.949	4974
621.15	5008.82
621.351	5217.71
621.552	4949.43
621.753	4654.52
621.954	4873.65
622.155	5600.68
622.356	4894.13
622.558	5129.65
622.759	5246.38
622.96	5680.55
623.161	4957.62
623.362	4871.61
623.563	5162.42
623.764	5279.15
623.965	5135.79
624.166	5262.77
624.366	5182.9
624.567	5371.31
624.768	4765.11
624.969	4885.94
625.17	5174.71
625.371	5395.89
625.572	5186.99
625.773	5082.55
625.973	5772.71
626.174	5586.35
626.375	5094.83
626.576	5133.75
626.777	5440.94
626.977	6096.29
627.178	5148.08
627.379	5385.65
627.58	5371.31
627.78	5526.96
627.981	5273.01
628.182	5412.27
628.382	5643.69
628.583	5154.23
628.784	5094.83
628.984	5283.25
629.185	5522.86
629.386	5694.89
629.586	5379.5
629.787	5215.66
629.987	5770.66
630.188	5510.57
630.388	5295.54
630.589	5303.73
630.79	6196.64
630.99	5475.76
631.191	5348.78
631.391	5440.94
631.591	5703.08
631.792	5973.41
631.992	5664.17
632.193	5461.42
632.393	6075.81
632.594	5707.18
632.794	5469.61
632.994	5502.38
633.195	5660.07
633.395	5795.24
633.595	5324.21
633.796	5830.06
633.996	5543.34
634.196	6020.52
634.397	5381.55
634.597	5686.7
634.797	5641.64
634.997	6196.64
635.198	5707.18
635.398	5350.83
635.598	5883.3
635.798	6071.72
635.998	5940.65
636.199	5510.57
636.399	5832.1
636.599	5682.6
636.799	5629.35
636.999	5881.25
637.199	6036.9
637.399	6292.9
637.599	5688.75
637.799	5678.51
637.999	5756.33
638.199	6284.7
638.399	5639.59
638.599	5844.39
638.799	6204.83
638.999	6448.54
639.199	6006.18
639.399	6065.57
639.599	6321.57
639.799	5791.14
639.999	5670.31
640.199	5875.11
640.399	6004.13
640.599	6114.72
640.799	5971.36
640.998	6110.63
641.198	6493.6
641.398	6321.57
641.598	6036.9
641.798	6143.39
641.997	7218.58
642.197	6153.63
642.397	6002.08
642.597	5907.88
642.796	6280.61
642.996	6514.08
643.196	6002.08
643.395	5825.96
643.595	6544.8
643.795	5887.4
643.994	5866.92
644.194	5918.12
644.394	6419.87
644.593	6219.17
644.793	5961.13
644.992	6260.13
645.192	6608.28
645.392	5858.73
645.591	6221.22
645.791	6133.15
645.99	6606.24
646.19	6243.74
646.389	6301.09
646.589	6182.31
646.788	6532.51
646.987	6546.84
647.187	6563.23
647.386	6370.72
647.586	6458.78
647.785	6876.57
647.984	6415.77
648.184	6372.77
648.383	6452.64
648.582	6589.85
648.782	6258.08
648.981	6374.81
649.18	6327.71
649.38	6639
649.579	6280.61
649.778	6157.73
649.977	6776.22
650.177	6755.74
650.376	6208.93
650.575	6337.95
650.774	7153.04
650.973	6485.41
651.173	6311.33
651.372	6690.2
651.571	6641.05
651.77	6938.01
651.969	6481.31
652.168	6712.73
652.367	6491.55
652.566	6817.18
652.765	6407.58
652.964	6731.16
653.163	7357.84
653.362	6815.13
653.561	6421.92
653.76	6692.25
653.959	6737.31
654.158	7099.8
654.357	6833.56
654.556	6690.2
654.755	6929.81
654.954	7120.28
655.153	6667.67
655.352	6868.38
655.551	7290.26
655.749	6694.3
655.948	6792.6
656.147	6835.61
656.346	7103.89
656.545	7077.27
656.743	6862.23
656.942	6759.83
657.141	7075.22
657.34	6935.96
657.538	6817.18
657.737	6737.31
657.936	7021.97
658.135	7083.41
658.333	6665.63
658.532	7050.64
658.731	7726.47
658.929	7341.46
659.128	7167.38
659.326	6815.13
659.525	7374.22
659.724	7200.15
659.922	6542.75
660.121	6725.02
660.319	7060.88
660.518	6915.48
660.716	6821.27
660.915	6978.97
661.113	7601.55
661.312	6829.46
661.51	7079.32
661.709	6866.33
661.907	7515.53
662.105	7579.02
662.304	7093.65
662.502	7105.94
662.701	7499.15
662.899	7103.89
663.097	7349.65
663.296	6964.63
663.494	7443.85
663.692	7777.67
663.891	7153.04
664.089	6895
664.287	7501.2
664.485	7705.99
664.684	7001.49
664.882	7064.98
665.08	7411.09
665.278	7466.38
665.476	7056.79
665.675	7523.73
665.873	7753.1
666.071	7845.26
666.269	7060.88
666.467	7493.01
666.665	7615.88
666.863	7325.07
667.061	7404.94
667.259	7165.33
667.457	7581.07
667.655	7693.71
667.853	7286.16
668.051	7296.4
668.249	7247.25
668.447	7859.59
668.645	7181.71
668.843	7619.98
669.041	7835.02
669.239	7546.25
669.437	7533.97
669.635	7394.7
669.833	7327.12
670.031	7628.17
670.229	7468.43
670.426	7392.66
670.624	7519.63
670.822	7441.81
671.02	7376.27
671.218	7484.81
671.415	7419.28
671.613	7783.82
671.811	7589.26
672.009	7560.59
672.206	7837.06
672.404	7554.44
672.602	7660.94
672.799	7464.33
672.997	7828.87
673.195	7968.13
673.392	7536.01
673.59	7341.46
673.788	7902.6
673.985	7189.91
674.183	7595.4
674.38	7523.73
674.578	7701.9
674.775	7458.19
674.973	7284.11
675.17	7429.52
675.368	8131.97
675.565	7835.02
675.763	7386.51
675.96	7536.01
676.158	8048.01
676.355	7667.08
676.553	7650.7
676.75	7624.08
676.947	8037.77
677.145	7773.58
677.342	7681.42
677.539	7808.39
677.737	8070.53
677.934	8369.54
678.131	7771.53
678.329	7660.94
678.526	8125.83
678.723	8039.81
678.92	7847.3
679.118	7624.08
679.315	7513.49
679.512	8324.48
679.709	7810.44
679.906	7728.52
680.104	8074.63
680.301	7828.87
680.498	7425.42
680.695	7642.51
680.892	7740.81
681.089	7923.08
681.286	7792.01
681.483	7511.44
681.68	8152.45
681.877	8162.69
682.075	7662.99
682.272	7808.39
682.469	8017.29
682.665	8000.9
682.862	7562.64
683.059	7583.12
683.256	8131.97
683.453	7982.47
683.65	7763.34
683.847	7873.93
684.044	7927.18
684.241	7703.95
684.438	7992.71
684.635	7488.91
684.831	8443.26
685.028	8426.88
685.225	7792.01
685.422	8043.91
685.619	7746.95
685.815	8017.29
686.012	7775.63
686.209	7927.18
686.405	7835.02
686.602	8152.45
686.799	7785.87
686.996	7804.3
687.192	7701.9
687.389	8457.6
687.586	7656.84
687.782	7675.27
687.979	8469.89
688.175	8164.74
688.372	7712.14
688.568	7722.38
688.765	7808.39
688.962	8494.46
689.158	7994.76
689.355	7687.56
689.551	8177.03
689.748	7966.09
689.944	8187.27
690.14	7820.68
690.337	8328.58
690.533	7959.94
690.73	8109.44
690.926	8070.53
691.123	8314.24
691.319	8177.03
691.515	7587.21
691.712	7933.32
691.908	8103.3
692.104	8308.1
692.301	8050.05
692.497	7953.8
692.693	8562.05
692.889	8269.19
693.086	8193.41
693.282	7667.08
693.478	8017.29
693.674	8496.51
693.87	7878.02
694.067	7816.58
694.263	8199.55
694.459	8281.47
694.655	8230.27
694.851	8082.82
695.047	8541.57
695.243	8328.58
695.439	8045.96
695.635	8052.1
695.831	8396.16
696.027	8179.08
696.224	7908.74
696.42	8363.39
696.615	8449.41
696.811	8439.17
697.007	7908.74
697.203	8103.3
697.399	8482.17
697.595	8574.33
697.791	8072.58
697.987	8177.03
698.183	8138.12
698.379	8005
698.575	8193.41
698.77	8082.82
698.966	8533.37
699.162	8703.36
699.358	7923.08
699.554	8037.77
699.749	8584.57
699.945	8322.43
700.141	8058.25
700.337	8342.91
700.532	8228.23
700.728	8215.94
700.924	8043.91
701.119	8048.01
701.315	8371.58
701.511	8371.58
701.706	8347.01
701.902	7927.18
702.097	8299.91
702.293	8607.1
702.489	8035.72
702.684	8271.23
702.88	8322.43
703.075	8424.83
703.271	8140.16
703.466	8160.64
703.662	8390.02
703.857	8691.07
704.053	8082.82
704.248	8058.25
704.443	8418.69
704.639	8404.35
704.834	8166.79
705.03	8082.82
705.225	8478.08
705.42	8719.74
705.616	8357.25
705.811	8117.64
706.006	8203.65
706.202	8406.4
706.397	8318.34
706.592	8131.97
706.787	8510.85
706.983	8467.84
707.178	8467.84
707.373	8312.19
707.568	8719.74
707.763	8762.75
707.959	8484.22
708.154	8172.93
708.349	8373.63
708.544	8740.22
708.739	8392.06
708.934	8064.39
709.129	8717.69
709.324	8846.71
709.519	8260.99
709.714	8148.36
709.909	8873.34
710.104	8633.72
710.299	8246.66
710.494	8455.55
710.689	8648.06
710.884	8674.68
711.079	8441.22
711.274	8437.12
711.469	8805.75
711.664	8793.47
711.859	8469.89
712.054	8734.07
712.249	8574.33
712.443	8742.27
712.638	8220.03
712.833	8406.4
713.028	8605.05
713.223	8447.36
713.417	8590.72
713.612	8353.15
713.807	8639.87
714.002	9278.83
714.196	8611.2
714.391	8449.41
714.586	8707.45
714.78	8551.81
714.975	8422.78
715.17	8308.1
715.364	8617.34
715.559	8863.1
715.754	7918.98
715.948	8242.56
716.143	9209.2
716.337	8772.99
716.532	8562.05
716.726	8443.26
716.921	8746.36
717.115	9094.52
717.31	8097.16
717.504	8969.59
717.699	8658.3
717.893	8607.1
718.088	8256.9
718.282	8242.56
718.476	8406.4
718.671	8861.05
718.865	8308.1
719.059	8525.18
719.254	8752.51
719.448	8938.87
719.642	9829.74
719.837	7982.47
720.031	8945.02
720.225	8807.8
720.419	8488.32
720.614	8181.12
720.808	8906.1
721.002	8664.44
721.196	8115.59
721.39	8242.56
721.585	8791.42
721.779	8545.66
721.973	8293.76
722.167	8121.73
722.361	8754.55
722.555	8908.15
722.749	8293.76
722.943	8428.93
723.137	8324.48
723.331	8820.09
723.525	8482.17
723.719	8490.37
723.913	8588.67
724.107	8957.3
724.301	8187.27
724.495	8381.82
724.689	8912.25
724.883	8932.73
725.077	8586.62
725.271	8562.05
725.465	9047.41
725.659	8646.01
725.853	8367.49
726.046	8222.08
726.24	8537.47
726.434	8867.19
726.628	8381.82
726.822	8529.28
727.015	8930.68
727.209	9119.09
727.403	8582.53
727.596	8336.77
727.79	8930.68
727.984	8803.71
728.177	8447.36
728.371	8537.47
728.565	8932.73
728.758	8484.22
728.952	8473.98
729.146	8383.87
729.339	9026.93
729.533	8637.82
729.726	8572.29
729.92	8453.5
730.113	9112.95
730.307	8787.32
730.5	8441.22
730.694	8441.22
730.887	8744.31
731.081	8834.43
731.274	8529.28
731.468	8621.44
731.661	9057.65
731.854	8605.05
732.048	8592.76
732.241	8394.11
732.435	8684.92
732.628	8947.06
732.821	8754.55
733.014	8603
733.208	8523.13
733.401	9115
733.594	8670.59
733.788	8605.05
733.981	9184.63
734.174	9020.79
734.367	8455.55
734.56	8897.91
734.754	9137.52
734.947	8887.67
735.14	8670.59
735.333	8631.68
735.526	9035.13
735.719	8639.87
735.912	8537.47
736.105	8576.38
736.298	9067.89
736.491	8672.64
736.684	8621.44
736.877	8557.95
737.07	9039.22
737.263	9250.16
737.456	8582.53
737.649	8643.96
737.842	8721.79
738.035	9049.46
738.228	8758.65
738.421	8654.2
738.614	9237.88
738.807	9268.59
739	8564.09
739.192	8553.85
739.385	9217.4
739.578	9227.64
739.771	8897.91
739.964	8734.07
740.156	9067.89
740.349	8924.54
740.542	8963.45
740.735	8664.44
740.927	8840.57
741.12	8916.34
741.313	8680.83
741.505	9117.04
741.698	9174.39
741.891	9067.89
742.083	8848.76
742.276	8775.03
742.468	8998.26
742.661	8967.54
742.854	8807.8
743.046	8844.67
743.239	9291.12
743.431	8990.07
743.624	8797.56
743.816	8469.89
744.009	8945.02
744.201	9028.98
744.393	9078.13
744.586	8689.02
744.778	9471.34
744.971	9037.17
745.163	8846.71
745.355	8725.88
745.548	9131.38
745.74	8965.5
745.932	8758.65
746.125	8764.79
746.317	9708.91
746.509	8981.88
746.702	8856.95
746.894	8942.97
747.086	8996.21
747.278	9313.65
747.471	8832.38
747.663	8797.56
747.855	9069.94
748.047	9641.32
748.239	8682.88
748.431	8650.11
748.623	9379.18
748.815	9291.12
749.008	8725.88
749.2	8744.31
749.392	9182.58
749.584	9088.37
749.776	8879.48
749.968	8904.06
750.16	9467.25
750.352	8973.69
750.544	8852.86
750.736	8791.42
750.928	9227.64
751.12	9012.6
751.311	8643.96
751.503	9028.98
751.695	9153.91
751.887	9278.83
752.079	8654.2
752.271	8705.4
752.463	9790.83
752.654	9346.42
752.846	8904.06
753.038	8736.12
753.23	8861.05
753.421	9102.71
753.613	8936.82
753.805	9047.41
753.997	9172.34
754.188	9233.78
754.38	8926.58
754.572	8711.55
754.763	9053.56
754.955	9141.62
755.146	8961.4
755.338	8818.04
755.53	9368.95
755.721	8988.02
755.913	8695.16
756.104	8840.57
756.296	9047.41
756.487	9215.35
756.679	8732.03
756.87	8717.69
757.062	8887.67
757.253	8924.54
757.445	8691.07
757.636	8836.47
757.827	8996.21
758.019	9747.82
758.21	8701.31
758.401	8813.95
758.593	9747.82
758.784	9344.37
758.975	8535.42
759.167	8545.66
759.358	8945.02
759.549	9180.53
759.74	8715.64
759.932	8703.36
760.123	9024.89
760.314	8912.25
760.505	8844.67
760.696	8695.16
760.888	9643.37
761.079	8838.52
761.27	8570.24
761.461	8514.94
761.652	9436.53
761.843	8840.57
762.034	8887.67
762.225	9057.65
762.416	9184.63
762.607	8930.68
762.798	8955.26
762.989	8443.26
763.18	9737.58
763.371	8834.43
763.562	8779.13
763.753	8719.74
763.944	9098.61
764.135	9141.62
764.326	8938.87
764.517	8570.24
764.708	8918.39
764.899	9098.61
765.089	8469.89
765.28	8414.59
765.471	8818.04
765.662	8844.67
765.853	8592.76
766.043	8326.53
766.234	9057.65
766.425	9225.59
766.615	8660.35
766.806	8359.3
766.997	9188.72
767.187	8779.13
767.378	8603
767.569	8623.48
767.759	8992.12
767.95	8922.49
768.141	8820.09
768.331	8621.44
768.522	9000.31
768.712	9028.98
768.903	8529.28
769.093	8383.87
769.284	9084.28
769.474	8836.47
769.665	8285.57
769.855	8484.22
770.046	8861.05
770.236	8523.13
770.426	8658.3
770.617	8359.3
770.807	8967.54
770.998	8801.66
771.188	8701.31
771.378	8381.82
771.569	8942.97
771.759	8859
771.949	8557.95
772.139	8217.99
772.33	8643.96
772.52	9135.48
772.71	8400.26
772.9	8396.16
773.09	9172.34
773.281	8985.97
773.471	8146.31
773.661	8400.26
773.851	8899.96
774.041	8744.31
774.231	8508.8
774.421	8615.29
774.611	9080.18
774.802	8693.12
774.992	8592.76
775.182	8424.83
775.372	8590.72
775.562	8875.38
775.752	8570.24
775.942	8205.7
776.131	9045.37
776.321	8598.91
776.511	8222.08
776.701	8269.19
776.891	8732.03
777.081	8447.36
777.271	8349.06
777.461	8269.19
777.651	8785.27
777.84	8940.92
778.03	8301.95
778.22	8232.32
778.41	8918.39
778.599	8478.08
778.789	8242.56
778.979	8252.8
779.169	8725.88
779.358	8299.91
779.548	8566.14
779.738	8177.03
779.927	8574.33
780.117	8457.6
780.307	8457.6
780.496	8074.63
780.686	8705.4
780.875	9112.95
781.065	8480.13
781.254	8140.16
781.444	8525.18
781.633	8592.76
781.823	8211.84
782.012	8306.05
782.202	8494.46
782.391	8453.5
782.581	8068.48
782.77	8250.75
782.96	8777.08
783.149	8250.75
783.338	8107.4
783.528	8144.26
783.717	8875.38
783.906	8740.22
784.096	8439.17
784.285	8260.99
784.474	8322.43
784.663	8422.78
784.853	8244.61
785.042	8015.24
785.231	8418.69
785.42	8621.44
785.61	8246.66
785.799	7923.08
785.988	8449.41
786.177	8287.62
786.366	8312.19
786.555	8328.58
786.744	8801.66
786.933	8447.36
787.122	8050.05
787.312	8144.26
787.501	8357.25
787.69	8406.4
787.879	8226.18
788.068	8041.86
788.257	8209.79
788.445	8220.03
788.634	8146.31
788.823	8074.63
789.012	8977.78
789.201	8811.9
789.39	8256.9
789.579	7677.32
789.768	8369.54
789.957	8332.67
790.145	8193.41
790.334	7900.55
790.523	8387.97
790.712	8543.61
790.9	8035.72
791.089	7865.74
791.278	8570.24
791.467	8154.5
791.655	8187.27
791.844	8600.96
792.033	7994.76
792.221	8117.64
792.41	8043.91
792.599	7757.19
792.787	8473.98
792.976	8619.39
793.164	7796.11
793.353	7959.94
793.541	8430.98
793.73	8443.26
793.918	8113.54
794.107	7990.66
794.295	8162.69
794.484	8154.5
794.672	8062.34
794.861	7968.13
795.049	8461.69
795.238	8672.64
795.426	7771.53
795.614	8037.77
795.803	8336.77
795.991	8613.24
796.179	7820.68
796.368	7830.92
796.556	8674.68
796.744	8056.2
796.932	7939.46
797.121	7921.03
797.309	8107.4
797.497	8471.93
797.685	7888.26
797.874	8109.44
798.062	8123.78
798.25	8684.92
798.438	7882.12
798.626	7972.23
798.814	8463.74
799.002	8666.49
799.19	8127.88
799.378	8068.48
799.566	8420.74
799.755	8500.61
799.943	8324.48
800.131	7970.18
800.318	8258.95
800.506	8553.85
800.694	8023.43
800.882	8037.77
801.07	8709.5
801.258	8265.09
801.446	7951.75
801.634	8131.97
801.822	8166.79
802.01	8238.47
802.197	8078.72
802.385	8119.68
802.573	8492.41
802.761	8154.5
802.949	8111.49
803.136	7927.18
803.324	8519.04
803.512	8365.44
803.699	8142.21
803.887	7984.52
804.075	8766.84
804.262	8385.92
804.45	8052.1
804.638	8054.15
804.825	8263.04
805.013	8209.79
805.201	8271.23
805.388	8119.68
805.576	8453.5
805.763	8951.16
805.951	8252.8
806.138	8435.07
806.326	9002.36
806.513	8576.38
806.701	8484.22
806.888	8095.11
807.075	8433.02
807.263	8889.72
807.45	8248.71
807.638	8457.6
807.825	8947.06
808.012	8686.97
808.2	8340.86
808.387	8574.33
808.574	8807.8
808.761	8920.44
808.949	8494.46
809.136	8545.66
809.323	8680.83
809.51	8516.99
809.698	8824.19
809.885	8504.7
810.072	8598.91
810.259	9039.22
810.446	8482.17
810.633	8199.55
810.82	9100.66
811.008	9145.72
811.195	8617.34
811.382	8471.93
811.569	8818.04
811.756	8486.27
811.943	8449.41
812.13	8488.32
812.317	8672.64
812.504	8734.07
812.691	8738.17
812.878	8648.06
813.064	9321.84
813.251	8748.41
813.438	8488.32
813.625	8615.29
813.812	8584.57
813.999	8744.31
814.186	8795.51
814.372	8770.94
814.559	8762.75
814.746	9160.05
814.933	8658.3
815.12	8856.95
815.306	8793.47
815.493	8551.81
815.68	8615.29
815.866	8662.4
816.053	9110.9
816.24	9155.96
816.426	8709.5
816.613	8697.21
816.799	8998.26
816.986	9067.89
817.173	8529.28
817.359	8510.85
817.546	8877.43
817.732	8656.25
817.919	8359.3
818.105	8803.71
818.292	8852.86
818.478	8998.26
818.665	8992.12
818.851	8568.19
819.037	9348.47
819.224	9094.52
819.41	8471.93
819.597	8463.74
819.783	9057.65
819.969	8977.78
820.156	8744.31
820.342	8478.08
820.528	9608.56
820.714	8787.32
820.901	8824.19
821.087	8619.39
821.273	9309.55
821.459	8859
821.646	8521.09
821.832	8570.24
822.018	8867.19
822.204	8945.02
822.39	8678.78
822.576	8592.76
822.762	9031.03
822.948	8727.93
823.134	8727.93
823.32	8521.09
823.507	8615.29
823.693	8736.12
823.879	9006.45
824.065	8531.33
824.25	8713.6
824.436	8549.76
824.622	8392.06
824.808	8314.24
824.994	8607.1
825.18	8478.08
825.366	8367.49
825.552	8725.88
825.738	8785.27
825.923	9096.57
826.109	8701.31
826.295	8443.26
826.481	8527.23
826.667	8680.83
826.852	8668.54
827.038	8342.91
827.224	9104.76
827.409	9203.06
827.595	8275.33
827.781	8502.65
827.966	9008.5
828.152	9014.65
828.338	8371.58
828.523	8127.88
828.709	8537.47
828.894	8955.26
829.08	8480.13
829.266	8504.7
829.451	8562.05
829.637	8699.26
829.822	8246.66
830.008	8392.06
830.193	8848.76
830.378	9061.75
830.564	8471.93
830.749	8383.87
830.935	8590.72
831.12	8631.68
831.305	8258.95
831.491	8254.85
831.676	8222.08
831.861	8680.83
832.047	8504.7
832.232	8234.37
832.417	8619.39
832.602	8566.14
832.788	8279.43
832.973	8207.75
833.158	8316.29
833.343	8643.96
833.528	8508.8
833.714	8338.82
833.899	8545.66
834.084	9067.89
834.269	8453.5
834.454	8185.22
834.639	8643.96
834.824	8605.05
835.009	8306.05
835.194	8332.67
835.379	8996.21
835.564	8809.85
835.749	8390.02
835.934	8084.87
836.119	8568.19
836.304	8426.88
836.489	8134.02
836.674	8258.95
836.859	8242.56
837.044	8678.78
837.228	8045.96
837.413	8117.64
837.598	8527.23
837.783	8551.81
837.968	8127.88
838.152	7871.88
838.337	7894.41
838.522	8576.38
838.707	8531.33
838.891	8316.29
839.076	8433.02
839.261	8549.76
839.445	8193.41
839.63	8187.27
839.815	8615.29
839.999	8295.81
840.184	8197.51
840.368	7906.7
840.553	8342.91
840.737	8465.79
840.922	7998.85
841.106	7787.91
841.291	7865.74
841.475	8271.23
841.66	7906.7
841.844	8000.9
842.029	9004.41
842.213	7929.22
842.397	7916.94
842.582	7654.8
842.766	8496.51
842.951	8451.46
843.135	7980.42
843.319	7939.46
843.504	8254.85
843.688	8445.31
843.872	7832.97
844.056	7845.26
844.241	8271.23
844.425	8002.95
844.609	7945.61
844.793	7826.82
844.977	8486.27
845.161	8211.84
845.346	7990.66
845.53	7779.72
845.714	8336.77
845.898	8385.92
846.082	7583.12
846.266	7855.5
846.45	7988.61
846.634	8334.72
846.818	7775.63
847.002	7789.96
847.186	8304
847.37	7961.99
847.554	7591.31
847.738	7949.7
847.922	8080.77
848.106	8226.18
848.29	7380.37
848.473	7849.35
848.657	8156.55
848.841	8068.48
849.025	7648.65
849.209	7742.86
849.392	8136.07
849.576	7929.22
849.76	7261.59
849.944	7837.06
850.127	8361.34
850.311	7683.47
850.495	7607.69
850.678	7554.44
850.862	8234.37
851.046	8318.34
851.229	7931.27
851.413	7531.92
851.596	7820.68
851.78	7808.39
851.964	7906.7
852.147	7593.36
852.331	8562.05
852.514	8136.07
852.698	7712.14
852.881	7472.53
853.065	8009.09
853.248	7667.08
853.431	7443.85
853.615	7644.56
853.798	8263.04
853.982	7720.33
854.165	7660.94
854.348	7511.44
854.532	7591.31
854.715	7765.39
854.898	7595.4
855.081	7564.68
855.265	8152.45
855.448	8185.22
855.631	7548.3
855.814	7341.46
855.997	8033.67
856.181	7656.84
856.364	7540.11
856.547	7202.19
856.73	7765.39
856.913	7671.18
857.096	7232.91
857.279	7662.99
857.462	7646.6
857.645	7949.7
857.828	7794.06
858.011	7599.5
858.194	7386.51
858.377	7792.01
858.56	7196.05
858.743	7361.94
858.926	7509.39
859.109	7628.17
859.292	7277.97
859.475	7218.58
859.658	7849.35
859.841	7775.63
860.023	7259.54
860.206	7331.22
860.389	7662.99
860.572	7935.37
860.755	7286.16
860.937	7361.94
861.12	7363.98
861.303	7521.68
861.486	7327.12
861.668	7202.19
861.851	7597.45
862.034	7568.78
862.216	7310.74
862.399	6942.1
862.581	7683.47
862.764	7822.73
862.947	7140.76
863.129	7204.24
863.312	7157.14
863.494	7884.17
863.677	7355.79
863.859	6808.98
864.042	7224.72
864.224	7818.63
864.406	7273.87
864.589	6858.14
864.771	7677.32
864.954	7138.71
865.136	6907.29
865.318	6729.11
865.501	7429.52
865.683	6757.78
865.865	6933.91
866.048	6985.11
866.23	7304.59
866.412	7374.22
866.594	6813.08
866.777	6948.25
866.959	7454.09
867.141	7075.22
867.323	7239.06
867.505	7079.32
867.687	7163.28
867.869	7366.03
868.052	6921.62
868.234	6765.98
868.416	7183.76
868.598	7247.25
868.78	6958.49
868.962	6776.22
869.144	7411.09
869.326	7386.51
869.508	7081.36
869.69	6792.6
869.872	6958.49
870.054	7513.49
870.236	6624.67
870.417	6815.13
870.599	7243.15
870.781	7456.14
870.963	6987.16
871.145	7028.12
871.327	6854.04
871.508	7533.97
871.69	6833.56
871.872	6899.09
872.054	7210.39
872.235	7224.72
872.417	7085.46
872.599	6849.94
872.78	7585.16
872.962	7155.09
873.144	6757.78
873.325	6950.29
873.507	7556.49
873.689	7280.02
873.87	6864.28
874.052	6835.61
874.233	6995.35
874.415	7357.84
874.596	7036.31
874.778	6798.74
874.959	7247.25
875.141	7314.83
875.322	6946.2
875.503	6909.33
875.685	7417.23
875.866	6823.32
876.048	6985.11
876.229	7005.59
876.41	7257.49
876.592	7511.44
876.773	6808.98
876.954	6667.67
877.136	7675.27
877.317	7144.85
877.498	6884.76
877.679	7095.7
877.86	7392.66
878.042	7263.63
878.223	6968.73
878.404	7165.33
878.585	7595.4
878.766	7923.08
878.947	7396.75
879.128	7247.25
879.309	7462.29
879.49	7585.16
879.672	7218.58
879.853	7095.7
880.034	7107.99
880.215	7263.63
880.396	7222.67
880.576	7165.33
880.757	7411.09
880.938	7792.01
881.119	7040.4
881.3	7112.08
881.481	7402.9
881.662	8353.15
881.843	7177.62
882.023	7005.59
882.204	7536.01
882.385	7484.81
882.566	7370.13
882.747	7052.69
882.927	7644.56
883.108	7716.23
883.289	7314.83
883.469	7568.78
883.65	7742.86
883.831	7603.6
884.011	7433.61
884.192	7398.8
884.373	7945.61
884.553	7824.78
884.734	7314.83
884.914	7611.79
885.095	8330.62
885.275	8121.73
885.456	7708.04
885.636	7443.85
885.817	7660.94
885.997	7767.43
886.178	7298.45
886.358	7462.29
886.538	7720.33
886.719	8815.99
886.899	7409.04
887.08	7705.99
887.26	8136.07
887.44	7527.82
887.621	7525.77
887.801	7804.3
887.981	8398.21
888.161	8091.01
888.342	7808.39
888.522	7783.82
888.702	8031.62
888.882	8213.89
889.062	7746.95
889.242	7437.71
889.423	8291.71
889.603	8252.8
889.783	7890.31
889.963	7652.75
890.143	8097.16
890.323	8203.65
890.503	7601.55
890.683	7636.36
890.863	8074.63
891.043	8086.92
891.223	7837.06
891.403	7937.41
891.583	7818.63
891.763	7980.42
891.943	7992.71
892.122	7462.29
892.302	8248.71
892.482	7996.81
892.662	8064.39
892.842	7761.29
893.022	8166.79
893.201	7808.39
893.381	7826.82
893.561	7734.67
893.741	8351.1
893.92	8250.75
894.1	7859.59
894.28	7841.16
894.459	8334.72
894.639	8084.87
894.819	7746.95
894.998	7871.88
895.178	8359.3
895.357	8170.88
895.537	7732.62
895.716	7671.18
895.896	7947.65
896.075	8398.21
896.255	7998.85
896.434	7660.94
896.614	8338.82
896.793	8426.88
896.973	7978.37
897.152	7935.37
897.331	8127.88
897.511	8304
897.69	7626.12
897.87	7888.26
898.049	8203.65
898.228	8007.05
898.407	8043.91
898.587	7929.22
898.766	7849.35
898.945	7902.6
899.124	8009.09
899.304	7857.54
899.483	8146.31
899.662	8605.05
899.841	7619.98
900.02	7660.94
900.199	8103.3
900.378	8127.88
900.557	7456.14
900.737	7579.02
900.916	8242.56
901.095	8197.51
901.274	8093.06
901.453	7562.64
901.632	7904.65
901.811	7783.82
901.989	7685.51
902.168	7505.29
902.347	7898.5
902.526	7804.3
902.705	7599.5
902.884	7775.63
903.063	8383.87
903.242	8256.9
903.42	7441.81
903.599	7640.46
903.778	8260.99
903.957	8127.88
904.135	7679.37
904.314	7624.08
904.493	7882.12
904.672	7843.21
904.85	7415.18
905.029	7546.25
905.207	8045.96
905.386	8422.78
905.565	7239.06
905.743	7589.26
905.922	7636.36
906.1	8093.06
906.279	7394.7
906.457	7318.93
906.636	7595.4
906.814	7730.57
906.993	7386.51
907.171	7376.27
907.35	7910.79
907.528	7843.21
907.707	7802.25
907.885	7302.54
908.063	7970.18
908.242	7314.83
908.42	7316.88
908.598	7185.81
908.777	7687.56
908.955	7343.5
909.133	7488.91
909.311	7218.58
909.49	7462.29
909.668	7574.92
909.846	7353.74
910.024	7222.67
910.202	7665.04
910.38	7619.98
910.559	7251.35
910.737	7054.74
910.915	7419.28
911.093	7460.24
911.271	7167.38
911.449	7388.56
911.627	7497.1
911.805	7878.02
911.983	7128.47
912.161	7101.84
912.339	7447.95
912.517	7644.56
912.695	7130.52
912.872	7175.57
913.05	7099.8
913.228	7286.16
913.406	7142.8
913.584	7019.92
913.762	7525.77
913.939	7015.83
914.117	7054.74
914.295	6710.68
914.473	7335.31
914.65	7355.79
914.828	6772.12
915.006	6722.97
915.184	6851.99
915.361	7042.45
915.539	6839.7
915.716	6960.53
915.894	6972.82
916.072	7347.6
916.249	6935.96
916.427	6888.85
916.604	6626.71
916.782	7087.51
916.959	6620.57
917.137	6661.53
917.314	7050.64
917.492	7126.42
917.669	6880.66
917.847	6643.1
918.024	6983.06
918.201	6671.77
918.379	6661.53
918.556	6440.35
918.733	7206.29
918.911	6825.37
919.088	6774.17
919.265	6440.35
919.442	6849.94
919.62	6768.02
919.797	6548.89
919.974	6354.34
920.151	6716.83
920.328	6714.78
920.506	6571.42
920.683	6696.35
920.86	6542.75
921.037	6440.35
921.214	6372.77
921.391	6346.14
921.568	6679.96
921.745	6411.68
921.922	6274.46
922.099	6200.74
922.276	6714.78
922.453	6593.95
922.63	6139.3
922.807	6387.1
922.984	6577.56
923.161	6253.98
923.338	6266.27
923.514	6053.28
923.691	6454.69
923.868	6581.66
924.045	6084
924.222	6047.14
924.399	6219.17
924.575	6489.5
924.752	6294.94
924.929	6137.25
925.105	6170.02
925.282	6063.52
925.459	5868.97
925.635	5989.8
925.812	6104.48
925.989	5942.69
926.165	5817.77
926.342	5780.9
926.518	5828.01
926.695	5985.7
926.871	5694.89
927.048	5580.2
927.224	6272.42
927.401	5768.62
927.577	5711.27
927.754	5567.92
927.93	6145.44
928.107	6067.62
928.283	5483.95
928.459	5647.79
928.636	5922.21
928.812	5713.32
928.988	5469.61
929.165	5295.54
929.341	5719.46
929.517	5612.97
929.693	5737.9
929.87	5350.83
930.046	5776.81
930.222	5502.38
930.398	5442.99
930.574	5410.22
930.751	5658.03
930.927	5244.34
931.103	5295.54
931.279	5201.33
931.455	5307.82
931.631	5486
931.807	4890.04
931.983	5197.23
932.159	4990.39
932.335	5320.11
932.511	5141.94
932.687	5025.2
932.863	5244.34
933.039	5154.23
933.215	4777.4
933.391	4763.06
933.566	5055.92
933.742	5066.16
933.918	4824.5
934.094	4552.12
934.27	4986.29
934.445	4990.39
934.621	4775.35
934.797	4595.13
934.973	4978.1
935.148	4924.85
935.324	4367.81
935.5	4165.06
935.675	4928.95
935.851	4568.51
936.027	4392.38
936.202	4296.13
936.378	4548.03
936.553	4308.41
936.729	4488.64
936.904	3888.58
937.08	4033.99
937.255	3976.64
937.431	3933.64
937.606	3585.48
937.782	3720.65
937.957	3917.25
938.133	3722.7
938.308	3601.87
938.483	3732.94
938.659	3632.58
938.834	3417.55
939.009	3245.52
939.185	3395.02
939.36	3241.42
939.535	2975.19
939.71	3397.07
939.886	3681.74
940.061	3460.56
940.236	3231.18
940.411	3032.53
940.586	3327.44
940.761	3397.07
940.937	2946.52
941.112	2868.69
941.287	3081.68
941.462	3134.93
941.637	2727.38
941.812	2657.75
941.987	2993.62
942.162	3032.53
942.337	2934.23
942.512	2844.12
942.687	3227.09
942.862	3098.06
943.037	2608.6
943.212	2270.69
943.386	2780.63
943.561	2844.12
943.736	2749.91
943.911	2934.23
944.086	2979.28
944.26	3007.95
944.435	2581.98
944.61	2698.71
944.785	3050.96
944.959	3347.92
945.134	2633.18
945.309	2522.59
945.483	2536.92
945.658	2786.77
945.833	2215.39
946.007	2434.52
946.182	3159.5
946.357	2405.85
946.531	2383.32
946.706	2368.99
946.88	2237.92
947.055	2776.53
947.229	2518.49
947.404	2452.95
947.578	2991.57
947.752	2637.27
947.927	2375.13
948.101	2364.89
948.276	2749.91
948.45	2788.82
948.624	2704.85
948.799	2350.56
948.973	2727.38
949.147	2459.1
949.321	2610.65
949.496	2520.54
949.67	2971.09
949.844	2749.91
950.018	2608.6
950.193	2536.92
950.367	3278.29
950.541	2667.99
950.715	2663.9
950.889	2663.9
951.063	2676.18
951.237	2821.59
951.411	2319.84
951.585	2364.89
951.759	2835.92
951.933	2784.73
952.107	2473.43
952.281	2473.43
952.455	3085.78
952.629	2848.21
952.803	2483.67
952.977	2467.29
953.151	3016.15
953.325	2971.09
953.499	2622.94
953.672	2379.23
953.846	2573.78
954.02	2581.98
954.194	2508.25
954.368	2500.06
954.541	2817.49
954.715	2635.22
954.889	2569.69
955.062	2379.23
955.236	2768.34
955.41	2624.98
955.583	2610.65
955.757	2348.51
955.93	2667.99
956.104	2424.28
956.278	2448.86
956.451	2428.38
956.625	2872.79
956.798	3116.5
956.972	2862.55
957.145	2461.15
957.319	2672.09
957.492	2719.19
957.665	2620.89
957.839	2549.21
958.012	2915.8
958.185	2532.83
958.359	2412
958.532	2510.3
958.705	2926.04
958.879	2805.21
959.052	2504.15
959.225	2360.8
959.398	2827.73
959.572	2799.06
959.745	2416.09
959.918	2436.57
960.091	2532.83
960.264	2745.81
960.438	2242.01
960.611	2321.88
960.784	2897.36
960.957	2512.35
961.13	2794.97
961.303	2387.42
961.476	2610.65
961.649	2835.92
961.822	2334.17
961.995	2532.83
962.168	2862.55
962.341	2721.24
962.514	2584.02
962.686	2260.45
962.859	2647.51
963.032	2790.87
963.205	2366.94
963.378	2106.85
963.551	2596.31
963.723	2672.09
963.896	2428.38
964.069	2663.9
964.242	2745.81
964.414	2778.58
964.587	2293.21
964.76	2463.19
964.932	2538.97
965.105	2455
965.278	2313.69
965.45	2285.02
965.623	2530.78
965.795	2784.73
965.968	2412
966.14	2270.69
966.313	2549.21
966.485	2600.41
966.658	2186.72
966.83	2172.38
967.003	2780.63
967.175	2698.71
967.348	2297.31
967.52	2248.16
967.692	2928.08
967.865	2557.4
968.037	2321.88
968.209	2518.49
968.382	2426.33
968.554	2672.09
968.726	2268.64
968.898	2174.43
969.071	2776.53
969.243	2676.18
969.415	2295.26
969.587	2332.12
969.759	2938.32
969.932	2651.61
970.104	2319.84
970.276	1973.73
970.448	2420.19
970.62	2295.26
970.792	2397.66
970.964	2412
971.136	2975.19
971.308	2704.85
971.48	2117.09
971.652	2323.93
971.824	2813.4
971.996	2280.93
972.168	2205.15
972.339	2160.1
972.511	2715.09
972.683	2477.53
972.855	2362.84
973.027	2229.73
973.199	2303.45
973.37	2500.06
973.542	2268.64
973.714	2250.21
973.886	2325.98
974.057	2455
974.229	2000.35
974.401	2188.77
974.572	2133.47
974.744	1891.81
974.915	2061.79
975.087	2090.46
975.259	2762.2
975.43	2244.06
975.602	2139.62
975.773	1986.02
975.945	2145.76
976.116	2477.53
976.288	2072.03
976.459	2315.74
976.63	2315.74
976.802	2514.39
976.973	2065.89
977.145	2262.49
977.316	2653.66
977.487	2561.5
977.659	2250.21
977.83	2061.79
978.001	2674.14
978.172	2520.54
978.344	2049.5
978.515	2172.38
978.686	2235.87
978.857	2641.37
979.028	2160.1
979.2	1936.87
979.371	2500.06
979.542	2223.58
979.713	2180.57
979.884	1617.38
980.055	2033.12
980.226	2315.74
980.397	2022.88
980.568	1844.71
980.739	2512.35
980.91	2156
981.081	2127.33
981.252	1775.08
981.423	2280.93
981.594	2495.96
981.765	1807.84
981.936	2110.94
982.106	2209.25
982.277	2434.52
982.448	1922.53
982.619	2043.36
982.79	2026.98
982.96	2536.92
983.131	2004.45
983.302	1793.51
983.472	1971.68
983.643	2268.64
983.814	1904.1
983.984	1836.52
984.155	2088.42
984.326	2459.1
984.496	2147.81
984.667	1836.52
984.837	2000.35
985.008	2311.64
985.178	2102.75
985.349	1979.87
985.519	2168.29
985.69	1877.48
985.86	1889.76
986.031	1824.23
986.201	2143.71
986.371	2282.97
986.542	1711.59
986.712	1566.18
986.882	2149.86
987.053	2018.79
987.223	1725.93
987.393	2012.64
987.563	1914.34
987.734	2289.12
987.904	2106.85
988.074	1777.12
988.244	2078.18
988.414	1977.83
988.585	1670.63
988.755	1949.15
988.925	2053.6
989.095	2424.28
989.265	1680.87
989.435	1787.36
989.605	2139.62
989.775	2131.42
989.945	1943.01
990.115	1670.63
990.285	1840.61
990.455	1986.02
990.625	1752.55
990.795	1738.21
990.965	2244.06
991.134	1773.03
991.304	1586.66
991.474	1658.34
991.644	2094.56
991.814	2373.08
991.984	1570.28
992.153	1684.97
992.323	1908.19
992.493	1924.58
992.662	1512.94
992.832	1721.83
993.002	2100.7
993.171	1979.87
993.341	1463.79
993.511	1770.98
993.68	1830.37
993.85	2156
994.019	1525.22
994.189	1553.9
994.358	1877.48
994.528	1764.84
994.697	1373.68
994.867	1543.66
995.036	2041.31
995.206	1699.3
995.375	1498.6
995.544	1697.25
995.714	2067.94
995.883	1631.72
996.052	1697.25
996.222	1324.52
996.391	2307.55
996.56	1820.13
996.73	1478.12
996.899	1353.2
997.068	2102.75
997.237	1859.04
997.406	1404.39
997.576	1381.87
997.745	1912.29
997.914	2006.5
998.083	1166.83
998.252	1437.16
998.421	1746.41
998.59	1508.84
998.759	1461.74
998.928	1375.72
999.097	2012.64
999.266	1658.34
999.435	1504.75
999.604	1177.07
999.773	2278.88
999.942	1721.83
1000.111	1271.28
1000.28	1375.72
1000.448	1422.83
1000.617	1310.19
1000.786	1598.95
1000.955	1207.79
1001.124	1803.75
1001.292	2315.74
1001.461	1302
1001.63	1287.66
1001.798	1977.83
1001.967	2026.98
1002.136	1242.61
1002.304	1312.24
1002.473	1793.51
1002.642	1537.51
1002.81	1373.68
1002.979	1271.28
1003.147	1844.71
1003.316	2299.36
1003.484	1324.52
1003.653	1197.55
1003.821	1902.05
1003.99	1635.82
1004.158	1433.07
1004.327	1443.31
1004.495	1725.93
1004.663	1443.31
1004.832	1467.88
1005	1228.27
1005.168	1824.23
1005.337	1590.76
1005.505	1099.25
1005.673	1383.91
1005.842	1578.47
1006.01	1590.76
1006.178	1175.02
1006.346	1281.52
1006.514	1633.77
1006.683	1803.75
1006.851	1109.49
1007.019	1115.63
1007.187	1299.95
1007.355	1058.29
1007.523	984.56
1007.691	1082.86
1007.859	1277.42
1008.027	1873.38
1008.195	1144.3
1008.363	1046
1008.531	1736.17
1008.699	1369.58
1008.867	1019.38
1009.035	1115.63
1009.203	1730.02
1009.37	1406.44
1009.538	1132.01
1009.706	1545.7
1009.874	1457.64
1010.042	1435.11
1010.209	966.13
1010.377	998.9
1010.545	1582.57
1010.713	1418.73
1010.88	1002.99
1011.048	1017.33
1011.216	1369.58
1011.383	1816.04
1011.551	982.51
1011.718	978.42
1011.886	1648.1
1012.054	1443.31
1012.221	998.9
1012.389	1039.86
1012.556	1291.76
1012.724	1740.26
1012.891	1056.24
1013.058	892.4
1013.226	1439.21
1013.393	1494.51
1013.561	763.38
1013.728	753.14
1013.895	1582.57
1014.063	1396.2
1014.23	873.97
1014.397	890.35
1014.565	1527.27
1014.732	1215.98
1014.899	888.31
1015.066	898.55
1015.233	1320.43
1015.401	1406.44
1015.568	947.7
1015.735	1152.49
1015.902	1304.04
1016.069	1394.15
1016.236	849.4
1016.403	830.96
1016.57	982.51
1016.737	1486.31
1016.904	910.83
1017.071	828.92
1017.238	1009.14
1017.405	1390.06
1017.572	914.93
1017.739	1162.73
1017.906	1465.83
1018.073	1467.88
1018.24	826.87
1018.407	927.22
1018.573	1443.31
1018.74	1150.45
1018.907	968.18
1019.074	677.37
1019.241	1428.97
1019.407	1181.17
1019.574	804.34
1019.741	716.28
1019.907	1209.84
1020.074	1351.15
1020.241	626.17
1020.407	624.12
1020.574	1347.05
1020.74	1345
1020.907	843.25
1021.073	699.89
1021.24	1666.53
1021.406	1469.93
1021.573	763.38
1021.739	828.92
1021.906	1340.91
1022.072	1099.25
1022.239	755.19
1022.405	808.44
1022.571	1166.83
1022.738	935.41
1022.904	759.28
1023.07	738.8
1023.237	1019.38
1023.403	1320.43
1023.569	714.23
1023.735	851.44
1023.902	1240.56
1024.068	1172.97
1024.234	630.26
1024.4	675.32
1024.566	1129.97
1024.732	1220.08
1024.898	734.71
1025.065	445.95
1025.231	1295.85
1025.397	919.03
1025.563	558.58
1025.729	585.21
1025.895	646.65
1026.061	810.48
1026.227	593.4
1026.392	644.6
1026.558	1242.61
1026.724	1234.41
1026.89	622.07
1027.056	697.85
1027.222	1029.62
1027.388	755.19
1027.553	695.8
1027.719	620.02
1027.885	1418.73
1028.051	1158.64
1028.216	441.85
1028.382	597.49
1028.548	1144.3
1028.713	912.88
1028.879	417.27
1029.045	656.89
1029.21	1375.72
1029.376	1265.13
1029.541	574.97
1029.707	556.54
1029.873	1168.88
1030.038	1140.21
1030.204	587.26
1030.369	615.93
1030.534	1152.49
1030.7	863.73
1030.865	595.45
1031.031	599.54
1031.196	984.56
1031.361	984.56
1031.527	480.76
1031.692	542.2
1031.857	534.01
1032.023	1125.87
1032.188	447.99
1032.353	577.02
1032.518	1408.49
1032.684	857.59
1032.849	470.52
1033.014	599.54
1033.179	1058.29
1033.344	1021.42
1033.509	497.14
1033.674	558.58
1033.839	1009.14
1034.004	1103.34
1034.17	554.49
1034.335	417.27
1034.5	896.5
1034.664	738.8
1034.829	409.08
1034.994	544.25
1035.159	931.31
1035.324	949.75
1035.489	427.51
1035.654	407.03
1035.819	1164.78
1035.984	880.11
1036.148	493.05
1036.313	437.75
1036.478	1101.3
1036.643	816.63
1036.807	452.09
1036.972	464.38
1037.137	1277.42
1037.301	890.35
1037.466	314.88
1037.631	599.54
1037.795	1068.53
1037.96	919.03
1038.124	644.6
1038.289	419.32
1038.454	869.87
1038.618	849.4
1038.783	472.57
1038.947	544.25
1039.111	865.78
1039.276	628.21
1039.44	357.88
1039.605	882.16
1039.769	681.46
1039.933	685.56
1040.098	427.51
1040.262	579.06
1040.426	1066.48
1040.591	972.27
1040.755	296.44
1040.919	447.99
1041.083	927.22
1041.248	769.52
1041.412	314.88
1041.576	271.87
1041.74	648.69
1041.904	904.69
1042.068	282.11
1042.232	388.6
1042.397	951.79
1042.561	853.49
1042.725	210.43
1042.889	488.95
1043.053	853.49
1043.217	806.39
1043.381	407.03
1043.544	235
1043.708	857.59
1043.872	501.24
1044.036	81.41
1044.2	235
1044.364	968.18
1044.528	1062.38
1044.691	1738.21
1044.855	239.1
1045.019	929.27
1045.183	980.47
1045.346	300.54
1045.51	241.15
1045.674	837.11
1045.837	839.16
1046.001	372.22
1046.165	214.52
1046.328	1252.84
1046.492	826.87
1046.655	476.66
1046.819	304.64
1046.983	480.76
1047.146	796.15
1047.31	335.35
1047.473	179.71
1047.636	734.71
1047.8	429.56
1047.963	345.59
1048.127	206.33
1048.29	523.77
