Data from Ink_Intensity_USB4F045381__116__00116.txt Node

Date: Mon Jul 17 11:09:41 EDT 2023
User: mmckonesweet
Spectrometer: USB4F04538
Trigger mode: 4
Integration Time (sec): 9.000000E-1
Scans to average: 1
Electric dark correction enabled: true
Nonlinearity correction enabled: false
Boxcar width: 0
XAxis mode: Wavelengths
Number of Pixels in Spectrum: 3648
>>>>>Begin Spectral Data<<<<<
345.52	-1067.33
345.736	-1067.33
345.952	-1067.33
346.168	-1018.18
346.384	-1059.14
346.6	-158.03
346.816	-256.34
347.032	-207.19
347.248	341.67
347.464	-231.76
347.68	-127.32
347.896	116.39
348.112	360.1
348.328	-61.78
348.544	-67.92
348.76	1.71
348.975	290.47
349.191	-223.57
349.407	-203.09
349.623	13.99
349.839	-139.6
350.055	-94.55
350.27	-31.06
350.486	206.5
350.702	343.72
350.918	251.56
351.133	-262.48
351.349	138.92
351.565	380.58
351.781	-221.52
351.996	13.99
352.212	229.03
352.428	-155.99
352.644	-201.04
352.859	-203.09
353.075	229.03
353.291	81.58
353.506	-112.98
353.722	-270.67
353.938	-59.73
354.153	351.91
354.369	136.87
354.584	-239.95
354.8	186.02
355.016	-371.02
355.231	-180.56
355.447	-74.07
355.662	50.86
355.878	702.11
356.093	-366.93
356.309	-92.5
356.524	-194.9
356.74	294.57
356.955	-264.53
357.171	-22.87
357.386	108.2
357.602	-285.01
357.817	-112.98
358.033	-209.23
358.248	356.01
358.464	136.87
358.679	-223.57
358.895	-393.55
359.11	-29.01
359.325	259.75
359.541	63.15
359.756	-35.16
359.972	-377.17
360.187	247.46
360.402	-223.57
360.618	-119.12
360.833	962.2
361.048	110.25
361.264	-182.61
361.479	-86.36
361.694	20.14
361.909	257.7
362.125	-166.23
362.34	-96.6
362.555	214.7
362.77	11.95
362.986	-182.61
363.201	-158.03
363.416	181.93
363.631	-55.64
363.847	-166.23
364.062	-10.58
364.277	192.17
364.492	54.95
364.707	-254.29
364.922	-381.26
365.138	210.6
365.353	267.94
365.568	-309.58
365.783	-145.75
365.998	42.67
366.213	546.47
366.428	-287.06
366.643	102.06
366.858	235.18
367.073	253.61
367.288	-33.11
367.503	-254.29
367.718	67.24
367.933	304.81
368.148	-291.15
368.363	-43.35
368.578	-106.84
368.793	442.02
369.008	-155.99
369.223	-221.52
369.438	165.54
369.653	339.62
369.868	-350.54
370.083	-252.24
370.298	91.82
370.513	417.44
370.728	18.09
370.943	-248.15
371.157	-115.03
371.372	530.08
371.587	-348.5
371.802	-360.78
372.017	-4.44
372.232	337.57
372.446	-41.3
372.661	-246.1
372.876	179.88
373.091	126.63
373.306	-80.21
373.52	-287.06
373.735	-192.85
373.95	360.1
374.165	-145.75
374.379	-123.22
374.594	-158.03
374.809	79.53
375.023	44.71
375.238	-256.34
375.453	276.13
375.667	-315.73
375.882	-215.38
376.097	-174.42
376.311	13.99
376.526	-24.92
376.741	-203.09
376.955	79.53
377.17	605.86
377.384	523.94
377.599	-59.73
377.813	-291.15
378.028	509.6
378.242	202.41
378.457	-74.07
378.672	-350.54
378.886	38.57
379.101	-47.44
379.315	-401.74
379.53	-203.09
379.744	204.46
379.958	147.11
380.173	-108.88
380.387	-248.15
380.602	108.2
380.816	-59.73
381.031	-125.27
381.245	-149.84
381.459	214.7
381.674	2733.7
381.888	-184.66
382.103	87.72
382.317	-213.33
382.531	431.78
382.746	-63.83
382.96	-198.99
383.174	-153.94
383.388	419.49
383.603	73.39
383.817	-252.24
384.031	132.78
384.246	509.6
384.46	-51.54
384.674	218.79
384.888	57
385.103	52.91
385.317	-346.45
385.531	-67.92
385.745	345.77
385.959	302.76
386.174	-242
386.388	-248.15
386.602	71.34
386.816	-174.42
387.03	-59.73
387.244	-100.69
387.458	83.63
387.672	292.52
387.887	-317.78
388.101	-289.1
388.315	286.37
388.529	110.25
388.743	-145.75
388.957	-289.1
389.171	282.28
389.385	-205.14
389.599	-170.32
389.813	18.09
390.027	169.64
390.241	644.77
390.455	-174.42
390.669	-100.69
390.883	-51.54
391.097	335.53
391.311	1.71
391.525	-221.52
391.738	224.94
391.952	161.45
392.166	-86.36
392.38	-268.63
392.594	222.89
392.808	337.57
393.022	-121.17
393.236	-182.61
393.449	202.41
393.663	136.87
393.877	-256.34
394.091	-117.08
394.305	-172.37
394.518	-88.4
394.732	-354.64
394.946	-129.36
395.16	384.68
395.373	71.34
395.587	-211.28
395.801	-248.15
396.015	294.57
396.228	134.82
396.442	-287.06
396.656	-360.78
396.869	304.81
397.083	466.6
397.297	-127.32
397.51	-90.45
397.724	419.49
397.938	155.3
398.151	-344.4
398.365	-264.53
398.578	216.74
398.792	339.62
399.005	-43.35
399.219	-135.51
399.433	104.11
399.646	194.22
399.86	-74.07
400.073	-43.35
400.287	224.94
400.5	13.99
400.714	-65.88
400.927	-104.79
401.141	210.6
401.354	1085.08
401.567	222.89
401.781	-289.1
401.994	202.41
402.208	601.76
402.421	-141.65
402.635	-55.64
402.848	26.28
403.061	321.19
403.275	-67.92
403.488	-321.87
403.701	480.93
403.915	251.56
404.128	20.14
404.341	-203.09
404.555	175.78
404.768	-6.49
404.981	-31.06
405.195	-225.62
405.408	446.12
405.621	212.65
405.834	40.62
406.048	-235.86
406.261	435.88
406.474	431.78
406.687	-285.01
406.9	-43.35
407.114	9.9
407.327	208.55
407.54	-358.74
407.753	-264.53
407.966	-100.69
408.179	161.45
408.392	-188.75
408.605	-354.64
408.819	126.63
409.032	175.78
409.245	-274.77
409.458	59.05
409.671	220.84
409.884	188.07
410.097	-276.82
410.31	5.8
410.523	224.94
410.736	-18.77
410.949	-182.61
411.162	-145.75
411.375	401.06
411.588	274.09
411.801	-65.88
412.014	-289.1
412.227	-47.44
412.44	22.19
412.653	-280.91
412.865	-45.4
413.078	200.36
413.291	196.26
413.504	-121.17
413.717	-229.71
413.93	251.56
414.143	-170.32
414.356	-90.45
414.568	-334.16
414.781	206.5
414.994	153.26
415.207	-198.99
415.42	-76.12
415.632	292.52
415.845	589.47
416.058	-315.73
416.271	-256.34
416.483	128.68
416.696	491.17
416.909	-203.09
417.121	-213.33
417.334	243.37
417.547	499.36
417.759	-272.72
417.972	-190.8
418.185	-76.12
418.397	269.99
418.61	-180.56
418.823	-264.53
419.035	337.57
419.248	61.1
419.46	-127.32
419.673	-0.34
419.885	171.69
420.098	-63.83
420.311	-178.51
420.523	-317.78
420.736	192.17
420.948	54.95
421.161	-158.03
421.373	-325.97
421.586	128.68
421.798	-125.27
422.01	-303.44
422.223	-59.73
422.435	-121.17
422.648	138.92
422.86	-131.41
423.073	-178.51
423.285	294.57
423.497	-178.51
423.71	-256.34
423.922	-143.7
424.134	138.92
424.347	368.29
424.559	44.71
424.771	177.83
424.984	3.75
425.196	153.26
425.408	-371.02
425.621	-280.91
425.833	284.33
426.045	401.06
426.257	-266.58
426.47	-186.71
426.682	140.97
426.894	177.83
427.106	-115.03
427.318	-166.23
427.531	-170.32
427.743	192.17
427.955	-92.5
428.167	243.37
428.379	202.41
428.591	-57.68
428.804	-72.02
429.016	-252.24
429.228	-74.07
429.44	138.92
429.652	59.05
429.864	-287.06
430.076	-43.35
430.288	-100.69
430.5	-133.46
430.712	-49.49
430.924	241.32
431.136	161.45
431.348	-311.63
431.56	-192.85
431.772	54.95
431.984	-26.96
432.196	-170.32
432.408	-182.61
432.62	-12.63
432.832	132.78
433.044	57
433.256	-39.25
433.468	183.98
433.679	-254.29
433.891	-293.2
434.103	13.99
434.315	450.21
434.527	208.55
434.739	-141.65
434.95	-164.18
435.162	276.13
435.374	-61.78
435.586	-92.5
435.798	-225.62
436.009	-207.19
436.221	50.86
436.433	-166.23
436.645	-108.88
436.856	-39.25
437.068	341.67
437.28	-239.95
437.491	95.91
437.703	97.96
437.915	116.39
438.126	-135.51
438.338	54.95
438.55	5.8
438.761	214.7
438.973	-51.54
439.184	-229.71
439.396	122.54
439.608	241.32
439.819	-242
440.031	-92.5
440.242	257.7
440.454	155.3
440.665	-149.84
440.877	-59.73
441.088	204.46
441.3	-0.34
441.511	-282.96
441.723	-227.67
441.934	259.75
442.146	97.96
442.357	44.71
442.569	75.43
442.78	46.76
442.991	485.03
443.203	145.06
443.414	-299.34
443.626	380.58
443.837	-100.69
444.048	-203.09
444.26	-368.98
444.471	89.77
444.682	239.27
444.894	-432.46
445.105	-248.15
445.316	306.85
445.528	194.22
445.739	-117.08
445.95	-162.13
446.161	165.54
446.373	343.72
446.584	-158.03
446.795	-153.94
447.006	177.83
447.217	476.84
447.429	-317.78
447.64	-313.68
447.851	444.07
448.062	104.11
448.273	-420.17
448.484	-182.61
448.695	247.46
448.907	-18.77
449.118	-59.73
449.329	44.71
449.54	1.71
449.751	-176.47
449.962	-92.5
450.173	-239.95
450.384	392.87
450.595	435.88
450.806	-174.42
451.017	-129.36
451.228	466.6
451.439	351.91
451.65	-176.47
451.861	-338.26
452.072	-168.27
452.283	11.95
452.494	-4.44
452.705	-198.99
452.915	487.08
453.126	218.79
453.337	-153.94
453.548	-250.19
453.759	353.96
453.97	618.15
454.181	59.05
454.391	-131.41
454.602	153.26
454.813	226.98
455.024	-90.45
455.235	-215.38
455.445	161.45
455.656	147.11
455.867	-8.53
456.078	-168.27
456.288	-72.02
456.499	202.41
456.71	-98.64
456.921	130.73
457.131	255.65
457.342	159.4
457.553	-74.07
457.763	-151.89
457.974	220.84
458.184	349.86
458.395	-180.56
458.606	-287.06
458.816	358.05
459.027	612
459.237	-8.53
459.448	-285.01
459.659	372.39
459.869	612
460.08	-297.3
460.29	-65.88
460.501	532.13
460.711	-117.08
460.922	-239.95
461.132	-139.6
461.343	820.89
461.553	-264.53
461.764	-196.95
461.974	-147.8
462.184	366.25
462.395	138.92
462.605	-147.8
462.816	-266.58
463.026	161.45
463.236	427.68
463.447	-186.71
463.657	-143.7
463.867	325.29
464.078	-55.64
464.288	-78.16
464.498	-229.71
464.709	54.95
464.919	75.43
465.129	-100.69
465.339	-254.29
465.55	231.08
465.76	321.19
465.97	-178.51
466.18	-121.17
466.391	374.44
466.601	226.98
466.811	-61.78
467.021	-239.95
467.231	237.22
467.441	444.07
467.651	-8.53
467.862	-344.4
468.072	128.68
468.282	450.21
468.492	-186.71
468.702	-57.68
468.912	100.01
469.122	790.17
469.332	161.45
469.542	-198.99
469.752	304.81
469.962	126.63
470.172	-248.15
470.382	-223.57
470.592	452.26
470.802	448.16
471.012	-37.2
471.222	-174.42
471.432	356.01
471.642	294.57
471.852	16.04
472.062	-90.45
472.272	186.02
472.482	-98.64
472.691	-223.57
472.901	-172.37
473.111	224.94
473.321	677.54
473.531	-160.08
473.741	13.99
473.95	214.7
474.16	333.48
474.37	54.95
474.58	-219.47
474.79	673.44
474.999	392.87
475.209	-123.22
475.419	16.04
475.628	57
475.838	554.66
476.048	-4.44
476.258	-141.65
476.467	583.33
476.677	124.58
476.886	153.26
477.096	108.2
477.306	75.43
477.515	595.62
477.725	85.67
477.935	91.82
478.144	468.64
478.354	67.24
478.563	22.19
478.773	-104.79
478.982	370.34
479.192	501.41
479.401	50.86
479.611	-153.94
479.82	54.95
480.03	278.18
480.239	-8.53
480.449	-133.46
480.658	599.71
480.868	157.35
481.077	54.95
481.287	7.85
481.496	415.4
481.705	597.67
481.915	237.22
482.124	282.28
482.333	360.1
482.543	669.34
482.752	140.97
482.961	-16.73
483.171	437.92
483.38	296.61
483.589	102.06
483.799	-57.68
484.008	288.42
484.217	476.84
484.426	134.82
484.636	-29.01
484.845	396.96
485.054	83.63
485.263	382.63
485.472	30.38
485.682	765.6
485.891	353.96
486.1	-22.87
486.309	112.3
486.518	593.57
486.727	767.65
486.936	34.47
487.146	188.07
487.355	724.64
487.564	128.68
487.773	46.76
487.982	145.06
488.191	226.98
488.4	431.78
488.609	112.3
488.818	229.03
489.027	898.72
489.236	751.26
489.445	181.93
489.654	81.58
489.863	657.06
490.072	532.13
490.281	505.51
490.49	140.97
490.698	812.7
490.907	812.7
491.116	194.22
491.325	-10.58
491.534	753.31
491.743	509.6
491.952	243.37
492.16	233.13
492.369	612
492.578	741.02
492.787	267.94
492.996	18.09
493.204	351.91
493.413	900.76
493.622	-47.44
493.831	69.29
494.039	831.13
494.248	329.38
494.457	310.95
494.665	114.34
494.874	652.96
495.083	1048.22
495.291	302.76
495.5	210.6
495.709	673.44
495.917	577.19
496.126	360.1
496.335	239.27
496.543	435.88
496.752	591.52
496.96	595.62
497.169	134.82
497.377	503.46
497.586	816.8
497.794	417.44
498.003	44.71
498.211	525.99
498.42	888.48
498.628	448.16
498.837	177.83
499.045	693.92
499.254	607.91
499.462	255.65
499.671	224.94
499.879	990.88
500.087	865.95
500.296	399.01
500.504	384.68
500.713	747.17
500.921	1074.84
501.129	382.63
501.338	399.01
501.546	669.34
501.754	646.82
501.962	370.34
502.171	278.18
502.379	728.74
502.587	1058.46
502.795	415.4
503.004	360.1
503.212	614.05
503.42	851.61
503.628	427.68
503.837	366.25
504.045	841.37
504.253	1087.13
504.461	360.1
504.669	204.46
504.877	906.91
505.085	1115.8
505.294	292.52
505.502	564.9
505.71	702.11
505.918	882.33
506.126	366.25
506.334	419.49
506.542	730.78
506.75	743.07
506.958	640.67
507.166	571.04
507.374	593.57
507.582	1130.14
507.79	523.94
507.998	411.3
508.206	933.53
508.414	794.27
508.622	450.21
508.83	493.22
509.037	1193.62
509.245	712.35
509.453	435.88
509.661	409.25
509.869	956.06
510.077	614.05
510.285	628.39
510.492	206.5
510.7	1361.56
510.908	781.98
511.116	532.13
511.324	519.84
511.531	673.44
511.739	882.33
511.947	738.98
512.155	743.07
512.362	904.86
512.57	577.19
512.778	464.55
512.985	399.01
513.193	1115.8
513.401	1230.49
513.608	710.3
513.816	573.09
514.024	943.77
514.231	1134.23
514.439	591.52
514.646	661.15
514.854	986.78
515.061	1134.23
515.269	628.39
515.477	603.81
515.684	702.11
515.892	1224.34
516.099	431.78
516.307	472.74
516.514	1177.24
516.722	1302.17
516.929	648.86
517.136	509.6
517.344	1336.98
517.551	1056.41
517.759	624.29
517.966	661.15
518.173	906.91
518.381	997.02
518.588	802.46
518.796	726.69
519.003	1226.39
519.21	939.68
519.418	560.8
519.625	960.16
519.832	1040.03
520.039	1060.51
520.247	517.79
520.454	677.54
520.661	1234.58
520.868	1107.61
521.076	755.36
521.283	759.46
521.49	1640.08
521.697	1193.62
521.904	921.24
522.112	786.08
522.319	1296.02
522.526	1152.67
522.733	716.45
522.94	798.37
523.147	1072.79
523.354	1230.49
523.561	603.81
523.768	829.09
523.975	1285.78
524.183	1140.38
524.39	829.09
524.597	738.98
524.804	1156.76
525.011	902.81
525.218	841.37
525.425	777.89
525.632	1443.48
525.838	941.72
526.045	771.74
526.252	839.33
526.459	2320.01
526.666	2035.34
526.873	820.89
527.08	941.72
527.287	1586.83
527.494	1447.57
527.701	820.89
527.907	829.09
528.114	1332.89
528.321	1205.91
528.528	931.48
528.735	990.88
528.941	1093.27
529.148	1033.88
529.355	1023.64
529.562	964.25
529.768	1623.7
529.975	1117.85
530.182	943.77
530.388	904.86
530.595	1697.42
530.802	1023.64
531.008	1224.34
531.215	1037.98
531.422	1648.27
531.628	2006.67
531.835	1109.66
532.042	1132.19
532.248	1150.62
532.455	1373.85
532.661	1085.08
532.868	947.87
533.074	1455.76
533.281	1560.21
533.487	1040.03
533.694	886.43
533.9	1207.96
534.107	1523.35
534.313	960.16
534.52	1054.36
534.726	1662.61
534.933	1978
535.139	1080.99
535.345	1005.21
535.552	1341.08
535.758	1375.89
535.965	1171.1
536.171	1187.48
536.377	1629.84
536.584	1824.4
536.79	1154.71
536.996	1310.36
537.203	1541.78
537.409	1635.99
537.615	1160.86
537.821	1324.69
538.028	1726.1
538.234	1539.73
538.44	1189.53
538.646	1279.64
538.853	1621.65
539.059	1556.11
539.265	1695.38
539.471	939.68
539.677	1801.87
539.883	1529.49
540.09	1228.44
540.296	1662.61
540.502	1476.24
540.708	1492.63
540.914	1513.11
541.12	1242.78
541.326	1719.95
541.532	1648.27
541.738	1439.38
541.944	1390.23
542.15	1932.94
542.356	1623.7
542.562	1265.3
542.768	1476.24
542.974	2225.8
543.18	2225.8
543.386	1423
543.592	1228.44
543.798	2109.07
544.004	1982.09
544.21	1412.76
544.415	1578.64
544.621	1844.88
544.827	1957.52
545.033	1394.33
545.239	1619.6
545.445	1590.93
545.651	1824.4
545.856	1486.48
546.062	1447.57
546.268	1644.18
546.474	1820.3
546.679	1525.4
546.885	1488.53
547.091	1648.27
547.297	2246.28
547.502	1668.75
547.708	1468.05
547.914	1607.31
548.119	1980.04
548.325	1504.92
548.531	1414.81
548.736	2141.83
548.942	1545.88
549.147	1570.45
549.353	1787.54
549.559	2285.19
549.764	1877.65
549.97	1650.32
550.175	1652.37
550.381	2059.92
550.586	1836.69
550.792	1666.71
550.997	1656.47
551.203	2066.06
551.408	2049.68
551.614	1562.26
551.819	1595.03
552.025	2352.77
552.23	2449.03
552.435	1558.16
552.641	1875.6
552.846	1834.64
553.052	2305.67
553.257	1910.41
553.462	1756.82
553.668	2021
553.873	2303.62
554.078	1779.34
554.283	1726.1
554.489	2111.11
554.694	2047.63
554.899	1582.74
555.105	1922.7
555.31	2285.19
555.515	2240.14
555.72	2057.87
555.925	1705.62
556.131	2281.1
556.336	2016.91
556.541	1805.97
556.746	1713.81
556.951	2397.83
557.156	2475.65
557.361	1918.61
557.567	2080.39
557.772	2645.63
557.977	2227.85
558.182	1906.32
558.387	1918.61
558.592	1873.55
558.797	2561.67
559.002	1971.85
559.207	2102.92
559.412	2393.73
559.617	2653.83
559.822	1896.08
560.027	1865.36
560.232	2260.62
560.437	2555.52
560.642	1898.13
560.847	1908.37
561.051	2363.01
561.256	2358.92
561.461	2008.72
561.666	1990.28
561.871	2389.64
562.076	2475.65
562.281	2080.39
562.485	1947.28
562.69	2645.63
562.895	2573.96
563.1	2139.79
563.305	2004.62
563.509	2766.46
563.714	2963.07
563.919	2078.35
564.123	2115.21
564.328	2377.35
564.533	2743.94
564.737	2152.07
564.942	2150.03
565.147	2936.45
565.351	2958.97
565.556	2348.68
565.761	2320.01
565.965	2397.83
566.17	2281.1
566.374	2270.86
566.579	2156.17
566.784	2606.72
566.988	2496.13
567.193	2143.88
567.397	2293.38
567.602	2289.29
567.806	2528.9
568.011	2295.43
568.215	2442.89
568.42	2664.07
568.624	2530.95
568.828	2365.06
569.033	2465.41
569.237	2797.18
569.442	2727.55
569.646	2229.9
569.85	2369.16
570.055	2668.16
570.259	2715.27
570.463	2739.84
570.668	2489.99
570.872	2694.79
571.076	2612.87
571.281	2512.52
571.485	2416.26
571.689	2856.58
571.893	2868.86
572.098	2741.89
572.302	2526.85
572.506	3020.41
572.71	2778.75
572.914	2537.09
573.119	2459.27
573.323	3004.03
573.527	3110.52
573.731	2586.24
573.935	2469.51
574.139	2811.52
574.343	2614.91
574.547	2471.56
574.751	2647.68
574.955	3182.2
575.159	3143.29
575.364	2653.83
575.568	2494.08
575.772	2954.88
575.976	3159.67
576.18	2508.42
576.383	2408.07
576.587	3155.58
576.791	3008.12
576.995	2494.08
577.199	2408.07
577.403	3188.35
577.607	3249.79
577.811	2608.77
578.015	2580.1
578.219	3006.08
578.422	3257.98
578.626	2856.58
578.83	2954.88
579.034	3253.88
579.238	3028.6
579.442	2725.51
579.645	3239.55
579.849	3088
580.053	3276.41
580.257	2825.86
580.46	2799.23
580.664	3247.74
580.868	3300.98
581.071	2958.97
581.275	2915.97
581.479	2852.48
581.682	3358.33
581.886	2741.89
582.09	3026.56
582.293	3253.88
582.497	3413.62
582.7	3094.14
582.904	2827.9
583.107	3264.12
583.311	3208.83
583.515	3012.22
583.718	3143.29
583.922	3413.62
584.125	3559.03
584.329	2915.97
584.532	3147.39
584.735	3626.61
584.939	3475.06
585.142	2901.63
585.346	3085.95
585.549	3450.49
585.753	3241.59
585.956	3196.54
586.159	3102.33
586.363	3733.11
586.566	3663.47
586.769	3081.85
586.973	3040.89
587.176	3397.24
587.379	3618.42
587.582	3380.86
587.786	3257.98
587.989	3530.36
588.192	4189.8
588.395	3212.92
588.599	3491.45
588.802	3636.85
589.005	3712.63
589.208	3190.39
589.411	3081.85
589.615	3888.75
589.818	3991.15
590.021	3679.86
590.224	3495.54
590.427	3661.43
590.63	3837.55
590.833	3161.72
591.036	3221.11
591.239	3628.66
591.442	3591.8
591.645	3659.38
591.848	3354.23
592.051	3843.7
592.254	3886.7
592.457	3442.29
592.66	3513.97
592.863	3866.22
593.066	3825.26
593.269	3483.25
593.472	3534.45
593.675	3677.81
593.878	3921.52
594.081	3655.28
594.284	3567.22
594.486	4001.39
594.689	3845.74
594.892	3657.33
595.095	3610.23
595.298	3866.22
595.5	3782.26
595.703	3817.07
595.906	3720.82
596.109	4224.62
596.311	4120.17
596.514	3391.09
596.717	3812.98
596.92	4191.85
597.122	4138.6
597.325	3532.4
597.528	3692.15
597.73	4400.74
597.933	3888.75
598.136	3643
598.338	3491.45
598.541	4236.91
598.743	4353.64
598.946	3794.54
599.148	3864.18
599.351	4347.5
599.554	4402.79
599.756	4048.49
599.959	3997.29
600.161	4372.07
600.363	4638.31
600.566	4118.12
600.768	3851.89
600.971	4505.19
601.173	4380.26
601.376	3866.22
601.578	3939.95
601.78	4410.98
601.983	4830.82
602.185	3898.99
602.388	4173.42
602.59	4271.72
602.792	4152.94
602.995	4284.01
603.197	3946.09
603.399	4564.58
603.601	4322.92
603.804	4066.92
604.006	4105.84
604.208	4370.02
604.41	3944.05
604.613	4208.23
604.815	3987.05
605.017	4853.34
605.219	4302.44
605.421	4466.28
605.623	4062.83
605.826	4789.86
606.028	4877.92
606.23	4232.81
606.432	4079.21
606.634	4875.87
606.836	4683.36
607.038	4122.22
607.24	4431.46
607.442	4347.5
607.644	4621.92
607.846	4370.02
608.048	4077.16
608.25	4843.1
608.452	4349.54
608.654	4281.96
608.856	4044.4
609.058	4499.05
609.26	4812.39
609.462	4372.07
609.664	4449.89
609.866	4867.68
610.067	5013.09
610.269	4503.14
610.471	4445.8
610.673	4623.97
610.875	4916.83
611.077	4269.67
611.278	4447.85
611.48	4617.83
611.682	5088.86
611.884	4521.57
612.085	4517.48
612.287	4601.44
612.489	4789.86
612.69	4306.54
612.892	4562.53
613.094	5101.15
613.295	4867.68
613.497	4361.83
613.699	4570.72
613.9	5135.96
614.102	5011.04
614.304	4605.54
614.505	4304.49
614.707	4830.82
614.908	4830.82
615.11	4523.62
615.311	4660.84
615.513	5037.66
615.714	5084.77
615.916	4570.72
616.117	4617.83
616.319	4978.27
616.52	5119.58
616.722	4562.53
616.923	4640.36
617.124	5043.81
617.326	4925.02
617.527	4757.09
617.729	5039.71
617.93	5287.51
618.131	5240.41
618.333	4546.15
618.534	4814.43
618.735	4839.01
618.937	5486.17
619.138	4613.73
619.339	4656.74
619.54	5035.61
619.742	4939.36
619.943	4861.54
620.144	4816.48
620.345	5383.77
620.546	5348.95
620.748	4726.37
620.949	4820.58
621.15	5295.71
621.351	5135.96
621.552	4955.74
621.753	4777.57
621.954	4748.9
622.155	5617.24
622.356	4662.88
622.558	5146.2
622.759	4982.37
622.96	5516.89
623.161	4920.93
623.362	4931.17
623.563	5086.81
623.764	5203.55
623.965	4986.46
624.166	5178.97
624.366	5205.6
624.567	5193.31
624.768	4787.81
624.969	5076.57
625.17	5215.84
625.371	5545.56
625.572	5072.48
625.773	4980.32
625.973	5508.69
626.174	5394.01
626.375	5156.44
626.576	5105.24
626.777	5432.92
626.977	5856.85
627.178	5146.2
627.379	5275.23
627.58	5381.72
627.78	5408.34
627.981	5367.38
628.182	5365.34
628.382	5817.94
628.583	5156.44
628.784	5168.73
628.984	5371.48
629.185	5862.99
629.386	5709.4
629.586	5312.09
629.787	5131.87
629.987	5547.61
630.188	5535.32
630.388	5260.89
630.589	5334.62
630.79	6280.78
630.99	5582.42
631.191	5353.05
631.391	5498.45
631.591	5705.3
631.792	6043.21
631.992	5531.22
632.193	5486.17
632.393	5969.49
632.594	5711.44
632.794	5310.04
632.994	5559.89
633.195	5822.03
633.395	5568.09
633.595	5549.65
633.796	5836.37
633.996	5584.47
634.196	5973.58
634.397	5285.47
634.597	5629.52
634.797	5613.14
634.997	6121.04
635.198	5740.12
635.398	5389.91
635.598	5891.66
635.798	5901.9
635.998	5836.37
636.199	5441.11
636.399	5647.96
636.599	5604.95
636.799	5762.64
636.999	5852.75
637.199	5944.91
637.399	6243.92
637.599	5592.66
637.799	5752.4
637.999	5840.47
638.199	6297.16
638.399	5602.9
638.599	5584.47
638.799	6153.8
638.999	6616.65
639.199	5906
639.399	5822.03
639.599	6331.98
639.799	5883.47
639.999	5889.62
640.199	5674.58
640.399	6086.22
640.599	6086.22
640.799	5940.82
640.998	6008.4
641.198	6354.51
641.398	6329.93
641.598	5992.02
641.798	5944.91
641.997	7208.51
642.197	6211.15
642.397	6057.55
642.597	5856.85
642.796	6446.66
642.996	6520.39
643.196	6129.23
643.395	5799.51
643.595	6235.72
643.795	5944.91
643.994	6037.07
644.194	6047.31
644.394	6334.03
644.593	6280.78
644.793	6045.26
644.992	6164.04
645.192	6569.54
645.392	5938.77
645.591	6284.87
645.791	6219.34
645.99	6534.73
646.19	6260.3
646.389	6118.99
646.589	6354.51
646.788	6518.34
646.987	6534.73
647.187	6379.08
647.386	6487.62
647.586	6383.18
647.785	6786.63
647.984	6260.3
648.184	6587.97
648.383	6581.83
648.582	6420.04
648.782	6352.46
648.981	6540.87
649.18	6307.4
649.38	6727.24
649.579	6217.29
649.778	6293.07
649.977	6817.35
650.177	6639.17
650.376	6526.54
650.575	6387.27
650.774	7130.69
650.973	6424.14
651.173	6129.23
651.372	6506.06
651.571	6723.14
651.77	6770.24
651.969	6501.96
652.168	6649.41
652.367	6403.66
652.566	6659.65
652.765	6594.12
652.964	6807.11
653.163	7155.26
653.362	6770.24
653.561	6518.34
653.76	6565.45
653.959	6606.41
654.158	6944.32
654.357	6850.11
654.556	6506.06
654.755	7050.82
654.954	7142.97
655.153	6575.69
655.352	6891.07
655.551	7237.18
655.749	6727.24
655.948	6655.56
656.147	6606.41
656.346	7050.82
656.545	6784.58
656.743	6698.56
656.942	6970.94
657.141	7034.43
657.34	6911.55
657.538	6780.48
657.737	6905.41
657.936	6968.9
658.135	7034.43
658.333	6831.68
658.532	6870.59
658.731	7423.55
658.929	7415.35
659.128	7169.6
659.326	6929.98
659.525	7374.39
659.724	7116.35
659.922	6618.69
660.121	6864.45
660.319	7282.24
660.518	6837.83
660.716	6854.21
660.915	6897.22
661.113	7425.59
661.312	6856.26
661.51	6977.09
661.709	7001.66
661.907	7282.24
662.105	7695.93
662.304	7028.29
662.502	6940.22
662.701	7566.9
662.899	7140.93
663.097	7407.16
663.296	6913.6
663.494	7650.87
663.692	7743.03
663.891	6987.33
664.089	6891.07
664.287	7628.34
664.485	7575.1
664.684	6932.03
664.882	7341.63
665.08	7370.3
665.278	7394.87
665.476	6862.4
665.675	7564.86
665.873	7806.52
666.071	7792.18
666.269	7032.38
666.467	7456.31
666.665	7437.88
666.863	7333.43
667.061	7435.83
667.259	7288.38
667.457	7568.95
667.655	7411.26
667.853	7011.9
668.051	7243.32
668.249	7435.83
668.447	7556.66
668.645	7081.53
668.843	7519.8
669.041	7542.33
669.239	7470.65
669.437	7454.26
669.635	7552.57
669.833	7609.91
670.031	7706.17
670.229	7337.53
670.426	7437.88
670.624	7376.44
670.822	7376.44
671.02	7509.56
671.218	7384.63
671.415	7349.82
671.613	7673.4
671.811	7394.87
672.009	7435.83
672.206	7677.49
672.404	7636.53
672.602	7644.73
672.799	7571
672.997	7831.09
673.195	8062.51
673.392	7448.12
673.59	7464.5
673.788	7724.6
673.985	7345.72
674.183	7661.11
674.38	7409.21
674.578	7956.02
674.775	7460.41
674.973	7448.12
675.17	7380.54
675.368	7908.91
675.565	7880.24
675.763	7491.13
675.96	7382.59
676.158	8103.47
676.355	7648.82
676.553	7505.46
676.75	7460.41
676.947	7816.76
677.145	7611.96
677.342	7493.18
677.539	7607.86
677.737	7775.8
677.934	8371.75
678.131	7642.68
678.329	7507.51
678.526	8160.81
678.723	8039.98
678.92	7702.07
679.118	7507.51
679.315	7546.42
679.512	8330.8
679.709	7679.54
679.906	7532.09
680.104	8328.75
680.301	8011.31
680.498	7505.46
680.695	7337.53
680.892	7882.29
681.089	7804.47
681.286	7831.09
681.483	7534.14
681.68	7986.74
681.877	8095.28
682.075	7798.32
682.272	8037.94
682.469	8117.81
682.665	7847.47
682.862	7345.72
683.059	7587.38
683.256	7925.3
683.453	8078.9
683.65	7738.93
683.847	7880.24
684.044	7929.39
684.241	7695.93
684.438	7917.11
684.635	7685.69
684.831	8300.08
685.028	8410.67
685.225	7722.55
685.422	7894.58
685.619	8060.46
685.815	8017.46
686.012	7794.23
686.209	7798.32
686.405	7867.95
686.602	8173.1
686.799	7810.61
686.996	7843.38
687.192	7763.51
687.389	8519.21
687.586	7775.8
687.782	7865.91
687.979	8549.93
688.175	8316.46
688.372	7824.95
688.568	7601.72
688.765	7718.45
688.962	8379.95
689.158	7865.91
689.355	7710.26
689.551	8179.25
689.748	7681.59
689.944	8117.81
690.14	7568.95
690.337	8287.79
690.533	8099.38
690.73	7917.11
690.926	8025.65
691.123	8308.27
691.319	8113.71
691.515	7675.45
691.712	8052.27
691.908	8295.98
692.104	8330.8
692.301	8072.75
692.497	7824.95
692.693	8379.95
692.889	8349.23
693.086	8087.09
693.282	7718.45
693.478	7917.11
693.674	8379.95
693.87	7898.67
694.067	7798.32
694.263	8074.8
694.459	8191.53
694.655	8121.9
694.851	8066.61
695.047	8324.65
695.243	8349.23
695.439	8189.49
695.635	7953.97
695.831	8345.13
696.027	8375.85
696.224	8017.46
696.42	8359.47
696.615	8461.87
696.811	8214.06
697.007	7937.59
697.203	8052.27
697.399	8443.43
697.595	8554.02
697.791	7960.11
697.987	8152.62
698.183	7960.11
698.379	8070.7
698.575	7900.72
698.77	8212.01
698.966	8646.18
699.162	8486.44
699.358	8025.65
699.554	8134.19
699.749	8726.05
699.945	8445.48
700.141	8326.7
700.337	8150.57
700.532	8230.45
700.728	8132.14
700.924	8099.38
701.119	8152.62
701.315	8402.47
701.511	8218.16
701.706	8144.43
701.902	7972.4
702.097	8275.5
702.293	8574.5
702.489	8148.53
702.684	8113.71
702.88	8357.42
703.075	8144.43
703.271	8068.66
703.466	8212.01
703.662	8220.21
703.857	8701.48
704.053	7956.02
704.248	8220.21
704.443	8425
704.639	8463.91
704.834	8197.68
705.03	8099.38
705.225	8576.55
705.42	8797.73
705.616	8396.33
705.811	7978.54
706.006	8283.69
706.202	8422.95
706.397	8451.63
706.592	8033.84
706.787	8570.41
706.983	8312.36
707.178	8525.35
707.373	8369.71
707.568	8607.27
707.763	8803.88
707.959	8336.94
708.154	8078.9
708.349	8447.53
708.544	8631.85
708.739	8427.05
708.934	8154.67
709.129	8656.42
709.324	8648.23
709.519	8218.16
709.714	8257.07
709.909	8963.62
710.104	8574.5
710.299	8205.87
710.494	8459.82
710.689	8746.53
710.884	8416.81
711.079	8302.12
711.274	8496.68
711.469	8838.69
711.664	8500.78
711.859	8257.07
712.054	8439.34
712.249	8721.96
712.443	8824.36
712.638	8013.36
712.833	8132.14
713.028	8607.27
713.223	8410.67
713.417	8654.37
713.612	8420.91
713.807	8832.55
714.002	9344.54
714.196	8556.07
714.391	8234.54
714.586	8674.85
714.78	8568.36
714.975	8367.66
715.17	8300.08
715.364	8650.28
715.559	8859.17
715.754	8017.46
715.948	8082.99
716.143	9029.15
716.337	8541.74
716.532	8662.57
716.726	8533.54
716.921	8902.18
717.115	9027.1
717.31	8169.01
717.504	8799.78
717.699	8566.31
717.893	8730.15
718.088	8238.64
718.282	8205.87
718.476	8670.76
718.671	8674.85
718.865	8222.25
719.059	8425
719.254	8607.27
719.448	8932.9
719.642	9715.22
719.837	8072.75
720.031	8594.98
720.225	8744.49
720.419	8521.26
720.614	8257.07
720.808	9008.67
721.002	8521.26
721.196	8042.03
721.39	8465.96
721.585	9158.17
721.779	8640.04
721.973	8482.35
722.167	8091.18
722.361	8666.66
722.555	8805.92
722.749	8390.19
722.943	8449.58
723.137	8224.3
723.331	8613.42
723.525	8576.55
723.719	8367.66
723.913	8793.64
724.107	9066.02
724.301	8248.88
724.495	8539.69
724.689	9043.49
724.883	8934.95
725.077	8330.8
725.271	8334.89
725.465	8945.19
725.659	8574.5
725.853	8545.83
726.046	8216.11
726.24	8427.05
726.434	8797.73
726.628	8394.28
726.822	8320.56
727.015	8877.6
727.209	9088.54
727.403	8330.8
727.596	8310.32
727.79	8961.57
727.984	8988.19
728.177	8574.5
728.371	8519.21
728.565	8904.23
728.758	8402.47
728.952	8302.12
729.146	8433.19
729.339	8699.43
729.533	8685.09
729.726	8377.9
729.92	8472.11
730.113	8943.14
730.307	8775.2
730.5	8642.09
730.694	8349.23
730.887	8537.64
731.081	8961.57
731.274	8308.27
731.468	8418.86
731.661	8658.47
731.854	8697.38
732.048	8582.7
732.241	8250.92
732.435	8556.07
732.628	8828.45
732.821	8373.8
733.014	8482.35
733.208	8623.66
733.401	8967.71
733.594	8484.39
733.788	8437.29
733.981	9055.78
734.174	8914.47
734.367	8490.54
734.56	8697.38
734.754	9082.4
734.947	8904.23
735.14	8545.83
735.333	8574.5
735.526	9125.41
735.719	8461.87
735.912	8545.83
736.105	8560.17
736.298	9240.09
736.491	8689.19
736.684	8564.26
736.877	8482.35
737.07	8853.03
737.263	9217.57
737.456	8631.85
737.649	8486.44
737.842	8762.92
738.035	8975.91
738.228	8746.53
738.421	8554.02
738.614	9328.16
738.807	9217.57
739	8474.15
739.192	8619.56
739.385	9059.87
739.578	9209.37
739.771	8973.86
739.964	8625.7
740.156	8986.15
740.349	8885.8
740.542	8980
740.735	8797.73
740.927	8611.37
741.12	8867.36
741.313	8627.75
741.505	8760.87
741.698	9084.45
741.891	9016.87
742.083	8904.23
742.276	8881.7
742.468	9016.87
742.661	8920.61
742.854	8687.14
743.046	8803.88
743.239	9389.6
743.431	8994.34
743.624	8670.76
743.816	8752.68
744.009	8934.95
744.201	9098.78
744.393	8840.74
744.586	8678.95
744.778	9164.32
744.971	9072.16
745.163	8732.2
745.355	9090.59
745.548	8926.75
745.74	8975.91
745.932	8949.28
746.125	8791.59
746.317	9549.34
746.509	8910.37
746.702	8803.88
746.894	8914.47
747.086	9039.39
747.278	9330.2
747.471	8924.71
747.663	8816.16
747.855	9092.64
748.047	9434.65
748.239	8754.73
748.431	8873.51
748.623	9514.52
748.815	9541.15
749.008	8699.43
749.2	8691.24
749.392	9262.62
749.584	9236
749.776	8941.09
749.968	8945.19
750.16	9422.36
750.352	8984.1
750.544	8883.75
750.736	8629.8
750.928	9049.63
751.12	8812.07
751.311	8752.68
751.503	8781.35
751.695	9039.39
751.887	8977.95
752.079	8640.04
752.271	8687.14
752.463	9877.01
752.654	9311.77
752.846	8871.46
753.038	8873.51
753.23	8728.1
753.421	9295.39
753.613	8721.96
753.805	9012.77
753.997	9365.02
754.188	9174.56
754.38	8601.13
754.572	8678.95
754.763	8982.05
754.955	9270.81
755.146	8840.74
755.338	8896.03
755.53	9072.16
755.721	8826.4
755.913	8554.02
756.104	8449.58
756.296	9166.37
756.487	9121.31
756.679	8689.19
756.87	8836.64
757.062	8797.73
757.253	9207.33
757.445	8764.96
757.636	8752.68
757.827	8844.84
758.019	9514.52
758.21	8597.03
758.401	8742.44
758.593	9543.19
758.784	9477.66
758.975	8492.59
759.167	8676.9
759.358	9094.69
759.549	9354.78
759.74	8721.96
759.932	8607.27
760.123	9154.08
760.314	8965.67
760.505	9082.4
760.696	8547.88
760.888	9422.36
761.079	8914.47
761.27	8791.59
761.461	8713.77
761.652	9164.32
761.843	8939.04
762.034	8750.63
762.225	8836.64
762.416	8842.79
762.607	8865.32
762.798	8746.53
762.989	8498.73
763.18	9578.01
763.371	8748.58
763.562	8637.99
763.753	8416.81
763.944	9211.42
764.135	9152.03
764.326	8820.26
764.517	8566.31
764.708	8926.75
764.899	8826.4
765.089	8543.78
765.28	8406.57
765.471	8805.92
765.662	8869.41
765.853	8580.65
766.043	8435.24
766.234	9082.4
766.425	9006.63
766.615	8588.84
766.806	8523.3
766.997	9082.4
767.187	8762.92
767.378	8594.98
767.569	8332.84
767.759	8945.19
767.95	8893.99
768.141	8551.98
768.331	8549.93
768.522	8832.55
768.712	9074.21
768.903	8592.94
769.093	8570.41
769.284	9149.98
769.474	8836.64
769.665	8312.36
769.855	8463.91
770.046	8773.16
770.236	8799.78
770.426	8767.01
770.617	8404.52
770.807	8896.03
770.998	8701.48
771.188	8678.95
771.378	8580.65
771.569	8797.73
771.759	8912.42
771.949	8338.99
772.139	8158.77
772.33	8586.79
772.52	9084.45
772.71	8361.52
772.9	8441.39
773.09	8961.57
773.281	9086.5
773.471	8519.21
773.661	8271.4
773.851	8971.81
774.041	8719.91
774.231	8300.08
774.421	8468.01
774.611	8908.32
774.802	8586.79
774.992	8470.06
775.182	8298.03
775.372	8527.4
775.562	8742.44
775.752	8406.57
775.942	8484.39
776.131	8986.15
776.321	8699.43
776.511	8373.8
776.701	8240.68
776.891	9051.68
777.081	8197.68
777.271	8541.74
777.461	8275.5
777.651	8934.95
777.84	8795.68
778.03	8525.35
778.22	8222.25
778.41	8984.1
778.599	8416.81
778.789	8451.63
778.979	8257.07
779.169	8465.96
779.358	8726.05
779.548	8498.73
779.738	8271.4
779.927	8609.32
780.117	8238.64
780.307	8244.78
780.496	7982.64
780.686	8728.1
780.875	9076.26
781.065	8097.33
781.254	8361.52
781.444	8451.63
781.633	8576.55
781.823	8150.57
782.012	8257.07
782.202	8326.7
782.391	8361.52
782.581	8021.55
782.77	8316.46
782.96	8754.73
783.149	8394.28
783.338	8152.62
783.528	7870
783.717	8619.56
783.906	8701.48
784.096	8369.71
784.285	8279.6
784.474	8285.74
784.663	8279.6
784.853	8132.14
785.042	8379.95
785.231	8228.4
785.42	8713.77
785.61	8150.57
785.799	8074.8
785.988	8437.29
786.177	8416.81
786.366	8166.96
786.555	8324.65
786.744	8572.46
786.933	8259.12
787.122	7943.73
787.312	8058.42
787.501	8189.49
787.69	8439.34
787.879	8011.31
788.068	7904.82
788.257	7865.91
788.445	8119.85
788.634	8212.01
788.823	7960.11
789.012	9111.07
789.201	8629.8
789.39	8212.01
789.579	8056.37
789.768	8420.91
789.957	8320.56
790.145	8117.81
790.334	7800.37
790.523	8140.33
790.712	8205.87
790.9	8191.53
791.089	7880.24
791.278	8594.98
791.467	8224.3
791.655	8345.13
791.844	8447.53
792.033	8121.9
792.221	8097.33
792.41	8224.3
792.599	7824.95
792.787	8416.81
792.976	8488.49
793.164	7962.16
793.353	8103.47
793.541	8574.5
793.73	8443.43
793.918	8123.95
794.107	8082.99
794.295	8164.91
794.484	8330.8
794.672	7999.02
794.861	7896.63
795.049	8406.57
795.238	8527.4
795.426	7679.54
795.614	7939.63
795.803	8373.8
795.991	8621.61
796.179	7996.98
796.368	8029.74
796.556	8541.74
796.744	7878.19
796.932	8076.85
797.121	7882.29
797.309	8054.32
797.497	8359.47
797.685	8097.33
797.874	7927.35
798.062	8392.23
798.25	8437.29
798.438	7794.23
798.626	7835.19
798.814	8164.91
799.002	8736.29
799.19	8115.76
799.378	8142.38
799.566	8435.24
799.755	8717.86
799.943	8250.92
800.131	7956.02
800.318	8392.23
800.506	8338.99
800.694	7763.51
800.882	7865.91
801.07	8648.23
801.258	8185.39
801.446	8136.24
801.634	7894.58
801.822	8156.72
802.01	8355.37
802.197	8082.99
802.385	8136.24
802.573	8164.91
802.761	8031.79
802.949	8056.37
803.136	7984.69
803.324	8779.3
803.512	8324.65
803.699	8158.77
803.887	7816.76
804.075	8674.85
804.262	8146.48
804.45	8046.13
804.638	8091.18
804.825	8257.07
805.013	8267.31
805.201	8140.33
805.388	8033.84
805.576	8414.76
805.763	8920.61
805.951	8183.34
806.138	8320.56
806.326	8922.66
806.513	8697.38
806.701	8259.12
806.888	8115.76
807.075	8551.98
807.263	9035.3
807.45	8220.21
807.638	8435.24
807.825	9104.93
808.012	8728.1
808.2	8351.28
808.387	8519.21
808.574	8576.55
808.761	8738.34
808.949	8326.7
809.136	8533.54
809.323	8586.79
809.51	8482.35
809.698	8703.53
809.885	8357.42
810.072	8844.84
810.259	9008.67
810.446	8429.1
810.633	8543.78
810.82	8869.41
811.008	9098.78
811.195	8545.83
811.382	8361.52
811.569	8904.23
811.756	8447.53
811.943	8539.69
812.13	8373.8
812.317	8674.85
812.504	8574.5
812.691	8629.8
812.878	8517.16
813.064	9098.78
813.251	8869.41
813.438	8457.77
813.625	8732.2
813.812	8517.16
813.999	8869.41
814.186	8693.29
814.372	8701.48
814.559	8859.17
814.746	9092.64
814.933	8410.67
815.12	8711.72
815.306	8508.97
815.493	8701.48
815.68	8453.67
815.866	8480.3
816.053	8982.05
816.24	9348.64
816.426	8807.97
816.613	8582.7
816.799	9051.68
816.986	9301.53
817.173	8678.95
817.359	8580.65
817.546	8920.61
817.732	8511.02
817.919	8281.64
818.105	8519.21
818.292	8795.68
818.478	8828.45
818.665	8635.94
818.851	8771.11
819.037	9418.27
819.224	8789.54
819.41	8576.55
819.597	8482.35
819.783	9297.44
819.969	8871.46
820.156	8637.99
820.342	8371.75
820.528	9442.84
820.714	8693.29
820.901	8871.46
821.087	8613.42
821.273	9207.33
821.459	8779.3
821.646	8459.82
821.832	8441.39
822.018	8848.93
822.204	8816.16
822.39	8498.73
822.576	8494.63
822.762	8932.9
822.948	8744.49
823.134	8719.91
823.32	8420.91
823.507	8496.68
823.693	8836.64
823.879	8783.4
824.065	8461.87
824.25	8678.95
824.436	8511.02
824.622	8209.97
824.808	8422.95
824.994	8500.78
825.18	8537.64
825.366	8230.45
825.552	8386.09
825.738	8592.94
825.923	9035.3
826.109	8582.7
826.295	8437.29
826.481	8343.08
826.667	8627.75
826.852	8384.04
827.038	8328.75
827.224	8943.14
827.409	9018.91
827.595	8183.34
827.781	8504.87
827.966	9051.68
828.152	8898.08
828.338	8429.1
828.523	8179.25
828.709	8529.45
828.894	8850.98
829.08	8195.63
829.266	8234.54
829.451	8463.91
829.637	8709.67
829.822	8461.87
830.008	8277.55
830.193	8760.87
830.378	8853.03
830.564	8437.29
830.749	8298.03
830.935	8707.62
831.12	8824.36
831.305	8128.05
831.491	8209.97
831.676	8295.98
831.861	8828.45
832.047	8343.08
832.232	7902.77
832.417	8691.24
832.602	8465.96
832.788	8033.84
832.973	8089.14
833.158	8406.57
833.343	8502.82
833.528	8513.06
833.714	8513.06
833.899	8523.3
834.084	8795.68
834.269	8404.52
834.454	8193.58
834.639	8631.85
834.824	8420.91
835.009	8338.99
835.194	8363.56
835.379	8648.23
835.564	8642.09
835.749	8156.72
835.934	8218.16
836.119	8693.29
836.304	8363.56
836.489	8207.92
836.674	8261.16
836.859	8199.73
837.044	8523.3
837.228	8074.8
837.413	8011.31
837.598	8584.74
837.783	8621.61
837.968	8058.42
838.152	8050.22
838.337	7870
838.522	8644.13
838.707	8715.81
838.891	8367.66
839.076	8330.8
839.261	8443.43
839.445	7874.1
839.63	8277.55
839.815	8572.46
839.999	8169.01
840.184	7980.59
840.368	7915.06
840.553	8574.5
840.737	8603.18
840.922	7824.95
841.106	8074.8
841.291	7925.3
841.475	8566.31
841.66	8060.46
841.844	7904.82
842.029	9139.74
842.213	7894.58
842.397	8027.7
842.582	7681.59
842.766	8472.11
842.951	8398.38
843.135	7970.35
843.319	7648.82
843.504	8197.68
843.688	8384.04
843.872	7675.45
844.056	7827
844.241	8295.98
844.425	7968.31
844.609	8152.62
844.793	7675.45
844.977	8478.25
845.161	8353.32
845.346	7798.32
845.53	7845.43
845.714	8087.09
845.898	8607.27
846.082	7697.97
846.266	7706.17
846.45	8183.34
846.634	8482.35
846.818	7593.53
847.002	8013.36
847.186	8085.04
847.37	7796.28
847.554	7616.05
847.738	7927.35
847.922	8025.65
848.106	8126
848.29	7818.8
848.473	8003.12
848.657	8109.61
848.841	8074.8
849.025	7630.39
849.209	7587.38
849.392	8101.42
849.576	7841.33
849.76	7429.69
849.944	7859.76
850.127	8234.54
850.311	7591.48
850.495	7558.71
850.678	7446.07
850.862	8255.02
851.046	8472.11
851.229	7716.4
851.413	7489.08
851.596	7769.65
851.78	7960.11
851.964	7796.28
852.147	7405.11
852.331	8324.65
852.514	8175.15
852.698	7595.57
852.881	7272
853.065	8132.14
853.248	7931.44
853.431	7630.39
853.615	7646.77
853.798	8486.44
853.982	7845.43
854.165	7763.51
854.348	7736.88
854.532	7595.57
854.715	7634.49
854.898	7577.14
855.081	7347.77
855.265	8099.38
855.448	8005.17
855.631	7519.8
855.814	7460.41
855.997	7833.14
856.181	7542.33
856.364	7583.29
856.547	7319.1
856.73	7779.89
856.913	7513.66
857.096	7353.91
857.279	7466.55
857.462	7611.96
857.645	7829.04
857.828	7530.04
858.011	7609.91
858.194	7644.73
858.377	7769.65
858.56	7183.93
858.743	7386.68
858.926	7288.38
859.109	7814.71
859.292	7282.24
859.475	7218.75
859.658	7845.43
859.841	7675.45
860.023	6954.56
860.206	7192.12
860.389	7437.88
860.572	7913.01
860.755	7259.71
860.937	7267.9
861.12	7495.22
861.303	7521.85
861.486	7007.81
861.668	7003.71
861.851	7624.25
862.034	7661.11
862.216	7347.77
862.399	6936.13
862.581	7482.94
862.764	7697.97
862.947	7210.56
863.129	6975.04
863.312	7030.34
863.494	7726.64
863.677	7368.25
863.859	6921.79
864.042	7558.71
864.224	7724.6
864.406	7157.31
864.589	6839.87
864.771	7282.24
864.954	7110.21
865.136	6827.59
865.318	6682.18
865.501	7425.59
865.683	6684.23
865.865	7059.01
866.048	6989.38
866.23	7247.42
866.412	7243.32
866.594	6780.48
866.777	7001.66
866.959	7337.53
867.141	6964.8
867.323	7071.29
867.505	7163.45
867.687	7355.96
867.869	7042.62
868.052	6772.29
868.234	6972.99
868.416	7347.77
868.598	7214.65
868.78	6764.1
868.962	6829.63
869.144	7564.86
869.326	7429.69
869.508	7024.19
869.69	6774.34
869.872	7046.72
870.054	7421.5
870.236	6649.41
870.417	6729.28
870.599	6944.32
870.781	7702.07
870.963	7001.66
871.145	6897.22
871.327	6958.66
871.508	7134.78
871.69	6706.76
871.872	6835.78
872.054	7073.34
872.235	7284.28
872.417	6821.44
872.599	6690.37
872.78	7587.38
872.962	7042.62
873.144	6897.22
873.325	7018.05
873.507	7495.22
873.689	7290.43
873.87	6782.53
874.052	7132.73
874.233	7007.81
874.415	7472.7
874.596	7077.44
874.778	6821.44
874.959	7083.58
875.141	7487.03
875.322	6886.98
875.503	6886.98
875.685	7329.34
875.866	6714.95
876.048	6874.69
876.229	6657.61
876.41	7130.69
876.592	7351.87
876.773	6846.02
876.954	6735.43
877.136	7581.24
877.317	7255.61
877.498	6954.56
877.679	7192.12
877.86	7173.69
878.042	6983.23
878.223	6858.31
878.404	7591.48
878.585	7329.34
878.766	7788.08
878.947	7231.04
879.128	7251.52
879.309	7431.74
879.49	7628.34
879.672	7104.06
879.853	7128.64
880.034	7155.26
880.215	7444.03
880.396	6997.57
880.576	7302.72
880.757	7263.8
880.938	7710.26
881.119	7042.62
881.3	7022.14
881.481	7269.95
881.662	8095.28
881.843	7067.2
882.023	7077.44
882.204	7652.92
882.385	7439.93
882.566	7208.51
882.747	7222.84
882.927	7239.23
883.108	7568.95
883.289	7106.11
883.469	7466.55
883.65	7484.98
883.831	7667.25
884.011	7591.48
884.192	7386.68
884.373	7779.89
884.553	7751.22
884.734	7419.45
884.914	7763.51
885.095	8300.08
885.275	8011.31
885.456	7835.19
885.636	7288.38
885.817	7714.36
885.997	7630.39
886.178	7450.17
886.358	7431.74
886.538	7814.71
886.719	8619.56
886.899	7284.28
887.08	7648.82
887.26	8072.75
887.44	7360.06
887.621	7245.37
887.801	7646.77
887.981	8332.84
888.161	8052.27
888.342	7714.36
888.522	7661.11
888.702	8160.81
888.882	7986.74
889.062	7755.32
889.242	7257.66
889.423	8121.9
889.603	8099.38
889.783	7675.45
889.963	7837.24
890.143	8087.09
890.323	8236.59
890.503	7642.68
890.683	7573.05
890.863	7906.87
891.043	8068.66
891.223	7753.27
891.403	7976.5
891.583	7992.88
891.763	7972.4
891.943	7591.48
892.122	7659.06
892.302	8076.85
892.482	7892.53
892.662	7988.78
892.842	7796.28
893.022	7980.59
893.201	7833.14
893.381	7763.51
893.561	7775.8
893.741	8304.17
893.92	8103.47
894.1	7906.87
894.28	7913.01
894.459	8222.25
894.639	8078.9
894.819	7657.01
894.998	7806.52
895.178	8085.04
895.357	8177.2
895.537	7628.34
895.716	7689.78
895.896	7886.39
896.075	8379.95
896.255	8003.12
896.434	7534.14
896.614	8175.15
896.793	8322.6
896.973	7970.35
897.152	7974.45
897.331	8130.09
897.511	8158.77
897.69	7507.51
897.87	7730.74
898.049	8152.62
898.228	8093.23
898.407	7822.9
898.587	8042.03
898.766	7853.62
898.945	8226.35
899.124	8001.07
899.304	7652.92
899.483	8291.88
899.662	8388.14
899.841	7749.17
900.02	7702.07
900.199	8277.55
900.378	8093.23
900.557	7566.9
900.737	7536.18
900.916	8003.12
901.095	8009.26
901.274	7892.53
901.453	7341.63
901.632	7675.45
901.811	7769.65
901.989	7480.89
902.168	7589.43
902.347	8117.81
902.526	7779.89
902.705	7618.1
902.884	7812.66
903.063	8199.73
903.242	8191.53
903.42	7439.93
903.599	7865.91
903.778	8080.94
903.957	8199.73
904.135	7818.8
904.314	7532.09
904.493	7872.05
904.672	7994.93
904.85	7581.24
905.029	7560.76
905.207	7779.89
905.386	8521.26
905.565	7362.11
905.743	7390.78
905.922	7691.83
906.1	7716.4
906.279	7444.03
906.457	7376.44
906.636	7507.51
906.814	7650.87
906.993	7312.96
907.171	7411.26
907.35	7716.4
907.528	7773.75
907.707	7550.52
907.885	7202.36
908.063	7994.93
908.242	7697.97
908.42	7382.59
908.598	7061.05
908.777	7771.7
908.955	7349.82
909.133	7308.86
909.311	7112.25
909.49	7487.03
909.668	7446.07
909.846	7087.68
910.024	7016
910.202	7589.43
910.38	7614.01
910.559	7188.03
910.737	6889.03
910.915	7538.23
911.093	7669.3
911.271	7255.61
911.449	7247.42
911.627	7308.86
911.805	7847.47
911.983	7159.36
912.161	7007.81
912.339	7294.52
912.517	7657.01
912.695	7165.5
912.872	7124.54
913.05	7009.86
913.228	7372.35
913.406	7032.38
913.584	6903.36
913.762	7460.41
913.939	6995.52
914.117	6927.94
914.295	6688.32
914.473	7153.21
914.65	7202.36
914.828	6854.21
915.006	6731.33
915.184	6893.12
915.361	7480.89
915.539	6903.36
915.716	7026.24
915.894	7071.29
916.072	7126.59
916.249	7005.76
916.427	6841.92
916.604	6714.95
916.782	7149.12
916.959	6561.35
917.137	6518.34
917.314	7099.97
917.492	6960.7
917.669	6788.68
917.847	6645.32
918.024	6997.57
918.201	6587.97
918.379	6657.61
918.556	6665.8
918.733	6997.57
918.911	6837.83
919.088	6721.09
919.265	6596.17
919.442	6858.31
919.62	6692.42
919.797	6495.82
919.974	6387.27
920.151	6610.5
920.328	6628.93
920.506	6344.27
920.683	6544.97
920.86	6231.63
921.037	6514.25
921.214	6383.18
921.391	6286.92
921.568	6717
921.745	6284.87
921.922	6399.56
922.099	6096.46
922.276	6630.98
922.453	6495.82
922.63	6207.05
922.807	6579.78
922.984	6440.52
923.161	6110.8
923.338	6135.37
923.514	6088.27
923.691	6342.22
923.868	6489.67
924.045	6018.64
924.222	6047.31
924.399	6565.45
924.575	6497.86
924.752	6018.64
924.929	5996.11
925.105	6401.61
925.282	6057.55
925.459	5832.27
925.635	5916.24
925.812	6139.47
925.989	5854.8
926.165	5871.19
926.342	5744.21
926.518	5871.19
926.695	5826.13
926.871	5752.4
927.048	5516.89
927.224	6121.04
927.401	5764.69
927.577	5637.72
927.754	5447.26
927.93	6215.24
928.107	5981.78
928.283	5445.21
928.459	5715.54
928.636	5854.8
928.812	5781.07
928.988	5533.27
929.165	5328.47
929.341	5752.4
929.517	5662.29
929.693	5897.81
929.87	5052
930.046	5738.07
930.222	5418.58
930.398	5135.96
930.574	5328.47
930.751	5578.33
930.927	5439.06
931.103	5344.86
931.279	5334.62
931.455	5295.71
931.631	5379.67
931.807	4951.65
931.983	4916.83
932.159	4963.93
932.335	5209.69
932.511	5000.8
932.687	4931.17
932.863	5305.95
933.039	5170.78
933.215	4968.03
933.391	4578.92
933.566	4906.59
933.742	4978.27
933.918	4888.16
934.094	4693.6
934.27	4941.41
934.445	5082.72
934.621	4785.76
934.797	4574.82
934.973	5047.9
935.148	4789.86
935.324	4486.76
935.5	4296.3
935.675	4808.29
935.851	4628.07
936.027	4404.84
936.202	4263.53
936.378	4542.05
936.553	4449.89
936.729	4380.26
936.904	3972.72
937.08	3782.26
937.255	3901.04
937.431	3651.19
937.606	3561.08
937.782	3866.22
937.957	3995.25
938.133	3815.02
938.308	3366.52
938.483	3638.9
938.659	3524.21
938.834	3470.97
939.009	3241.59
939.185	3534.45
939.36	3284.6
939.535	3008.12
939.71	3376.76
939.886	3528.31
940.061	3413.62
940.236	3194.49
940.411	3053.18
940.586	3321.46
940.761	3364.47
940.937	2973.31
941.112	2752.13
941.287	3139.19
941.462	3081.85
941.637	2686.59
941.812	2737.79
941.987	3118.72
942.162	2885.25
942.337	2692.74
942.512	2750.08
942.687	3159.67
942.862	3194.49
943.037	2481.8
943.212	2311.82
943.386	2879.1
943.561	2807.42
943.736	2717.31
943.911	2829.95
944.086	2967.17
944.26	2981.5
944.435	2426.5
944.61	2729.6
944.785	3090.04
944.959	3221.11
945.134	2551.43
945.309	2533
945.483	2520.71
945.658	3098.24
945.833	2264.71
946.007	2418.31
946.182	2993.79
946.357	2446.98
946.531	2412.17
946.706	2397.83
946.88	2350.73
947.055	2739.84
947.229	2489.99
947.404	2494.08
947.578	2989.69
947.752	2569.86
947.927	2309.77
948.101	2279.05
948.276	2698.88
948.45	2690.69
948.624	2791.04
948.799	2500.23
948.973	2760.32
949.147	2514.56
949.321	2522.76
949.496	2477.7
949.67	3096.19
949.844	2588.29
950.018	2557.57
950.193	2664.07
950.367	3118.72
950.541	2653.83
950.715	2700.93
950.889	2479.75
951.063	2645.63
951.237	2844.29
951.411	2344.58
951.585	2303.62
951.759	2803.33
951.933	2733.7
952.107	2451.08
952.281	2565.76
952.455	3057.28
952.629	2907.77
952.803	2494.08
952.977	2414.21
953.151	2836.1
953.325	2823.81
953.499	2682.5
953.672	2231.94
953.846	2469.51
954.02	2578.05
954.194	2389.64
954.368	2381.45
954.541	2985.6
954.715	2563.72
954.889	2561.67
955.062	2303.62
955.236	2715.27
955.41	2651.78
955.583	2606.72
955.757	2301.58
955.93	2438.79
956.104	2428.55
956.278	2477.7
956.451	2401.93
956.625	2668.16
956.798	3169.91
956.972	2694.79
957.145	2379.4
957.319	2702.98
957.492	2670.21
957.665	2590.34
957.839	2363.01
958.012	2700.93
958.185	2477.7
958.359	2360.97
958.532	2475.65
958.705	2705.03
958.879	2578.05
959.052	2516.61
959.225	2188.94
959.398	2578.05
959.572	2598.53
959.745	2324.1
959.918	2547.33
960.091	2553.48
960.264	2715.27
960.438	2270.86
960.611	2217.61
960.784	2840.19
960.957	2422.41
961.13	2817.66
961.303	2240.14
961.476	2643.59
961.649	2780.8
961.822	2307.72
961.995	2551.43
962.168	2737.79
962.341	2684.55
962.514	2369.16
962.686	2455.17
962.859	2647.68
963.032	2668.16
963.205	2250.38
963.378	2213.51
963.551	2662.02
963.723	2614.91
963.896	2422.41
964.069	2412.17
964.242	2645.63
964.414	2799.23
964.587	2295.43
964.76	2408.07
964.932	2745.98
965.105	2492.04
965.278	2332.3
965.45	2266.76
965.623	2487.94
965.795	2711.17
965.968	2348.68
966.14	2250.38
966.313	2512.52
966.485	2637.44
966.658	2393.73
966.83	2293.38
967.003	2727.55
967.175	2606.72
967.348	2244.23
967.52	2301.58
967.692	2797.18
967.865	2688.64
968.037	2211.46
968.209	2496.13
968.382	2516.61
968.554	2741.89
968.726	2399.88
968.898	2152.07
969.071	2578.05
969.243	2520.71
969.415	2215.56
969.587	2283.14
969.759	2920.06
969.932	2551.43
970.104	2201.23
970.276	2057.87
970.448	2291.34
970.62	2285.19
970.792	2332.3
970.964	2330.25
971.136	2817.66
971.308	2561.67
971.48	2127.5
971.652	2162.31
971.824	2885.25
971.996	2385.54
972.168	2274.95
972.339	2242.18
972.511	2711.17
972.683	2274.95
972.855	2363.01
973.027	2260.62
973.199	2346.63
973.37	2545.28
973.542	2113.16
973.714	2354.82
973.886	2356.87
974.057	2481.8
974.229	2117.26
974.401	2027.15
974.572	2156.17
974.744	2047.63
974.915	2121.35
975.087	2111.11
975.259	2637.44
975.43	2283.14
975.602	2086.54
975.773	1961.61
975.945	2158.22
976.116	2451.08
976.288	1898.13
976.459	2219.66
976.63	2203.27
976.802	2432.65
976.973	2074.25
977.145	2215.56
977.316	2774.66
977.487	2645.63
977.659	2258.57
977.83	2037.39
978.001	2725.51
978.172	2358.92
978.344	2031.24
978.515	2160.27
978.686	2090.63
978.857	2606.72
979.028	2090.63
979.2	2006.67
979.371	2545.28
979.542	2227.85
979.713	2158.22
979.884	1578.64
980.055	2096.78
980.226	2074.25
980.397	1945.23
980.568	1877.65
980.739	2455.17
980.91	2211.46
981.081	2115.21
981.252	1959.56
981.423	2430.6
981.594	2434.69
981.765	1869.45
981.936	2164.36
982.106	2162.31
982.277	2580.1
982.448	1808.02
982.619	2076.3
982.79	1955.47
982.96	2520.71
983.131	2008.72
983.302	1678.99
983.472	1980.04
983.643	2172.55
983.814	2156.17
983.984	1900.17
984.155	2115.21
984.326	2430.6
984.496	1805.97
984.667	1801.87
984.837	1963.66
985.008	2373.25
985.178	2035.34
985.349	1932.94
985.519	2088.59
985.69	1826.45
985.86	1828.49
986.031	1717.9
986.201	2203.27
986.371	2115.21
986.542	1666.71
986.712	1676.95
986.882	2123.4
987.053	2231.94
987.223	1689.23
987.393	1957.52
987.563	1805.97
987.734	2197.13
987.904	2049.68
988.074	1799.82
988.244	2055.82
988.414	1836.69
988.585	1769.1
988.755	1803.92
988.925	1986.19
989.095	2412.17
989.265	1676.95
989.435	1810.06
989.605	1957.52
989.775	2107.02
989.945	1963.66
990.115	1566.35
990.285	1863.31
990.455	1941.13
990.625	1934.99
990.795	1590.93
990.965	2283.14
991.134	1732.24
991.304	1758.86
991.474	1722
991.644	2012.81
991.814	2233.99
991.984	1599.12
992.153	1595.03
992.323	1939.09
992.493	1937.04
992.662	1427.09
992.832	1781.39
993.002	1982.09
993.171	1957.52
993.341	1396.37
993.511	1797.78
993.68	1781.39
993.85	1943.18
994.019	1377.94
994.189	1543.83
994.358	1965.71
994.528	1691.28
994.697	1240.73
994.867	1298.07
995.036	2016.91
995.206	1586.83
995.375	1523.35
995.544	1746.58
995.714	1990.28
995.883	1654.42
996.052	1760.91
996.222	1306.26
996.391	2264.71
996.56	1820.3
996.73	1396.37
996.899	1339.03
997.068	2098.83
997.237	1697.42
997.406	1365.65
997.576	1357.46
997.745	1785.49
997.914	1767.06
998.083	1246.87
998.252	1459.86
998.421	1822.35
998.59	1554.07
998.759	1285.78
998.928	1234.58
999.097	1988.24
999.266	1771.15
999.435	1416.85
999.604	1128.09
999.773	2178.7
999.942	1668.75
1000.111	1214.1
1000.28	1152.67
1000.448	1480.34
1000.617	1498.77
1000.786	1543.83
1000.955	1316.5
1001.124	1713.81
1001.292	2387.59
1001.461	1349.27
1001.63	1330.84
1001.798	2012.81
1001.967	1908.37
1002.136	1185.43
1002.304	1173.14
1002.473	1750.67
1002.642	1672.85
1002.81	1302.17
1002.979	1302.17
1003.147	1879.69
1003.316	2043.53
1003.484	1160.86
1003.653	1291.93
1003.821	1900.17
1003.99	1443.48
1004.158	1418.9
1004.327	1414.81
1004.495	1640.08
1004.663	1300.12
1004.832	1502.87
1005	976.54
1005.168	1633.94
1005.337	1580.69
1005.505	1083.03
1005.673	1496.72
1005.842	1595.03
1006.01	1586.83
1006.178	1091.23
1006.346	1103.51
1006.514	1619.6
1006.683	1715.86
1006.851	1140.38
1007.019	1054.36
1007.187	1267.35
1007.355	1097.37
1007.523	911
1007.691	1087.13
1007.859	1242.78
1008.027	1666.71
1008.195	1183.38
1008.363	1021.6
1008.531	1674.9
1008.699	1330.84
1008.867	980.64
1009.035	1040.03
1009.203	1681.04
1009.37	1443.48
1009.538	1203.86
1009.706	1447.57
1009.874	1367.7
1010.042	1390.23
1010.209	970.4
1010.377	968.35
1010.545	1582.74
1010.713	1398.42
1010.88	992.92
1011.048	1179.29
1011.216	1279.64
1011.383	1699.47
1011.551	992.92
1011.718	1005.21
1011.886	1642.13
1012.054	1398.42
1012.221	906.91
1012.389	1025.69
1012.556	1285.78
1012.724	1816.21
1012.891	1068.7
1013.058	786.08
1013.226	1443.48
1013.393	1521.3
1013.561	820.89
1013.728	939.68
1013.895	1435.28
1014.063	1416.85
1014.23	792.22
1014.397	900.76
1014.565	1513.11
1014.732	1150.62
1014.899	906.91
1015.066	751.26
1015.233	1226.39
1015.401	1418.9
1015.568	1044.12
1015.735	1005.21
1015.902	1330.84
1016.069	1351.32
1016.236	931.48
1016.403	816.8
1016.57	935.58
1016.737	1414.81
1016.904	902.81
1017.071	716.45
1017.238	1103.51
1017.405	1519.25
1017.572	865.95
1017.739	1046.17
1017.906	1418.9
1018.073	1488.53
1018.24	759.46
1018.407	894.62
1018.573	1492.63
1018.74	999.07
1018.907	863.9
1019.074	640.67
1019.241	1425.04
1019.407	1179.29
1019.574	704.16
1019.741	626.34
1019.907	1400.47
1020.074	1248.92
1020.241	585.38
1020.407	738.98
1020.574	1242.78
1020.74	1267.35
1020.907	829.09
1021.073	677.54
1021.24	1578.64
1021.406	1406.61
1021.573	689.82
1021.739	779.93
1021.906	1271.45
1022.072	1029.79
1022.239	759.46
1022.405	751.26
1022.571	1060.51
1022.738	933.53
1022.904	773.79
1023.07	663.2
1023.237	1136.28
1023.403	1363.61
1023.569	724.64
1023.735	837.28
1023.902	1193.62
1024.068	1058.46
1024.234	648.86
1024.4	718.5
1024.566	1117.85
1024.732	1322.65
1024.898	667.3
1025.065	532.13
1025.231	1236.63
1025.397	911
1025.563	743.07
1025.729	612
1025.895	595.62
1026.061	911
1026.227	505.51
1026.392	597.67
1026.558	1152.67
1026.724	1134.23
1026.89	497.32
1027.056	771.74
1027.222	1103.51
1027.388	900.76
1027.553	640.67
1027.719	624.29
1027.885	1373.85
1028.051	1087.13
1028.216	378.53
1028.382	595.62
1028.548	1111.71
1028.713	818.85
1028.879	462.5
1029.045	706.21
1029.21	1242.78
1029.376	1205.91
1029.541	591.52
1029.707	579.23
1029.873	1087.13
1030.038	1128.09
1030.204	456.36
1030.369	571.04
1030.534	1205.91
1030.7	870.05
1030.865	591.52
1031.031	464.55
1031.196	1076.89
1031.361	902.81
1031.527	523.94
1031.692	394.92
1031.857	513.7
1032.023	935.58
1032.188	501.41
1032.353	521.89
1032.518	1230.49
1032.684	900.76
1032.849	267.94
1033.014	523.94
1033.179	1060.51
1033.344	988.83
1033.509	532.13
1033.674	464.55
1033.839	1025.69
1034.004	997.02
1034.17	499.36
1034.335	356.01
1034.5	763.55
1034.664	669.34
1034.829	315.05
1034.994	536.23
1035.159	894.62
1035.324	882.33
1035.489	464.55
1035.654	405.16
1035.819	1162.9
1035.984	872.09
1036.148	544.42
1036.313	470.69
1036.478	1044.12
1036.643	820.89
1036.807	331.43
1036.972	401.06
1037.137	1119.9
1037.301	829.09
1037.466	284.33
1037.631	491.17
1037.795	1035.93
1037.96	874.14
1038.124	667.3
1038.289	308.9
1038.454	886.43
1038.618	960.16
1038.783	446.12
1038.947	568.99
1039.111	751.26
1039.276	685.73
1039.44	313
1039.605	894.62
1039.769	777.89
1039.933	671.39
1040.098	374.44
1040.262	571.04
1040.426	947.87
1040.591	964.25
1040.755	255.65
1040.919	364.2
1041.083	974.49
1041.248	749.22
1041.412	136.87
1041.576	235.18
1041.74	710.3
1041.904	947.87
1042.068	300.71
1042.232	382.63
1042.397	976.54
1042.561	874.14
1042.725	91.82
1042.889	523.94
1043.053	892.57
1043.217	790.17
1043.381	509.6
1043.544	208.55
1043.708	929.44
1043.872	493.22
1044.036	40.62
1044.2	226.98
1044.364	1007.26
1044.528	1005.21
1044.691	1793.68
1044.855	192.17
1045.019	908.96
1045.183	790.17
1045.346	370.34
1045.51	253.61
1045.674	804.51
1045.837	812.7
1046.001	335.53
1046.165	214.7
1046.328	1232.54
1046.492	798.37
1046.655	437.92
1046.819	374.44
1046.983	505.51
1047.146	743.07
1047.31	263.85
1047.473	175.78
1047.636	628.39
1047.8	399.01
1047.963	310.95
1048.127	222.89
1048.29	525.99
