Data from Ink_Intensity_USB4F045381__79__00079.txt Node

Date: Mon Jul 17 10:55:07 EDT 2023
User: mmckonesweet
Spectrometer: USB4F04538
Trigger mode: 4
Integration Time (sec): 9.000000E-1
Scans to average: 1
Electric dark correction enabled: true
Nonlinearity correction enabled: false
Boxcar width: 0
XAxis mode: Wavelengths
Number of Pixels in Spectrum: 3648
>>>>>Begin Spectral Data<<<<<
345.52	-1024.67
345.736	-1024.67
345.952	-1024.67
346.168	-1073.82
346.384	-1055.39
346.6	-207.53
346.816	-221.86
347.032	-289.45
347.248	312.66
347.464	-223.91
347.68	-197.29
347.896	148.82
348.112	437.58
348.328	-90.79
348.544	-64.17
348.76	103.76
348.975	292.18
349.191	-174.76
349.407	-139.94
349.623	5.46
349.839	27.99
350.055	-101.03
350.27	50.52
350.486	138.58
350.702	390.48
350.918	247.12
351.133	-266.92
351.349	234.83
351.565	400.72
351.781	-176.81
351.996	52.56
352.212	425.29
352.428	-107.18
352.644	-113.32
352.859	-199.34
353.075	316.75
353.291	189.78
353.506	-41.64
353.722	-219.82
353.938	1.37
354.153	628.04
354.369	146.77
354.584	-131.75
354.8	279.89
355.016	-254.63
355.231	-191.14
355.447	-12.97
355.662	208.21
355.878	828.74
356.093	-285.35
356.309	58.71
356.524	-199.34
356.74	390.48
356.955	-201.38
357.171	-10.92
357.386	288.08
357.602	-185
357.817	44.37
358.033	-144.04
358.248	415.05
358.464	269.65
358.679	-41.64
358.895	-264.87
359.11	64.85
359.325	419.15
359.541	97.62
359.756	54.61
359.972	-223.91
360.187	300.37
360.402	-160.42
360.618	-109.22
360.833	927.05
361.048	283.99
361.264	-101.03
361.479	7.51
361.694	152.91
361.909	251.22
362.125	-105.13
362.34	-72.36
362.555	288.08
362.77	140.63
362.986	-215.72
363.201	-80.55
363.416	310.61
363.631	93.52
363.847	-101.03
364.062	-96.94
364.277	259.41
364.492	101.72
364.707	-82.6
364.922	-273.06
365.138	290.13
365.353	484.69
365.568	-152.23
365.783	-43.69
365.998	136.53
366.213	597.32
366.428	-133.8
366.643	138.58
366.858	316.75
367.073	228.69
367.288	-60.07
367.503	-178.86
367.718	238.93
367.933	410.96
368.148	-191.14
368.363	34.13
368.578	140.63
368.793	662.86
369.008	-29.35
369.223	-37.55
369.438	312.66
369.653	451.92
369.868	-160.42
370.083	-115.37
370.298	189.78
370.513	445.77
370.728	189.78
370.943	-80.55
371.157	-86.7
371.372	599.37
371.587	-96.94
371.802	-170.66
372.017	97.62
372.232	523.6
372.446	1.37
372.661	-166.57
372.876	333.14
373.091	279.89
373.306	66.9
373.52	-154.28
373.735	-121.51
373.95	501.07
374.165	75.09
374.379	-31.4
374.594	5.46
374.809	392.53
375.023	161.11
375.238	-162.47
375.453	374.1
375.667	-121.51
375.882	-8.87
376.097	-150.18
376.311	191.83
376.526	46.42
376.741	-86.7
376.955	191.83
377.17	695.63
377.384	591.18
377.599	9.56
377.813	-125.61
378.028	722.25
378.242	372.05
378.457	-19.11
378.672	-252.58
378.886	247.12
379.101	204.11
379.315	-207.53
379.53	58.71
379.744	271.7
379.958	259.41
380.173	30.04
380.387	-90.79
380.602	384.34
380.816	15.7
381.031	-27.31
381.245	52.56
381.459	339.28
381.674	968.01
381.888	-12.97
382.103	249.17
382.317	-25.26
382.531	632.14
382.746	62.8
382.96	34.13
383.174	73.04
383.388	634.19
383.603	181.59
383.817	-45.74
384.031	312.66
384.246	656.72
384.46	111.96
384.674	496.97
384.888	251.22
385.103	251.22
385.317	-53.93
385.531	177.49
385.745	462.16
385.959	558.41
386.174	40.28
386.388	-41.64
386.602	261.46
386.816	91.48
387.03	62.8
387.244	77.14
387.458	398.67
387.672	548.17
387.887	-92.84
388.101	-86.7
388.315	539.98
388.529	353.62
388.743	71
388.957	-74.41
389.171	638.28
389.385	13.65
389.599	40.28
389.813	177.49
390.027	390.48
390.241	777.55
390.455	197.97
390.669	97.62
390.883	91.48
391.097	701.77
391.311	353.62
391.525	56.66
391.738	458.06
391.952	431.44
392.166	240.98
392.38	42.32
392.594	564.56
392.808	611.66
393.022	185.68
393.236	134.48
393.449	480.59
393.663	488.78
393.877	1.37
394.091	277.84
394.305	165.2
394.518	185.68
394.732	-12.97
394.946	140.63
395.16	775.5
395.373	400.72
395.587	7.51
395.801	75.09
396.015	636.24
396.228	501.07
396.442	30.04
396.656	46.42
396.869	566.6
397.083	771.4
397.297	220.5
397.51	159.06
397.724	746.83
397.938	623.95
398.151	46.42
398.365	93.52
398.578	671.05
398.792	769.35
399.005	429.39
399.219	218.45
399.433	525.65
399.646	496.97
399.86	372.05
400.073	388.43
400.287	525.65
400.5	339.28
400.714	370
400.927	247.12
401.141	589.13
401.354	1426.75
401.567	613.71
401.781	103.76
401.994	705.87
402.208	953.67
402.421	316.75
402.635	349.52
402.848	408.91
403.061	734.54
403.275	326.99
403.488	230.74
403.701	890.18
403.915	695.63
404.128	378.19
404.341	310.61
404.555	578.89
404.768	468.3
404.981	417.1
405.195	298.32
405.408	898.38
405.621	736.59
405.834	468.3
406.048	243.03
406.261	859.46
406.474	884.04
406.687	312.66
406.9	441.68
407.114	621.9
407.327	628.04
407.54	226.64
407.753	140.63
407.966	300.37
408.179	734.54
408.392	382.29
408.605	265.55
408.819	709.96
409.032	660.81
409.245	314.7
409.458	499.02
409.671	660.81
409.884	808.26
410.097	267.6
410.31	507.21
410.523	800.07
410.736	535.89
410.949	427.34
411.162	427.34
411.375	957.77
411.588	795.98
411.801	611.66
412.014	310.61
412.227	533.84
412.44	488.78
412.653	427.34
412.865	703.82
413.078	836.94
413.291	785.74
413.504	589.13
413.717	384.34
413.93	853.32
414.143	466.25
414.356	468.3
414.568	396.62
414.781	830.79
414.994	718.15
415.207	609.61
415.42	515.41
415.632	814.41
415.845	1211.71
416.058	402.77
416.271	443.73
416.483	718.15
416.696	1197.38
416.909	415.05
417.121	582.99
417.334	914.76
417.547	1217.86
417.759	519.5
417.972	529.74
418.185	724.3
418.397	1109.32
418.61	482.64
418.823	513.36
419.035	1201.47
419.248	855.37
419.46	664.91
419.673	660.81
419.885	855.37
420.098	787.79
420.311	632.14
420.523	314.7
420.736	990.53
420.948	849.22
421.161	652.62
421.373	402.77
421.586	845.13
421.798	671.05
422.01	388.43
422.223	726.35
422.435	775.5
422.648	1006.92
422.86	621.9
423.073	603.47
423.285	1193.28
423.497	722.25
423.71	675.15
423.922	693.58
424.134	1000.77
424.347	1236.29
424.559	857.42
424.771	1013.06
424.984	881.99
425.196	1088.84
425.408	673.1
425.621	640.33
425.833	1205.57
426.045	1361.22
426.257	709.96
426.47	775.5
426.682	1094.98
426.894	1250.63
427.106	816.46
427.318	843.08
427.531	945.48
427.743	1228.1
427.955	873.8
428.167	1353.02
428.379	1221.95
428.591	1064.26
428.804	1047.88
429.016	773.45
429.228	1058.12
429.44	1369.41
429.652	1070.41
429.864	742.73
430.076	1049.93
430.288	1131.84
430.5	961.86
430.712	1103.17
430.924	1416.51
431.136	1168.71
431.348	750.92
431.56	900.42
431.772	1140.04
431.984	1109.32
432.196	894.28
432.408	1025.35
432.62	1121.6
432.832	1287.49
433.044	1289.54
433.256	1172.8
433.468	1387.84
433.679	984.39
433.891	1021.25
434.103	1283.39
434.315	1666.36
434.527	1510.72
434.739	1221.95
434.95	1072.45
435.162	1426.75
435.374	1332.55
435.586	1127.75
435.798	1121.6
436.009	1234.24
436.221	1398.08
436.433	1076.55
436.645	1250.63
436.856	1336.64
437.068	1598.78
437.28	1150.28
437.491	1494.33
437.703	1357.12
437.915	1635.64
438.126	1269.06
438.338	1594.68
438.55	1441.09
438.761	1598.78
438.973	1326.4
439.184	1418.56
439.396	1752.38
439.608	1760.57
439.819	1162.56
440.031	1447.23
440.242	1840.44
440.454	1627.45
440.665	1447.23
440.877	1465.66
441.088	1762.62
441.3	1396.03
441.511	1226.05
441.723	1451.33
441.934	1779
442.146	1623.36
442.357	1492.29
442.569	1713.47
442.78	1748.28
442.991	2112.82
443.203	1903.93
443.414	1441.09
443.626	2053.43
443.837	1611.07
444.048	1412.42
444.26	1432.9
444.471	1766.71
444.682	1951.03
444.894	1332.55
445.105	1443.14
445.316	1926.46
445.528	1983.8
445.739	1576.25
445.95	1705.28
446.161	1994.04
446.373	2127.16
446.584	1680.7
446.795	1621.31
447.006	2123.06
447.217	2266.42
447.429	1500.48
447.64	1543.49
447.851	2204.98
448.062	1910.07
448.273	1486.14
448.484	1701.18
448.695	2010.42
448.907	1989.94
449.118	1809.72
449.329	2051.38
449.54	1819.96
449.751	1750.33
449.962	1668.41
450.173	1760.57
450.384	2340.15
450.595	2415.92
450.806	1867.06
451.017	1848.63
451.228	2372.91
451.439	2385.2
451.65	1946.94
451.861	1637.69
452.072	2002.23
452.283	2063.67
452.494	2118.97
452.705	1840.44
452.915	2592.05
453.126	2135.35
453.337	2006.33
453.548	1871.16
453.759	2508.08
453.97	2737.45
454.181	2186.55
454.391	2047.29
454.602	2235.7
454.813	2538.8
455.024	2116.92
455.235	1942.84
455.445	2331.95
455.656	2626.86
455.867	2329.91
456.078	2229.56
456.288	2243.89
456.499	2506.03
456.71	2186.55
456.921	2315.57
457.131	2651.44
457.342	2530.61
457.553	2407.73
457.763	2131.25
457.974	2667.82
458.184	2792.75
458.395	2278.71
458.606	2245.94
458.816	2989.35
459.027	3054.89
459.237	2714.92
459.448	2321.71
459.659	3038.5
459.869	3310.88
460.08	2290.99
460.29	2880.81
460.501	3198.24
460.711	2889
460.922	2503.98
461.132	2669.87
461.343	3448.1
461.553	2448.69
461.764	2676.01
461.974	2725.16
462.184	3097.89
462.395	3038.5
462.605	2989.35
462.816	2614.57
463.026	3274.02
463.236	3511.58
463.447	2772.27
463.657	2999.59
463.867	3499.3
464.078	3192.1
464.288	3044.65
464.498	3018.02
464.709	3323.17
464.919	3263.78
465.129	3194.15
465.339	3155.24
465.55	3628.32
465.76	3546.4
465.97	3165.48
466.18	3210.53
466.391	3929.37
466.601	3585.31
466.811	3630.37
467.021	3226.92
467.231	3829.02
467.441	3929.37
467.651	3548.45
467.862	3333.41
468.072	3915.03
468.282	4330.77
468.492	3728.67
468.702	3886.36
468.912	3964.18
469.122	4613.39
469.332	4275.48
469.542	3716.38
469.752	4586.77
469.962	4236.56
470.172	4060.44
470.382	4044.06
470.592	4582.67
470.802	4644.11
471.012	4097.3
471.222	4089.11
471.432	4771.08
471.642	4711.69
471.852	4539.66
472.062	4269.33
472.272	4744.46
472.482	4529.42
472.691	4597.01
472.901	4556.05
473.111	4797.71
473.321	5549.31
473.531	4812.04
473.741	5039.37
473.95	5334.28
474.16	5233.93
474.37	4984.07
474.58	4953.35
474.79	5911.8
474.999	5547.26
475.209	4932.87
475.419	5102.86
475.628	5518.59
475.838	5938.43
476.048	5465.35
476.258	5455.11
476.467	6063.35
476.677	5758.21
476.886	5790.97
477.096	5766.4
477.306	6026.49
477.515	6337.78
477.725	6026.49
477.935	5975.29
478.144	6608.11
478.354	6235.38
478.563	6370.55
478.773	6208.76
478.982	6769.9
479.192	7062.76
479.401	6456.56
479.611	6311.16
479.82	6456.56
480.03	7060.71
480.239	6606.06
480.449	6698.22
480.658	7378.15
480.868	7163.11
481.077	6960.36
481.287	6788.33
481.496	7501.03
481.705	7630.05
481.915	7437.54
482.124	7402.72
482.333	7615.71
482.543	7951.58
482.752	7404.77
482.961	7353.57
483.171	7961.82
483.38	7904.48
483.589	7691.49
483.799	7628
484.008	8242.39
484.217	8475.86
484.426	8062.17
484.636	7736.54
484.845	8428.76
485.054	7976.16
485.263	8492.24
485.472	8348.89
485.682	9084.11
485.891	8733.9
486.1	8127.71
486.309	8408.28
486.518	8961.23
486.727	9198.79
486.936	8613.07
487.146	8641.75
487.355	9424.07
487.564	8844.49
487.773	9182.41
487.982	8897.74
488.191	9098.44
488.4	9381.06
488.609	9123.02
488.818	9209.03
489.027	10114.23
489.236	10118.33
489.445	9505.99
489.654	9518.28
489.863	10290.36
490.072	10056.89
490.281	10132.67
490.49	9905.34
490.698	10540.21
490.907	10464.44
491.116	10011.84
491.325	10122.43
491.534	10601.65
491.743	10427.57
491.952	10249.4
492.16	10306.74
492.369	10618.04
492.578	10929.33
492.787	10474.68
492.996	10542.26
493.204	10593.46
493.413	11306.15
493.622	10452.15
493.831	10421.43
494.039	11467.94
494.248	10759.35
494.457	10769.58
494.665	10732.72
494.874	11621.54
495.083	11840.67
495.291	11125.93
495.5	11027.63
495.709	11773.09
495.917	11406.5
496.126	11291.82
496.335	11396.26
496.543	11611.3
496.752	11621.54
496.96	11678.88
497.169	11527.33
497.377	12104.86
497.586	12356.76
497.794	11732.13
498.003	11639.97
498.211	12031.13
498.42	12725.4
498.628	11969.69
498.837	11840.67
499.045	12115.1
499.254	12399.77
499.462	12190.88
499.671	12270.75
499.879	12940.43
500.087	12866.7
500.296	12270.75
500.504	12399.77
500.713	12721.3
500.921	13399.18
501.129	12424.34
501.338	12516.5
501.546	13284.49
501.754	13053.07
501.962	12483.73
502.171	12702.87
502.379	13315.21
502.587	13726.85
502.795	13137.04
503.004	13034.64
503.212	13466.76
503.42	13739.14
503.628	13175.95
503.837	13325.45
504.045	13546.63
504.253	13970.56
504.461	13163.66
504.669	13229.2
504.877	14087.29
505.085	13898.88
505.294	13370.51
505.502	13612.17
505.71	13884.55
505.918	14070.91
506.126	13360.27
506.334	13685.89
506.542	14107.77
506.75	13956.22
506.958	13958.27
507.166	13880.45
507.374	14109.82
507.582	14785.65
507.79	13966.46
507.998	14007.42
508.206	14722.16
508.414	14609.53
508.622	14206.08
508.83	14115.97
509.037	15051.89
509.245	14615.67
509.453	14369.91
509.661	14273.66
509.869	15055.98
510.077	14656.63
510.285	14615.67
510.492	14304.38
510.7	15557.74
510.908	14931.06
511.116	14623.86
511.324	14881.91
511.531	15273.07
511.739	15266.92
511.947	15223.92
512.155	15238.25
512.362	15354.99
512.57	14886
512.778	14969.97
512.985	14879.86
513.193	15494.25
513.401	15942.75
513.608	15215.73
513.816	15180.91
514.024	15588.46
514.231	15740.01
514.439	15225.97
514.646	15420.52
514.854	15813.73
515.061	15979.62
515.269	15567.98
515.477	15502.44
515.684	15791.2
515.892	16202.85
516.099	15664.23
516.307	15533.16
516.514	16186.46
516.722	16397.4
516.929	16088.16
517.136	15729.77
517.344	16565.34
517.551	16526.43
517.759	15926.37
517.966	16077.92
518.173	16243.81
518.381	16573.53
518.588	16350.3
518.796	16135.26
519.003	17106
519.21	16528.47
519.418	16364.64
519.625	16645.21
519.832	16499.8
520.039	16946.26
520.247	16290.91
520.454	16528.47
520.661	17484.87
520.868	16956.5
521.076	16817.24
521.283	16671.83
521.49	17669.19
521.697	17196.11
521.904	17087.57
522.112	16880.72
522.319	17536.07
522.526	17366.09
522.733	17130.58
522.94	16979.03
523.147	17728.58
523.354	17646.66
523.561	17110.1
523.768	17572.94
523.975	17976.39
524.183	17577.03
524.39	17873.99
524.597	17624.14
524.804	17466.44
525.011	17835.08
525.218	17511.5
525.425	17759.3
525.632	18191.42
525.838	17972.29
526.045	17763.4
526.252	17818.69
526.459	19061.81
526.666	19127.35
526.873	18267.2
527.08	18097.22
527.287	18760.76
527.494	18621.5
527.701	18375.74
527.907	18060.35
528.114	18750.52
528.321	18541.63
528.528	18369.6
528.735	18484.28
528.941	18738.23
529.148	18512.95
529.355	18605.11
529.562	18498.62
529.768	19479.6
529.975	18654.26
530.182	18609.21
530.388	18570.3
530.595	19422.25
530.802	18566.2
531.008	19395.63
531.215	19201.07
531.422	20040.74
531.628	20126.75
531.835	19221.55
532.042	19268.66
532.248	19553.32
532.455	19536.94
532.661	19254.32
532.868	19416.11
533.074	19850.28
533.281	20233.25
533.487	19508.27
533.694	19387.44
533.9	19989.54
534.107	20024.36
534.313	19606.57
534.52	19661.87
534.726	20429.85
534.933	20702.23
535.139	19897.38
535.345	19960.87
535.552	20505.63
535.758	20610.07
535.965	19897.38
536.171	20218.91
536.377	20952.09
536.584	20872.21
536.79	20102.18
536.996	20458.53
537.203	20683.8
537.409	20544.54
537.615	20266.02
537.821	20491.29
538.028	21138.45
538.234	20866.07
538.44	20837.4
538.646	20792.34
538.853	21001.24
539.059	20773.91
539.265	21201.94
539.471	20913.17
539.677	21197.84
539.883	21429.26
540.09	21097.49
540.296	21546
540.502	21715.98
540.708	21220.37
540.914	21543.95
541.12	21486.61
541.326	21953.54
541.532	21812.23
541.738	21742.6
541.944	21939.21
542.15	22391.81
542.356	22004.74
542.562	21734.41
542.768	21859.34
542.974	22526.97
543.18	22811.64
543.386	22000.65
543.592	21904.39
543.798	22445.05
544.004	22905.85
544.21	22418.43
544.415	21933.06
544.621	22604.8
544.827	22653.95
545.033	22447.1
545.239	22254.59
545.445	22629.37
545.651	22856.7
545.856	22369.28
546.062	22952.95
546.268	22625.28
546.474	22866.94
546.679	22594.56
546.885	22584.32
547.091	22922.23
547.297	23254
547.502	23024.63
547.708	22733.82
547.914	22823.93
548.119	23133.17
548.325	22909.94
548.531	22780.92
548.736	23606.25
548.942	23213.04
549.147	22754.3
549.353	23442.42
549.559	23567.34
549.764	23202.8
549.97	22926.33
550.175	23356.4
550.381	23946.22
550.586	22856.7
550.792	23307.25
550.997	23544.81
551.203	23747.56
551.408	23696.36
551.614	23448.56
551.819	23587.82
552.025	24587.23
552.23	24701.92
552.435	23577.58
552.641	24632.29
552.846	24167.4
553.052	24511.46
553.257	23864.3
553.462	24146.92
553.668	24124.39
553.873	24808.41
554.078	24034.28
554.283	24335.33
554.489	24798.17
554.694	24785.88
554.899	24425.44
555.105	24683.48
555.31	25172.95
555.515	25263.06
555.72	25109.46
555.925	24320.99
556.131	24835.03
556.336	24964.06
556.541	24689.63
556.746	24732.64
556.951	25402.32
557.156	25713.61
557.361	25066.45
557.567	25162.71
557.772	25582.54
557.977	25375.7
558.182	24875.99
558.387	25097.17
558.592	25152.47
558.797	25654.22
559.002	25230.29
559.207	25234.39
559.412	25351.12
559.617	26031.05
559.822	25160.66
560.027	25220.05
560.232	25496.53
560.437	26227.65
560.642	25291.73
560.847	25316.31
561.051	25498.58
561.256	25514.96
561.461	25912.27
561.666	25201.62
561.871	25691.09
562.076	26047.43
562.281	25902.03
562.485	25623.5
562.69	26291.14
562.895	26145.73
563.1	25875.4
563.305	25828.3
563.509	26356.68
563.714	26819.52
563.919	25740.24
564.123	26022.86
564.328	26106.82
564.533	26659.77
564.737	25754.57
564.942	25942.99
565.147	26944.44
565.351	26868.67
565.556	26147.78
565.761	25985.99
565.965	26467.27
566.17	26342.34
566.374	26104.77
566.579	26493.89
566.784	26616.77
566.988	26948.54
567.193	26389.44
567.397	26555.33
567.602	26811.32
567.806	26643.39
568.011	26403.78
568.215	27130.81
568.42	27220.92
568.624	26753.98
568.828	26534.85
569.033	26649.53
569.237	27370.42
569.442	27147.19
569.646	26489.79
569.85	26893.24
570.055	27345.84
570.259	27403.19
570.463	27077.56
570.668	27200.44
570.872	27409.33
571.076	27306.93
571.281	27261.88
571.485	27304.88
571.689	27515.83
571.893	27777.97
572.098	27483.06
572.302	27399.09
572.506	27929.52
572.71	27591.6
572.914	27595.7
573.119	27790.25
573.323	28076.97
573.527	28292.01
573.731	27618.22
573.935	27429.81
574.139	28220.33
574.343	27741.1
574.547	27374.52
574.751	28046.25
574.955	28232.61
575.159	28455.84
575.364	27567.02
575.568	27796.4
575.772	27929.52
575.976	28760.99
576.18	28013.48
576.383	28203.94
576.587	28865.44
576.791	28687.26
576.995	27937.71
577.199	28412.84
577.403	28713.89
577.607	29363.09
577.811	28447.65
578.015	28674.98
578.219	28967.84
578.422	29113.24
578.626	28664.74
578.83	28404.64
579.034	29010.84
579.238	28894.11
579.442	28912.54
579.645	29217.69
579.849	28935.07
580.053	29479.83
580.257	28613.54
580.46	29113.24
580.664	29758.35
580.868	29447.06
581.071	29516.69
581.275	29189.02
581.479	29227.93
581.682	29453.2
581.886	29010.84
582.09	29332.37
582.293	29588.37
582.497	29778.83
582.7	29264.79
582.904	29748.11
583.107	29610.9
583.311	29547.41
583.515	29424.53
583.718	29391.76
583.922	30122.89
584.125	30133.13
584.329	29393.81
584.532	30051.21
584.735	30395.27
584.939	29918.09
585.142	29531.03
585.346	29676.43
585.549	30469
585.753	30268.3
585.956	29877.13
586.159	30131.08
586.363	30763.9
586.566	30610.31
586.769	30122.89
586.973	30010.25
587.176	30587.78
587.379	30735.23
587.582	30786.43
587.786	30552.96
587.989	30892.93
588.192	31288.18
588.395	30434.18
588.599	30798.72
588.802	31103.87
589.005	30694.27
589.208	30776.19
589.411	30741.38
589.615	30905.21
589.818	31265.66
590.021	30813.06
590.224	31058.81
590.427	31562.61
590.63	31474.55
590.833	30614.4
591.036	31099.77
591.239	31288.18
591.442	30634.88
591.645	31267.7
591.848	31210.36
592.051	31898.48
592.254	31583.09
592.457	31445.88
592.66	31132.54
592.863	31607.67
593.066	31771.5
593.269	31964.01
593.472	32082.8
593.675	31998.83
593.878	31841.14
594.081	31523.7
594.284	31554.42
594.486	32549.73
594.689	32070.51
594.892	31775.6
595.095	32105.32
595.298	32508.77
595.5	32220.01
595.703	32621.41
595.906	32306.02
596.109	32455.53
596.311	32949.09
596.514	32217.96
596.717	32258.92
596.92	33016.67
597.122	32615.27
597.325	31968.11
597.528	32449.38
597.73	33090.4
597.933	32568.16
598.136	32336.74
598.338	32242.54
598.541	32975.71
598.743	33499.99
598.946	32641.89
599.148	32639.84
599.351	33137.5
599.554	33467.22
599.756	32621.41
599.959	33377.11
600.161	33252.19
600.363	33909.58
600.566	33094.49
600.768	33035.1
600.971	33526.61
601.173	33342.3
601.376	33022.81
601.578	32873.31
601.78	33516.37
601.983	34075.47
602.185	33330.01
602.388	32889.7
602.59	33586
602.792	33340.25
602.995	33235.8
603.197	33160.03
603.399	34089.81
603.601	33512.28
603.804	33137.5
604.006	33405.78
604.208	33452.89
604.41	33233.75
604.613	33743.7
604.815	33239.9
605.017	33932.11
605.219	33690.45
605.421	33835.86
605.623	33432.41
605.826	34382.66
606.028	34132.81
606.23	33348.44
606.432	33534.81
606.634	34650.95
606.836	34120.52
607.038	33698.64
607.24	34163.53
607.442	34440.01
607.644	34198.35
607.846	34093.9
608.048	34044.75
608.25	34573.13
608.452	34177.87
608.654	34274.12
608.856	33229.66
609.058	34353.99
609.26	34562.89
609.462	34222.92
609.664	34315.08
609.866	34423.62
610.067	34462.54
610.269	34100.04
610.471	33975.12
610.673	34272.07
610.875	34505.54
611.077	33993.55
611.278	34118.48
611.48	34476.87
611.682	35119.93
611.884	34523.97
612.085	33872.72
612.287	34437.96
612.489	34483.02
612.69	33903.44
612.892	34487.11
613.094	34986.82
613.295	34569.03
613.497	34069.33
613.699	34065.23
613.9	34913.09
614.102	34696
614.304	33968.97
614.505	34112.33
614.707	34521.93
614.908	34528.07
615.11	34480.97
615.311	34425.67
615.513	34575.17
615.714	34798.4
615.916	34300.75
616.117	34243.4
616.319	34933.57
616.52	35025.73
616.722	34827.07
616.923	34413.38
617.124	35400.51
617.326	34521.93
617.527	34442.06
617.729	34632.52
617.93	35003.2
618.131	35009.34
618.333	34573.13
618.534	34757.44
618.735	34853.7
618.937	35220.28
619.138	34548.55
619.339	34601.8
619.54	35285.82
619.742	34573.13
619.943	34855.75
620.144	34992.96
620.345	35449.66
620.546	35316.54
620.748	35119.93
620.949	34937.66
621.15	35361.59
621.351	35408.7
621.552	34460.49
621.753	34714.44
621.954	34835.27
622.155	35369.79
622.356	34730.82
622.558	35107.65
622.759	35054.4
622.96	35523.38
623.161	34777.92
623.362	35031.87
623.563	35126.08
623.764	35332.92
623.965	35101.5
624.166	35486.52
624.366	34958.14
624.567	35783.48
624.768	34706.24
624.969	35031.87
625.17	35347.26
625.371	35646.26
625.572	35013.44
625.773	35281.72
625.973	35834.67
626.174	35875.63
626.375	35341.11
626.576	35560.25
626.777	35584.82
626.977	35795.76
627.178	35633.97
627.379	35246.91
627.58	35615.54
627.78	35455.8
627.981	34949.95
628.182	35472.18
628.382	35943.22
628.583	35443.51
628.784	35064.64
628.984	35042.11
629.185	36082.48
629.386	35738.42
629.586	35582.77
629.787	35181.37
629.987	36334.38
630.188	35898.16
630.388	35877.68
630.589	35230.52
630.79	36293.42
630.99	35892.02
631.191	35855.15
631.391	36047.66
631.591	36018.99
631.792	36168.49
631.992	36262.7
632.193	36172.59
632.393	36631.33
632.594	36514.6
632.794	35724.08
632.994	36119.34
633.195	36029.23
633.395	35971.89
633.595	35674.93
633.796	36322.09
633.996	36225.84
634.196	36522.79
634.397	36211.5
634.597	36102.96
634.797	36068.14
634.997	36336.43
635.198	36328.24
635.398	35808.05
635.598	36838.18
635.798	36778.79
635.998	36109.1
636.199	36086.57
636.399	36338.47
636.599	36238.12
636.799	36535.08
636.999	36100.91
637.199	36434.73
637.399	36856.61
637.599	36346.67
637.799	36655.91
637.999	36688.68
638.199	36627.24
638.399	36412.2
638.599	36238.12
638.799	36791.08
638.999	37327.64
639.199	36860.71
639.399	36768.55
639.599	36776.74
639.799	36037.42
639.999	36524.84
640.199	36494.12
640.399	37040.93
640.599	35730.23
640.799	36678.44
640.998	36690.73
641.198	37350.17
641.398	36850.47
641.598	37147.42
641.798	36872.99
641.997	37755.67
642.197	36971.3
642.397	37204.77
642.597	36645.67
642.796	37446.43
642.996	37548.82
643.196	37075.74
643.395	36834.08
643.595	37311.26
643.795	36981.54
643.994	36680.49
644.194	37210.91
644.394	37735.19
644.593	37372.7
644.793	36819.75
644.992	37331.74
645.192	37739.29
645.392	36920.1
645.591	37215.01
645.791	37636.89
645.99	37794.58
646.19	37133.09
646.389	37389.08
646.589	37448.47
646.788	37870.36
646.987	37344.03
647.187	37692.18
647.386	37423.9
647.586	37964.56
647.785	37667.61
647.984	37196.57
648.184	37409.56
648.383	37647.13
648.582	37468.95
648.782	37675.8
648.981	37681.94
649.18	37589.78
649.38	38069.01
649.579	37532.44
649.778	37757.72
649.977	38083.34
650.177	37899.03
650.376	37645.08
650.575	37284.64
650.774	38224.65
650.973	37696.28
651.173	37462.81
651.372	37595.93
651.571	38138.64
651.77	38044.43
651.969	37573.4
652.168	37823.25
652.367	37624.6
652.566	38083.34
652.765	38126.35
652.964	38026
653.163	38380.3
653.362	38269.71
653.561	37755.67
653.76	37886.74
653.959	37606.17
654.158	38607.62
654.357	38284.05
654.556	37681.94
654.755	38615.82
654.954	38744.84
655.153	37643.03
655.352	38562.57
655.551	38402.83
655.749	37942.03
655.948	38179.6
656.147	38583.05
656.346	38619.91
656.545	38163.21
656.743	37991.19
656.942	38026
657.141	38664.97
657.34	38210.32
657.538	38165.26
657.737	38230.8
657.936	38232.85
658.135	38251.28
658.333	38042.38
658.532	38427.4
658.731	39109.38
658.929	38912.77
659.128	38470.41
659.326	37925.65
659.525	39117.57
659.724	38855.43
659.922	38138.64
660.121	38026
660.319	38312.72
660.518	38286.09
660.716	38165.26
660.915	38046.48
661.113	38683.4
661.312	38191.89
661.51	38562.57
661.709	38501.13
661.907	38892.29
662.105	39293.69
662.304	38685.45
662.502	38974.21
662.701	38892.29
662.899	38683.4
663.097	39006.98
663.296	38583.05
663.494	39250.69
663.692	38880
663.891	38365.96
664.089	38634.25
664.287	38769.41
664.485	39117.57
664.684	38546.19
664.882	38890.24
665.08	38630.15
665.278	38779.65
665.476	38273.81
665.675	38810.37
665.873	39453.44
666.071	39183.1
666.269	38683.4
666.467	38494.99
666.665	38916.87
666.863	38630.15
667.061	38576.9
667.259	38865.67
667.457	38863.62
667.655	39279.36
667.853	38859.52
668.051	38736.65
668.249	38388.49
668.447	38920.96
668.645	38163.21
668.843	39133.95
669.041	38898.44
669.239	38626.06
669.437	38249.23
669.635	38851.33
669.833	39080.71
670.031	38693.64
670.229	38533.9
670.426	38558.47
670.624	38769.41
670.822	38724.36
671.02	38392.59
671.218	38601.48
671.415	38435.59
671.613	38630.15
671.811	38419.21
672.009	38529.8
672.206	38810.37
672.404	38890.24
672.602	38372.11
672.799	38732.55
672.997	38945.54
673.195	39138.05
673.392	38949.63
673.59	38365.96
673.788	38769.41
673.985	37821.2
674.183	38834.95
674.38	38103.82
674.578	38902.53
674.775	38417.16
674.973	38097.68
675.17	38302.48
675.368	38916.87
675.565	38722.31
675.763	38357.77
675.96	37997.33
676.158	38855.43
676.355	38193.93
676.553	38292.24
676.75	37862.16
676.947	38419.21
677.145	38187.79
677.342	38056.72
677.539	37722.9
677.737	38595.34
677.934	38775.56
678.131	38327.05
678.329	37647.13
678.526	38560.52
678.723	39076.61
678.92	38392.59
679.118	37997.33
679.315	37790.48
679.512	38574.86
679.709	38265.61
679.906	37864.21
680.104	38400.78
680.301	38550.28
680.498	37538.58
680.695	38011.67
680.892	38222.61
681.089	38253.33
681.286	38253.33
681.483	37610.26
681.68	38032.15
681.877	38626.06
682.075	38322.96
682.272	37958.42
682.469	38091.54
682.665	38310.67
682.862	37595.93
683.059	37739.29
683.256	37942.03
683.453	38044.43
683.65	37800.72
683.847	38380.3
684.044	37563.16
684.241	37608.22
684.438	38185.74
684.635	37276.44
684.831	38365.96
685.028	38017.81
685.225	37622.55
685.422	37962.51
685.619	37747.48
685.815	37788.44
686.012	37729.05
686.209	37409.56
686.405	37567.26
686.602	38064.91
686.799	37389.08
686.996	37915.41
687.192	37128.99
687.389	37759.77
687.586	37327.64
687.782	37450.52
687.979	37860.12
688.175	37911.31
688.372	37520.15
688.568	37575.45
688.765	37088.03
688.962	37573.4
689.158	37438.23
689.355	37471
689.551	37653.27
689.748	37194.53
689.944	37370.65
690.14	37038.88
690.337	37604.12
690.533	37659.41
690.73	37208.86
690.926	37389.08
691.123	37296.92
691.319	36913.95
691.515	37210.91
691.712	37192.48
691.908	37585.69
692.104	37344.03
692.301	36725.54
692.497	36817.7
692.693	37188.38
692.889	37258.01
693.086	36784.93
693.282	36868.9
693.478	37092.13
693.674	37520.15
693.87	37028.64
694.067	36985.63
694.263	37219.1
694.459	37083.94
694.655	37141.28
694.851	36903.71
695.047	37008.16
695.243	36971.3
695.439	36596.52
695.635	36494.12
695.831	37294.88
696.027	37104.42
696.224	36494.12
696.42	37122.85
696.615	37260.06
696.811	37157.66
697.007	36410.15
697.203	36399.91
697.399	36606.76
697.595	36940.58
697.791	36043.57
697.987	36549.42
698.183	36371.24
698.379	36705.06
698.575	36729.64
698.77	36492.07
698.966	36746.02
699.162	36655.91
699.358	36487.98
699.554	36205.36
699.749	36827.94
699.945	36864.8
700.141	36508.46
700.337	36342.57
700.532	36686.63
700.728	36348.71
700.924	36229.93
701.119	36033.33
701.315	36098.86
701.511	36021.04
701.706	36258.6
701.902	35484.47
702.097	36467.5
702.293	36383.53
702.489	36295.47
702.684	35672.88
702.88	36528.94
703.075	36473.64
703.271	35691.32
703.466	36029.23
703.662	36256.56
703.857	36508.46
704.053	36041.52
704.248	36088.62
704.443	36588.33
704.639	36289.32
704.834	36209.45
705.03	35853.11
705.225	36416.3
705.42	36698.92
705.616	35783.48
705.811	35795.76
706.006	35965.74
706.202	36229.93
706.397	35605.3
706.592	35920.69
706.787	36211.5
706.983	35924.79
707.178	36414.25
707.373	35748.66
707.568	36041.52
707.763	35857.2
707.959	35828.53
708.154	35590.97
708.349	35951.41
708.544	36197.16
708.739	36004.66
708.934	35332.92
709.129	35879.73
709.324	35892.02
709.519	35629.88
709.714	35742.52
709.909	36508.46
710.104	35734.32
710.299	35380.03
710.494	35748.66
710.689	35691.32
710.884	35789.62
711.079	35203.9
711.274	35603.25
711.469	35781.43
711.664	35730.23
711.859	35470.14
712.054	35418.94
712.249	35529.53
712.443	35816.24
712.638	35552.05
712.833	35234.62
713.028	35738.42
713.223	35259.2
713.417	35672.88
713.612	35287.87
713.807	36062
714.002	36070.19
714.196	35271.48
714.391	35259.2
714.586	35722.04
714.78	35021.63
714.975	35025.73
715.17	34902.85
715.364	35468.09
715.559	35650.36
715.754	34009.93
715.948	34771.78
716.143	35410.74
716.337	35154.75
716.532	35265.34
716.726	35013.44
716.921	35058.49
717.115	35533.62
717.31	34849.6
717.504	35263.29
717.699	35093.31
717.893	35169.08
718.088	34755.4
718.282	34767.68
718.476	35138.37
718.671	34501.45
718.865	34540.36
719.059	34501.45
719.254	34632.52
719.448	34675.52
719.642	34730.82
719.837	34159.44
720.031	34663.24
720.225	34433.86
720.419	34290.51
720.614	34108.24
720.808	34581.32
721.002	34108.24
721.196	33872.72
721.39	33940.3
721.585	34423.62
721.779	34644.8
721.973	33762.13
722.167	33426.26
722.361	34464.58
722.555	34718.53
722.749	33747.79
722.943	34222.92
723.137	33483.61
723.331	34206.54
723.525	33940.3
723.719	33602.39
723.913	34339.66
724.107	33899.34
724.301	33571.67
724.495	33960.78
724.689	34620.23
724.883	34061.13
725.077	33676.12
725.271	34083.66
725.465	34229.07
725.659	34085.71
725.853	33794.9
726.046	33581.91
726.24	33639.25
726.434	33870.67
726.628	33508.18
726.822	33510.23
727.015	34065.23
727.209	34472.78
727.403	33885.01
727.596	33295.19
727.79	34052.94
727.984	33979.21
728.177	33661.78
728.371	33903.44
728.565	33665.88
728.758	33567.57
728.952	33708.88
729.146	33305.43
729.339	34362.18
729.533	33829.71
729.726	33121.12
729.92	33725.27
730.113	34380.62
730.307	33770.32
730.5	33442.65
730.694	33307.48
730.887	33413.98
731.081	33903.44
731.274	33739.6
731.468	33166.17
731.661	33692.5
731.854	33272.67
732.048	33663.83
732.241	33686.36
732.435	33682.26
732.628	33700.69
732.821	33088.35
733.014	33211.23
733.208	33315.67
733.401	33817.43
733.594	33104.73
733.788	33194.84
733.981	33438.55
734.174	33452.89
734.367	33104.73
734.56	33379.16
734.754	33862.48
734.947	34165.58
735.14	33338.2
735.333	33678.16
735.526	33956.69
735.719	33297.24
735.912	33276.76
736.105	33002.33
736.298	33063.77
736.491	33342.3
736.684	33129.31
736.877	33317.72
737.07	33420.12
737.263	33768.27
737.456	33069.92
737.649	33229.66
737.842	33239.9
738.035	32996.19
738.228	33248.09
738.421	33375.06
738.614	33499.99
738.807	33379.16
739	32750.43
739.192	32699.23
739.385	33219.42
739.578	33364.82
739.771	33250.14
739.964	33153.88
740.156	33805.14
740.349	33014.62
740.542	33442.65
740.735	32951.13
740.927	33248.09
741.12	33155.93
741.313	32662.37
741.505	33135.45
741.698	33053.53
741.891	33121.12
742.083	33149.79
742.276	32912.22
742.468	33110.88
742.661	33145.69
742.854	32861.02
743.046	32822.11
743.239	33573.72
743.431	33133.4
743.624	32772.96
743.816	32664.42
744.009	33186.65
744.201	32762.72
744.393	32729.95
744.586	32420.71
744.778	33037.15
744.971	33047.39
745.163	32052.08
745.355	32445.29
745.548	32486.25
745.74	32797.54
745.932	32455.53
746.125	32506.73
746.317	33512.28
746.509	32908.13
746.702	32772.96
746.894	32527.2
747.086	32336.74
747.278	33026.91
747.471	32668.51
747.663	32738.15
747.855	32826.21
748.047	32732
748.239	32158.57
748.431	32650.08
748.623	33344.34
748.815	32324.46
749.008	32211.82
749.2	32177
749.392	32559.97
749.584	32351.08
749.776	32416.61
749.968	32467.81
750.16	32897.89
750.352	32490.34
750.544	31542.13
750.736	31906.67
750.928	32746.34
751.12	31972.21
751.311	31794.03
751.503	32490.34
751.695	32338.79
751.887	32162.67
752.079	31617.91
752.271	31765.36
752.463	33121.12
752.654	32082.8
752.846	31882.09
753.038	31267.7
753.23	32142.19
753.421	31671.15
753.613	31677.3
753.805	31875.95
753.997	31658.87
754.188	32062.32
754.38	31495.03
754.572	31599.48
754.763	32023.4
754.955	31689.59
755.146	31349.62
755.338	31363.96
755.53	31853.42
755.721	31413.11
755.913	31081.34
756.104	30942.08
756.296	31556.47
756.487	31892.33
756.679	31343.48
756.87	30952.32
757.062	31146.87
757.253	31454.07
757.445	31148.92
757.636	30923.65
757.827	31212.41
758.019	32133.99
758.21	30841.73
758.401	30868.35
758.593	31656.82
758.784	31161.21
758.975	30745.47
759.167	30550.92
759.358	31038.33
759.549	31314.81
759.74	30630.79
759.932	30272.39
760.123	31181.69
760.314	30346.12
760.505	30356.36
760.696	30622.59
760.888	31275.9
761.079	30833.53
761.27	30434.18
761.461	30473.09
761.652	30905.21
761.843	30530.44
762.034	30641.03
762.225	30600.07
762.416	30307.21
762.607	30290.82
762.798	30458.76
762.989	30067.59
763.18	31267.7
763.371	29830.03
763.562	29627.28
763.753	29854.61
763.944	30759.81
764.135	30552.96
764.326	30137.23
764.517	29934.48
764.708	30256.01
764.899	30407.56
765.089	29658
765.28	29549.46
765.471	30204.81
765.662	30098.31
765.853	29870.99
766.043	29354.9
766.234	30114.7
766.425	29764.5
766.615	29975.44
766.806	29526.93
766.997	29957
767.187	29709.2
767.378	29252.5
767.569	29277.08
767.759	29811.6
767.95	30118.79
768.141	29737.87
768.331	28935.07
768.522	29682.58
768.712	29784.97
768.903	29221.78
769.093	28812.19
769.284	29148.06
769.474	29252.5
769.665	28916.64
769.855	28760.99
770.046	29703.06
770.236	29148.06
770.426	28861.34
770.617	28881.82
770.807	29072.28
770.998	29158.3
771.188	28994.46
771.378	28883.87
771.569	29467.54
771.759	28955.55
771.949	28496.8
772.139	28883.87
772.33	28828.57
772.52	29070.23
772.71	28414.88
772.9	28271.53
773.09	29049.75
773.281	29207.45
773.471	28249
773.661	28447.65
773.851	28740.51
774.041	28502.95
774.231	28068.78
774.421	28357.54
774.611	28859.29
774.802	28144.55
774.992	28191.66
775.182	28167.08
775.372	28103.59
775.562	28722.08
775.752	28099.5
775.942	27722.67
776.131	28539.81
776.321	27939.75
776.511	27929.52
776.701	27820.97
776.891	28402.6
777.081	27775.92
777.271	27603.89
777.461	27681.71
777.651	27775.92
777.84	28191.66
778.03	27106.23
778.22	27341.75
778.41	28076.97
778.599	27579.31
778.789	27384.76
778.979	27231.16
779.169	27902.89
779.358	27851.69
779.548	27841.45
779.738	26995.64
779.927	27839.4
780.117	27640.75
780.307	27014.07
780.496	26921.91
780.686	27499.44
780.875	27937.71
781.065	27009.98
781.254	26837.95
781.444	27474.87
781.633	27417.52
781.823	26753.98
782.012	26549.18
782.202	27188.15
782.391	27122.62
782.581	26633.15
782.77	27093.94
782.96	27397.04
783.149	26694.59
783.338	26723.26
783.528	26330.05
783.717	27362.23
783.906	27515.83
784.096	26901.43
784.285	27040.7
784.474	26549.18
784.663	26426.31
784.853	26276.8
785.042	26411.97
785.231	26784.7
785.42	27249.59
785.61	26446.79
785.799	26328
785.988	26792.89
786.177	26487.75
786.366	26371.01
786.555	26485.7
786.744	26379.2
786.933	26205.13
787.122	26078.15
787.312	26342.34
787.501	26282.95
787.69	26407.87
787.879	26031.05
788.068	26153.93
788.257	26094.54
788.445	26026.95
788.634	26203.08
788.823	25631.69
789.012	26997.69
789.201	26500.03
789.39	25820.11
789.579	25803.72
789.768	26198.98
789.957	26016.71
790.145	25801.68
790.334	25238.48
790.523	26000.33
790.712	26031.05
790.9	25930.7
791.089	25480.14
791.278	26057.67
791.467	25865.16
791.655	25514.96
791.844	25940.94
792.033	25873.35
792.221	25271.25
792.41	25643.98
792.599	24667.1
792.787	25883.59
792.976	25711.56
793.164	25281.49
793.353	25502.67
793.541	25549.78
793.73	25818.06
793.918	25629.65
794.107	25381.84
794.295	25738.19
794.484	25287.64
794.672	25363.41
794.861	25248.72
795.049	25527.25
795.238	25764.81
795.426	25009.11
795.614	25205.72
795.803	25222.1
795.991	25570.26
796.179	24644.57
796.368	24714.2
796.556	25390.03
796.744	24984.54
796.932	24808.41
797.121	24617.95
797.309	24982.49
797.497	25469.9
797.685	24816.6
797.874	24933.34
798.062	24896.47
798.25	25226.2
798.438	24290.27
798.626	24646.62
798.814	25162.71
799.002	25588.69
799.19	24763.36
799.378	24536.03
799.566	25162.71
799.755	25293.78
799.943	24597.47
800.131	24898.52
800.318	25238.48
800.506	24830.94
800.694	24683.48
800.882	24562.65
801.07	25179.09
801.258	25205.72
801.446	24941.53
801.634	24716.25
801.822	25058.26
802.01	24857.56
802.197	24830.94
802.385	24810.46
802.573	24937.43
802.761	24746.97
802.949	24837.08
803.136	24785.88
803.324	25168.85
803.512	24955.86
803.699	24749.02
803.887	24785.88
804.075	25402.32
804.262	24910.81
804.45	24769.5
804.638	24845.27
804.825	25076.69
805.013	25201.62
805.201	24652.77
805.388	24861.66
805.576	25623.5
805.763	25887.69
805.951	24646.62
806.138	25117.65
806.326	25717.71
806.513	25220.05
806.701	24966.1
806.888	25318.35
807.075	25801.68
807.263	25910.22
807.45	24849.37
807.638	24765.4
807.825	26059.72
808.012	25521.1
808.2	25179.09
808.387	25738.19
808.574	25652.17
808.761	25394.13
808.949	25453.52
809.136	25023.45
809.323	25367.51
809.51	25512.91
809.698	25562.06
809.885	25195.48
810.072	25623.5
810.259	25998.28
810.446	24841.18
810.633	25170.9
810.82	25713.61
811.008	25856.97
811.195	25340.88
811.382	25279.44
811.569	25721.8
811.756	25062.36
811.943	25246.68
812.13	25500.62
812.317	25598.93
812.504	25342.93
812.691	25467.86
812.878	25193.43
813.064	25990.09
813.251	25797.58
813.438	25279.44
813.625	25043.93
813.812	25414.61
813.999	25707.47
814.186	25353.17
814.372	25371.6
814.559	25615.31
814.746	25723.85
814.933	24904.67
815.12	25459.66
815.306	25623.5
815.493	25297.88
815.68	25560.02
815.866	25021.4
816.053	25637.84
816.24	26024.9
816.426	25531.34
816.613	25332.69
816.799	25783.24
816.986	25801.68
817.173	25269.2
817.359	25271.25
817.546	25435.09
817.732	25084.89
817.919	24927.19
818.105	25019.35
818.292	25265.11
818.478	25758.67
818.665	25320.4
818.851	24994.78
819.037	25990.09
819.224	25299.92
819.41	25144.28
819.597	24943.58
819.783	25684.94
819.969	25463.76
820.156	24822.75
820.342	24832.99
820.528	25660.37
820.714	24882.14
820.901	24980.44
821.087	24642.53
821.273	25592.78
821.459	25129.94
821.646	24921.05
821.832	24761.31
822.018	24992.73
822.204	24667.1
822.39	24699.87
822.576	24490.98
822.762	24957.91
822.948	24755.16
823.134	24763.36
823.32	24413.15
823.507	24824.79
823.693	24847.32
823.879	24687.58
824.065	24151.01
824.25	24556.51
824.436	24433.63
824.622	24378.34
824.808	24124.39
824.994	24626.14
825.18	24140.77
825.366	24163.3
825.552	24114.15
825.738	24583.13
825.923	24521.7
826.109	24456.16
826.295	23942.12
826.481	24282.08
826.667	24318.95
826.852	24515.55
827.038	24161.25
827.224	24533.98
827.409	24785.88
827.595	23708.65
827.781	24085.48
827.966	24701.92
828.152	24415.2
828.338	24071.14
828.523	23569.39
828.709	23960.55
828.894	24421.34
829.08	24007.65
829.266	23632.88
829.451	23864.3
829.637	24077.29
829.822	23929.83
830.008	23845.87
830.193	23852.01
830.378	24007.65
830.564	23606.25
830.749	23493.61
830.935	23821.29
831.12	23776.23
831.305	23243.76
831.491	23288.82
831.676	23213.04
831.861	23657.45
832.047	23034.87
832.232	23102.45
832.417	24005.61
832.602	23682.03
832.788	23041.01
832.973	23170.04
833.158	23165.94
833.343	23337.97
833.528	23041.01
833.714	23041.01
833.899	23354.35
834.084	23641.07
834.269	23110.64
834.454	22727.67
834.639	23346.16
834.824	23159.8
835.009	22950.9
835.194	22944.76
835.379	23452.66
835.564	23161.84
835.749	23051.25
835.934	22432.77
836.119	23143.41
836.304	22985.72
836.489	22576.12
836.674	22705.15
836.859	22586.36
837.044	22926.33
837.228	22436.86
837.413	22447.1
837.598	22981.62
837.783	23004.15
837.968	22729.72
838.152	22307.84
838.337	22129.67
838.522	22600.7
838.707	22897.66
838.891	22729.72
839.076	22705.15
839.261	22660.09
839.445	22473.73
839.63	22264.83
839.815	22832.12
839.999	22014.98
840.184	21922.82
840.368	22094.85
840.553	22692.86
840.737	22651.9
840.922	22088.71
841.106	22129.67
841.291	22105.09
841.475	21965.83
841.66	21928.97
841.844	22019.08
842.029	22942.71
842.213	22041.6
842.397	21562.38
842.582	21459.98
842.766	22291.46
842.951	22246.4
843.135	21529.61
843.319	21658.63
843.504	21867.53
843.688	22340.61
843.872	21382.16
844.056	21574.67
844.241	21818.38
844.425	21756.94
844.609	21621.77
844.793	21281.81
844.977	21855.24
845.161	21623.82
845.346	21132.31
845.53	21281.81
845.714	21871.62
845.898	21623.82
846.082	21199.89
846.266	21130.26
846.45	21550.09
846.634	21373.97
846.818	21091.35
847.002	21242.9
847.186	21447.69
847.37	21060.63
847.554	20960.28
847.738	21212.18
847.922	21167.12
848.106	21353.49
848.29	20599.83
848.473	21070.87
848.657	20814.87
848.841	21087.25
849.025	20786.2
849.209	20591.64
849.392	20939.8
849.576	21079.06
849.76	20470.81
849.944	20661.27
850.127	21242.9
850.311	20526.11
850.495	20503.58
850.678	20626.46
850.862	21169.17
851.046	21304.34
851.229	20716.57
851.413	20380.7
851.596	20409.37
851.78	20616.22
851.964	20765.72
852.147	20388.89
852.331	21009.43
852.514	20741.14
852.698	20358.17
852.881	20114.47
853.065	20849.69
853.248	20718.62
853.431	20689.95
853.615	20331.55
853.798	20812.82
853.982	20648.99
854.165	20436
854.348	20022.31
854.532	19973.16
854.715	20485.15
854.898	20120.61
855.081	20040.74
855.265	20362.27
855.448	20608.03
855.631	19981.35
855.814	20020.26
855.997	20446.24
856.181	19825.7
856.364	19690.54
856.547	19534.89
856.73	20042.79
856.913	19741.74
857.096	19280.94
857.279	19719.21
857.462	19700.78
857.645	20102.18
857.828	19590.19
858.011	19512.36
858.194	19823.65
858.377	19913.77
858.56	19192.88
858.743	19577.9
858.926	19514.41
859.109	20040.74
859.292	19262.51
859.475	19248.18
859.658	19594.28
859.841	19831.85
860.023	18785.33
860.206	19129.39
860.389	19545.13
860.572	19876.9
860.755	19194.93
860.937	19299.37
861.12	19213.36
861.303	19336.24
861.486	19141.68
861.668	18680.89
861.851	19489.84
862.034	19412.01
862.216	19192.88
862.399	18385.98
862.581	19061.81
862.764	19342.38
862.947	18664.5
863.129	18472
863.312	18590.78
863.494	19248.18
863.677	18562.11
863.859	18289.73
864.042	18998.32
864.224	19246.13
864.406	18357.31
864.589	18226.24
864.771	18949.17
864.954	18224.19
865.136	18162.75
865.318	18093.12
865.501	18646.07
865.683	18070.59
865.865	18340.93
866.048	18193.47
866.23	18297.92
866.412	18271.29
866.594	18160.7
866.777	18123.84
866.959	18338.88
867.141	18259.01
867.323	18132.03
867.505	18056.26
867.687	17921.09
867.869	18199.62
868.052	18086.98
868.234	17587.27
868.416	18293.82
868.598	18254.91
868.78	17642.57
868.962	17785.93
869.144	18175.04
869.326	18308.16
869.508	17564.75
869.69	17798.21
869.872	17740.87
870.054	18400.32
870.236	17454.15
870.417	17556.55
870.599	18117.7
870.781	18168.9
870.963	17876.04
871.145	17636.42
871.327	17691.72
871.508	18035.78
871.69	17478.73
871.872	17765.45
872.054	17900.61
872.235	18003.01
872.417	17806.41
872.599	17142.86
872.78	18302.01
872.962	17968.2
873.144	17161.3
873.325	17796.17
873.507	18224.19
873.689	17701.96
873.87	17337.42
874.052	17802.31
874.233	17835.08
874.415	17921.09
874.596	17873.99
874.778	17595.46
874.959	17931.33
875.141	18183.23
875.322	17777.73
875.503	17302.61
875.685	18082.88
875.866	17159.25
876.048	17525.83
876.229	17128.53
876.41	17640.52
876.592	17878.08
876.773	17609.8
876.954	17290.32
877.136	18267.2
877.317	17785.93
877.498	17204.3
877.679	17591.37
877.86	17759.3
878.042	17853.51
878.223	18007.11
878.404	18017.35
878.585	18074.69
878.766	18596.92
878.947	18021.44
879.128	18076.74
879.309	18164.8
879.49	18322.49
879.672	17804.36
879.853	17984.58
880.034	17787.97
880.215	17765.45
880.396	18218.05
880.576	17810.5
880.757	18109.5
880.938	18572.35
881.119	17953.86
881.3	17923.14
881.481	17906.76
881.662	19113.01
881.843	17812.55
882.023	17787.97
882.204	18396.22
882.385	18363.45
882.566	18168.9
882.747	18164.8
882.927	18265.15
883.108	18584.63
883.289	18322.49
883.469	18574.39
883.65	18265.15
883.831	18451.52
884.011	18400.32
884.192	18369.6
884.373	19010.61
884.553	18703.42
884.734	18666.55
884.914	18713.66
885.095	19190.83
885.275	19043.38
885.456	18828.34
885.636	17962.05
885.817	18867.25
885.997	18902.07
886.178	18455.61
886.358	18666.55
886.538	18697.27
886.719	19569.71
886.899	18717.75
887.08	18904.12
887.26	18867.25
887.44	18687.03
887.621	18539.58
887.801	18781.24
887.981	19747.88
888.161	19256.37
888.342	18787.38
888.522	18940.98
888.702	19143.73
888.882	19229.74
889.062	18844.73
889.242	18746.42
889.423	19528.75
889.603	19336.24
889.783	19242.03
889.963	18781.24
890.143	19354.67
890.323	19567.66
890.503	19026.99
890.683	19022.9
890.863	19143.73
891.043	19215.41
891.223	18846.77
891.403	19239.98
891.583	19268.66
891.763	18943.03
891.943	18986.04
892.122	18891.83
892.302	19149.87
892.482	19178.54
892.662	18840.63
892.842	18965.56
893.022	18981.94
893.201	18707.51
893.381	19182.64
893.561	18904.12
893.741	19256.37
893.92	19196.98
894.1	18854.97
894.28	19006.52
894.459	19315.76
894.639	19209.26
894.819	18725.94
894.998	19076.15
895.178	19516.46
895.357	19219.5
895.537	18797.62
895.716	18793.53
895.896	19002.42
896.075	19770.41
896.255	19006.52
896.434	18639.93
896.614	19147.83
896.793	19717.16
896.973	18799.67
897.152	18848.82
897.331	18963.51
897.511	19373.1
897.69	18697.27
897.87	18897.97
898.049	19188.78
898.228	18983.99
898.407	18938.93
898.587	18838.58
898.766	19004.47
898.945	18928.69
899.124	18836.53
899.304	18707.51
899.483	18785.33
899.662	19225.65
899.841	18342.97
900.02	18558.01
900.199	19076.15
900.378	18955.32
900.557	18252.86
900.737	18488.38
900.916	19055.67
901.095	19016.76
901.274	18709.56
901.453	18218.05
901.632	18553.91
901.811	18506.81
901.989	18359.36
902.168	18332.73
902.347	18957.36
902.526	18492.48
902.705	18244.67
902.884	18244.67
903.063	18820.15
903.242	18777.14
903.42	17986.63
903.599	18164.8
903.778	18472
903.957	18672.7
904.135	18195.52
904.314	18142.27
904.493	18418.75
904.672	18177.09
904.85	17859.65
905.029	17962.05
905.207	18291.77
905.386	18793.53
905.565	17652.81
905.743	17718.34
905.922	17830.98
906.1	17927.24
906.279	17630.28
906.457	17740.87
906.636	17943.62
906.814	17790.02
906.993	17427.53
907.171	17642.57
907.35	18021.44
907.528	18177.09
907.707	17904.71
907.885	17577.03
908.063	17843.27
908.242	17402.96
908.42	17210.45
908.598	17058.9
908.777	17519.69
908.955	17372.24
909.133	17458.25
909.311	16946.26
909.49	17437.77
909.668	17390.67
909.846	17046.61
910.024	16921.68
910.202	17089.62
910.38	17384.52
910.559	16845.91
910.737	16774.23
910.915	17118.29
911.093	17288.27
911.271	16807
911.449	17108.05
911.627	17167.44
911.805	17357.9
911.983	16458.84
912.161	16610.39
912.339	16905.3
912.517	17157.2
912.695	16520.28
912.872	16372.83
913.05	16690.26
913.228	16708.69
913.406	16305.24
913.584	16299.1
913.762	16997.46
913.939	16100.45
914.117	16378.97
914.295	16127.07
914.473	16391.26
914.65	16323.68
914.828	15887.46
915.006	15672.42
915.184	16034.91
915.361	16061.54
915.539	15737.96
915.716	15971.43
915.894	16135.26
916.072	16612.44
916.249	15932.51
916.427	16135.26
916.604	15838.31
916.782	16039.01
916.959	15354.99
917.137	15508.58
917.314	16002.15
917.492	15838.31
917.669	15481.96
917.847	15684.71
918.024	15952.99
918.201	15371.37
918.379	15166.57
918.556	15232.11
918.733	15555.69
918.911	15397.99
919.088	15473.77
919.265	14980.21
919.442	15438.95
919.62	15357.03
919.797	14773.36
919.974	14740.6
920.151	15193.2
920.328	15152.24
920.506	14589.05
920.683	15090.8
920.86	14816.37
921.037	14644.34
921.214	14828.66
921.391	14613.62
921.568	14969.97
921.745	14531.7
921.922	14498.94
922.099	14283.9
922.276	14910.58
922.453	14838.9
922.63	14210.17
922.807	14392.44
922.984	14505.08
923.161	14156.93
923.338	14177.4
923.514	13929.6
923.691	14316.67
923.868	14406.78
924.045	13962.37
924.222	13671.56
924.399	14128.25
924.575	14029.95
924.752	13849.73
924.929	13608.07
925.105	13982.85
925.282	13571.21
925.459	13585.54
925.635	13653.12
925.812	13790.34
925.989	13354.12
926.165	13345.93
926.342	12954.77
926.518	13055.12
926.695	13384.84
926.871	13190.28
927.048	12940.43
927.224	13483.14
927.401	12833.94
927.577	12897.42
927.754	12854.42
927.93	13401.22
928.107	13216.91
928.283	12823.7
928.459	13085.84
928.636	12940.43
928.812	12780.69
928.988	12450.97
929.165	12248.22
929.341	12645.52
929.517	12479.64
929.693	12909.71
929.87	12045.47
930.046	12801.17
930.222	12358.81
930.398	11938.98
930.574	12147.87
930.751	12383.38
930.927	12313.75
931.103	11998.37
931.279	11908.26
931.455	11764.9
931.631	12096.67
931.807	11500.71
931.983	11486.37
932.159	11697.31
932.335	11639.97
932.511	11615.4
932.687	11271.34
932.863	11476.13
933.039	11461.8
933.215	10929.33
933.391	10974.38
933.566	11310.25
933.742	11308.2
933.918	10912.94
934.094	10636.47
934.27	10810.54
934.445	10859.7
934.621	10753.2
934.797	10325.18
934.973	10671.28
935.148	10534.07
935.324	10034.36
935.5	9811.14
935.675	10376.38
935.851	10001.6
936.027	9780.42
936.202	9606.34
936.378	9735.36
936.553	9450.69
936.729	9536.71
936.904	9106.63
937.08	8918.22
937.255	8723.66
937.431	8463.57
937.606	8287.45
937.782	8604.88
937.957	8393.94
938.133	8199.38
938.308	7916.76
938.483	7922.91
938.659	7781.6
938.834	7720.16
939.009	7423.2
939.185	7439.59
939.36	7326.95
939.535	6862.06
939.71	7132.39
939.886	7701.73
940.061	7267.56
940.236	7046.38
940.411	6860.01
940.586	7056.62
940.761	7103.72
940.937	6804.72
941.112	6509.81
941.287	6802.67
941.462	6665.46
941.637	6110.46
941.812	6380.79
941.987	6356.21
942.162	6386.93
942.337	6229.24
942.512	6051.07
942.687	6524.15
942.862	6436.08
943.037	5805.31
943.212	5539.07
943.386	6161.66
943.561	6157.56
943.736	6055.16
943.911	6173.94
944.086	6165.75
944.26	6012.15
944.435	5590.27
944.61	5854.46
944.785	6313.2
944.959	6372.6
945.134	5457.15
945.309	5813.5
945.483	5666.05
945.658	6247.67
945.833	5504.26
946.007	5522.69
946.182	6153.46
946.357	5491.97
946.531	5457.15
946.706	5534.98
946.88	5469.44
947.055	5891.32
947.229	5680.38
947.404	5559.55
947.578	5983.48
947.752	5711.1
947.927	5338.37
948.101	5551.36
948.276	5870.84
948.45	5831.93
948.624	5758.21
948.799	5498.11
948.973	5862.65
949.147	5532.93
949.321	5672.19
949.496	5530.88
949.67	6204.66
949.844	5780.73
950.018	5553.41
950.193	5682.43
950.367	6245.62
950.541	5565.7
950.715	5801.21
950.889	5707.01
951.063	5848.32
951.237	5954.81
951.411	5418.24
951.585	5502.21
951.759	5813.5
951.933	5661.95
952.107	5577.98
952.281	5694.72
952.455	6163.7
952.629	6143.22
952.803	5629.18
952.977	5481.73
953.151	6010.11
953.325	5885.18
953.499	5733.63
953.672	5430.53
953.846	5635.33
954.02	5747.97
954.194	5356.8
954.368	5485.83
954.541	5940.47
954.715	5575.94
954.889	5672.19
955.062	5477.63
955.236	5817.6
955.41	5580.03
955.583	5494.02
955.757	5291.27
955.93	5526.78
956.104	5537.02
956.278	5461.25
956.451	5481.73
956.625	5700.86
956.798	6112.5
956.972	5678.33
957.145	5252.36
957.319	5897.47
957.492	5719.29
957.665	5561.6
957.839	5199.11
958.012	5721.34
958.185	5602.56
958.359	5463.3
958.532	5643.52
958.705	5797.12
958.879	5596.42
959.052	5371.14
959.225	5160.2
959.398	5565.7
959.572	5520.64
959.745	5260.55
959.918	5332.23
960.091	5514.5
960.264	5707.01
960.438	5111.05
960.611	5086.47
960.784	5543.17
960.957	5440.77
961.13	5670.14
961.303	5070.09
961.476	5399.81
961.649	5592.32
961.822	5172.49
961.995	5219.59
962.168	5524.74
962.341	5448.96
962.514	5195.01
962.686	5248.26
962.859	5264.64
963.032	5610.75
963.205	5127.43
963.378	4904.2
963.551	5338.37
963.723	5332.23
963.896	5276.93
964.069	5303.56
964.242	5268.74
964.414	5600.51
964.587	5152.01
964.76	5268.74
964.932	5467.39
965.105	5102.86
965.278	5184.77
965.45	5149.96
965.623	5215.49
965.795	5698.81
965.968	5098.76
966.14	5029.13
966.313	5055.75
966.485	5289.22
966.658	5014.79
966.83	4857.1
967.003	5502.21
967.175	5534.98
967.348	5018.89
967.52	4871.43
967.692	5471.49
967.865	5315.84
968.037	5045.51
968.209	5219.59
968.382	5199.11
968.554	5422.34
968.726	4945.16
968.898	4891.91
969.071	5143.81
969.243	5328.13
969.415	5016.84
969.587	4998.41
969.759	5598.46
969.932	5340.42
970.104	4926.73
970.276	4566.29
970.448	4965.64
970.62	4826.38
970.792	4877.58
970.964	4791.56
971.136	5512.45
971.308	5225.73
971.48	4906.25
971.652	4883.72
971.824	5489.92
971.996	4883.72
972.168	4846.86
972.339	4855.05
972.511	5235.97
972.683	4842.76
972.855	4863.24
973.027	4707.6
973.199	4930.83
973.37	5043.46
973.542	4840.72
973.714	4617.49
973.886	4803.85
974.057	5129.48
974.229	4551.95
974.401	4484.37
974.572	4506.9
974.744	4437.27
974.915	4402.45
975.087	4494.61
975.259	5084.42
975.43	4642.06
975.602	4384.02
975.773	4447.51
975.945	4525.33
976.116	4947.21
976.288	4322.58
976.459	4586.77
976.63	4736.27
976.802	4875.53
976.973	4490.51
977.145	4541.71
977.316	5145.86
977.487	5084.42
977.659	4697.36
977.83	4519.18
978.001	5113.1
978.172	4627.73
978.344	4396.31
978.515	4488.46
978.686	4488.46
978.857	5027.08
979.028	4298
979.2	4302.1
979.371	4787.47
979.542	4623.63
979.713	4459.79
979.884	3927.32
980.055	4420.88
980.226	4510.99
980.397	4414.74
980.568	4218.13
980.739	4707.6
980.91	4402.45
981.081	4277.52
981.252	4230.42
981.423	4703.5
981.594	4654.35
981.765	4093.21
981.936	4302.1
982.106	4420.88
982.277	4486.42
982.448	4199.7
982.619	4244.76
982.79	4281.62
982.96	4498.7
983.131	4269.33
983.302	3867.93
983.472	4234.52
983.643	4455.7
983.814	4283.67
983.984	3892.51
984.155	4281.62
984.326	4392.21
984.496	4058.39
984.667	4068.63
984.837	4103.45
985.008	4420.88
985.178	4255
985.349	3939.61
985.519	4144.41
985.69	4060.44
985.86	4017.43
986.031	3859.74
986.201	4146.45
986.371	4261.14
986.542	3902.75
986.712	3775.77
986.882	4289.81
987.053	4324.63
987.223	3851.55
987.393	3822.88
987.563	4003.1
987.734	4123.93
987.904	4244.76
988.074	3714.33
988.244	3999
988.414	3972.38
988.585	3763.48
988.755	3919.13
988.925	3943.71
989.095	4343.06
989.265	3702.04
989.435	3798.3
989.605	3984.66
989.775	4177.17
989.945	4007.19
990.115	3439.9
990.285	3872.03
990.455	3947.8
990.625	3697.95
990.795	3609.89
990.965	4156.69
991.134	3618.08
991.304	3626.27
991.474	3548.45
991.644	3964.18
991.814	4035.86
991.984	3480.86
992.153	3431.71
992.323	3757.34
992.493	3753.24
992.662	3364.13
992.832	3700
993.002	3740.96
993.171	3835.16
993.341	3282.21
993.511	3724.57
993.68	3646.75
993.85	3878.17
994.019	3173.67
994.189	3329.31
994.358	3687.71
994.528	3566.88
994.697	3071.27
994.867	3282.21
995.036	3867.93
995.206	3482.91
995.375	3302.69
995.544	3478.82
995.714	3667.23
995.883	3480.86
996.052	3405.09
996.222	3015.98
996.391	4027.67
996.56	3540.26
996.73	3079.46
996.899	3196.2
997.068	3898.65
997.237	3452.19
997.406	3044.65
997.576	3044.65
997.745	3456.29
997.914	3444
998.083	2821.42
998.252	3126.57
998.421	3321.12
998.59	3364.13
998.759	3044.65
998.928	2942.25
999.097	3790.11
999.266	3466.53
999.435	3202.34
999.604	2915.62
999.773	3790.11
999.942	3241.25
1000.111	2962.73
1000.28	2757.93
1000.448	3015.98
1000.617	3052.84
1000.786	3149.09
1000.955	2948.39
1001.124	3435.81
1001.292	3863.83
1001.461	2872.62
1001.63	2706.73
1001.798	3652.89
1001.967	3546.4
1002.136	2663.72
1002.304	2895.15
1002.473	3271.97
1002.642	3384.61
1002.81	2858.28
1002.979	2786.6
1003.147	3310.88
1003.316	3751.2
1003.484	2845.99
1003.653	2700.59
1003.821	3274.02
1003.99	3067.17
1004.158	2813.23
1004.327	2835.75
1004.495	3155.24
1004.663	2909.48
1004.832	2770.22
1005	2587.95
1005.168	3114.28
1005.337	3112.23
1005.505	2585.9
1005.673	2893.1
1005.842	3165.48
1006.01	3128.61
1006.178	2475.31
1006.346	2503.98
1006.514	2962.73
1006.683	3167.52
1006.851	2598.19
1007.019	2436.4
1007.187	2708.78
1007.355	2485.55
1007.523	2385.2
1007.691	2393.39
1007.859	2555.18
1008.027	3220.77
1008.195	2475.31
1008.363	2372.91
1008.531	2929.96
1008.699	2673.96
1008.867	2503.98
1009.035	2452.78
1009.203	3073.32
1009.37	2772.27
1009.538	2438.45
1009.706	2983.21
1009.874	2817.32
1010.042	2774.31
1010.209	2401.58
1010.377	2352.43
1010.545	2880.81
1010.713	2643.24
1010.88	2520.37
1011.048	2379.06
1011.216	2590
1011.383	2917.67
1011.551	2149.68
1011.718	2135.35
1011.886	2852.14
1012.054	2618.67
1012.221	2225.46
1012.389	2278.71
1012.556	2594.09
1012.724	2942.25
1012.891	2381.1
1013.058	2106.68
1013.226	2702.64
1013.393	2762.03
1013.561	2088.25
1013.728	1936.7
1013.895	2776.36
1014.063	2745.64
1014.23	1895.74
1014.397	2133.3
1014.565	2667.82
1014.732	2463.02
1014.899	2202.93
1015.066	2078.01
1015.233	2479.41
1015.401	2569.52
1015.568	2114.87
1015.735	2229.56
1015.902	2436.4
1016.069	2514.22
1016.236	2043.19
1016.403	1969.46
1016.57	2192.69
1016.737	2479.41
1016.904	1930.55
1017.071	2014.52
1017.238	2145.59
1017.405	2551.09
1017.572	1961.27
1017.739	2108.73
1017.906	2422.06
1018.073	2569.52
1018.24	1830.2
1018.407	2028.85
1018.573	2577.71
1018.74	2254.13
1018.907	1953.08
1019.074	1731.9
1019.241	2499.89
1019.407	2207.03
1019.574	1758.52
1019.741	1723.71
1019.907	2381.1
1020.074	2319.67
1020.241	1660.22
1020.407	1717.56
1020.574	2286.9
1020.74	2211.12
1020.907	1905.98
1021.073	1682.75
1021.24	2661.68
1021.406	2467.12
1021.573	1758.52
1021.739	1692.99
1021.906	2342.19
1022.072	2114.87
1022.239	1805.63
1022.405	1731.9
1022.571	2049.33
1022.738	1996.09
1022.904	1580.35
1023.07	1779
1023.237	2020.66
1023.403	2420.02
1023.569	1625.4
1023.735	1596.73
1023.902	1971.51
1024.068	2000.18
1024.234	1477.95
1024.4	1596.73
1024.566	1975.61
1024.732	2168.12
1024.898	1654.08
1025.065	1506.62
1025.231	2168.12
1025.397	1795.39
1025.563	1654.08
1025.729	1426.75
1025.895	1500.48
1026.061	1719.61
1026.227	1258.82
1026.392	1449.28
1026.558	2053.43
1026.724	1881.4
1026.89	1449.28
1027.056	1590.59
1027.222	1901.88
1027.388	1750.33
1027.553	1506.62
1027.719	1344.83
1027.885	2245.94
1028.051	2006.33
1028.216	1230.15
1028.382	1434.94
1028.548	1807.67
1028.713	1611.07
1028.879	1289.54
1029.045	1465.66
1029.21	2149.68
1029.376	2037.05
1029.541	1430.85
1029.707	1312.07
1029.873	1862.97
1030.038	1809.72
1030.204	1316.16
1030.369	1299.78
1030.534	1998.13
1030.7	1539.39
1030.865	1371.46
1031.031	1205.57
1031.196	1649.98
1031.361	1711.42
1031.527	1209.67
1031.692	1172.8
1031.857	1242.43
1032.023	1791.29
1032.188	1197.38
1032.353	1338.69
1032.518	2028.85
1032.684	1705.28
1032.849	1135.94
1033.014	1348.93
1033.179	1770.81
1033.344	1713.47
1033.509	1328.45
1033.674	1166.66
1033.839	1707.32
1034.004	1701.18
1034.17	1109.32
1034.335	1025.35
1034.5	1348.93
1034.664	1373.5
1034.829	1107.27
1034.994	1178.95
1035.159	1561.92
1035.324	1688.89
1035.489	1054.02
1035.654	1029.45
1035.819	1701.18
1035.984	1547.58
1036.148	1146.18
1036.313	1111.36
1036.478	1725.76
1036.643	1439.04
1036.807	1054.02
1036.972	1025.35
1037.137	1848.63
1037.301	1447.23
1037.466	802.12
1037.631	1185.09
1037.795	1701.18
1037.96	1383.74
1038.124	1248.58
1038.289	1029.45
1038.454	1453.38
1038.618	1578.3
1038.783	1017.16
1038.947	976.2
1039.111	1299.78
1039.276	1250.63
1039.44	959.81
1039.605	1467.71
1039.769	1318.21
1039.933	1322.31
1040.098	1051.97
1040.262	1170.76
1040.426	1566.01
1040.591	1428.8
1040.755	857.42
1040.919	945.48
1041.083	1367.36
1041.248	1344.83
1041.412	769.35
1041.576	787.79
1041.74	1324.35
1041.904	1525.05
1042.068	736.59
1042.232	890.18
1042.397	1541.44
1042.561	1375.55
1042.725	716.11
1042.889	1070.41
1043.053	1426.75
1043.217	1359.17
1043.381	869.7
1043.544	709.96
1043.708	1480
1043.872	1062.21
1044.036	654.67
1044.2	773.45
1044.364	1535.29
1044.528	1520.96
1044.691	4144.41
1044.855	783.69
1045.019	1379.65
1045.183	1402.18
1045.346	806.22
1045.51	632.14
1045.674	1301.83
1045.837	1322.31
1046.001	804.17
1046.165	728.39
1046.328	1629.5
1046.492	1328.45
1046.655	998.73
1046.819	828.74
1046.983	988.49
1047.146	1205.57
1047.31	841.03
1047.473	570.7
1047.636	1148.23
1047.8	863.56
1047.963	689.48
1048.127	654.67
1048.29	906.57
