Data from Ink_Intensity_USB4F045381__38__00038.txt Node

Date: Mon Jul 17 09:50:40 EDT 2023
User: mmckonesweet
Spectrometer: USB4F04538
Trigger mode: 4
Integration Time (sec): 9.000000E-1
Scans to average: 1
Electric dark correction enabled: true
Nonlinearity correction enabled: false
Boxcar width: 0
XAxis mode: Wavelengths
Number of Pixels in Spectrum: 3648
>>>>>Begin Spectral Data<<<<<
345.52	-945.14
345.736	-945.14
345.952	-945.14
346.168	-1068.02
346.384	-1039.34
346.6	-111.61
346.816	-257.02
347.032	-238.59
347.248	271.36
347.464	-244.73
347.68	-91.13
347.896	158.72
348.112	369.66
348.328	-74.75
348.544	-50.18
348.76	-25.6
348.975	293.88
349.191	-244.73
349.407	-181.25
349.623	13.31
349.839	-109.57
350.055	-156.67
350.27	25.6
350.486	162.81
350.702	265.21
350.918	195.58
351.133	-230.4
351.349	130.05
351.565	314.36
351.781	-199.68
351.996	25.6
352.212	300.03
352.428	-113.66
352.644	-193.53
352.859	-187.39
353.075	271.36
353.291	-15.36
353.506	-128
353.722	-199.68
353.938	-211.96
354.153	414.71
354.369	82.94
354.584	-203.77
354.8	191.49
355.016	-263.16
355.231	-263.16
355.447	-41.98
355.662	78.85
355.878	852.98
356.093	-361.47
356.309	-140.29
356.524	-287.74
356.74	187.39
356.955	-234.49
357.171	-56.32
357.386	156.67
357.602	-320.51
357.817	3.07
358.033	-152.57
358.248	259.07
358.464	185.34
358.679	-144.38
358.895	-297.98
359.11	-50.18
359.325	304.12
359.541	201.72
359.756	19.46
359.972	-281.6
360.187	117.76
360.402	-142.33
360.618	-154.62
360.833	816.12
361.048	205.82
361.264	-121.85
361.479	-113.66
361.694	-13.31
361.909	209.92
362.125	-230.4
362.34	-119.81
362.555	179.2
362.77	9.22
362.986	-191.49
363.201	-123.9
363.416	99.33
363.631	15.36
363.847	-195.58
364.062	-195.58
364.277	168.96
364.492	37.89
364.707	-230.4
364.922	-453.63
365.138	220.16
365.353	232.44
365.568	-254.97
365.783	-130.05
365.998	80.89
366.213	590.84
366.428	-222.2
366.643	-21.5
366.858	242.68
367.073	138.24
367.288	-84.99
367.503	-203.77
367.718	64.51
367.933	343.03
368.148	-287.74
368.363	-154.62
368.578	-13.31
368.793	515.06
369.008	-156.67
369.223	-275.45
369.438	144.38
369.653	379.9
369.868	-275.45
370.083	-187.39
370.298	105.47
370.513	392.19
370.728	72.7
370.943	-72.7
371.157	-168.96
371.372	496.63
371.587	-310.27
371.802	-312.32
372.017	-1.02
372.232	394.23
372.446	-37.89
372.661	-252.92
372.876	226.3
373.091	189.44
373.306	-78.85
373.52	-234.49
373.735	-207.87
373.95	416.76
374.165	-84.99
374.379	-89.09
374.594	-150.53
374.809	25.6
375.023	99.33
375.238	-275.45
375.453	226.3
375.667	-267.26
375.882	-160.77
376.097	-199.68
376.311	107.52
376.526	-78.85
376.741	-295.93
376.955	19.46
377.17	535.54
377.384	539.64
377.599	-9.22
377.813	-318.46
378.028	568.31
378.242	119.81
378.457	-158.72
378.672	-269.31
378.886	142.33
379.101	-78.85
379.315	-324.6
379.53	-128
379.744	115.71
379.958	144.38
380.173	-199.68
380.387	-205.82
380.602	125.95
380.816	-150.53
381.031	-95.23
381.245	-193.53
381.459	158.72
381.674	2462.68
381.888	-171.01
382.103	62.46
382.317	-279.55
382.531	420.86
382.746	-128
382.96	-185.34
383.174	-261.12
383.388	277.5
383.603	-25.6
383.817	-310.27
384.031	115.71
384.246	410.62
384.46	-41.98
384.674	252.92
384.888	-7.17
385.103	-23.55
385.317	-271.36
385.531	-54.27
385.745	302.08
385.959	271.36
386.174	-232.44
386.388	-218.11
386.602	-29.7
386.816	-261.12
387.03	-87.04
387.244	-144.38
387.458	3.07
387.672	285.69
387.887	-232.44
388.101	-261.12
388.315	347.13
388.529	62.46
388.743	-173.05
388.957	-261.12
389.171	291.84
389.385	-267.26
389.599	-111.61
389.813	119.81
390.027	115.71
390.241	672.76
390.455	-91.13
390.669	-177.15
390.883	-89.09
391.097	373.75
391.311	-7.17
391.525	-244.73
391.738	158.72
391.952	95.23
392.166	-97.28
392.38	-218.11
392.594	340.99
392.808	297.98
393.022	-87.04
393.236	-152.57
393.449	181.25
393.663	197.63
393.877	-222.2
394.091	-177.15
394.305	-113.66
394.518	-123.9
394.732	-277.5
394.946	-162.81
395.16	287.74
395.373	82.94
395.587	-261.12
395.801	-230.4
396.015	220.16
396.228	74.75
396.442	-277.5
396.656	-343.03
396.869	304.12
397.083	404.47
397.297	-99.33
397.51	-142.33
397.724	420.86
397.938	52.22
398.151	-302.08
398.365	-265.21
398.578	195.58
398.792	373.75
399.005	-52.22
399.219	-113.66
399.433	89.09
399.646	136.19
399.86	50.18
400.073	-97.28
400.287	214.01
400.5	-150.53
400.714	33.79
400.927	-56.32
401.141	181.25
401.354	959.47
401.567	207.87
401.781	-238.59
401.994	252.92
402.208	549.88
402.421	-109.57
402.635	-150.53
402.848	-3.07
403.061	300.03
403.275	-23.55
403.488	-207.87
403.701	392.19
403.915	244.73
404.128	-7.17
404.341	-115.71
404.555	74.75
404.768	58.37
404.981	-25.6
405.195	-183.29
405.408	394.23
405.621	304.12
405.834	9.22
406.048	-146.43
406.261	300.03
406.474	379.9
406.687	-271.36
406.9	1.02
407.114	-103.42
407.327	48.13
407.54	-353.27
407.753	-287.74
407.966	-103.42
408.179	123.9
408.392	-203.77
408.605	-289.79
408.819	156.67
409.032	101.37
409.245	-254.97
409.458	62.46
409.671	199.68
409.884	277.5
410.097	-318.46
410.31	13.31
410.523	207.87
410.736	-37.89
410.949	-150.53
411.162	-154.62
411.375	381.95
411.588	240.64
411.801	1.02
412.014	-181.25
412.227	-23.55
412.44	-95.23
412.653	-185.34
412.865	-1.02
413.078	252.92
413.291	121.85
413.504	-64.51
413.717	-144.38
413.93	214.01
414.143	-195.58
414.356	-207.87
414.568	-310.27
414.781	279.55
414.994	56.32
415.207	-21.5
415.42	-146.43
415.632	160.77
415.845	463.86
416.058	-285.69
416.271	-289.79
416.483	31.74
416.696	521.21
416.909	-203.77
417.121	-168.96
417.334	111.61
417.547	500.73
417.759	-240.64
417.972	-226.3
418.185	-179.2
418.397	195.58
418.61	-162.81
418.823	-232.44
419.035	355.32
419.248	31.74
419.46	-89.09
419.673	-41.98
419.885	109.57
420.098	-37.89
420.311	-214.01
420.523	-383.99
420.736	142.33
420.948	54.27
421.161	-103.42
421.373	-418.81
421.586	-3.07
421.798	-171.01
422.01	-291.84
422.223	-48.13
422.435	-109.57
422.648	125.95
422.86	-201.72
423.073	-183.29
423.285	250.88
423.497	-281.6
423.71	-232.44
423.922	-240.64
424.134	66.56
424.347	422.91
424.559	33.79
424.771	93.18
424.984	-23.55
425.196	62.46
425.408	-353.27
425.621	-291.84
425.833	228.35
426.045	308.22
426.257	-345.08
426.47	-199.68
426.682	130.05
426.894	82.94
427.106	-140.29
427.318	-142.33
427.531	-117.76
427.743	218.11
427.955	-197.63
428.167	175.1
428.379	175.1
428.591	7.17
428.804	-97.28
429.016	-291.84
429.228	-41.98
429.44	146.43
429.652	-48.13
429.864	-324.6
430.076	29.7
430.288	-17.41
430.5	-119.81
430.712	-56.32
430.924	252.92
431.136	44.03
431.348	-363.51
431.56	-244.73
431.772	41.98
431.984	-115.71
432.196	-250.88
432.408	-142.33
432.62	-78.85
432.832	56.32
433.044	54.27
433.256	-44.03
433.468	203.77
433.679	-261.12
433.891	-230.4
434.103	27.65
434.315	285.69
434.527	193.53
434.739	-111.61
434.95	-150.53
435.162	244.73
435.374	-111.61
435.586	-187.39
435.798	-242.68
436.009	-248.83
436.221	-54.27
436.433	-152.57
436.645	-97.28
436.856	-138.24
437.068	248.83
437.28	-232.44
437.491	103.42
437.703	95.23
437.915	50.18
438.126	-162.81
438.338	95.23
438.55	-46.08
438.761	19.46
438.973	-173.05
439.184	-140.29
439.396	60.42
439.608	242.68
439.819	-240.64
440.031	-46.08
440.242	93.18
440.454	125.95
440.665	-130.05
440.877	-50.18
441.088	152.57
441.3	-93.18
441.511	-379.9
441.723	-220.16
441.934	146.43
442.146	-11.26
442.357	-101.37
442.569	-31.74
442.78	62.46
442.991	334.84
443.203	111.61
443.414	-300.03
443.626	328.7
443.837	-162.81
444.048	-250.88
444.26	-324.6
444.471	-21.5
444.682	248.83
444.894	-340.99
445.105	-386.04
445.316	236.54
445.528	144.38
445.739	-117.76
445.95	-82.94
446.161	-46.08
446.373	265.21
446.584	-156.67
446.795	-146.43
447.006	146.43
447.217	404.47
447.429	-392.19
447.64	-220.16
447.851	232.44
448.062	-29.7
448.273	-394.23
448.484	-257.02
448.695	78.85
448.907	-46.08
449.118	-211.96
449.329	-37.89
449.54	-91.13
449.751	-293.88
449.962	-189.44
450.173	-177.15
450.384	242.68
450.595	320.51
450.806	-150.53
451.017	-187.39
451.228	271.36
451.439	128
451.65	-150.53
451.861	-351.23
452.072	-261.12
452.283	-5.12
452.494	11.26
452.705	-273.4
452.915	361.47
453.126	-13.31
453.337	-168.96
453.548	-267.26
453.759	246.78
453.97	508.92
454.181	33.79
454.391	-224.25
454.602	64.51
454.813	119.81
455.024	-177.15
455.235	-285.69
455.445	-56.32
455.656	103.42
455.867	-31.74
456.078	-269.31
456.288	-187.39
456.499	29.7
456.71	-271.36
456.921	58.37
457.131	168.96
457.342	101.37
457.553	-113.66
457.763	-226.3
457.974	82.94
458.184	205.82
458.395	-277.5
458.606	-318.46
458.816	175.1
459.027	441.34
459.237	-109.57
459.448	-340.99
459.659	314.36
459.869	449.53
460.08	-455.67
460.29	-103.42
460.501	515.06
460.711	-238.59
460.922	-398.33
461.132	-265.21
461.343	615.41
461.553	-320.51
461.764	-293.88
461.974	-173.05
462.184	162.81
462.395	166.91
462.605	-179.2
462.816	-295.93
463.026	107.52
463.236	234.49
463.447	-254.97
463.657	-244.73
463.867	220.16
464.078	-35.84
464.288	-105.47
464.498	-244.73
464.709	-74.75
464.919	-105.47
465.129	-203.77
465.339	-314.36
465.55	29.7
465.76	166.91
465.97	-113.66
466.18	-214.01
466.391	211.96
466.601	76.8
466.811	-179.2
467.021	-310.27
467.231	156.67
467.441	343.03
467.651	-144.38
467.862	-470.01
468.072	7.17
468.282	310.27
468.492	-207.87
468.702	-175.1
468.912	3.07
469.122	543.74
469.332	74.75
469.542	-269.31
469.752	128
469.962	31.74
470.172	-259.07
470.382	-248.83
470.592	218.11
470.802	275.45
471.012	-80.89
471.222	-283.64
471.432	320.51
471.642	107.52
471.852	-132.09
472.062	-326.65
472.272	-91.13
472.482	-279.55
472.691	-265.21
472.901	-371.71
473.111	89.09
473.321	539.64
473.531	-324.6
473.741	-84.99
473.95	117.76
474.16	146.43
474.37	-205.82
474.58	-390.14
474.79	418.81
474.999	158.72
475.209	-312.32
475.419	-228.35
475.628	-95.23
475.838	244.73
476.048	-158.72
476.258	-355.32
476.467	297.98
476.677	-144.38
476.886	31.74
477.096	-115.71
477.306	-173.05
477.515	316.41
477.725	-134.14
477.935	-218.11
478.144	259.07
478.354	-150.53
478.563	-232.44
478.773	-300.03
478.982	144.38
479.192	238.59
479.401	-136.19
479.611	-232.44
479.82	-246.78
480.03	48.13
480.239	-347.13
480.449	-324.6
480.658	431.1
480.868	-109.57
481.077	-183.29
481.287	-242.68
481.496	84.99
481.705	357.37
481.915	82.94
482.124	-5.12
482.333	56.32
482.543	379.9
482.752	-76.8
482.961	-183.29
483.171	197.63
483.38	-84.99
483.589	9.22
483.799	-297.98
484.008	-50.18
484.217	250.88
484.426	-103.42
484.636	-244.73
484.845	-17.41
485.054	-207.87
485.263	84.99
485.472	-224.25
485.682	379.9
485.891	-3.07
486.1	-332.79
486.309	-291.84
486.518	130.05
486.727	314.36
486.936	-283.64
487.146	-74.75
487.355	359.42
487.564	-240.64
487.773	-244.73
487.982	-175.1
488.191	-95.23
488.4	125.95
488.609	-160.77
488.818	-160.77
489.027	553.98
489.236	316.41
489.445	-197.63
489.654	-345.08
489.863	185.34
490.072	-27.65
490.281	134.14
490.49	-136.19
490.698	340.99
490.907	320.51
491.116	-138.24
491.325	-383.99
491.534	306.17
491.743	160.77
491.952	-66.56
492.16	-179.2
492.369	109.57
492.578	216.06
492.787	-46.08
492.996	-84.99
493.204	-84.99
493.413	455.67
493.622	-422.91
493.831	-338.94
494.039	439.29
494.248	-318.46
494.457	-302.08
494.665	-383.99
494.874	203.77
495.083	439.29
495.291	-144.38
495.5	-287.74
495.709	160.77
495.917	7.17
496.126	-115.71
496.335	-277.5
496.543	-44.03
496.752	87.04
496.96	101.37
497.169	-347.13
497.377	-1.02
497.586	244.73
497.794	-113.66
498.003	-418.81
498.211	60.42
498.42	420.86
498.628	-119.81
498.837	-291.84
499.045	128
499.254	101.37
499.462	-236.54
499.671	-304.12
499.879	455.67
500.087	205.82
500.296	-201.72
500.504	-164.86
500.713	19.46
500.921	586.74
501.129	-211.96
501.338	-216.06
501.546	76.8
501.754	70.65
501.962	-171.01
502.171	-320.51
502.379	111.61
502.587	463.86
502.795	-117.76
503.004	-152.57
503.212	-58.37
503.42	248.83
503.628	-181.25
503.837	-99.33
504.045	181.25
504.253	383.99
504.461	-246.78
504.669	-379.9
504.877	187.39
505.085	470.01
505.294	-379.9
505.502	-7.17
505.71	27.65
505.918	166.91
506.126	-199.68
506.334	-193.53
506.542	-72.7
506.75	101.37
506.958	-197.63
507.166	-177.15
507.374	-7.17
507.582	484.34
507.79	-107.52
507.998	-240.64
508.206	113.66
508.414	103.42
508.622	-205.82
508.83	-175.1
509.037	406.52
509.245	-19.46
509.453	-218.11
509.661	-285.69
509.869	185.34
510.077	46.08
510.285	-93.18
510.492	-470.01
510.7	601.08
510.908	-39.94
511.116	-150.53
511.324	-154.62
511.531	9.22
511.739	27.65
511.947	-99.33
512.155	84.99
512.362	60.42
512.57	-197.63
512.778	-207.87
512.985	-390.14
513.193	240.64
513.401	312.32
513.608	-166.91
513.816	-250.88
514.024	119.81
514.231	316.41
514.439	-242.68
514.646	-158.72
514.854	199.68
515.061	242.68
515.269	-179.2
515.477	-166.91
515.684	-220.16
515.892	254.97
516.099	-259.07
516.307	-285.69
516.514	291.84
516.722	328.7
516.929	-166.91
517.136	-254.97
517.344	381.95
517.551	183.29
517.759	-267.26
517.966	-140.29
518.173	-58.37
518.381	64.51
518.588	-21.5
518.796	-291.84
519.003	228.35
519.21	-19.46
519.418	-250.88
519.625	48.13
519.832	99.33
520.039	91.13
520.247	-390.14
520.454	-175.1
520.661	254.97
520.868	89.09
521.076	-214.01
521.283	-148.48
521.49	508.92
521.697	191.49
521.904	-183.29
522.112	-158.72
522.319	293.88
522.526	89.09
522.733	-257.02
522.94	-265.21
523.147	35.84
523.354	330.75
523.561	-330.75
523.768	-160.77
523.975	302.08
524.183	80.89
524.39	-146.43
524.597	-271.36
524.804	58.37
525.011	-152.57
525.218	-302.08
525.425	-234.49
525.632	289.79
525.838	-99.33
526.045	-199.68
526.252	-281.6
526.459	967.67
526.666	910.32
526.873	-218.11
527.08	-265.21
527.287	340.99
527.494	273.4
527.701	-330.75
527.907	-267.26
528.114	216.06
528.321	-15.36
528.528	-156.67
528.735	-252.92
528.941	-68.61
529.148	-146.43
529.355	-60.42
529.562	-205.82
529.768	392.19
529.975	-39.94
530.182	-195.58
530.388	-263.16
530.595	279.55
530.802	-187.39
531.008	-62.46
531.215	-226.3
531.422	717.81
531.628	713.72
531.835	-60.42
532.042	-64.51
532.248	-154.62
532.455	91.13
532.661	-142.33
532.868	-254.97
533.074	97.28
533.281	361.47
533.487	-125.95
533.694	-252.92
533.9	-138.24
534.107	203.77
534.313	-248.83
534.52	-285.69
534.726	314.36
534.933	543.74
535.139	-283.64
535.345	-187.39
535.552	156.67
535.758	39.94
535.965	-128
536.171	-242.68
536.377	273.4
536.584	338.94
536.79	-162.81
536.996	-64.51
537.203	68.61
537.409	99.33
537.615	-214.01
537.821	-7.17
538.028	252.92
538.234	214.01
538.44	-234.49
538.646	-140.29
538.853	150.53
539.059	9.22
539.265	205.82
539.471	-377.85
539.677	218.11
539.883	-21.5
540.09	-191.49
540.296	168.96
540.502	17.41
540.708	-158.72
540.914	1.02
541.12	-148.48
541.326	144.38
541.532	142.33
541.738	-66.56
541.944	-166.91
542.15	357.37
542.356	-9.22
542.562	-265.21
542.768	-128
542.974	656.37
543.18	547.83
543.386	-250.88
543.592	-295.93
543.798	383.99
544.004	285.69
544.21	-189.44
544.415	-152.57
544.621	128
544.827	240.64
545.033	-267.26
545.239	-3.07
545.445	-166.91
545.651	29.7
545.856	-195.58
546.062	-130.05
546.268	5.12
546.474	62.46
546.679	-193.53
546.885	-66.56
547.091	-15.36
547.297	521.21
547.502	-136.19
547.708	-191.49
547.914	-84.99
548.119	156.67
548.325	-297.98
548.531	-271.36
548.736	375.8
548.942	-93.18
549.147	-154.62
549.353	48.13
549.559	369.66
549.764	84.99
549.97	-279.55
550.175	-216.06
550.381	240.64
550.586	-58.37
550.792	-144.38
550.997	-119.81
551.203	154.62
551.408	248.83
551.614	-289.79
551.819	-189.44
552.025	408.57
552.23	656.37
552.435	-334.84
552.641	-35.84
552.846	-60.42
553.052	416.76
553.257	-82.94
553.462	-166.91
553.668	-128
553.873	353.27
554.078	-175.1
554.283	-232.44
554.489	211.96
554.694	60.42
554.899	-281.6
555.105	-15.36
555.31	226.3
555.515	277.5
555.72	-41.98
555.925	-175.1
556.131	259.07
556.336	-3.07
556.541	-189.44
556.746	-203.77
556.951	402.43
557.156	375.8
557.361	-99.33
557.567	17.41
557.772	549.88
557.977	273.4
558.182	-144.38
558.387	-132.09
558.592	-25.6
558.797	443.39
559.002	-62.46
559.207	-93.18
559.412	160.77
559.617	619.51
559.822	-158.72
560.027	-257.02
560.232	216.06
560.437	345.08
560.642	-279.55
560.847	-240.64
561.051	142.33
561.256	168.96
561.461	-189.44
561.666	-228.35
561.871	109.57
562.076	207.87
562.281	-31.74
562.485	-211.96
562.69	338.94
562.895	435.19
563.1	-123.9
563.305	-226.3
563.509	379.9
563.714	705.53
563.919	-195.58
564.123	-117.76
564.328	41.98
564.533	308.22
564.737	-62.46
564.942	-150.53
565.147	517.11
565.351	660.47
565.556	23.55
565.761	-15.36
565.965	154.62
566.17	21.5
566.374	-97.28
566.579	-267.26
566.784	168.96
566.988	93.18
567.193	-300.03
567.397	-101.37
567.602	-183.29
567.806	84.99
568.011	-87.04
568.215	-132.09
568.42	91.13
568.624	99.33
568.828	-97.28
569.033	66.56
569.237	318.46
569.442	224.25
569.646	-248.83
569.85	-78.85
570.055	84.99
570.259	130.05
570.463	183.29
570.668	-68.61
570.872	140.29
571.076	181.25
571.281	41.98
571.485	-11.26
571.689	177.15
571.893	314.36
572.098	-5.12
572.302	-46.08
572.506	140.29
572.71	101.37
572.914	-68.61
573.119	-50.18
573.323	416.76
573.527	363.51
573.731	-201.72
573.935	-125.95
574.139	152.57
574.343	-37.89
574.547	-62.46
574.751	-123.9
574.955	437.24
575.159	400.38
575.364	-148.48
575.568	-201.72
575.772	148.48
575.976	508.92
576.18	-195.58
576.383	-183.29
576.587	402.43
576.791	275.45
576.995	-304.12
577.199	-244.73
577.403	429.05
577.607	474.1
577.811	-214.01
578.015	-25.6
578.219	216.06
578.422	353.27
578.626	-72.7
578.83	111.61
579.034	418.81
579.238	123.9
579.442	-166.91
579.645	322.56
579.849	58.37
580.053	179.2
580.257	-31.74
580.46	-7.17
580.664	381.95
580.868	240.64
581.071	76.8
581.275	-17.41
581.479	-130.05
581.682	275.45
581.886	-107.52
582.09	74.75
582.293	310.27
582.497	377.85
582.7	33.79
582.904	-146.43
583.107	197.63
583.311	130.05
583.515	5.12
583.718	-13.31
583.922	246.78
584.125	596.98
584.329	-72.7
584.532	144.38
584.735	433.15
584.939	295.93
585.142	-171.01
585.346	-91.13
585.549	277.5
585.753	-7.17
585.956	62.46
586.159	23.55
586.363	607.22
586.566	398.33
586.769	-128
586.973	-220.16
587.176	257.02
587.379	402.43
587.582	259.07
587.786	146.43
587.989	177.15
588.192	820.21
588.395	72.7
588.599	166.91
588.802	265.21
589.005	357.37
589.208	-146.43
589.411	-15.36
589.615	404.47
589.818	578.55
590.021	128
590.224	52.22
590.427	310.27
590.63	373.75
590.833	-302.08
591.036	-150.53
591.239	91.13
591.442	80.89
591.645	121.85
591.848	-27.65
592.051	271.36
592.254	361.47
592.457	17.41
592.66	-11.26
592.863	132.09
593.066	343.03
593.269	-33.79
593.472	72.7
593.675	-56.32
593.878	431.1
594.081	132.09
594.284	-52.22
594.486	250.88
594.689	164.86
594.892	29.7
595.095	56.32
595.298	324.6
595.5	140.29
595.703	60.42
595.906	39.94
596.109	633.85
596.311	449.53
596.514	-275.45
596.717	84.99
596.92	435.19
597.122	191.49
597.325	-269.31
597.528	-50.18
597.73	484.34
597.933	216.06
598.136	-78.85
598.338	-234.49
598.541	320.51
598.743	576.5
598.946	-17.41
599.148	-33.79
599.351	451.58
599.554	377.85
599.756	115.71
599.959	5.12
600.161	420.86
600.363	840.69
600.566	285.69
600.768	3.07
600.971	566.26
601.173	500.73
601.376	-15.36
601.578	9.22
601.78	371.71
601.983	803.83
602.185	-52.22
602.388	144.38
602.59	273.4
602.792	136.19
602.995	238.59
603.197	-37.89
603.399	457.72
603.601	306.17
603.804	31.74
604.006	117.76
604.208	236.54
604.41	-97.28
604.613	179.2
604.815	-64.51
605.017	809.97
605.219	19.46
605.421	351.23
605.623	3.07
605.826	529.4
606.028	525.3
606.23	11.26
606.432	13.31
606.634	644.09
606.836	527.35
607.038	-70.65
607.24	115.71
607.442	265.21
607.644	218.11
607.846	148.48
608.048	-48.13
608.25	529.4
608.452	93.18
608.654	146.43
608.856	-199.68
609.058	162.81
609.26	326.65
609.462	138.24
609.664	115.71
609.866	656.37
610.067	441.34
610.269	271.36
610.471	91.13
610.673	134.14
610.875	398.33
611.077	-115.71
611.278	84.99
611.48	293.88
611.682	691.19
611.884	177.15
612.085	109.57
612.287	52.22
612.489	343.03
612.69	-44.03
612.892	211.96
613.094	439.29
613.295	427
613.497	-35.84
613.699	41.98
613.9	578.55
614.102	457.72
614.304	103.42
614.505	-70.65
614.707	199.68
614.908	314.36
615.11	-162.81
615.311	115.71
615.513	441.34
615.714	527.35
615.916	-80.89
616.117	109.57
616.319	152.57
616.52	465.91
616.722	82.94
616.923	19.46
617.124	537.59
617.326	375.8
617.527	146.43
617.729	201.72
617.93	414.71
618.131	412.67
618.333	44.03
618.534	146.43
618.735	162.81
618.937	631.8
619.138	-115.71
619.339	-62.46
619.54	373.75
619.742	195.58
619.943	242.68
620.144	128
620.345	513.02
620.546	508.92
620.748	-27.65
620.949	107.52
621.15	371.71
621.351	304.12
621.552	-9.22
621.753	-99.33
621.954	-11.26
622.155	771.06
622.356	-27.65
622.558	201.72
622.759	386.04
622.96	660.47
623.161	35.84
623.362	99.33
623.563	297.98
623.764	357.37
623.965	97.28
624.166	263.16
624.366	220.16
624.567	410.62
624.768	-140.29
624.969	72.7
625.17	244.73
625.371	553.98
625.572	187.39
625.773	-89.09
625.973	556.02
626.174	529.4
626.375	97.28
626.576	148.48
626.777	439.29
626.977	830.45
627.178	-29.7
627.379	214.01
627.58	306.17
627.78	383.99
627.981	125.95
628.182	203.77
628.382	603.13
628.583	35.84
628.784	9.22
628.984	271.36
629.185	472.06
629.386	547.83
629.586	82.94
629.787	7.17
629.987	410.62
630.188	330.75
630.388	103.42
630.589	101.37
630.79	914.42
630.99	297.98
631.191	146.43
631.391	246.78
631.591	541.69
631.792	744.44
631.992	277.5
632.193	33.79
632.393	783.35
632.594	367.61
632.794	89.09
632.994	281.6
633.195	328.7
633.395	373.75
633.595	84.99
633.796	361.47
633.996	160.77
634.196	601.08
634.397	-11.26
634.597	160.77
634.797	177.15
634.997	627.7
635.198	318.46
635.398	21.5
635.598	457.72
635.798	676.85
635.998	617.46
636.199	84.99
636.399	226.3
636.599	203.77
636.799	21.5
636.999	277.5
637.199	490.49
637.399	603.13
637.599	113.66
637.799	306.17
637.999	185.34
638.199	707.57
638.399	1.02
638.599	82.94
638.799	525.3
638.999	861.17
639.199	267.26
639.399	277.5
639.599	715.77
639.799	171.01
639.999	72.7
640.199	60.42
640.399	418.81
640.599	472.06
640.799	275.45
640.998	324.6
641.198	701.43
641.398	443.39
641.598	340.99
641.798	111.61
641.997	1332.2
642.197	431.1
642.397	310.27
642.597	140.29
642.796	547.83
642.996	762.87
643.196	302.08
643.395	72.7
643.595	527.35
643.795	-50.18
643.994	160.77
644.194	199.68
644.394	535.54
644.593	451.58
644.793	-23.55
644.992	326.65
645.192	560.12
645.392	-9.22
645.591	265.21
645.791	216.06
645.99	496.63
646.19	357.37
646.389	214.01
646.589	279.55
646.788	541.69
646.987	521.21
647.187	322.56
647.386	345.08
647.586	312.32
647.785	529.4
647.984	195.58
648.184	224.25
648.383	275.45
648.582	383.99
648.782	177.15
648.981	400.38
649.18	287.74
649.38	467.96
649.579	125.95
649.778	171.01
649.977	572.41
650.177	488.44
650.376	195.58
650.575	199.68
650.774	803.83
650.973	205.82
651.173	89.09
651.372	275.45
651.571	513.02
651.77	572.41
651.969	189.44
652.168	365.56
652.367	168.96
652.566	334.84
652.765	113.66
652.964	414.71
653.163	902.13
653.362	357.37
653.561	148.48
653.76	302.08
653.959	300.03
654.158	568.31
654.357	476.15
654.556	224.25
654.755	547.83
654.954	619.51
655.153	189.44
655.352	306.17
655.551	728.05
655.749	244.73
655.948	326.65
656.147	332.79
656.346	494.58
656.545	377.85
656.743	390.14
656.942	388.09
657.141	506.87
657.34	220.16
657.538	283.64
657.737	308.22
657.936	345.08
658.135	539.64
658.333	277.5
658.532	326.65
658.731	863.22
658.929	660.47
659.128	531.45
659.326	175.1
659.525	787.44
659.724	396.28
659.922	33.79
660.121	136.19
660.319	623.61
660.518	191.49
660.716	17.41
660.915	121.85
661.113	818.16
661.312	160.77
661.51	386.04
661.709	203.77
661.907	574.46
662.105	861.17
662.304	228.35
662.502	279.55
662.701	861.17
662.899	375.8
663.097	510.97
663.296	76.8
663.494	754.68
663.692	736.24
663.891	166.91
664.089	93.18
664.287	494.58
664.485	793.59
664.684	93.18
664.882	355.32
665.08	379.9
665.278	484.34
665.476	48.13
665.675	678.9
665.873	975.86
666.071	723.96
666.269	232.44
666.467	467.96
666.665	492.54
666.863	408.57
667.061	414.71
667.259	232.44
667.457	513.02
667.655	590.84
667.853	162.81
668.051	353.27
668.249	257.02
668.447	496.63
668.645	189.44
668.843	549.88
669.041	635.89
669.239	461.82
669.437	406.52
669.635	369.66
669.833	336.89
670.031	674.81
670.229	427
670.426	394.23
670.624	435.19
670.822	308.22
671.02	291.84
671.218	312.32
671.415	308.22
671.613	549.88
671.811	377.85
672.009	218.11
672.206	732.15
672.404	533.5
672.602	500.73
672.799	349.18
672.997	607.22
673.195	693.24
673.392	459.77
673.59	175.1
673.788	721.91
673.985	17.41
674.183	390.14
674.38	244.73
674.578	639.99
674.775	257.02
674.973	232.44
675.17	236.54
675.368	865.27
675.565	617.46
675.763	207.87
675.96	193.53
676.158	775.16
676.355	416.76
676.553	250.88
676.75	273.4
676.947	529.4
677.145	351.23
677.342	451.58
677.539	394.23
677.737	562.17
677.934	1006.58
678.131	496.63
678.329	189.44
678.526	865.27
678.723	680.95
678.92	338.94
679.118	343.03
679.315	181.25
679.512	812.02
679.709	336.89
679.906	441.34
680.104	779.25
680.301	797.68
680.498	187.39
680.695	230.4
680.892	422.91
681.089	304.12
681.286	390.14
681.483	89.09
681.68	752.63
681.877	678.9
682.075	283.64
682.272	535.54
682.469	680.95
682.665	324.6
682.862	297.98
683.059	164.86
683.256	607.22
683.453	648.18
683.65	349.18
683.847	300.03
684.044	467.96
684.241	285.69
684.438	418.81
684.635	281.6
684.831	951.28
685.028	951.28
685.225	306.17
685.422	345.08
685.619	535.54
685.815	607.22
686.012	445.43
686.209	357.37
686.405	183.29
686.602	750.58
686.799	209.92
686.996	269.31
687.192	308.22
687.389	1020.91
687.586	232.44
687.782	406.52
687.979	809.97
688.175	807.92
688.372	416.76
688.568	287.74
688.765	328.7
688.962	908.27
689.158	463.86
689.355	175.1
689.551	693.24
689.748	351.23
689.944	408.57
690.14	216.06
690.337	730.1
690.533	420.86
690.73	508.92
690.926	336.89
691.123	693.24
691.319	531.45
691.515	177.15
691.712	474.1
691.908	658.42
692.104	666.61
692.301	424.95
692.497	242.68
692.693	660.47
692.889	750.58
693.086	578.55
693.282	109.57
693.478	517.11
693.674	936.95
693.87	330.75
694.067	250.88
694.263	705.53
694.459	531.45
694.655	513.02
694.851	484.34
695.047	617.46
695.243	750.58
695.439	504.82
695.635	400.38
695.831	773.11
696.027	521.21
696.224	310.27
696.42	746.48
696.615	893.94
696.811	664.57
697.007	168.96
697.203	388.09
697.399	734.2
697.595	828.4
697.791	377.85
697.987	531.45
698.183	285.69
698.379	383.99
698.575	433.15
698.77	375.8
698.966	771.06
699.162	740.34
699.358	328.7
699.554	308.22
699.749	609.27
699.945	779.25
700.141	392.19
700.337	470.01
700.532	433.15
700.728	375.8
700.924	343.03
701.119	295.93
701.315	635.89
701.511	519.16
701.706	490.49
701.902	168.96
702.097	519.16
702.293	738.29
702.489	408.57
702.684	306.17
702.88	553.98
703.075	472.06
703.271	392.19
703.466	283.64
703.662	599.03
703.857	586.74
704.053	183.29
704.248	304.12
704.443	736.24
704.639	707.57
704.834	435.19
705.03	361.47
705.225	809.97
705.42	947.19
705.616	494.58
705.811	320.51
706.006	478.2
706.202	433.15
706.397	496.63
706.592	248.83
706.787	625.65
706.983	599.03
707.178	556.02
707.373	480.25
707.568	742.39
707.763	803.83
707.959	363.51
708.154	361.47
708.349	685.05
708.544	625.65
708.739	531.45
708.934	279.55
709.129	742.39
709.324	750.58
709.519	338.94
709.714	248.83
709.909	818.16
710.104	652.28
710.299	379.9
710.494	412.67
710.689	693.24
710.884	543.74
711.079	494.58
711.274	611.32
711.469	728.05
711.664	732.15
711.859	340.99
712.054	553.98
712.249	797.68
712.443	871.41
712.638	314.36
712.833	324.6
713.028	570.36
713.223	549.88
713.417	656.37
713.612	334.84
713.807	685.05
714.002	1098.74
714.196	580.6
714.391	427
714.586	771.06
714.78	480.25
714.975	455.67
715.17	345.08
715.364	566.26
715.559	846.84
715.754	27.65
715.948	394.23
716.143	1057.78
716.337	709.62
716.532	668.66
716.726	349.18
716.921	691.19
717.115	881.65
717.31	316.41
717.504	918.51
717.699	433.15
717.893	824.31
718.088	304.12
718.282	345.08
718.476	689.14
718.671	662.52
718.865	414.71
719.059	427
719.254	586.74
719.448	891.89
719.642	1623.02
719.837	281.6
720.031	828.4
720.225	934.9
720.419	515.06
720.614	345.08
720.808	799.73
721.002	529.4
721.196	357.37
721.39	357.37
721.585	951.28
721.779	709.62
721.973	431.1
722.167	248.83
722.361	611.32
722.555	818.16
722.749	375.8
722.943	334.84
723.137	314.36
723.331	678.9
723.525	412.67
723.719	445.43
723.913	775.16
724.107	924.66
724.301	285.69
724.495	523.26
724.689	953.33
724.883	873.46
725.077	318.46
725.271	424.95
725.465	879.6
725.659	631.8
725.853	539.64
726.046	259.07
726.24	494.58
726.434	867.31
726.628	383.99
726.822	568.31
727.015	895.99
727.209	875.51
727.403	427
727.596	242.68
727.79	797.68
727.984	818.16
728.177	439.29
728.371	510.97
728.565	922.61
728.758	398.33
728.952	361.47
729.146	404.47
729.339	926.71
729.533	515.06
729.726	326.65
729.92	386.04
730.113	941.04
730.307	580.6
730.5	449.53
730.694	347.13
730.887	484.34
731.081	746.48
731.274	302.08
731.468	486.39
731.661	637.94
731.854	594.93
732.048	490.49
732.241	326.65
732.435	525.3
732.628	676.85
732.821	494.58
733.014	316.41
733.208	324.6
733.401	721.91
733.594	400.38
733.788	359.42
733.981	955.38
734.174	633.85
734.367	404.47
734.56	513.02
734.754	807.92
734.947	601.08
735.14	371.71
735.333	449.53
735.526	865.27
735.719	533.5
735.912	336.89
736.105	349.18
736.298	687.09
736.491	463.86
736.684	400.38
736.877	351.23
737.07	594.93
737.263	824.31
737.456	406.52
737.649	347.13
737.842	478.2
738.035	586.74
738.228	472.06
738.421	545.78
738.614	846.84
738.807	750.58
739	209.92
739.192	383.99
739.385	758.77
739.578	840.69
739.771	646.13
739.964	455.67
740.156	713.72
740.349	687.09
740.542	666.61
740.735	320.51
740.927	388.09
741.12	517.11
741.313	357.37
741.505	494.58
741.698	648.18
741.891	619.51
742.083	605.17
742.276	398.33
742.468	721.91
742.661	644.09
742.854	463.86
743.046	484.34
743.239	1090.54
743.431	537.59
743.624	406.52
743.816	269.31
744.009	576.5
744.201	771.06
744.393	527.35
744.586	326.65
744.778	900.08
744.971	541.69
745.163	480.25
745.355	449.53
745.548	603.13
745.74	531.45
745.932	416.76
746.125	392.19
746.317	1143.79
746.509	639.99
746.702	408.57
746.894	519.16
747.086	750.58
747.278	961.52
747.471	508.92
747.663	519.16
747.855	594.93
748.047	982
748.239	435.19
748.431	375.8
748.623	1041.39
748.815	982
749.008	343.03
749.2	431.1
749.392	893.94
749.584	689.14
749.776	494.58
749.968	517.11
750.16	1127.41
750.352	570.36
750.544	441.34
750.736	361.47
750.928	764.92
751.12	709.62
751.311	529.4
751.503	490.49
751.695	674.81
751.887	683
752.079	226.3
752.271	451.58
752.463	1399.79
752.654	887.79
752.846	517.11
753.038	486.39
753.23	506.87
753.421	771.06
753.613	465.91
753.805	572.41
753.997	916.47
754.188	807.92
754.38	386.04
754.572	410.62
754.763	529.4
754.955	744.44
755.146	476.15
755.338	592.89
755.53	791.54
755.721	527.35
755.913	340.99
756.104	347.13
756.296	494.58
756.487	736.24
756.679	336.89
756.87	470.01
757.062	513.02
757.253	766.96
757.445	379.9
757.636	588.79
757.827	666.61
758.019	1154.03
758.21	300.03
758.401	449.53
758.593	1192.94
758.784	957.43
758.975	392.19
759.167	326.65
759.358	572.41
759.549	867.31
759.74	429.05
759.932	406.52
760.123	922.61
760.314	472.06
760.505	449.53
760.696	367.61
760.888	1209.33
761.079	480.25
761.27	257.02
761.461	232.44
761.652	947.19
761.843	529.4
762.034	492.54
762.225	650.23
762.416	590.84
762.607	574.46
762.798	482.3
762.989	408.57
763.18	1426.41
763.371	529.4
763.562	404.47
763.753	484.34
763.944	926.71
764.135	844.79
764.326	531.45
764.517	361.47
764.708	676.85
764.899	709.62
765.089	386.04
765.28	187.39
765.471	715.77
765.662	861.17
765.853	510.97
766.043	289.79
766.234	926.71
766.425	855.03
766.615	435.19
766.806	343.03
766.997	943.09
767.187	691.19
767.378	318.46
767.569	295.93
767.759	754.68
767.95	672.76
768.141	576.5
768.331	287.74
768.522	631.8
768.712	809.97
768.903	336.89
769.093	349.18
769.284	1002.48
769.474	633.85
769.665	377.85
769.855	203.77
770.046	728.05
770.236	568.31
770.426	601.08
770.617	326.65
770.807	732.15
770.998	613.37
771.188	545.78
771.378	404.47
771.569	867.31
771.759	820.21
771.949	265.21
772.139	191.49
772.33	650.23
772.52	1070.06
772.71	437.24
772.9	308.22
773.09	1096.69
773.281	916.47
773.471	326.65
773.661	320.51
773.851	871.41
774.041	586.74
774.231	396.28
774.421	556.02
774.611	965.62
774.802	629.75
774.992	523.26
775.182	326.65
775.372	572.41
775.562	848.88
775.752	455.67
775.942	365.56
776.131	838.64
776.321	662.52
776.511	400.38
776.701	320.51
776.891	822.26
777.081	363.51
777.271	427
777.461	330.75
777.651	703.48
777.84	904.18
778.03	496.63
778.22	476.15
778.41	879.6
778.599	443.39
778.789	476.15
778.979	287.74
779.169	691.19
779.358	582.65
779.548	584.7
779.738	283.64
779.927	617.46
780.117	437.24
780.307	476.15
780.496	166.91
780.686	662.52
780.875	975.86
781.065	388.09
781.254	429.05
781.444	689.14
781.633	615.41
781.823	285.69
782.012	308.22
782.202	478.2
782.391	549.88
782.581	287.74
782.77	527.35
782.96	664.57
783.149	535.54
783.338	353.27
783.528	183.29
783.717	795.64
783.906	715.77
784.096	508.92
784.285	431.1
784.474	549.88
784.663	537.59
784.853	373.75
785.042	371.71
785.231	508.92
785.42	826.36
785.61	521.21
785.799	324.6
785.988	418.81
786.177	627.7
786.366	402.43
786.555	566.26
786.744	824.31
786.933	580.6
787.122	222.2
787.312	265.21
787.501	369.66
787.69	703.48
787.879	381.95
788.068	396.28
788.257	285.69
788.445	502.78
788.634	435.19
788.823	312.32
789.012	1233.9
789.201	908.27
789.39	435.19
789.579	232.44
789.768	590.84
789.957	695.29
790.145	257.02
790.334	199.68
790.523	594.93
790.712	506.87
790.9	400.38
791.089	201.72
791.278	783.35
791.467	642.04
791.655	588.79
791.844	838.64
792.033	420.86
792.221	578.55
792.41	289.79
792.599	216.06
792.787	840.69
792.976	762.87
793.164	320.51
793.353	388.09
793.541	750.58
793.73	711.67
793.918	549.88
794.107	377.85
794.295	578.55
794.484	594.93
794.672	404.47
794.861	375.8
795.049	701.43
795.238	943.09
795.426	179.2
795.614	367.61
795.803	746.48
795.991	900.08
796.179	406.52
796.368	300.03
796.556	818.16
796.744	381.95
796.932	279.55
797.121	267.26
797.309	633.85
797.497	865.27
797.685	377.85
797.874	265.21
798.062	553.98
798.25	791.54
798.438	242.68
798.626	383.99
798.814	736.24
799.002	1135.6
799.19	457.72
799.378	388.09
799.566	805.88
799.755	932.85
799.943	558.07
800.131	316.41
800.318	637.94
800.506	773.11
800.694	369.66
800.882	531.45
801.07	957.43
801.258	617.46
801.446	328.7
801.634	355.32
801.822	582.65
802.01	650.23
802.197	283.64
802.385	531.45
802.573	697.33
802.761	439.29
802.949	431.1
803.136	189.44
803.324	848.88
803.512	689.14
803.699	386.04
803.887	181.25
804.075	781.3
804.262	547.83
804.45	279.55
804.638	504.82
804.825	435.19
805.013	476.15
805.201	488.44
805.388	316.41
805.576	556.02
805.763	979.95
805.951	347.13
806.138	525.3
806.326	1002.48
806.513	748.53
806.701	410.62
806.888	367.61
807.075	678.9
807.263	1037.3
807.45	254.97
807.638	508.92
807.825	1025.01
808.012	723.96
808.2	463.86
808.387	625.65
808.574	740.34
808.761	996.34
808.949	359.42
809.136	521.21
809.323	558.07
809.51	412.67
809.698	685.05
809.885	637.94
810.072	756.72
810.259	842.74
810.446	427
810.633	377.85
810.82	848.88
811.008	996.34
811.195	625.65
811.382	508.92
811.569	639.99
811.756	371.71
811.943	445.43
812.13	515.06
812.317	494.58
812.504	480.25
812.691	392.19
812.878	508.92
813.064	1008.62
813.251	693.24
813.438	318.46
813.625	588.79
813.812	599.03
813.999	553.98
814.186	465.91
814.372	457.72
814.559	648.18
814.746	955.38
814.933	449.53
815.12	605.17
815.306	513.02
815.493	361.47
815.68	375.8
815.866	486.39
816.053	867.31
816.24	1139.69
816.426	541.69
816.613	328.7
816.799	805.88
816.986	726
817.173	357.37
817.359	308.22
817.546	558.07
817.732	326.65
817.919	222.2
818.105	580.6
818.292	631.8
818.478	711.67
818.665	613.37
818.851	394.23
819.037	1117.17
819.224	599.03
819.41	408.57
819.597	396.28
819.783	889.84
819.969	779.25
820.156	535.54
820.342	263.16
820.528	1203.18
820.714	715.77
820.901	639.99
821.087	379.9
821.273	1084.4
821.459	646.13
821.646	431.1
821.832	381.95
822.018	693.24
822.204	758.77
822.39	379.9
822.576	287.74
822.762	758.77
822.948	758.77
823.134	570.36
823.32	375.8
823.507	410.62
823.693	631.8
823.879	881.65
824.065	431.1
824.25	668.66
824.436	433.15
824.622	404.47
824.808	320.51
824.994	572.41
825.18	510.97
825.366	441.34
825.552	273.4
825.738	547.83
825.923	887.79
826.109	646.13
826.295	343.03
826.481	592.89
826.667	549.88
826.852	529.4
827.038	390.14
827.224	885.75
827.409	1020.91
827.595	297.98
827.781	693.24
827.966	824.31
828.152	943.09
828.338	429.05
828.523	273.4
828.709	451.58
828.894	912.37
829.08	390.14
829.266	408.57
829.451	367.61
829.637	766.96
829.822	572.41
830.008	304.12
830.193	809.97
830.378	1025.01
830.564	480.25
830.749	273.4
830.935	791.54
831.12	762.87
831.305	377.85
831.491	492.54
831.676	402.43
831.861	836.6
832.047	433.15
832.232	293.88
832.417	900.08
832.602	588.79
832.788	377.85
832.973	451.58
833.158	451.58
833.343	687.09
833.528	486.39
833.714	533.5
833.899	887.79
834.084	1061.87
834.269	556.02
834.454	449.53
834.639	779.25
834.824	480.25
835.009	635.89
835.194	639.99
835.379	762.87
835.564	930.8
835.749	494.58
835.934	361.47
836.119	807.92
836.304	582.65
836.489	496.63
836.674	664.57
836.859	447.48
837.044	867.31
837.228	445.43
837.413	353.27
837.598	734.2
837.783	775.16
837.968	414.71
838.152	297.98
838.337	263.16
838.522	842.74
838.707	793.59
838.891	734.2
839.076	674.81
839.261	838.64
839.445	408.57
839.63	547.83
839.815	984.05
839.999	496.63
840.184	418.81
840.368	383.99
840.553	945.14
840.737	820.21
840.922	351.23
841.106	324.6
841.291	424.95
841.475	650.23
841.66	443.39
841.844	478.2
842.029	1330.16
842.213	420.86
842.397	320.51
842.582	236.54
842.766	941.04
842.951	746.48
843.135	394.23
843.319	453.63
843.504	713.72
843.688	926.71
843.872	252.92
844.056	414.71
844.241	832.5
844.425	594.93
844.609	695.29
844.793	263.16
844.977	844.79
845.161	637.94
845.346	271.36
845.53	437.24
845.714	629.75
845.898	1033.2
846.082	230.4
846.266	304.12
846.45	658.42
846.634	707.57
846.818	330.75
847.002	533.5
847.186	766.96
847.37	490.49
847.554	340.99
847.738	461.82
847.922	658.42
848.106	787.44
848.29	320.51
848.473	392.19
848.657	795.64
848.841	551.93
849.025	369.66
849.209	248.83
849.392	791.54
849.576	605.17
849.76	193.53
849.944	642.04
850.127	936.95
850.311	379.9
850.495	277.5
850.678	306.17
850.862	941.04
851.046	975.86
851.229	680.95
851.413	361.47
851.596	558.07
851.78	523.26
851.964	582.65
852.147	386.04
852.331	1229.81
852.514	889.84
852.698	543.74
852.881	205.82
853.065	838.64
853.248	582.65
853.431	488.44
853.615	543.74
853.798	1113.07
853.982	664.57
854.165	564.22
854.348	336.89
854.532	349.18
854.715	441.34
854.898	480.25
855.081	353.27
855.265	869.36
855.448	920.56
855.631	361.47
855.814	412.67
855.997	879.6
856.181	517.11
856.364	465.91
856.547	244.73
856.73	717.81
856.913	660.47
857.096	230.4
857.279	533.5
857.462	537.59
857.645	869.36
857.828	484.34
858.011	377.85
858.194	517.11
858.377	752.63
858.56	259.07
858.743	504.82
858.926	443.39
859.109	766.96
859.292	343.03
859.475	240.64
859.658	855.03
859.841	562.17
860.023	230.4
860.206	254.97
860.389	603.13
860.572	934.9
860.755	449.53
860.937	349.18
861.12	541.69
861.303	531.45
861.486	457.72
861.668	420.86
861.851	762.87
862.034	668.66
862.216	541.69
862.399	187.39
862.581	838.64
862.764	1006.58
862.947	424.95
863.129	310.27
863.312	363.51
863.494	971.76
863.677	572.41
863.859	250.88
864.042	816.12
864.224	963.57
864.406	357.37
864.589	177.15
864.771	822.26
864.954	396.28
865.136	334.84
865.318	203.77
865.501	683
865.683	164.86
865.865	349.18
866.048	418.81
866.23	678.9
866.412	642.04
866.594	304.12
866.777	361.47
866.959	754.68
867.141	330.75
867.323	685.05
867.505	486.39
867.687	619.51
867.869	494.58
868.052	465.91
868.234	343.03
868.416	545.78
868.598	711.67
868.78	289.79
868.962	240.64
869.144	771.06
869.326	838.64
869.508	340.99
869.69	263.16
869.872	545.78
870.054	883.7
870.236	242.68
870.417	386.04
870.599	582.65
870.781	910.32
870.963	381.95
871.145	236.54
871.327	338.94
871.508	836.6
871.69	359.42
871.872	302.08
872.054	482.3
872.235	850.93
872.417	355.32
872.599	338.94
872.78	871.41
872.962	621.56
873.144	177.15
873.325	402.43
873.507	941.04
873.689	631.8
873.87	140.29
874.052	484.34
874.233	537.59
874.415	793.59
874.596	332.79
874.778	244.73
874.959	549.88
875.141	771.06
875.322	383.99
875.503	230.4
875.685	680.95
875.866	254.97
876.048	281.6
876.229	254.97
876.41	578.55
876.592	652.28
876.773	316.41
876.954	248.83
877.136	912.37
877.317	461.82
877.498	216.06
877.679	447.48
877.86	746.48
878.042	545.78
878.223	300.03
878.404	685.05
878.585	840.69
878.766	1002.48
878.947	558.07
879.128	515.06
879.309	748.53
879.49	785.4
879.672	424.95
879.853	381.95
880.034	316.41
880.215	523.26
880.396	363.51
880.576	312.32
880.757	427
880.938	916.47
881.119	320.51
881.3	312.32
881.481	390.14
881.662	1268.72
881.843	306.17
882.023	168.96
882.204	660.47
882.385	568.31
882.566	357.37
882.747	312.32
882.927	525.3
883.108	715.77
883.289	320.51
883.469	560.12
883.65	445.43
883.831	609.27
884.011	525.3
884.192	289.79
884.373	842.74
884.553	693.24
884.734	498.68
884.914	672.76
885.095	1139.69
885.275	922.61
885.456	652.28
885.636	254.97
885.817	590.84
885.997	570.36
886.178	302.08
886.358	422.91
886.538	576.5
886.719	1594.34
886.899	263.16
887.08	451.58
887.26	832.5
887.44	316.41
887.621	279.55
887.801	459.77
887.981	1133.55
888.161	732.15
888.342	371.71
888.522	336.89
888.702	902.13
888.882	877.55
889.062	527.35
889.242	228.35
889.423	992.24
889.603	701.43
889.783	424.95
889.963	340.99
890.143	758.77
890.323	887.79
890.503	470.01
890.683	369.66
890.863	668.66
891.043	644.09
891.223	445.43
891.403	584.7
891.583	654.33
891.763	668.66
891.943	445.43
892.122	291.84
892.302	648.18
892.482	631.8
892.662	570.36
892.842	435.19
893.022	754.68
893.201	427
893.381	599.03
893.561	334.84
893.741	748.53
893.92	713.72
894.1	431.1
894.28	572.41
894.459	789.49
894.639	773.11
894.819	406.52
894.998	529.4
895.178	695.29
895.357	850.93
895.537	433.15
895.716	318.46
895.896	623.61
896.075	1080.3
896.255	398.33
896.434	214.01
896.614	789.49
896.793	1018.86
896.973	510.97
897.152	547.83
897.331	797.68
897.511	895.99
897.69	334.84
897.87	451.58
898.049	818.16
898.228	646.13
898.407	570.36
898.587	594.93
898.766	500.73
898.945	754.68
899.124	723.96
899.304	420.86
899.483	760.82
899.662	1082.35
899.841	312.32
900.02	297.98
900.199	965.62
900.378	738.29
900.557	310.27
900.737	359.42
900.916	783.35
901.095	887.79
901.274	666.61
901.453	439.29
901.632	461.82
901.811	441.34
901.989	451.58
902.168	308.22
902.347	824.31
902.526	431.1
902.705	435.19
902.884	443.39
903.063	1010.67
903.242	979.95
903.42	338.94
903.599	420.86
903.778	943.09
903.957	1045.49
904.135	623.61
904.314	558.07
904.493	715.77
904.672	875.51
904.85	504.82
905.029	474.1
905.207	918.51
905.386	1405.93
905.565	379.9
905.743	418.81
905.922	605.17
906.1	891.89
906.279	328.7
906.457	320.51
906.636	506.87
906.814	627.7
906.993	461.82
907.171	308.22
907.35	809.97
907.528	754.68
907.707	683
907.885	373.75
908.063	1102.83
908.242	398.33
908.42	400.38
908.598	295.93
908.777	787.44
908.955	539.64
909.133	439.29
909.311	365.56
909.49	486.39
909.668	584.7
909.846	490.49
910.024	267.26
910.202	650.23
910.38	719.86
910.559	314.36
910.737	320.51
910.915	742.39
911.093	652.28
911.271	508.92
911.449	574.46
911.627	715.77
911.805	1082.35
911.983	418.81
912.161	361.47
912.339	791.54
912.517	941.04
912.695	541.69
912.872	467.96
913.05	402.43
913.228	752.63
913.406	390.14
913.584	396.28
913.762	904.18
913.939	427
914.117	347.13
914.295	293.88
914.473	683
914.65	615.41
914.828	435.19
915.006	388.09
915.184	322.56
915.361	769.01
915.539	504.82
915.716	617.46
915.894	709.62
916.072	758.77
916.249	646.13
916.427	531.45
916.604	330.75
916.782	824.31
916.959	295.93
917.137	398.33
917.314	674.81
917.492	713.72
917.669	502.78
917.847	547.83
918.024	683
918.201	486.39
918.379	529.4
918.556	510.97
918.733	906.23
918.911	576.5
919.088	670.71
919.265	320.51
919.442	637.94
919.62	553.98
919.797	363.51
919.974	197.63
920.151	717.81
920.328	697.33
920.506	410.62
920.683	582.65
920.86	386.04
921.037	345.08
921.214	398.33
921.391	328.7
921.568	814.07
921.745	431.1
921.922	429.05
922.099	310.27
922.276	887.79
922.453	648.18
922.63	220.16
922.807	558.07
922.984	596.98
923.161	478.2
923.338	310.27
923.514	345.08
923.691	639.99
923.868	775.16
924.045	340.99
924.222	201.72
924.399	607.22
924.575	775.16
924.752	451.58
924.929	416.76
925.105	719.86
925.282	400.38
925.459	297.98
925.635	365.56
925.812	656.37
925.989	453.63
926.165	336.89
926.342	250.88
926.518	343.03
926.695	588.79
926.871	203.77
927.048	224.25
927.224	695.29
927.401	422.91
927.577	406.52
927.754	306.17
927.93	836.6
928.107	660.47
928.283	293.88
928.459	398.33
928.636	674.81
928.812	365.56
928.988	275.45
929.165	199.68
929.341	478.2
929.517	576.5
929.693	617.46
929.87	142.33
930.046	648.18
930.222	369.66
930.398	232.44
930.574	457.72
930.751	545.78
930.927	467.96
931.103	273.4
931.279	351.23
931.455	226.3
931.631	521.21
931.807	236.54
931.983	142.33
932.159	185.34
932.335	480.25
932.511	300.03
932.687	259.07
932.863	592.89
933.039	527.35
933.215	148.48
933.391	58.37
933.566	431.1
933.742	519.16
933.918	214.01
934.094	171.01
934.27	547.83
934.445	439.29
934.621	383.99
934.797	199.68
934.973	678.9
935.148	644.09
935.324	187.39
935.5	60.42
935.675	678.9
935.851	488.44
936.027	201.72
936.202	238.59
936.378	513.02
936.553	330.75
936.729	672.76
936.904	220.16
937.08	136.19
937.255	261.12
937.431	134.14
937.606	105.47
937.782	297.98
937.957	420.86
938.133	183.29
938.308	82.94
938.483	349.18
938.659	158.72
938.834	271.36
939.009	105.47
939.185	267.26
939.36	84.99
939.535	-222.2
939.71	228.35
939.886	599.03
940.061	445.43
940.236	242.68
940.411	64.51
940.586	422.91
940.761	408.57
940.937	232.44
941.112	115.71
941.287	326.65
941.462	459.77
941.637	-7.17
941.812	177.15
941.987	482.3
942.162	279.55
942.337	240.64
942.512	72.7
942.687	576.5
942.862	553.98
943.037	-29.7
943.212	-99.33
943.386	195.58
943.561	414.71
943.736	218.11
943.911	394.23
944.086	480.25
944.26	373.75
944.435	248.83
944.61	168.96
944.785	541.69
944.959	687.09
945.134	285.69
945.309	-60.42
945.483	62.46
945.658	525.3
945.833	-150.53
946.007	-31.74
946.182	676.85
946.357	72.7
946.531	52.22
946.706	-11.26
946.88	-134.14
947.055	318.46
947.229	60.42
947.404	15.36
947.578	486.39
947.752	234.49
947.927	-11.26
948.101	-84.99
948.276	273.4
948.45	302.08
948.624	228.35
948.799	115.71
948.973	302.08
949.147	9.22
949.321	78.85
949.496	117.76
949.67	533.5
949.844	132.09
950.018	70.65
950.193	58.37
950.367	766.96
950.541	136.19
950.715	207.87
950.889	228.35
951.063	257.02
951.237	515.06
951.411	-148.48
951.585	-62.46
951.759	363.51
951.933	269.31
952.107	-9.22
952.281	197.63
952.455	611.32
952.629	435.19
952.803	-39.94
952.977	-130.05
953.151	480.25
953.325	367.61
953.499	156.67
953.672	-13.31
953.846	58.37
954.02	160.77
954.194	1.02
954.368	-23.55
954.541	449.53
954.715	115.71
954.889	109.57
955.062	-21.5
955.236	248.83
955.41	144.38
955.583	166.91
955.757	-111.61
955.93	152.57
956.104	-23.55
956.278	33.79
956.451	31.74
956.625	316.41
956.798	756.72
956.972	277.5
957.145	-72.7
957.319	267.26
957.492	216.06
957.665	238.59
957.839	21.5
958.012	369.66
958.185	164.86
958.359	76.8
958.532	263.16
958.705	457.72
958.879	369.66
959.052	95.23
959.225	-50.18
959.398	314.36
959.572	304.12
959.745	15.36
959.918	109.57
960.091	111.61
960.264	361.47
960.438	-54.27
960.611	17.41
960.784	347.13
960.957	201.72
961.13	408.57
961.303	-39.94
961.476	318.46
961.649	496.63
961.822	-19.46
961.995	74.75
962.168	437.24
962.341	226.3
962.514	103.42
962.686	25.6
962.859	218.11
963.032	410.62
963.205	27.65
963.378	-91.13
963.551	347.13
963.723	359.42
963.896	168.96
964.069	220.16
964.242	285.69
964.414	365.56
964.587	50.18
964.76	117.76
964.932	328.7
965.105	228.35
965.278	23.55
965.45	11.26
965.623	205.82
965.795	379.9
965.968	48.13
966.14	93.18
966.313	146.43
966.485	246.78
966.658	82.94
966.83	-19.46
967.003	527.35
967.175	449.53
967.348	58.37
967.52	-15.36
967.692	596.98
967.865	304.12
968.037	25.6
968.209	308.22
968.382	224.25
968.554	422.91
968.726	9.22
968.898	-62.46
969.071	340.99
969.243	306.17
969.415	111.61
969.587	142.33
969.759	764.92
969.932	445.43
970.104	76.8
970.276	-142.33
970.448	99.33
970.62	162.81
970.792	128
970.964	109.57
971.136	760.82
971.308	377.85
971.48	31.74
971.652	84.99
971.824	627.7
971.996	99.33
972.168	123.9
972.339	54.27
972.511	488.44
972.683	158.72
972.855	207.87
973.027	87.04
973.199	250.88
973.37	424.95
973.542	226.3
973.714	148.48
973.886	295.93
974.057	506.87
974.229	-3.07
974.401	-27.65
974.572	15.36
974.744	-236.54
974.915	-11.26
975.087	-54.27
975.259	519.16
975.43	39.94
975.602	76.8
975.773	-64.51
975.945	66.56
976.116	392.19
976.288	-80.89
976.459	214.01
976.63	158.72
976.802	291.84
976.973	64.51
977.145	179.2
977.316	639.99
977.487	613.37
977.659	160.77
977.83	68.61
978.001	652.28
978.172	273.4
978.344	35.84
978.515	23.55
978.686	207.87
978.857	519.16
979.028	15.36
979.2	-87.04
979.371	476.15
979.542	224.25
979.713	160.77
979.884	-388.09
980.055	91.13
980.226	109.57
980.397	-58.37
980.568	-121.85
980.739	431.1
980.91	185.34
981.081	162.81
981.252	-50.18
981.423	445.43
981.594	457.72
981.765	-95.23
981.936	101.37
982.106	252.92
982.277	496.63
982.448	46.08
982.619	314.36
982.79	183.29
982.96	463.86
983.131	115.71
983.302	-214.01
983.472	123.9
983.643	271.36
983.814	103.42
983.984	-9.22
984.155	134.14
984.326	476.15
984.496	123.9
984.667	13.31
984.837	72.7
985.008	498.68
985.178	173.05
985.349	44.03
985.519	187.39
985.69	105.47
985.86	76.8
986.031	-68.61
986.201	306.17
986.371	369.66
986.542	-19.46
986.712	-214.01
986.882	402.43
987.053	314.36
987.223	-158.72
987.393	211.96
987.563	80.89
987.734	449.53
987.904	277.5
988.074	33.79
988.244	275.45
988.414	58.37
988.585	31.74
988.755	103.42
988.925	238.59
989.095	513.02
989.265	-37.89
989.435	66.56
989.605	332.79
989.775	334.84
989.945	320.51
990.115	-125.95
990.285	195.58
990.455	173.05
990.625	101.37
990.795	-13.31
990.965	498.68
991.134	103.42
991.304	-54.27
991.474	9.22
991.644	302.08
991.814	662.52
991.984	-70.65
992.153	-101.37
992.323	146.43
992.493	238.59
992.662	-201.72
992.832	99.33
993.002	242.68
993.171	330.75
993.341	-162.81
993.511	130.05
993.68	44.03
993.85	347.13
994.019	-125.95
994.189	-103.42
994.358	300.03
994.528	35.84
994.697	-248.83
994.867	-140.29
995.036	381.95
995.206	123.9
995.375	-142.33
995.544	103.42
995.714	226.3
995.883	101.37
996.052	93.18
996.222	-273.4
996.391	701.43
996.56	181.25
996.73	-136.19
996.899	-177.15
997.068	627.7
997.237	222.2
997.406	-156.67
997.576	-228.35
997.745	199.68
997.914	246.78
998.083	-308.22
998.252	-23.55
998.421	187.39
998.59	35.84
998.759	-113.66
998.928	-308.22
999.097	396.28
999.266	232.44
999.435	17.41
999.604	-242.68
999.773	639.99
999.942	109.57
1000.111	-248.83
1000.28	-261.12
1000.448	-37.89
1000.617	-105.47
1000.786	23.55
1000.955	-224.25
1001.124	150.53
1001.292	775.16
1001.461	-146.43
1001.63	-201.72
1001.798	588.79
1001.967	470.01
1002.136	-246.78
1002.304	-148.48
1002.473	140.29
1002.642	238.59
1002.81	-70.65
1002.979	-154.62
1003.147	304.12
1003.316	787.44
1003.484	-91.13
1003.653	-211.96
1003.821	433.15
1003.99	-3.07
1004.158	-17.41
1004.327	-3.07
1004.495	318.46
1004.663	-33.79
1004.832	-44.03
1005	-347.13
1005.168	291.84
1005.337	230.4
1005.505	-207.87
1005.673	82.94
1005.842	230.4
1006.01	254.97
1006.178	-195.58
1006.346	-175.1
1006.514	195.58
1006.683	318.46
1006.851	-246.78
1007.019	-216.06
1007.187	-19.46
1007.355	-195.58
1007.523	-304.12
1007.691	-259.07
1007.859	-171.01
1008.027	439.29
1008.195	-99.33
1008.363	-257.02
1008.531	324.6
1008.699	1.02
1008.867	-224.25
1009.035	-218.11
1009.203	449.53
1009.37	117.76
1009.538	-158.72
1009.706	218.11
1009.874	181.25
1010.042	105.47
1010.209	-324.6
1010.377	-125.95
1010.545	332.79
1010.713	158.72
1010.88	-214.01
1011.048	-109.57
1011.216	-44.03
1011.383	472.06
1011.551	-230.4
1011.718	-214.01
1011.886	295.93
1012.054	64.51
1012.221	-103.42
1012.389	-142.33
1012.556	115.71
1012.724	484.34
1012.891	21.5
1013.058	-347.13
1013.226	345.08
1013.393	291.84
1013.561	-289.79
1013.728	-310.27
1013.895	320.51
1014.063	306.17
1014.23	-332.79
1014.397	-199.68
1014.565	359.42
1014.732	39.94
1014.899	-279.55
1015.066	-289.79
1015.233	76.8
1015.401	314.36
1015.568	-152.57
1015.735	-41.98
1015.902	308.22
1016.069	197.63
1016.236	-150.53
1016.403	-181.25
1016.57	-89.09
1016.737	308.22
1016.904	-201.72
1017.071	-357.37
1017.238	-23.55
1017.405	390.14
1017.572	-240.64
1017.739	-29.7
1017.906	261.12
1018.073	359.42
1018.24	-330.75
1018.407	-113.66
1018.573	431.1
1018.74	107.52
1018.907	-109.57
1019.074	-310.27
1019.241	373.75
1019.407	105.47
1019.574	-160.77
1019.741	-279.55
1019.907	193.53
1020.074	265.21
1020.241	-332.79
1020.407	-265.21
1020.574	304.12
1020.74	304.12
1020.907	-232.44
1021.073	-166.91
1021.24	646.13
1021.406	388.09
1021.573	-244.73
1021.739	-207.87
1021.906	324.6
1022.072	105.47
1022.239	-216.06
1022.405	-160.77
1022.571	82.94
1022.738	9.22
1022.904	-175.1
1023.07	-87.04
1023.237	123.9
1023.403	365.56
1023.569	-125.95
1023.735	-93.18
1023.902	146.43
1024.068	189.44
1024.234	-289.79
1024.4	-136.19
1024.566	181.25
1024.732	275.45
1024.898	-166.91
1025.065	-357.37
1025.231	373.75
1025.397	150.53
1025.563	-181.25
1025.729	-224.25
1025.895	-314.36
1026.061	-84.99
1026.227	-351.23
1026.392	-175.1
1026.558	306.17
1026.724	297.98
1026.89	-177.15
1027.056	-175.1
1027.222	228.35
1027.388	70.65
1027.553	-265.21
1027.719	-222.2
1027.885	496.63
1028.051	168.96
1028.216	-361.47
1028.382	-193.53
1028.548	324.6
1028.713	-80.89
1028.879	-291.84
1029.045	-27.65
1029.21	410.62
1029.376	338.94
1029.541	-177.15
1029.707	-123.9
1029.873	267.26
1030.038	293.88
1030.204	-173.05
1030.369	-128
1030.534	351.23
1030.7	44.03
1030.865	-142.33
1031.031	-173.05
1031.196	179.2
1031.361	168.96
1031.527	-257.02
1031.692	-275.45
1031.857	-297.98
1032.023	269.31
1032.188	-320.51
1032.353	-191.49
1032.518	420.86
1032.684	216.06
1032.849	-281.6
1033.014	-76.8
1033.179	310.27
1033.344	306.17
1033.509	9.22
1033.674	-113.66
1033.839	316.41
1034.004	271.36
1034.17	-222.2
1034.335	-248.83
1034.5	144.38
1034.664	15.36
1034.829	-211.96
1034.994	-203.77
1035.159	224.25
1035.324	248.83
1035.489	-179.2
1035.654	-248.83
1035.819	424.95
1035.984	238.59
1036.148	-97.28
1036.313	-214.01
1036.478	326.65
1036.643	168.96
1036.807	-269.31
1036.972	-277.5
1037.137	506.87
1037.301	228.35
1037.466	-340.99
1037.631	-91.13
1037.795	453.63
1037.96	201.72
1038.124	66.56
1038.289	-365.56
1038.454	314.36
1038.618	295.93
1038.783	-191.49
1038.947	-39.94
1039.111	254.97
1039.276	21.5
1039.44	-205.82
1039.605	220.16
1039.769	29.7
1039.933	74.75
1040.098	-132.09
1040.262	54.27
1040.426	316.41
1040.591	338.94
1040.755	-195.58
1040.919	-191.49
1041.083	252.92
1041.248	74.75
1041.412	-349.18
1041.576	-216.06
1041.74	99.33
1041.904	398.33
1042.068	-216.06
1042.232	-115.71
1042.397	420.86
1042.561	199.68
1042.725	-363.51
1042.889	23.55
1043.053	324.6
1043.217	330.75
1043.381	-107.52
1043.544	-332.79
1043.708	470.01
1043.872	-91.13
1044.036	-427
1044.2	-285.69
1044.364	420.86
1044.528	594.93
1044.691	2776.02
1044.855	-347.13
1045.019	402.43
1045.183	304.12
1045.346	-162.81
1045.51	-164.86
1045.674	291.84
1045.837	330.75
1046.001	-132.09
1046.165	-279.55
1046.328	685.05
1046.492	289.79
1046.655	-15.36
1046.819	-89.09
1046.983	74.75
1047.146	306.17
1047.31	-111.61
1047.473	-308.22
1047.636	191.49
1047.8	-5.12
1047.963	-97.28
1048.127	-218.11
1048.29	37.89
