Data from Ink_Intensity_USB4F045381__61__00061.txt Node

Date: Mon Jul 17 10:25:06 EDT 2023
User: mmckonesweet
Spectrometer: USB4F04538
Trigger mode: 4
Integration Time (sec): 9.000000E-1
Scans to average: 1
Electric dark correction enabled: true
Nonlinearity correction enabled: false
Boxcar width: 0
XAxis mode: Wavelengths
Number of Pixels in Spectrum: 3648
>>>>>Begin Spectral Data<<<<<
345.52	-1008.8
345.736	-1008.8
345.952	-1008.8
346.168	-1025.18
346.384	-996.51
346.6	-122.02
346.816	-165.03
347.032	-179.37
347.248	236.37
347.464	-203.94
347.68	-124.07
347.896	154.45
348.112	359.25
348.328	-38.06
348.544	-144.55
348.76	-17.58
348.975	244.56
349.191	-165.03
349.407	-187.56
349.623	15.19
349.839	-103.59
350.055	-181.42
350.27	80.72
350.486	115.54
350.702	289.62
350.918	265.04
351.133	-226.47
351.349	43.86
351.565	435.02
351.781	-244.9
351.996	-74.92
352.212	224.08
352.428	-165.03
352.644	-267.43
352.859	-238.76
353.075	277.33
353.291	43.86
353.506	-115.88
353.722	-222.38
353.938	11.09
354.153	430.93
354.369	136.02
354.584	-203.94
354.8	174.93
355.016	-259.24
355.231	-261.29
355.447	-132.26
355.662	29.52
355.878	861
356.093	-425.12
356.309	-99.5
356.524	-300.2
356.74	242.51
356.955	-205.99
357.171	-31.91
357.386	117.59
357.602	-251.05
357.817	-66.73
358.033	-222.38
358.248	357.2
358.464	103.25
358.679	-152.74
358.895	-269.48
359.11	-36.01
359.325	222.03
359.541	41.81
359.756	-105.64
359.972	-244.9
360.187	154.45
360.402	-154.79
360.618	-171.18
360.833	940.87
361.048	117.59
361.264	-222.38
361.479	2.9
361.694	23.38
361.909	181.07
362.125	-173.22
362.34	-216.23
362.555	187.22
362.77	88.92
362.986	-310.44
363.201	-214.18
363.416	148.31
363.631	-5.29
363.847	-296.1
364.062	-189.61
364.277	111.44
364.492	56.15
364.707	-124.07
364.922	-410.79
365.138	260.95
365.353	322.38
365.568	-271.53
365.783	-144.55
365.998	199.51
366.213	549.71
366.428	-189.61
366.643	72.53
366.858	176.98
367.073	217.94
367.288	-197.8
367.503	-224.42
367.718	39.76
367.933	320.34
368.148	-345.25
368.363	-27.82
368.578	-56.49
368.793	416.59
369.008	-195.75
369.223	-312.49
369.438	248.66
369.653	420.69
369.868	-312.49
370.083	-267.43
370.298	105.3
370.513	392.02
370.728	41.81
370.943	-216.23
371.157	-97.45
371.372	557.9
371.587	-222.38
371.802	-324.77
372.017	-1.19
372.232	443.21
372.446	-83.11
372.661	-226.47
372.876	166.74
373.091	179.03
373.306	-99.5
373.52	-201.9
373.735	-228.52
373.95	328.53
374.165	-148.65
374.379	-152.74
374.594	-117.93
374.809	33.62
375.023	39.76
375.238	-257.19
375.453	185.17
375.667	-285.86
375.882	-230.57
376.097	-214.18
376.311	-29.87
376.526	-91.31
376.741	-273.57
376.955	80.72
377.17	537.42
377.384	543.57
377.599	-97.45
377.813	-320.68
378.028	607.05
378.242	119.64
378.457	-115.88
378.672	-394.4
378.886	-3.24
379.101	-15.53
379.315	-388.26
379.53	-183.46
379.744	136.02
379.958	142.16
380.173	-185.51
380.387	-296.1
380.602	35.67
380.816	-210.09
381.031	-101.55
381.245	-191.66
381.459	150.36
381.674	2624.3
381.888	-302.25
382.103	76.63
382.317	-199.85
382.531	416.59
382.746	-68.78
382.96	-214.18
383.174	-171.18
383.388	357.2
383.603	11.09
383.817	-287.91
384.031	148.31
384.246	475.98
384.46	-36.01
384.674	283.47
384.888	-79.02
385.103	70.48
385.317	-316.58
385.531	-99.5
385.745	332.62
385.959	269.14
386.174	-103.59
386.388	-226.47
386.602	19.29
386.816	-113.83
387.03	-124.07
387.244	-144.55
387.458	-1.19
387.672	314.19
387.887	-353.45
388.101	-208.04
388.315	379.73
388.529	88.92
388.743	-85.16
388.957	-255.14
389.171	219.99
389.385	-203.94
389.599	-83.11
389.813	80.72
390.027	121.68
390.241	629.58
390.455	-177.32
390.669	-177.32
390.883	-72.87
391.097	238.42
391.311	-31.91
391.525	-224.42
391.738	179.03
391.952	185.17
392.166	-81.07
392.38	-292.01
392.594	181.07
392.808	219.99
393.022	-142.5
393.236	-105.64
393.449	138.07
393.663	105.3
393.877	-388.26
394.091	-128.17
394.305	-126.12
394.518	-160.94
394.732	-337.06
394.946	-187.56
395.16	424.78
395.373	47.96
395.587	-294.05
395.801	-261.29
396.015	275.28
396.228	234.32
396.442	-302.25
396.656	-410.79
396.869	287.57
397.083	410.45
397.297	-144.55
397.51	-158.89
397.724	385.87
397.938	70.48
398.151	-390.31
398.365	-279.72
398.578	170.83
398.792	344.91
399.005	-130.22
399.219	-169.13
399.433	158.55
399.646	133.97
399.86	-79.02
400.073	33.62
400.287	68.44
400.5	-97.45
400.714	-36.01
400.927	-85.16
401.141	228.18
401.354	1028.93
401.567	189.27
401.781	-271.53
401.994	228.18
402.208	535.37
402.421	-31.91
402.635	-95.4
402.848	-117.93
403.061	310.1
403.275	23.38
403.488	-292.01
403.701	469.84
403.915	273.23
404.128	-50.35
404.341	-187.56
404.555	158.55
404.768	19.29
404.981	-17.58
405.195	-226.47
405.408	510.8
405.621	240.47
405.834	-13.48
406.048	-294.05
406.261	475.98
406.474	451.41
406.687	-259.24
406.9	2.9
407.114	43.86
407.327	58.2
407.54	-373.92
407.753	-378.02
407.966	-146.6
408.179	113.49
408.392	-316.58
408.605	-390.31
408.819	152.4
409.032	133.97
409.245	-271.53
409.458	21.33
409.671	80.72
409.884	162.64
410.097	-375.97
410.31	50
410.523	162.64
410.736	-21.67
410.949	-154.79
411.162	-150.7
411.375	392.02
411.588	240.47
411.801	-17.58
412.014	-181.42
412.227	-64.68
412.44	-89.26
412.653	-234.66
412.865	-62.63
413.078	293.71
413.291	103.25
413.504	-93.35
413.717	-240.81
413.93	228.18
414.143	-169.13
414.356	-111.78
414.568	-347.3
414.781	224.08
414.994	41.81
415.207	-126.12
415.42	-162.98
415.632	250.71
415.845	342.86
416.058	-359.59
416.271	-298.15
416.483	33.62
416.696	385.87
416.909	-152.74
417.121	-224.42
417.334	127.83
417.547	441.17
417.759	-220.33
417.972	-273.57
418.185	-181.42
418.397	248.66
418.61	-183.46
418.823	-257.19
419.035	383.82
419.248	43.86
419.46	-97.45
419.673	-72.87
419.885	209.75
420.098	-13.48
420.311	-228.52
420.523	-390.31
420.736	195.41
420.948	15.19
421.161	-152.74
421.373	-369.83
421.586	64.34
421.798	-218.28
422.01	-361.64
422.223	-1.19
422.435	-228.52
422.648	215.89
422.86	-224.42
423.073	-251.05
423.285	310.1
423.497	-277.67
423.71	-275.62
423.922	-189.61
424.134	187.22
424.347	420.69
424.559	7
424.771	107.35
424.984	-70.83
425.196	64.34
425.408	-398.5
425.621	-271.53
425.833	273.23
426.045	306
426.257	-277.67
426.47	-251.05
426.682	183.12
426.894	86.87
427.106	-160.94
427.318	-191.66
427.531	-144.55
427.743	183.12
427.955	-251.05
428.167	154.45
428.379	86.87
428.591	-50.35
428.804	-179.37
429.016	-255.14
429.228	-83.11
429.44	95.06
429.652	-48.3
429.864	-332.97
430.076	-62.63
430.288	-31.91
430.5	-152.74
430.712	-54.44
430.924	287.57
431.136	90.96
431.348	-359.59
431.56	-165.03
431.772	-74.92
431.984	-197.8
432.196	-251.05
432.408	-156.84
432.62	17.24
432.832	138.07
433.044	37.72
433.256	-109.74
433.468	246.61
433.679	-322.73
433.891	-337.06
434.103	-15.53
434.315	306
434.527	146.26
434.739	-36.01
434.95	-91.31
435.162	199.51
435.374	-119.98
435.586	-185.51
435.798	-195.75
436.009	-228.52
436.221	13.14
436.433	-210.09
436.645	-212.14
436.856	-66.73
437.068	279.38
437.28	-316.58
437.491	19.29
437.703	179.03
437.915	64.34
438.126	-218.28
438.338	64.34
438.55	-38.06
438.761	117.59
438.973	-240.81
439.184	-158.89
439.396	-1.19
439.608	197.46
439.819	-263.33
440.031	-105.64
440.242	211.79
440.454	181.07
440.665	-179.37
440.877	-15.53
441.088	72.53
441.3	-97.45
441.511	-363.69
441.723	-259.24
441.934	150.36
442.146	99.16
442.357	-97.45
442.569	47.96
442.78	52.05
442.991	449.36
443.203	62.29
443.414	-263.33
443.626	371.54
443.837	-132.26
444.048	-357.54
444.26	-390.31
444.471	19.29
444.682	260.95
444.894	-414.88
445.105	-355.49
445.316	199.51
445.528	136.02
445.739	-140.46
445.95	-162.98
446.161	58.2
446.373	217.94
446.584	-226.47
446.795	-201.9
447.006	82.77
447.217	318.29
447.429	-361.64
447.64	-318.63
447.851	273.23
448.062	7
448.273	-388.26
448.484	-255.14
448.695	123.73
448.907	-91.31
449.118	-138.41
449.329	25.43
449.54	-122.02
449.751	-220.33
449.962	-259.24
450.173	-173.22
450.384	217.94
450.595	363.34
450.806	-205.99
451.017	-287.91
451.228	312.14
451.439	164.69
451.65	-197.8
451.861	-418.98
452.072	-162.98
452.283	84.82
452.494	-15.53
452.705	-244.9
452.915	412.5
453.126	64.34
453.337	-195.75
453.548	-371.88
453.759	252.75
453.97	469.84
454.181	4.95
454.391	-177.32
454.602	-7.34
454.813	93.01
455.024	-208.04
455.235	-226.47
455.445	52.05
455.656	80.72
455.867	-56.49
456.078	-292.01
456.288	-72.87
456.499	121.68
456.71	-318.63
456.921	68.44
457.131	101.2
457.342	131.92
457.553	-148.65
457.763	-263.33
457.974	146.26
458.184	287.57
458.395	-244.9
458.606	-322.73
458.816	197.46
459.027	504.65
459.237	-156.84
459.448	-400.55
459.659	211.79
459.869	490.32
460.08	-408.74
460.29	-103.59
460.501	422.73
460.711	-107.69
460.922	-343.21
461.132	-273.57
461.343	617.29
461.553	-312.49
461.764	-294.05
461.974	-230.57
462.184	191.31
462.395	39.76
462.605	-154.79
462.816	-294.05
463.026	50
463.236	303.95
463.447	-351.4
463.657	-316.58
463.867	224.08
464.078	-97.45
464.288	-132.26
464.498	-132.26
464.709	45.91
464.919	-25.77
465.129	-156.84
465.339	-300.2
465.55	72.53
465.76	140.12
465.97	-171.18
466.18	-304.29
466.391	121.68
466.601	101.2
466.811	-144.55
467.021	-332.97
467.231	82.77
467.441	217.94
467.651	-203.94
467.862	-498.85
468.072	-1.19
468.282	312.14
468.492	-246.95
468.702	-212.14
468.912	21.33
469.122	541.52
469.332	33.62
469.542	-441.51
469.752	140.12
469.962	97.11
470.172	-263.33
470.382	-312.49
470.592	144.21
470.802	240.47
471.012	-91.31
471.222	-320.68
471.432	215.89
471.642	140.12
471.852	-134.31
472.062	-273.57
472.272	54.1
472.482	-193.7
472.691	-298.15
472.901	-324.77
473.111	23.38
473.321	549.71
473.531	-320.68
473.741	-197.8
473.95	136.02
474.16	138.07
474.37	-232.62
474.58	-337.06
474.79	473.93
474.999	222.03
475.209	-337.06
475.419	-220.33
475.628	-29.87
475.838	334.67
476.048	-281.77
476.258	-439.46
476.467	289.62
476.677	-142.5
476.886	-144.55
477.096	-160.94
477.306	-124.07
477.515	291.66
477.725	-97.45
477.935	-224.42
478.144	344.91
478.354	-60.59
478.563	-226.47
478.773	-292.01
478.982	146.26
479.192	285.52
479.401	-132.26
479.611	-292.01
479.82	-173.22
480.03	-25.77
480.239	-300.2
480.449	-431.27
480.658	392.02
480.868	-68.78
481.077	-91.31
481.287	-181.42
481.496	148.31
481.705	439.12
481.915	-33.96
482.124	15.19
482.333	58.2
482.543	336.72
482.752	-197.8
482.961	-226.47
483.171	191.31
483.38	111.44
483.589	-187.56
483.799	-326.82
484.008	41.81
484.217	181.07
484.426	-242.85
484.636	-392.36
484.845	115.54
485.054	-337.06
485.263	7
485.472	-259.24
485.682	416.59
485.891	84.82
486.1	-341.16
486.309	-261.29
486.518	160.59
486.727	351.06
486.936	-261.29
487.146	-134.31
487.355	336.72
487.564	-210.09
487.773	-238.76
487.982	-242.85
488.191	-132.26
488.4	47.96
488.609	-246.95
488.818	-234.66
489.027	539.47
489.236	426.83
489.445	-179.37
489.654	-320.68
489.863	269.14
490.072	68.44
490.281	148.31
490.49	-287.91
490.698	392.02
490.907	389.97
491.116	-203.94
491.325	-388.26
491.534	355.15
491.743	35.67
491.952	-173.22
492.16	-148.65
492.369	174.93
492.578	238.42
492.787	-181.42
492.996	-355.49
493.204	-167.08
493.413	426.83
493.622	-398.5
493.831	-414.88
494.039	365.39
494.248	-193.7
494.457	-244.9
494.665	-425.12
494.874	64.34
495.083	539.47
495.291	-205.99
495.5	-386.21
495.709	246.61
495.917	66.39
496.126	-81.07
496.335	-253.09
496.543	-124.07
496.752	101.2
496.96	17.24
497.169	-449.7
497.377	19.29
497.586	306
497.794	-33.96
498.003	-447.65
498.211	-48.3
498.42	367.44
498.628	-175.27
498.837	-326.82
499.045	129.88
499.254	56.15
499.462	-341.16
499.671	-273.57
499.879	500.56
500.087	260.95
500.296	-345.25
500.504	-230.57
500.713	99.16
500.921	521.04
501.129	-287.91
501.338	-267.43
501.546	76.63
501.754	72.53
501.962	-246.95
502.171	-433.32
502.379	133.97
502.587	410.45
502.795	-197.8
503.004	-246.95
503.212	2.9
503.42	260.95
503.628	-240.81
503.837	-171.18
504.045	181.07
504.253	385.87
504.461	-287.91
504.669	-433.32
504.877	88.92
505.085	435.02
505.294	-425.12
505.502	-70.83
505.71	68.44
505.918	279.38
506.126	-292.01
506.334	-287.91
506.542	23.38
506.75	107.35
506.958	-218.28
507.166	-187.56
507.374	-95.4
507.582	406.35
507.79	-160.94
507.998	-312.49
508.206	103.25
508.414	125.78
508.622	-316.58
508.83	-244.9
509.037	387.92
509.245	-13.48
509.453	-300.2
509.661	-275.62
509.869	172.88
510.077	-36.01
510.285	-64.68
510.492	-642.21
510.7	613.2
510.908	-99.5
511.116	-160.94
511.324	-306.34
511.531	-74.92
511.739	7
511.947	-142.5
512.155	-60.59
512.362	31.57
512.57	-269.48
512.778	-255.14
512.985	-380.07
513.193	252.75
513.401	422.73
513.608	-203.94
513.816	-337.06
514.024	166.74
514.231	271.19
514.439	-255.14
514.646	-193.7
514.854	103.25
515.061	342.86
515.269	-308.39
515.477	-357.54
515.684	-222.38
515.892	207.7
516.099	-357.54
516.307	-380.07
516.514	168.79
516.722	451.41
516.929	-222.38
517.136	-283.81
517.344	328.53
517.551	86.87
517.759	-337.06
517.966	-281.77
518.173	-66.73
518.381	-38.06
518.588	-156.84
518.796	-402.6
519.003	226.13
519.21	2.9
519.418	-269.48
519.625	123.73
519.832	-38.06
520.039	127.83
520.247	-535.71
520.454	-160.94
520.661	213.84
520.868	78.68
521.076	-226.47
521.283	-203.94
521.49	543.57
521.697	70.48
521.904	-244.9
522.112	-228.52
522.319	176.98
522.526	150.36
522.733	-337.06
522.94	-361.64
523.147	-13.48
523.354	197.46
523.561	-402.6
523.768	-181.42
523.975	312.14
524.183	15.19
524.39	-154.79
524.597	-332.97
524.804	99.16
525.011	-76.97
525.218	-332.97
525.425	-298.15
525.632	363.34
525.838	-220.33
526.045	-240.81
526.252	-304.29
526.459	1037.13
526.666	830.28
526.873	-339.11
527.08	-261.29
527.287	355.15
527.494	136.02
527.701	-470.18
527.907	-330.92
528.114	103.25
528.321	-111.78
528.528	-277.67
528.735	-341.16
528.941	-101.55
529.148	-72.87
529.355	-251.05
529.562	-300.2
529.768	504.65
529.975	-91.31
530.182	-230.57
530.388	-285.86
530.595	205.65
530.802	-253.09
531.008	-160.94
531.215	-308.39
531.422	637.77
531.628	705.35
531.835	-185.51
532.042	-152.74
532.248	-101.55
532.455	13.14
532.661	-244.9
532.868	-267.43
533.074	99.16
533.281	289.62
533.487	-189.61
533.694	-418.98
533.9	-228.52
534.107	109.4
534.313	-328.87
534.52	-435.36
534.726	238.42
534.933	467.79
535.139	-373.92
535.345	-410.79
535.552	54.1
535.758	15.19
535.965	-189.61
536.171	-283.81
536.377	127.83
536.584	365.39
536.79	-287.91
536.996	-167.08
537.203	78.68
537.409	109.4
537.615	-228.52
537.821	-195.75
538.028	228.18
538.234	187.22
538.44	-210.09
538.646	-271.53
538.853	195.41
539.059	-68.78
539.265	121.68
539.471	-455.84
539.677	174.93
539.883	-85.16
540.09	-261.29
540.296	111.44
540.502	-33.96
540.708	-175.27
540.914	-107.69
541.12	-259.24
541.326	248.66
541.532	-25.77
541.738	-165.03
541.944	-218.28
542.15	222.03
542.356	-36.01
542.562	-371.88
542.768	-195.75
542.974	568.14
543.18	525.13
543.386	-261.29
543.592	-480.42
543.798	367.44
544.004	299.86
544.21	-343.21
544.415	-232.62
544.621	54.1
544.827	277.33
545.033	-390.31
545.239	-40.11
545.445	-208.04
545.651	127.83
545.856	-332.97
546.062	-263.33
546.268	-95.4
546.474	-3.24
546.679	-285.86
546.885	-130.22
547.091	-103.59
547.297	392.02
547.502	-175.27
547.708	-361.64
547.914	-109.74
548.119	187.22
548.325	-306.34
548.531	-304.29
548.736	441.17
548.942	-148.65
549.147	-269.48
549.353	-48.3
549.559	285.52
549.764	113.49
549.97	-218.28
550.175	-285.86
550.381	125.78
550.586	-83.11
550.792	-261.29
550.997	-277.67
551.203	154.45
551.408	199.51
551.614	-349.35
551.819	-310.44
552.025	416.59
552.23	441.17
552.435	-259.24
552.641	-181.42
552.846	-156.84
553.052	285.52
553.257	-175.27
553.462	-294.05
553.668	-162.98
553.873	222.03
554.078	-363.69
554.283	-335.01
554.489	121.68
554.694	41.81
554.899	-244.9
555.105	-87.21
555.31	101.2
555.515	199.51
555.72	-212.14
555.925	-320.68
556.131	199.51
556.336	-136.36
556.541	-320.68
556.746	-382.12
556.951	318.29
557.156	404.3
557.361	-173.22
557.567	-109.74
557.772	527.18
557.977	144.21
558.182	-212.14
558.387	-232.62
558.592	-134.31
558.797	328.53
559.002	-285.86
559.207	-138.41
559.412	43.86
559.617	439.12
559.822	-216.23
560.027	-347.3
560.232	84.82
560.437	238.42
560.642	-371.88
560.847	-328.87
561.051	23.38
561.256	101.2
561.461	-232.62
561.666	-347.3
561.871	54.1
562.076	217.94
562.281	-195.75
562.485	-390.31
562.69	269.14
562.895	267.09
563.1	-197.8
563.305	-365.73
563.509	349.01
563.714	572.24
563.919	-335.01
564.123	-310.44
564.328	68.44
564.533	301.9
564.737	-285.86
564.942	-294.05
565.147	428.88
565.351	578.38
565.556	-162.98
565.761	-124.07
565.965	35.67
566.17	-95.4
566.374	-201.9
566.579	-398.5
566.784	101.2
566.988	-54.44
567.193	-375.97
567.397	-210.09
567.602	-226.47
567.806	4.95
568.011	-242.85
568.215	-226.47
568.42	-23.72
568.624	-38.06
568.828	-234.66
569.033	-40.11
569.237	101.2
569.442	191.31
569.646	-400.55
569.85	-197.8
570.055	-74.92
570.259	176.98
570.463	50
570.668	-140.46
570.872	-50.35
571.076	-27.82
571.281	-140.46
571.485	-130.22
571.689	82.77
571.893	119.64
572.098	-81.07
572.302	-255.14
572.506	146.26
572.71	123.73
572.914	-173.22
573.119	-212.14
573.323	471.89
573.527	260.95
573.731	-259.24
573.935	-240.81
574.139	105.3
574.343	-132.26
574.547	-210.09
574.751	-191.66
574.955	420.69
575.159	293.71
575.364	-271.53
575.568	-292.01
575.772	33.62
575.976	295.76
576.18	-382.12
576.383	-404.64
576.587	340.82
576.791	166.74
576.995	-375.97
577.199	-394.4
577.403	289.62
577.607	271.19
577.811	-390.31
578.015	-156.84
578.219	125.78
578.422	224.08
578.626	-154.79
578.83	-107.69
579.034	299.86
579.238	23.38
579.442	-277.67
579.645	197.46
579.849	56.15
580.053	64.34
580.257	-197.8
580.46	-175.27
580.664	312.14
580.868	199.51
581.071	15.19
581.275	-187.56
581.479	-226.47
581.682	222.03
581.886	-267.43
582.09	-136.36
582.293	138.07
582.497	262.99
582.7	19.29
582.904	-345.25
583.107	80.72
583.311	31.57
583.515	-154.79
583.718	-158.89
583.922	138.07
584.125	480.08
584.329	-249
584.532	-64.68
584.735	353.1
584.939	107.35
585.142	-359.59
585.346	-324.77
585.549	121.68
585.753	-31.91
585.956	-197.8
586.159	-115.88
586.363	553.8
586.566	224.08
586.769	-283.81
586.973	-310.44
587.176	95.06
587.379	293.71
587.582	76.63
587.786	19.29
587.989	95.06
588.192	717.64
588.395	-193.7
588.599	154.45
588.802	144.21
589.005	224.08
589.208	-128.17
589.411	-193.7
589.615	250.71
589.818	408.4
590.021	43.86
590.224	-171.18
590.427	273.23
590.63	217.94
590.833	-298.15
591.036	-343.21
591.239	-50.35
591.442	27.48
591.645	23.38
591.848	-242.85
592.051	136.02
592.254	355.15
592.457	-132.26
592.66	-158.89
592.863	-33.96
593.066	168.79
593.269	-292.01
593.472	-95.4
593.675	-89.26
593.878	240.47
594.081	-128.17
594.284	-296.1
594.486	234.32
594.689	-3.24
594.892	-99.5
595.095	-156.84
595.298	129.88
595.5	-29.87
595.703	-74.92
595.906	-132.26
596.109	451.41
596.311	285.52
596.514	-441.51
596.717	-64.68
596.92	406.35
597.122	277.33
597.325	-427.17
597.528	-236.71
597.73	394.06
597.933	93.01
598.136	-189.61
598.338	-386.21
598.541	262.99
598.743	322.38
598.946	-175.27
599.148	-150.7
599.351	435.02
599.554	238.42
599.756	-44.2
599.959	-122.02
600.161	297.81
600.363	637.77
600.566	99.16
600.768	-212.14
600.971	459.6
601.173	326.48
601.376	-160.94
601.578	-191.66
601.78	285.52
601.983	721.74
602.185	-242.85
602.388	-5.29
602.59	162.64
602.792	33.62
602.995	84.82
603.197	-201.9
603.399	359.25
603.601	199.51
603.804	-91.31
604.006	-169.13
604.208	15.19
604.41	-339.11
604.613	-3.24
604.815	-242.85
605.017	650.06
605.219	-36.01
605.421	152.4
605.623	-148.65
605.826	355.15
606.028	506.7
606.23	-109.74
606.432	-74.92
606.634	467.79
606.836	383.82
607.038	-292.01
607.24	-9.39
607.442	86.87
607.644	121.68
607.846	-91.31
608.048	-242.85
608.25	471.89
608.452	-9.39
608.654	-83.11
608.856	-367.78
609.058	27.48
609.26	267.09
609.462	-81.07
609.664	-101.55
609.866	676.68
610.067	262.99
610.269	7
610.471	-140.46
610.673	-17.58
610.875	230.23
611.077	-277.67
611.278	-31.91
611.48	246.61
611.682	545.61
611.884	-3.24
612.085	-68.78
612.287	-97.45
612.489	232.27
612.69	-300.2
612.892	-130.22
613.094	394.06
613.295	219.99
613.497	-283.81
613.699	-132.26
613.9	410.45
614.102	326.48
614.304	-72.87
614.505	-287.91
614.707	109.4
614.908	113.49
615.11	-234.66
615.311	-91.31
615.513	211.79
615.714	242.51
615.916	-355.49
616.117	-150.7
616.319	43.86
616.52	306
616.722	-85.16
616.923	-175.27
617.124	342.86
617.326	211.79
617.527	-52.39
617.729	138.07
617.93	262.99
618.131	346.96
618.333	-152.74
618.534	2.9
618.735	-31.91
618.937	541.52
619.138	-287.91
619.339	-169.13
619.54	330.58
619.742	-15.53
619.943	-25.77
620.144	-117.93
620.345	318.29
620.546	344.91
620.748	-220.33
620.949	-105.64
621.15	205.65
621.351	150.36
621.552	-169.13
621.753	-380.07
621.954	-210.09
622.155	566.09
622.356	-214.18
622.558	-25.77
622.759	33.62
622.96	697.16
623.161	-105.64
623.362	-91.31
623.563	125.78
623.764	164.69
623.965	-66.73
624.166	80.72
624.366	76.63
624.567	222.03
624.768	-402.6
624.969	-144.55
625.17	72.53
625.371	226.13
625.572	-58.54
625.773	-267.43
625.973	262.99
626.174	281.43
626.375	13.14
626.576	-21.67
626.777	273.23
626.977	742.22
627.178	-93.35
627.379	31.57
627.58	93.01
627.78	154.45
627.981	-70.83
628.182	33.62
628.382	396.11
628.583	-283.81
628.784	-236.71
628.984	39.76
629.185	342.86
629.386	379.73
629.586	2.9
629.787	-185.51
629.987	349.01
630.188	154.45
630.388	-115.88
630.589	11.09
630.79	707.4
630.99	187.22
631.191	-58.54
631.391	-29.87
631.591	363.34
631.792	535.37
631.992	52.05
632.193	-111.78
632.393	643.92
632.594	129.88
632.794	-126.12
632.994	27.48
633.195	103.25
633.395	199.51
633.595	-107.69
633.796	129.88
633.996	-115.88
634.196	435.02
634.397	-230.57
634.597	-23.72
634.797	-105.64
634.997	394.06
635.198	121.68
635.398	-263.33
635.598	277.33
635.798	475.98
635.998	332.62
636.199	-173.22
636.399	66.39
636.599	35.67
636.799	-95.4
636.999	101.2
637.199	256.85
637.399	400.21
637.599	-169.13
637.799	52.05
637.999	-52.39
638.199	523.09
638.399	-79.02
638.599	-89.26
638.799	203.6
638.999	666.44
639.199	115.54
639.399	-31.91
639.599	570.19
639.799	-72.87
639.999	-138.41
640.199	-238.76
640.399	213.84
640.599	201.55
640.799	-29.87
640.998	213.84
641.198	404.3
641.398	203.6
641.598	7
641.798	-48.3
641.997	1229.63
642.197	174.93
642.397	78.68
642.597	-33.96
642.796	371.54
642.996	525.13
643.196	113.49
643.395	-173.22
643.595	279.38
643.795	-337.06
643.994	-148.65
644.194	-60.59
644.394	252.75
644.593	187.22
644.793	-306.34
644.992	50
645.192	334.67
645.392	-169.13
645.591	41.81
645.791	-5.29
645.99	353.1
646.19	176.98
646.389	35.67
646.589	17.24
646.788	299.86
646.987	224.08
647.187	236.37
647.386	95.06
647.586	164.69
647.785	414.54
647.984	-7.34
648.184	29.52
648.383	142.16
648.582	105.3
648.782	-50.35
648.981	60.24
649.18	-48.3
649.38	213.84
649.579	-68.78
649.778	-99.5
649.977	244.56
650.177	299.86
650.376	-109.74
650.575	-72.87
650.774	551.76
650.973	80.72
651.173	-189.61
651.372	23.38
651.571	363.34
651.77	449.36
651.969	-27.82
652.168	74.58
652.367	-99.5
652.566	260.95
652.765	-64.68
652.964	142.16
653.163	713.55
653.362	174.93
653.561	-13.48
653.76	-97.45
653.959	52.05
654.158	256.85
654.357	199.51
654.556	13.14
654.755	295.76
654.954	349.01
655.153	-27.82
655.352	13.14
655.551	467.79
655.749	-25.77
655.948	72.53
656.147	70.48
656.346	418.64
656.545	148.31
656.743	13.14
656.942	19.29
657.141	224.08
657.34	-17.58
657.538	80.72
657.737	39.76
657.936	43.86
658.135	359.25
658.333	-7.34
658.532	47.96
658.731	666.44
658.929	377.68
659.128	314.19
659.326	-46.25
659.525	453.45
659.724	150.36
659.922	-232.62
660.121	-146.6
660.319	435.02
660.518	-31.91
660.716	-70.83
660.915	-42.15
661.113	617.29
661.312	-64.68
661.51	101.2
661.709	-70.83
661.907	465.74
662.105	650.06
662.304	11.09
662.502	35.67
662.701	549.71
662.899	187.22
663.097	273.23
663.296	-148.65
663.494	518.99
663.692	564.04
663.891	-50.35
664.089	-58.54
664.287	330.58
664.485	488.27
664.684	-99.5
664.882	142.16
665.08	193.36
665.278	228.18
665.476	-171.18
665.675	322.38
665.873	660.3
666.071	439.12
666.269	-83.11
666.467	222.03
666.665	262.99
666.863	164.69
667.061	183.12
667.259	97.11
667.457	150.36
667.655	435.02
667.853	-162.98
668.051	76.63
668.249	78.68
668.447	283.47
668.645	-79.02
668.843	146.26
669.041	430.93
669.239	187.22
669.437	21.33
669.635	203.6
669.833	131.92
670.031	385.87
670.229	70.48
670.426	39.76
670.624	209.75
670.822	33.62
671.02	-81.07
671.218	17.24
671.415	-3.24
671.613	269.14
671.811	158.55
672.009	97.11
672.206	512.85
672.404	316.24
672.602	168.79
672.799	228.18
672.997	301.9
673.195	498.51
673.392	179.03
673.59	-15.53
673.788	465.74
673.985	-124.07
674.183	97.11
674.38	56.15
674.578	473.93
674.775	21.33
674.973	-95.4
675.17	-85.16
675.368	666.44
675.565	353.1
675.763	-21.67
675.96	23.38
676.158	605
676.355	183.12
676.553	-38.06
676.75	2.9
676.947	262.99
677.145	154.45
677.342	39.76
677.539	209.75
677.737	269.14
677.934	830.28
678.131	226.13
678.329	-66.73
678.526	594.76
678.723	287.57
678.92	117.59
679.118	64.34
679.315	-99.5
679.512	570.19
679.709	88.92
679.906	203.6
680.104	525.13
680.301	428.88
680.498	-66.73
680.695	-60.59
680.892	115.54
681.089	205.65
681.286	93.01
681.483	-74.92
681.68	416.59
681.877	482.13
682.075	84.82
682.272	279.38
682.469	365.39
682.665	140.12
682.862	-36.01
683.059	-64.68
683.256	328.53
683.453	277.33
683.65	168.79
683.847	66.39
684.044	203.6
684.241	60.24
684.438	168.79
684.635	70.48
684.831	697.16
685.028	799.56
685.225	74.58
685.422	224.08
685.619	262.99
685.815	320.34
686.012	117.59
686.209	121.68
686.405	-27.82
686.602	402.26
686.799	-109.74
686.996	41.81
687.192	-40.11
687.389	711.5
687.586	-11.43
687.782	52.05
687.979	572.24
688.175	457.55
688.372	103.25
688.568	60.24
688.765	152.4
688.962	549.71
689.158	203.6
689.355	-142.5
689.551	518.99
689.748	150.36
689.944	136.02
690.14	-87.21
690.337	549.71
690.533	170.83
690.73	312.14
690.926	80.72
691.123	424.78
691.319	287.57
691.515	-44.2
691.712	244.56
691.908	412.5
692.104	351.06
692.301	236.37
692.497	-17.58
692.693	508.75
692.889	537.42
693.086	127.83
693.282	-158.89
693.478	312.14
693.674	598.86
693.87	90.96
694.067	-109.74
694.263	387.92
694.459	211.79
694.655	187.22
694.851	117.59
695.047	406.35
695.243	447.31
695.439	236.37
695.635	9.05
695.831	590.67
696.027	326.48
696.224	66.39
696.42	371.54
696.615	586.57
696.811	396.11
697.007	-5.29
697.203	97.11
697.399	355.15
697.595	566.09
697.791	80.72
697.987	260.95
698.183	93.01
698.379	97.11
698.575	90.96
698.77	76.63
698.966	523.09
699.162	457.55
699.358	129.88
699.554	179.03
699.749	424.78
699.945	506.7
700.141	230.23
700.337	185.17
700.532	244.56
700.728	170.83
700.924	29.52
701.119	-50.35
701.315	445.26
701.511	228.18
701.706	199.51
701.902	-91.31
702.097	262.99
702.293	486.22
702.489	172.88
702.684	72.53
702.88	287.57
703.075	191.31
703.271	162.64
703.466	-40.11
703.662	293.71
703.857	447.31
704.053	39.76
704.248	47.96
704.443	455.5
704.639	398.16
704.834	103.25
705.03	31.57
705.225	514.89
705.42	613.2
705.616	195.41
705.811	62.29
706.006	197.46
706.202	232.27
706.397	191.31
706.592	2.9
706.787	377.68
706.983	285.52
707.178	310.1
707.373	176.98
707.568	512.85
707.763	502.61
707.959	7
708.154	-1.19
708.349	435.02
708.544	394.06
708.739	260.95
708.934	43.86
709.129	594.76
709.324	559.95
709.519	52.05
709.714	-58.54
709.909	586.57
710.104	400.21
710.299	113.49
710.494	224.08
710.689	555.85
710.884	297.81
711.079	230.23
711.274	416.59
711.469	398.16
711.664	314.19
711.859	-23.72
712.054	215.89
712.249	566.09
712.443	605
712.638	-85.16
712.833	43.86
713.028	318.29
713.223	256.85
713.417	428.88
713.612	131.92
713.807	420.69
714.002	895.82
714.196	306
714.391	117.59
714.586	506.7
714.78	320.34
714.975	82.77
715.17	105.3
715.364	201.55
715.559	656.2
715.754	-169.13
715.948	101.2
716.143	887.62
716.337	342.86
716.532	416.59
716.726	64.34
716.921	496.46
717.115	754.51
717.31	7
717.504	535.37
717.699	224.08
717.893	521.04
718.088	111.44
718.282	-113.83
718.476	338.77
718.671	535.37
718.865	21.33
719.059	142.16
719.254	254.8
719.448	705.35
719.642	1364.8
719.837	-74.92
720.031	547.66
720.225	584.52
720.419	215.89
720.614	80.72
720.808	510.8
721.002	289.62
721.196	62.29
721.39	78.68
721.585	736.07
721.779	451.41
721.973	144.21
722.167	-56.49
722.361	412.5
722.555	564.04
722.749	68.44
722.943	105.3
723.137	76.63
723.331	441.17
723.525	86.87
723.719	60.24
723.913	516.94
724.107	656.2
724.301	-46.25
724.495	197.46
724.689	869.19
724.883	670.54
725.077	88.92
725.271	129.88
725.465	594.76
725.659	377.68
725.853	191.31
726.046	-31.91
726.24	199.51
726.434	555.85
726.628	43.86
726.822	115.54
727.015	736.07
727.209	719.69
727.403	168.79
727.596	68.44
727.79	527.18
727.984	508.75
728.177	158.55
728.371	189.27
728.565	639.82
728.758	125.78
728.952	113.49
729.146	56.15
729.339	605
729.533	332.62
729.726	189.27
729.92	33.62
730.113	617.29
730.307	531.28
730.5	150.36
730.694	105.3
730.887	287.57
731.081	574.28
731.274	56.15
731.468	72.53
731.661	328.53
731.854	226.13
732.048	50
732.241	-3.24
732.435	224.08
732.628	396.11
732.821	316.24
733.014	37.72
733.208	23.38
733.401	527.18
733.594	150.36
733.788	105.3
733.981	662.35
734.174	400.21
734.367	152.4
734.56	187.22
734.754	492.37
734.947	367.44
735.14	50
735.333	215.89
735.526	465.74
735.719	203.6
735.912	-5.29
736.105	66.39
736.298	379.73
736.491	314.19
736.684	93.01
736.877	86.87
737.07	506.7
737.263	703.31
737.456	160.59
737.649	103.25
737.842	234.32
738.035	377.68
738.228	179.03
738.421	187.22
738.614	637.77
738.807	549.71
739	-64.68
739.192	50
739.385	467.79
739.578	588.62
739.771	375.63
739.964	174.93
740.156	418.64
740.349	324.43
740.542	277.33
740.735	-31.91
740.927	88.92
741.12	95.06
741.313	90.96
741.505	226.13
741.698	412.5
741.891	506.7
742.083	275.28
742.276	90.96
742.468	369.49
742.661	365.39
742.854	131.92
743.046	82.77
743.239	705.35
743.431	236.37
743.624	80.72
743.816	13.14
744.009	381.78
744.201	490.32
744.393	254.8
744.586	-36.01
744.778	682.83
744.971	396.11
745.163	152.4
745.355	244.56
745.548	371.54
745.74	293.71
745.932	203.6
746.125	101.2
746.317	889.67
746.509	351.06
746.702	129.88
746.894	219.99
747.086	475.98
747.278	580.43
747.471	338.77
747.663	265.04
747.855	465.74
748.047	805.71
748.239	-38.06
748.431	27.48
748.623	781.13
748.815	645.96
749.008	31.57
749.2	45.91
749.392	553.8
749.584	445.26
749.776	129.88
749.968	340.82
750.16	793.42
750.352	299.86
750.544	193.36
750.736	47.96
750.928	437.07
751.12	443.21
751.311	140.12
751.503	119.64
751.695	471.89
751.887	326.48
752.079	-70.83
752.271	140.12
752.463	1131.33
752.654	559.95
752.846	211.79
753.038	174.93
753.23	234.32
753.421	699.21
753.613	215.89
753.805	275.28
753.997	658.25
754.188	592.72
754.38	121.68
754.572	189.27
754.763	342.86
754.955	461.65
755.146	80.72
755.338	166.74
755.53	475.98
755.721	289.62
755.913	2.9
756.104	23.38
756.296	297.81
756.487	578.38
756.679	27.48
756.87	203.6
757.062	252.75
757.253	543.57
757.445	119.64
757.636	271.19
757.827	312.14
758.019	1010.5
758.21	113.49
758.401	215.89
758.593	834.38
758.784	676.68
758.975	45.91
759.167	7
759.358	398.16
759.549	621.39
759.74	162.64
759.932	131.92
760.123	783.18
760.314	252.75
760.505	197.46
760.696	121.68
760.888	840.52
761.079	392.02
761.27	52.05
761.461	-97.45
761.652	713.55
761.843	299.86
762.034	162.64
762.225	439.12
762.416	336.72
762.607	396.11
762.798	131.92
762.989	107.35
763.18	1131.33
763.371	473.93
763.562	174.93
763.753	131.92
763.944	584.52
764.135	590.67
764.326	312.14
764.517	117.59
764.708	379.73
764.899	486.22
765.089	54.1
765.28	-29.87
765.471	336.72
765.662	609.1
765.853	160.59
766.043	58.2
766.234	631.63
766.425	654.16
766.615	140.12
766.806	-13.48
766.997	666.44
767.187	445.26
767.378	47.96
767.569	-17.58
767.759	465.74
767.95	437.07
768.141	308.05
768.331	189.27
768.522	377.68
768.712	539.47
768.903	166.74
769.093	19.29
769.284	731.98
769.474	394.06
769.665	-97.45
769.855	-48.3
770.046	504.65
770.236	336.72
770.426	338.77
770.617	64.34
770.807	494.41
770.998	269.14
771.188	318.29
771.378	47.96
771.569	617.29
771.759	555.85
771.949	119.64
772.139	-162.98
772.33	412.5
772.52	711.5
772.71	4.95
772.9	-21.67
773.09	774.99
773.281	719.69
773.471	74.58
773.661	64.34
773.851	650.06
774.041	279.38
774.231	31.57
774.421	236.37
774.611	701.26
774.802	488.27
774.992	162.64
775.182	-21.67
775.372	437.07
775.562	643.92
775.752	56.15
775.942	174.93
776.131	621.39
776.321	564.04
776.511	162.64
776.701	17.24
776.891	691.02
777.081	93.01
777.271	191.31
777.461	84.82
777.651	518.99
777.84	691.02
778.03	224.08
778.22	88.92
778.41	805.71
778.599	154.45
778.789	176.98
778.979	70.48
779.169	418.64
779.358	328.53
779.548	375.63
779.738	-62.63
779.927	478.03
780.117	160.59
780.307	97.11
780.496	-146.6
780.686	449.36
780.875	695.11
781.065	133.97
781.254	88.92
781.444	408.4
781.633	422.73
781.823	43.86
782.012	19.29
782.202	246.61
782.391	461.65
782.581	-95.4
782.77	260.95
782.96	535.37
783.149	340.82
783.338	127.83
783.528	-136.36
783.717	596.81
783.906	605
784.096	287.57
784.285	93.01
784.474	297.81
784.663	170.83
784.853	125.78
785.042	162.64
785.231	236.37
785.42	633.68
785.61	176.98
785.799	37.72
785.988	213.84
786.177	293.71
786.366	168.79
786.555	281.43
786.744	645.96
786.933	439.12
787.122	-48.3
787.312	33.62
787.501	138.07
787.69	453.45
787.879	111.44
788.068	78.68
788.257	160.59
788.445	283.47
788.634	183.12
788.823	27.48
789.012	969.54
789.201	703.31
789.39	228.18
789.579	47.96
789.768	363.34
789.957	453.45
790.145	84.82
790.334	-156.84
790.523	346.96
790.712	408.4
790.9	170.83
791.089	-48.3
791.278	562
791.467	385.87
791.655	408.4
791.844	518.99
792.033	285.52
792.221	316.24
792.41	107.35
792.599	-38.06
792.787	478.03
792.976	549.71
793.164	21.33
793.353	33.62
793.541	518.99
793.73	416.59
793.918	199.51
794.107	125.78
794.295	445.26
794.484	428.88
794.672	197.46
794.861	78.68
795.049	498.51
795.238	820.04
795.426	7
795.614	232.27
795.803	525.13
795.991	752.46
796.179	138.07
796.368	37.72
796.556	713.55
796.744	158.55
796.932	76.63
797.121	21.33
797.309	271.19
797.497	578.38
797.685	146.26
797.874	29.52
798.062	326.48
798.25	631.63
798.438	-40.11
798.626	117.59
798.814	578.38
799.002	906.06
799.19	299.86
799.378	170.83
799.566	602.96
799.755	723.79
799.943	273.23
800.131	72.53
800.318	420.69
800.506	486.22
800.694	119.64
800.882	252.75
801.07	684.87
801.258	297.81
801.446	21.33
801.634	160.59
801.822	400.21
802.01	324.43
802.197	-36.01
802.385	222.03
802.573	422.73
802.761	191.31
802.949	164.69
803.136	-33.96
803.324	600.91
803.512	418.64
803.699	138.07
803.887	-36.01
804.075	664.4
804.262	191.31
804.45	-95.4
804.638	224.08
804.825	273.23
805.013	271.19
805.201	129.88
805.388	54.1
805.576	308.05
805.763	738.12
805.951	68.44
806.138	314.19
806.326	797.51
806.513	490.32
806.701	187.22
806.888	66.39
807.075	535.37
807.263	863.05
807.45	-1.19
807.638	236.37
807.825	738.12
808.012	576.33
808.2	103.25
808.387	439.12
808.574	471.89
808.761	721.74
808.949	152.4
809.136	146.26
809.323	222.03
809.51	310.1
809.698	420.69
809.885	320.34
810.072	498.51
810.259	703.31
810.446	150.36
810.633	148.31
810.82	609.1
811.008	756.55
811.195	320.34
811.382	136.02
811.569	392.02
811.756	162.64
811.943	138.07
812.13	115.54
812.317	191.31
812.504	303.95
812.691	201.55
812.878	199.51
813.064	711.5
813.251	344.91
813.438	103.25
813.625	310.1
813.812	330.58
813.999	443.21
814.186	203.6
814.372	269.14
814.559	361.3
814.746	668.49
814.933	105.3
815.12	355.15
815.306	219.99
815.493	179.03
815.68	101.2
815.866	254.8
816.053	582.48
816.24	893.77
816.426	213.84
816.613	-46.25
816.799	572.24
816.986	715.59
817.173	101.2
817.359	86.87
817.546	518.99
817.732	60.24
817.919	-91.31
818.105	222.03
818.292	308.05
818.478	482.13
818.665	281.43
818.851	70.48
819.037	854.86
819.224	379.73
819.41	109.4
819.597	29.52
819.783	834.38
819.969	576.33
820.156	179.03
820.342	93.01
820.528	1092.42
820.714	351.06
820.901	326.48
821.087	111.44
821.273	793.42
821.459	351.06
821.646	54.1
821.832	90.96
822.018	410.45
822.204	387.92
822.39	211.79
822.576	39.76
822.762	539.47
822.948	600.91
823.134	406.35
823.32	131.92
823.507	156.5
823.693	404.3
823.879	525.13
824.065	119.64
824.25	510.8
824.436	191.31
824.622	236.37
824.808	47.96
824.994	310.1
825.18	168.79
825.366	45.91
825.552	80.72
825.738	361.3
825.923	555.85
826.109	418.64
826.295	47.96
826.481	258.9
826.667	369.49
826.852	213.84
827.038	31.57
827.224	645.96
827.409	854.86
827.595	-27.82
827.781	236.37
827.966	617.29
828.152	633.68
828.338	256.85
828.523	15.19
828.709	154.45
828.894	600.91
829.08	176.98
829.266	84.82
829.451	252.75
829.637	541.52
829.822	238.42
830.008	144.21
830.193	574.28
830.378	715.59
830.564	279.38
830.749	82.77
830.935	568.14
831.12	607.05
831.305	64.34
831.491	299.86
831.676	107.35
831.861	535.37
832.047	158.55
832.232	2.9
832.417	719.69
832.602	439.12
832.788	111.44
832.973	99.16
833.158	371.54
833.343	430.93
833.528	269.14
833.714	203.6
833.899	539.47
834.084	883.53
834.269	322.38
834.454	314.19
834.639	639.82
834.824	398.16
835.009	355.15
835.194	291.66
835.379	602.96
835.564	838.47
835.749	308.05
835.934	72.53
836.119	625.48
836.304	451.41
836.489	148.31
836.674	404.3
836.859	142.16
837.044	748.36
837.228	185.17
837.413	84.82
837.598	359.25
837.783	625.48
837.968	183.12
838.152	9.05
838.337	-42.15
838.522	777.03
838.707	523.09
838.891	310.1
839.076	525.13
839.261	645.96
839.445	160.59
839.63	248.66
839.815	813.9
839.999	426.83
840.184	97.11
840.368	246.61
840.553	633.68
840.737	562
840.922	113.49
841.106	50
841.291	193.36
841.475	385.87
841.66	129.88
841.844	230.23
842.029	1145.67
842.213	133.97
842.397	105.3
842.582	43.86
842.766	701.26
842.951	637.77
843.135	121.68
843.319	230.23
843.504	402.26
843.688	617.29
843.872	117.59
844.056	111.44
844.241	650.06
844.425	359.25
844.609	357.2
844.793	-15.53
844.977	611.15
845.161	402.26
845.346	80.72
845.53	170.83
845.714	381.78
845.898	785.23
846.082	4.95
846.266	58.2
846.45	408.4
846.634	443.21
846.818	217.94
847.002	258.9
847.186	529.23
847.37	181.07
847.554	148.31
847.738	308.05
847.922	465.74
848.106	596.81
848.29	95.06
848.473	191.31
848.657	635.72
848.841	340.82
849.025	197.46
849.209	11.09
849.392	545.61
849.576	363.34
849.76	-117.93
849.944	310.1
850.127	711.5
850.311	183.12
850.495	17.24
850.678	4.95
850.862	707.4
851.046	813.9
851.229	389.97
851.413	70.48
851.596	414.54
851.78	383.82
851.964	287.57
852.147	203.6
852.331	1121.09
852.514	707.4
852.698	260.95
852.881	37.72
853.065	568.14
853.248	334.67
853.431	256.85
853.615	215.89
853.798	975.69
853.982	529.23
854.165	308.05
854.348	181.07
854.532	162.64
854.715	314.19
854.898	191.31
855.081	158.55
855.265	686.92
855.448	881.48
855.631	131.92
855.814	113.49
855.997	660.3
856.181	344.91
856.364	172.88
856.547	7
856.73	564.04
856.913	502.61
857.096	13.14
857.279	224.08
857.462	203.6
857.645	598.86
857.828	404.3
858.011	295.76
858.194	215.89
858.377	541.52
858.56	27.48
858.743	230.23
858.926	234.32
859.109	574.28
859.292	148.31
859.475	52.05
859.658	666.44
859.841	500.56
860.023	39.76
860.206	45.91
860.389	430.93
860.572	668.49
860.755	121.68
860.937	230.23
861.12	414.54
861.303	400.21
861.486	260.95
861.668	62.29
861.851	582.48
862.034	498.51
862.216	267.09
862.399	74.58
862.581	549.71
862.764	715.59
862.947	230.23
863.129	41.81
863.312	148.31
863.494	754.51
863.677	428.88
863.859	19.29
864.042	531.28
864.224	846.66
864.406	269.14
864.589	7
864.771	543.57
864.954	222.03
865.136	133.97
865.318	-7.34
865.501	555.85
865.683	-9.39
865.865	166.74
866.048	195.41
866.23	496.46
866.412	404.3
866.594	11.09
866.777	215.89
866.959	596.81
867.141	291.66
867.323	404.3
867.505	265.04
867.687	392.02
867.869	424.78
868.052	146.26
868.234	72.53
868.416	357.2
868.598	629.58
868.78	240.47
868.962	72.53
869.144	549.71
869.326	572.24
869.508	162.64
869.69	11.09
869.872	252.75
870.054	643.92
870.236	27.48
870.417	97.11
870.599	402.26
870.781	785.23
870.963	306
871.145	19.29
871.327	129.88
871.508	633.68
871.69	199.51
871.872	222.03
872.054	385.87
872.235	566.09
872.417	160.59
872.599	7
872.78	795.47
872.962	400.21
873.144	-9.39
873.325	90.96
873.507	875.34
873.689	467.79
873.87	-21.67
874.052	244.56
874.233	428.88
874.415	592.72
874.596	154.45
874.778	88.92
874.959	392.02
875.141	590.67
875.322	197.46
875.503	50
875.685	559.95
875.866	13.14
876.048	68.44
876.229	144.21
876.41	291.66
876.592	488.27
876.773	107.35
876.954	21.33
877.136	770.89
877.317	289.62
877.498	-46.25
877.679	232.27
877.86	471.89
878.042	394.06
878.223	84.82
878.404	410.45
878.585	566.09
878.766	762.7
878.947	402.26
879.128	394.06
879.309	539.47
879.49	713.55
879.672	183.12
879.853	228.18
880.034	168.79
880.215	424.78
880.396	205.65
880.576	148.31
880.757	138.07
880.938	725.83
881.119	97.11
881.3	74.58
881.481	293.71
881.662	1203.01
881.843	17.24
882.023	9.05
882.204	516.94
882.385	328.53
882.566	119.64
882.747	7
882.927	392.02
883.108	344.91
883.289	56.15
883.469	359.25
883.65	336.72
883.831	381.78
884.011	277.33
884.192	144.21
884.373	674.64
884.553	557.9
884.734	246.61
884.914	396.11
885.095	1045.32
885.275	793.42
885.456	375.63
885.636	-25.77
885.817	351.06
885.997	387.92
886.178	56.15
886.358	246.61
886.538	385.87
886.719	1424.19
886.899	95.06
887.08	230.23
887.26	598.86
887.44	133.97
887.621	-15.53
887.801	234.32
887.981	875.34
888.161	617.29
888.342	156.5
888.522	144.21
888.702	588.62
888.882	701.26
889.062	230.23
889.242	-62.63
889.423	760.65
889.603	609.1
889.783	234.32
889.963	107.35
890.143	605
890.323	682.83
890.503	179.03
890.683	238.42
890.863	451.41
891.043	572.24
891.223	277.33
891.403	385.87
891.583	428.88
891.763	521.04
891.943	207.7
892.122	123.73
892.302	367.44
892.482	303.95
892.662	301.9
892.842	203.6
893.022	457.55
893.201	351.06
893.381	230.23
893.561	82.77
893.741	664.4
893.92	559.95
894.1	312.14
894.28	269.14
894.459	650.06
894.639	588.62
894.819	209.75
894.998	252.75
895.178	590.67
895.357	594.76
895.537	148.31
895.716	23.38
895.896	435.02
896.075	727.88
896.255	195.41
896.434	13.14
896.614	586.57
896.793	717.64
896.973	334.67
897.152	322.38
897.331	555.85
897.511	645.96
897.69	29.52
897.87	224.08
898.049	588.62
898.228	494.41
898.407	338.77
898.587	387.92
898.766	199.51
898.945	641.87
899.124	500.56
899.304	357.2
899.483	588.62
899.662	942.92
899.841	62.29
900.02	150.36
900.199	666.44
900.378	539.47
900.557	154.45
900.737	80.72
900.916	678.73
901.095	605
901.274	523.09
901.453	58.2
901.632	314.19
901.811	342.86
901.989	123.73
902.168	111.44
902.347	486.22
902.526	326.48
902.705	203.6
902.884	265.04
903.063	926.54
903.242	809.8
903.42	80.72
903.599	363.34
903.778	746.31
903.957	768.84
904.135	306
904.314	236.37
904.493	508.75
904.672	541.52
904.85	285.52
905.029	129.88
905.207	582.48
905.386	1110.85
905.565	25.43
905.743	166.74
905.922	371.54
906.1	746.31
906.279	88.92
906.457	72.53
906.636	318.29
906.814	392.02
906.993	203.6
907.171	195.41
907.35	652.11
907.528	711.5
907.707	400.21
907.885	127.83
908.063	928.58
908.242	265.04
908.42	181.07
908.598	-13.48
908.777	564.04
908.955	385.87
909.133	310.1
909.311	166.74
909.49	402.26
909.668	435.02
909.846	187.22
910.024	-44.2
910.202	510.8
910.38	629.58
910.559	121.68
910.737	140.12
910.915	531.28
911.093	475.98
911.271	236.37
911.449	412.5
911.627	533.33
911.805	904.01
911.983	193.36
912.161	219.99
912.339	543.57
912.517	678.73
912.695	420.69
912.872	166.74
913.05	193.36
913.228	605
913.406	244.56
913.584	123.73
913.762	602.96
913.939	275.28
914.117	121.68
914.295	-31.91
914.473	580.43
914.65	480.08
914.828	244.56
915.006	88.92
915.184	179.03
915.361	533.33
915.539	320.34
915.716	441.17
915.894	625.48
916.072	621.39
916.249	359.25
916.427	342.86
916.604	232.27
916.782	582.48
916.959	62.29
917.137	191.31
917.314	459.6
917.492	562
917.669	308.05
917.847	361.3
918.024	539.47
918.201	271.19
918.379	369.49
918.556	170.83
918.733	586.57
918.911	424.78
919.088	426.83
919.265	133.97
919.442	521.04
919.62	420.69
919.797	117.59
919.974	113.49
920.151	473.93
920.328	418.64
920.506	142.16
920.683	379.73
920.86	324.43
921.037	258.9
921.214	197.46
921.391	113.49
921.568	631.63
921.745	349.01
921.922	260.95
922.099	154.45
922.276	703.31
922.453	480.08
922.63	150.36
922.807	443.21
922.984	471.89
923.161	318.29
923.338	203.6
923.514	121.68
923.691	398.16
923.868	506.7
924.045	236.37
924.222	-33.96
924.399	486.22
924.575	662.35
924.752	297.81
924.929	252.75
925.105	486.22
925.282	252.75
925.459	193.36
925.635	174.93
925.812	389.97
925.989	256.85
926.165	267.09
926.342	-9.39
926.518	211.79
926.695	408.4
926.871	211.79
927.048	80.72
927.224	660.3
927.401	287.57
927.577	232.27
927.754	68.44
927.93	658.25
928.107	625.48
928.283	168.79
928.459	332.62
928.636	633.68
928.812	328.53
928.988	80.72
929.165	37.72
929.341	306
929.517	510.8
929.693	535.37
929.87	-126.12
930.046	586.57
930.222	289.62
930.398	82.77
930.574	262.99
930.751	377.68
930.927	295.76
931.103	281.43
931.279	226.13
931.455	174.93
931.631	486.22
931.807	-54.44
931.983	47.96
932.159	68.44
932.335	418.64
932.511	185.17
932.687	170.83
932.863	508.75
933.039	344.91
933.215	45.91
933.391	-15.53
933.566	320.34
933.742	357.2
933.918	142.16
934.094	-58.54
934.27	310.1
934.445	416.59
934.621	162.64
934.797	90.96
934.973	568.14
935.148	379.73
935.324	60.24
935.5	-119.98
935.675	574.28
935.851	473.93
936.027	179.03
936.202	109.4
936.378	408.4
936.553	357.2
936.729	535.37
936.904	39.76
937.08	101.2
937.255	254.8
937.431	93.01
937.606	2.9
937.782	209.75
937.957	375.63
938.133	170.83
938.308	9.05
938.483	248.66
938.659	109.4
938.834	191.31
939.009	54.1
939.185	213.84
939.36	82.77
939.535	-216.23
939.71	187.22
939.886	508.75
940.061	408.4
940.236	246.61
940.411	21.33
940.586	498.51
940.761	406.35
940.937	144.21
941.112	-33.96
941.287	361.3
941.462	342.86
941.637	-146.6
941.812	50
941.987	359.25
942.162	162.64
942.337	58.2
942.512	93.01
942.687	463.69
942.862	459.6
943.037	-42.15
943.212	-222.38
943.386	170.83
943.561	269.14
943.736	191.31
943.911	287.57
944.086	385.87
944.26	297.81
944.435	58.2
944.61	60.24
944.785	586.57
944.959	678.73
945.134	123.73
945.309	-136.36
945.483	-5.29
945.658	525.13
945.833	-238.76
946.007	-85.16
946.182	682.83
946.357	2.9
946.531	2.9
946.706	-17.58
946.88	-111.78
947.055	228.18
947.229	-9.39
947.404	-38.06
947.578	412.5
947.752	84.82
947.927	-132.26
948.101	-169.13
948.276	281.43
948.45	275.28
948.624	195.41
948.799	-15.53
948.973	199.51
949.147	-91.31
949.321	47.96
949.496	-40.11
949.67	453.45
949.844	170.83
950.018	-62.63
950.193	-42.15
950.367	693.07
950.541	162.64
950.715	183.12
950.889	215.89
951.063	187.22
951.237	314.19
951.411	-246.95
951.585	-214.18
951.759	359.25
951.933	123.73
952.107	2.9
952.281	129.88
952.455	529.23
952.629	422.73
952.803	-74.92
952.977	-81.07
953.151	318.29
953.325	338.77
953.499	125.78
953.672	-234.66
953.846	-103.59
954.02	121.68
954.194	-130.22
954.368	-62.63
954.541	353.1
954.715	168.79
954.889	80.72
955.062	-99.5
955.236	60.24
955.41	88.92
955.583	99.16
955.757	-214.18
955.93	172.88
956.104	19.29
956.278	-62.63
956.451	-27.82
956.625	207.7
956.798	731.98
956.972	125.78
957.145	-91.31
957.319	228.18
957.492	103.25
957.665	164.69
957.839	-115.88
958.012	289.62
958.185	7
958.359	-5.29
958.532	76.63
958.705	330.58
958.879	283.47
959.052	68.44
959.225	-175.27
959.398	166.74
959.572	314.19
959.745	-27.82
959.918	66.39
960.091	95.06
960.264	279.38
960.438	-212.14
960.611	-140.46
960.784	430.93
960.957	123.73
961.13	377.68
961.303	-74.92
961.476	174.93
961.649	265.04
961.822	-177.32
961.995	23.38
962.168	279.38
962.341	230.23
962.514	-7.34
962.686	-169.13
962.859	308.05
963.032	344.91
963.205	17.24
963.378	-156.84
963.551	260.95
963.723	82.77
963.896	29.52
964.069	99.16
964.242	170.83
964.414	463.69
964.587	31.57
964.76	-25.77
964.932	267.09
965.105	127.83
965.278	-87.21
965.45	-36.01
965.623	215.89
965.795	301.9
965.968	-62.63
966.14	-101.55
966.313	121.68
966.485	242.51
966.658	-27.82
966.83	-70.83
967.003	426.83
967.175	396.11
967.348	-9.39
967.52	-58.54
967.692	547.66
967.865	306
968.037	-36.01
968.209	260.95
968.382	119.64
968.554	322.38
968.726	-21.67
968.898	-87.21
969.071	246.61
969.243	238.42
969.415	-87.21
969.587	29.52
969.759	617.29
969.932	369.49
970.104	0.85
970.276	-261.29
970.448	78.68
970.62	101.2
970.792	39.76
970.964	41.81
971.136	658.25
971.308	396.11
971.48	-158.89
971.652	-25.77
971.824	590.67
971.996	113.49
972.168	-5.29
972.339	-9.39
972.511	490.32
972.683	64.34
972.855	154.45
973.027	-7.34
973.199	226.13
973.37	322.38
973.542	121.68
973.714	154.45
973.886	181.07
974.057	383.82
974.229	-95.4
974.401	-62.63
974.572	-76.97
974.744	-173.22
974.915	-117.93
975.087	-19.63
975.259	480.08
975.43	7
975.602	-48.3
975.773	-91.31
975.945	-27.82
976.116	361.3
976.288	-107.69
976.459	107.35
976.63	68.44
976.802	260.95
976.973	-140.46
977.145	131.92
977.316	666.44
977.487	562
977.659	-1.19
977.83	50
978.001	576.33
978.172	197.46
978.344	-62.63
978.515	68.44
978.686	37.72
978.857	580.43
979.028	-40.11
979.2	-58.54
979.371	437.07
979.542	224.08
979.713	119.64
979.884	-451.75
980.055	4.95
980.226	111.44
980.397	-29.87
980.568	-195.75
980.739	451.41
980.91	189.27
981.081	125.78
981.252	-130.22
981.423	316.24
981.594	457.55
981.765	-179.37
981.936	4.95
982.106	232.27
982.277	478.03
982.448	-38.06
982.619	166.74
982.79	93.01
982.96	408.4
983.131	117.59
983.302	-185.51
983.472	50
983.643	215.89
983.814	133.97
983.984	-66.73
984.155	158.55
984.326	412.5
984.496	35.67
984.667	-60.59
984.837	-29.87
985.008	494.41
985.178	105.3
985.349	2.9
985.519	54.1
985.69	58.2
985.86	23.38
986.031	-126.12
986.201	289.62
986.371	205.65
986.542	-101.55
986.712	-189.61
986.882	404.3
987.053	244.56
987.223	-160.94
987.393	170.83
987.563	213.84
987.734	349.01
987.904	342.86
988.074	-62.63
988.244	183.12
988.414	-33.96
988.585	-66.73
988.755	64.34
988.925	168.79
989.095	543.57
989.265	-44.2
989.435	-62.63
989.605	326.48
989.775	215.89
989.945	158.55
990.115	-214.18
990.285	58.2
990.455	195.41
990.625	31.57
990.795	-132.26
990.965	502.61
991.134	-107.69
991.304	-167.08
991.474	-83.11
991.644	297.81
991.814	613.2
991.984	-197.8
992.153	-179.37
992.323	119.64
992.493	121.68
992.662	-404.64
992.832	158.55
993.002	197.46
993.171	203.6
993.341	-279.72
993.511	41.81
993.68	41.81
993.85	277.33
994.019	-255.14
994.189	-181.42
994.358	281.43
994.528	-15.53
994.697	-367.78
994.867	-216.23
995.036	383.82
995.206	17.24
995.375	-179.37
995.544	-21.67
995.714	144.21
995.883	90.96
996.052	-27.82
996.222	-314.53
996.391	529.23
996.56	125.78
996.73	-230.57
996.899	-226.47
997.068	551.76
997.237	162.64
997.406	-169.13
997.576	-281.77
997.745	236.37
997.914	211.79
998.083	-349.35
998.252	-152.74
998.421	207.7
998.59	-195.75
998.759	-218.28
998.928	-328.87
999.097	430.93
999.266	222.03
999.435	-27.82
999.604	-345.25
999.773	631.63
999.942	117.59
1000.111	-283.81
1000.28	-347.3
1000.448	-54.44
1000.617	-85.16
1000.786	-50.35
1000.955	-271.53
1001.124	197.46
1001.292	789.32
1001.461	-128.17
1001.63	-160.94
1001.798	486.22
1001.967	430.93
1002.136	-310.44
1002.304	-296.1
1002.473	193.36
1002.642	164.69
1002.81	-124.07
1002.979	-214.18
1003.147	297.81
1003.316	717.64
1003.484	-238.76
1003.653	-261.29
1003.821	400.21
1003.99	70.48
1004.158	-115.88
1004.327	-70.83
1004.495	308.05
1004.663	-72.87
1004.832	-95.4
1005	-296.1
1005.168	285.52
1005.337	187.22
1005.505	-263.33
1005.673	-40.11
1005.842	236.37
1006.01	215.89
1006.178	-308.39
1006.346	-244.9
1006.514	232.27
1006.683	342.86
1006.851	-165.03
1007.019	-308.39
1007.187	-165.03
1007.355	-300.2
1007.523	-412.84
1007.691	-218.28
1007.859	-234.66
1008.027	336.72
1008.195	-162.98
1008.363	-320.68
1008.531	279.38
1008.699	-36.01
1008.867	-343.21
1009.035	-203.94
1009.203	385.87
1009.37	142.16
1009.538	-187.56
1009.706	306
1009.874	115.54
1010.042	56.15
1010.209	-277.67
1010.377	-298.15
1010.545	303.95
1010.713	142.16
1010.88	-283.81
1011.048	-195.75
1011.216	-21.67
1011.383	439.12
1011.551	-259.24
1011.718	-326.82
1011.886	361.3
1012.054	68.44
1012.221	-197.8
1012.389	-269.48
1012.556	-44.2
1012.724	494.41
1012.891	-165.03
1013.058	-343.21
1013.226	273.23
1013.393	295.76
1013.561	-337.06
1013.728	-357.54
1013.895	295.76
1014.063	244.56
1014.23	-326.82
1014.397	-285.86
1014.565	314.19
1014.732	23.38
1014.899	-355.49
1015.066	-339.11
1015.233	142.16
1015.401	193.36
1015.568	-165.03
1015.735	-128.17
1015.902	162.64
1016.069	74.58
1016.236	-220.33
1016.403	-273.57
1016.57	-134.31
1016.737	279.38
1016.904	-220.33
1017.071	-322.73
1017.238	-23.72
1017.405	281.43
1017.572	-177.32
1017.739	-40.11
1017.906	203.6
1018.073	338.77
1018.24	-289.96
1018.407	-220.33
1018.573	306
1018.74	121.68
1018.907	-160.94
1019.074	-427.17
1019.241	303.95
1019.407	121.68
1019.574	-242.85
1019.741	-328.87
1019.907	191.31
1020.074	265.04
1020.241	-498.85
1020.407	-287.91
1020.574	162.64
1020.74	203.6
1020.907	-230.57
1021.073	-308.39
1021.24	662.35
1021.406	342.86
1021.573	-330.92
1021.739	-287.91
1021.906	281.43
1022.072	45.91
1022.239	-205.99
1022.405	-246.95
1022.571	90.96
1022.738	-179.37
1022.904	-263.33
1023.07	-173.22
1023.237	109.4
1023.403	424.78
1023.569	-173.22
1023.735	-218.28
1023.902	183.12
1024.068	209.75
1024.234	-394.4
1024.4	-242.85
1024.566	172.88
1024.732	287.57
1024.898	-203.94
1025.065	-412.84
1025.231	318.29
1025.397	15.19
1025.563	-218.28
1025.729	-308.39
1025.895	-337.06
1026.061	-56.49
1026.227	-461.99
1026.392	-296.1
1026.558	379.73
1026.724	166.74
1026.89	-382.12
1027.056	-175.27
1027.222	256.85
1027.388	-23.72
1027.553	-271.53
1027.719	-261.29
1027.885	400.21
1028.051	256.85
1028.216	-511.14
1028.382	-228.52
1028.548	318.29
1028.713	15.19
1028.879	-324.77
1029.045	-119.98
1029.21	527.18
1029.376	326.48
1029.541	-167.08
1029.707	-187.56
1029.873	293.71
1030.038	330.58
1030.204	-308.39
1030.369	-230.57
1030.534	363.34
1030.7	11.09
1030.865	-138.41
1031.031	-259.24
1031.196	219.99
1031.361	158.55
1031.527	-246.95
1031.692	-283.81
1031.857	-253.09
1032.023	254.8
1032.188	-269.48
1032.353	-201.9
1032.518	492.37
1032.684	140.12
1032.849	-388.26
1033.014	-244.9
1033.179	160.59
1033.344	310.1
1033.509	-199.85
1033.674	-253.09
1033.839	306
1034.004	293.71
1034.17	-195.75
1034.335	-267.43
1034.5	-5.29
1034.664	-74.92
1034.829	-292.01
1034.994	-203.94
1035.159	109.4
1035.324	222.03
1035.489	-199.85
1035.654	-324.77
1035.819	498.51
1035.984	201.55
1036.148	-232.62
1036.313	-234.66
1036.478	414.54
1036.643	179.03
1036.807	-275.62
1036.972	-337.06
1037.137	506.7
1037.301	170.83
1037.466	-392.36
1037.631	-130.22
1037.795	387.92
1037.96	215.89
1038.124	-36.01
1038.289	-289.96
1038.454	293.71
1038.618	320.34
1038.783	-212.14
1038.947	-93.35
1039.111	215.89
1039.276	41.81
1039.44	-230.57
1039.605	219.99
1039.769	-9.39
1039.933	129.88
1040.098	-259.24
1040.262	-9.39
1040.426	359.25
1040.591	228.18
1040.755	-302.25
1040.919	-263.33
1041.083	213.84
1041.248	99.16
1041.412	-345.25
1041.576	-271.53
1041.74	99.16
1041.904	338.77
1042.068	-310.44
1042.232	-165.03
1042.397	371.54
1042.561	215.89
1042.725	-388.26
1042.889	-40.11
1043.053	222.03
1043.217	289.62
1043.381	-85.16
1043.544	-275.62
1043.708	420.69
1043.872	-19.63
1044.036	-412.84
1044.2	-261.29
1044.364	392.02
1044.528	531.28
1044.691	4645.65
1044.855	-361.64
1045.019	334.67
1045.183	267.09
1045.346	-220.33
1045.51	-318.63
1045.674	262.99
1045.837	297.81
1046.001	-175.27
1046.165	-300.2
1046.328	715.59
1046.492	322.38
1046.655	-17.58
1046.819	-205.99
1046.983	82.77
1047.146	285.52
1047.31	-130.22
1047.473	-345.25
1047.636	125.78
1047.8	-56.49
1047.963	-185.51
1048.127	-197.8
1048.29	-13.48
