Data from Ink_Intensity_USB4F045381__24__00024.txt Node

Date: Mon Jul 17 09:45:26 EDT 2023
User: mmckonesweet
Spectrometer: USB4F04538
Trigger mode: 4
Integration Time (sec): 9.000000E-1
Scans to average: 1
Electric dark correction enabled: true
Nonlinearity correction enabled: false
Boxcar width: 0
XAxis mode: Wavelengths
Number of Pixels in Spectrum: 3648
>>>>>Begin Spectral Data<<<<<
345.52	-918.51
345.736	-918.51
345.952	-918.51
346.168	-912.37
346.384	-959.47
346.6	-113.66
346.816	-250.88
347.032	-183.29
347.248	314.36
347.464	-209.92
347.68	-87.04
347.896	103.42
348.112	359.42
348.328	-89.09
348.544	-146.43
348.76	1.02
348.975	302.08
349.191	-101.37
349.407	-222.2
349.623	-50.18
349.839	-142.33
350.055	-68.61
350.27	107.52
350.486	228.35
350.702	418.81
350.918	226.3
351.133	-158.72
351.349	103.42
351.565	320.51
351.781	-168.96
351.996	-5.12
352.212	279.55
352.428	-193.53
352.644	-152.57
352.859	-271.36
353.075	265.21
353.291	-54.27
353.506	-115.71
353.722	-197.63
353.938	-142.33
354.153	463.86
354.369	64.51
354.584	-123.9
354.8	273.4
355.016	-318.46
355.231	-216.06
355.447	-17.41
355.662	62.46
355.878	848.88
356.093	-324.6
356.309	-60.42
356.524	-222.2
356.74	152.57
356.955	-214.01
357.171	27.65
357.386	74.75
357.602	-257.02
357.817	-62.46
358.033	-119.81
358.248	375.8
358.464	93.18
358.679	-74.75
358.895	-365.56
359.11	64.51
359.325	297.98
359.541	275.45
359.756	-5.12
359.972	-279.55
360.187	142.33
360.402	-168.96
360.618	-103.42
360.833	875.51
361.048	93.18
361.264	-214.01
361.479	3.07
361.694	-33.79
361.909	130.05
362.125	-187.39
362.34	-195.58
362.555	197.63
362.77	35.84
362.986	-289.79
363.201	-156.67
363.416	99.33
363.631	7.17
363.847	-173.05
364.062	-87.04
364.277	144.38
364.492	136.19
364.707	-193.53
364.922	-373.75
365.138	308.22
365.353	306.17
365.568	-226.3
365.783	-56.32
365.998	62.46
366.213	519.16
366.428	-168.96
366.643	13.31
366.858	285.69
367.073	216.06
367.288	-46.08
367.503	-242.68
367.718	117.76
367.933	320.51
368.148	-261.12
368.363	-54.27
368.578	56.32
368.793	400.38
369.008	-177.15
369.223	-142.33
369.438	146.43
369.653	447.48
369.868	-220.16
370.083	-185.34
370.298	46.08
370.513	363.51
370.728	97.28
370.943	-232.44
371.157	-187.39
371.372	519.16
371.587	-304.12
371.802	-330.75
372.017	33.79
372.232	314.36
372.446	-66.56
372.661	-273.4
372.876	162.81
373.091	89.09
373.306	-9.22
373.52	-250.88
373.735	-226.3
373.95	355.32
374.165	-152.57
374.379	-13.31
374.594	-125.95
374.809	166.91
375.023	70.65
375.238	-226.3
375.453	183.29
375.667	-281.6
375.882	-58.37
376.097	-142.33
376.311	-17.41
376.526	3.07
376.741	-224.25
376.955	136.19
377.17	521.21
377.384	470.01
377.599	-54.27
377.813	-277.5
378.028	519.16
378.242	119.81
378.457	-64.51
378.672	-400.38
378.886	48.13
379.101	-29.7
379.315	-295.93
379.53	-119.81
379.744	189.44
379.958	175.1
380.173	-144.38
380.387	-166.91
380.602	62.46
380.816	-154.62
381.031	-134.14
381.245	-97.28
381.459	187.39
381.674	2386.91
381.888	-146.43
382.103	58.37
382.317	-205.82
382.531	523.26
382.746	-52.22
382.96	-179.2
383.174	-101.37
383.388	381.95
383.603	56.32
383.817	-308.22
384.031	156.67
384.246	429.05
384.46	76.8
384.674	291.84
384.888	-29.7
385.103	-52.22
385.317	-140.29
385.531	-99.33
385.745	281.6
385.959	365.56
386.174	-150.53
386.388	-326.65
386.602	-70.65
386.816	-66.56
387.03	-39.94
387.244	-62.46
387.458	140.29
387.672	416.76
387.887	-226.3
388.101	-283.64
388.315	334.84
388.529	78.85
388.743	-93.18
388.957	-244.73
389.171	332.79
389.385	-140.29
389.599	-76.8
389.813	35.84
390.027	152.57
390.241	621.56
390.455	-52.22
390.669	-82.94
390.883	-74.75
391.097	314.36
391.311	50.18
391.525	-136.19
391.738	160.77
391.952	183.29
392.166	-31.74
392.38	-115.71
392.594	207.87
392.808	347.13
393.022	-62.46
393.236	-99.33
393.449	199.68
393.663	39.94
393.877	-242.68
394.091	-60.42
394.305	-29.7
394.518	-93.18
394.732	-259.07
394.946	25.6
395.16	439.29
395.373	138.24
395.587	-171.01
395.801	-218.11
396.015	302.08
396.228	230.4
396.442	-242.68
396.656	-216.06
396.869	248.83
397.083	523.26
397.297	15.36
397.51	-142.33
397.724	386.04
397.938	123.9
398.151	-285.69
398.365	-211.96
398.578	248.83
398.792	373.75
399.005	44.03
399.219	-95.23
399.433	93.18
399.646	154.62
399.86	103.42
400.073	130.05
400.287	168.96
400.5	-62.46
400.714	-3.07
400.927	-64.51
401.141	211.96
401.354	984.05
401.567	195.58
401.781	-238.59
401.994	248.83
402.208	541.69
402.421	-107.52
402.635	-35.84
402.848	105.47
403.061	326.65
403.275	60.42
403.488	-216.06
403.701	476.15
403.915	252.92
404.128	29.7
404.341	-115.71
404.555	205.82
404.768	17.41
404.981	80.89
405.195	-128
405.408	510.97
405.621	173.05
405.834	62.46
406.048	-142.33
406.261	424.95
406.474	410.62
406.687	-203.77
406.9	66.56
407.114	52.22
407.327	125.95
407.54	-214.01
407.753	-158.72
407.966	-103.42
408.179	261.12
408.392	-82.94
408.605	-375.8
408.819	117.76
409.032	207.87
409.245	-300.03
409.458	117.76
409.671	87.04
409.884	312.32
410.097	-267.26
410.31	44.03
410.523	189.44
410.736	-78.85
410.949	-37.89
411.162	-62.46
411.375	504.82
411.588	308.22
411.801	60.42
412.014	-160.77
412.227	25.6
412.44	-41.98
412.653	-150.53
412.865	105.47
413.078	250.88
413.291	179.2
413.504	-84.99
413.717	-150.53
413.93	228.35
414.143	-62.46
414.356	-3.07
414.568	-232.44
414.781	240.64
414.994	154.62
415.207	-78.85
415.42	-111.61
415.632	295.93
415.845	445.43
416.058	-193.53
416.271	-199.68
416.483	113.66
416.696	576.5
416.909	-164.86
417.121	-111.61
417.334	177.15
417.547	539.64
417.759	-97.28
417.972	-144.38
418.185	-15.36
418.397	332.79
418.61	-121.85
418.823	-105.47
419.035	461.82
419.248	64.51
419.46	-84.99
419.673	3.07
419.885	285.69
420.098	109.57
420.311	-115.71
420.523	-349.18
420.736	250.88
420.948	1.02
421.161	-175.1
421.373	-259.07
421.586	158.72
421.798	-66.56
422.01	-261.12
422.223	-7.17
422.435	-9.22
422.648	185.34
422.86	-123.9
423.073	-148.48
423.285	324.6
423.497	-220.16
423.71	-171.01
423.922	-144.38
424.134	103.42
424.347	453.63
424.559	-17.41
424.771	150.53
424.984	-44.03
425.196	173.05
425.408	-283.64
425.621	-181.25
425.833	373.75
426.045	353.27
426.257	-220.16
426.47	-103.42
426.682	173.05
426.894	173.05
427.106	-130.05
427.318	-52.22
427.531	-97.28
427.743	220.16
427.955	-132.09
428.167	302.08
428.379	218.11
428.591	58.37
428.804	-21.5
429.016	-240.64
429.228	-41.98
429.44	187.39
429.652	144.38
429.864	-269.31
430.076	35.84
430.288	17.41
430.5	56.32
430.712	-25.6
430.924	347.13
431.136	209.92
431.348	-240.64
431.56	-150.53
431.772	76.8
431.984	-31.74
432.196	-99.33
432.408	-76.8
432.62	-3.07
432.832	162.81
433.044	166.91
433.256	44.03
433.468	254.97
433.679	-201.72
433.891	-214.01
434.103	140.29
434.315	412.67
434.527	285.69
434.739	9.22
434.95	-60.42
435.162	349.18
435.374	-64.51
435.586	7.17
435.798	-70.65
436.009	-226.3
436.221	97.28
436.433	-128
436.645	-33.79
436.856	56.32
437.068	420.86
437.28	-25.6
437.491	156.67
437.703	271.36
437.915	162.81
438.126	-78.85
438.338	138.24
438.55	84.99
438.761	259.07
438.973	-23.55
439.184	-70.65
439.396	140.29
439.608	330.75
439.819	-193.53
440.031	37.89
440.242	287.74
440.454	291.84
440.665	-74.75
440.877	70.65
441.088	293.88
441.3	128
441.511	-173.05
441.723	-97.28
441.934	148.48
442.146	132.09
442.357	35.84
442.569	226.3
442.78	109.57
442.991	502.78
443.203	291.84
443.414	-173.05
443.626	437.24
443.837	-27.65
444.048	-84.99
444.26	-218.11
444.471	218.11
444.682	390.14
444.894	-259.07
445.105	-191.49
445.316	297.98
445.528	228.35
445.739	19.46
445.95	15.36
446.161	195.58
446.373	476.15
446.584	-78.85
446.795	54.27
447.006	332.79
447.217	590.84
447.429	-154.62
447.64	-125.95
447.851	408.57
448.062	128
448.273	-289.79
448.484	-54.27
448.695	310.27
448.907	50.18
449.118	95.23
449.329	216.06
449.54	-25.6
449.751	-132.09
449.962	33.79
450.173	-9.22
450.384	408.57
450.595	539.64
450.806	9.22
451.017	-9.22
451.228	470.01
451.439	338.94
451.65	19.46
451.861	-214.01
452.072	-87.04
452.283	138.24
452.494	162.81
452.705	-105.47
452.915	439.29
453.126	232.44
453.337	-23.55
453.548	-99.33
453.759	353.27
453.97	726
454.181	187.39
454.391	-70.65
454.602	287.74
454.813	322.56
455.024	41.98
455.235	44.03
455.445	175.1
455.656	306.17
455.867	72.7
456.078	-46.08
456.288	33.79
456.499	220.16
456.71	-119.81
456.921	287.74
457.131	295.93
457.342	205.82
457.553	128
457.763	29.7
457.974	406.52
458.184	355.32
458.395	-66.56
458.606	-103.42
458.816	506.87
459.027	697.33
459.237	230.4
459.448	-128
459.659	488.44
459.869	709.62
460.08	-224.25
460.29	179.2
460.501	594.93
460.711	111.61
460.922	-82.94
461.132	70.65
461.343	832.5
461.553	-15.36
461.764	-19.46
461.974	89.09
462.184	396.28
462.395	338.94
462.605	193.53
462.816	23.55
463.026	244.73
463.236	488.44
463.447	-50.18
463.657	62.46
463.867	388.09
464.078	254.97
464.288	125.95
464.498	89.09
464.709	291.84
464.919	238.59
465.129	89.09
465.339	-23.55
465.55	314.36
465.76	455.67
465.97	107.52
466.18	-37.89
466.391	488.44
466.601	412.67
466.811	185.34
467.021	11.26
467.231	420.86
467.441	545.78
467.651	156.67
467.862	-128
468.072	283.64
468.282	558.07
468.492	54.27
468.702	58.37
468.912	275.45
469.122	830.45
469.332	408.57
469.542	97.28
469.752	480.25
469.962	418.81
470.172	68.61
470.382	19.46
470.592	531.45
470.802	666.61
471.012	199.68
471.222	123.9
471.432	687.09
471.642	508.92
471.852	324.6
472.062	136.19
472.272	340.99
472.482	154.62
472.691	54.27
472.901	50.18
473.111	488.44
473.321	922.61
473.531	185.34
473.741	291.84
473.95	531.45
474.16	611.32
474.37	257.02
474.58	111.61
474.79	904.18
474.999	566.26
475.209	146.43
475.419	216.06
475.628	302.08
475.838	678.9
476.048	295.93
476.258	195.58
476.467	713.72
476.677	363.51
476.886	547.83
477.096	330.75
477.306	404.47
477.515	773.11
477.725	396.28
477.935	359.42
478.144	850.93
478.354	396.28
478.563	398.33
478.773	324.6
478.982	642.04
479.192	793.59
479.401	375.8
479.611	242.68
479.82	457.72
480.03	713.72
480.239	283.64
480.449	265.21
480.658	1008.62
480.868	433.15
481.077	517.11
481.287	429.05
481.496	650.23
481.705	996.34
481.915	683
482.124	662.52
482.333	693.24
482.543	977.91
482.752	553.98
482.961	490.49
483.171	910.32
483.38	623.61
483.589	558.07
483.799	494.58
484.008	631.8
484.217	1006.58
484.426	580.6
484.636	373.75
484.845	826.36
485.054	390.14
485.263	838.64
485.472	619.51
485.682	1141.74
485.891	769.01
486.1	424.95
486.309	492.54
486.518	938.99
486.727	1100.78
486.936	568.31
487.146	619.51
487.355	1104.88
487.564	599.03
487.773	658.42
487.982	578.55
488.191	779.25
488.4	826.36
488.609	599.03
488.818	633.85
489.027	1459.18
489.236	1194.99
489.445	609.27
489.654	560.12
489.863	1201.13
490.072	920.56
490.281	1029.1
490.49	639.99
490.698	1305.58
490.907	1178.61
491.116	707.57
491.325	502.78
491.534	1248.24
491.743	982
491.952	822.26
492.16	664.57
492.369	1043.44
492.578	1104.88
492.787	783.35
492.996	883.7
493.204	795.64
493.413	1428.46
493.622	496.63
493.831	508.92
494.039	1264.62
494.248	789.49
494.457	697.33
494.665	607.22
494.874	1248.24
495.083	1457.13
495.291	887.79
495.5	783.35
495.709	1285.1
495.917	1129.45
496.126	898.03
496.335	781.3
496.543	975.86
496.752	1031.15
496.96	988.14
497.169	721.91
497.377	1045.49
497.586	1311.72
497.794	941.04
498.003	785.4
498.211	1016.82
498.42	1563.62
498.628	1000.43
498.837	775.16
499.045	1194.99
499.254	1129.45
499.462	758.77
499.671	814.07
499.879	1459.18
500.087	1385.45
500.296	881.65
500.504	1039.34
500.713	1184.75
500.921	1727.46
501.129	951.28
501.338	900.08
501.546	1174.51
501.754	1164.27
501.962	998.38
502.171	930.8
502.379	1324.01
502.587	1709.03
502.795	1160.17
503.004	1025.01
503.212	1192.94
503.42	1575.91
503.628	1022.96
503.837	1151.98
504.045	1444.84
504.253	1635.3
504.461	928.75
504.669	918.51
504.877	1448.94
505.085	1543.14
505.294	912.37
505.502	1205.23
505.71	1223.66
505.918	1514.47
506.126	936.95
506.334	1149.93
506.542	1334.25
506.75	1426.41
506.958	1256.43
507.166	1213.42
507.374	1305.58
507.582	1717.22
507.79	1311.72
507.998	1096.69
508.206	1504.23
508.414	1551.34
508.622	1182.7
508.83	1133.55
509.037	1721.32
509.245	1371.12
509.453	1096.69
509.661	1014.77
509.869	1489.9
510.077	1317.87
510.285	1262.57
510.492	826.36
510.7	1965.03
510.908	1420.27
511.116	1229.81
511.324	1104.88
511.531	1395.69
511.739	1459.18
511.947	1311.72
512.155	1567.72
512.362	1553.38
512.57	1307.63
512.778	1086.45
512.985	1090.54
513.193	1618.92
513.401	1805.28
513.608	1117.17
513.816	1328.11
514.024	1582.06
514.231	1754.09
514.439	1268.72
514.646	1344.49
514.854	1680.36
515.061	1655.78
515.269	1319.92
515.477	1297.39
515.684	1309.68
515.892	1741.8
516.099	1154.03
516.307	1201.13
516.514	1735.65
516.722	1887.2
516.929	1334.25
517.136	1240.05
517.344	1858.53
517.551	1606.63
517.759	1328.11
517.966	1317.87
518.173	1567.72
518.381	1510.38
518.588	1321.96
518.796	1352.68
519.003	1735.65
519.21	1580.01
519.418	1291.24
519.625	1463.27
519.832	1735.65
520.039	1713.13
520.247	1223.66
520.454	1379.31
520.661	1842.15
520.868	1676.26
521.076	1553.38
521.283	1623.02
521.49	2223.07
521.697	1833.96
521.904	1465.32
522.112	1493.99
522.319	1895.4
522.526	1752.04
522.733	1506.28
522.94	1465.32
523.147	1684.45
523.354	1932.26
523.561	1332.2
523.768	1508.33
523.975	1909.73
524.183	1711.08
524.39	1582.06
524.597	1416.17
524.804	1709.03
525.011	1631.21
525.218	1520.62
525.425	1559.53
525.632	2089.95
525.838	1582.06
526.045	1469.42
526.252	1524.71
526.459	2786.26
526.666	2571.22
526.873	1594.34
527.08	1557.48
527.287	2163.68
527.494	2087.9
527.701	1502.19
527.907	1620.97
528.114	1960.93
528.321	1895.4
528.528	1752.04
528.735	1737.7
528.941	1770.47
529.148	1676.26
529.355	1838.05
529.562	1561.58
529.768	2223.07
529.975	1913.83
530.182	1823.72
530.388	1704.93
530.595	2108.38
530.802	1661.93
531.008	1833.96
531.215	1895.4
531.422	2624.47
531.628	2690.01
531.835	1768.42
532.042	1688.55
532.248	1829.86
532.455	1993.7
532.661	1756.13
532.868	1731.56
533.074	2003.94
533.281	2153.44
533.487	1790.95
533.694	1813.48
533.9	1825.76
534.107	2268.13
534.313	1706.98
534.52	1655.78
534.726	2251.74
534.933	2505.69
535.139	1876.96
535.345	1729.51
535.552	2253.79
535.758	2114.53
535.965	1936.35
536.171	1764.33
536.377	2288.61
536.584	2427.87
536.79	1768.42
536.996	1985.51
537.203	2094.05
537.409	2206.69
537.615	1881.06
537.821	2063.33
538.028	2329.56
538.234	2339.8
538.44	2001.89
538.646	1962.98
538.853	2358.24
539.059	2065.38
539.265	2296.8
539.471	1870.82
539.677	2423.77
539.883	2251.74
540.09	1946.59
540.296	2444.25
540.502	2294.75
540.708	2079.71
540.914	2159.58
541.12	2053.09
541.326	2485.21
541.532	2247.65
541.738	2071.52
541.944	2130.91
542.15	2464.73
542.356	2188.25
542.562	2059.23
542.768	2198.49
542.974	2870.23
543.18	2853.84
543.386	2196.45
543.592	1899.49
543.798	2651.1
544.004	2634.71
544.21	2077.66
544.415	2149.34
544.621	2466.78
544.827	2626.52
545.033	2089.95
545.239	2302.94
545.445	2204.64
545.651	2417.63
545.856	2184.16
546.062	2257.89
546.268	2333.66
546.474	2413.53
546.679	2085.86
546.885	2261.98
547.091	2354.14
547.297	2894.8
547.502	2345.95
547.708	2194.4
547.914	2204.64
548.119	2657.24
548.325	2192.35
548.531	2165.73
548.736	2903
548.942	2198.49
549.147	2266.08
549.353	2458.59
549.559	2733.01
549.764	2636.76
549.97	2292.7
550.175	2259.93
550.381	2821.08
550.586	2483.16
550.792	2333.66
550.997	2247.65
551.203	2581.46
551.408	2892.76
551.614	2239.45
551.819	2311.13
552.025	2980.82
552.23	3003.35
552.435	2286.56
552.641	2489.31
552.846	2464.73
553.052	2835.41
553.257	2505.69
553.462	2456.54
553.668	2456.54
553.873	2900.95
554.078	2458.59
554.283	2393.05
554.489	2718.68
554.694	2696.15
554.899	2331.61
555.105	2679.77
555.31	2794.45
555.515	2966.48
555.72	2585.56
555.925	2431.96
556.131	2939.86
556.336	2726.87
556.541	2524.12
556.746	2348
556.951	2970.58
557.156	3052.5
557.361	2630.62
557.567	2806.74
557.772	3234.77
557.977	2804.69
558.182	2532.31
558.387	2657.24
558.592	2640.86
558.797	3032.02
559.002	2663.38
559.207	2771.93
559.412	2919.38
559.617	3105.74
559.822	2608.09
560.027	2595.8
560.232	3021.78
560.437	3126.22
560.642	2470.87
560.847	2610.14
561.051	2911.19
561.256	2943.96
561.461	2816.98
561.666	2374.62
561.871	2821.08
562.076	3060.69
562.281	2825.17
562.485	2579.42
562.69	3103.7
562.895	3158.99
563.1	2716.63
563.305	2644.95
563.509	3181.52
563.714	3503.05
563.919	2708.44
564.123	2722.77
564.328	2868.18
564.533	3234.77
564.737	2810.84
564.942	2681.82
565.147	3521.48
565.351	3584.97
565.556	2872.28
565.761	2851.8
565.965	3013.59
566.17	2790.36
566.374	2827.22
566.579	2599.9
566.784	3111.89
566.988	2974.67
567.193	2714.58
567.397	2778.07
567.602	2767.83
567.806	3187.66
568.011	2909.14
568.215	2831.32
568.42	3167.18
568.624	2913.24
568.828	2833.36
569.033	3093.46
569.237	3095.5
569.442	3242.96
569.646	2790.36
569.85	2835.41
570.055	3148.75
570.259	3130.32
570.463	3257.29
570.668	2962.39
570.872	3060.69
571.076	3199.95
571.281	3044.31
571.485	2980.82
571.689	3240.91
571.893	3468.24
572.098	3245.01
572.302	2972.63
572.506	3331.02
572.71	3261.39
572.914	2999.25
573.119	2995.15
573.323	3513.29
573.527	3533.77
573.731	3054.55
573.935	2894.8
574.139	3437.52
574.343	3011.54
574.547	3032.02
574.751	3021.78
574.955	3580.87
575.159	3562.44
575.364	2976.72
575.568	2991.06
575.772	3306.45
575.976	3609.54
576.18	3066.83
576.383	2993.11
576.587	3558.35
576.791	3515.34
576.995	2864.08
577.199	2964.43
577.403	3597.26
577.607	3660.74
577.811	3097.55
578.015	3003.35
578.219	3447.76
578.422	3693.51
578.626	3328.97
578.83	3253.2
579.034	3664.84
579.238	3427.28
579.442	3247.05
579.645	3531.72
579.849	3359.69
580.053	3425.23
580.257	3269.58
580.46	3222.48
580.664	3650.5
580.868	3480.52
581.071	3294.16
581.275	3328.97
581.479	3181.52
581.682	3640.26
581.886	3314.64
582.09	3390.41
582.293	3718.09
582.497	3752.9
582.7	3531.72
582.904	3277.77
583.107	3505.1
583.311	3367.88
583.515	3447.76
583.718	3507.15
583.922	3691.46
584.125	4021.19
584.329	3292.11
584.532	3541.96
584.735	4047.81
584.939	3728.33
585.142	3206.1
585.346	3302.35
585.549	3691.46
585.753	3449.8
585.956	3269.58
586.159	3490.76
586.363	4144.06
586.566	3781.57
586.769	3449.8
586.973	3367.88
587.176	3886.02
587.379	3931.08
587.582	3607.5
587.786	3724.23
587.989	3738.57
588.192	4242.37
588.395	3558.35
588.599	3847.11
588.802	3888.07
589.005	3943.36
589.208	3431.37
589.411	3617.74
589.615	4023.23
589.818	4260.8
590.021	3795.91
590.224	3599.31
590.427	3986.37
590.63	4021.19
590.833	3501
591.036	3537.87
591.239	3752.9
591.442	3748.81
591.645	3875.78
591.848	3560.39
592.051	3892.16
592.254	4135.87
592.457	3761.09
592.66	3611.59
592.863	3873.73
593.066	3906.5
593.269	3578.83
593.472	3861.45
593.675	3687.37
593.878	4158.4
594.081	3990.47
594.284	3660.74
594.486	4084.67
594.689	4045.76
594.892	3761.09
595.095	3783.62
595.298	4103.11
595.5	3812.29
595.703	3750.85
595.906	3894.21
596.109	4246.46
596.311	4299.71
596.514	3501
596.717	3998.66
596.92	4256.7
597.122	4256.7
597.325	3533.77
597.528	3650.5
597.73	4463.55
597.933	4027.33
598.136	3982.28
598.338	3687.37
598.541	4367.29
598.743	4406.2
598.946	3990.47
599.148	3953.6
599.351	4668.34
599.554	4467.64
599.756	4209.6
599.959	4033.47
600.161	4299.71
600.363	4856.76
600.566	4189.12
600.768	3855.3
600.971	4596.67
601.173	4205.5
601.376	4025.28
601.578	3976.13
601.78	4264.89
601.983	4852.66
602.185	3892.16
602.388	4096.96
602.59	4426.68
602.792	4185.02
602.995	4139.97
603.197	4049.86
603.399	4395.96
603.601	4271.04
603.804	3883.97
604.006	3855.3
604.208	4033.47
604.41	3865.54
604.613	4123.59
604.815	4058.05
605.017	4877.24
605.219	3992.52
605.421	4398.01
605.623	4166.59
605.826	4668.34
606.028	4742.07
606.23	4174.78
606.432	3996.61
606.634	4733.88
606.836	4570.04
607.038	4023.23
607.24	4297.66
607.442	4471.74
607.644	4344.77
607.846	4422.59
608.048	4096.96
608.25	4645.82
608.452	4209.6
608.654	4268.99
608.856	3863.49
609.058	4561.85
609.26	4549.56
609.462	4385.73
609.664	4164.54
609.866	4848.57
610.067	4574.14
610.269	4398.01
610.471	4328.38
610.673	4426.68
610.875	4658.1
611.077	3972.04
611.278	4375.49
611.48	4531.13
611.682	5034.93
611.884	4529.08
612.085	4238.27
612.287	4539.32
612.489	4617.15
612.69	4066.24
612.892	4332.48
613.094	4746.17
613.295	4606.91
613.497	4123.59
613.699	4436.92
613.9	4832.18
614.102	4885.43
614.304	4271.04
614.505	4090.82
614.707	4481.98
614.908	4586.43
615.11	4328.38
615.311	4467.64
615.513	4561.85
615.714	4680.63
615.916	4361.15
616.117	4371.39
616.319	4623.29
616.52	4764.6
616.722	4264.89
616.923	4355.01
617.124	4936.63
617.326	4658.1
617.527	4383.68
617.729	4434.88
617.93	4703.16
618.131	4795.32
618.333	4348.86
618.534	4387.77
618.735	4541.37
618.937	5077.94
619.138	4283.33
619.339	4379.58
619.54	4746.17
619.742	4631.48
619.943	4604.86
620.144	4441.02
620.345	4819.89
620.546	4946.87
620.748	4338.62
620.949	4471.74
621.15	4723.64
621.351	4684.73
621.552	4461.5
621.753	4180.93
621.954	4510.65
622.155	5041.08
622.356	4299.71
622.558	4672.44
622.759	4891.57
622.96	5094.32
623.161	4514.75
623.362	4486.08
623.563	4920.24
623.764	4570.04
623.965	4420.54
624.166	4723.64
624.366	4672.44
624.567	4903.86
624.768	4342.72
624.969	4584.38
625.17	4604.86
625.371	4854.71
625.572	4541.37
625.773	4398.01
625.973	4971.44
626.174	4977.59
626.375	4760.5
626.576	4674.49
626.777	5008.31
626.977	5194.67
627.178	4578.23
627.379	4627.39
627.58	4658.1
627.78	4910.01
627.981	4654.01
628.182	4787.13
628.382	4985.78
628.583	4537.27
628.784	4432.83
628.984	4830.13
629.185	4936.63
629.386	5204.91
629.586	4776.89
629.787	4643.77
629.987	5053.36
630.188	4760.5
630.388	4764.6
630.589	4637.63
630.79	5514.16
630.99	4989.88
631.191	4811.7
631.391	4805.56
631.591	5129.14
631.792	5260.21
631.992	4748.22
632.193	4746.17
632.393	5274.54
632.594	5073.84
632.794	4807.61
632.994	4942.77
633.195	4856.76
633.395	4942.77
633.595	4895.67
633.796	5065.65
633.996	4846.52
634.196	5231.54
634.397	4754.36
634.597	4852.66
634.797	4815.8
634.997	5262.26
635.198	5008.31
635.398	4676.54
635.598	5120.95
635.798	5360.56
635.998	5041.08
636.199	4707.26
636.399	4885.43
636.599	4944.82
636.799	4805.56
636.999	5045.17
637.199	5297.07
637.399	5376.94
637.599	4828.09
637.799	5020.6
637.999	4977.59
638.199	5460.91
638.399	4910.01
638.599	4881.33
638.799	5192.62
638.999	5751.72
639.199	4901.81
639.399	4889.53
639.599	5606.31
639.799	4983.73
639.999	4780.98
640.199	4858.81
640.399	5182.38
640.599	5176.24
640.799	5139.38
640.998	5235.63
641.198	5385.13
641.398	5194.67
641.598	5227.44
641.798	4883.38
641.997	6187.94
642.197	5184.43
642.397	5077.94
642.597	5053.36
642.796	5356.46
642.996	5759.91
643.196	5147.57
643.395	4893.62
643.595	5135.28
643.795	4854.71
643.994	4907.96
644.194	5114.8
644.394	5387.18
644.593	5256.11
644.793	5057.46
644.992	5122.99
645.192	5323.69
645.392	4912.05
645.591	5485.48
645.791	5221.3
645.99	5321.65
646.19	5237.68
646.389	5211.06
646.589	5141.43
646.788	5575.59
646.987	5352.37
647.187	5243.82
647.386	5346.22
647.586	5374.89
647.785	5510.06
647.984	5215.15
648.184	5133.23
648.383	5262.26
648.582	5221.3
648.782	5272.5
648.981	5338.03
649.18	5254.06
649.38	5499.82
649.579	5028.79
649.778	5075.89
649.977	5538.73
650.177	5571.5
650.376	5108.66
650.575	5192.62
650.774	5831.59
650.973	5276.59
651.173	5047.22
651.372	5331.89
651.571	5430.19
651.77	5634.99
651.969	5194.67
652.168	5487.53
652.367	5147.57
652.566	5565.36
652.765	5348.27
652.964	5741.48
653.163	5960.61
653.362	5274.54
653.561	5290.93
653.76	5217.2
653.959	5499.82
654.158	5639.08
654.357	5645.23
654.556	5364.65
654.755	5663.66
654.954	5804.97
655.153	5467.05
655.352	5249.97
655.551	5876.65
655.749	5376.94
655.948	5551.02
656.147	5376.94
656.346	5700.52
656.545	5503.92
656.743	5573.55
656.942	5407.66
657.141	5512.11
657.34	5487.53
657.538	5561.26
657.737	5415.85
657.936	5458.86
658.135	5776.3
658.333	5458.86
658.532	5352.37
658.731	5970.85
658.929	5825.45
659.128	5667.75
659.326	5475.24
659.525	5999.52
659.724	5714.86
659.922	5362.61
660.121	5305.26
660.319	5680.04
660.518	5399.47
660.716	5415.85
660.915	5407.66
661.113	5942.18
661.312	5422
661.51	5792.68
661.709	5489.58
661.907	5895.08
662.105	6079.4
662.304	5612.46
662.502	5606.31
662.701	6171.55
662.899	5616.55
663.097	5843.88
663.296	5522.35
663.494	6020
663.692	6028.2
663.891	5417.9
664.089	5401.52
664.287	5933.99
664.485	6011.81
664.684	5385.13
664.882	5647.27
665.08	5741.48
665.278	5977
665.476	5319.6
665.675	5802.92
665.873	6210.47
666.071	6085.54
666.269	5618.6
666.467	5811.11
666.665	5661.61
666.863	5796.78
667.061	5766.06
667.259	5422
667.457	5723.05
667.655	5970.85
667.853	5569.45
668.051	5677.99
668.249	5514.16
668.447	5903.27
668.645	5430.19
668.843	5714.86
669.041	5966.76
669.239	5655.47
669.437	5690.28
669.635	5979.04
669.833	5604.27
670.031	5905.32
670.229	5778.34
670.426	5624.75
670.624	5759.91
670.822	5634.99
671.02	5518.25
671.218	5811.11
671.415	5612.46
671.613	5852.07
671.811	5764.01
672.009	5745.58
672.206	5878.69
672.404	5802.92
672.602	5794.73
672.799	5702.57
672.997	5833.64
673.195	6292.38
673.392	5864.36
673.59	5438.38
673.788	5882.79
673.985	5514.16
674.183	5628.84
674.38	5704.62
674.578	6130.59
674.775	5698.47
674.973	5551.02
675.17	5510.06
675.368	6323.1
675.565	5888.93
675.763	5491.63
675.96	5628.84
676.158	6214.56
676.355	5757.86
676.553	5729.19
676.75	5770.15
676.947	5772.2
677.145	5768.1
677.342	5747.62
677.539	5880.74
677.737	5807.02
677.934	6378.4
678.131	5897.13
678.329	5692.33
678.526	6364.06
678.723	5987.24
678.92	5770.15
679.118	5727.14
679.315	5745.58
679.512	6347.68
679.709	5743.53
679.906	5759.91
680.104	6067.11
680.301	6089.64
680.498	5489.58
680.695	5624.75
680.892	5737.38
681.089	5766.06
681.286	5897.13
681.483	5514.16
681.68	5946.28
681.877	6192.03
682.075	5614.51
682.272	5888.93
682.469	5876.65
682.665	5839.78
682.862	5551.02
683.059	5563.31
683.256	5837.73
683.453	5811.11
683.65	5710.76
683.847	5768.1
684.044	5794.73
684.241	5559.21
684.438	5817.26
684.635	5581.74
684.831	6149.03
685.028	6452.13
685.225	5632.94
685.422	5850.02
685.619	5839.78
685.815	5854.12
686.012	5843.88
686.209	5747.62
686.405	5557.16
686.602	6060.96
686.799	5610.41
686.996	5598.12
687.192	5729.19
687.389	6515.61
687.586	5624.75
687.782	5622.7
687.979	6026.15
688.175	6155.17
688.372	5694.38
688.568	5616.55
688.765	5665.71
688.962	6196.13
689.158	5819.3
689.355	5591.98
689.551	6071.2
689.748	5766.06
689.944	5632.94
690.14	5489.58
690.337	6050.72
690.533	5643.18
690.73	5761.96
690.926	5596.07
691.123	5895.08
691.319	5927.85
691.515	5505.96
691.712	5743.53
691.908	5923.75
692.104	6060.96
692.301	5852.07
692.497	5651.37
692.693	6040.48
692.889	6300.58
693.086	5743.53
693.282	5460.91
693.478	5794.73
693.674	6183.84
693.87	5733.29
694.067	5553.07
694.263	5856.17
694.459	5616.55
694.655	6026.15
694.851	5630.89
695.047	6015.91
695.243	6112.16
695.439	5669.8
695.635	5565.36
695.831	5907.37
696.027	5702.57
696.224	5477.29
696.42	5999.52
696.615	6241.18
696.811	6052.77
697.007	5591.98
697.203	5645.23
697.399	5854.12
697.595	6261.66
697.791	5581.74
697.987	5753.77
698.183	5499.82
698.379	5639.08
698.575	5899.17
698.77	5493.68
698.966	6003.62
699.162	6093.73
699.358	5700.52
699.554	5514.16
699.749	5989.28
699.945	6032.29
700.141	5704.62
700.337	5786.54
700.532	5798.82
700.728	5591.98
700.924	5505.96
701.119	5557.16
701.315	5936.04
701.511	5788.58
701.706	5708.71
701.902	5491.63
702.097	5677.99
702.293	6108.07
702.489	5624.75
702.684	5872.55
702.88	5700.52
703.075	5890.98
703.271	5747.62
703.466	5540.78
703.662	5841.83
703.857	6020
704.053	5505.96
704.248	5616.55
704.443	5778.34
704.639	5960.61
704.834	5700.52
705.03	5577.64
705.225	6079.4
705.42	6050.72
705.616	5839.78
705.811	5528.49
706.006	5696.43
706.202	5669.8
706.397	5886.89
706.592	5430.19
706.787	5874.6
706.983	5852.07
707.178	5823.4
707.373	5596.07
707.568	5948.33
707.763	6032.29
707.959	5477.29
708.154	5471.15
708.349	5827.5
708.544	5850.02
708.739	5872.55
708.934	5505.96
709.129	5989.28
709.324	6013.86
709.519	5448.62
709.714	5581.74
709.909	6163.36
710.104	5882.79
710.299	5571.5
710.494	5749.67
710.689	6015.91
710.884	5794.73
711.079	5755.82
711.274	5800.87
711.469	5835.69
711.664	5704.62
711.859	5704.62
712.054	5739.43
712.249	5966.76
712.443	6261.66
712.638	5583.79
712.833	5520.3
713.028	5690.28
713.223	5632.94
713.417	5903.27
713.612	5614.51
713.807	5929.89
714.002	6329.25
714.196	5743.53
714.391	5528.49
714.586	5929.89
714.78	5655.47
714.975	5632.94
715.17	5669.8
715.364	5737.38
715.559	5952.42
715.754	5323.69
715.948	5473.2
716.143	6304.67
716.337	5870.5
716.532	5858.21
716.726	5544.88
716.921	5956.52
717.115	6384.54
717.31	5524.4
717.504	6093.73
717.699	5733.29
717.893	6089.64
718.088	5442.48
718.282	5448.62
718.476	5761.96
718.671	5778.34
718.865	5557.16
719.059	5524.4
719.254	5788.58
719.448	6124.45
719.642	6790.04
719.837	5389.23
720.031	5886.89
720.225	5970.85
720.419	5618.6
720.614	5430.19
720.808	5901.22
721.002	5788.58
721.196	5551.02
721.39	5505.96
721.585	5921.7
721.779	5790.63
721.973	5524.4
722.167	5301.17
722.361	5780.39
722.555	5819.3
722.749	5530.54
722.943	5624.75
723.137	5395.37
723.331	5780.39
723.525	5530.54
723.719	5512.11
723.913	5796.78
724.107	5858.21
724.301	5319.6
724.495	5403.57
724.689	6212.51
724.883	6028.2
725.077	5344.17
725.271	5477.29
725.465	6020
725.659	5647.27
725.853	5403.57
726.046	5323.69
726.24	5473.2
726.434	6020
726.628	5522.35
726.822	5688.23
727.015	6015.91
727.209	6013.86
727.403	5602.22
727.596	5399.47
727.79	5733.29
727.984	6024.1
728.177	5567.4
728.371	5528.49
728.565	5874.6
728.758	5407.66
728.952	5450.67
729.146	5606.31
729.339	6028.2
729.533	5598.12
729.726	5430.19
729.92	5419.95
730.113	5977
730.307	5847.97
730.5	5690.28
730.694	5426.09
730.887	5602.22
731.081	5860.26
731.274	5440.43
731.468	5573.55
731.661	5831.59
731.854	5659.56
732.048	5686.19
732.241	5594.03
732.435	5579.69
732.628	5757.86
732.821	5624.75
733.014	5434.29
733.208	5626.79
733.401	5833.64
733.594	5520.3
733.788	5465
733.981	6183.84
734.174	5743.53
734.367	5456.81
734.56	5698.47
734.754	5831.59
734.947	5639.08
735.14	5491.63
735.333	5575.59
735.526	5823.4
735.719	5626.79
735.912	5411.76
736.105	5518.25
736.298	5718.95
736.491	5573.55
736.684	5526.44
736.877	5288.88
737.07	5751.72
737.263	5946.28
737.456	5481.39
737.649	5391.28
737.842	5391.28
738.035	5675.95
738.228	5471.15
738.421	5737.38
738.614	6046.63
738.807	5874.6
739	5272.5
739.192	5340.08
739.385	5880.74
739.578	5895.08
739.771	5524.4
739.964	5448.62
740.156	5688.23
740.349	5612.46
740.542	5667.75
740.735	5348.27
740.927	5501.87
741.12	5641.13
741.313	5387.18
741.505	5831.59
741.698	5729.19
741.891	5731.24
742.083	5438.38
742.276	5469.1
742.468	5661.61
742.661	5614.51
742.854	5546.92
743.046	5503.92
743.239	6198.18
743.431	5626.79
743.624	5368.75
743.816	5284.78
744.009	5659.56
744.201	5714.86
744.393	5710.76
744.586	5325.74
744.778	6101.92
744.971	5837.73
745.163	5499.82
745.355	5675.95
745.548	5579.69
745.74	5565.36
745.932	5432.24
746.125	5596.07
746.317	6144.93
746.509	5481.39
746.702	5577.64
746.894	5417.9
747.086	5630.89
747.278	5778.34
747.471	5577.64
747.663	5555.12
747.855	5563.31
748.047	5987.24
748.239	5323.69
748.431	5534.64
748.623	5909.41
748.815	5913.51
749.008	5292.98
749.2	5378.99
749.392	5800.87
749.584	5876.65
749.776	5559.21
749.968	5669.8
750.16	6095.78
750.352	5376.94
750.544	5505.96
750.736	5374.89
750.928	5919.65
751.12	5686.19
751.311	5469.1
751.503	5579.69
751.695	5755.82
751.887	5659.56
752.079	5391.28
752.271	5481.39
752.463	6480.8
752.654	5782.44
752.846	5432.24
753.038	5254.06
753.23	5544.88
753.421	5798.82
753.613	5356.46
753.805	5573.55
753.997	5946.28
754.188	5774.25
754.38	5430.19
754.572	5315.5
754.763	5634.99
754.955	5657.51
755.146	5428.14
755.338	5438.38
755.53	5737.38
755.721	5452.72
755.913	5176.24
756.104	5260.21
756.296	5524.4
756.487	5751.72
756.679	5303.22
756.87	5249.97
757.062	5284.78
757.253	5710.76
757.445	5307.31
757.636	5503.92
757.827	5555.12
758.019	6083.49
758.21	5131.19
758.401	5315.5
758.593	6122.4
758.784	5782.44
758.975	5133.23
759.167	5237.68
759.358	5610.41
759.549	5759.91
759.74	5243.82
759.932	5376.94
760.123	5921.7
760.314	5411.76
760.505	5305.26
760.696	5274.54
760.888	6069.16
761.079	5481.39
761.27	5249.97
761.461	5245.87
761.652	5874.6
761.843	5391.28
762.034	5426.09
762.225	5579.69
762.416	5286.83
762.607	5276.59
762.798	5206.96
762.989	5209.01
763.18	6163.36
763.371	5141.43
763.562	5116.85
763.753	5309.36
763.944	5604.27
764.135	5591.98
764.326	5505.96
764.517	5172.15
764.708	5419.95
764.899	5520.3
765.089	5190.58
765.28	4971.44
765.471	5344.17
765.662	5422
765.853	5065.65
766.043	4907.96
766.234	5577.64
766.425	5571.5
766.615	5180.34
766.806	4871.09
766.997	5598.12
767.187	5333.93
767.378	5151.67
767.569	5032.88
767.759	5399.47
767.95	5245.87
768.141	5215.15
768.331	4959.16
768.522	5270.45
768.712	5272.5
768.903	5018.55
769.093	4932.53
769.284	5645.23
769.474	5243.82
769.665	4969.4
769.855	4791.22
770.046	5522.35
770.236	5215.15
770.426	5151.67
770.617	4993.97
770.807	5419.95
770.998	5233.58
771.188	5161.91
771.378	4963.25
771.569	5460.91
771.759	5378.99
771.949	4813.75
772.139	4932.53
772.33	5233.58
772.52	5755.82
772.71	4879.29
772.9	4852.66
773.09	5649.32
773.281	5385.13
773.471	4854.71
773.661	5022.64
773.851	5446.57
774.041	4938.68
774.231	4727.74
774.421	4996.02
774.611	5573.55
774.802	5129.14
774.992	5041.08
775.182	4819.89
775.372	5118.9
775.562	5325.74
775.752	4998.07
775.942	4901.81
776.131	5491.63
776.321	5163.95
776.511	5051.31
776.701	4805.56
776.891	5350.32
777.081	4895.67
777.271	4867
777.461	4860.85
777.651	5241.78
777.84	5465
778.03	4991.92
778.22	4983.73
778.41	5434.29
778.599	4762.55
778.789	4823.99
778.979	4774.84
779.169	5108.66
779.358	5061.55
779.548	5034.93
779.738	4699.06
779.927	5043.12
780.117	4889.53
780.307	4791.22
780.496	4580.28
780.686	5039.03
780.875	5473.2
781.065	4797.37
781.254	4727.74
781.444	4983.73
781.633	4926.39
781.823	4713.4
782.012	4656.06
782.202	4889.53
782.391	4901.81
782.581	4633.53
782.77	4938.68
782.96	5043.12
783.149	4905.91
783.338	4719.54
783.528	4486.08
783.717	5192.62
783.906	5155.76
784.096	4760.5
784.285	4647.87
784.474	4754.36
784.663	4823.99
784.853	4742.07
785.042	4815.8
785.231	4834.23
785.42	5114.8
785.61	4815.8
785.799	4498.36
785.988	4832.18
786.177	4799.41
786.366	4703.16
786.555	4920.24
786.744	5077.94
786.933	4961.2
787.122	4596.67
787.312	4567.99
787.501	4535.23
787.69	4916.15
787.879	4598.71
788.068	4629.43
788.257	4539.32
788.445	4617.15
788.634	4615.1
788.823	4438.97
789.012	5446.57
789.201	5073.84
789.39	4756.41
789.579	4596.67
789.768	4645.82
789.957	4830.13
790.145	4688.82
790.334	4309.95
790.523	4508.6
790.712	4758.46
790.9	4758.46
791.089	4582.33
791.278	4963.25
791.467	4838.33
791.655	4860.85
791.844	4971.44
792.033	4449.21
792.221	4709.3
792.41	4549.56
792.599	4209.6
792.787	4885.43
792.976	4826.04
793.164	4518.84
793.353	4533.18
793.541	4783.03
793.73	4953.01
793.918	4549.56
794.107	4611
794.295	4830.13
794.484	4842.42
794.672	4363.2
794.861	4398.01
795.049	4819.89
795.238	5168.05
795.426	4504.51
795.614	4592.57
795.803	4907.96
795.991	5002.16
796.179	4537.27
796.368	4557.75
796.556	4950.96
796.744	4406.2
796.932	4365.25
797.121	4359.1
797.309	4588.47
797.497	4967.35
797.685	4524.99
797.874	4352.96
798.062	4676.54
798.25	4907.96
798.438	4375.49
798.626	4467.64
798.814	4731.83
799.002	5233.58
799.19	4774.84
799.378	4699.06
799.566	5018.55
799.755	4940.72
799.943	4586.43
800.131	4457.4
800.318	4662.2
800.506	4891.57
800.694	4529.08
800.882	4406.2
801.07	5114.8
801.258	4719.54
801.446	4565.95
801.634	4469.69
801.822	4494.27
802.01	4688.82
802.197	4320.19
802.385	4369.34
802.573	4754.36
802.761	4441.02
802.949	4527.03
803.136	4527.03
803.324	5045.17
803.512	4697.02
803.699	4551.61
803.887	4301.76
804.075	4938.68
804.262	4694.97
804.45	4500.41
804.638	4656.06
804.825	4473.79
805.013	4529.08
805.201	4453.31
805.388	4449.21
805.576	4641.72
805.763	5143.47
805.951	4608.95
806.138	4725.69
806.326	5200.82
806.513	5082.03
806.701	4604.86
806.888	4447.16
807.075	5049.27
807.263	5209.01
807.45	4320.19
807.638	4823.99
807.825	5252.02
808.012	5082.03
808.2	4727.74
808.387	4762.55
808.574	4955.06
808.761	5106.61
808.949	4617.15
809.136	4662.2
809.323	4756.41
809.51	4733.88
809.698	4953.01
809.885	4858.81
810.072	4907.96
810.259	5049.27
810.446	4688.82
810.633	4578.23
810.82	5155.76
811.008	5276.59
811.195	4817.85
811.382	4674.49
811.569	4795.32
811.756	4631.48
811.943	4701.11
812.13	4520.89
812.317	4815.8
812.504	4805.56
812.691	4623.29
812.878	4721.59
813.064	5211.06
813.251	4836.28
813.438	4549.56
813.625	4797.37
813.812	4930.48
813.999	4731.83
814.186	4635.58
814.372	4678.58
814.559	4932.53
814.746	5006.26
814.933	4770.74
815.12	4797.37
815.306	4670.39
815.493	4725.69
815.68	4719.54
815.866	4735.93
816.053	5063.6
816.24	5401.52
816.426	4604.86
816.613	4594.62
816.799	5022.64
816.986	5118.9
817.173	4553.66
817.359	4744.12
817.546	5061.55
817.732	4555.71
817.919	4408.25
818.105	4893.62
818.292	4926.39
818.478	5100.47
818.665	4811.7
818.851	4649.91
819.037	5465
819.224	4805.56
819.41	4557.75
819.597	4647.87
819.783	5176.24
819.969	4910.01
820.156	4737.98
820.342	4457.4
820.528	5704.62
820.714	4744.12
820.901	4979.64
821.087	4686.78
821.273	5327.79
821.459	4930.48
821.646	4613.05
821.832	4524.99
822.018	4889.53
822.204	4823.99
822.39	4578.23
822.576	4492.22
822.762	4893.62
822.948	4912.05
823.134	4699.06
823.32	4502.46
823.507	4559.8
823.693	4748.22
823.879	4893.62
824.065	4619.19
824.25	4844.47
824.436	4709.3
824.622	4676.54
824.808	4447.16
824.994	4709.3
825.18	4602.81
825.366	4647.87
825.552	4412.35
825.738	4707.26
825.923	5055.41
826.109	4793.27
826.295	4633.53
826.481	4576.19
826.667	4725.69
826.852	4815.8
827.038	4488.12
827.224	4936.63
827.409	5077.94
827.595	4465.6
827.781	4842.42
827.966	4819.89
828.152	4901.81
828.338	4615.1
828.523	4363.2
828.709	4508.6
828.894	4869.05
829.08	4447.16
829.266	4432.83
829.451	4328.38
829.637	4705.21
829.822	4598.71
830.008	4363.2
830.193	4862.9
830.378	5112.75
830.564	4416.44
830.749	4369.34
830.935	4660.15
831.12	4797.37
831.305	4357.05
831.491	4510.65
831.676	4305.85
831.861	4807.61
832.047	4496.32
832.232	4207.55
832.417	4844.47
832.602	4608.95
832.788	4273.09
832.973	4266.94
833.158	4604.86
833.343	4649.91
833.528	4406.2
833.714	4486.08
833.899	4854.71
834.084	5034.93
834.269	4586.43
834.454	4342.72
834.639	4572.09
834.824	4541.37
835.009	4520.89
835.194	4428.73
835.379	4809.65
835.564	4881.33
835.749	4547.51
835.934	4320.19
836.119	4742.07
836.304	4527.03
836.489	4299.71
836.674	4590.52
836.859	4416.44
837.044	4838.33
837.228	4463.55
837.413	4248.51
837.598	4576.19
837.783	4744.12
837.968	4305.85
838.152	4035.52
838.337	4068.29
838.522	4959.16
838.707	4727.74
838.891	4438.97
839.076	4338.62
839.261	4707.26
839.445	4137.92
839.63	4297.66
839.815	4713.4
839.999	4553.66
840.184	4101.06
840.368	4197.31
840.553	4608.95
840.737	4602.81
840.922	4197.31
841.106	4168.64
841.291	4291.52
841.475	4455.36
841.66	4010.95
841.844	4123.59
842.029	5127.09
842.213	4324.29
842.397	4115.39
842.582	4154.3
842.766	4838.33
842.951	4668.34
843.135	4201.41
843.319	4365.25
843.504	4281.28
843.688	4567.99
843.872	4056
844.056	4004.8
844.241	4522.94
844.425	4299.71
844.609	4387.77
844.793	3861.45
844.977	4557.75
845.161	4430.78
845.346	3992.52
845.53	4127.68
845.714	4248.51
845.898	4520.89
846.082	3922.88
846.266	4058.05
846.45	4268.99
846.634	4324.29
846.818	4101.06
847.002	4123.59
847.186	4498.36
847.37	3926.98
847.554	3943.36
847.738	4199.36
847.922	4246.46
848.106	4385.73
848.29	3840.97
848.473	3892.16
848.657	4393.92
848.841	4037.57
849.025	4078.53
849.209	3840.97
849.392	4576.19
849.576	4164.54
849.76	3810.25
849.944	4139.97
850.127	4527.03
850.311	3941.32
850.495	3789.77
850.678	3869.64
850.862	4494.27
851.046	4447.16
851.229	4172.74
851.413	3951.56
851.596	4375.49
851.78	4195.26
851.964	4152.26
852.147	4148.16
852.331	5051.31
852.514	4408.25
852.698	4037.57
852.881	3859.4
853.065	4363.2
853.248	4047.81
853.431	4094.91
853.615	4070.34
853.798	4586.43
853.982	4271.04
854.165	4152.26
854.348	3812.29
854.532	3810.25
854.715	3992.52
854.898	3865.54
855.081	3881.92
855.265	4457.4
855.448	4567.99
855.631	3826.63
855.814	3863.49
855.997	4430.78
856.181	4045.76
856.364	3828.68
856.547	3742.66
856.73	4142.02
856.913	4045.76
857.096	3599.31
857.279	3875.78
857.462	3853.25
857.645	4432.83
857.828	4023.23
858.011	3865.54
858.194	3967.94
858.377	4189.12
858.56	3652.55
858.743	3836.87
858.926	3861.45
859.109	4344.77
859.292	3693.51
859.475	3591.11
859.658	4340.67
859.841	4230.08
860.023	3767.24
860.206	3472.33
860.389	4092.87
860.572	4361.15
860.755	3765.19
860.937	3726.28
861.12	3939.27
861.303	4062.15
861.486	3849.16
861.668	3623.88
861.851	4043.71
862.034	4000.71
862.216	3814.34
862.399	3458
862.581	4056
862.764	4158.4
862.947	3656.65
863.129	3621.83
863.312	3652.55
863.494	4185.02
863.677	3949.51
863.859	3361.74
864.042	4094.91
864.224	4185.02
864.406	3793.86
864.589	3455.95
864.771	3853.25
864.954	3769.29
865.136	3523.53
865.318	3361.74
865.501	3947.46
865.683	3396.56
865.865	3455.95
866.048	3476.43
866.23	3752.9
866.412	3888.07
866.594	3541.96
866.777	3681.22
866.959	3945.41
867.141	3656.65
867.323	3875.78
867.505	3701.7
867.687	3892.16
867.869	3828.68
868.052	3507.15
868.234	3478.47
868.416	3806.15
868.598	3877.83
868.78	3531.72
868.962	3503.05
869.144	4008.9
869.326	3922.88
869.508	3468.24
869.69	3380.17
869.872	3566.54
870.054	4006.85
870.236	3320.78
870.417	3593.16
870.599	3476.43
870.781	3974.08
870.963	3711.94
871.145	3437.52
871.327	3515.34
871.508	3812.29
871.69	3535.82
871.872	3550.15
872.054	3668.94
872.235	3867.59
872.417	3578.83
872.599	3281.87
872.78	3974.08
872.962	3656.65
873.144	3281.87
873.325	3369.93
873.507	3969.99
873.689	3644.36
873.87	3412.94
874.052	3613.64
874.233	3597.26
874.415	3800.01
874.596	3435.47
874.778	3408.84
874.959	3654.6
875.141	3914.69
875.322	3617.74
875.503	3398.6
875.685	3763.14
875.866	3257.29
876.048	3335.12
876.229	3439.56
876.41	3759.05
876.592	3732.42
876.773	3498.95
876.954	3468.24
877.136	4047.81
877.317	3668.94
877.498	3455.95
877.679	3517.39
877.86	3924.93
878.042	3773.38
878.223	3363.79
878.404	3937.22
878.585	4037.57
878.766	4182.98
878.947	3816.39
879.128	3650.5
879.309	3974.08
879.49	3988.42
879.672	3677.13
879.853	3613.64
880.034	3785.67
880.215	3634.12
880.396	3681.22
880.576	3531.72
880.757	3572.68
880.938	4156.35
881.119	3646.41
881.3	3595.21
881.481	3552.2
881.662	4467.64
881.843	3470.28
882.023	3404.75
882.204	3943.36
882.385	3771.33
882.566	3603.4
882.747	3546.06
882.927	3679.18
883.108	3906.5
883.289	3558.35
883.469	3662.79
883.65	3777.48
883.831	3943.36
884.011	3787.72
884.192	3621.83
884.373	4127.68
884.553	3908.55
884.734	3879.88
884.914	3945.41
885.095	4565.95
885.275	4291.52
885.456	3888.07
885.636	3458
885.817	3795.91
885.997	3953.6
886.178	3681.22
886.358	3681.22
886.538	3877.83
886.719	4856.76
886.899	3697.61
887.08	3804.1
887.26	4142.02
887.44	3783.62
887.621	3662.79
887.801	3816.39
887.981	4703.16
888.161	4088.77
888.342	3726.28
888.522	3773.38
888.702	4281.28
888.882	4344.77
889.062	3951.56
889.242	3707.85
889.423	4287.42
889.603	4187.07
889.783	3896.26
889.963	3826.63
890.143	4164.54
890.323	4291.52
890.503	3754.95
890.683	3834.82
890.863	3955.65
891.043	3941.32
891.223	4010.95
891.403	3931.08
891.583	3847.11
891.763	3922.88
891.943	3718.09
892.122	3937.22
892.302	4043.71
892.482	4164.54
892.662	3914.69
892.842	3951.56
893.022	4066.24
893.201	3873.73
893.381	4078.53
893.561	3734.47
893.741	4047.81
893.92	4264.89
894.1	3892.16
894.28	3982.28
894.459	4088.77
894.639	4119.49
894.819	3824.58
894.998	3982.28
895.178	4058.05
895.357	4307.9
895.537	3746.76
895.716	3609.54
895.896	4033.47
896.075	4494.27
896.255	3738.57
896.434	3687.37
896.614	4305.85
896.793	4242.37
896.973	3900.36
897.152	3967.94
897.331	4101.06
897.511	4266.94
897.69	3724.23
897.87	3836.87
898.049	4152.26
898.228	4068.29
898.407	4043.71
898.587	4232.13
898.766	3804.1
898.945	4133.82
899.124	4178.88
899.304	3867.59
899.483	4037.57
899.662	4490.17
899.841	3697.61
900.02	3736.52
900.199	4285.37
900.378	4166.59
900.557	3587.02
900.737	3734.47
900.916	3996.61
901.095	4113.35
901.274	3988.42
901.453	3613.64
901.632	3781.57
901.811	3726.28
901.989	3582.92
902.168	3642.31
902.347	4109.25
902.526	3843.01
902.705	3539.91
902.884	3748.81
903.063	4434.88
903.242	4254.66
903.42	3476.43
903.599	3689.42
903.778	4119.49
903.957	4217.79
904.135	3767.24
904.314	3693.51
904.493	3918.79
904.672	3945.41
904.85	3711.94
905.029	3556.3
905.207	3961.8
905.386	4742.07
905.565	3582.92
905.743	3611.59
905.922	3761.09
906.1	4051.91
906.279	3607.5
906.457	3566.54
906.636	3949.51
906.814	3804.1
906.993	3498.95
907.171	3615.69
907.35	4039.62
907.528	4182.98
907.707	3802.05
907.885	3552.2
908.063	4146.11
908.242	3509.19
908.42	3488.71
908.598	3345.36
908.777	3740.61
908.955	3605.45
909.133	3597.26
909.311	3466.19
909.49	3675.08
909.668	3757
909.846	3656.65
910.024	3351.5
910.202	3754.95
910.38	3890.12
910.559	3390.41
910.737	3349.45
910.915	3779.53
911.093	3689.42
911.271	3515.34
911.449	3683.27
911.627	3722.18
911.805	4025.28
911.983	3453.9
912.161	3384.27
912.339	3886.02
912.517	3769.29
912.695	3537.87
912.872	3417.04
913.05	3525.58
913.228	3490.76
913.406	3486.67
913.584	3328.97
913.762	3746.76
913.939	3242.96
914.117	3202
914.295	3288.01
914.473	3638.22
914.65	3754.95
914.828	3400.65
915.006	3357.64
915.184	3318.73
915.361	3677.13
915.539	3417.04
915.716	3492.81
915.894	3562.44
916.072	3593.16
916.249	3443.66
916.427	3480.52
916.604	3388.36
916.782	3447.76
916.959	3195.86
917.137	3265.49
917.314	3550.15
917.492	3539.91
917.669	3460.04
917.847	3197.9
918.024	3531.72
918.201	3179.47
918.379	3308.49
918.556	3433.42
918.733	3703.75
918.911	3343.31
919.088	3460.04
919.265	3136.46
919.442	3355.6
919.62	3144.66
919.797	2960.34
919.974	2933.72
920.151	3435.47
920.328	3306.45
920.506	3015.63
920.683	3171.28
920.86	3134.42
921.037	3068.88
921.214	3142.61
921.391	2816.98
921.568	3408.84
921.745	3064.79
921.922	3091.41
922.099	2898.9
922.276	3406.8
922.453	3249.1
922.63	2960.34
922.807	3232.72
922.984	3232.72
923.161	3040.21
923.338	2819.03
923.514	2737.11
923.691	3068.88
923.868	3097.55
924.045	2921.43
924.222	2837.46
924.399	3171.28
924.575	3316.69
924.752	2778.07
924.929	2991.06
925.105	3187.66
925.282	2833.36
925.459	2876.37
925.635	2806.74
925.812	2952.15
925.989	2837.46
926.165	2939.86
926.342	2526.17
926.518	2903
926.695	2923.48
926.871	2679.77
927.048	2571.22
927.224	3263.44
927.401	2853.84
927.577	2792.41
927.754	2565.08
927.93	3191.76
928.107	2982.87
928.283	2624.47
928.459	2683.86
928.636	2878.42
928.812	2814.93
928.988	2603.99
929.165	2485.21
929.341	2651.1
929.517	2755.54
929.693	2954.19
929.87	2452.44
930.046	2882.52
930.222	2653.14
930.398	2452.44
930.574	2589.66
930.751	2694.1
930.927	2583.51
931.103	2522.07
931.279	2589.66
931.455	2470.87
931.631	2692.05
931.807	2368.48
931.983	2210.78
932.159	2348
932.335	2577.37
932.511	2470.87
932.687	2302.94
932.863	2782.17
933.039	2431.96
933.215	2237.41
933.391	2184.16
933.566	2450.39
933.742	2634.71
933.918	2290.65
934.094	2040.8
934.27	2511.83
934.445	2434.01
934.621	2300.89
934.797	2171.87
934.973	2591.7
935.148	2405.34
935.324	2022.37
935.5	1840.1
935.675	2474.97
935.851	2239.45
936.027	2044.9
936.202	2098.14
936.378	2261.98
936.553	2104.29
936.729	2302.94
936.904	1928.16
937.08	1793
937.255	1919.97
937.431	1760.23
937.606	1668.07
937.782	1825.76
937.957	1975.27
938.133	1780.71
938.308	1573.86
938.483	1897.44
938.659	1670.12
938.834	1743.85
939.009	1532.9
939.185	1774.56
939.36	1526.76
939.535	1190.89
939.71	1680.36
939.886	1786.85
940.061	1749.99
940.236	1725.41
940.411	1547.24
940.586	1690.6
940.761	1797.09
940.937	1420.27
941.112	1178.61
941.287	1596.39
941.462	1606.63
941.637	1115.12
941.812	1268.72
941.987	1541.1
942.162	1518.57
942.337	1350.64
942.512	1256.43
942.687	1692.65
942.862	1637.35
943.037	1080.3
943.212	949.23
943.386	1360.88
943.561	1510.38
943.736	1379.31
943.911	1565.67
944.086	1436.65
944.26	1401.83
944.435	1129.45
944.61	1285.1
944.785	1801.19
944.959	1754.09
945.134	1219.57
945.309	1147.89
945.483	1225.71
945.658	1590.25
945.833	867.31
946.007	1086.45
946.182	1739.75
946.357	1137.65
946.531	1215.47
946.706	1068.02
946.88	986.1
947.055	1379.31
947.229	1125.36
947.404	988.14
947.578	1653.73
947.752	1225.71
947.927	1000.43
948.101	1029.1
948.276	1395.69
948.45	1416.17
948.624	1405.93
948.799	1033.2
948.973	1438.7
949.147	1080.3
949.321	1098.74
949.496	1219.57
949.67	1672.17
949.844	1258.48
950.018	1201.13
950.193	1059.82
950.367	1874.92
950.541	1336.3
950.715	1272.81
950.889	1352.68
951.063	1250.28
951.237	1420.27
951.411	1033.2
951.585	961.52
951.759	1448.94
951.933	1254.38
952.107	1117.17
952.281	1328.11
952.455	1612.78
952.629	1590.25
952.803	1076.21
952.977	1143.79
953.151	1506.28
953.325	1426.41
953.499	1391.59
953.672	1084.4
953.846	1092.59
954.02	1297.39
954.194	1033.2
954.368	1143.79
954.541	1498.09
954.715	1211.37
954.889	1219.57
955.062	1063.92
955.236	1278.96
955.41	1211.37
955.583	1293.29
955.757	994.29
955.93	1260.52
956.104	1004.53
956.278	1025.01
956.451	1209.33
956.625	1330.16
956.798	1876.96
956.972	1367.02
957.145	1082.35
957.319	1418.22
957.492	1199.09
957.665	1264.62
957.839	1076.21
958.012	1360.88
958.185	1274.86
958.359	1115.12
958.532	1252.33
958.705	1483.75
958.879	1295.34
959.052	1174.51
959.225	945.14
959.398	1352.68
959.572	1424.36
959.745	1098.74
959.918	1092.59
960.091	1260.52
960.264	1330.16
960.438	922.61
960.611	1018.86
960.784	1418.22
960.957	1086.45
961.13	1395.69
961.303	1006.58
961.476	1244.14
961.649	1446.89
961.822	926.71
961.995	1104.88
962.168	1393.64
962.341	1221.61
962.514	1022.96
962.686	947.19
962.859	1373.16
963.032	1414.12
963.205	1084.4
963.378	984.05
963.551	1229.81
963.723	1313.77
963.896	1242.09
964.069	1149.93
964.242	1227.76
964.414	1403.88
964.587	1088.5
964.76	1074.16
964.932	1248.24
965.105	1164.27
965.278	1057.78
965.45	1029.1
965.623	1199.09
965.795	1387.5
965.968	1045.49
966.14	1070.06
966.313	1233.9
966.485	1272.81
966.658	1004.53
966.83	994.29
967.003	1467.37
967.175	1487.85
967.348	1033.2
967.52	955.38
967.692	1483.75
967.865	1242.09
968.037	1014.77
968.209	1293.29
968.382	1242.09
968.554	1383.4
968.726	1061.87
968.898	945.14
969.071	1291.24
969.243	1201.13
969.415	1104.88
969.587	1004.53
969.759	1729.51
969.932	1432.55
970.104	969.71
970.276	723.96
970.448	1123.31
970.62	1098.74
970.792	1111.02
970.964	1027.06
971.136	1502.19
971.308	1270.76
971.48	877.55
971.652	953.33
971.824	1479.66
971.996	1049.58
972.168	1084.4
972.339	1041.39
972.511	1432.55
972.683	1125.36
972.855	1145.84
973.027	922.61
973.199	1076.21
973.37	1248.24
973.542	1115.12
973.714	1139.69
973.886	1084.4
974.057	1317.87
974.229	771.06
974.401	902.13
974.572	969.71
974.744	709.62
974.915	801.78
975.087	844.79
975.259	1450.99
975.43	953.33
975.602	887.79
975.773	850.93
975.945	1080.3
976.116	1250.28
976.288	814.07
976.459	1119.21
976.63	1158.13
976.802	1121.26
976.973	938.99
977.145	986.1
977.316	1557.48
977.487	1416.17
977.659	988.14
977.83	926.71
978.001	1522.66
978.172	1190.89
978.344	975.86
978.515	912.37
978.686	920.56
978.857	1348.59
979.028	988.14
979.2	883.7
979.371	1303.53
979.542	1043.44
979.713	912.37
979.884	578.55
980.055	842.74
980.226	1039.34
980.397	881.65
980.568	822.26
980.739	1334.25
980.91	1018.86
981.081	1016.82
981.252	787.44
981.423	1231.85
981.594	1346.54
981.765	822.26
981.936	994.29
982.106	1082.35
982.277	1287.15
982.448	865.27
982.619	1014.77
982.79	973.81
982.96	1381.35
983.131	969.71
983.302	644.09
983.472	1016.82
983.643	1012.72
983.814	932.85
983.984	785.4
984.155	1004.53
984.326	1227.76
984.496	996.34
984.667	861.17
984.837	922.61
985.008	1379.31
985.178	1006.58
985.349	891.89
985.519	961.52
985.69	879.6
985.86	779.25
986.031	769.01
986.201	1045.49
986.371	1180.65
986.542	625.65
986.712	592.89
986.882	1096.69
987.053	1072.11
987.223	639.99
987.393	830.45
987.563	873.46
987.734	1137.65
987.904	1051.63
988.074	678.9
988.244	920.56
988.414	844.79
988.585	756.72
988.755	840.69
988.925	840.69
989.095	1252.33
989.265	685.05
989.435	721.91
989.605	1100.78
989.775	1086.45
989.945	1018.86
990.115	674.81
990.285	818.16
990.455	1072.11
990.625	838.64
990.795	639.99
990.965	1278.96
991.134	713.72
991.304	676.85
991.474	736.24
991.644	1049.58
991.814	1244.14
991.984	613.37
992.153	642.04
992.323	781.3
992.493	941.04
992.662	447.48
992.832	836.6
993.002	893.94
993.171	904.18
993.341	568.31
993.511	766.96
993.68	766.96
993.85	1059.82
994.019	541.69
994.189	580.6
994.358	938.99
994.528	752.63
994.697	396.28
994.867	515.06
995.036	1041.39
995.206	793.59
995.375	533.5
995.544	676.85
995.714	830.45
995.883	777.2
996.052	830.45
996.222	465.91
996.391	1270.76
996.56	859.12
996.73	482.3
996.899	521.21
997.068	1176.56
997.237	959.47
997.406	588.79
997.576	465.91
997.745	791.54
997.914	875.51
998.083	443.39
998.252	510.97
998.421	920.56
998.59	693.24
998.759	545.78
998.928	390.14
999.097	1086.45
999.266	873.46
999.435	719.86
999.604	457.72
999.773	1272.81
999.942	873.46
1000.111	414.71
1000.28	347.13
1000.448	584.7
1000.617	502.78
1000.786	627.7
1000.955	433.15
1001.124	795.64
1001.292	1506.28
1001.461	400.38
1001.63	427
1001.798	1176.56
1001.967	967.67
1002.136	437.24
1002.304	383.99
1002.473	852.98
1002.642	932.85
1002.81	521.21
1002.979	467.96
1003.147	926.71
1003.316	1225.71
1003.484	457.72
1003.653	492.54
1003.821	1111.02
1003.99	613.37
1004.158	705.53
1004.327	592.89
1004.495	908.27
1004.663	562.17
1004.832	564.22
1005	394.23
1005.168	879.6
1005.337	783.35
1005.505	287.74
1005.673	580.6
1005.842	799.73
1006.01	826.36
1006.178	416.76
1006.346	424.95
1006.514	754.68
1006.683	998.38
1006.851	343.03
1007.019	363.51
1007.187	496.63
1007.355	330.75
1007.523	281.6
1007.691	410.62
1007.859	320.51
1008.027	1002.48
1008.195	439.29
1008.363	357.37
1008.531	920.56
1008.699	535.54
1008.867	285.69
1009.035	418.81
1009.203	873.46
1009.37	605.17
1009.538	400.38
1009.706	801.78
1009.874	715.77
1010.042	683
1010.209	238.59
1010.377	369.66
1010.545	855.03
1010.713	605.17
1010.88	381.95
1011.048	363.51
1011.216	588.79
1011.383	912.37
1011.551	316.41
1011.718	228.35
1011.886	891.89
1012.054	609.27
1012.221	386.04
1012.389	336.89
1012.556	603.13
1012.724	1084.4
1012.891	431.1
1013.058	205.82
1013.226	728.05
1013.393	793.59
1013.561	250.88
1013.728	109.57
1013.895	834.55
1014.063	740.34
1014.23	199.68
1014.397	254.97
1014.565	801.78
1014.732	484.34
1014.899	332.79
1015.066	283.64
1015.233	646.13
1015.401	805.88
1015.568	326.65
1015.735	285.69
1015.902	625.65
1016.069	678.9
1016.236	371.71
1016.403	236.54
1016.57	457.72
1016.737	691.19
1016.904	273.4
1017.071	148.48
1017.238	476.15
1017.405	777.2
1017.572	240.64
1017.739	437.24
1017.906	699.38
1018.073	732.15
1018.24	187.39
1018.407	390.14
1018.573	824.31
1018.74	574.46
1018.907	340.99
1019.074	164.86
1019.241	797.68
1019.407	613.37
1019.574	240.64
1019.741	50.18
1019.907	572.41
1020.074	633.85
1020.241	97.28
1020.407	211.96
1020.574	633.85
1020.74	699.38
1020.907	244.73
1021.073	130.05
1021.24	1061.87
1021.406	791.54
1021.573	218.11
1021.739	179.2
1021.906	683
1022.072	420.86
1022.239	158.72
1022.405	238.59
1022.571	488.44
1022.738	304.12
1022.904	125.95
1023.07	211.96
1023.237	556.02
1023.403	752.63
1023.569	207.87
1023.735	179.2
1023.902	615.41
1024.068	519.16
1024.234	156.67
1024.4	197.63
1024.566	605.17
1024.732	705.53
1024.898	248.83
1025.065	27.65
1025.231	668.66
1025.397	453.63
1025.563	128
1025.729	31.74
1025.895	15.36
1026.061	318.46
1026.227	15.36
1026.392	242.68
1026.558	728.05
1026.724	496.63
1026.89	103.42
1027.056	244.73
1027.222	560.12
1027.388	281.6
1027.553	138.24
1027.719	115.71
1027.885	814.07
1028.051	611.32
1028.216	1.02
1028.382	211.96
1028.548	623.61
1028.713	365.56
1028.879	50.18
1029.045	252.92
1029.21	824.31
1029.376	693.24
1029.541	158.72
1029.707	125.95
1029.873	635.89
1030.038	519.16
1030.204	232.44
1030.369	220.16
1030.534	637.94
1030.7	377.85
1030.865	144.38
1031.031	11.26
1031.196	535.54
1031.361	527.35
1031.527	68.61
1031.692	27.65
1031.857	138.24
1032.023	590.84
1032.188	-35.84
1032.353	130.05
1032.518	799.73
1032.684	545.78
1032.849	23.55
1033.014	117.76
1033.179	683
1033.344	529.4
1033.509	238.59
1033.674	146.43
1033.839	621.56
1034.004	629.75
1034.17	27.65
1034.335	-9.22
1034.5	386.04
1034.664	220.16
1034.829	58.37
1034.994	84.99
1035.159	470.01
1035.324	472.06
1035.489	82.94
1035.654	64.51
1035.819	728.05
1035.984	498.68
1036.148	154.62
1036.313	154.62
1036.478	594.93
1036.643	377.85
1036.807	91.13
1036.972	48.13
1037.137	664.57
1037.301	443.39
1037.466	-11.26
1037.631	80.89
1037.795	683
1037.96	394.23
1038.124	236.54
1038.289	-21.5
1038.454	582.65
1038.618	560.12
1038.783	113.66
1038.947	134.14
1039.111	431.1
1039.276	328.7
1039.44	7.17
1039.605	513.02
1039.769	281.6
1039.933	285.69
1040.098	132.09
1040.262	308.22
1040.426	642.04
1040.591	590.84
1040.755	41.98
1040.919	146.43
1041.083	445.43
1041.248	408.57
1041.412	-76.8
1041.576	46.08
1041.74	359.42
1041.904	570.36
1042.068	29.7
1042.232	150.53
1042.397	556.02
1042.561	465.91
1042.725	-228.35
1042.889	197.63
1043.053	504.82
1043.217	494.58
1043.381	189.44
1043.544	-117.76
1043.708	594.93
1043.872	103.42
1044.036	-128
1044.2	-11.26
1044.364	531.45
1044.528	719.86
1044.691	2937.81
1044.855	-107.52
1045.019	513.02
1045.183	519.16
1045.346	142.33
1045.51	-89.09
1045.674	488.44
1045.837	572.41
1046.001	-11.26
1046.165	-13.31
1046.328	1025.01
1046.492	543.74
1046.655	146.43
1046.819	109.57
1046.983	201.72
1047.146	543.74
1047.31	175.1
1047.473	-156.67
1047.636	381.95
1047.8	218.11
1047.963	109.57
1048.127	-15.36
1048.29	207.87
