Data from Ink_Intensity_USB4F045381__133__00133.txt Node

Date: Mon Jul 17 11:20:56 EDT 2023
User: mmckonesweet
Spectrometer: USB4F04538
Trigger mode: 4
Integration Time (sec): 9.000000E-1
Scans to average: 1
Electric dark correction enabled: true
Nonlinearity correction enabled: false
Boxcar width: 0
XAxis mode: Wavelengths
Number of Pixels in Spectrum: 3648
>>>>>Begin Spectral Data<<<<<
345.52	-999.24
345.736	-999.24
345.952	-999.24
346.168	-993.09
346.384	-982.85
346.6	-104.28
346.816	-313.17
347.032	-231.25
347.248	317.61
347.464	-239.44
347.68	-114.52
347.896	92.33
348.112	420
348.328	-114.52
348.544	-71.51
348.76	84.14
348.975	274.6
349.191	-235.35
349.407	-167.76
349.623	104.62
349.839	-51.03
350.055	-85.84
350.27	43.18
350.486	172.2
350.702	370.85
350.918	276.65
351.133	-157.52
351.349	241.83
351.565	350.37
351.781	-278.35
351.996	2.22
352.212	268.45
352.428	-120.66
352.644	-135
352.859	-266.07
353.075	303.27
353.291	77.99
353.506	-16.21
353.722	-212.82
353.938	-46.93
354.153	458.92
354.369	67.75
354.584	-202.58
354.8	268.45
355.016	-309.07
355.231	-276.31
355.447	-22.36
355.662	69.8
355.878	839.84
356.093	-327.5
356.309	22.7
356.524	-165.71
356.74	233.64
356.955	-124.76
357.171	20.65
357.386	133.29
357.602	-182.1
357.817	-94.04
358.033	-137.04
358.248	362.66
358.464	145.58
358.679	-96.08
358.895	-333.65
359.11	59.56
359.325	338.09
359.541	82.09
359.756	30.89
359.972	-190.29
360.187	202.92
360.402	-171.86
360.618	-251.73
360.833	975
361.048	116.9
361.264	-167.76
361.479	-75.6
361.694	92.33
361.909	225.45
362.125	-225.11
362.34	-155.47
362.555	215.21
362.77	65.71
362.986	-288.59
363.201	-171.86
363.416	151.72
363.631	39.08
363.847	-231.25
364.062	-178
364.277	194.73
364.492	8.36
364.707	-145.24
364.922	-335.7
365.138	235.69
365.353	336.04
365.568	-272.21
365.783	-59.22
365.998	77.99
366.213	514.21
366.428	-182.1
366.643	32.94
366.858	243.88
367.073	180.39
367.288	-130.9
367.503	-288.59
367.718	96.43
367.933	278.69
368.148	-261.97
368.363	-112.47
368.578	-28.5
368.793	454.82
369.008	-124.76
369.223	-243.54
369.438	254.12
369.653	432.29
369.868	-229.2
370.083	-233.3
370.298	100.52
370.513	456.87
370.728	24.75
370.943	-141.14
371.157	-112.47
371.372	516.26
371.587	-296.78
371.802	-331.6
372.017	80.04
372.232	469.16
372.446	-75.6
372.661	-356.18
372.876	200.87
373.091	186.54
373.306	-89.94
373.52	-255.83
373.735	-96.08
373.95	399.52
374.165	-69.46
374.379	-53.08
374.594	-192.34
374.809	92.33
375.023	-30.55
375.238	-225.11
375.453	260.26
375.667	-235.35
375.882	-165.71
376.097	-223.06
376.311	53.42
376.526	73.9
376.741	-286.54
376.955	125.1
377.17	477.35
377.384	510.11
377.599	-69.46
377.813	-317.26
378.028	522.4
378.242	155.82
378.457	-163.67
378.672	-266.07
378.886	63.66
379.101	-26.45
379.315	-442.19
379.53	-106.32
379.744	237.74
379.958	166.06
380.173	-143.19
380.387	-196.43
380.602	100.52
380.816	-124.76
381.031	-126.8
381.245	-149.33
381.459	235.69
381.674	2779.26
381.888	-223.06
382.103	39.08
382.317	-200.53
382.531	493.73
382.746	-5.97
382.96	-192.34
383.174	-137.04
383.388	432.29
383.603	-34.64
383.817	-356.18
384.031	141.48
384.246	446.63
384.46	20.65
384.674	362.66
384.888	-55.12
385.103	49.32
385.317	-311.12
385.531	-28.5
385.745	360.61
385.959	293.03
386.174	-194.39
386.388	-218.96
386.602	-8.02
386.816	-223.06
387.03	-71.51
387.244	-65.36
387.458	178.34
387.672	356.52
387.887	-339.79
388.101	-317.26
388.315	317.61
388.529	131.24
388.743	-151.38
388.957	-284.5
389.171	272.55
389.385	-198.48
389.599	-167.76
389.813	-14.17
390.027	161.96
390.241	661.66
390.455	-180.05
390.669	-147.28
390.883	-65.36
391.097	303.27
391.311	51.37
391.525	-173.91
391.738	157.86
391.952	121
392.166	-81.75
392.38	-237.39
392.594	241.83
392.808	280.74
393.022	-69.46
393.236	-98.13
393.449	149.67
393.663	182.44
393.877	-300.88
394.091	-128.85
394.305	-32.6
394.518	-114.52
394.732	-313.17
394.946	-112.47
395.16	442.53
395.373	88.23
395.587	-255.83
395.801	-237.39
396.015	309.41
396.228	198.82
396.442	-229.2
396.656	-419.66
396.869	370.85
397.083	401.57
397.297	-141.14
397.51	-171.86
397.724	415.91
397.938	174.25
398.151	-296.78
398.365	-251.73
398.578	178.34
398.792	379.04
399.005	-59.22
399.219	-167.76
399.433	10.41
399.646	157.86
399.86	10.41
400.073	39.08
400.287	243.88
400.5	-77.65
400.714	-18.26
400.927	-65.36
401.141	233.64
401.354	1038.49
401.567	243.88
401.781	-235.35
401.994	262.31
402.208	610.47
402.421	-59.22
402.635	-69.46
402.848	-1.88
403.061	309.41
403.275	-14.17
403.488	-315.22
403.701	485.54
403.915	231.59
404.128	-12.12
404.341	-206.67
404.555	100.52
404.768	10.41
404.981	10.41
405.195	-165.71
405.408	506.02
405.621	295.08
405.834	20.65
406.048	-196.43
406.261	362.66
406.474	454.82
406.687	-229.2
406.9	-24.4
407.114	71.85
407.327	215.21
407.54	-360.27
407.753	-264.02
407.966	-182.1
408.179	186.54
408.392	-227.15
408.605	-370.51
408.819	202.92
409.032	233.64
409.245	-139.09
409.458	30.89
409.671	190.63
409.884	272.55
410.097	-182.1
410.31	-48.98
410.523	207.02
410.736	16.55
410.949	-153.43
411.162	-118.61
411.375	477.35
411.588	284.84
411.801	18.6
412.014	-309.07
412.227	30.89
412.44	-22.36
412.653	-188.24
412.865	-1.88
413.078	301.22
413.291	204.97
413.504	-94.04
413.717	-112.47
413.93	245.93
414.143	-173.91
414.356	-192.34
414.568	-251.73
414.781	276.65
414.994	194.73
415.207	-87.89
415.42	-75.6
415.632	270.5
415.845	538.79
416.058	-341.84
416.271	-296.78
416.483	198.82
416.696	440.48
416.909	-175.95
417.121	-255.83
417.334	145.58
417.547	551.07
417.759	-204.63
417.972	-204.63
418.185	-75.6
418.397	319.65
418.61	-227.15
418.823	-161.62
419.035	489.64
419.248	-32.6
419.46	-106.32
419.673	-106.32
419.885	125.1
420.098	47.27
420.311	-180.05
420.523	-403.28
420.736	358.57
420.948	73.9
421.161	-132.95
421.373	-358.22
421.586	145.58
421.798	-163.67
422.01	-300.88
422.223	-75.6
422.435	-51.03
422.648	207.02
422.86	-190.29
423.073	-218.96
423.285	329.89
423.497	-245.59
423.71	-296.78
423.922	-241.49
424.134	131.24
424.347	422.05
424.559	45.23
424.771	100.52
424.984	-18.26
425.196	49.32
425.408	-397.14
425.621	-253.78
425.833	305.32
426.045	344.23
426.257	-337.74
426.47	-165.71
426.682	121
426.894	114.86
427.106	-153.43
427.318	-167.76
427.531	-46.93
427.743	194.73
427.955	-173.91
428.167	239.78
428.379	252.07
428.591	-14.17
428.804	-69.46
429.016	-210.77
429.228	-104.28
429.44	153.77
429.652	-20.31
429.864	-313.17
430.076	47.27
430.288	14.51
430.5	-98.13
430.712	-28.5
430.924	344.23
431.136	-1.88
431.348	-397.14
431.56	-223.06
431.772	8.36
431.984	-73.56
432.196	-249.68
432.408	-196.43
432.62	-16.21
432.832	139.43
433.044	86.19
433.256	-32.6
433.468	221.35
433.679	-311.12
433.891	-333.65
434.103	37.03
434.315	426.15
434.527	157.86
434.739	-141.14
434.95	-169.81
435.162	192.68
435.374	-118.61
435.586	-208.72
435.798	-106.32
436.009	-155.47
436.221	16.55
436.433	-104.28
436.645	-161.62
436.856	-91.99
437.068	293.03
437.28	-206.67
437.491	137.38
437.703	141.48
437.915	141.48
438.126	-169.81
438.338	53.42
438.55	-16.21
438.761	207.02
438.973	-124.76
439.184	-259.92
439.396	16.55
439.608	190.63
439.819	-329.55
440.031	-75.6
440.242	272.55
440.454	268.45
440.665	-216.91
440.877	-81.75
441.088	133.29
441.3	0.17
441.511	-311.12
441.723	-186.19
441.934	133.29
442.146	8.36
442.357	-16.21
442.569	69.8
442.78	65.71
442.991	473.25
443.203	116.9
443.414	-243.54
443.626	387.24
443.837	-169.81
444.048	-270.16
444.26	-319.31
444.471	53.42
444.682	209.06
444.894	-339.79
445.105	-325.46
445.316	223.4
445.528	219.3
445.739	-85.84
445.95	-169.81
446.161	133.29
446.373	319.65
446.584	-178
446.795	-270.16
447.006	211.11
447.217	381.09
447.429	-335.7
447.64	-280.4
447.851	321.7
448.062	96.43
448.273	-354.13
448.484	-194.39
448.695	155.82
448.907	-36.69
449.118	-77.65
449.329	86.19
449.54	-69.46
449.751	-190.29
449.962	-227.15
450.173	-151.38
450.384	352.42
450.595	409.76
450.806	-200.53
451.017	-141.14
451.228	381.09
451.439	295.08
451.65	-204.63
451.861	-452.43
452.072	-126.8
452.283	61.61
452.494	30.89
452.705	-212.82
452.915	372.9
453.126	67.75
453.337	-135
453.548	-247.63
453.759	385.19
453.97	596.13
454.181	88.23
454.391	-157.52
454.602	121
454.813	178.34
455.024	-51.03
455.235	-178
455.445	133.29
455.656	172.2
455.867	-42.84
456.078	-163.67
456.288	-42.84
456.499	209.06
456.71	-272.21
456.921	55.47
457.131	108.71
457.342	49.32
457.553	-145.24
457.763	-272.21
457.974	164.01
458.184	186.54
458.395	-280.4
458.606	-296.78
458.816	309.41
459.027	508.07
459.237	-87.89
459.448	-378.7
459.659	329.89
459.869	575.65
460.08	-411.47
460.29	-165.71
460.501	448.68
460.711	-18.26
460.922	-354.13
461.132	-239.44
461.343	678.05
461.553	-261.97
461.764	-294.74
461.974	-239.44
462.184	245.93
462.395	98.47
462.605	-112.47
462.816	-309.07
463.026	67.75
463.236	288.93
463.447	-329.55
463.657	-188.24
463.867	153.77
464.078	16.55
464.288	-128.85
464.498	-300.88
464.709	2.22
464.919	-18.26
465.129	-106.32
465.339	-231.25
465.55	141.48
465.76	237.74
465.97	-169.81
466.18	-218.96
466.391	258.21
466.601	108.71
466.811	-145.24
467.021	-253.78
467.231	84.14
467.441	333.99
467.651	-182.1
467.862	-481.1
468.072	10.41
468.282	338.09
468.492	-239.44
468.702	-98.13
468.912	8.36
469.122	536.74
469.332	88.23
469.542	-296.78
469.752	209.06
469.962	149.67
470.172	-327.5
470.382	-315.22
470.592	243.88
470.802	362.66
471.012	-42.84
471.222	-290.64
471.432	245.93
471.642	204.97
471.852	-108.37
472.062	-300.88
472.272	-61.27
472.482	-241.49
472.691	-221.01
472.901	-272.21
473.111	84.14
473.321	614.56
473.531	-270.16
473.741	-218.96
473.95	149.67
474.16	252.07
474.37	-173.91
474.58	-276.31
474.79	454.82
474.999	366.76
475.209	-210.77
475.419	-180.05
475.628	-20.31
475.838	352.42
476.048	-83.8
476.258	-278.35
476.467	344.23
476.677	-69.46
476.886	-12.12
477.096	-147.28
477.306	-77.65
477.515	395.43
477.725	-157.52
477.935	-186.19
478.144	379.04
478.354	-85.84
478.563	-223.06
478.773	-278.35
478.982	252.07
479.192	317.61
479.401	-118.61
479.611	-296.78
479.82	-126.8
480.03	121
480.239	-268.11
480.449	-317.26
480.658	448.68
480.868	-96.08
481.077	-87.89
481.287	-249.68
481.496	88.23
481.705	452.77
481.915	77.99
482.124	16.55
482.333	131.24
482.543	489.64
482.752	-61.27
482.961	-239.44
483.171	270.5
483.38	98.47
483.589	-75.6
483.799	-202.58
484.008	8.36
484.217	186.54
484.426	-59.22
484.636	-317.26
484.845	108.71
485.054	-171.86
485.263	80.04
485.472	-192.34
485.682	563.36
485.891	235.69
486.1	-360.27
486.309	-233.3
486.518	282.79
486.727	407.72
486.936	-298.83
487.146	-44.88
487.355	379.04
487.564	-120.66
487.773	-132.95
487.982	-190.29
488.191	-18.26
488.4	96.43
488.609	-241.49
488.818	-190.29
489.027	587.94
489.236	411.81
489.445	-53.08
489.654	-190.29
489.863	420
490.072	293.03
490.281	223.4
490.49	-173.91
490.698	424.1
490.907	534.69
491.116	-178
491.325	-376.66
491.534	307.37
491.743	178.34
491.952	-81.75
492.16	-77.65
492.369	217.26
492.578	278.69
492.787	49.32
492.996	-327.5
493.204	-28.5
493.413	571.55
493.622	-388.94
493.831	-311.12
494.039	415.91
494.248	-145.24
494.457	-255.83
494.665	-362.32
494.874	268.45
495.083	647.33
495.291	-139.09
495.5	-139.09
495.709	295.08
495.917	184.49
496.126	-57.17
496.335	-180.05
496.543	28.84
496.752	194.73
496.96	123.05
497.169	-313.17
497.377	59.56
497.586	471.2
497.794	-28.5
498.003	-354.13
498.211	8.36
498.42	495.78
498.628	-94.04
498.837	-247.63
499.045	268.45
499.254	184.49
499.462	-137.04
499.671	-218.96
499.879	706.72
500.087	374.95
500.296	-161.62
500.504	-69.46
500.713	145.58
500.921	700.58
501.129	-65.36
501.338	-145.24
501.546	260.26
501.754	186.54
501.962	-108.37
502.171	-208.72
502.379	325.8
502.587	569.51
502.795	-81.75
503.004	-96.08
503.212	170.15
503.42	471.2
503.628	-83.8
503.837	0.17
504.045	317.61
504.253	530.59
504.461	-192.34
504.669	-264.02
504.877	301.22
505.085	506.02
505.294	-307.02
505.502	102.57
505.71	254.12
505.918	374.95
506.126	-184.15
506.334	-94.04
506.542	192.68
506.75	264.36
506.958	-14.17
507.166	-42.84
507.374	63.66
507.582	698.53
507.79	4.27
507.998	-186.19
508.206	268.45
508.414	239.78
508.622	-159.57
508.83	-116.56
509.037	624.8
509.245	110.76
509.453	-173.91
509.661	-237.39
509.869	305.32
510.077	59.56
510.285	18.6
510.492	-317.26
510.7	780.45
510.908	63.66
511.116	-61.27
511.324	-223.06
511.531	172.2
511.739	288.93
511.947	75.95
512.155	235.69
512.362	172.2
512.57	-98.13
512.778	-110.42
512.985	-274.26
513.193	495.78
513.401	569.51
513.608	-38.74
513.816	-55.12
514.024	372.9
514.231	489.64
514.439	-108.37
514.646	-44.88
514.854	463.01
515.061	587.94
515.269	-108.37
515.477	-40.79
515.684	-32.6
515.892	428.2
516.099	-243.54
516.307	-212.82
516.514	348.33
516.722	536.74
516.929	-53.08
517.136	-178
517.344	587.94
517.551	399.52
517.759	-116.56
517.966	-34.64
518.173	51.37
518.381	243.88
518.588	-48.98
518.796	-96.08
519.003	364.71
519.21	223.4
519.418	-22.36
519.625	225.45
519.832	223.4
520.039	329.89
520.247	-225.11
520.454	-91.99
520.661	458.92
520.868	303.27
521.076	-59.22
521.283	22.7
521.49	753.82
521.697	317.61
521.904	-55.12
522.112	59.56
522.319	526.5
522.526	450.72
522.733	-63.32
522.94	-53.08
523.147	262.31
523.354	508.07
523.561	-233.3
523.768	100.52
523.975	469.16
524.183	278.69
524.39	92.33
524.597	-106.32
524.804	284.84
525.011	0.17
525.218	-12.12
525.425	-46.93
525.632	669.86
525.838	-22.36
526.045	-48.98
526.252	-79.7
526.459	1339.54
526.666	1126.55
526.873	-98.13
527.08	-112.47
527.287	653.47
527.494	374.95
527.701	-137.04
527.907	-130.9
528.114	477.35
528.321	274.6
528.528	75.95
528.735	-5.97
528.941	252.07
529.148	215.21
529.355	108.71
529.562	-55.12
529.768	792.73
529.975	243.88
530.182	57.51
530.388	-87.89
530.595	573.6
530.802	49.32
531.008	180.39
531.215	88.23
531.422	766.11
531.628	1056.92
531.835	67.75
532.042	112.81
532.248	172.2
532.455	319.65
532.661	53.42
532.868	-63.32
533.074	276.65
533.281	499.88
533.487	149.67
533.694	20.65
533.9	145.58
534.107	524.45
534.313	49.32
534.52	-57.17
534.726	553.12
534.933	796.83
535.139	-57.17
535.345	-18.26
535.552	420
535.758	438.44
535.965	75.95
536.171	98.47
536.377	571.55
536.584	741.54
536.79	51.37
536.996	137.38
537.203	387.24
537.409	485.54
537.615	114.86
537.821	204.97
538.028	612.51
538.234	514.21
538.44	55.47
538.646	182.44
538.853	407.72
539.059	387.24
539.265	473.25
539.471	-102.23
539.677	594.08
539.883	278.69
540.09	63.66
540.296	514.21
540.502	389.28
540.708	188.58
540.914	270.5
541.12	80.04
541.326	483.49
541.532	403.62
541.738	207.02
541.944	145.58
542.15	587.94
542.356	342.18
542.562	49.32
542.768	215.21
542.974	972.96
543.18	891.04
543.386	102.57
543.592	-120.66
543.798	620.71
544.004	723.1
544.21	65.71
544.415	278.69
544.621	442.53
544.827	653.47
545.033	49.32
545.239	424.1
545.445	207.02
545.651	579.75
545.856	161.96
546.062	110.76
546.268	358.57
546.474	434.34
546.679	196.78
546.885	172.2
547.091	280.74
547.297	915.61
547.502	260.26
547.708	-3.93
547.914	297.13
548.119	626.85
548.325	24.75
548.531	2.22
548.736	854.17
548.942	325.8
549.147	145.58
549.353	436.39
549.559	702.62
549.764	667.81
549.97	178.34
550.175	170.15
550.381	647.33
550.586	374.95
550.792	290.98
550.997	209.06
551.203	667.81
551.408	606.37
551.614	82.09
551.819	176.3
552.025	942.24
552.23	1046.68
552.435	129.19
552.641	354.47
552.846	286.89
553.052	776.35
553.257	295.08
553.462	196.78
553.668	342.18
553.873	741.54
554.078	161.96
554.283	196.78
554.489	542.88
554.694	497.83
554.899	192.68
555.105	477.35
555.31	706.72
555.515	827.55
555.72	393.38
555.925	172.2
556.131	678.05
556.336	450.72
556.541	254.12
556.746	161.96
556.951	932
557.156	932
557.361	374.95
557.567	407.72
557.772	1065.11
557.977	745.63
558.182	221.35
558.387	276.65
558.592	532.64
558.797	831.65
559.002	372.9
559.207	440.48
559.412	594.08
559.617	1005.72
559.822	342.18
560.027	184.49
560.232	727.2
560.437	852.13
560.642	161.96
560.847	280.74
561.051	706.72
561.256	716.96
561.461	325.8
561.666	254.12
561.871	651.42
562.076	882.85
562.281	309.41
562.485	215.21
562.69	764.06
562.895	886.94
563.1	391.33
563.305	243.88
563.509	981.15
563.714	1112.22
563.919	219.3
564.123	247.97
564.328	561.31
564.533	1038.49
564.737	465.06
564.942	420
565.147	1095.83
565.351	1214.62
565.556	506.02
565.761	465.06
565.965	802.97
566.17	485.54
566.374	491.68
566.579	297.13
566.784	778.4
566.988	596.13
567.193	258.21
567.397	395.43
567.602	528.55
567.806	749.73
568.011	383.14
568.215	493.73
568.42	729.25
568.624	753.82
568.828	393.38
569.033	598.18
569.237	874.65
569.442	858.27
569.646	319.65
569.85	389.28
570.055	678.05
570.259	884.89
570.463	632.99
570.668	434.34
570.872	665.76
571.076	723.1
571.281	620.71
571.485	592.03
571.689	538.79
571.893	1018.01
572.098	653.47
572.302	522.4
572.506	833.69
572.71	739.49
572.914	493.73
573.119	501.92
573.323	1108.12
573.527	1128.6
573.731	546.98
573.935	362.66
574.139	843.93
574.343	585.89
574.547	508.07
574.751	657.57
574.955	1228.95
575.159	968.86
575.364	526.5
575.568	315.56
575.772	723.1
575.976	1153.18
576.18	567.46
576.383	383.14
576.587	1087.64
576.791	966.81
576.995	342.18
577.199	342.18
577.403	1097.88
577.607	1165.46
577.811	426.15
578.015	647.33
578.219	919.71
578.422	1071.26
578.626	555.17
578.83	702.62
579.034	1185.94
579.238	948.38
579.442	551.07
579.645	874.65
579.849	884.89
580.053	948.38
580.257	628.9
580.46	604.32
580.664	1157.27
580.868	1030.3
581.071	866.46
581.275	782.49
581.479	657.57
581.682	1067.16
581.886	549.03
582.09	766.11
582.293	1110.17
582.497	1206.42
582.7	747.68
582.904	528.55
583.107	979.1
583.311	878.75
583.515	839.84
583.718	694.43
583.922	1134.75
584.125	1458.32
584.329	559.27
584.532	835.74
584.735	1321.11
584.939	1118.36
585.142	538.79
585.346	641.18
585.549	1128.6
585.753	823.45
585.956	723.1
586.159	866.46
586.363	1394.84
586.566	1106.07
586.769	708.77
586.973	727.2
587.176	1001.63
587.379	1308.82
587.582	1124.51
587.786	983.2
587.989	1022.11
588.192	1771.66
588.395	831.65
588.599	1015.96
588.802	1147.03
589.005	1341.59
589.208	778.4
589.411	766.11
589.615	1308.82
589.818	1423.51
590.021	1026.2
590.224	882.85
590.427	1353.88
590.63	1231
590.833	630.95
591.036	712.86
591.239	1022.11
591.442	923.8
591.645	1050.78
591.848	723.1
592.051	1210.52
592.254	1308.82
592.457	944.28
592.66	1001.63
592.863	1147.03
593.066	1269.91
593.269	768.16
593.472	940.19
593.675	876.7
593.878	1409.17
594.081	950.43
594.284	776.35
594.486	1276.06
594.689	1202.33
594.892	1022.11
595.095	977.05
595.298	1276.06
595.5	1083.55
595.703	1013.92
595.906	1034.39
596.109	1544.34
596.311	1329.3
596.514	721.06
596.717	981.15
596.92	1632.4
597.122	1319.06
597.325	743.58
597.528	886.94
597.73	1599.63
597.933	1253.53
598.136	903.32
598.338	708.77
598.541	1300.63
598.743	1599.63
598.946	946.33
599.148	1061.02
599.351	1573.01
599.554	1448.08
599.756	1120.41
599.959	1067.16
600.161	1562.77
600.363	1939.6
600.566	1218.71
600.768	948.38
600.971	1775.76
601.173	1419.41
601.376	972.96
601.578	1038.49
601.78	1476.76
601.983	1939.6
602.185	1022.11
602.388	1169.56
602.59	1530
602.792	1243.29
602.995	1222.81
603.197	1177.75
603.399	1628.31
603.601	1419.41
603.804	1128.6
604.006	1040.54
604.208	1372.31
604.41	968.86
604.613	1345.69
604.815	987.29
605.017	1906.83
605.219	1325.21
605.421	1398.93
605.623	1136.79
605.826	1708.18
606.028	1829.01
606.23	1136.79
606.432	1149.08
606.634	1933.45
606.836	1861.77
607.038	985.24
607.24	1390.74
607.442	1480.85
607.644	1587.35
607.846	1251.48
608.048	1130.65
608.25	1751.18
608.452	1239.19
608.654	1388.69
608.856	1046.68
609.058	1423.51
609.26	1667.22
609.462	1280.15
609.664	1294.49
609.866	1898.64
610.067	1749.14
610.269	1464.47
610.471	1271.96
610.673	1429.65
610.875	1699.98
611.077	1085.59
611.278	1368.21
611.48	1599.63
611.682	1876.11
611.884	1411.22
612.085	1298.58
612.287	1296.53
612.489	1616.02
612.69	1187.99
612.892	1249.43
613.094	1872.01
613.295	1628.31
613.497	1120.41
613.699	1288.34
613.9	1917.07
614.102	1722.51
614.304	1392.79
614.505	1118.36
614.707	1476.76
614.908	1570.96
615.11	1255.58
615.311	1425.56
615.513	1714.32
615.714	1783.95
615.916	1222.81
616.117	1474.71
616.319	1575.06
616.52	1867.92
616.722	1261.72
616.923	1446.04
617.124	1742.99
617.326	1736.85
617.527	1622.16
617.729	1659.03
617.93	1861.77
618.131	1835.15
618.333	1390.74
618.534	1378.45
618.735	1593.49
618.937	1992.84
619.138	1308.82
619.339	1398.93
619.54	1804.43
619.742	1478.8
619.943	1536.15
620.144	1450.13
620.345	1984.65
620.546	1996.94
620.748	1360.02
620.949	1509.52
621.15	1742.99
621.351	1890.45
621.552	1487
621.753	1327.25
621.954	1403.03
622.155	2205.83
622.356	1376.41
622.558	1704.08
622.759	1839.25
622.96	2248.84
623.161	1583.25
623.362	1534.1
623.563	1853.58
623.764	1931.41
623.965	1519.76
624.166	1716.37
624.366	1710.22
624.567	1851.53
624.768	1181.85
624.969	1603.73
625.17	1699.98
625.371	1876.11
625.572	1613.97
625.773	1448.08
625.973	1915.02
626.174	2027.66
626.375	1589.39
626.576	1761.42
626.777	2017.42
626.977	2394.25
627.178	1585.3
627.379	1722.51
627.58	1912.97
627.78	1859.73
627.981	1755.28
628.182	1777.81
628.382	2091.15
628.583	1595.54
628.784	1609.87
628.984	1716.37
629.185	2125.96
629.386	2134.15
629.586	1747.09
629.787	1644.69
629.987	2029.71
630.188	2056.33
630.388	1685.65
630.589	1906.83
630.79	2588.8
630.99	1968.27
631.191	1878.16
631.391	1771.66
631.591	2101.39
631.792	2414.73
631.992	1921.17
632.193	1812.62
632.393	2330.76
632.594	1976.46
632.794	1718.42
632.994	1829.01
633.195	1998.99
633.395	2072.72
633.595	1751.18
633.796	1992.84
633.996	1892.49
634.196	2435.21
634.397	1611.92
634.597	1884.3
634.797	1947.79
634.997	2404.49
635.198	2070.67
635.398	1689.74
635.598	2093.19
635.798	2381.96
635.998	2181.26
636.199	1765.52
636.399	2056.33
636.599	1853.58
636.799	1816.72
636.999	2164.87
637.199	2293.9
637.399	2381.96
637.599	1927.31
637.799	2013.32
637.999	1966.22
638.199	2496.64
638.399	1788.05
638.599	1970.32
638.799	2324.62
638.999	2586.76
639.199	2062.48
639.399	1992.84
639.599	2482.31
639.799	1962.12
639.999	1812.62
640.199	1771.66
640.399	2218.12
640.599	2406.53
640.799	2066.57
640.998	2052.24
641.198	2455.69
641.398	2293.9
641.598	2119.82
641.798	2052.24
641.997	3274.87
642.197	2189.45
642.397	2183.31
642.597	1960.08
642.796	2504.84
642.996	2576.52
643.196	2236.55
643.395	1929.36
643.595	2476.16
643.795	1867.92
643.994	2027.66
644.194	2107.53
644.394	2498.69
644.593	2390.15
644.793	1951.88
644.992	2287.75
645.192	2439.3
645.392	2056.33
645.591	2166.92
645.791	2187.4
645.99	2599.04
646.19	2224.26
646.389	2189.45
646.589	2074.76
646.788	2601.09
646.987	2482.31
647.187	2414.73
647.386	2369.67
647.586	2433.16
647.785	2545.8
647.984	2189.45
648.184	2201.74
648.383	2160.78
648.582	2236.55
648.782	2164.87
648.981	2343.05
649.18	2293.9
649.38	2449.54
649.579	2156.68
649.778	2222.22
649.977	2609.28
650.177	2574.47
650.376	2197.64
650.575	2021.52
650.774	3022.97
650.973	2363.53
651.173	2136.2
651.372	2312.33
651.571	2570.37
651.77	2668.67
651.969	2279.56
652.168	2367.62
652.367	2287.75
652.566	2478.21
652.765	2246.79
652.964	2553.99
653.163	3178.62
653.362	2422.92
653.561	2449.54
653.76	2394.25
653.959	2562.18
654.158	2703.49
654.357	2508.93
654.556	2287.75
654.755	2728.07
654.954	2803.84
655.153	2332.81
655.352	2431.11
655.551	2996.35
655.749	2416.77
655.948	2584.71
656.147	2459.78
656.346	2619.52
656.545	2711.68
656.743	2447.49
656.942	2523.27
657.141	2766.98
657.34	2435.21
657.538	2537.6
657.737	2494.6
657.936	2562.18
658.135	2685.06
658.333	2422.92
658.532	2578.56
658.731	3100.8
658.929	2943.1
659.128	2695.3
659.326	2404.49
659.525	3192.95
659.724	2717.83
659.922	2287.75
660.121	2295.94
660.319	2877.57
660.518	2492.55
660.716	2467.97
660.915	2463.88
661.113	3182.71
661.312	2590.85
661.51	2754.69
661.709	2459.78
661.907	3039.36
662.105	3018.88
662.304	2627.71
662.502	2627.71
662.701	3082.36
662.899	2701.44
663.097	2873.47
663.296	2539.65
663.494	3061.88
663.692	3086.46
663.891	2582.66
664.089	2400.39
664.287	2959.49
664.485	3205.24
664.684	2531.46
664.882	2836.61
665.08	2848.9
665.278	2936.96
665.476	2570.37
665.675	2941.05
665.873	3442.81
666.071	3264.63
666.269	2562.18
666.467	2869.37
666.665	2971.77
666.863	2885.76
667.061	2902.14
667.259	2695.3
667.457	2963.58
667.655	3043.45
667.853	2531.46
668.051	2904.19
668.249	2701.44
668.447	3047.55
668.645	2732.16
668.843	2893.95
669.041	3240.06
669.239	2939.01
669.437	2775.17
669.635	2943.1
669.833	2838.66
670.031	3131.51
670.229	2797.7
670.426	2859.14
670.624	2918.53
670.822	2783.36
671.02	2971.77
671.218	2939.01
671.415	2785.41
671.613	3037.31
671.811	2828.42
672.009	2916.48
672.206	3156.09
672.404	3090.56
672.602	2914.43
672.799	2906.24
672.997	3156.09
673.195	3336.31
673.392	3057.79
673.59	2662.53
673.788	3168.38
673.985	2582.66
674.183	3020.92
674.38	2930.81
674.578	3334.26
674.775	2932.86
674.973	2732.16
675.17	2812.03
675.368	3543.16
675.565	3258.49
675.763	2795.65
675.96	2842.75
676.158	3557.49
676.355	3106.94
676.553	2764.93
676.75	2967.68
676.947	3184.76
677.145	3082.36
677.342	3133.56
677.539	3096.7
677.737	3238.01
677.934	3711.09
678.131	3080.32
678.329	2883.71
678.526	3582.07
678.723	3459.19
678.92	3035.26
679.118	3111.04
679.315	3043.45
679.512	3563.64
679.709	2924.67
679.906	2910.33
680.104	3465.33
680.301	3330.17
680.498	2926.72
680.695	3010.68
680.892	3129.47
681.089	3143.8
681.286	3244.15
681.483	2818.18
681.68	3389.56
681.877	3508.34
682.075	3094.65
682.272	3307.64
682.469	3420.28
682.665	3248.25
682.862	3020.92
683.059	2836.61
683.256	3395.7
683.453	3340.41
683.65	3125.37
683.847	3147.9
684.044	3131.51
684.241	3035.26
684.438	3274.87
684.635	2975.87
684.831	3801.2
685.028	3862.64
685.225	3008.64
685.422	3225.72
685.619	3299.45
685.815	3285.11
686.012	3270.78
686.209	3172.47
686.405	3119.23
686.602	3549.3
686.799	3043.45
686.996	3029.12
687.192	3178.62
687.389	3735.67
687.586	3147.9
687.782	3301.5
687.979	3678.32
688.175	3590.26
688.372	3223.67
688.568	3121.28
688.765	3356.79
688.962	3639.41
689.158	3328.12
689.355	3045.5
689.551	3526.77
689.748	3438.71
689.944	3340.41
690.14	3014.78
690.337	3627.12
690.533	3238.01
690.73	3463.29
690.926	3225.72
691.123	3629.17
691.319	3424.37
691.515	2955.39
691.712	3268.73
691.908	3516.53
692.104	3434.61
692.301	3309.69
692.497	3092.6
692.693	3801.2
692.889	3686.51
693.086	3319.93
693.282	3078.27
693.478	3446.9
693.674	3905.65
693.87	3258.49
694.067	3197.05
694.263	3565.68
694.459	3594.36
694.655	3422.33
694.851	3463.29
695.047	3655.79
695.243	3758.19
695.439	3309.69
695.635	3258.49
695.831	3700.85
696.027	3594.36
696.224	3297.4
696.42	3764.34
696.615	3956.85
696.811	3653.75
697.007	3278.97
697.203	3031.16
697.399	3657.84
697.595	3809.39
697.791	3201.15
697.987	3491.96
698.183	3309.69
698.379	3299.45
698.575	3340.41
698.77	3328.12
698.966	3790.96
699.162	3926.13
699.358	3418.23
699.554	3459.19
699.749	3729.52
699.945	3807.34
700.141	3407.99
700.337	3448.95
700.532	3637.36
700.728	3530.87
700.924	3311.74
701.119	3258.49
701.315	3797.1
701.511	3487.86
701.706	3395.7
701.902	3223.67
702.097	3600.5
702.293	3737.71
702.489	3473.53
702.684	3307.64
702.88	3670.13
703.075	3483.77
703.271	3467.38
703.466	3418.23
703.662	3776.63
703.857	3913.84
704.053	3440.76
704.248	3440.76
704.443	3905.65
704.639	3901.55
704.834	3446.9
705.03	3422.33
705.225	3997.81
705.42	3905.65
705.616	3582.07
705.811	3303.54
706.006	3729.52
706.202	3602.55
706.397	3563.64
706.592	3307.64
706.787	3793.01
706.983	3741.81
707.178	3788.91
707.373	3512.44
707.568	3874.93
707.763	4061.29
707.959	3434.61
708.154	3676.27
708.349	3854.45
708.544	3842.16
708.739	3752.05
708.934	3342.46
709.129	3836.02
709.324	4079.72
709.519	3647.6
709.714	3424.37
709.909	4180.07
710.104	3833.97
710.299	3498.1
710.494	3516.53
710.689	3930.22
710.884	3805.3
711.079	3590.26
711.274	3831.92
711.469	3938.41
711.664	3874.93
711.859	3620.98
712.054	3745.91
712.249	3790.96
712.443	4055.15
712.638	3461.24
712.833	3457.14
713.028	3846.26
713.223	3833.97
713.417	3797.1
713.612	3547.25
713.807	4110.44
714.002	4397.16
714.196	3872.88
714.391	3631.22
714.586	4069.48
714.78	3903.6
714.975	3598.45
715.17	3635.32
715.364	3745.91
715.559	4073.58
715.754	3471.48
715.948	3559.54
716.143	4407.4
716.337	3774.58
716.532	3823.73
716.726	3659.89
716.921	3989.61
717.115	4360.3
717.31	3539.06
717.504	4284.52
717.699	3696.75
717.893	4026.48
718.088	3659.89
718.282	3416.18
718.476	3858.54
718.671	4020.33
718.865	3739.76
719.059	3729.52
719.254	3762.29
719.448	4135.02
719.642	5032.03
719.837	3539.06
720.031	4024.43
720.225	4233.32
720.419	3682.42
720.614	3510.39
720.808	4167.79
721.002	3891.31
721.196	3637.36
721.39	3797.1
721.585	4280.43
721.779	4012.14
721.973	3571.83
722.167	3571.83
722.361	4006
722.555	4120.68
722.749	3659.89
722.943	3645.56
723.137	3725.43
723.331	3965.04
723.525	3633.27
723.719	3801.2
723.913	4032.62
724.107	4163.69
724.301	3696.75
724.495	3676.27
724.689	4345.96
724.883	4341.86
725.077	3719.28
725.271	3829.87
725.465	4212.84
725.659	3975.28
725.853	3915.89
726.046	3577.97
726.24	3786.86
726.434	4165.74
726.628	3717.23
726.822	3833.97
727.015	4264.04
727.209	4305
727.403	3805.3
727.596	3659.89
727.79	4155.5
727.984	4128.88
728.177	3702.9
728.371	3881.07
728.565	4208.75
728.758	3801.2
728.952	3602.55
729.146	3704.95
729.339	4321.38
729.533	3934.32
729.726	3840.11
729.92	3854.45
730.113	4450.41
730.307	4055.15
730.5	3797.1
730.694	3733.62
730.887	3989.61
731.081	4196.46
731.274	3793.01
731.468	3860.59
731.661	4094.06
731.854	3917.93
732.048	3827.82
732.241	3831.92
732.435	3979.37
732.628	4145.26
732.821	3934.32
733.014	3862.64
733.208	3932.27
733.401	4214.89
733.594	3924.08
733.788	3854.45
733.981	4503.65
734.174	4302.95
734.367	3860.59
734.56	4018.29
734.754	4360.3
734.947	4159.6
735.14	3817.58
735.333	4083.82
735.526	4376.68
735.719	3975.28
735.912	3883.12
736.105	3801.2
736.298	4192.36
736.491	4055.15
736.684	3899.5
736.877	3846.26
737.07	4257.9
737.263	4524.13
737.456	3946.61
737.649	3778.67
737.842	4094.06
738.035	4286.57
738.228	4051.05
738.421	4102.25
738.614	4505.7
738.807	4429.93
739	3805.3
739.192	3868.78
739.385	4415.59
739.578	4409.45
739.771	4212.84
739.964	4010.09
740.156	4337.77
740.349	4190.31
740.542	4352.1
740.735	3948.65
740.927	3997.81
741.12	3840.11
741.313	3901.55
741.505	4188.27
741.698	4341.86
741.891	4315.24
742.083	4143.21
742.276	4077.68
742.468	4261.99
742.661	4270.19
742.854	4028.53
743.046	4147.31
743.239	4618.34
743.431	4343.91
743.624	4075.63
743.816	3885.17
744.009	4294.76
744.201	4450.41
744.393	4266.09
744.586	4032.62
744.778	4446.31
744.971	4335.72
745.163	4057.2
745.355	4225.13
745.548	4231.27
745.74	4149.36
745.932	4104.3
746.125	4184.17
746.317	4884.58
746.509	4348.01
746.702	4143.21
746.894	4065.39
747.086	4249.71
747.278	4679.78
747.471	4259.95
747.663	4171.88
747.855	4450.41
748.047	4798.56
748.239	3905.65
748.431	4180.07
748.623	4718.69
748.815	4741.22
749.008	4175.98
749.2	3922.03
749.392	4616.29
749.584	4522.09
749.776	4321.38
749.968	4198.51
750.16	4773.99
750.352	4358.25
750.544	4028.53
750.736	4169.84
750.928	4511.85
751.12	4382.82
751.311	4081.77
751.503	4212.84
751.695	4413.54
751.887	4450.41
752.079	3981.42
752.271	4204.65
752.463	5255.26
752.654	4735.07
752.846	4266.09
753.038	4233.32
753.23	4247.66
753.421	4489.32
753.613	4245.61
753.805	4456.55
753.997	4567.14
754.188	4708.45
754.38	4114.54
754.572	4249.71
754.763	4511.85
754.955	4561
755.146	4376.68
755.338	4413.54
755.53	4667.49
755.721	4401.26
755.913	3987.57
756.104	4008.05
756.296	4411.5
756.487	4716.64
756.679	4044.91
756.87	4106.35
757.062	4149.36
757.253	4487.27
757.445	4151.4
757.636	4413.54
757.827	4585.57
758.019	5154.91
758.21	4184.17
758.401	4132.97
758.593	4948.06
758.784	4728.93
758.975	4173.93
759.167	3950.7
759.358	4421.74
759.549	4634.72
759.74	4167.79
759.932	4038.77
760.123	4786.27
760.314	4339.82
760.505	4331.62
760.696	4057.2
760.888	4941.92
761.079	4229.23
761.27	4114.54
761.461	3995.76
761.652	4694.12
761.843	4378.73
762.034	4241.51
762.225	4417.64
762.416	4520.04
762.607	4448.36
762.798	4317.29
762.989	4118.64
763.18	5224.54
763.371	4268.14
763.562	4167.79
763.753	4251.75
763.944	4749.41
764.135	4550.76
764.326	4354.15
764.517	4184.17
764.708	4509.8
764.899	4530.28
765.089	4108.4
765.28	3883.12
765.471	4411.5
765.662	4690.02
765.853	4341.86
766.043	4151.4
766.234	4634.72
766.425	4714.59
766.615	4282.47
766.806	4014.19
766.997	4831.33
767.187	4468.84
767.378	4198.51
767.569	3909.74
767.759	4530.28
767.95	4446.31
768.141	4501.61
768.331	4114.54
768.522	4261.99
768.712	4622.44
768.903	4178.03
769.093	4135.02
769.284	4579.43
769.474	4509.8
769.665	4028.53
769.855	3950.7
770.046	4638.82
770.236	4458.6
770.426	4311.14
770.617	4364.39
770.807	4554.85
770.998	4288.62
771.188	4337.77
771.378	4206.7
771.569	4575.33
771.759	4726.88
771.949	4089.96
772.139	4053.1
772.33	4302.95
772.52	4728.93
772.71	4122.73
772.9	3840.11
773.09	4833.38
773.281	4759.65
773.471	4059.24
773.661	4210.79
773.851	4606.05
774.041	4235.37
774.231	4141.16
774.421	4286.57
774.611	4827.23
774.802	4313.19
774.992	4137.07
775.182	4110.44
775.372	4479.08
775.562	4702.31
775.752	4061.29
775.942	4331.62
776.131	4890.72
776.321	4452.45
776.511	4132.97
776.701	4069.48
776.891	4575.33
777.081	4163.69
777.271	4225.13
777.461	4110.44
777.651	4628.58
777.84	4716.64
778.03	4331.62
778.22	4044.91
778.41	4759.65
778.599	4227.18
778.789	4188.27
778.979	4024.43
779.169	4425.83
779.358	4229.23
779.548	4415.59
779.738	4147.31
779.927	4472.93
780.117	4089.96
780.307	4059.24
780.496	3823.73
780.686	4579.43
780.875	4837.47
781.065	4098.16
781.254	4067.44
781.444	4276.33
781.633	4503.65
781.823	4192.36
782.012	4049
782.202	4241.51
782.391	4315.24
782.581	4020.33
782.77	4350.06
782.96	4440.17
783.149	4175.98
783.338	4067.44
783.528	3983.47
783.717	4462.69
783.906	4708.45
784.096	4321.38
784.285	3987.57
784.474	4401.26
784.663	4272.23
784.853	4175.98
785.042	4229.23
785.231	4329.58
785.42	4733.03
785.61	4411.5
785.799	3977.33
785.988	4249.71
786.177	4317.29
786.366	4163.69
786.555	4343.91
786.744	4581.48
786.933	4501.61
787.122	3965.04
787.312	3868.78
787.501	4259.95
787.69	4558.95
787.879	4184.17
788.068	3956.85
788.257	4055.15
788.445	4350.06
788.634	4059.24
788.823	4022.38
789.012	4974.69
789.201	4735.07
789.39	4227.18
789.579	4116.59
789.768	4317.29
789.957	4470.89
790.145	4083.82
790.334	3793.01
790.523	4255.85
790.712	4206.7
790.9	4122.73
791.089	3969.13
791.278	4470.89
791.467	4311.14
791.655	4382.82
791.844	4561
792.033	4178.03
792.221	4288.62
792.41	4053.1
792.599	3842.16
792.787	4483.17
792.976	4544.61
793.164	4069.48
793.353	4216.94
793.541	4526.18
793.73	4528.23
793.918	4046.96
794.107	4057.2
794.295	4503.65
794.484	4393.06
794.672	3991.66
794.861	3967.09
795.049	4329.58
795.238	4620.39
795.426	3864.69
795.614	4198.51
795.803	4384.87
795.991	4716.64
796.179	4055.15
796.368	4182.12
796.556	4741.22
796.744	4229.23
796.932	4161.64
797.121	4053.1
797.309	4352.1
797.497	4530.28
797.685	4112.49
797.874	4026.48
798.062	4366.44
798.25	4710.5
798.438	4008.05
798.626	4159.6
798.814	4597.86
799.002	4995.17
799.19	4368.49
799.378	4110.44
799.566	4583.52
799.755	4554.85
799.943	4259.95
800.131	4100.2
800.318	4520.04
800.506	4296.81
800.694	3995.76
800.882	4284.52
801.07	4618.34
801.258	4409.45
801.446	4089.96
801.634	4044.91
801.822	4395.11
802.01	4442.21
802.197	4188.27
802.385	4374.63
802.573	4444.26
802.761	4378.73
802.949	4173.93
803.136	3924.08
803.324	4778.08
803.512	4474.98
803.699	4249.71
803.887	3971.18
804.075	4890.72
804.262	4386.92
804.45	4227.18
804.638	4268.14
804.825	4358.25
805.013	4413.54
805.201	4337.77
805.388	4196.46
805.576	4505.7
805.763	5001.31
805.951	4302.95
806.138	4577.38
806.326	5152.86
806.513	4722.79
806.701	4384.87
806.888	4327.53
807.075	4618.34
807.263	4984.93
807.45	4137.07
807.638	4255.85
807.825	5101.66
808.012	4845.66
808.2	4397.16
808.387	4630.63
808.574	4835.42
808.761	4900.96
808.949	4517.99
809.136	4620.39
809.323	4661.35
809.51	4665.44
809.698	4683.88
809.885	4550.76
810.072	4843.62
810.259	4888.67
810.446	4470.89
810.633	4528.23
810.82	4991.07
811.008	5208.16
811.195	4610.15
811.382	4483.17
811.569	4647.01
811.756	4472.93
811.943	4499.56
812.13	4515.94
812.317	4571.24
812.504	4575.33
812.691	4505.7
812.878	4642.92
813.064	4948.06
813.251	4771.94
813.438	4491.37
813.625	4659.3
813.812	4802.66
813.999	4761.7
814.186	4655.2
814.372	4616.29
814.559	4995.17
814.746	5167.2
814.933	4683.88
815.12	4741.22
815.306	4593.76
815.493	4681.83
815.68	4483.17
815.866	4612.2
816.053	4915.3
816.24	5388.38
816.426	4526.18
816.613	4499.56
816.799	4923.49
816.986	5093.47
817.173	4704.35
817.359	4630.63
817.546	4909.15
817.732	4536.42
817.919	4397.16
818.105	4653.16
818.292	4784.23
818.478	5017.69
818.665	4730.98
818.851	4706.4
819.037	5380.18
819.224	4784.23
819.41	4409.45
819.597	4444.26
819.783	5253.21
819.969	4989.02
820.156	4616.29
820.342	4591.72
820.528	5677.14
820.714	4952.16
820.901	5040.22
821.087	4563.05
821.273	5199.96
821.459	4683.88
821.646	4417.64
821.832	4567.14
822.018	4898.91
822.204	4939.87
822.39	4679.78
822.576	4421.74
822.762	5136.48
822.948	5013.6
823.134	4759.65
823.32	4718.69
823.507	4593.76
823.693	4896.86
823.879	5013.6
824.065	4612.2
824.25	4976.73
824.436	4403.3
824.622	4450.41
824.808	4579.43
824.994	4847.71
825.18	4743.27
825.366	4507.75
825.552	4466.79
825.738	4708.45
825.923	5132.38
826.109	4837.47
826.295	4542.57
826.481	4620.39
826.667	4833.38
826.852	4776.03
827.038	4440.17
827.224	5034.08
827.409	5265.5
827.595	4425.83
827.781	4739.17
827.966	4966.49
828.152	5044.32
828.338	4714.59
828.523	4356.2
828.709	4704.35
828.894	5036.13
829.08	4536.42
829.266	4546.66
829.451	4700.26
829.637	4872.29
829.822	4628.58
830.008	4499.56
830.193	5093.47
830.378	5159
830.564	4649.06
830.749	4382.82
830.935	4966.49
831.12	4898.91
831.305	4380.78
831.491	4538.47
831.676	4599.91
831.861	4849.76
832.047	4509.8
832.232	4403.3
832.417	4962.4
832.602	4800.61
832.788	4503.65
832.973	4350.06
833.158	4583.52
833.343	4884.58
833.528	4677.73
833.714	4589.67
833.899	4853.86
834.084	5240.92
834.269	4636.77
834.454	4577.38
834.639	4784.23
834.824	4681.83
835.009	4622.44
835.194	4773.99
835.379	5064.8
835.564	5029.98
835.749	4597.86
835.934	4329.58
836.119	4898.91
836.304	4804.71
836.489	4511.85
836.674	4690.02
836.859	4466.79
837.044	5066.85
837.228	4573.28
837.413	4317.29
837.598	4847.71
837.783	4946.02
837.968	4421.74
838.152	4245.61
838.337	4161.64
838.522	5027.93
838.707	4952.16
838.891	4628.58
839.076	4950.11
839.261	4884.58
839.445	4421.74
839.63	4542.57
839.815	4956.26
839.999	4853.86
840.184	4384.87
840.368	4593.76
840.553	4898.91
840.737	4866.14
840.922	4272.23
841.106	4571.24
841.291	4436.07
841.475	4696.16
841.66	4247.66
841.844	4423.78
842.029	5453.91
842.213	4421.74
842.397	4456.55
842.582	4104.3
842.766	5066.85
842.951	4966.49
843.135	4546.66
843.319	4296.81
843.504	4722.79
843.688	4972.64
843.872	4239.47
844.056	4489.32
844.241	4853.86
844.425	4540.52
844.609	4563.05
844.793	4229.23
844.977	4896.86
845.161	4792.42
845.346	4350.06
845.53	4405.35
845.714	4714.59
845.898	5003.36
846.082	4102.25
846.266	4364.39
846.45	4534.37
846.634	4743.27
846.818	4378.73
847.002	4339.82
847.186	4694.12
847.37	4331.62
847.554	4161.64
847.738	4413.54
847.922	4618.34
848.106	4722.79
848.29	4210.79
848.473	4352.1
848.657	4761.7
848.841	4554.85
849.025	4327.53
849.209	4266.09
849.392	4698.21
849.576	4585.57
849.76	4210.79
849.944	4364.39
850.127	4831.33
850.311	4311.14
850.495	4266.09
850.678	4135.02
850.862	4991.07
851.046	5101.66
851.229	4614.24
851.413	4223.08
851.596	4716.64
851.78	4520.04
851.964	4636.77
852.147	4175.98
852.331	5341.27
852.514	4788.32
852.698	4374.63
852.881	4180.07
853.065	4798.56
853.248	4556.9
853.431	4378.73
853.615	4431.98
853.798	5222.49
853.982	4937.82
854.165	4462.69
854.348	4198.51
854.532	4446.31
854.715	4458.6
854.898	4421.74
855.081	4161.64
855.265	4839.52
855.448	4728.93
855.631	4173.93
855.814	4212.84
855.997	4868.19
856.181	4544.61
856.364	4358.25
856.547	4126.83
856.73	4440.17
856.913	4538.47
857.096	4221.03
857.279	4298.86
857.462	4513.89
857.645	4597.86
857.828	4425.83
858.011	4331.62
858.194	4370.54
858.377	4773.99
858.56	4159.6
858.743	4087.92
858.926	4198.51
859.109	4597.86
859.292	4112.49
859.475	4067.44
859.658	4814.95
859.841	4540.52
860.023	4069.48
860.206	4118.64
860.389	4530.28
860.572	4773.99
860.755	4237.42
860.937	4225.13
861.12	4327.53
861.303	4565.09
861.486	4196.46
861.668	4061.29
861.851	4577.38
862.034	4305
862.216	4307.05
862.399	4003.95
862.581	4556.9
862.764	4724.83
862.947	4147.31
863.129	4092.01
863.312	4198.51
863.494	4786.27
863.677	4302.95
863.859	4006
864.042	4485.22
864.224	4677.73
864.406	4077.68
864.589	3872.88
864.771	4548.71
864.954	4116.59
865.136	4102.25
865.318	3833.97
865.501	4567.14
865.683	3987.57
865.865	3885.17
866.048	4022.38
866.23	4323.43
866.412	4329.58
866.594	3743.86
866.777	4006
866.959	4335.72
867.141	4157.55
867.323	4247.66
867.505	4208.75
867.687	4343.91
867.869	4296.81
868.052	4089.96
868.234	3743.86
868.416	4462.69
868.598	4405.35
868.78	4057.2
868.962	3782.77
869.144	4452.45
869.326	4528.23
869.508	3899.5
869.69	3899.5
869.872	4237.42
870.054	4620.39
870.236	3811.44
870.417	3895.41
870.599	4206.7
870.781	4733.03
870.963	4178.03
871.145	4034.67
871.327	4008.05
871.508	4384.87
871.69	4008.05
871.872	4044.91
872.054	4266.09
872.235	4446.31
872.417	3932.27
872.599	3946.61
872.78	4765.79
872.962	4243.56
873.144	3881.07
873.325	4014.19
873.507	4618.34
873.689	4391.02
873.87	3975.28
874.052	4290.67
874.233	4249.71
874.415	4626.53
874.596	4057.2
874.778	3930.22
874.959	4339.82
875.141	4429.93
875.322	4143.21
875.503	4006
875.685	4491.37
875.866	4036.72
876.048	3950.7
876.229	4038.77
876.41	4184.17
876.592	4491.37
876.773	4137.07
876.954	3934.32
877.136	4730.98
877.317	4290.67
877.498	3942.51
877.679	4208.75
877.86	4429.93
878.042	4364.39
878.223	4071.53
878.404	4479.08
878.585	4542.57
878.766	4841.57
878.947	4538.47
879.128	4227.18
879.309	4528.23
879.49	4673.64
879.672	4257.9
879.853	4184.17
880.034	4325.48
880.215	4442.21
880.396	4370.54
880.576	4235.37
880.757	4268.14
880.938	4853.86
881.119	4218.99
881.3	4188.27
881.481	4233.32
881.662	5410.9
881.843	4212.84
882.023	4079.72
882.204	4536.42
882.385	4587.62
882.566	4384.87
882.747	4180.07
882.927	4409.45
883.108	4724.83
883.289	4251.75
883.469	4454.5
883.65	4446.31
883.831	4759.65
884.011	4554.85
884.192	4335.72
884.373	4765.79
884.553	4741.22
884.734	4601.96
884.914	4685.92
885.095	5283.93
885.275	5081.18
885.456	4718.69
885.636	4241.51
885.817	4733.03
885.997	4712.55
886.178	4102.25
886.358	4458.6
886.538	4866.14
886.719	5851.22
886.899	4489.32
887.08	4644.96
887.26	5075.04
887.44	4462.69
887.621	4335.72
887.801	4460.65
887.981	5326.94
888.161	5005.41
888.342	4462.69
888.522	4507.75
888.702	4986.97
888.882	4984.93
889.062	4571.24
889.242	4354.15
889.423	5175.39
889.603	4966.49
889.783	4737.12
889.963	4542.57
890.143	4991.07
890.323	5216.35
890.503	4677.73
890.683	4626.53
890.863	4872.29
891.043	4847.71
891.223	4747.36
891.403	4980.83
891.583	5021.79
891.763	5038.17
891.943	4812.9
892.122	4348.01
892.302	4943.97
892.482	4872.29
892.662	4833.38
892.842	4692.07
893.022	4984.93
893.201	4816.99
893.381	4913.25
893.561	4733.03
893.741	5224.54
893.92	5060.7
894.1	4735.07
894.28	4819.04
894.459	4984.93
894.639	5003.36
894.819	4653.16
894.998	4720.74
895.178	5191.77
895.357	5036.13
895.537	4698.21
895.716	4612.2
895.896	4986.97
896.075	5537.88
896.255	4733.03
896.434	4561
896.614	5314.65
896.793	5296.22
896.973	4675.68
897.152	4720.74
897.331	5052.51
897.511	5197.92
897.69	4608.1
897.87	4739.17
898.049	5116
898.228	4933.73
898.407	4776.03
898.587	4755.55
898.766	4702.31
898.945	5060.7
899.124	4905.06
899.304	4864.1
899.483	5167.2
899.662	5408.86
899.841	4657.25
900.02	4837.47
900.199	5216.35
900.378	5308.51
900.557	4589.67
900.737	4608.1
900.916	5134.43
901.095	5091.42
901.274	4860
901.453	4638.82
901.632	4667.49
901.811	4728.93
901.989	4622.44
902.168	4563.05
902.347	5173.34
902.526	4726.88
902.705	4716.64
902.884	4730.98
903.063	5318.75
903.242	5269.59
903.42	4448.36
903.599	4714.59
903.778	5136.48
903.957	5300.31
904.135	4651.11
904.314	4659.3
904.493	4839.52
904.672	5101.66
904.85	4524.13
905.029	4644.96
905.207	5038.17
905.386	5568.6
905.565	4517.99
905.743	4526.18
905.922	4765.79
906.1	5046.37
906.279	4577.38
906.457	4565.09
906.636	4761.7
906.814	4804.71
906.993	4515.94
907.171	4511.85
907.35	4972.64
907.528	5095.52
907.707	4786.27
907.885	4468.84
908.063	5003.36
908.242	4472.93
908.42	4538.47
908.598	4409.45
908.777	4913.25
908.955	4614.24
909.133	4608.1
909.311	4474.98
909.49	4567.14
909.668	4632.68
909.846	4364.39
910.024	4348.01
910.202	4733.03
910.38	4880.48
910.559	4274.28
910.737	4345.96
910.915	4816.99
911.093	4710.5
911.271	4446.31
911.449	4595.81
911.627	4855.9
911.805	5077.09
911.983	4331.62
912.161	4307.05
912.339	4749.41
912.517	4884.58
912.695	4530.28
912.872	4544.61
913.05	4370.54
913.228	4687.97
913.406	4364.39
913.584	4454.5
913.762	4786.27
913.939	4434.02
914.117	4243.56
914.295	4089.96
914.473	4655.2
914.65	4558.95
914.828	4135.02
915.006	4073.58
915.184	4317.29
915.361	4739.17
915.539	4380.78
915.716	4360.3
915.894	4585.57
916.072	4743.27
916.249	4405.35
916.427	4339.82
916.604	4319.34
916.782	4530.28
916.959	3977.33
917.137	4196.46
917.314	4511.85
917.492	4618.34
917.669	4216.94
917.847	4118.64
918.024	4534.37
918.201	4163.69
918.379	4163.69
918.556	4184.17
918.733	4526.18
918.911	4167.79
919.088	4358.25
919.265	4036.72
919.442	4438.12
919.62	4284.52
919.797	3987.57
919.974	3915.89
920.151	4325.48
920.328	4319.34
920.506	3919.98
920.683	4255.85
920.86	3903.6
921.037	4071.53
921.214	3999.85
921.391	3799.15
921.568	4358.25
921.745	4057.2
921.922	4001.9
922.099	3872.88
922.276	4270.19
922.453	4175.98
922.63	3836.02
922.807	4159.6
922.984	4227.18
923.161	4044.91
923.338	3852.4
923.514	3790.96
923.691	4044.91
923.868	4210.79
924.045	3762.29
924.222	3752.05
924.399	4229.23
924.575	4370.54
924.752	3889.26
924.929	3934.32
925.105	4075.63
925.282	3629.17
925.459	3688.56
925.635	3807.34
925.812	3938.41
925.989	3809.39
926.165	3643.51
926.342	3416.18
926.518	3672.18
926.695	3922.03
926.871	3610.74
927.048	3600.5
927.224	4087.92
927.401	3696.75
927.577	3723.38
927.754	3520.63
927.93	4012.14
928.107	3956.85
928.283	3465.33
928.459	3735.67
928.636	3774.58
928.812	3674.23
928.988	3401.85
929.165	3426.42
929.341	3608.69
929.517	3747.95
929.693	3721.33
929.87	3201.15
930.046	3864.69
930.222	3639.41
930.398	3467.38
930.574	3422.33
930.751	3678.32
930.927	3610.74
931.103	3393.65
931.279	3324.02
931.455	3332.22
931.631	3520.63
931.807	3217.53
931.983	3096.7
932.159	3135.61
932.335	3508.34
932.511	3342.46
932.687	3276.92
932.863	3414.13
933.039	3344.5
933.215	3086.46
933.391	3037.31
933.566	3451
933.742	3309.69
933.918	3047.55
934.094	2914.43
934.27	3274.87
934.445	3405.94
934.621	3025.02
934.797	2881.66
934.973	3401.85
935.148	3270.78
935.324	2738.3
935.5	2629.76
935.675	3307.64
935.851	3029.12
936.027	2785.41
936.202	2771.07
936.378	3016.83
936.553	2961.53
936.729	3022.97
936.904	2373.77
937.08	2556.04
937.255	2607.23
937.431	2392.2
937.606	2189.45
937.782	2492.55
937.957	2621.57
938.133	2398.34
938.308	2250.89
938.483	2570.37
938.659	2214.02
938.834	2328.71
939.009	2035.85
939.185	2373.77
939.36	2082.95
939.535	1788.05
939.71	2066.57
939.886	2480.26
940.061	2351.24
940.236	2115.72
940.411	2089.1
940.586	2273.42
940.761	2254.98
940.937	1980.56
941.112	1826.96
941.287	2005.13
941.462	2111.63
941.637	1790.1
941.812	1812.62
941.987	2044.04
942.162	2007.18
942.337	1867.92
942.512	1822.86
942.687	2183.31
942.862	2046.09
943.037	1556.63
943.212	1396.89
943.386	1869.97
943.561	2103.43
943.736	1759.38
943.911	1906.83
944.086	1964.17
944.26	1925.26
944.435	1742.99
944.61	1693.84
944.785	2119.82
944.959	2361.48
945.134	1652.88
945.309	1460.37
945.483	1671.31
945.658	2007.18
945.833	1308.82
946.007	1613.97
946.182	2209.93
946.357	1532.05
946.531	1472.66
946.706	1491.09
946.88	1466.52
947.055	1843.34
947.229	1562.77
947.404	1501.33
947.578	1925.26
947.752	1636.5
947.927	1423.51
948.101	1398.93
948.276	1786
948.45	1693.84
948.624	1800.34
948.799	1589.39
948.973	1859.73
949.147	1450.13
949.321	1724.56
949.496	1616.02
949.67	2068.62
949.844	1732.75
950.018	1642.64
950.193	1587.35
950.367	2316.42
950.541	1726.61
950.715	1677.46
950.889	1794.19
951.063	1759.38
951.237	1972.36
951.411	1378.45
951.585	1484.95
951.759	1865.87
951.933	1759.38
952.107	1540.24
952.281	1859.73
952.455	2248.84
952.629	2111.63
952.803	1579.15
952.977	1603.73
953.151	2054.28
953.325	1882.25
953.499	1620.11
953.672	1353.88
953.846	1720.46
954.02	1740.94
954.194	1587.35
954.368	1550.48
954.541	2103.43
954.715	1691.79
954.889	1638.55
955.062	1468.56
955.236	1661.07
955.41	1783.95
955.583	1726.61
955.757	1435.8
955.93	1689.74
956.104	1570.96
956.278	1505.43
956.451	1523.86
956.625	1929.36
956.798	2230.41
956.972	1790.1
957.145	1521.81
957.319	1790.1
957.492	1792.14
957.665	1728.66
957.839	1409.17
958.012	1863.82
958.185	1681.55
958.359	1611.92
958.532	1710.22
958.705	2019.47
958.879	1788.05
959.052	1556.63
959.225	1329.3
959.398	1783.95
959.572	1857.68
959.745	1425.56
959.918	1521.81
960.091	1753.23
960.264	1900.69
960.438	1394.84
960.611	1530
960.784	2136.2
960.957	1628.31
961.13	1898.64
961.303	1409.17
961.476	1673.36
961.649	1964.17
961.822	1384.6
961.995	1519.76
962.168	1915.02
962.341	1757.33
962.514	1589.39
962.686	1464.47
962.859	1788.05
963.032	1800.34
963.205	1441.94
963.378	1327.25
963.551	1788.05
963.723	1722.51
963.896	1564.82
964.069	1624.21
964.242	1677.46
964.414	1804.43
964.587	1605.78
964.76	1536.15
964.932	1867.92
965.105	1669.27
965.278	1448.08
965.45	1425.56
965.623	1742.99
965.795	1900.69
965.968	1505.43
966.14	1585.3
966.313	1579.15
966.485	1663.12
966.658	1448.08
966.83	1423.51
967.003	1872.01
967.175	1861.77
967.348	1439.89
967.52	1482.9
967.692	1960.08
967.865	1794.19
968.037	1509.52
968.209	1699.98
968.382	1636.5
968.554	1900.69
968.726	1554.58
968.898	1343.64
969.071	1796.24
969.243	1757.33
969.415	1509.52
969.587	1491.09
969.759	2144.39
969.932	1892.49
970.104	1550.48
970.276	1202.33
970.448	1513.62
970.62	1534.1
970.792	1585.3
970.964	1466.52
971.136	2087.05
971.308	1829.01
971.48	1331.35
971.652	1530
971.824	2062.48
971.996	1472.66
972.168	1403.03
972.339	1394.84
972.511	1802.38
972.683	1583.25
972.855	1636.5
973.027	1415.32
973.199	1656.98
973.37	1783.95
973.542	1525.91
973.714	1495.19
973.886	1554.58
974.057	1925.26
974.229	1400.98
974.401	1480.85
974.572	1525.91
974.744	1267.86
974.915	1374.36
975.087	1368.21
975.259	2001.04
975.43	1446.04
975.602	1357.97
975.773	1222.81
975.945	1396.89
976.116	1613.97
976.288	1368.21
976.459	1454.23
976.63	1536.15
976.802	1806.48
976.973	1306.77
977.145	1454.23
977.316	1947.79
977.487	1628.31
977.659	1487
977.83	1437.84
978.001	2054.28
978.172	1665.17
978.344	1386.65
978.515	1274.01
978.686	1568.91
978.857	1867.92
979.028	1439.89
979.2	1251.48
979.371	1859.73
979.542	1564.82
979.713	1448.08
979.884	932
980.055	1443.99
980.226	1527.96
980.397	1179.8
980.568	1310.87
980.739	1794.19
980.91	1472.66
981.081	1343.64
981.252	1104.03
981.423	1613.97
981.594	1755.28
981.765	1151.13
981.936	1335.45
982.106	1581.2
982.277	1759.38
982.448	1181.85
982.619	1325.21
982.79	1388.69
982.96	1855.63
983.131	1308.82
983.302	995.48
983.472	1388.69
983.643	1573.01
983.814	1300.63
983.984	1308.82
984.155	1562.77
984.326	1740.94
984.496	1243.29
984.667	1118.36
984.837	1292.44
985.008	1865.87
985.178	1382.55
985.349	1235.1
985.519	1407.13
985.69	1280.15
985.86	1216.66
986.031	1122.46
986.201	1474.71
986.371	1677.46
986.542	1097.88
986.712	975
986.882	1556.63
987.053	1542.29
987.223	1058.97
987.393	1308.82
987.563	1286.3
987.734	1558.67
987.904	1466.52
988.074	1239.19
988.244	1409.17
988.414	1347.73
988.585	1149.08
988.755	1206.42
988.925	1360.02
989.095	1808.53
989.265	1138.84
989.435	1212.57
989.605	1573.01
989.775	1515.67
989.945	1398.93
990.115	1069.21
990.285	1394.84
990.455	1321.11
990.625	1190.04
990.795	1132.7
990.965	1720.46
991.134	1251.48
991.304	1009.82
991.474	1071.26
991.644	1349.78
991.814	1790.1
991.984	1050.78
992.153	999.58
992.323	1237.14
992.493	1271.96
992.662	805.02
992.832	1323.16
993.002	1353.88
993.171	1374.36
993.341	893.09
993.511	1204.38
993.68	1249.43
993.85	1476.76
994.019	919.71
994.189	975
994.358	1390.74
994.528	1063.07
994.697	823.45
994.867	1007.77
995.036	1525.91
995.206	1126.55
995.375	874.65
995.544	1124.51
995.714	1357.97
995.883	1169.56
996.052	1308.82
996.222	782.49
996.391	1706.13
996.56	1247.38
996.73	893.09
996.899	845.98
997.068	1573.01
997.237	1233.05
997.406	981.15
997.576	764.06
997.745	1398.93
997.914	1337.49
998.083	716.96
998.252	884.89
998.421	1198.23
998.59	1030.3
998.759	829.6
998.928	780.45
999.097	1478.8
999.266	1290.39
999.435	1056.92
999.604	835.74
999.773	1644.69
999.942	923.8
1000.111	780.45
1000.28	772.25
1000.448	954.52
1000.617	962.72
1000.786	964.76
1000.955	704.67
1001.124	1267.86
1001.292	1769.62
1001.461	825.5
1001.63	794.78
1001.798	1527.96
1001.967	1501.33
1002.136	759.97
1002.304	772.25
1002.473	1327.25
1002.642	1155.23
1002.81	786.59
1002.979	819.36
1003.147	1347.73
1003.316	1652.88
1003.484	778.4
1003.653	784.54
1003.821	1443.99
1003.99	1034.39
1004.158	905.37
1004.327	809.12
1004.495	1167.51
1004.663	977.05
1004.832	913.56
1005	516.26
1005.168	1161.37
1005.337	1044.63
1005.505	645.28
1005.673	964.76
1005.842	1241.24
1006.01	1083.55
1006.178	676
1006.346	657.57
1006.514	1071.26
1006.683	1439.89
1006.851	733.34
1007.019	628.9
1007.187	852.13
1007.355	557.22
1007.523	518.31
1007.691	540.83
1007.859	768.16
1008.027	1235.1
1008.195	786.59
1008.363	506.02
1008.531	1222.81
1008.699	897.18
1008.867	573.6
1009.035	639.14
1009.203	1362.07
1009.37	1058.97
1009.538	688.29
1009.706	1175.7
1009.874	1048.73
1010.042	981.15
1010.209	536.74
1010.377	579.75
1010.545	1261.72
1010.713	1054.87
1010.88	622.75
1011.048	655.52
1011.216	805.02
1011.383	1317.01
1011.551	514.21
1011.718	555.17
1011.886	1179.8
1012.054	989.34
1012.221	581.79
1012.389	585.89
1012.556	921.76
1012.724	1355.93
1012.891	788.64
1013.058	522.4
1013.226	1030.3
1013.393	1083.55
1013.561	569.51
1013.728	465.06
1013.895	1112.22
1014.063	1110.17
1014.23	530.59
1014.397	622.75
1014.565	1104.03
1014.732	923.8
1014.899	561.31
1015.066	497.83
1015.233	852.13
1015.401	1089.69
1015.568	643.23
1015.735	676
1015.902	899.23
1016.069	1038.49
1016.236	518.31
1016.403	434.34
1016.57	755.87
1016.737	987.29
1016.904	610.47
1017.071	436.39
1017.238	735.39
1017.405	1038.49
1017.572	583.84
1017.739	655.52
1017.906	1009.82
1018.073	1204.38
1018.24	438.44
1018.407	587.94
1018.573	1157.27
1018.74	784.54
1018.907	493.73
1019.074	342.18
1019.241	1138.84
1019.407	938.14
1019.574	387.24
1019.741	352.42
1019.907	934.04
1020.074	981.15
1020.241	278.69
1020.407	399.52
1020.574	878.75
1020.74	876.7
1020.907	434.34
1021.073	348.33
1021.24	1349.78
1021.406	1231
1021.573	338.09
1021.739	424.1
1021.906	1030.3
1022.072	721.06
1022.239	440.48
1022.405	422.05
1022.571	837.79
1022.738	653.47
1022.904	450.72
1023.07	567.46
1023.237	891.04
1023.403	1130.65
1023.569	471.2
1023.735	426.15
1023.902	762.02
1024.068	882.85
1024.234	301.22
1024.4	538.79
1024.566	878.75
1024.732	909.47
1024.898	454.82
1025.065	166.06
1025.231	970.91
1025.397	766.11
1025.563	479.4
1025.729	333.99
1025.895	342.18
1026.061	499.88
1026.227	170.15
1026.392	405.67
1026.558	1011.87
1026.724	788.64
1026.89	307.37
1027.056	501.92
1027.222	796.83
1027.388	698.53
1027.553	350.37
1027.719	237.74
1027.885	1167.51
1028.051	909.47
1028.216	141.48
1028.382	370.85
1028.548	860.32
1028.713	542.88
1028.879	258.21
1029.045	489.64
1029.21	1005.72
1029.376	950.43
1029.541	403.62
1029.707	344.23
1029.873	858.27
1030.038	911.52
1030.204	329.89
1030.369	268.45
1030.534	796.83
1030.7	624.8
1030.865	368.81
1031.031	286.89
1031.196	813.21
1031.361	780.45
1031.527	309.41
1031.692	274.6
1031.857	153.77
1032.023	913.56
1032.188	202.92
1032.353	295.08
1032.518	1022.11
1032.684	682.14
1032.849	106.67
1033.014	270.5
1033.179	854.17
1033.344	743.58
1033.509	352.42
1033.674	321.7
1033.839	669.86
1034.004	893.09
1034.17	333.99
1034.335	204.97
1034.5	546.98
1034.664	497.83
1034.829	225.45
1034.994	360.61
1035.159	673.95
1035.324	657.57
1035.489	213.16
1035.654	202.92
1035.819	948.38
1035.984	692.38
1036.148	374.95
1036.313	227.5
1036.478	899.23
1036.643	645.28
1036.807	215.21
1036.972	178.34
1037.137	915.61
1037.301	585.89
1037.466	-46.93
1037.631	223.4
1037.795	858.27
1037.96	606.37
1038.124	405.67
1038.289	129.19
1038.454	719.01
1038.618	800.93
1038.783	252.07
1038.947	323.75
1039.111	585.89
1039.276	475.3
1039.44	118.95
1039.605	721.06
1039.769	503.97
1039.933	569.51
1040.098	225.45
1040.262	440.48
1040.426	755.87
1040.591	673.95
1040.755	125.1
1040.919	174.25
1041.083	678.05
1041.248	532.64
1041.412	69.8
1041.576	90.28
1041.74	596.13
1041.904	759.97
1042.068	202.92
1042.232	260.26
1042.397	800.93
1042.561	733.34
1042.725	6.31
1042.889	284.84
1043.053	743.58
1043.217	671.9
1043.381	264.36
1043.544	-3.93
1043.708	829.6
1043.872	297.13
1044.036	63.66
1044.2	106.67
1044.364	807.07
1044.528	938.14
1044.691	1515.67
1044.855	55.47
1045.019	837.79
1045.183	721.06
1045.346	211.11
1045.51	67.75
1045.674	653.47
1045.837	757.92
1046.001	137.38
1046.165	96.43
1046.328	958.62
1046.492	663.71
1046.655	344.23
1046.819	252.07
1046.983	399.52
1047.146	589.99
1047.31	170.15
1047.473	-18.26
1047.636	456.87
1047.8	327.85
1047.963	188.58
1048.127	118.95
1048.29	323.75
